    FDMNES
    energy     <xanes>
   7097.00  5.5901507E-03
   7097.33  5.7376391E-03
   7097.67  5.8924914E-03
   7098.00  6.0552378E-03
   7098.33  6.2276358E-03
   7098.67  6.4093782E-03
   7099.00  6.6011943E-03
   7099.33  6.8054112E-03
   7099.67  7.0217209E-03
   7100.00  7.2511518E-03
   7100.33  7.4968634E-03
   7100.67  7.7585851E-03
   7101.00  8.0378102E-03
   7101.33  8.3389565E-03
   7101.67  8.6618732E-03
   7102.00  9.0088050E-03
   7102.33  9.3861476E-03
   7102.67  9.7940506E-03
   7103.00  1.0236029E-02
   7103.33  1.0721739E-02
   7103.67  1.1252030E-02
   7104.00  1.1832689E-02
   7104.33  1.2479066E-02
   7104.67  1.3193645E-02
   7105.00  1.3986561E-02
   7105.33  1.4883849E-02
   7105.67  1.5891963E-02
   7106.00  1.7030126E-02
   7106.33  1.8346385E-02
   7106.67  1.9857619E-02
   7107.00  2.1604375E-02
   7107.33  2.3686141E-02
   7107.67  2.6150813E-02
   7108.00  2.9097792E-02
   7108.33  3.2770575E-02
   7108.67  3.7329703E-02
   7109.00  4.3082034E-02
   7109.33  5.0805853E-02
   7109.67  6.1230246E-02
   7110.00  7.5748136E-02
   7110.33  9.8223548E-02
   7110.67  1.3324634E-01
   7111.00  1.8707148E-01
   7111.33  2.6618238E-01
   7111.67  3.6299127E-01
   7112.00  4.8176286E-01
   7112.33  6.3780396E-01
   7112.67  7.5680520E-01
   7113.00  7.6228962E-01
   7113.33  6.9641144E-01
   7113.67  6.3687125E-01
   7114.00  5.7792897E-01
   7114.33  4.9592195E-01
   7114.67  4.0813411E-01
   7115.00  3.3376718E-01
   7115.33  2.8100195E-01
   7115.67  2.4373006E-01
   7116.00  2.1808189E-01
   7116.33  2.0178304E-01
   7116.67  1.9142372E-01
   7117.00  1.8536749E-01
   7117.33  1.8201885E-01
   7117.67  1.7902394E-01
   7118.00  1.7491611E-01
   7118.33  1.6896877E-01
   7118.67  1.6208519E-01
   7119.00  1.5508064E-01
   7119.33  1.4845834E-01
   7119.67  1.4222764E-01
   7120.00  1.3644417E-01
   7120.33  1.3146122E-01
   7120.67  1.2753424E-01
   7121.00  1.2467024E-01
   7121.33  1.2257609E-01
   7121.67  1.2096950E-01
   7122.00  1.2004679E-01
   7122.33  1.2010723E-01
   7122.67  1.2085594E-01
   7123.00  1.2205321E-01
   7123.33  1.2364976E-01
   7123.67  1.2565074E-01
   7124.00  1.2810742E-01
   7124.33  1.3108116E-01
   7124.67  1.3450420E-01
   7125.00  1.3849032E-01
   7125.33  1.4348873E-01
   7125.67  1.4980041E-01
   7126.00  1.5778375E-01
   7126.33  1.6818284E-01
   7126.67  1.8134717E-01
   7127.00  1.9798947E-01
   7127.33  2.1978496E-01
   7127.67  2.4754810E-01
   7128.00  2.8255779E-01
   7128.33  3.2676191E-01
   7128.67  3.7841469E-01
   7129.00  4.3495802E-01
   7129.33  4.9128498E-01
   7129.67  5.4258859E-01
   7130.00  5.8743001E-01
   7130.33  6.2671470E-01
   7130.67  6.6371575E-01
   7131.00  6.9999884E-01
   7131.33  7.3594050E-01
   7131.67  7.7087540E-01
   7132.00  8.0383688E-01
   7132.33  8.3332171E-01
   7132.67  8.5866444E-01
   7133.00  8.7896258E-01
   7133.33  8.9248240E-01
   7133.67  8.9912660E-01
   7134.00  8.9827814E-01
   7134.33  8.8869466E-01
   7134.67  8.7186005E-01
   7135.00  8.4855141E-01
   7135.33  8.1871493E-01
   7135.67  7.8370007E-01
   7136.00  7.4474213E-01
   7136.33  7.0401461E-01
   7136.67  6.6417989E-01
   7137.00  6.2693153E-01
   7137.33  5.9420435E-01
   7137.67  5.6635318E-01
   7138.00  5.4356009E-01
   7138.33  5.2589449E-01
   7138.67  5.1173723E-01
   7139.00  5.0010812E-01
   7139.33  4.9039192E-01
   7139.67  4.8205664E-01
   7140.00  4.7518488E-01
   7140.33  4.7034218E-01
   7140.67  4.6773173E-01
   7141.00  4.6768348E-01
   7141.33  4.7079607E-01
   7141.67  4.7677613E-01
   7142.00  4.8551714E-01
   7142.33  4.9703357E-01
   7142.67  5.1057503E-01
   7143.00  5.2568376E-01
   7143.33  5.4191302E-01
   7143.67  5.5857579E-01
   7144.00  5.7522596E-01
   7144.33  5.9135060E-01
   7144.67  6.0663538E-01
   7145.00  6.2082875E-01
   7145.33  6.3355151E-01
   7145.67  6.4482580E-01
   7146.00  6.5458201E-01
   7146.33  6.6259652E-01
   7146.67  6.6907700E-01
   7147.00  6.7406379E-01
   7147.33  6.7745696E-01
   7147.67  6.7954114E-01
   7148.00  6.8043152E-01
   7148.33  6.8015377E-01
   7148.67  6.7899526E-01
   7149.00  6.7708365E-01
   7149.33  6.7450166E-01
   7149.67  6.7148802E-01
   7150.00  6.6816923E-01
   7150.33  6.6465354E-01
   7150.67  6.6107670E-01
   7151.00  6.5752264E-01
   7151.33  6.5408532E-01
   7151.67  6.5081470E-01
   7152.00  6.4775146E-01
   7152.33  6.4496011E-01
   7152.67  6.4243404E-01
   7153.00  6.4018707E-01
   7153.33  6.3826597E-01
   7153.67  6.3664022E-01
   7154.00  6.3531110E-01
   7154.33  6.3431200E-01
   7154.67  6.3359581E-01
   7155.00  6.3314612E-01
   7155.33  6.3296178E-01
   7155.67  6.3296701E-01
   7156.00  6.3310806E-01
   7156.33  6.3331294E-01
   7156.67  6.3347864E-01
   7157.00  6.3351088E-01
   7157.33  6.3326151E-01
   7157.67  6.3264953E-01
   7158.00  6.3158970E-01
   7158.33  6.2993526E-01
   7158.67  6.2769616E-01
   7159.00  6.2484529E-01
   7159.33  6.2129683E-01
   7159.67  6.1714237E-01
   7160.00  6.1240970E-01
   7160.33  6.0708093E-01
   7160.67  6.0128290E-01
   7161.00  5.9506900E-01
   7161.33  5.8846115E-01
   7161.67  5.8158049E-01
   7162.00  5.7449674E-01
   7162.33  5.6727247E-01
   7162.67  5.5999780E-01
   7163.00  5.5273405E-01
   7163.33  5.4555731E-01
   7163.67  5.3851733E-01
   7164.00  5.3165867E-01
   7164.33  5.2505074E-01
   7164.67  5.1869325E-01
   7165.00  5.1259658E-01
   7165.33  5.0678668E-01
   7165.67  5.0120567E-01
   7166.00  4.9581665E-01
   7166.33  4.9057941E-01
   7166.67  4.8540945E-01
   7167.00  4.8024462E-01
   7167.33  4.7500628E-01
   7167.67  4.6964066E-01
   7168.00  4.6410403E-01
   7168.33  4.5833258E-01
   7168.67  4.5233621E-01
   7169.00  4.4611844E-01
   7169.33  4.3967549E-01
   7169.67  4.3307214E-01
   7170.00  4.2635721E-01
   7170.33  4.1960108E-01
   7170.67  4.1290677E-01
   7171.00  4.0638494E-01
   7171.33  4.0026361E-01
   7171.67  3.9479039E-01
   7172.00  3.9031803E-01
