    FDMNES
    energy     <xanes>
   7097.00  4.3810250E-03
   7097.33  4.4688697E-03
   7097.67  4.5599441E-03
   7098.00  4.6544263E-03
   7098.33  4.7529958E-03
   7098.67  4.8554459E-03
   7099.00  4.9620082E-03
   7099.33  5.0735296E-03
   7099.67  5.1897862E-03
   7100.00  5.3110870E-03
   7100.33  5.4385107E-03
   7100.67  5.5718222E-03
   7101.00  5.7114462E-03
   7101.33  5.8587950E-03
   7101.67  6.0136376E-03
   7102.00  6.1765800E-03
   7102.33  6.3495370E-03
   7102.67  6.5323192E-03
   7103.00  6.7258334E-03
   7103.33  6.9327964E-03
   7103.67  7.1531510E-03
   7104.00  7.3883399E-03
   7104.33  7.6424578E-03
   7104.67  7.9158095E-03
   7105.00  8.2108824E-03
   7105.33  8.5343801E-03
   7105.67  8.8875975E-03
   7106.00  9.2753159E-03
   7106.33  9.7098624E-03
   7106.67  1.0195467E-02
   7107.00  1.0742824E-02
   7107.33  1.1378750E-02
   7107.67  1.2117670E-02
   7108.00  1.2989371E-02
   7108.33  1.4068963E-02
   7108.67  1.5416903E-02
   7109.00  1.7149211E-02
   7109.33  1.9578820E-02
   7109.67  2.3081687E-02
   7110.00  2.8405825E-02
   7110.33  3.7711071E-02
   7110.67  5.2924451E-02
   7111.00  7.2266178E-02
   7111.33  8.3904204E-02
   7111.67  8.6313814E-02
   7112.00  8.3574087E-02
   7112.33  7.7614039E-02
   7112.67  7.1394831E-02
   7113.00  6.6498634E-02
   7113.33  6.3606219E-02
   7113.67  6.2548922E-02
   7114.00  6.3374166E-02
   7114.33  6.6352850E-02
   7114.67  7.1241779E-02
   7115.00  7.8053198E-02
   7115.33  8.7092495E-02
   7115.67  9.8099089E-02
   7116.00  1.1087506E-01
   7116.33  1.2506241E-01
   7116.67  1.3998612E-01
   7117.00  1.5572855E-01
   7117.33  1.7328885E-01
   7117.67  1.9309181E-01
   7118.00  2.1540109E-01
   7118.33  2.4172844E-01
   7118.67  2.7312401E-01
   7119.00  3.0973169E-01
   7119.33  3.4958649E-01
   7119.67  3.8770896E-01
   7120.00  4.2024754E-01
   7120.33  4.4481009E-01
   7120.67  4.6299189E-01
   7121.00  4.7410433E-01
   7121.33  4.7482210E-01
   7121.67  4.6653051E-01
   7122.00  4.5202870E-01
   7122.33  4.3610958E-01
   7122.67  4.2459276E-01
   7123.00  4.2062159E-01
   7123.33  4.2405021E-01
   7123.67  4.3033775E-01
   7124.00  4.3736646E-01
   7124.33  4.4482451E-01
   7124.67  4.5320657E-01
   7125.00  4.6293326E-01
   7125.33  4.7442522E-01
   7125.67  4.8732171E-01
   7126.00  5.0093760E-01
   7126.33  5.1367823E-01
   7126.67  5.2400260E-01
   7127.00  5.3101669E-01
   7127.33  5.3413943E-01
   7127.67  5.3448159E-01
   7128.00  5.3304109E-01
   7128.33  5.3101811E-01
   7128.67  5.2942104E-01
   7129.00  5.2858830E-01
   7129.33  5.2854297E-01
   7129.67  5.2883336E-01
   7130.00  5.2895749E-01
   7130.33  5.2813626E-01
   7130.67  5.2610054E-01
   7131.00  5.2304643E-01
   7131.33  5.1962650E-01
   7131.67  5.1659186E-01
   7132.00  5.1428118E-01
   7132.33  5.1278783E-01
   7132.67  5.1169866E-01
   7133.00  5.1064928E-01
   7133.33  5.0942103E-01
   7133.67  5.0837692E-01
   7134.00  5.0819309E-01
   7134.33  5.0968415E-01
   7134.67  5.1247794E-01
   7135.00  5.1577484E-01
   7135.33  5.1841780E-01
   7135.67  5.1975218E-01
   7136.00  5.1953814E-01
   7136.33  5.1761647E-01
   7136.67  5.1439642E-01
   7137.00  5.1015937E-01
   7137.33  5.0522767E-01
   7137.67  5.0010677E-01
   7138.00  4.9514167E-01
   7138.33  4.9072534E-01
   7138.67  4.8703228E-01
   7139.00  4.8418740E-01
   7139.33  4.8237345E-01
   7139.67  4.8147676E-01
   7140.00  4.8145527E-01
   7140.33  4.8231579E-01
   7140.67  4.8382753E-01
   7141.00  4.8585630E-01
   7141.33  4.8829236E-01
   7141.67  4.9095554E-01
   7142.00  4.9375857E-01
   7142.33  4.9665626E-01
   7142.67  4.9963815E-01
   7143.00  5.0274700E-01
   7143.33  5.0609810E-01
   7143.67  5.0977516E-01
   7144.00  5.1387390E-01
   7144.33  5.1855548E-01
   7144.67  5.2382502E-01
   7145.00  5.2971772E-01
   7145.33  5.3632551E-01
   7145.67  5.4355154E-01
   7146.00  5.5135670E-01
   7146.33  5.5972832E-01
   7146.67  5.6849021E-01
   7147.00  5.7751045E-01
   7147.33  5.8660044E-01
   7147.67  5.9551939E-01
   7148.00  6.0406379E-01
   7148.33  6.1195560E-01
   7148.67  6.1910428E-01
   7149.00  6.2541155E-01
   7149.33  6.3071089E-01
   7149.67  6.3512228E-01
   7150.00  6.3869260E-01
   7150.33  6.4141085E-01
   7150.67  6.4346302E-01
   7151.00  6.4490875E-01
   7151.33  6.4569692E-01
   7151.67  6.4588507E-01
   7152.00  6.4544128E-01
   7152.33  6.4423838E-01
   7152.67  6.4234530E-01
   7153.00  6.3979280E-01
   7153.33  6.3659997E-01
   7153.67  6.3297153E-01
   7154.00  6.2903612E-01
   7154.33  6.2491360E-01
   7154.67  6.2073846E-01
   7155.00  6.1658157E-01
   7155.33  6.1250457E-01
   7155.67  6.0852452E-01
   7156.00  6.0464687E-01
   7156.33  6.0087580E-01
   7156.67  5.9718287E-01
   7157.00  5.9354958E-01
   7157.33  5.8995568E-01
   7157.67  5.8637241E-01
   7158.00  5.8278038E-01
   7158.33  5.7915368E-01
   7158.67  5.7547566E-01
   7159.00  5.7173168E-01
   7159.33  5.6789894E-01
   7159.67  5.6397951E-01
   7160.00  5.5997218E-01
   7160.33  5.5587547E-01
   7160.67  5.5171802E-01
   7161.00  5.4751995E-01
   7161.33  5.4330734E-01
   7161.67  5.3910952E-01
   7162.00  5.3494689E-01
   7162.33  5.3084376E-01
   7162.67  5.2680222E-01
   7163.00  5.2282145E-01
   7163.33  5.1889769E-01
   7163.67  5.1500655E-01
   7164.00  5.1112785E-01
   7164.33  5.0723251E-01
   7164.67  5.0329350E-01
   7165.00  4.9928720E-01
   7165.33  4.9517915E-01
   7165.67  4.9096483E-01
   7166.00  4.8663843E-01
   7166.33  4.8218911E-01
   7166.67  4.7764259E-01
   7167.00  4.7301497E-01
   7167.33  4.6832370E-01
   7167.67  4.6360563E-01
   7168.00  4.5888899E-01
   7168.33  4.5421205E-01
   7168.67  4.4960355E-01
   7169.00  4.4508988E-01
   7169.33  4.4071279E-01
   7169.67  4.3648023E-01
   7170.00  4.3241056E-01
   7170.33  4.2854816E-01
   7170.67  4.2489504E-01
   7171.00  4.2148048E-01
   7171.33  4.1839568E-01
   7171.67  4.1570166E-01
   7172.00  4.1352309E-01
