    FDMNES
    energy     <xanes>
   7097.00  4.0928771E-03
   7097.33  4.1735906E-03
   7097.67  4.2574776E-03
   7098.00  4.3447407E-03
   7098.33  4.4360958E-03
   7098.67  4.5313800E-03
   7099.00  4.6308708E-03
   7099.33  4.7355007E-03
   7099.67  4.8451066E-03
   7100.00  4.9600813E-03
   7100.33  5.0816776E-03
   7100.67  5.2097510E-03
   7101.00  5.3448784E-03
   7101.33  5.4888074E-03
   7101.67  5.6414544E-03
   7102.00  5.8037049E-03
   7102.33  5.9781114E-03
   7102.67  6.1647457E-03
   7103.00  6.3650428E-03
   7103.33  6.5829461E-03
   7103.67  6.8189062E-03
   7104.00  7.0754068E-03
   7104.33  7.3589836E-03
   7104.67  7.6710250E-03
   7105.00  8.0162011E-03
   7105.33  8.4063580E-03
   7105.67  8.8453590E-03
   7106.00  9.3429771E-03
   7106.33  9.9233655E-03
   7106.67  1.0597680E-02
   7107.00  1.1389556E-02
   7107.33  1.2356890E-02
   7107.67  1.3536357E-02
   7108.00  1.4998265E-02
   7108.33  1.6918573E-02
   7108.67  1.9450691E-02
   7109.00  2.2882295E-02
   7109.33  2.7990828E-02
   7109.67  3.5740475E-02
   7110.00  4.8041102E-02
   7110.33  7.0371391E-02
   7110.67  1.0719919E-01
   7111.00  1.5264093E-01
   7111.33  1.8140896E-01
   7111.67  1.9079268E-01
   7112.00  1.7774148E-01
   7112.33  1.4798413E-01
   7112.67  1.1961637E-01
   7113.00  9.8394861E-02
   7113.33  8.3061782E-02
   7113.67  7.0563002E-02
   7114.00  6.1097527E-02
   7114.33  5.5170225E-02
   7114.67  5.1087298E-02
   7115.00  4.7321081E-02
   7115.33  4.3486929E-02
   7115.67  4.0679605E-02
   7116.00  3.9412463E-02
   7116.33  3.9601019E-02
   7116.67  4.0570057E-02
   7117.00  4.1940073E-02
   7117.33  4.3642391E-02
   7117.67  4.5860093E-02
   7118.00  4.8672965E-02
   7118.33  5.1743720E-02
   7118.67  5.4565737E-02
   7119.00  5.7253824E-02
   7119.33  6.0558598E-02
   7119.67  6.4904336E-02
   7120.00  7.0253709E-02
   7120.33  7.6164799E-02
   7120.67  8.1782155E-02
   7121.00  8.6446890E-02
   7121.33  8.9710132E-02
   7121.67  9.2094093E-02
   7122.00  9.4249803E-02
   7122.33  9.7457433E-02
   7122.67  1.0291271E-01
   7123.00  1.1150200E-01
   7123.33  1.2460123E-01
   7123.67  1.4260870E-01
   7124.00  1.6622401E-01
   7124.33  1.9634316E-01
   7124.67  2.3053331E-01
   7125.00  2.6505496E-01
   7125.33  2.9369584E-01
   7125.67  3.1421276E-01
   7126.00  3.2804296E-01
   7126.33  3.4027863E-01
   7126.67  3.5859117E-01
   7127.00  3.8907075E-01
   7127.33  4.3623291E-01
   7127.67  4.9444874E-01
   7128.00  5.5849140E-01
   7128.33  6.2346325E-01
   7128.67  6.8383760E-01
   7129.00  7.3415739E-01
   7129.33  7.6817088E-01
   7129.67  7.8719537E-01
   7130.00  7.9284164E-01
   7130.33  7.8588031E-01
   7130.67  7.7011288E-01
   7131.00  7.4901665E-01
   7131.33  7.2919035E-01
   7131.67  7.1722710E-01
   7132.00  7.1655079E-01
   7132.33  7.2931445E-01
   7132.67  7.5256130E-01
   7133.00  7.8432337E-01
   7133.33  8.2238143E-01
   7133.67  8.6207378E-01
   7134.00  8.9934665E-01
   7134.33  9.2966725E-01
   7134.67  9.5266530E-01
   7135.00  9.6879729E-01
   7135.33  9.7735426E-01
   7135.67  9.7874140E-01
   7136.00  9.7340807E-01
   7136.33  9.6270162E-01
   7136.67  9.4957971E-01
   7137.00  9.3562166E-01
   7137.33  9.2195051E-01
   7137.67  9.0892062E-01
   7138.00  8.9640933E-01
   7138.33  8.8385635E-01
   7138.67  8.7041169E-01
   7139.00  8.5526173E-01
   7139.33  8.3729439E-01
   7139.67  8.1643798E-01
   7140.00  7.9282354E-01
   7140.33  7.6686583E-01
   7140.67  7.3987754E-01
   7141.00  7.1285348E-01
   7141.33  6.8694677E-01
   7141.67  6.6276048E-01
   7142.00  6.4065445E-01
   7142.33  6.2108909E-01
   7142.67  6.0376760E-01
   7143.00  5.8856832E-01
   7143.33  5.7550754E-01
   7143.67  5.6407713E-01
   7144.00  5.5402569E-01
   7144.33  5.4518854E-01
   7144.67  5.3713876E-01
   7145.00  5.2964311E-01
   7145.33  5.2249928E-01
   7145.67  5.1546950E-01
   7146.00  5.0842388E-01
   7146.33  5.0124728E-01
   7146.67  4.9390942E-01
   7147.00  4.8641469E-01
   7147.33  4.7879915E-01
   7147.67  4.7116682E-01
   7148.00  4.6362256E-01
   7148.33  4.5634057E-01
   7148.67  4.4944838E-01
   7149.00  4.4307418E-01
   7149.33  4.3742780E-01
   7149.67  4.3253493E-01
   7150.00  4.2846407E-01
   7150.33  4.2536529E-01
   7150.67  4.2312526E-01
   7151.00  4.2170128E-01
   7151.33  4.2109553E-01
   7151.67  4.2109634E-01
   7152.00  4.2158491E-01
   7152.33  4.2245709E-01
   7152.67  4.2352334E-01
   7153.00  4.2466714E-01
   7153.33  4.2575270E-01
   7153.67  4.2666541E-01
   7154.00  4.2731769E-01
   7154.33  4.2757856E-01
   7154.67  4.2741362E-01
   7155.00  4.2676067E-01
   7155.33  4.2547909E-01
   7155.67  4.2356639E-01
   7156.00  4.2095771E-01
   7156.33  4.1747804E-01
   7156.67  4.1314907E-01
   7157.00  4.0791699E-01
   7157.33  4.0162527E-01
   7157.67  3.9438827E-01
   7158.00  3.8623513E-01
   7158.33  3.7713108E-01
   7158.67  3.6729001E-01
   7159.00  3.5683230E-01
   7159.33  3.4587162E-01
   7159.67  3.3466387E-01
   7160.00  3.2340342E-01
   7160.33  3.1236187E-01
   7160.67  3.0177374E-01
   7161.00  2.9185810E-01
   7161.33  2.8296243E-01
   7161.67  2.7516742E-01
   7162.00  2.6859915E-01
   7162.33  2.6352460E-01
   7162.67  2.5983547E-01
   7163.00  2.5755137E-01
   7163.33  2.5683996E-01
   7163.67  2.5749271E-01
   7164.00  2.5946081E-01
   7164.33  2.6281585E-01
   7164.67  2.6730360E-01
   7165.00  2.7282716E-01
   7165.33  2.7937227E-01
   7165.67  2.8669395E-01
   7166.00  2.9468100E-01
   7166.33  3.0326973E-01
   7166.67  3.1226282E-01
   7167.00  3.2155343E-01
   7167.33  3.3105347E-01
   7167.67  3.4064299E-01
   7168.00  3.5024971E-01
   7168.33  3.5979478E-01
   7168.67  3.6922417E-01
   7169.00  3.7849288E-01
   7169.33  3.8753037E-01
   7169.67  3.9632213E-01
   7170.00  4.0483344E-01
   7170.33  4.1297875E-01
   7170.67  4.2074119E-01
   7171.00  4.2805038E-01
   7171.33  4.3470092E-01
   7171.67  4.4052970E-01
   7172.00  4.4523393E-01
