    FDMNES
    energy     <xanes>
   7097.00  5.2295897E-03
   7097.33  5.3568071E-03
   7097.67  5.4899163E-03
   7098.00  5.6293182E-03
   7098.33  5.7763797E-03
   7098.67  5.9308238E-03
   7099.00  6.0931952E-03
   7099.33  6.2652791E-03
   7099.67  6.4467890E-03
   7100.00  6.6384834E-03
   7100.33  6.8427513E-03
   7100.67  7.0593206E-03
   7101.00  7.2892783E-03
   7101.33  7.5359142E-03
   7101.67  7.7990234E-03
   7102.00  8.0802175E-03
   7102.33  8.3841832E-03
   7102.67  8.7108995E-03
   7103.00  9.0628546E-03
   7103.33  9.4470053E-03
   7103.67  9.8637756E-03
   7104.00  1.0317201E-02
   7104.33  1.0818146E-02
   7104.67  1.1368089E-02
   7105.00  1.1973993E-02
   7105.33  1.2653957E-02
   7105.67  1.3412034E-02
   7106.00  1.4261242E-02
   7106.33  1.5234410E-02
   7106.67  1.6342389E-02
   7107.00  1.7612319E-02
   7107.33  1.9111219E-02
   7107.67  2.0870407E-02
   7108.00  2.2956201E-02
   7108.33  2.5532012E-02
   7108.67  2.8705884E-02
   7109.00  3.2686772E-02
   7109.33  3.8011614E-02
   7109.67  4.5206049E-02
   7110.00  5.5290985E-02
   7110.33  7.1127340E-02
   7110.67  9.5738895E-02
   7111.00  1.3085194E-01
   7111.33  1.7186679E-01
   7111.67  2.1717895E-01
   7112.00  2.7257308E-01
   7112.33  3.4384288E-01
   7112.67  4.3041660E-01
   7113.00  5.2926566E-01
   7113.33  5.9931444E-01
   7113.67  6.0001843E-01
   7114.00  5.3327151E-01
   7114.33  4.3892366E-01
   7114.67  3.5863012E-01
   7115.00  3.0134612E-01
   7115.33  2.6671201E-01
   7115.67  2.4737062E-01
   7116.00  2.3981139E-01
   7116.33  2.3999726E-01
   7116.67  2.4003557E-01
   7117.00  2.3445410E-01
   7117.33  2.2100733E-01
   7117.67  2.0399068E-01
   7118.00  1.8698807E-01
   7118.33  1.7267214E-01
   7118.67  1.6118128E-01
   7119.00  1.5205620E-01
   7119.33  1.4476366E-01
   7119.67  1.3860817E-01
   7120.00  1.3346301E-01
   7120.33  1.2960985E-01
   7120.67  1.2717726E-01
   7121.00  1.2620885E-01
   7121.33  1.2656968E-01
   7121.67  1.2787332E-01
   7122.00  1.3009260E-01
   7122.33  1.3325823E-01
   7122.67  1.3710101E-01
   7123.00  1.4154660E-01
   7123.33  1.4673841E-01
   7123.67  1.5279830E-01
   7124.00  1.5997955E-01
   7124.33  1.6879816E-01
   7124.67  1.7940910E-01
   7125.00  1.9208837E-01
   7125.33  2.0747532E-01
   7125.67  2.2565384E-01
   7126.00  2.4687479E-01
   7126.33  2.7129232E-01
   7126.67  2.9742098E-01
   7127.00  3.2370976E-01
   7127.33  3.4854793E-01
   7127.67  3.7224972E-01
   7128.00  3.9640151E-01
   7128.33  4.2383563E-01
   7128.67  4.5600439E-01
   7129.00  4.9340251E-01
   7129.33  5.3615654E-01
   7129.67  5.8256493E-01
   7130.00  6.3125342E-01
   7130.33  6.8008081E-01
   7130.67  7.2654432E-01
   7131.00  7.6892171E-01
   7131.33  8.0627033E-01
   7131.67  8.4106464E-01
   7132.00  8.7622495E-01
   7132.33  9.1521038E-01
   7132.67  9.5788327E-01
   7133.00  1.0009363E+00
   7133.33  1.0357623E+00
   7133.67  1.0544937E+00
   7134.00  1.0521605E+00
   7134.33  1.0258017E+00
   7134.67  9.8281092E-01
   7135.00  9.2892881E-01
   7135.33  8.6970125E-01
   7135.67  8.1014980E-01
   7136.00  7.5269100E-01
   7136.33  6.9947074E-01
   7136.67  6.5097299E-01
   7137.00  6.0772957E-01
   7137.33  5.7090584E-01
   7137.67  5.4009773E-01
   7138.00  5.1542112E-01
   7138.33  4.9750371E-01
   7138.67  4.8513425E-01
   7139.00  4.7765932E-01
   7139.33  4.7458629E-01
   7139.67  4.7434539E-01
   7140.00  4.7605988E-01
   7140.33  4.7904171E-01
   7140.67  4.8260471E-01
   7141.00  4.8650847E-01
   7141.33  4.9070783E-01
   7141.67  4.9521345E-01
   7142.00  5.0008677E-01
   7142.33  5.0541533E-01
   7142.67  5.1111360E-01
   7143.00  5.1708672E-01
   7143.33  5.2317248E-01
   7143.67  5.2913842E-01
   7144.00  5.3478338E-01
   7144.33  5.3982057E-01
   7144.67  5.4414061E-01
   7145.00  5.4763719E-01
   7145.33  5.5012341E-01
   7145.67  5.5168951E-01
   7146.00  5.5236228E-01
   7146.33  5.5211640E-01
   7146.67  5.5116591E-01
   7147.00  5.4962522E-01
   7147.33  5.4758469E-01
   7147.67  5.4525293E-01
   7148.00  5.4276410E-01
   7148.33  5.4027610E-01
   7148.67  5.3794688E-01
   7149.00  5.3591087E-01
   7149.33  5.3437635E-01
   7149.67  5.3343712E-01
   7150.00  5.3322801E-01
   7150.33  5.3399946E-01
   7150.67  5.3573424E-01
   7151.00  5.3847485E-01
   7151.33  5.4235116E-01
   7151.67  5.4718124E-01
   7152.00  5.5286620E-01
   7152.33  5.5932044E-01
   7152.67  5.6623743E-01
   7153.00  5.7340406E-01
   7153.33  5.8057584E-01
   7153.67  5.8753723E-01
   7154.00  5.9414115E-01
   7154.33  6.0020522E-01
   7154.67  6.0571453E-01
   7155.00  6.1063389E-01
   7155.33  6.1486810E-01
   7155.67  6.1848679E-01
   7156.00  6.2148896E-01
   7156.33  6.2380053E-01
   7156.67  6.2550579E-01
   7157.00  6.2661622E-01
   7157.33  6.2708073E-01
   7157.67  6.2699990E-01
   7158.00  6.2640391E-01
   7158.33  6.2527270E-01
   7158.67  6.2370659E-01
   7159.00  6.2173993E-01
   7159.33  6.1936485E-01
   7159.67  6.1666022E-01
   7160.00  6.1365088E-01
   7160.33  6.1032526E-01
   7160.67  6.0673644E-01
   7161.00  6.0289441E-01
   7161.33  5.9877553E-01
   7161.67  5.9441741E-01
   7162.00  5.8982664E-01
   7162.33  5.8498121E-01
   7162.67  5.7991504E-01
   7163.00  5.7463439E-01
   7163.33  5.6912352E-01
   7163.67  5.6342178E-01
   7164.00  5.5754266E-01
   7164.33  5.5148107E-01
   7164.67  5.4527172E-01
   7165.00  5.3892739E-01
   7165.33  5.3244811E-01
   7165.67  5.2586363E-01
   7166.00  5.1918747E-01
   7166.33  5.1242641E-01
   7166.67  5.0560589E-01
   7167.00  4.9874044E-01
   7167.33  4.9184547E-01
   7167.67  4.8494552E-01
   7168.00  4.7806130E-01
   7168.33  4.7122596E-01
   7168.67  4.6446614E-01
   7169.00  4.5781287E-01
   7169.33  4.5132205E-01
   7169.67  4.4501264E-01
   7170.00  4.3891866E-01
   7170.33  4.3311720E-01
   7170.67  4.2762696E-01
   7171.00  4.2250190E-01
   7171.33  4.1788852E-01
   7171.67  4.1387725E-01
   7172.00  4.1064832E-01
