    FDMNES
    energy     <xanes>
   7097.00  4.1836732E-03
   7097.33  4.2713745E-03
   7097.67  4.3627138E-03
   7098.00  4.4579303E-03
   7098.33  4.5578558E-03
   7098.67  4.6623115E-03
   7099.00  4.7716255E-03
   7099.33  4.8868858E-03
   7099.67  5.0079136E-03
   7100.00  5.1351733E-03
   7100.33  5.2701310E-03
   7100.67  5.4126299E-03
   7101.00  5.5633506E-03
   7101.33  5.7243423E-03
   7101.67  5.8955174E-03
   7102.00  6.0779180E-03
   7102.33  6.2745365E-03
   7102.67  6.4854623E-03
   7103.00  6.7123762E-03
   7103.33  6.9598903E-03
   7103.67  7.2285229E-03
   7104.00  7.5211638E-03
   7104.33  7.8454191E-03
   7104.67  8.2028622E-03
   7105.00  8.5988787E-03
   7105.33  9.0471440E-03
   7105.67  9.5519949E-03
   7106.00  1.0124572E-02
   7106.33  1.0792437E-02
   7106.67  1.1567979E-02
   7107.00  1.2477744E-02
   7107.33  1.3586744E-02
   7107.67  1.4935117E-02
   7108.00  1.6600268E-02
   7108.33  1.8775343E-02
   7108.67  2.1624510E-02
   7109.00  2.5455392E-02
   7109.33  3.1092844E-02
   7109.67  3.9533875E-02
   7110.00  5.2747627E-02
   7110.33  7.6467920E-02
   7110.67  1.1664517E-01
   7111.00  1.7245878E-01
   7111.33  2.1475173E-01
   7111.67  2.2052645E-01
   7112.00  1.9827218E-01
   7112.33  1.7040402E-01
   7112.67  1.5150800E-01
   7113.00  1.4054256E-01
   7113.33  1.2689592E-01
   7113.67  1.1045657E-01
   7114.00  9.5744711E-02
   7114.33  8.4613411E-02
   7114.67  7.6013896E-02
   7115.00  6.8941463E-02
   7115.33  6.3642092E-02
   7115.67  6.0135996E-02
   7116.00  5.7844485E-02
   7116.33  5.6513099E-02
   7116.67  5.6274964E-02
   7117.00  5.7250350E-02
   7117.33  5.9270045E-02
   7117.67  6.1844481E-02
   7118.00  6.5106732E-02
   7118.33  6.9328766E-02
   7118.67  7.4162351E-02
   7119.00  7.9510797E-02
   7119.33  8.5530758E-02
   7119.67  9.1793196E-02
   7120.00  9.7742633E-02
   7120.33  1.0375367E-01
   7120.67  1.1142072E-01
   7121.00  1.2192693E-01
   7121.33  1.3626805E-01
   7121.67  1.5412314E-01
   7122.00  1.7539191E-01
   7122.33  1.9989133E-01
   7122.67  2.2630945E-01
   7123.00  2.5418547E-01
   7123.33  2.8401768E-01
   7123.67  3.1469317E-01
   7124.00  3.4305204E-01
   7124.33  3.6390688E-01
   7124.67  3.7770593E-01
   7125.00  3.8723066E-01
   7125.33  3.9555197E-01
   7125.67  4.0480782E-01
   7126.00  4.1543704E-01
   7126.33  4.2669646E-01
   7126.67  4.3721380E-01
   7127.00  4.4630127E-01
   7127.33  4.5395553E-01
   7127.67  4.6136952E-01
   7128.00  4.6962561E-01
   7128.33  4.7963846E-01
   7128.67  4.9113475E-01
   7129.00  5.0373260E-01
   7129.33  5.1702227E-01
   7129.67  5.3007722E-01
   7130.00  5.4158766E-01
   7130.33  5.4957688E-01
   7130.67  5.5394229E-01
   7131.00  5.5533296E-01
   7131.33  5.5437309E-01
   7131.67  5.5131592E-01
   7132.00  5.4642390E-01
   7132.33  5.4233584E-01
   7132.67  5.4275636E-01
   7133.00  5.5037961E-01
   7133.33  5.6791504E-01
   7133.67  5.9374084E-01
   7134.00  6.2591872E-01
   7134.33  6.6146581E-01
   7134.67  6.9632284E-01
   7135.00  7.2793136E-01
   7135.33  7.5406125E-01
   7135.67  7.7507902E-01
   7136.00  7.9171381E-01
   7136.33  8.0528034E-01
   7136.67  8.1798651E-01
   7137.00  8.3113020E-01
   7137.33  8.4578883E-01
   7137.67  8.6198138E-01
   7138.00  8.7927285E-01
   7138.33  8.9646348E-01
   7138.67  9.1174551E-01
   7139.00  9.2324894E-01
   7139.33  9.2808925E-01
   7139.67  9.2540368E-01
   7140.00  9.1459637E-01
   7140.33  8.9509363E-01
   7140.67  8.6927374E-01
   7141.00  8.3884588E-01
   7141.33  8.0560056E-01
   7141.67  7.7167983E-01
   7142.00  7.3823410E-01
   7142.33  7.0625082E-01
   7142.67  6.7601050E-01
   7143.00  6.4772133E-01
   7143.33  6.2178934E-01
   7143.67  5.9805300E-01
   7144.00  5.7658091E-01
   7144.33  5.5771290E-01
   7144.67  5.4116691E-01
   7145.00  5.2690723E-01
   7145.33  5.1511834E-01
   7145.67  5.0539923E-01
   7146.00  4.9762588E-01
   7146.33  4.9187187E-01
   7146.67  4.8776448E-01
   7147.00  4.8518091E-01
   7147.33  4.8415401E-01
   7147.67  4.8437120E-01
   7148.00  4.8570413E-01
   7148.33  4.8810234E-01
   7148.67  4.9125727E-01
   7149.00  4.9499291E-01
   7149.33  4.9913645E-01
   7149.67  5.0341572E-01
   7150.00  5.0764712E-01
   7150.33  5.1160368E-01
   7150.67  5.1514089E-01
   7151.00  5.1813310E-01
   7151.33  5.2039087E-01
   7151.67  5.2193472E-01
   7152.00  5.2274944E-01
   7152.33  5.2276812E-01
   7152.67  5.2213572E-01
   7153.00  5.2092119E-01
   7153.33  5.1915821E-01
   7153.67  5.1700763E-01
   7154.00  5.1455149E-01
   7154.33  5.1184577E-01
   7154.67  5.0898448E-01
   7155.00  5.0600872E-01
   7155.33  5.0293669E-01
   7155.67  4.9978995E-01
   7156.00  4.9656581E-01
   7156.33  4.9323546E-01
   7156.67  4.8977582E-01
   7157.00  4.8613909E-01
   7157.33  4.8221330E-01
   7157.67  4.7792687E-01
   7158.00  4.7317763E-01
   7158.33  4.6776917E-01
   7158.67  4.6166748E-01
   7159.00  4.5481091E-01
   7159.33  4.4708017E-01
   7159.67  4.3861283E-01
   7160.00  4.2949591E-01
   7160.33  4.1982784E-01
   7160.67  4.0988179E-01
   7161.00  3.9986709E-01
   7161.33  3.9006194E-01
   7161.67  3.8068935E-01
   7162.00  3.7193624E-01
   7162.33  3.6407614E-01
   7162.67  3.5713366E-01
   7163.00  3.5117572E-01
   7163.33  3.4636819E-01
   7163.67  3.4258905E-01
   7164.00  3.3982619E-01
   7164.33  3.3817722E-01
   7164.67  3.3748569E-01
   7165.00  3.3772114E-01
   7165.33  3.3895557E-01
   7165.67  3.4103196E-01
   7166.00  3.4390062E-01
   7166.33  3.4757512E-01
   7166.67  3.5186538E-01
   7167.00  3.5666250E-01
   7167.33  3.6185485E-01
   7167.67  3.6721166E-01
   7168.00  3.7255312E-01
   7168.33  3.7763330E-01
   7168.67  3.8227523E-01
   7169.00  3.8632800E-01
   7169.33  3.8957652E-01
   7169.67  3.9205220E-01
   7170.00  3.9376268E-01
   7170.33  3.9469075E-01
   7170.67  3.9504477E-01
   7171.00  3.9495685E-01
   7171.33  3.9456473E-01
   7171.67  3.9408068E-01
   7172.00  3.9365010E-01
