    FDMNES
    energy     <xanes>
   7097.00  4.5019428E-03
   7097.33  4.6098674E-03
   7097.67  4.7228681E-03
   7098.00  4.8413078E-03
   7098.33  4.9663950E-03
   7098.67  5.0979182E-03
   7099.00  5.2363812E-03
   7099.33  5.3833922E-03
   7099.67  5.5387473E-03
   7100.00  5.7031671E-03
   7100.33  5.8788549E-03
   7100.67  6.0656497E-03
   7101.00  6.2646176E-03
   7101.33  6.4788844E-03
   7101.67  6.7084085E-03
   7102.00  6.9548333E-03
   7102.33  7.2227818E-03
   7102.67  7.5125028E-03
   7103.00  7.8266575E-03
   7103.33  8.1724408E-03
   7103.67  8.5507866E-03
   7104.00  8.9662731E-03
   7104.33  9.4308326E-03
   7104.67  9.9470544E-03
   7105.00  1.0523439E-02
   7105.33  1.1181448E-02
   7105.67  1.1927935E-02
   7106.00  1.2780327E-02
   7106.33  1.3781603E-02
   7106.67  1.4950814E-02
   7107.00  1.6328838E-02
   7107.33  1.8015535E-02
   7107.67  2.0071021E-02
   7108.00  2.2611591E-02
   7108.33  2.5926127E-02
   7108.67  3.0252708E-02
   7109.00  3.6036984E-02
   7109.33  4.4463222E-02
   7109.67  5.6918877E-02
   7110.00  7.6126731E-02
   7110.33  1.0993721E-01
   7110.67  1.6641417E-01
   7111.00  2.4556487E-01
   7111.33  3.2078215E-01
   7111.67  3.7647713E-01
   7112.00  4.0174149E-01
   7112.33  3.6048302E-01
   7112.67  2.8027162E-01
   7113.00  2.0939520E-01
   7113.33  1.6919027E-01
   7113.67  1.4987081E-01
   7114.00  1.4435867E-01
   7114.33  1.4696737E-01
   7114.67  1.4971146E-01
   7115.00  1.4696412E-01
   7115.33  1.3942516E-01
   7115.67  1.3315055E-01
   7116.00  1.2997173E-01
   7116.33  1.2871434E-01
   7116.67  1.2672729E-01
   7117.00  1.2364288E-01
   7117.33  1.2099000E-01
   7117.67  1.1892255E-01
   7118.00  1.1720425E-01
   7118.33  1.1727534E-01
   7118.67  1.1931646E-01
   7119.00  1.2233951E-01
   7119.33  1.2412894E-01
   7119.67  1.2381836E-01
   7120.00  1.2224228E-01
   7120.33  1.2054762E-01
   7120.67  1.1861493E-01
   7121.00  1.1623115E-01
   7121.33  1.1416884E-01
   7121.67  1.1352698E-01
   7122.00  1.1485666E-01
   7122.33  1.1855116E-01
   7122.67  1.2444772E-01
   7123.00  1.3296127E-01
   7123.33  1.4546178E-01
   7123.67  1.6242256E-01
   7124.00  1.8374840E-01
   7124.33  2.0787131E-01
   7124.67  2.3220165E-01
   7125.00  2.5602276E-01
   7125.33  2.8004354E-01
   7125.67  3.0606794E-01
   7126.00  3.3492233E-01
   7126.33  3.6461753E-01
   7126.67  3.9081513E-01
   7127.00  4.1087369E-01
   7127.33  4.2378713E-01
   7127.67  4.3251663E-01
   7128.00  4.3978587E-01
   7128.33  4.4892770E-01
   7128.67  4.6209488E-01
   7129.00  4.8050604E-01
   7129.33  5.0550180E-01
   7129.67  5.3634262E-01
   7130.00  5.7269040E-01
   7130.33  6.1436292E-01
   7130.67  6.5939023E-01
   7131.00  7.0609340E-01
   7131.33  7.5219520E-01
   7131.67  7.9469526E-01
   7132.00  8.2907061E-01
   7132.33  8.4683006E-01
   7132.67  8.4624940E-01
   7133.00  8.2906259E-01
   7133.33  7.9942668E-01
   7133.67  7.6467104E-01
   7134.00  7.2834157E-01
   7134.33  6.9205706E-01
   7134.67  6.5605719E-01
   7135.00  6.2080777E-01
   7135.33  5.8777704E-01
   7135.67  5.5806982E-01
   7136.00  5.3245852E-01
   7136.33  5.1169063E-01
   7136.67  4.9473239E-01
   7137.00  4.8074830E-01
   7137.33  4.6880541E-01
   7137.67  4.5771403E-01
   7138.00  4.4713671E-01
   7138.33  4.3754113E-01
   7138.67  4.2972424E-01
   7139.00  4.2451933E-01
   7139.33  4.2308882E-01
   7139.67  4.2545508E-01
   7140.00  4.3178327E-01
   7140.33  4.4253366E-01
   7140.67  4.5691522E-01
   7141.00  4.7440132E-01
   7141.33  4.9428865E-01
   7141.67  5.1503335E-01
   7142.00  5.3546919E-01
   7142.33  5.5425962E-01
   7142.67  5.7088630E-01
   7143.00  5.8517247E-01
   7143.33  5.9706284E-01
   7143.67  6.0731398E-01
   7144.00  6.1642459E-01
   7144.33  6.2484701E-01
   7144.67  6.3304429E-01
   7145.00  6.4122646E-01
   7145.33  6.4955177E-01
   7145.67  6.5807182E-01
   7146.00  6.6678759E-01
   7146.33  6.7558755E-01
   7146.67  6.8417108E-01
   7147.00  6.9219680E-01
   7147.33  6.9921123E-01
   7147.67  7.0520467E-01
   7148.00  7.1030508E-01
   7148.33  7.1482432E-01
   7148.67  7.1931732E-01
   7149.00  7.2418366E-01
   7149.33  7.2985989E-01
   7149.67  7.3642958E-01
   7150.00  7.4390072E-01
   7150.33  7.5224057E-01
   7150.67  7.6111339E-01
   7151.00  7.7025640E-01
   7151.33  7.7931042E-01
   7151.67  7.8789695E-01
   7152.00  7.9565123E-01
   7152.33  8.0195621E-01
   7152.67  8.0650721E-01
   7153.00  8.0892926E-01
   7153.33  8.0854927E-01
   7153.67  8.0544274E-01
   7154.00  7.9953793E-01
   7154.33  7.9058773E-01
   7154.67  7.7920153E-01
   7155.00  7.6572006E-01
   7155.33  7.5042106E-01
   7155.67  7.3402949E-01
   7156.00  7.1698404E-01
   7156.33  6.9971682E-01
   7156.67  6.8262538E-01
   7157.00  6.6593361E-01
   7157.33  6.4984224E-01
   7157.67  6.3431215E-01
   7158.00  6.1931158E-01
   7158.33  6.0482690E-01
   7158.67  5.9072429E-01
   7159.00  5.7694950E-01
   7159.33  5.6349585E-01
   7159.67  5.5030963E-01
   7160.00  5.3739065E-01
   7160.33  5.2477963E-01
   7160.67  5.1244654E-01
   7161.00  5.0038923E-01
   7161.33  4.8862951E-01
   7161.67  4.7711631E-01
   7162.00  4.6583259E-01
   7162.33  4.5478690E-01
   7162.67  4.4394271E-01
   7163.00  4.3330264E-01
   7163.33  4.2291312E-01
   7163.67  4.1278130E-01
   7164.00  4.0294794E-01
   7164.33  3.9351269E-01
   7164.67  3.8448959E-01
   7165.00  3.7592451E-01
   7165.33  3.6791790E-01
   7165.67  3.6043136E-01
   7166.00  3.5347460E-01
   7166.33  3.4711018E-01
   7166.67  3.4125749E-01
   7167.00  3.3589815E-01
   7167.33  3.3106460E-01
   7167.67  3.2667115E-01
   7168.00  3.2269527E-01
   7168.33  3.1915994E-01
   7168.67  3.1598994E-01
   7169.00  3.1316262E-01
   7169.33  3.1069038E-01
   7169.67  3.0850545E-01
   7170.00  3.0658273E-01
   7170.33  3.0492294E-01
   7170.67  3.0347118E-01
   7171.00  3.0220887E-01
   7171.33  3.0114088E-01
   7171.67  3.0023596E-01
   7172.00  2.9949099E-01
