    FDMNES
    energy     <xanes>
   7097.00  4.7939294E-03
   7097.33  4.9063623E-03
   7097.67  5.0239766E-03
   7098.00  5.1471379E-03
   7098.33  5.2770717E-03
   7098.67  5.4135558E-03
   7099.00  5.5570976E-03
   7099.33  5.7093247E-03
   7099.67  5.8700231E-03
   7100.00  6.0399186E-03
   7100.33  6.2212395E-03
   7100.67  6.4138166E-03
   7101.00  6.6187263E-03
   7101.33  6.8391314E-03
   7101.67  7.0749888E-03
   7102.00  7.3279649E-03
   7102.33  7.6027498E-03
   7102.67  7.8996090E-03
   7103.00  8.2212598E-03
   7103.33  8.5750415E-03
   7103.67  8.9619558E-03
   7104.00  9.3867262E-03
   7104.33  9.8616390E-03
   7104.67  1.0389500E-02
   7105.00  1.0979213E-02
   7105.33  1.1653206E-02
   7105.67  1.2419023E-02
   7106.00  1.3295316E-02
   7106.33  1.4328013E-02
   7106.67  1.5538591E-02
   7107.00  1.6972169E-02
   7107.33  1.8739104E-02
   7107.67  2.0909592E-02
   7108.00  2.3617879E-02
   7108.33  2.7199757E-02
   7108.67  3.1948354E-02
   7109.00  3.8412940E-02
   7109.33  4.8077394E-02
   7109.67  6.2782289E-02
   7110.00  8.6181925E-02
   7110.33  1.2894749E-01
   7110.67  2.0150135E-01
   7111.00  2.9666573E-01
   7111.33  3.3988360E-01
   7111.67  3.1776367E-01
   7112.00  2.8460075E-01
   7112.33  2.6665371E-01
   7112.67  2.5072390E-01
   7113.00  2.2636572E-01
   7113.33  1.9585999E-01
   7113.67  1.6882029E-01
   7114.00  1.4568686E-01
   7114.33  1.2286041E-01
   7114.67  1.0180308E-01
   7115.00  8.6039882E-02
   7115.33  7.7191202E-02
   7115.67  7.3150766E-02
   7116.00  7.2726070E-02
   7116.33  7.5121672E-02
   7116.67  7.8950327E-02
   7117.00  8.3388884E-02
   7117.33  8.8104864E-02
   7117.67  9.3252940E-02
   7118.00  9.9025527E-02
   7118.33  1.0567666E-01
   7118.67  1.1329899E-01
   7119.00  1.2204661E-01
   7119.33  1.3215718E-01
   7119.67  1.4347478E-01
   7120.00  1.5597194E-01
   7120.33  1.6982867E-01
   7120.67  1.8507883E-01
   7121.00  2.0202394E-01
   7121.33  2.2125481E-01
   7121.67  2.4262548E-01
   7122.00  2.6607150E-01
   7122.33  2.9178653E-01
   7122.67  3.1943473E-01
   7123.00  3.4859145E-01
   7123.33  3.7811061E-01
   7123.67  4.0571575E-01
   7124.00  4.2853423E-01
   7124.33  4.4300622E-01
   7124.67  4.5053730E-01
   7125.00  4.5376446E-01
   7125.33  4.5646594E-01
   7125.67  4.6204121E-01
   7126.00  4.7246806E-01
   7126.33  4.8927095E-01
   7126.67  5.1048970E-01
   7127.00  5.3353695E-01
   7127.33  5.5471967E-01
   7127.67  5.7187690E-01
   7128.00  5.8462463E-01
   7128.33  5.9439007E-01
   7128.67  6.0478353E-01
   7129.00  6.1830455E-01
   7129.33  6.3636464E-01
   7129.67  6.5631523E-01
   7130.00  6.7371017E-01
   7130.33  6.8070003E-01
   7130.67  6.7500195E-01
   7131.00  6.6008626E-01
   7131.33  6.4412506E-01
   7131.67  6.3279656E-01
   7132.00  6.2710186E-01
   7132.33  6.2635449E-01
   7132.67  6.2796324E-01
   7133.00  6.3022434E-01
   7133.33  6.3170440E-01
   7133.67  6.3251945E-01
   7134.00  6.3374904E-01
   7134.33  6.3679806E-01
   7134.67  6.4165492E-01
   7135.00  6.4792685E-01
   7135.33  6.5534036E-01
   7135.67  6.6359503E-01
   7136.00  6.7246912E-01
   7136.33  6.8130831E-01
   7136.67  6.8906578E-01
   7137.00  6.9475838E-01
   7137.33  6.9716101E-01
   7137.67  6.9637009E-01
   7138.00  6.9268996E-01
   7138.33  6.8667452E-01
   7138.67  6.7947640E-01
   7139.00  6.7167563E-01
   7139.33  6.6361557E-01
   7139.67  6.5541955E-01
   7140.00  6.4705143E-01
   7140.33  6.3844022E-01
   7140.67  6.2966364E-01
   7141.00  6.2087256E-01
   7141.33  6.1237104E-01
   7141.67  6.0441171E-01
   7142.00  5.9716048E-01
   7142.33  5.9073780E-01
   7142.67  5.8490512E-01
   7143.00  5.7945314E-01
   7143.33  5.7415343E-01
   7143.67  5.6882291E-01
   7144.00  5.6341592E-01
   7144.33  5.5798268E-01
   7144.67  5.5264884E-01
   7145.00  5.4752940E-01
   7145.33  5.4276254E-01
   7145.67  5.3834735E-01
   7146.00  5.3426587E-01
   7146.33  5.3049173E-01
   7146.67  5.2692092E-01
   7147.00  5.2349954E-01
   7147.33  5.2019785E-01
   7147.67  5.1700574E-01
   7148.00  5.1396135E-01
   7148.33  5.1114565E-01
   7148.67  5.0856694E-01
   7149.00  5.0621285E-01
   7149.33  5.0402119E-01
   7149.67  5.0182678E-01
   7150.00  4.9946874E-01
   7150.33  4.9670852E-01
   7150.67  4.9342686E-01
   7151.00  4.8953088E-01
   7151.33  4.8489765E-01
   7151.67  4.7963730E-01
   7152.00  4.7381909E-01
   7152.33  4.6749031E-01
   7152.67  4.6082033E-01
   7153.00  4.5390915E-01
   7153.33  4.4686050E-01
   7153.67  4.3981241E-01
   7154.00  4.3287291E-01
   7154.33  4.2619585E-01
   7154.67  4.1986760E-01
   7155.00  4.1397219E-01
   7155.33  4.0864189E-01
   7155.67  4.0384419E-01
   7156.00  3.9957014E-01
   7156.33  3.9582833E-01
   7156.67  3.9247296E-01
   7157.00  3.8941013E-01
   7157.33  3.8654718E-01
   7157.67  3.8375902E-01
   7158.00  3.8097693E-01
   7158.33  3.7814559E-01
   7158.67  3.7525901E-01
   7159.00  3.7233681E-01
   7159.33  3.6943021E-01
   7159.67  3.6660862E-01
   7160.00  3.6394392E-01
   7160.33  3.6155516E-01
   7160.67  3.5949530E-01
   7161.00  3.5782295E-01
   7161.33  3.5663782E-01
   7161.67  3.5590485E-01
   7162.00  3.5562011E-01
   7162.33  3.5580948E-01
   7162.67  3.5637483E-01
   7163.00  3.5727007E-01
   7163.33  3.5847535E-01
   7163.67  3.5990392E-01
   7164.00  3.6151403E-01
   7164.33  3.6328397E-01
   7164.67  3.6516372E-01
   7165.00  3.6712795E-01
   7165.33  3.6915642E-01
   7165.67  3.7121879E-01
   7166.00  3.7330047E-01
   7166.33  3.7539448E-01
   7166.67  3.7750166E-01
   7167.00  3.7963236E-01
   7167.33  3.8181355E-01
   7167.67  3.8406897E-01
   7168.00  3.8642765E-01
   7168.33  3.8894135E-01
   7168.67  3.9162342E-01
   7169.00  3.9449347E-01
   7169.33  3.9758900E-01
   7169.67  4.0088389E-01
   7170.00  4.0436494E-01
   7170.33  4.0802017E-01
   7170.67  4.1177791E-01
   7171.00  4.1556936E-01
   7171.33  4.1925421E-01
   7171.67  4.2262587E-01
   7172.00  4.2541196E-01
