    FDMNES
    energy     <xanes>
   7097.00  5.0110424E-03
   7097.33  5.1330507E-03
   7097.67  5.2608364E-03
   7098.00  5.3948077E-03
   7098.33  5.5363310E-03
   7098.67  5.6851568E-03
   7099.00  5.8418475E-03
   7099.33  6.0082103E-03
   7099.67  6.1839978E-03
   7100.00  6.3700061E-03
   7100.33  6.5686913E-03
   7100.67  6.7798410E-03
   7101.00  7.0046193E-03
   7101.33  7.2464731E-03
   7101.67  7.5052981E-03
   7102.00  7.7828621E-03
   7102.33  8.0841922E-03
   7102.67  8.4094537E-03
   7103.00  8.7614564E-03
   7103.33  9.1478850E-03
   7103.67  9.5695413E-03
   7104.00  1.0031150E-02
   7104.33  1.0545164E-02
   7104.67  1.1113906E-02
   7105.00  1.1745903E-02
   7105.33  1.2462894E-02
   7105.67  1.3271035E-02
   7106.00  1.4187190E-02
   7106.33  1.5253242E-02
   7106.67  1.6485959E-02
   7107.00  1.7923111E-02
   7107.33  1.9657175E-02
   7107.67  2.1739014E-02
   7108.00  2.4269726E-02
   7108.33  2.7498987E-02
   7108.67  3.1616107E-02
   7109.00  3.6977531E-02
   7109.33  4.4513354E-02
   7109.67  5.5232248E-02
   7110.00  7.1092468E-02
   7110.33  9.7680424E-02
   7110.67  1.4126585E-01
   7111.00  2.0636119E-01
   7111.33  2.9001663E-01
   7111.67  3.7561310E-01
   7112.00  4.2494746E-01
   7112.33  4.2091229E-01
   7112.67  3.9194204E-01
   7113.00  3.4168744E-01
   7113.33  3.1736891E-01
   7113.67  3.2150805E-01
   7114.00  3.1791087E-01
   7114.33  2.7690638E-01
   7114.67  2.3041356E-01
   7115.00  2.0156462E-01
   7115.33  1.9862307E-01
   7115.67  2.0899235E-01
   7116.00  2.1383302E-01
   7116.33  1.9971717E-01
   7116.67  1.7997622E-01
   7117.00  1.6388715E-01
   7117.33  1.5567128E-01
   7117.67  1.5398500E-01
   7118.00  1.5668502E-01
   7118.33  1.5945291E-01
   7118.67  1.5813153E-01
   7119.00  1.5263773E-01
   7119.33  1.4627162E-01
   7119.67  1.4046715E-01
   7120.00  1.3446090E-01
   7120.33  1.2938265E-01
   7120.67  1.2698231E-01
   7121.00  1.2753310E-01
   7121.33  1.3052519E-01
   7121.67  1.3494915E-01
   7122.00  1.4072660E-01
   7122.33  1.4813845E-01
   7122.67  1.5676127E-01
   7123.00  1.6613617E-01
   7123.33  1.7585226E-01
   7123.67  1.8600483E-01
   7124.00  1.9723142E-01
   7124.33  2.1049105E-01
   7124.67  2.2583216E-01
   7125.00  2.4330273E-01
   7125.33  2.6315230E-01
   7125.67  2.8441008E-01
   7126.00  3.0545935E-01
   7126.33  3.2389846E-01
   7126.67  3.3952172E-01
   7127.00  3.5354969E-01
   7127.33  3.6815941E-01
   7127.67  3.8499836E-01
   7128.00  4.0501099E-01
   7128.33  4.2934147E-01
   7128.67  4.5769688E-01
   7129.00  4.8958933E-01
   7129.33  5.2355228E-01
   7129.67  5.5694649E-01
   7130.00  5.8798351E-01
   7130.33  6.1509593E-01
   7130.67  6.3849140E-01
   7131.00  6.5841440E-01
   7131.33  6.7504518E-01
   7131.67  6.8940643E-01
   7132.00  7.0205239E-01
   7132.33  7.1339249E-01
   7132.67  7.2395149E-01
   7133.00  7.3383101E-01
   7133.33  7.4265394E-01
   7133.67  7.4985589E-01
   7134.00  7.5466427E-01
   7134.33  7.5580739E-01
   7134.67  7.5296309E-01
   7135.00  7.4572566E-01
   7135.33  7.3365421E-01
   7135.67  7.1806491E-01
   7136.00  6.9997882E-01
   7136.33  6.8054965E-01
   7136.67  6.6112995E-01
   7137.00  6.4257396E-01
   7137.33  6.2582901E-01
   7137.67  6.1117506E-01
   7138.00  5.9883230E-01
   7138.33  5.8916317E-01
   7138.67  5.8177685E-01
   7139.00  5.7650600E-01
   7139.33  5.7331782E-01
   7139.67  5.7166057E-01
   7140.00  5.7123674E-01
   7140.33  5.7180461E-01
   7140.67  5.7292372E-01
   7141.00  5.7436684E-01
   7141.33  5.7601225E-01
   7141.67  5.7784954E-01
   7142.00  5.7999189E-01
   7142.33  5.8268082E-01
   7142.67  5.8601167E-01
   7143.00  5.9006006E-01
   7143.33  5.9492957E-01
   7143.67  6.0047881E-01
   7144.00  6.0663786E-01
   7144.33  6.1338411E-01
   7144.67  6.2057095E-01
   7145.00  6.2813433E-01
   7145.33  6.3603326E-01
   7145.67  6.4412800E-01
   7146.00  6.5229565E-01
   7146.33  6.6034128E-01
   7146.67  6.6807064E-01
   7147.00  6.7528109E-01
   7147.33  6.8161931E-01
   7147.67  6.8693327E-01
   7148.00  6.9104178E-01
   7148.33  6.9362904E-01
   7148.67  6.9480074E-01
   7149.00  6.9456889E-01
   7149.33  6.9284756E-01
   7149.67  6.8993558E-01
   7150.00  6.8597155E-01
   7150.33  6.8100492E-01
   7150.67  6.7529392E-01
   7151.00  6.6895090E-01
   7151.33  6.6201529E-01
   7151.67  6.5463385E-01
   7152.00  6.4686314E-01
   7152.33  6.3871375E-01
   7152.67  6.3026783E-01
   7153.00  6.2155491E-01
   7153.33  6.1257926E-01
   7153.67  6.0340679E-01
   7154.00  5.9407624E-01
   7154.33  5.8463327E-01
   7154.67  5.7516145E-01
   7155.00  5.6572973E-01
   7155.33  5.5644127E-01
   7155.67  5.4737373E-01
   7156.00  5.3861021E-01
   7156.33  5.3029512E-01
   7156.67  5.2246530E-01
   7157.00  5.1518526E-01
   7157.33  5.0859043E-01
   7157.67  5.0264378E-01
   7158.00  4.9736078E-01
   7158.33  4.9281907E-01
   7158.67  4.8890894E-01
   7159.00  4.8559211E-01
   7159.33  4.8287894E-01
   7159.67  4.8063994E-01
   7160.00  4.7882257E-01
   7160.33  4.7741723E-01
   7160.67  4.7633445E-01
   7161.00  4.7554700E-01
   7161.33  4.7506239E-01
   7161.67  4.7481788E-01
   7162.00  4.7477888E-01
   7162.33  4.7489972E-01
   7162.67  4.7506808E-01
   7163.00  4.7519288E-01
   7163.33  4.7515193E-01
   7163.67  4.7486906E-01
   7164.00  4.7427808E-01
   7164.33  4.7328123E-01
   7164.67  4.7189978E-01
   7165.00  4.7013506E-01
   7165.33  4.6796474E-01
   7165.67  4.6547179E-01
   7166.00  4.6269446E-01
   7166.33  4.5964859E-01
   7166.67  4.5640635E-01
   7167.00  4.5299943E-01
   7167.33  4.4944834E-01
   7167.67  4.4580432E-01
   7168.00  4.4209027E-01
   7168.33  4.3832378E-01
   7168.67  4.3453361E-01
   7169.00  4.3074173E-01
   7169.33  4.2698087E-01
   7169.67  4.2328044E-01
   7170.00  4.1967096E-01
   7170.33  4.1620641E-01
   7170.67  4.1291289E-01
   7171.00  4.0983293E-01
   7171.33  4.0706517E-01
   7171.67  4.0466837E-01
   7172.00  4.0274802E-01
