    FDMNES
    energy     <xanes>
   7097.00  4.9306567E-03
   7097.33  5.0494254E-03
   7097.67  5.1738581E-03
   7098.00  5.3043617E-03
   7098.33  5.4422877E-03
   7098.67  5.5874020E-03
   7099.00  5.7402688E-03
   7099.33  5.9026862E-03
   7099.67  6.0744275E-03
   7100.00  6.2562978E-03
   7100.33  6.4507586E-03
   7100.67  6.6576278E-03
   7101.00  6.8780936E-03
   7101.33  7.1156410E-03
   7101.67  7.3702151E-03
   7102.00  7.6436404E-03
   7102.33  7.9410551E-03
   7102.67  8.2627148E-03
   7103.00  8.6115584E-03
   7103.33  8.9955478E-03
   7103.67  9.4156699E-03
   7104.00  9.8769488E-03
   7104.33  1.0392510E-02
   7104.67  1.0965104E-02
   7105.00  1.1603987E-02
   7105.33  1.2332590E-02
   7105.67  1.3158183E-02
   7106.00  1.4099582E-02
   7106.33  1.5203271E-02
   7106.67  1.6489399E-02
   7107.00  1.8001674E-02
   7107.33  1.9846976E-02
   7107.67  2.2088580E-02
   7108.00  2.4849632E-02
   7108.33  2.8436031E-02
   7108.67  3.3097207E-02
   7109.00  3.9301194E-02
   7109.33  4.8291139E-02
   7109.67  6.1516581E-02
   7110.00  8.1822648E-02
   7110.33  1.1738286E-01
   7110.67  1.7634248E-01
   7111.00  2.5830111E-01
   7111.33  3.4079149E-01
   7111.67  4.0129169E-01
   7112.00  4.0387082E-01
   7112.33  3.4757656E-01
   7112.67  2.9874574E-01
   7113.00  2.7774999E-01
   7113.33  2.7965112E-01
   7113.67  2.8278194E-01
   7114.00  2.6729736E-01
   7114.33  2.3466777E-01
   7114.67  2.1154893E-01
   7115.00  2.0267439E-01
   7115.33  1.9628378E-01
   7115.67  1.8692387E-01
   7116.00  1.7546080E-01
   7116.33  1.6237290E-01
   7116.67  1.5190433E-01
   7117.00  1.4752062E-01
   7117.33  1.5040075E-01
   7117.67  1.5531581E-01
   7118.00  1.5655935E-01
   7118.33  1.5089616E-01
   7118.67  1.4184992E-01
   7119.00  1.3228240E-01
   7119.33  1.2410434E-01
   7119.67  1.1761117E-01
   7120.00  1.1278826E-01
   7120.33  1.0980898E-01
   7120.67  1.0846997E-01
   7121.00  1.0871377E-01
   7121.33  1.1047593E-01
   7121.67  1.1321021E-01
   7122.00  1.1667643E-01
   7122.33  1.2102556E-01
   7122.67  1.2650277E-01
   7123.00  1.3339988E-01
   7123.33  1.4191232E-01
   7123.67  1.5148712E-01
   7124.00  1.6197663E-01
   7124.33  1.7413312E-01
   7124.67  1.8847165E-01
   7125.00  2.0492387E-01
   7125.33  2.2259688E-01
   7125.67  2.3998977E-01
   7126.00  2.5646712E-01
   7126.33  2.7225688E-01
   7126.67  2.8840740E-01
   7127.00  3.0568860E-01
   7127.33  3.2487275E-01
   7127.67  3.4625060E-01
   7128.00  3.7012155E-01
   7128.33  3.9633646E-01
   7128.67  4.2335217E-01
   7129.00  4.5009234E-01
   7129.33  4.7637487E-01
   7129.67  5.0345917E-01
   7130.00  5.3268874E-01
   7130.33  5.6520923E-01
   7130.67  6.0004866E-01
   7131.00  6.3588732E-01
   7131.33  6.7113061E-01
   7131.67  7.0505893E-01
   7132.00  7.3769473E-01
   7132.33  7.6940373E-01
   7132.67  8.0065267E-01
   7133.00  8.3123662E-01
   7133.33  8.5978900E-01
   7133.67  8.8450509E-01
   7134.00  9.0322602E-01
   7134.33  9.1219023E-01
   7134.67  9.1017833E-01
   7135.00  8.9652358E-01
   7135.33  8.7150380E-01
   7135.67  8.3943921E-01
   7136.00  8.0298541E-01
   7136.33  7.6440059E-01
   7136.67  7.2578032E-01
   7137.00  6.8833377E-01
   7137.33  6.5341469E-01
   7137.67  6.2152802E-01
   7138.00  5.9315612E-01
   7138.33  5.6914195E-01
   7138.67  5.4915363E-01
   7139.00  5.3316744E-01
   7139.33  5.2147333E-01
   7139.67  5.1327682E-01
   7140.00  5.0824306E-01
   7140.33  5.0630403E-01
   7140.67  5.0672721E-01
   7141.00  5.0922295E-01
   7141.33  5.1373833E-01
   7141.67  5.1982412E-01
   7142.00  5.2730727E-01
   7142.33  5.3612254E-01
   7142.67  5.4585863E-01
   7143.00  5.5623075E-01
   7143.33  5.6688134E-01
   7143.67  5.7738581E-01
   7144.00  5.8746798E-01
   7144.33  5.9687639E-01
   7144.67  6.0569387E-01
   7145.00  6.1405178E-01
   7145.33  6.2215041E-01
   7145.67  6.3024639E-01
   7146.00  6.3848042E-01
   7146.33  6.4694154E-01
   7146.67  6.5554781E-01
   7147.00  6.6415905E-01
   7147.33  6.7249320E-01
   7147.67  6.8025879E-01
   7148.00  6.8714665E-01
   7148.33  6.9265293E-01
   7148.67  6.9664946E-01
   7149.00  6.9897879E-01
   7149.33  6.9935248E-01
   7149.67  6.9803277E-01
   7150.00  6.9513462E-01
   7150.33  6.9068955E-01
   7150.67  6.8512105E-01
   7151.00  6.7865962E-01
   7151.33  6.7148228E-01
   7151.67  6.6388514E-01
   7152.00  6.5600655E-01
   7152.33  6.4793059E-01
   7152.67  6.3972328E-01
   7153.00  6.3135558E-01
   7153.33  6.2270370E-01
   7153.67  6.1368513E-01
   7154.00  6.0421173E-01
   7154.33  5.9415243E-01
   7154.67  5.8356442E-01
   7155.00  5.7249401E-01
   7155.33  5.6100573E-01
   7155.67  5.4930455E-01
   7156.00  5.3755044E-01
   7156.33  5.2595804E-01
   7156.67  5.1470207E-01
   7157.00  5.0393531E-01
   7157.33  4.9389320E-01
   7157.67  4.8462327E-01
   7158.00  4.7621601E-01
   7158.33  4.6887210E-01
   7158.67  4.6252603E-01
   7159.00  4.5719760E-01
   7159.33  4.5300796E-01
   7159.67  4.4979590E-01
   7160.00  4.4750913E-01
   7160.33  4.4617149E-01
   7160.67  4.4558230E-01
   7161.00  4.4565265E-01
   7161.33  4.4634134E-01
   7161.67  4.4746292E-01
   7162.00  4.4891800E-01
   7162.33  4.5062685E-01
   7162.67  4.5245941E-01
   7163.00  4.5433317E-01
   7163.33  4.5615454E-01
   7163.67  4.5785337E-01
   7164.00  4.5937583E-01
   7164.33  4.6064606E-01
   7164.67  4.6166055E-01
   7165.00  4.6240390E-01
   7165.33  4.6283580E-01
   7165.67  4.6299531E-01
   7166.00  4.6289141E-01
   7166.33  4.6250664E-01
   7166.67  4.6188865E-01
   7167.00  4.6105631E-01
   7167.33  4.6000614E-01
   7167.67  4.5877501E-01
   7168.00  4.5737065E-01
   7168.33  4.5578062E-01
   7168.67  4.5403598E-01
   7169.00  4.5214842E-01
   7169.33  4.5011837E-01
   7169.67  4.4798132E-01
   7170.00  4.4575764E-01
   7170.33  4.4346890E-01
   7170.67  4.4115873E-01
   7171.00  4.3886813E-01
   7171.33  4.3667873E-01
   7171.67  4.3469586E-01
   7172.00  4.3306429E-01
