    FDMNES
    energy     <xanes>
   7097.00  5.2687596E-03
   7097.33  5.3965311E-03
   7097.67  5.5302780E-03
   7098.00  5.6704138E-03
   7098.33  5.8183369E-03
   7098.67  5.9737765E-03
   7099.00  6.1372982E-03
   7099.33  6.3107389E-03
   7099.67  6.4938235E-03
   7100.00  6.6873458E-03
   7100.33  6.8937817E-03
   7100.67  7.1128807E-03
   7101.00  7.3457915E-03
   7101.33  7.5959545E-03
   7101.67  7.8632080E-03
   7102.00  8.1492754E-03
   7102.33  8.4591150E-03
   7102.67  8.7927955E-03
   7103.00  9.1530185E-03
   7103.33  9.5472544E-03
   7103.67  9.9761243E-03
   7104.00  1.0444096E-02
   7104.33  1.0963070E-02
   7104.67  1.1534985E-02
   7105.00  1.2167753E-02
   7105.33  1.2881728E-02
   7105.67  1.3682155E-02
   7106.00  1.4584345E-02
   7106.33  1.5626594E-02
   7106.67  1.6823211E-02
   7107.00  1.8207694E-02
   7107.33  1.9862423E-02
   7107.67  2.1830576E-02
   7108.00  2.4199819E-02
   7108.33  2.7187099E-02
   7108.67  3.0952609E-02
   7109.00  3.5801098E-02
   7109.33  4.2529936E-02
   7109.67  5.2001883E-02
   7110.00  6.5904177E-02
   7110.33  8.9071640E-02
   7110.67  1.2680689E-01
   7111.00  1.8146348E-01
   7111.33  2.3913807E-01
   7111.67  2.8394704E-01
   7112.00  3.1739677E-01
   7112.33  3.4192700E-01
   7112.67  3.6669891E-01
   7113.00  4.0333448E-01
   7113.33  4.5730723E-01
   7113.67  5.0738996E-01
   7114.00  5.1693375E-01
   7114.33  4.6242724E-01
   7114.67  3.8712251E-01
   7115.00  3.2073407E-01
   7115.33  2.7520159E-01
   7115.67  2.4519998E-01
   7116.00  2.2577843E-01
   7116.33  2.1088554E-01
   7116.67  1.9435219E-01
   7117.00  1.7566480E-01
   7117.33  1.5977569E-01
   7117.67  1.4896535E-01
   7118.00  1.4154223E-01
   7118.33  1.3533343E-01
   7118.67  1.2992167E-01
   7119.00  1.2574589E-01
   7119.33  1.2298625E-01
   7119.67  1.2098497E-01
   7120.00  1.1958716E-01
   7120.33  1.1974627E-01
   7120.67  1.2251000E-01
   7121.00  1.2819088E-01
   7121.33  1.3584287E-01
   7121.67  1.4384453E-01
   7122.00  1.5215595E-01
   7122.33  1.6156420E-01
   7122.67  1.7260570E-01
   7123.00  1.8594501E-01
   7123.33  2.0282058E-01
   7123.67  2.2312781E-01
   7124.00  2.4634635E-01
   7124.33  2.7137074E-01
   7124.67  2.9611437E-01
   7125.00  3.1834659E-01
   7125.33  3.3496903E-01
   7125.67  3.4649055E-01
   7126.00  3.5494118E-01
   7126.33  3.6262587E-01
   7126.67  3.7016884E-01
   7127.00  3.7711074E-01
   7127.33  3.8397054E-01
   7127.67  3.9279961E-01
   7128.00  4.0534610E-01
   7128.33  4.2307727E-01
   7128.67  4.4471978E-01
   7129.00  4.6826261E-01
   7129.33  4.9064078E-01
   7129.67  5.1128238E-01
   7130.00  5.3228121E-01
   7130.33  5.5663214E-01
   7130.67  5.8363950E-01
   7131.00  6.1074561E-01
   7131.33  6.3430585E-01
   7131.67  6.5348531E-01
   7132.00  6.6941850E-01
   7132.33  6.8491157E-01
   7132.67  7.0282715E-01
   7133.00  7.2452194E-01
   7133.33  7.5026832E-01
   7133.67  7.7758822E-01
   7134.00  8.0392164E-01
   7134.33  8.2644612E-01
   7134.67  8.4445327E-01
   7135.00  8.5710462E-01
   7135.33  8.6199851E-01
   7135.67  8.5925709E-01
   7136.00  8.4997738E-01
   7136.33  8.3627365E-01
   7136.67  8.2103898E-01
   7137.00  8.0543898E-01
   7137.33  7.8985003E-01
   7137.67  7.7407025E-01
   7138.00  7.5785071E-01
   7138.33  7.4104697E-01
   7138.67  7.2398562E-01
   7139.00  7.0713508E-01
   7139.33  6.9130287E-01
   7139.67  6.7704714E-01
   7140.00  6.6482420E-01
   7140.33  6.5529798E-01
   7140.67  6.4832477E-01
   7141.00  6.4383634E-01
   7141.33  6.4173913E-01
   7141.67  6.4108594E-01
   7142.00  6.4106573E-01
   7142.33  6.4055432E-01
   7142.67  6.3864674E-01
   7143.00  6.3480646E-01
   7143.33  6.2860387E-01
   7143.67  6.2057532E-01
   7144.00  6.1116924E-01
   7144.33  6.0086446E-01
   7144.67  5.9026157E-01
   7145.00  5.7968047E-01
   7145.33  5.6940600E-01
   7145.67  5.5956194E-01
   7146.00  5.5024334E-01
   7146.33  5.4161649E-01
   7146.67  5.3367163E-01
   7147.00  5.2644475E-01
   7147.33  5.2005557E-01
   7147.67  5.1442285E-01
   7148.00  5.0953956E-01
   7148.33  5.0546293E-01
   7148.67  5.0204735E-01
   7149.00  4.9923086E-01
   7149.33  4.9699502E-01
   7149.67  4.9518823E-01
   7150.00  4.9374010E-01
   7150.33  4.9261552E-01
   7150.67  4.9172283E-01
   7151.00  4.9102794E-01
   7151.33  4.9052936E-01
   7151.67  4.9019887E-01
   7152.00  4.9004047E-01
   7152.33  4.9008979E-01
   7152.67  4.9034348E-01
   7153.00  4.9082032E-01
   7153.33  4.9156964E-01
   7153.67  4.9257219E-01
   7154.00  4.9382718E-01
   7154.33  4.9534737E-01
   7154.67  4.9706613E-01
   7155.00  4.9893491E-01
   7155.33  5.0089000E-01
   7155.67  5.0283420E-01
   7156.00  5.0468586E-01
   7156.33  5.0632759E-01
   7156.67  5.0769738E-01
   7157.00  5.0873395E-01
   7157.33  5.0933629E-01
   7157.67  5.0952210E-01
   7158.00  5.0928222E-01
   7158.33  5.0857011E-01
   7158.67  5.0745744E-01
   7159.00  5.0596788E-01
   7159.33  5.0409125E-01
   7159.67  5.0190692E-01
   7160.00  4.9944807E-01
   7160.33  4.9672614E-01
   7160.67  4.9381419E-01
   7161.00  4.9075327E-01
   7161.33  4.8758332E-01
   7161.67  4.8437336E-01
   7162.00  4.8117611E-01
   7162.33  4.7806285E-01
   7162.67  4.7507646E-01
   7163.00  4.7224932E-01
   7163.33  4.6964272E-01
   7163.67  4.6726801E-01
   7164.00  4.6514776E-01
   7164.33  4.6333009E-01
   7164.67  4.6178534E-01
   7165.00  4.6051017E-01
   7165.33  4.5952665E-01
   7165.67  4.5878739E-01
   7166.00  4.5827645E-01
   7166.33  4.5799712E-01
   7166.67  4.5789778E-01
   7167.00  4.5795374E-01
   7167.33  4.5814815E-01
   7167.67  4.5842980E-01
   7168.00  4.5876623E-01
   7168.33  4.5912133E-01
   7168.67  4.5945623E-01
   7169.00  4.5974191E-01
   7169.33  4.5994099E-01
   7169.67  4.6004566E-01
   7170.00  4.6005074E-01
   7170.33  4.5994779E-01
   7170.67  4.5976241E-01
   7171.00  4.5951444E-01
   7171.33  4.5923130E-01
   7171.67  4.5895516E-01
   7172.00  4.5872079E-01
