    FDMNES
    energy     <xanes>
   7097.00  5.1158871E-03
   7097.33  5.2409467E-03
   7097.67  5.3718335E-03
   7098.00  5.5089497E-03
   7098.33  5.6536570E-03
   7098.67  5.8056900E-03
   7099.00  5.9655987E-03
   7099.33  6.1351715E-03
   7099.67  6.3141391E-03
   7100.00  6.5032737E-03
   7100.33  6.7049858E-03
   7100.67  6.9190306E-03
   7101.00  7.1465265E-03
   7101.33  7.3908235E-03
   7101.67  7.6517648E-03
   7102.00  7.9310296E-03
   7102.33  8.2334489E-03
   7102.67  8.5590927E-03
   7103.00  8.9105962E-03
   7103.33  9.2952440E-03
   7103.67  9.7136489E-03
   7104.00  1.0170174E-02
   7104.33  1.0676435E-02
   7104.67  1.1234337E-02
   7105.00  1.1851614E-02
   7105.33  1.2548148E-02
   7105.67  1.3329078E-02
   7106.00  1.4209371E-02
   7106.33  1.5226435E-02
   7106.67  1.6394237E-02
   7107.00  1.7745452E-02
   7107.33  1.9360372E-02
   7107.67  2.1280846E-02
   7108.00  2.3591853E-02
   7108.33  2.6503309E-02
   7108.67  3.0168398E-02
   7109.00  3.4878208E-02
   7109.33  4.1390731E-02
   7109.67  5.0511422E-02
   7110.00  6.3808726E-02
   7110.33  8.5755069E-02
   7110.67  1.2133030E-01
   7111.00  1.7377605E-01
   7111.33  2.3585805E-01
   7111.67  2.9011114E-01
   7112.00  3.2789025E-01
   7112.33  3.5563636E-01
   7112.67  3.8524522E-01
   7113.00  4.2005507E-01
   7113.33  4.5855165E-01
   7113.67  4.8513195E-01
   7114.00  4.7983083E-01
   7114.33  4.2872770E-01
   7114.67  3.5590525E-01
   7115.00  2.8482966E-01
   7115.33  2.3064875E-01
   7115.67  1.9180200E-01
   7116.00  1.6469732E-01
   7116.33  1.4552837E-01
   7116.67  1.2985889E-01
   7117.00  1.1658834E-01
   7117.33  1.0668461E-01
   7117.67  1.0009852E-01
   7118.00  9.6290137E-02
   7118.33  9.4650349E-02
   7118.67  9.4293401E-02
   7119.00  9.4924847E-02
   7119.33  9.6610723E-02
   7119.67  9.9264372E-02
   7120.00  1.0280883E-01
   7120.33  1.0741464E-01
   7120.67  1.1327220E-01
   7121.00  1.2059938E-01
   7121.33  1.3002803E-01
   7121.67  1.4229685E-01
   7122.00  1.5856162E-01
   7122.33  1.8076218E-01
   7122.67  2.0887867E-01
   7123.00  2.4241981E-01
   7123.33  2.7938109E-01
   7123.67  3.1442905E-01
   7124.00  3.4253859E-01
   7124.33  3.6000446E-01
   7124.67  3.6971053E-01
   7125.00  3.7469848E-01
   7125.33  3.7858410E-01
   7125.67  3.8458018E-01
   7126.00  3.9457436E-01
   7126.33  4.1057369E-01
   7126.67  4.3225458E-01
   7127.00  4.5867596E-01
   7127.33  4.8695418E-01
   7127.67  5.1259199E-01
   7128.00  5.3304001E-01
   7128.33  5.4745953E-01
   7128.67  5.5830151E-01
   7129.00  5.6759278E-01
   7129.33  5.7801543E-01
   7129.67  5.9174435E-01
   7130.00  6.0994459E-01
   7130.33  6.3340412E-01
   7130.67  6.6054485E-01
   7131.00  6.8917399E-01
   7131.33  7.1468309E-01
   7131.67  7.3301402E-01
   7132.00  7.4223274E-01
   7132.33  7.4238758E-01
   7132.67  7.3884868E-01
   7133.00  7.3668310E-01
   7133.33  7.4105545E-01
   7133.67  7.5168453E-01
   7134.00  7.6574185E-01
   7134.33  7.7837036E-01
   7134.67  7.8659412E-01
   7135.00  7.9004296E-01
   7135.33  7.8938625E-01
   7135.67  7.8637923E-01
   7136.00  7.8186306E-01
   7136.33  7.7643629E-01
   7136.67  7.7065581E-01
   7137.00  7.6474480E-01
   7137.33  7.5883063E-01
   7137.67  7.5301273E-01
   7138.00  7.4743622E-01
   7138.33  7.4242425E-01
   7138.67  7.3821155E-01
   7139.00  7.3500866E-01
   7139.33  7.3306107E-01
   7139.67  7.3210263E-01
   7140.00  7.3178358E-01
   7140.33  7.3141978E-01
   7140.67  7.3014575E-01
   7141.00  7.2717798E-01
   7141.33  7.2142101E-01
   7141.67  7.1270607E-01
   7142.00  7.0095897E-01
   7142.33  6.8616525E-01
   7142.67  6.6934686E-01
   7143.00  6.5125531E-01
   7143.33  6.3274074E-01
   7143.67  6.1462634E-01
   7144.00  5.9742000E-01
   7144.33  5.8170471E-01
   7144.67  5.6756170E-01
   7145.00  5.5506259E-01
   7145.33  5.4438655E-01
   7145.67  5.3524021E-01
   7146.00  5.2751043E-01
   7146.33  5.2119389E-01
   7146.67  5.1595358E-01
   7147.00  5.1163154E-01
   7147.33  5.0813748E-01
   7147.67  5.0518535E-01
   7148.00  5.0259357E-01
   7148.33  5.0015993E-01
   7148.67  4.9765899E-01
   7149.00  4.9493957E-01
   7149.33  4.9183375E-01
   7149.67  4.8832499E-01
   7150.00  4.8441213E-01
   7150.33  4.8009302E-01
   7150.67  4.7548489E-01
   7151.00  4.7065969E-01
   7151.33  4.6568584E-01
   7151.67  4.6066182E-01
   7152.00  4.5565612E-01
   7152.33  4.5075825E-01
   7152.67  4.4602932E-01
   7153.00  4.4153335E-01
   7153.33  4.3738624E-01
   7153.67  4.3361979E-01
   7154.00  4.3028310E-01
   7154.33  4.2747170E-01
   7154.67  4.2513607E-01
   7155.00  4.2325582E-01
   7155.33  4.2182164E-01
   7155.67  4.2068995E-01
   7156.00  4.1975627E-01
   7156.33  4.1888605E-01
   7156.67  4.1792081E-01
   7157.00  4.1673349E-01
   7157.33  4.1514766E-01
   7157.67  4.1310444E-01
   7158.00  4.1054572E-01
   7158.33  4.0737613E-01
   7158.67  4.0368119E-01
   7159.00  3.9951070E-01
   7159.33  3.9491027E-01
   7159.67  3.9005231E-01
   7160.00  3.8506115E-01
   7160.33  3.8009035E-01
   7160.67  3.7528403E-01
   7161.00  3.7075539E-01
   7161.33  3.6666290E-01
   7161.67  3.6304001E-01
   7162.00  3.5993281E-01
   7162.33  3.5743461E-01
   7162.67  3.5547508E-01
   7163.00  3.5403074E-01
   7163.33  3.5310927E-01
   7163.67  3.5259670E-01
   7164.00  3.5244719E-01
   7164.33  3.5264603E-01
   7164.67  3.5310449E-01
   7165.00  3.5378545E-01
   7165.33  3.5467704E-01
   7165.67  3.5572890E-01
   7166.00  3.5692428E-01
   7166.33  3.5826616E-01
   7166.67  3.5972936E-01
   7167.00  3.6130832E-01
   7167.33  3.6301108E-01
   7167.67  3.6481869E-01
   7168.00  3.6672822E-01
   7168.33  3.6874890E-01
   7168.67  3.7086489E-01
   7169.00  3.7307282E-01
   7169.33  3.7537900E-01
   7169.67  3.7776601E-01
   7170.00  3.8022543E-01
   7170.33  3.8274974E-01
   7170.67  3.8530766E-01
   7171.00  3.8786497E-01
   7171.33  3.9034123E-01
   7171.67  3.9260936E-01
   7172.00  3.9448676E-01
