    FDMNES
    energy     <xanes>
   7097.00  4.8256450E-03
   7097.33  4.9329301E-03
   7097.67  5.0448270E-03
   7098.00  5.1616364E-03
   7098.33  5.2844070E-03
   7098.67  5.4129060E-03
   7099.00  5.5475407E-03
   7099.33  5.6896721E-03
   7099.67  5.8390595E-03
   7100.00  5.9962702E-03
   7100.33  6.1631171E-03
   7100.67  6.3393718E-03
   7101.00  6.5258497E-03
   7101.33  6.7250432E-03
   7101.67  6.9367813E-03
   7102.00  7.1622821E-03
   7102.33  7.4051060E-03
   7102.67  7.6652411E-03
   7103.00  7.9445936E-03
   7103.33  8.2484975E-03
   7103.67  8.5773341E-03
   7104.00  8.9342655E-03
   7104.33  9.3277760E-03
   7104.67  9.7592128E-03
   7105.00  1.0234224E-02
   7105.33  1.0767400E-02
   7105.67  1.1362575E-02
   7106.00  1.2030873E-02
   7106.33  1.2800172E-02
   7106.67  1.3681366E-02
   7107.00  1.4699541E-02
   7107.33  1.5916543E-02
   7107.67  1.7366848E-02
   7108.00  1.9119464E-02
   7108.33  2.1346504E-02
   7108.67  2.4184803E-02
   7109.00  2.7894308E-02
   7109.33  3.3168976E-02
   7109.67  4.0821152E-02
   7110.00  5.2456678E-02
   7110.33  7.2667025E-02
   7110.67  1.0542835E-01
   7111.00  1.4717447E-01
   7111.33  1.7701535E-01
   7111.67  1.9392996E-01
   7112.00  2.0511482E-01
   7112.33  2.1102383E-01
   7112.67  2.1720993E-01
   7113.00  2.3096441E-01
   7113.33  2.5837956E-01
   7113.67  2.8497109E-01
   7114.00  2.9437873E-01
   7114.33  2.7447081E-01
   7114.67  2.3234357E-01
   7115.00  1.8849033E-01
   7115.33  1.6144566E-01
   7115.67  1.5011257E-01
   7116.00  1.5060623E-01
   7116.33  1.5687909E-01
   7116.67  1.6061813E-01
   7117.00  1.5867660E-01
   7117.33  1.5309168E-01
   7117.67  1.4844395E-01
   7118.00  1.4695738E-01
   7118.33  1.5088762E-01
   7118.67  1.6140375E-01
   7119.00  1.7956661E-01
   7119.33  2.0509757E-01
   7119.67  2.3135489E-01
   7120.00  2.4973448E-01
   7120.33  2.5264529E-01
   7120.67  2.4539929E-01
   7121.00  2.3328617E-01
   7121.33  2.2099654E-01
   7121.67  2.1190460E-01
   7122.00  2.0758409E-01
   7122.33  2.0852527E-01
   7122.67  2.1229510E-01
   7123.00  2.1714248E-01
   7123.33  2.2377206E-01
   7123.67  2.3433415E-01
   7124.00  2.4942783E-01
   7124.33  2.6876837E-01
   7124.67  2.9042624E-01
   7125.00  3.1256448E-01
   7125.33  3.3325525E-01
   7125.67  3.5227494E-01
   7126.00  3.7023308E-01
   7126.33  3.8853535E-01
   7126.67  4.0894224E-01
   7127.00  4.3268881E-01
   7127.33  4.6042710E-01
   7127.67  4.9101531E-01
   7128.00  5.2415808E-01
   7128.33  5.6060177E-01
   7128.67  6.0006377E-01
   7129.00  6.4163267E-01
   7129.33  6.8341275E-01
   7129.67  7.2329920E-01
   7130.00  7.5973410E-01
   7130.33  7.9065165E-01
   7130.67  8.1522715E-01
   7131.00  8.3191633E-01
   7131.33  8.3822547E-01
   7131.67  8.3628544E-01
   7132.00  8.2903476E-01
   7132.33  8.1958031E-01
   7132.67  8.0862516E-01
   7133.00  7.9440075E-01
   7133.33  7.7461094E-01
   7133.67  7.5047327E-01
   7134.00  7.2392091E-01
   7134.33  6.9778711E-01
   7134.67  6.7462216E-01
   7135.00  6.5607227E-01
   7135.33  6.4380328E-01
   7135.67  6.3712392E-01
   7136.00  6.3550858E-01
   7136.33  6.3856871E-01
   7136.67  6.4471094E-01
   7137.00  6.5285075E-01
   7137.33  6.6157825E-01
   7137.67  6.6928963E-01
   7138.00  6.7485393E-01
   7138.33  6.7709432E-01
   7138.67  6.7623475E-01
   7139.00  6.7258507E-01
   7139.33  6.6649256E-01
   7139.67  6.5888202E-01
   7140.00  6.5021778E-01
   7140.33  6.4078157E-01
   7140.67  6.3084256E-01
   7141.00  6.2045116E-01
   7141.33  6.0953945E-01
   7141.67  5.9813281E-01
   7142.00  5.8622580E-01
   7142.33  5.7382487E-01
   7142.67  5.6114873E-01
   7143.00  5.4842227E-01
   7143.33  5.3600857E-01
   7143.67  5.2422922E-01
   7144.00  5.1337542E-01
   7144.33  5.0387664E-01
   7144.67  4.9576221E-01
   7145.00  4.8909517E-01
   7145.33  4.8403631E-01
   7145.67  4.8031861E-01
   7146.00  4.7782749E-01
   7146.33  4.7652254E-01
   7146.67  4.7604869E-01
   7147.00  4.7616386E-01
   7147.33  4.7657350E-01
   7147.67  4.7692424E-01
   7148.00  4.7698065E-01
   7148.33  4.7647267E-01
   7148.67  4.7535442E-01
   7149.00  4.7362121E-01
   7149.33  4.7128813E-01
   7149.67  4.6855838E-01
   7150.00  4.6555587E-01
   7150.33  4.6237581E-01
   7150.67  4.5910137E-01
   7151.00  4.5574583E-01
   7151.33  4.5228217E-01
   7151.67  4.4870572E-01
   7152.00  4.4502267E-01
   7152.33  4.4125238E-01
   7152.67  4.3744581E-01
   7153.00  4.3365174E-01
   7153.33  4.2995071E-01
   7153.67  4.2640915E-01
   7154.00  4.2309251E-01
   7154.33  4.2010638E-01
   7154.67  4.1747216E-01
   7155.00  4.1523145E-01
   7155.33  4.1347664E-01
   7155.67  4.1217976E-01
   7156.00  4.1135225E-01
   7156.33  4.1105199E-01
   7156.67  4.1120210E-01
   7157.00  4.1177087E-01
   7157.33  4.1274656E-01
   7157.67  4.1400692E-01
   7158.00  4.1547332E-01
   7158.33  4.1706080E-01
   7158.67  4.1866008E-01
   7159.00  4.2019855E-01
   7159.33  4.2159477E-01
   7159.67  4.2282270E-01
   7160.00  4.2386466E-01
   7160.33  4.2469533E-01
   7160.67  4.2535208E-01
   7161.00  4.2585451E-01
   7161.33  4.2621595E-01
   7161.67  4.2648582E-01
   7162.00  4.2669212E-01
   7162.33  4.2686089E-01
   7162.67  4.2702638E-01
   7163.00  4.2721358E-01
   7163.33  4.2745737E-01
   7163.67  4.2778006E-01
   7164.00  4.2820646E-01
   7164.33  4.2878371E-01
   7164.67  4.2952766E-01
   7165.00  4.3046700E-01
   7165.33  4.3166150E-01
   7165.67  4.3310867E-01
   7166.00  4.3482405E-01
   7166.33  4.3685006E-01
   7166.67  4.3914693E-01
   7167.00  4.4169881E-01
   7167.33  4.4450270E-01
   7167.67  4.4748865E-01
   7168.00  4.5061476E-01
   7168.33  4.5383986E-01
   7168.67  4.5710030E-01
   7169.00  4.6035204E-01
   7169.33  4.6353867E-01
   7169.67  4.6662084E-01
   7170.00  4.6956062E-01
   7170.33  4.7229342E-01
   7170.67  4.7480310E-01
   7171.00  4.7705790E-01
   7171.33  4.7898542E-01
   7171.67  4.8058392E-01
   7172.00  4.8182244E-01
