    FDMNES
    energy     <xanes>
   7097.00  4.8696714E-03
   7097.33  4.9873047E-03
   7097.67  5.1104899E-03
   7098.00  5.2396225E-03
   7098.33  5.3760217E-03
   7098.67  5.5194536E-03
   7099.00  5.6704662E-03
   7099.33  5.8308122E-03
   7099.67  6.0002646E-03
   7100.00  6.1796052E-03
   7100.33  6.3712307E-03
   7100.67  6.5749582E-03
   7101.00  6.7919420E-03
   7101.33  7.0255744E-03
   7101.67  7.2757984E-03
   7102.00  7.5443891E-03
   7102.33  7.8363521E-03
   7102.67  8.1519386E-03
   7103.00  8.4940175E-03
   7103.33  8.8703617E-03
   7103.67  9.2819540E-03
   7104.00  9.7337229E-03
   7104.33  1.0238536E-02
   7104.67  1.0799153E-02
   7105.00  1.1424723E-02
   7105.33  1.2138372E-02
   7105.67  1.2947463E-02
   7106.00  1.3870781E-02
   7106.33  1.4954698E-02
   7106.67  1.6219837E-02
   7107.00  1.7710456E-02
   7107.33  1.9534789E-02
   7107.67  2.1758521E-02
   7108.00  2.4508646E-02
   7108.33  2.8101172E-02
   7108.67  3.2799385E-02
   7109.00  3.9096268E-02
   7109.33  4.8305598E-02
   7109.67  6.1982356E-02
   7110.00  8.3185911E-02
   7110.33  1.2083032E-01
   7110.67  1.8483363E-01
   7111.00  2.7816376E-01
   7111.33  3.6490016E-01
   7111.67  3.8880392E-01
   7112.00  3.5021246E-01
   7112.33  3.0497421E-01
   7112.67  2.6971737E-01
   7113.00  2.3631787E-01
   7113.33  2.0399282E-01
   7113.67  1.7560665E-01
   7114.00  1.5327612E-01
   7114.33  1.3994970E-01
   7114.67  1.3562332E-01
   7115.00  1.4132278E-01
   7115.33  1.6067105E-01
   7115.67  1.9367569E-01
   7116.00  2.3636093E-01
   7116.33  2.7282990E-01
   7116.67  2.9089452E-01
   7117.00  2.8876608E-01
   7117.33  2.6755380E-01
   7117.67  2.3929019E-01
   7118.00  2.1284863E-01
   7118.33  1.9337285E-01
   7118.67  1.7916325E-01
   7119.00  1.6765023E-01
   7119.33  1.5626434E-01
   7119.67  1.4445769E-01
   7120.00  1.3332714E-01
   7120.33  1.2455977E-01
   7120.67  1.1834805E-01
   7121.00  1.1448348E-01
   7121.33  1.1292987E-01
   7121.67  1.1340957E-01
   7122.00  1.1609557E-01
   7122.33  1.2154442E-01
   7122.67  1.2955973E-01
   7123.00  1.4006830E-01
   7123.33  1.5313988E-01
   7123.67  1.6818874E-01
   7124.00  1.8488395E-01
   7124.33  2.0299650E-01
   7124.67  2.2223556E-01
   7125.00  2.4262431E-01
   7125.33  2.6373409E-01
   7125.67  2.8419506E-01
   7126.00  3.0260632E-01
   7126.33  3.1698443E-01
   7126.67  3.2691050E-01
   7127.00  3.3264151E-01
   7127.33  3.3565465E-01
   7127.67  3.3892664E-01
   7128.00  3.4450343E-01
   7128.33  3.5435465E-01
   7128.67  3.6853424E-01
   7129.00  3.8687686E-01
   7129.33  4.0908074E-01
   7129.67  4.3375786E-01
   7130.00  4.6053422E-01
   7130.33  4.9018946E-01
   7130.67  5.2313737E-01
   7131.00  5.5955554E-01
   7131.33  5.9919845E-01
   7131.67  6.4049929E-01
   7132.00  6.8237128E-01
   7132.33  7.2385216E-01
   7132.67  7.6439616E-01
   7133.00  8.0347075E-01
   7133.33  8.3993439E-01
   7133.67  8.7329963E-01
   7134.00  9.0332512E-01
   7134.33  9.2935812E-01
   7134.67  9.5033213E-01
   7135.00  9.6360377E-01
   7135.33  9.6495135E-01
   7135.67  9.5502238E-01
   7136.00  9.3527197E-01
   7136.33  9.0776029E-01
   7136.67  8.7632881E-01
   7137.00  8.4307366E-01
   7137.33  8.0985086E-01
   7137.67  7.7801540E-01
   7138.00  7.4843535E-01
   7138.33  7.2219416E-01
   7138.67  6.9931366E-01
   7139.00  6.7985982E-01
   7139.33  6.6396270E-01
   7139.67  6.5062931E-01
   7140.00  6.3918456E-01
   7140.33  6.2893044E-01
   7140.67  6.1899344E-01
   7141.00  6.0889439E-01
   7141.33  5.9826048E-01
   7141.67  5.8713585E-01
   7142.00  5.7575540E-01
   7142.33  5.6469785E-01
   7142.67  5.5468125E-01
   7143.00  5.4640133E-01
   7143.33  5.4082390E-01
   7143.67  5.3796736E-01
   7144.00  5.3776239E-01
   7144.33  5.4008202E-01
   7144.67  5.4406343E-01
   7145.00  5.4920705E-01
   7145.33  5.5511596E-01
   7145.67  5.6135702E-01
   7146.00  5.6772363E-01
   7146.33  5.7404683E-01
   7146.67  5.8022271E-01
   7147.00  5.8618204E-01
   7147.33  5.9182001E-01
   7147.67  5.9710795E-01
   7148.00  6.0199301E-01
   7148.33  6.0635922E-01
   7148.67  6.1020979E-01
   7149.00  6.1350891E-01
   7149.33  6.1616415E-01
   7149.67  6.1825057E-01
   7150.00  6.1978216E-01
   7150.33  6.2071338E-01
   7150.67  6.2113889E-01
   7151.00  6.2108707E-01
   7151.33  6.2054073E-01
   7151.67  6.1959361E-01
   7152.00  6.1827908E-01
   7152.33  6.1659615E-01
   7152.67  6.1462351E-01
   7153.00  6.1239183E-01
   7153.33  6.0990852E-01
   7153.67  6.0723683E-01
   7154.00  6.0440651E-01
   7154.33  6.0143381E-01
   7154.67  5.9836235E-01
   7155.00  5.9521167E-01
   7155.33  5.9198940E-01
   7155.67  5.8870946E-01
   7156.00  5.8536892E-01
   7156.33  5.8194582E-01
   7156.67  5.7842709E-01
   7157.00  5.7478671E-01
   7157.33  5.7096825E-01
   7157.67  5.6695124E-01
   7158.00  5.6270102E-01
   7158.33  5.5814606E-01
   7158.67  5.5328924E-01
   7159.00  5.4811319E-01
   7159.33  5.4257149E-01
   7159.67  5.3671845E-01
   7160.00  5.3058280E-01
   7160.33  5.2418672E-01
   7160.67  5.1762655E-01
   7161.00  5.1096789E-01
   7161.33  5.0428725E-01
   7161.67  4.9766165E-01
   7162.00  4.9114571E-01
   7162.33  4.8479998E-01
   7162.67  4.7862045E-01
   7163.00  4.7260477E-01
   7163.33  4.6675308E-01
   7163.67  4.6101882E-01
   7164.00  4.5537685E-01
   7164.33  4.4981223E-01
   7164.67  4.4430315E-01
   7165.00  4.3884763E-01
   7165.33  4.3346172E-01
   7165.67  4.2815538E-01
   7166.00  4.2294801E-01
   7166.33  4.1787877E-01
   7166.67  4.1295561E-01
   7167.00  4.0819633E-01
   7167.33  4.0364096E-01
   7167.67  3.9928075E-01
   7168.00  3.9512360E-01
   7168.33  3.9120183E-01
   7168.67  3.8749561E-01
   7169.00  3.8401065E-01
   7169.33  3.8078163E-01
   7169.67  3.7778454E-01
   7170.00  3.7502248E-01
   7170.33  3.7253046E-01
   7170.67  3.7028534E-01
   7171.00  3.6829441E-01
   7171.33  3.6660207E-01
   7171.67  3.6519108E-01
   7172.00  3.6407552E-01
