    FDMNES
    energy     <xanes>
   7097.00  4.1970403E-03
   7097.33  4.2781485E-03
   7097.67  4.3622491E-03
   7098.00  4.4495178E-03
   7098.33  4.5406037E-03
   7098.67  4.6353317E-03
   7099.00  4.7339379E-03
   7099.33  4.8372498E-03
   7099.67  4.9450863E-03
   7100.00  5.0577739E-03
   7100.33  5.1763996E-03
   7100.67  5.3007889E-03
   7101.00  5.4314115E-03
   7101.33  5.5697482E-03
   7101.67  5.7156609E-03
   7102.00  5.8698578E-03
   7102.33  6.0344491E-03
   7102.67  6.2094042E-03
   7103.00  6.3958515E-03
   7103.33  6.5969774E-03
   7103.67  6.8130267E-03
   7104.00  7.0459281E-03
   7104.33  7.3008608E-03
   7104.67  7.5787737E-03
   7105.00  7.8832695E-03
   7105.33  8.2236123E-03
   7105.67  8.6026561E-03
   7106.00  9.0279538E-03
   7106.33  9.5183290E-03
   7106.67  1.0082399E-02
   7107.00  1.0738671E-02
   7107.33  1.1532765E-02
   7107.67  1.2494142E-02
   7108.00  1.3679493E-02
   7108.33  1.5231853E-02
   7108.67  1.7280601E-02
   7109.00  2.0069838E-02
   7109.33  2.4269225E-02
   7109.67  3.0745768E-02
   7110.00  4.1232903E-02
   7110.33  6.0692470E-02
   7110.67  9.2335076E-02
   7111.00  1.2587978E-01
   7111.33  1.2769327E-01
   7111.67  1.1106171E-01
   7112.00  9.5411633E-02
   7112.33  8.7997637E-02
   7112.67  8.4956280E-02
   7113.00  8.1638243E-02
   7113.33  7.4375868E-02
   7113.67  6.4637421E-02
   7114.00  5.5503567E-02
   7114.33  4.9507584E-02
   7114.67  4.5253626E-02
   7115.00  4.1613828E-02
   7115.33  3.9465880E-02
   7115.67  3.8847824E-02
   7116.00  3.9453030E-02
   7116.33  4.1102558E-02
   7116.67  4.3508862E-02
   7117.00  4.6606366E-02
   7117.33  5.0526427E-02
   7117.67  5.5361685E-02
   7118.00  6.1348794E-02
   7118.33  6.8945225E-02
   7118.67  7.8147074E-02
   7119.00  8.8897358E-02
   7119.33  1.0080105E-01
   7119.67  1.1265254E-01
   7120.00  1.2345377E-01
   7120.33  1.3268358E-01
   7120.67  1.4147580E-01
   7121.00  1.5129413E-01
   7121.33  1.6413951E-01
   7121.67  1.8087910E-01
   7122.00  2.0218021E-01
   7122.33  2.2927439E-01
   7122.67  2.6207050E-01
   7123.00  3.0094322E-01
   7123.33  3.4657285E-01
   7123.67  3.9689133E-01
   7124.00  4.4904717E-01
   7124.33  4.9655720E-01
   7124.67  5.3219256E-01
   7125.00  5.5069577E-01
   7125.33  5.4949811E-01
   7125.67  5.3716888E-01
   7126.00  5.2154770E-01
   7126.33  5.1078764E-01
   7126.67  5.0862536E-01
   7127.00  5.1635059E-01
   7127.33  5.3464136E-01
   7127.67  5.6005954E-01
   7128.00  5.8954631E-01
   7128.33  6.1928079E-01
   7128.67  6.4701717E-01
   7129.00  6.7336094E-01
   7129.33  7.0146522E-01
   7129.67  7.3427105E-01
   7130.00  7.7312599E-01
   7130.33  8.1801170E-01
   7130.67  8.6501434E-01
   7131.00  9.0923940E-01
   7131.33  9.4146973E-01
   7131.67  9.5491872E-01
   7132.00  9.4584612E-01
   7132.33  9.1430587E-01
   7132.67  8.7101575E-01
   7133.00  8.2385489E-01
   7133.33  7.8030093E-01
   7133.67  7.4395768E-01
   7134.00  7.1591088E-01
   7134.33  6.9627292E-01
   7134.67  6.8212808E-01
   7135.00  6.7165906E-01
   7135.33  6.6339859E-01
   7135.67  6.5597352E-01
   7136.00  6.4883865E-01
   7136.33  6.4172279E-01
   7136.67  6.3460492E-01
   7137.00  6.2758060E-01
   7137.33  6.2084008E-01
   7137.67  6.1450547E-01
   7138.00  6.0867714E-01
   7138.33  6.0348812E-01
   7138.67  5.9887204E-01
   7139.00  5.9480163E-01
   7139.33  5.9128409E-01
   7139.67  5.8818989E-01
   7140.00  5.8545671E-01
   7140.33  5.8304950E-01
   7140.67  5.8086655E-01
   7141.00  5.7885774E-01
   7141.33  5.7698614E-01
   7141.67  5.7518919E-01
   7142.00  5.7342854E-01
   7142.33  5.7165922E-01
   7142.67  5.6983735E-01
   7143.00  5.6792135E-01
   7143.33  5.6584700E-01
   7143.67  5.6359627E-01
   7144.00  5.6114785E-01
   7144.33  5.5846289E-01
   7144.67  5.5557186E-01
   7145.00  5.5249357E-01
   7145.33  5.4924439E-01
   7145.67  5.4588412E-01
   7146.00  5.4244759E-01
   7146.33  5.3896793E-01
   7146.67  5.3548333E-01
   7147.00  5.3201784E-01
   7147.33  5.2859900E-01
   7147.67  5.2523834E-01
   7148.00  5.2194602E-01
   7148.33  5.1873813E-01
   7148.67  5.1560633E-01
   7149.00  5.1254813E-01
   7149.33  5.0956641E-01
   7149.67  5.0664048E-01
   7150.00  5.0375523E-01
   7150.33  5.0089356E-01
   7150.67  4.9803326E-01
   7151.00  4.9515946E-01
   7151.33  4.9225477E-01
   7151.67  4.8931244E-01
   7152.00  4.8632617E-01
   7152.33  4.8328289E-01
   7152.67  4.8018017E-01
   7153.00  4.7700725E-01
   7153.33  4.7373635E-01
   7153.67  4.7035433E-01
   7154.00  4.6683088E-01
   7154.33  4.6309745E-01
   7154.67  4.5912567E-01
   7155.00  4.5487036E-01
   7155.33  4.5024302E-01
   7155.67  4.4525211E-01
   7156.00  4.3988681E-01
   7156.33  4.3411368E-01
   7156.67  4.2801840E-01
   7157.00  4.2165756E-01
   7157.33  4.1509563E-01
   7157.67  4.0845646E-01
   7158.00  4.0183178E-01
   7158.33  3.9534344E-01
   7158.67  3.8908042E-01
   7159.00  3.8312841E-01
   7159.33  3.7763147E-01
   7159.67  3.7262420E-01
   7160.00  3.6817240E-01
   7160.33  3.6441893E-01
   7160.67  3.6133704E-01
   7161.00  3.5895727E-01
   7161.33  3.5738699E-01
   7161.67  3.5653335E-01
   7162.00  3.5637807E-01
   7162.33  3.5696340E-01
   7162.67  3.5814394E-01
   7163.00  3.5984879E-01
   7163.33  3.6203743E-01
   7163.67  3.6454642E-01
   7164.00  3.6728856E-01
   7164.33  3.7019829E-01
   7164.67  3.7318759E-01
   7165.00  3.7620961E-01
   7165.33  3.7922453E-01
   7165.67  3.8221141E-01
   7166.00  3.8516495E-01
   7166.33  3.8808952E-01
   7166.67  3.9100703E-01
   7167.00  3.9393739E-01
   7167.33  3.9690722E-01
   7167.67  3.9993510E-01
   7168.00  4.0304028E-01
   7168.33  4.0625223E-01
   7168.67  4.0956883E-01
   7169.00  4.1299042E-01
   7169.33  4.1652149E-01
   7169.67  4.2013822E-01
   7170.00  4.2382191E-01
   7170.33  4.2753927E-01
   7170.67  4.3123493E-01
   7171.00  4.3484870E-01
   7171.33  4.3825394E-01
   7171.67  4.4130510E-01
   7172.00  4.4379570E-01
