    FDMNES
    energy     <xanes>
   7097.00  4.3135412E-03
   7097.33  4.4004470E-03
   7097.67  4.4906182E-03
   7098.00  4.5842443E-03
   7098.33  4.6820290E-03
   7098.67  4.7837773E-03
   7099.00  4.8897406E-03
   7099.33  5.0008104E-03
   7099.67  5.1167805E-03
   7100.00  5.2379947E-03
   7100.33  5.3656119E-03
   7100.67  5.4994253E-03
   7101.00  5.6399214E-03
   7101.33  5.7886563E-03
   7101.67  5.9454483E-03
   7102.00  6.1110142E-03
   7102.33  6.2875301E-03
   7102.67  6.4748978E-03
   7103.00  6.6742293E-03
   7103.33  6.8887276E-03
   7103.67  7.1185163E-03
   7104.00  7.3654341E-03
   7104.33  7.6345150E-03
   7104.67  7.9264486E-03
   7105.00  8.2445311E-03
   7105.33  8.5973818E-03
   7105.67  8.9871854E-03
   7106.00  9.4205043E-03
   7106.33  9.9138849E-03
   7106.67  1.0473841E-02
   7107.00  1.1115421E-02
   7107.33  1.1875821E-02
   7107.67  1.2776210E-02
   7108.00  1.3858755E-02
   7108.33  1.5228721E-02
   7108.67  1.6971028E-02
   7109.00  1.9246179E-02
   7109.33  2.2481645E-02
   7109.67  2.7176603E-02
   7110.00  3.4312783E-02
   7110.33  4.6702282E-02
   7110.67  6.6998121E-02
   7111.00  9.4238226E-02
   7111.33  1.1983618E-01
   7111.67  1.4378395E-01
   7112.00  1.5676017E-01
   7112.33  1.4327793E-01
   7112.67  1.1587677E-01
   7113.00  8.9774088E-02
   7113.33  7.3234382E-02
   7113.67  6.2835327E-02
   7114.00  5.5842519E-02
   7114.33  5.1591141E-02
   7114.67  4.9524706E-02
   7115.00  4.9269555E-02
   7115.33  5.0690055E-02
   7115.67  5.3486857E-02
   7116.00  5.7669433E-02
   7116.33  6.3428691E-02
   7116.67  7.0530670E-02
   7117.00  7.8962856E-02
   7117.33  8.9234804E-02
   7117.67  1.0163441E-01
   7118.00  1.1632159E-01
   7118.33  1.3338089E-01
   7118.67  1.5242003E-01
   7119.00  1.7359474E-01
   7119.33  1.9731463E-01
   7119.67  2.2246706E-01
   7120.00  2.4696665E-01
   7120.33  2.6662447E-01
   7120.67  2.7911536E-01
   7121.00  2.8447381E-01
   7121.33  2.8526906E-01
   7121.67  2.8634169E-01
   7122.00  2.9088136E-01
   7122.33  3.0206708E-01
   7122.67  3.2037915E-01
   7123.00  3.4615831E-01
   7123.33  3.8024080E-01
   7123.67  4.2130197E-01
   7124.00  4.6840009E-01
   7124.33  5.1880330E-01
   7124.67  5.6612783E-01
   7125.00  6.0441060E-01
   7125.33  6.2767654E-01
   7125.67  6.3701114E-01
   7126.00  6.3361871E-01
   7126.33  6.1908479E-01
   7126.67  5.9900858E-01
   7127.00  5.7737458E-01
   7127.33  5.5810296E-01
   7127.67  5.4317253E-01
   7128.00  5.3347083E-01
   7128.33  5.2986441E-01
   7128.67  5.3145076E-01
   7129.00  5.3797028E-01
   7129.33  5.4961827E-01
   7129.67  5.6521361E-01
   7130.00  5.8396388E-01
   7130.33  6.0496440E-01
   7130.67  6.2678622E-01
   7131.00  6.4856691E-01
   7131.33  6.6944356E-01
   7131.67  6.8892840E-01
   7132.00  7.0653659E-01
   7132.33  7.2137613E-01
   7132.67  7.3341162E-01
   7133.00  7.4293006E-01
   7133.33  7.5072717E-01
   7133.67  7.5767468E-01
   7134.00  7.6352155E-01
   7134.33  7.6706760E-01
   7134.67  7.6749886E-01
   7135.00  7.6410235E-01
   7135.33  7.5600880E-01
   7135.67  7.4404871E-01
   7136.00  7.2898217E-01
   7136.33  7.1183521E-01
   7136.67  6.9420480E-01
   7137.00  6.7714395E-01
   7137.33  6.6178049E-01
   7137.67  6.4850833E-01
   7138.00  6.3755998E-01
   7138.33  6.2924473E-01
   7138.67  6.2308588E-01
   7139.00  6.1881760E-01
   7139.33  6.1625007E-01
   7139.67  6.1479743E-01
   7140.00  6.1414663E-01
   7140.33  6.1406907E-01
   7140.67  6.1429936E-01
   7141.00  6.1472801E-01
   7141.33  6.1529042E-01
   7141.67  6.1591203E-01
   7142.00  6.1653500E-01
   7142.33  6.1705680E-01
   7142.67  6.1736831E-01
   7143.00  6.1735264E-01
   7143.33  6.1683733E-01
   7143.67  6.1579491E-01
   7144.00  6.1416717E-01
   7144.33  6.1184804E-01
   7144.67  6.0894062E-01
   7145.00  6.0550708E-01
   7145.33  6.0159875E-01
   7145.67  5.9738701E-01
   7146.00  5.9297009E-01
   7146.33  5.8843349E-01
   7146.67  5.8386536E-01
   7147.00  5.7930806E-01
   7147.33  5.7478952E-01
   7147.67  5.7030475E-01
   7148.00  5.6583672E-01
   7148.33  5.6134231E-01
   7148.67  5.5676980E-01
   7149.00  5.5207435E-01
   7149.33  5.4718493E-01
   7149.67  5.4207689E-01
   7150.00  5.3671543E-01
   7150.33  5.3103103E-01
   7150.67  5.2503496E-01
   7151.00  5.1871380E-01
   7151.33  5.1201753E-01
   7151.67  5.0498708E-01
   7152.00  4.9763174E-01
   7152.33  4.8994144E-01
   7152.67  4.8198656E-01
   7153.00  4.7380279E-01
   7153.33  4.6541775E-01
   7153.67  4.5690374E-01
   7154.00  4.4830562E-01
   7154.33  4.3967348E-01
   7154.67  4.3106429E-01
   7155.00  4.2251780E-01
   7155.33  4.1407728E-01
   7155.67  4.0575692E-01
   7156.00  3.9757623E-01
   7156.33  3.8956897E-01
   7156.67  3.8172493E-01
   7157.00  3.7405169E-01
   7157.33  3.6658507E-01
   7157.67  3.5932350E-01
   7158.00  3.5229268E-01
   7158.33  3.4556235E-01
   7158.67  3.3914131E-01
   7159.00  3.3306844E-01
   7159.33  3.2743712E-01
   7159.67  3.2223870E-01
   7160.00  3.1750322E-01
   7160.33  3.1332156E-01
   7160.67  3.0965664E-01
   7161.00  3.0652700E-01
   7161.33  3.0402128E-01
   7161.67  3.0208758E-01
   7162.00  3.0073794E-01
   7162.33  3.0005248E-01
   7162.67  2.9996003E-01
   7163.00  3.0046088E-01
   7163.33  3.0161699E-01
   7163.67  3.0331963E-01
   7164.00  3.0552364E-01
   7164.33  3.0823142E-01
   7164.67  3.1132806E-01
   7165.00  3.1475758E-01
   7165.33  3.1848575E-01
   7165.67  3.2241472E-01
   7166.00  3.2649441E-01
   7166.33  3.3068772E-01
   7166.67  3.3494211E-01
   7167.00  3.3923089E-01
   7167.33  3.4353270E-01
   7167.67  3.4783039E-01
   7168.00  3.5211470E-01
   7168.33  3.5637708E-01
   7168.67  3.6061701E-01
   7169.00  3.6483280E-01
   7169.33  3.6901908E-01
   7169.67  3.7317512E-01
   7170.00  3.7729410E-01
   7170.33  3.8135518E-01
   7170.67  3.8533837E-01
   7171.00  3.8920349E-01
   7171.33  3.9283866E-01
   7171.67  3.9610436E-01
   7172.00  3.9878125E-01
