    FDMNES
    energy     <xanes>
   7097.00  5.2205936E-03
   7097.33  5.3512406E-03
   7097.67  5.4881928E-03
   7098.00  5.6319070E-03
   7098.33  5.7838942E-03
   7098.67  5.9438998E-03
   7099.00  6.1125600E-03
   7099.33  6.2918930E-03
   7099.67  6.4816576E-03
   7100.00  6.6827673E-03
   7100.33  6.8980000E-03
   7100.67  7.1271749E-03
   7101.00  7.3716511E-03
   7101.33  7.6353909E-03
   7101.67  7.9183775E-03
   7102.00  8.2227204E-03
   7102.33  8.5543195E-03
   7102.67  8.9135536E-03
   7103.00  9.3038670E-03
   7103.33  9.7345204E-03
   7103.67  1.0206827E-02
   7104.00  1.0726771E-02
   7104.33  1.1309876E-02
   7104.67  1.1959724E-02
   7105.00  1.2687568E-02
   7105.33  1.3521699E-02
   7105.67  1.4471598E-02
   7106.00  1.5560690E-02
   7106.33  1.6846583E-02
   7106.67  1.8355847E-02
   7107.00  2.0144471E-02
   7107.33  2.2349127E-02
   7107.67  2.5054896E-02
   7108.00  2.8424818E-02
   7108.33  3.2864759E-02
   7108.67  3.8718833E-02
   7109.00  4.6629858E-02
   7109.33  5.8315549E-02
   7109.67  7.5834916E-02
   7110.00  1.0324875E-01
   7110.33  1.5247510E-01
   7110.67  2.3698821E-01
   7111.00  3.5764830E-01
   7111.33  4.4299710E-01
   7111.67  4.6778911E-01
   7112.00  4.6115718E-01
   7112.33  4.1589770E-01
   7112.67  3.6032893E-01
   7113.00  2.9089527E-01
   7113.33  2.1248766E-01
   7113.67  1.5490741E-01
   7114.00  1.1946187E-01
   7114.33  1.0044976E-01
   7114.67  8.8546719E-02
   7115.00  7.9227556E-02
   7115.33  7.2527994E-02
   7115.67  6.8497557E-02
   7116.00  6.6767966E-02
   7116.33  6.7190625E-02
   7116.67  6.9440209E-02
   7117.00  7.3678778E-02
   7117.33  8.0539633E-02
   7117.67  8.9614069E-02
   7118.00  9.9693573E-02
   7118.33  1.0996776E-01
   7118.67  1.2231374E-01
   7119.00  1.3712031E-01
   7119.33  1.5234277E-01
   7119.67  1.6578789E-01
   7120.00  1.7700174E-01
   7120.33  1.8833219E-01
   7120.67  2.0346168E-01
   7121.00  2.2472038E-01
   7121.33  2.5450487E-01
   7121.67  2.9210080E-01
   7122.00  3.3641404E-01
   7122.33  3.8448034E-01
   7122.67  4.3027700E-01
   7123.00  4.6856155E-01
   7123.33  4.9427661E-01
   7123.67  5.0942361E-01
   7124.00  5.1679335E-01
   7124.33  5.1885400E-01
   7124.67  5.1859092E-01
   7125.00  5.1835129E-01
   7125.33  5.2104175E-01
   7125.67  5.2772316E-01
   7126.00  5.3878531E-01
   7126.33  5.5502480E-01
   7126.67  5.7614739E-01
   7127.00  6.0230398E-01
   7127.33  6.3335094E-01
   7127.67  6.6593277E-01
   7128.00  6.9564776E-01
   7128.33  7.1611849E-01
   7128.67  7.2698131E-01
   7129.00  7.3150034E-01
   7129.33  7.3512670E-01
   7129.67  7.4146605E-01
   7130.00  7.5117785E-01
   7130.33  7.6345981E-01
   7130.67  7.7584658E-01
   7131.00  7.8614304E-01
   7131.33  7.9156709E-01
   7131.67  7.9149754E-01
   7132.00  7.8612581E-01
   7132.33  7.7633895E-01
   7132.67  7.6450506E-01
   7133.00  7.5202341E-01
   7133.33  7.3991570E-01
   7133.67  7.2839109E-01
   7134.00  7.1723987E-01
   7134.33  7.0605370E-01
   7134.67  6.9467370E-01
   7135.00  6.8338827E-01
   7135.33  6.7310357E-01
   7135.67  6.6462187E-01
   7136.00  6.5847250E-01
   7136.33  6.5507216E-01
   7136.67  6.5374363E-01
   7137.00  6.5392954E-01
   7137.33  6.5496346E-01
   7137.67  6.5597658E-01
   7138.00  6.5633943E-01
   7138.33  6.5525746E-01
   7138.67  6.5244071E-01
   7139.00  6.4766764E-01
   7139.33  6.4060259E-01
   7139.67  6.3158975E-01
   7140.00  6.2082116E-01
   7140.33  6.0843110E-01
   7140.67  5.9495761E-01
   7141.00  5.8070339E-01
   7141.33  5.6592333E-01
   7141.67  5.5092921E-01
   7142.00  5.3588852E-01
   7142.33  5.2096020E-01
   7142.67  5.0624427E-01
   7143.00  4.9182424E-01
   7143.33  4.7784162E-01
   7143.67  4.6434337E-01
   7144.00  4.5141628E-01
   7144.33  4.3925085E-01
   7144.67  4.2787335E-01
   7145.00  4.1738202E-01
   7145.33  4.0801384E-01
   7145.67  3.9974406E-01
   7146.00  3.9263895E-01
   7146.33  3.8688944E-01
   7146.67  3.8233342E-01
   7147.00  3.7891622E-01
   7147.33  3.7665592E-01
   7147.67  3.7527679E-01
   7148.00  3.7463644E-01
   7148.33  3.7463615E-01
   7148.67  3.7504243E-01
   7149.00  3.7572440E-01
   7149.33  3.7655253E-01
   7149.67  3.7737780E-01
   7150.00  3.7810372E-01
   7150.33  3.7861874E-01
   7150.67  3.7888831E-01
   7151.00  3.7888929E-01
   7151.33  3.7859195E-01
   7151.67  3.7806019E-01
   7152.00  3.7733609E-01
   7152.33  3.7646325E-01
   7152.67  3.7552237E-01
   7153.00  3.7456594E-01
   7153.33  3.7365191E-01
   7153.67  3.7281705E-01
   7154.00  3.7208578E-01
   7154.33  3.7148779E-01
   7154.67  3.7100890E-01
   7155.00  3.7063826E-01
   7155.33  3.7035973E-01
   7155.67  3.7012249E-01
   7156.00  3.6988192E-01
   7156.33  3.6956982E-01
   7156.67  3.6912957E-01
   7157.00  3.6850788E-01
   7157.33  3.6762758E-01
   7157.67  3.6649264E-01
   7158.00  3.6510572E-01
   7158.33  3.6347409E-01
   7158.67  3.6169263E-01
   7159.00  3.5984121E-01
   7159.33  3.5803226E-01
   7159.67  3.5637255E-01
   7160.00  3.5495405E-01
   7160.33  3.5391484E-01
   7160.67  3.5328982E-01
   7161.00  3.5312626E-01
   7161.33  3.5351718E-01
   7161.67  3.5440738E-01
   7162.00  3.5578425E-01
   7162.33  3.5767650E-01
   7162.67  3.5998751E-01
   7163.00  3.6267006E-01
   7163.33  3.6569758E-01
   7163.67  3.6896280E-01
   7164.00  3.7240466E-01
   7164.33  3.7596460E-01
   7164.67  3.7956012E-01
   7165.00  3.8313548E-01
   7165.33  3.8662245E-01
   7165.67  3.8998087E-01
   7166.00  3.9317595E-01
   7166.33  3.9615326E-01
   7166.67  3.9891731E-01
   7167.00  4.0145865E-01
   7167.33  4.0374549E-01
   7167.67  4.0580924E-01
   7168.00  4.0765682E-01
   7168.33  4.0927468E-01
   7168.67  4.1070333E-01
   7169.00  4.1195758E-01
   7169.33  4.1303768E-01
   7169.67  4.1398488E-01
   7170.00  4.1481926E-01
   7170.33  4.1555333E-01
   7170.67  4.1621981E-01
   7171.00  4.1683336E-01
   7171.33  4.1739694E-01
   7171.67  4.1790771E-01
   7172.00  4.1833989E-01
