    FDMNES
    energy     <xanes>
   7097.00  4.0260446E-03
   7097.33  4.1017628E-03
   7097.67  4.1802207E-03
   7098.00  4.2615776E-03
   7098.33  4.3464257E-03
   7098.67  4.4346032E-03
   7099.00  4.5263241E-03
   7099.33  4.6223421E-03
   7099.67  4.7224890E-03
   7100.00  4.8270604E-03
   7100.33  4.9370440E-03
   7100.67  5.0522763E-03
   7101.00  5.1731809E-03
   7101.33  5.3010981E-03
   7101.67  5.4358948E-03
   7102.00  5.5782053E-03
   7102.33  5.7299295E-03
   7102.67  5.8910229E-03
   7103.00  6.0624871E-03
   7103.33  6.2471654E-03
   7103.67  6.4452392E-03
   7104.00  6.6583958E-03
   7104.33  6.8911920E-03
   7104.67  7.1443761E-03
   7105.00  7.4210319E-03
   7105.33  7.7291309E-03
   7105.67  8.0709118E-03
   7106.00  8.4526324E-03
   7106.33  8.8899419E-03
   7106.67  9.3893978E-03
   7107.00  9.9656134E-03
   7107.33  1.0654550E-02
   7107.67  1.1477453E-02
   7108.00  1.2475974E-02
   7108.33  1.3753987E-02
   7108.67  1.5397117E-02
   7109.00  1.7566410E-02
   7109.33  2.0691478E-02
   7109.67  2.5280019E-02
   7110.00  3.2331410E-02
   7110.33  4.4728885E-02
   7110.67  6.5347084E-02
   7111.00  9.3658913E-02
   7111.33  1.1814079E-01
   7111.67  1.3263405E-01
   7112.00  1.3922246E-01
   7112.33  1.3153735E-01
   7112.67  1.1036128E-01
   7113.00  8.7384946E-02
   7113.33  7.0861713E-02
   7113.67  6.0192071E-02
   7114.00  5.3622079E-02
   7114.33  4.8695247E-02
   7114.67  4.3904196E-02
   7115.00  3.9893966E-02
   7115.33  3.7635291E-02
   7115.67  3.6783180E-02
   7116.00  3.6913102E-02
   7116.33  3.7686064E-02
   7116.67  3.8899749E-02
   7117.00  4.0686669E-02
   7117.33  4.3368893E-02
   7117.67  4.6952942E-02
   7118.00  5.1404173E-02
   7118.33  5.6639532E-02
   7118.67  6.2286945E-02
   7119.00  6.8039147E-02
   7119.33  7.3475327E-02
   7119.67  7.8298819E-02
   7120.00  8.2410233E-02
   7120.33  8.6009345E-02
   7120.67  8.9735542E-02
   7121.00  9.4210310E-02
   7121.33  1.0040154E-01
   7121.67  1.0893358E-01
   7122.00  1.2053534E-01
   7122.33  1.3653937E-01
   7122.67  1.5708923E-01
   7123.00  1.8209100E-01
   7123.33  2.0952898E-01
   7123.67  2.3349446E-01
   7124.00  2.4937624E-01
   7124.33  2.5805094E-01
   7124.67  2.6766467E-01
   7125.00  2.8284416E-01
   7125.33  3.0504651E-01
   7125.67  3.3010206E-01
   7126.00  3.5417874E-01
   7126.33  3.7566091E-01
   7126.67  3.9781807E-01
   7127.00  4.2466439E-01
   7127.33  4.6028382E-01
   7127.67  5.0367165E-01
   7128.00  5.5308490E-01
   7128.33  6.0618608E-01
   7128.67  6.5940967E-01
   7129.00  7.0983837E-01
   7129.33  7.5372630E-01
   7129.67  7.9032363E-01
   7130.00  8.2014058E-01
   7130.33  8.4416515E-01
   7130.67  8.6370074E-01
   7131.00  8.7810173E-01
   7131.33  8.8664421E-01
   7131.67  8.9241124E-01
   7132.00  8.9854262E-01
   7132.33  9.0760053E-01
   7132.67  9.1868818E-01
   7133.00  9.2983899E-01
   7133.33  9.3865209E-01
   7133.67  9.4431545E-01
   7134.00  9.4671570E-01
   7134.33  9.4600764E-01
   7134.67  9.4324447E-01
   7135.00  9.3866755E-01
   7135.33  9.3154907E-01
   7135.67  9.2129502E-01
   7136.00  9.0724987E-01
   7136.33  8.8861456E-01
   7136.67  8.6623292E-01
   7137.00  8.4081280E-01
   7137.33  8.1321375E-01
   7137.67  7.8484364E-01
   7138.00  7.5660996E-01
   7138.33  7.2948799E-01
   7138.67  7.0395540E-01
   7139.00  6.8033984E-01
   7139.33  6.5910629E-01
   7139.67  6.4004692E-01
   7140.00  6.2313624E-01
   7140.33  6.0855281E-01
   7140.67  5.9593167E-01
   7141.00  5.8517327E-01
   7141.33  5.7637052E-01
   7141.67  5.6917192E-01
   7142.00  5.6345863E-01
   7142.33  5.5926422E-01
   7142.67  5.5626886E-01
   7143.00  5.5429786E-01
   7143.33  5.5319147E-01
   7143.67  5.5255237E-01
   7144.00  5.5209944E-01
   7144.33  5.5149107E-01
   7144.67  5.5046660E-01
   7145.00  5.4885825E-01
   7145.33  5.4649350E-01
   7145.67  5.4348282E-01
   7146.00  5.3992163E-01
   7146.33  5.3591948E-01
   7146.67  5.3169549E-01
   7147.00  5.2738090E-01
   7147.33  5.2310001E-01
   7147.67  5.1893160E-01
   7148.00  5.1491891E-01
   7148.33  5.1111164E-01
   7148.67  5.0749926E-01
   7149.00  5.0408738E-01
   7149.33  5.0090756E-01
   7149.67  4.9794099E-01
   7150.00  4.9519314E-01
   7150.33  4.9269043E-01
   7150.67  4.9039153E-01
   7151.00  4.8827001E-01
   7151.33  4.8629386E-01
   7151.67  4.8437994E-01
   7152.00  4.8245282E-01
   7152.33  4.8039212E-01
   7152.67  4.7809411E-01
   7153.00  4.7544947E-01
   7153.33  4.7227888E-01
   7153.67  4.6853108E-01
   7154.00  4.6412026E-01
   7154.33  4.5886423E-01
   7154.67  4.5278483E-01
   7155.00  4.4583680E-01
   7155.33  4.3787758E-01
   7155.67  4.2901747E-01
   7156.00  4.1928001E-01
   7156.33  4.0862154E-01
   7156.67  3.9723748E-01
   7157.00  3.8523416E-01
   7157.33  3.7270602E-01
   7157.67  3.5989708E-01
   7158.00  3.4698876E-01
   7158.33  3.3422204E-01
   7158.67  3.2181197E-01
   7159.00  3.0995347E-01
   7159.33  2.9895572E-01
   7159.67  2.8891590E-01
   7160.00  2.7998070E-01
   7160.33  2.7245412E-01
   7160.67  2.6630033E-01
   7161.00  2.6159875E-01
   7161.33  2.5859762E-01
   7161.67  2.5712042E-01
   7162.00  2.5713248E-01
   7162.33  2.5871619E-01
   7162.67  2.6156608E-01
   7163.00  2.6554679E-01
   7163.33  2.7059693E-01
   7163.67  2.7640723E-01
   7164.00  2.8281732E-01
   7164.33  2.8970151E-01
   7164.67  2.9684706E-01
   7165.00  3.0414413E-01
   7165.33  3.1149961E-01
   7165.67  3.1883158E-01
   7166.00  3.2609257E-01
   7166.33  3.3323339E-01
   7166.67  3.4024934E-01
   7167.00  3.4713643E-01
   7167.33  3.5389000E-01
   7167.67  3.6054940E-01
   7168.00  3.6714318E-01
   7168.33  3.7370474E-01
   7168.67  3.8027233E-01
   7169.00  3.8686883E-01
   7169.33  3.9351366E-01
   7169.67  4.0019731E-01
   7170.00  4.0689894E-01
   7170.33  4.1356815E-01
   7170.67  4.2013241E-01
   7171.00  4.2649501E-01
   7171.33  4.3243815E-01
   7171.67  4.3773048E-01
   7172.00  4.4203697E-01
