    FDMNES
    energy     <xanes>
   7097.00  4.9869768E-03
   7097.33  5.1038548E-03
   7097.67  5.2258914E-03
   7098.00  5.3534201E-03
   7098.33  5.4876076E-03
   7098.67  5.6281865E-03
   7099.00  5.7756028E-03
   7099.33  5.9313582E-03
   7099.67  6.0951678E-03
   7100.00  6.2676422E-03
   7100.33  6.4507572E-03
   7100.67  6.6442242E-03
   7101.00  6.8489013E-03
   7101.33  7.0674562E-03
   7101.67  7.2996287E-03
   7102.00  7.5466626E-03
   7102.33  7.8122729E-03
   7102.67  8.0962995E-03
   7103.00  8.4006141E-03
   7103.33  8.7305867E-03
   7103.67  9.0863191E-03
   7104.00  9.4707600E-03
   7104.33  9.8920426E-03
   7104.67  1.0350905E-02
   7105.00  1.0852274E-02
   7105.33  1.1409230E-02
   7105.67  1.2024083E-02
   7106.00  1.2705726E-02
   7106.33  1.3476985E-02
   7106.67  1.4344331E-02
   7107.00  1.5325686E-02
   7107.33  1.6465883E-02
   7107.67  1.7784075E-02
   7108.00  1.9323014E-02
   7108.33  2.1189163E-02
   7108.67  2.3451024E-02
   7109.00  2.6244636E-02
   7109.33  2.9925391E-02
   7109.67  3.4854441E-02
   7110.00  4.1747849E-02
   7110.33  5.2632166E-02
   7110.67  6.9383903E-02
   7111.00  9.1444166E-02
   7111.33  1.1008880E-01
   7111.67  1.2291126E-01
   7112.00  1.3882753E-01
   7112.33  1.6560576E-01
   7112.67  2.0355186E-01
   7113.00  2.5087398E-01
   7113.33  3.1085184E-01
   7113.67  3.8872470E-01
   7114.00  4.8283555E-01
   7114.33  5.9572505E-01
   7114.67  6.9804847E-01
   7115.00  7.2392734E-01
   7115.33  6.3203392E-01
   7115.67  5.0611782E-01
   7116.00  3.9792596E-01
   7116.33  3.2345606E-01
   7116.67  2.7225487E-01
   7117.00  2.3797852E-01
   7117.33  2.1711433E-01
   7117.67  2.0458195E-01
   7118.00  1.9706510E-01
   7118.33  1.8996876E-01
   7118.67  1.8006776E-01
   7119.00  1.6736512E-01
   7119.33  1.5361974E-01
   7119.67  1.4102586E-01
   7120.00  1.3071322E-01
   7120.33  1.2332047E-01
   7120.67  1.1807268E-01
   7121.00  1.1438641E-01
   7121.33  1.1191326E-01
   7121.67  1.1039933E-01
   7122.00  1.0996762E-01
   7122.33  1.1094031E-01
   7122.67  1.1308314E-01
   7123.00  1.1620235E-01
   7123.33  1.2025647E-01
   7123.67  1.2512236E-01
   7124.00  1.3083582E-01
   7124.33  1.3755363E-01
   7124.67  1.4521671E-01
   7125.00  1.5389954E-01
   7125.33  1.6388905E-01
   7125.67  1.7523074E-01
   7126.00  1.8809384E-01
   7126.33  2.0283480E-01
   7126.67  2.1925781E-01
   7127.00  2.3718909E-01
   7127.33  2.5629459E-01
   7127.67  2.7582333E-01
   7128.00  2.9543367E-01
   7128.33  3.1522969E-01
   7128.67  3.3579892E-01
   7129.00  3.5814206E-01
   7129.33  3.8431895E-01
   7129.67  4.1539362E-01
   7130.00  4.5188834E-01
   7130.33  4.9392103E-01
   7130.67  5.4009713E-01
   7131.00  5.9041902E-01
   7131.33  6.4531534E-01
   7131.67  7.0221079E-01
   7132.00  7.5773820E-01
   7132.33  8.0728093E-01
   7132.67  8.4975034E-01
   7133.00  8.8670840E-01
   7133.33  9.2268429E-01
   7133.67  9.6225037E-01
   7134.00  1.0065418E+00
   7134.33  1.0520932E+00
   7134.67  1.0898881E+00
   7135.00  1.1104137E+00
   7135.33  1.1027223E+00
   7135.67  1.0698277E+00
   7136.00  1.0171623E+00
   7136.33  9.5194991E-01
   7136.67  8.8315521E-01
   7137.00  8.1535866E-01
   7137.33  7.5235738E-01
   7137.67  6.9530843E-01
   7138.00  6.4492625E-01
   7138.33  6.0252296E-01
   7138.67  5.6746843E-01
   7139.00  5.3993894E-01
   7139.33  5.2101767E-01
   7139.67  5.0964549E-01
   7140.00  5.0536197E-01
   7140.33  5.0767126E-01
   7140.67  5.1377174E-01
   7141.00  5.2141840E-01
   7141.33  5.2795980E-01
   7141.67  5.3188638E-01
   7142.00  5.3288918E-01
   7142.33  5.3143918E-01
   7142.67  5.2914501E-01
   7143.00  5.2715635E-01
   7143.33  5.2664928E-01
   7143.67  5.2800331E-01
   7144.00  5.3131407E-01
   7144.33  5.3651825E-01
   7144.67  5.4278556E-01
   7145.00  5.4938339E-01
   7145.33  5.5528156E-01
   7145.67  5.5968141E-01
   7146.00  5.6203661E-01
   7146.33  5.6177459E-01
   7146.67  5.5930150E-01
   7147.00  5.5497212E-01
   7147.33  5.4920884E-01
   7147.67  5.4278010E-01
   7148.00  5.3612895E-01
   7148.33  5.2967577E-01
   7148.67  5.2368742E-01
   7149.00  5.1833310E-01
   7149.33  5.1382640E-01
   7149.67  5.1012732E-01
   7150.00  5.0724556E-01
   7150.33  5.0526979E-01
   7150.67  5.0406984E-01
   7151.00  5.0360358E-01
   7151.33  5.0389314E-01
   7151.67  5.0478836E-01
   7152.00  5.0623797E-01
   7152.33  5.0824970E-01
   7152.67  5.1071006E-01
   7153.00  5.1357906E-01
   7153.33  5.1686233E-01
   7153.67  5.2048175E-01
   7154.00  5.2441731E-01
   7154.33  5.2869271E-01
   7154.67  5.3326477E-01
   7155.00  5.3813315E-01
   7155.33  5.4333386E-01
   7155.67  5.4881785E-01
   7156.00  5.5456035E-01
   7156.33  5.6054388E-01
   7156.67  5.6668216E-01
   7157.00  5.7291414E-01
   7157.33  5.7916416E-01
   7157.67  5.8534990E-01
   7158.00  5.9140264E-01
   7158.33  5.9721786E-01
   7158.67  6.0274531E-01
   7159.00  6.0791911E-01
   7159.33  6.1260792E-01
   7159.67  6.1678829E-01
   7160.00  6.2039394E-01
   7160.33  6.2326726E-01
   7160.67  6.2541697E-01
   7161.00  6.2678602E-01
   7161.33  6.2721250E-01
   7161.67  6.2675692E-01
   7162.00  6.2539330E-01
   7162.33  6.2299102E-01
   7162.67  6.1966662E-01
   7163.00  6.1543243E-01
   7163.33  6.1020294E-01
   7163.67  6.0412904E-01
   7164.00  5.9725674E-01
   7164.33  5.8955854E-01
   7164.67  5.8120053E-01
   7165.00  5.7225330E-01
   7165.33  5.6274192E-01
   7165.67  5.5282150E-01
   7166.00  5.4257568E-01
   7166.33  5.3207635E-01
   7166.67  5.2145338E-01
   7167.00  5.1079510E-01
   7167.33  5.0020999E-01
   7167.67  4.8978598E-01
   7168.00  4.7960167E-01
   7168.33  4.6978058E-01
   7168.67  4.6035556E-01
   7169.00  4.5138233E-01
   7169.33  4.4298154E-01
   7169.67  4.3513924E-01
   7170.00  4.2788928E-01
   7170.33  4.2133552E-01
   7170.67  4.1541971E-01
   7171.00  4.1015809E-01
   7171.33  4.0566074E-01
   7171.67  4.0189190E-01
   7172.00  3.9892030E-01
