    FDMNES
    energy     <xanes>
   7097.00  5.4149641E-03
   7097.33  5.5560002E-03
   7097.67  5.7039861E-03
   7098.00  5.8594165E-03
   7098.33  6.0239394E-03
   7098.67  6.1972565E-03
   7099.00  6.3800455E-03
   7099.33  6.5744809E-03
   7099.67  6.7802600E-03
   7100.00  6.9983342E-03
   7100.33  7.2316440E-03
   7100.67  7.4799150E-03
   7101.00  7.7445219E-03
   7101.33  8.0295558E-03
   7101.67  8.3348424E-03
   7102.00  8.6624358E-03
   7102.33  9.0182235E-03
   7102.67  9.4022866E-03
   7103.00  9.8178187E-03
   7103.33  1.0273644E-02
   7103.67  1.0770441E-02
   7104.00  1.1313422E-02
   7104.33  1.1916482E-02
   7104.67  1.2581693E-02
   7105.00  1.3318076E-02
   7105.33  1.4148920E-02
   7105.67  1.5079639E-02
   7106.00  1.6127086E-02
   7106.33  1.7333550E-02
   7106.67  1.8713075E-02
   7107.00  2.0300466E-02
   7107.33  2.2181310E-02
   7107.67  2.4394667E-02
   7108.00  2.7023312E-02
   7108.33  3.0269740E-02
   7108.67  3.4260423E-02
   7109.00  3.9239539E-02
   7109.33  4.5821544E-02
   7109.67  5.4551088E-02
   7110.00  6.6465112E-02
   7110.33  8.4375450E-02
   7110.67  1.1125726E-01
   7111.00  1.5050500E-01
   7111.33  2.0777635E-01
   7111.67  2.9455473E-01
   7112.00  4.2890335E-01
   7112.33  5.9098199E-01
   7112.67  6.9340658E-01
   7113.00  7.4269522E-01
   7113.33  7.6616913E-01
   7113.67  7.1946042E-01
   7114.00  6.0265505E-01
   7114.33  4.7944452E-01
   7114.67  3.8435655E-01
   7115.00  3.1648673E-01
   7115.33  2.7016718E-01
   7115.67  2.3682965E-01
   7116.00  2.1328781E-01
   7116.33  1.9854803E-01
   7116.67  1.9052501E-01
   7117.00  1.8756310E-01
   7117.33  1.8596864E-01
   7117.67  1.8178136E-01
   7118.00  1.7425457E-01
   7118.33  1.6503496E-01
   7118.67  1.5636338E-01
   7119.00  1.4897552E-01
   7119.33  1.4320010E-01
   7119.67  1.3872695E-01
   7120.00  1.3511971E-01
   7120.33  1.3182360E-01
   7120.67  1.2876178E-01
   7121.00  1.2619129E-01
   7121.33  1.2396813E-01
   7121.67  1.2158138E-01
   7122.00  1.1923418E-01
   7122.33  1.1768598E-01
   7122.67  1.1704214E-01
   7123.00  1.1720138E-01
   7123.33  1.1824451E-01
   7123.67  1.2023647E-01
   7124.00  1.2339694E-01
   7124.33  1.2812960E-01
   7124.67  1.3432479E-01
   7125.00  1.4183557E-01
   7125.33  1.5044642E-01
   7125.67  1.5978879E-01
   7126.00  1.6997135E-01
   7126.33  1.8183474E-01
   7126.67  1.9628637E-01
   7127.00  2.1429062E-01
   7127.33  2.3714904E-01
   7127.67  2.6454471E-01
   7128.00  2.9622201E-01
   7128.33  3.3182700E-01
   7128.67  3.6989031E-01
   7129.00  4.0959732E-01
   7129.33  4.5019934E-01
   7129.67  4.9068643E-01
   7130.00  5.3023220E-01
   7130.33  5.6791880E-01
   7130.67  6.0367692E-01
   7131.00  6.3754706E-01
   7131.33  6.6955762E-01
   7131.67  7.0029326E-01
   7132.00  7.3012816E-01
   7132.33  7.5927782E-01
   7132.67  7.8764665E-01
   7133.00  8.1449046E-01
   7133.33  8.3774294E-01
   7133.67  8.5543291E-01
   7134.00  8.6523053E-01
   7134.33  8.6339476E-01
   7134.67  8.5011289E-01
   7135.00  8.2602659E-01
   7135.33  7.9233016E-01
   7135.67  7.5316444E-01
   7136.00  7.1122535E-01
   7136.33  6.6929798E-01
   7136.67  6.2961277E-01
   7137.00  5.9363165E-01
   7137.33  5.6317835E-01
   7137.67  5.3833143E-01
   7138.00  5.1925490E-01
   7138.33  5.0628257E-01
   7138.67  4.9784590E-01
   7139.00  4.9286630E-01
   7139.33  4.9027364E-01
   7139.67  4.8875829E-01
   7140.00  4.8789073E-01
   7140.33  4.8785402E-01
   7140.67  4.8906494E-01
   7141.00  4.9201954E-01
   7141.33  4.9735512E-01
   7141.67  5.0485546E-01
   7142.00  5.1432303E-01
   7142.33  5.2552635E-01
   7142.67  5.3773320E-01
   7143.00  5.5044931E-01
   7143.33  5.6310801E-01
   7143.67  5.7521222E-01
   7144.00  5.8639972E-01
   7144.33  5.9619685E-01
   7144.67  6.0456240E-01
   7145.00  6.1142912E-01
   7145.33  6.1664428E-01
   7145.67  6.2052104E-01
   7146.00  6.2323149E-01
   7146.33  6.2490978E-01
   7146.67  6.2594781E-01
   7147.00  6.2658943E-01
   7147.33  6.2709593E-01
   7147.67  6.2773897E-01
   7148.00  6.2871666E-01
   7148.33  6.3027802E-01
   7148.67  6.3247400E-01
   7149.00  6.3536309E-01
   7149.33  6.3907170E-01
   7149.67  6.4350736E-01
   7150.00  6.4863724E-01
   7150.33  6.5447125E-01
   7150.67  6.6083624E-01
   7151.00  6.6763618E-01
   7151.33  6.7479264E-01
   7151.67  6.8214946E-01
   7152.00  6.8961191E-01
   7152.33  6.9707819E-01
   7152.67  7.0445286E-01
   7153.00  7.1165656E-01
   7153.33  7.1856130E-01
   7153.67  7.2510314E-01
   7154.00  7.3119530E-01
   7154.33  7.3665915E-01
   7154.67  7.4144616E-01
   7155.00  7.4544866E-01
   7155.33  7.4842293E-01
   7155.67  7.5035447E-01
   7156.00  7.5113828E-01
   7156.33  7.5050594E-01
   7156.67  7.4852002E-01
   7157.00  7.4511892E-01
   7157.33  7.4008107E-01
   7157.67  7.3358730E-01
   7158.00  7.2566788E-01
   7158.33  7.1622418E-01
   7158.67  7.0553342E-01
   7159.00  6.9371535E-01
   7159.33  6.8081432E-01
   7159.67  6.6713536E-01
   7160.00  6.5284788E-01
   7160.33  6.3810477E-01
   7160.67  6.2316132E-01
   7161.00  6.0818390E-01
   7161.33  5.9336025E-01
   7161.67  5.7881705E-01
   7162.00  5.6465585E-01
   7162.33  5.5102692E-01
   7162.67  5.3793297E-01
   7163.00  5.2540646E-01
   7163.33  5.1353772E-01
   7163.67  5.0225519E-01
   7164.00  4.9155305E-01
   7164.33  4.8149033E-01
   7164.67  4.7198069E-01
   7165.00  4.6301000E-01
   7165.33  4.5462625E-01
   7165.67  4.4674704E-01
   7166.00  4.3935733E-01
   7166.33  4.3249700E-01
   7166.67  4.2608820E-01
   7167.00  4.2011323E-01
   7167.33  4.1459747E-01
   7167.67  4.0946203E-01
   7168.00  4.0468355E-01
   7168.33  4.0027445E-01
   7168.67  3.9616722E-01
   7169.00  3.9234165E-01
   7169.33  3.8880679E-01
   7169.67  3.8550840E-01
   7170.00  3.8242998E-01
   7170.33  3.7958075E-01
   7170.67  3.7692373E-01
   7171.00  3.7445702E-01
   7171.33  3.7222324E-01
   7171.67  3.7025065E-01
   7172.00  3.6862205E-01
