    FDMNES
    energy     <xanes>
   7097.00  4.8978063E-03
   7097.33  5.0173994E-03
   7097.67  5.1428431E-03
   7098.00  5.2745660E-03
   7098.33  5.4139772E-03
   7098.67  5.5608451E-03
   7099.00  5.7157651E-03
   7099.33  5.8806190E-03
   7099.67  6.0551844E-03
   7100.00  6.2403121E-03
   7100.33  6.4385861E-03
   7100.67  6.6498324E-03
   7101.00  6.8753072E-03
   7101.33  7.1186768E-03
   7101.67  7.3799011E-03
   7102.00  7.6609073E-03
   7102.33  7.9671052E-03
   7102.67  8.2987764E-03
   7103.00  8.6590169E-03
   7103.33  9.0561981E-03
   7103.67  9.4913504E-03
   7104.00  9.9697360E-03
   7104.33  1.0505095E-02
   7104.67  1.1100236E-02
   7105.00  1.1764761E-02
   7105.33  1.2522972E-02
   7105.67  1.3382156E-02
   7106.00  1.4361509E-02
   7106.33  1.5508474E-02
   7106.67  1.6842746E-02
   7107.00  1.8407776E-02
   7107.33  2.0309644E-02
   7107.67  2.2608022E-02
   7108.00  2.5420313E-02
   7108.33  2.9036142E-02
   7108.67  3.3677804E-02
   7109.00  3.9762140E-02
   7109.33  4.8376538E-02
   7109.67  6.0705361E-02
   7110.00  7.9045940E-02
   7110.33  1.0997759E-01
   7110.67  1.6113588E-01
   7111.00  2.3839682E-01
   7111.33  3.3500895E-01
   7111.67  4.3551909E-01
   7112.00  5.0825449E-01
   7112.33  4.9622069E-01
   7112.67  4.3285145E-01
   7113.00  3.6867818E-01
   7113.33  3.4120858E-01
   7113.67  3.3967399E-01
   7114.00  3.2672373E-01
   7114.33  2.6997026E-01
   7114.67  2.0747595E-01
   7115.00  1.6218735E-01
   7115.33  1.3690981E-01
   7115.67  1.2243604E-01
   7116.00  1.1339591E-01
   7116.33  1.0656902E-01
   7116.67  9.8915609E-02
   7117.00  9.0631339E-02
   7117.33  8.5013547E-02
   7117.67  8.2856299E-02
   7118.00  8.3420954E-02
   7118.33  8.5375808E-02
   7118.67  8.7702628E-02
   7119.00  9.0440354E-02
   7119.33  9.3683937E-02
   7119.67  9.7135762E-02
   7120.00  1.0065067E-01
   7120.33  1.0416987E-01
   7120.67  1.0776198E-01
   7121.00  1.1169624E-01
   7121.33  1.1641136E-01
   7121.67  1.2206759E-01
   7122.00  1.2857130E-01
   7122.33  1.3547756E-01
   7122.67  1.4292849E-01
   7123.00  1.5198111E-01
   7123.33  1.6405603E-01
   7123.67  1.7919961E-01
   7124.00  1.9741844E-01
   7124.33  2.1864849E-01
   7124.67  2.4145328E-01
   7125.00  2.6463073E-01
   7125.33  2.8687143E-01
   7125.67  3.0675087E-01
   7126.00  3.2255079E-01
   7126.33  3.3251637E-01
   7126.67  3.3814015E-01
   7127.00  3.4120450E-01
   7127.33  3.4398155E-01
   7127.67  3.4833480E-01
   7128.00  3.5491974E-01
   7128.33  3.6344335E-01
   7128.67  3.7252182E-01
   7129.00  3.8139390E-01
   7129.33  3.8974596E-01
   7129.67  3.9779672E-01
   7130.00  4.0576519E-01
   7130.33  4.1393794E-01
   7130.67  4.2253902E-01
   7131.00  4.3166297E-01
   7131.33  4.4117614E-01
   7131.67  4.5058417E-01
   7132.00  4.5949493E-01
   7132.33  4.6759550E-01
   7132.67  4.7500087E-01
   7133.00  4.8175496E-01
   7133.33  4.8762440E-01
   7133.67  4.9235746E-01
   7134.00  4.9562664E-01
   7134.33  4.9711576E-01
   7134.67  4.9734628E-01
   7135.00  4.9682548E-01
   7135.33  4.9611394E-01
   7135.67  4.9566585E-01
   7136.00  4.9575085E-01
   7136.33  4.9672468E-01
   7136.67  4.9868697E-01
   7137.00  5.0173242E-01
   7137.33  5.0601672E-01
   7137.67  5.1137808E-01
   7138.00  5.1782315E-01
   7138.33  5.2557677E-01
   7138.67  5.3463342E-01
   7139.00  5.4511704E-01
   7139.33  5.5730514E-01
   7139.67  5.7099677E-01
   7140.00  5.8609801E-01
   7140.33  6.0256955E-01
   7140.67  6.1998877E-01
   7141.00  6.3805801E-01
   7141.33  6.5637128E-01
   7141.67  6.7437822E-01
   7142.00  6.9158855E-01
   7142.33  7.0729948E-01
   7142.67  7.2128730E-01
   7143.00  7.3340311E-01
   7143.33  7.4348397E-01
   7143.67  7.5201294E-01
   7144.00  7.5928433E-01
   7144.33  7.6552295E-01
   7144.67  7.7110956E-01
   7145.00  7.7618740E-01
   7145.33  7.8081570E-01
   7145.67  7.8513317E-01
   7146.00  7.8920537E-01
   7146.33  7.9305869E-01
   7146.67  7.9671597E-01
   7147.00  8.0013905E-01
   7147.33  8.0320675E-01
   7147.67  8.0582580E-01
   7148.00  8.0784267E-01
   7148.33  8.0894921E-01
   7148.67  8.0904189E-01
   7149.00  8.0797034E-01
   7149.33  8.0544062E-01
   7149.67  8.0152933E-01
   7150.00  7.9620519E-01
   7150.33  7.8931740E-01
   7150.67  7.8112359E-01
   7151.00  7.7173325E-01
   7151.33  7.6118194E-01
   7151.67  7.4979437E-01
   7152.00  7.3775583E-01
   7152.33  7.2524617E-01
   7152.67  7.1255403E-01
   7153.00  6.9986952E-01
   7153.33  6.8741538E-01
   7153.67  6.7533538E-01
   7154.00  6.6375338E-01
   7154.33  6.5286714E-01
   7154.67  6.4269786E-01
   7155.00  6.3331560E-01
   7155.33  6.2489322E-01
   7155.67  6.1737497E-01
   7156.00  6.1079236E-01
   7156.33  6.0528576E-01
   7156.67  6.0073864E-01
   7157.00  5.9713688E-01
   7157.33  5.9455077E-01
   7157.67  5.9278910E-01
   7158.00  5.9175012E-01
   7158.33  5.9134015E-01
   7158.67  5.9127874E-01
   7159.00  5.9135588E-01
   7159.33  5.9129551E-01
   7159.67  5.9085467E-01
   7160.00  5.8983370E-01
   7160.33  5.8795779E-01
   7160.67  5.8522043E-01
   7161.00  5.8160084E-01
   7161.33  5.7703936E-01
   7161.67  5.7174315E-01
   7162.00  5.6582923E-01
   7162.33  5.5939245E-01
   7162.67  5.5265228E-01
   7163.00  5.4574028E-01
   7163.33  5.3878447E-01
   7163.67  5.3190092E-01
   7164.00  5.2516766E-01
   7164.33  5.1868320E-01
   7164.67  5.1247139E-01
   7165.00  5.0656252E-01
   7165.33  5.0101731E-01
   7165.67  4.9580204E-01
   7166.00  4.9091365E-01
   7166.33  4.8637902E-01
   7166.67  4.8213944E-01
   7167.00  4.7817805E-01
   7167.33  4.7451303E-01
   7167.67  4.7109074E-01
   7168.00  4.6788708E-01
   7168.33  4.6490313E-01
   7168.67  4.6209654E-01
   7169.00  4.5945376E-01
   7169.33  4.5697921E-01
   7169.67  4.5464252E-01
   7170.00  4.5243691E-01
   7170.33  4.5037513E-01
   7170.67  4.4844479E-01
   7171.00  4.4665642E-01
   7171.33  4.4505544E-01
   7171.67  4.4366526E-01
   7172.00  4.4253807E-01
