    FDMNES
    energy     <xanes>
   7097.00  5.2163194E-03
   7097.33  5.3375484E-03
   7097.67  5.4641984E-03
   7098.00  5.5966296E-03
   7098.33  5.7360853E-03
   7098.67  5.8822989E-03
   7099.00  6.0357579E-03
   7099.33  6.1980776E-03
   7099.67  6.3689807E-03
   7100.00  6.5491433E-03
   7100.33  6.7407164E-03
   7100.67  6.9434326E-03
   7101.00  7.1582578E-03
   7101.33  7.3881403E-03
   7101.67  7.6328694E-03
   7102.00  7.8938736E-03
   7102.33  8.1753372E-03
   7102.67  8.4772097E-03
   7103.00  8.8016947E-03
   7103.33  9.1549867E-03
   7103.67  9.5374304E-03
   7104.00  9.9526041E-03
   7104.33  1.0410176E-02
   7104.67  1.0911440E-02
   7105.00  1.1462597E-02
   7105.33  1.2079793E-02
   7105.67  1.2766682E-02
   7106.00  1.3534959E-02
   7106.33  1.4414135E-02
   7106.67  1.5414221E-02
   7107.00  1.6559984E-02
   7107.33  1.7912626E-02
   7107.67  1.9501813E-02
   7108.00  2.1389654E-02
   7108.33  2.3729624E-02
   7108.67  2.6627567E-02
   7109.00  3.0286981E-02
   7109.33  3.5234338E-02
   7109.67  4.2005282E-02
   7110.00  5.1641456E-02
   7110.33  6.7092539E-02
   7110.67  9.1643756E-02
   7111.00  1.2769293E-01
   7111.33  1.7161223E-01
   7111.67  2.1805442E-01
   7112.00  2.6611600E-01
   7112.33  3.0295941E-01
   7112.67  3.1959132E-01
   7113.00  3.2877934E-01
   7113.33  3.5277942E-01
   7113.67  3.8609583E-01
   7114.00  4.0749756E-01
   7114.33  4.0182914E-01
   7114.67  3.7962925E-01
   7115.00  3.5022663E-01
   7115.33  3.2415933E-01
   7115.67  3.0775062E-01
   7116.00  3.0231680E-01
   7116.33  3.0414090E-01
   7116.67  3.0090026E-01
   7117.00  2.8300547E-01
   7117.33  2.5081168E-01
   7117.67  2.1760572E-01
   7118.00  1.9014046E-01
   7118.33  1.7079291E-01
   7118.67  1.5710086E-01
   7119.00  1.4740958E-01
   7119.33  1.4059426E-01
   7119.67  1.3553432E-01
   7120.00  1.3190892E-01
   7120.33  1.2966399E-01
   7120.67  1.2846001E-01
   7121.00  1.2816864E-01
   7121.33  1.2905007E-01
   7121.67  1.3151552E-01
   7122.00  1.3609071E-01
   7122.33  1.4341728E-01
   7122.67  1.5323206E-01
   7123.00  1.6547464E-01
   7123.33  1.8035926E-01
   7123.67  1.9750647E-01
   7124.00  2.1681809E-01
   7124.33  2.3838713E-01
   7124.67  2.6173598E-01
   7125.00  2.8658178E-01
   7125.33  3.1253512E-01
   7125.67  3.3863762E-01
   7126.00  3.6391133E-01
   7126.33  3.8713243E-01
   7126.67  4.0829263E-01
   7127.00  4.2770994E-01
   7127.33  4.4572464E-01
   7127.67  4.6295756E-01
   7128.00  4.7977674E-01
   7128.33  4.9670172E-01
   7128.67  5.1436166E-01
   7129.00  5.3333635E-01
   7129.33  5.5453055E-01
   7129.67  5.7813243E-01
   7130.00  6.0412479E-01
   7130.33  6.3212260E-01
   7130.67  6.6078018E-01
   7131.00  6.8899267E-01
   7131.33  7.1554323E-01
   7131.67  7.4019374E-01
   7132.00  7.6316241E-01
   7132.33  7.8512247E-01
   7132.67  8.0717369E-01
   7133.00  8.2995352E-01
   7133.33  8.5360888E-01
   7133.67  8.7699255E-01
   7134.00  8.9823124E-01
   7134.33  9.1364382E-01
   7134.67  9.2070363E-01
   7135.00  9.1739966E-01
   7135.33  9.0163854E-01
   7135.67  8.7602382E-01
   7136.00  8.4274967E-01
   7136.33  8.0432947E-01
   7136.67  7.6426708E-01
   7137.00  7.2463440E-01
   7137.33  6.8752740E-01
   7137.67  6.5391722E-01
   7138.00  6.2451112E-01
   7138.33  6.0034060E-01
   7138.67  5.8088337E-01
   7139.00  5.6588549E-01
   7139.33  5.5523673E-01
   7139.67  5.4767442E-01
   7140.00  5.4249268E-01
   7140.33  5.3912986E-01
   7140.67  5.3674873E-01
   7141.00  5.3492530E-01
   7141.33  5.3331413E-01
   7141.67  5.3162142E-01
   7142.00  5.2966525E-01
   7142.33  5.2721699E-01
   7142.67  5.2420073E-01
   7143.00  5.2055177E-01
   7143.33  5.1618387E-01
   7143.67  5.1124560E-01
   7144.00  5.0584431E-01
   7144.33  5.0009958E-01
   7144.67  4.9421918E-01
   7145.00  4.8834542E-01
   7145.33  4.8265325E-01
   7145.67  4.7725402E-01
   7146.00  4.7222466E-01
   7146.33  4.6767551E-01
   7146.67  4.6360591E-01
   7147.00  4.6006505E-01
   7147.33  4.5718595E-01
   7147.67  4.5495439E-01
   7148.00  4.5341965E-01
   7148.33  4.5272858E-01
   7148.67  4.5283307E-01
   7149.00  4.5376385E-01
   7149.33  4.5565009E-01
   7149.67  4.5838938E-01
   7150.00  4.6196159E-01
   7150.33  4.6641805E-01
   7150.67  4.7159659E-01
   7151.00  4.7742435E-01
   7151.33  4.8386211E-01
   7151.67  4.9071489E-01
   7152.00  4.9786195E-01
   7152.33  5.0517504E-01
   7152.67  5.1249064E-01
   7153.00  5.1969188E-01
   7153.33  5.2662638E-01
   7153.67  5.3321647E-01
   7154.00  5.3938706E-01
   7154.33  5.4501579E-01
   7154.67  5.5012629E-01
   7155.00  5.5470403E-01
   7155.33  5.5868094E-01
   7155.67  5.6213444E-01
   7156.00  5.6507956E-01
   7156.33  5.6747677E-01
   7156.67  5.6941021E-01
   7157.00  5.7090032E-01
   7157.33  5.7191872E-01
   7157.67  5.7254193E-01
   7158.00  5.7279046E-01
   7158.33  5.7264458E-01
   7158.67  5.7217286E-01
   7159.00  5.7139743E-01
   7159.33  5.7031378E-01
   7159.67  5.6899531E-01
   7160.00  5.6747738E-01
   7160.33  5.6577867E-01
   7160.67  5.6395751E-01
   7161.00  5.6204613E-01
   7161.33  5.6007878E-01
   7161.67  5.5810441E-01
   7162.00  5.5615785E-01
   7162.33  5.5428141E-01
   7162.67  5.5249249E-01
   7163.00  5.5080420E-01
   7163.33  5.4923723E-01
   7163.67  5.4777790E-01
   7164.00  5.4641800E-01
   7164.33  5.4514702E-01
   7164.67  5.4392537E-01
   7165.00  5.4272290E-01
   7165.33  5.4149862E-01
   7165.67  5.4021559E-01
   7166.00  5.3884231E-01
   7166.33  5.3733164E-01
   7166.67  5.3567281E-01
   7167.00  5.3384924E-01
   7167.33  5.3182813E-01
   7167.67  5.2963021E-01
   7168.00  5.2726133E-01
   7168.33  5.2471673E-01
   7168.67  5.2204125E-01
   7169.00  5.1926022E-01
   7169.33  5.1639449E-01
   7169.67  5.1348774E-01
   7170.00  5.1057183E-01
   7170.33  5.0769032E-01
   7170.67  5.0488362E-01
   7171.00  5.0219624E-01
   7171.33  4.9972024E-01
   7171.67  4.9753697E-01
   7172.00  4.9577167E-01
