    FDMNES
    energy     <xanes>
   7097.00  4.3720304E-03
   7097.33  4.4616051E-03
   7097.67  4.5546654E-03
   7098.00  4.6514213E-03
   7098.33  4.7526366E-03
   7098.67  4.8581134E-03
   7099.00  4.9681324E-03
   7099.33  5.0836696E-03
   7099.67  5.2045174E-03
   7100.00  5.3310627E-03
   7100.33  5.4645857E-03
   7100.67  5.6048822E-03
   7101.00  5.7525037E-03
   7101.33  5.9091854E-03
   7101.67  6.0747567E-03
   7102.00  6.2500365E-03
   7102.33  6.4374738E-03
   7102.67  6.6370005E-03
   7103.00  6.8498949E-03
   7103.33  7.0797932E-03
   7103.67  7.3268916E-03
   7104.00  7.5933130E-03
   7104.33  7.8848158E-03
   7104.67  8.2022593E-03
   7105.00  8.5494581E-03
   7105.33  8.9363257E-03
   7105.67  9.3654550E-03
   7106.00  9.8444393E-03
   7106.33  1.0392354E-02
   7106.67  1.1016773E-02
   7107.00  1.1735054E-02
   7107.33  1.2590023E-02
   7107.67  1.3605996E-02
   7108.00  1.4831347E-02
   7108.33  1.6386664E-02
   7108.67  1.8368694E-02
   7109.00  2.0960268E-02
   7109.33  2.4647710E-02
   7109.67  2.9996402E-02
   7110.00  3.8118234E-02
   7110.33  5.2200638E-02
   7110.67  7.5299695E-02
   7111.00  1.0661183E-01
   7111.33  1.3635651E-01
   7111.67  1.6021514E-01
   7112.00  1.6713417E-01
   7112.33  1.5385345E-01
   7112.67  1.3959073E-01
   7113.00  1.3011417E-01
   7113.33  1.2434824E-01
   7113.67  1.1897389E-01
   7114.00  1.0908019E-01
   7114.33  9.1861982E-02
   7114.67  7.6817857E-02
   7115.00  6.7383245E-02
   7115.33  6.2874084E-02
   7115.67  6.0858970E-02
   7116.00  6.0251738E-02
   7116.33  6.1043366E-02
   7116.67  6.3531487E-02
   7117.00  6.7883794E-02
   7117.33  7.4173186E-02
   7117.67  8.1764711E-02
   7118.00  9.0295935E-02
   7118.33  1.0000986E-01
   7118.67  1.1126079E-01
   7119.00  1.2425398E-01
   7119.33  1.3919368E-01
   7119.67  1.5574757E-01
   7120.00  1.7374255E-01
   7120.33  1.9385433E-01
   7120.67  2.1753176E-01
   7121.00  2.4559165E-01
   7121.33  2.7636729E-01
   7121.67  3.0651355E-01
   7122.00  3.3510136E-01
   7122.33  3.6294581E-01
   7122.67  3.9138814E-01
   7123.00  4.2050293E-01
   7123.33  4.4829970E-01
   7123.67  4.7200760E-01
   7124.00  4.9064227E-01
   7124.33  5.0518128E-01
   7124.67  5.1696424E-01
   7125.00  5.2541076E-01
   7125.33  5.3200894E-01
   7125.67  5.4009587E-01
   7126.00  5.4898693E-01
   7126.33  5.5633028E-01
   7126.67  5.6505941E-01
   7127.00  5.7917538E-01
   7127.33  6.0015859E-01
   7127.67  6.2399334E-01
   7128.00  6.4689531E-01
   7128.33  6.6488684E-01
   7128.67  6.7685695E-01
   7129.00  6.8258531E-01
   7129.33  6.8206219E-01
   7129.67  6.7730326E-01
   7130.00  6.6967755E-01
   7130.33  6.6050959E-01
   7130.67  6.5096321E-01
   7131.00  6.4142337E-01
   7131.33  6.3236633E-01
   7131.67  6.2464076E-01
   7132.00  6.1906923E-01
   7132.33  6.1618486E-01
   7132.67  6.1534181E-01
   7133.00  6.1639101E-01
   7133.33  6.1970286E-01
   7133.67  6.2494307E-01
   7134.00  6.3172782E-01
   7134.33  6.3970189E-01
   7134.67  6.4848158E-01
   7135.00  6.5805460E-01
   7135.33  6.6860109E-01
   7135.67  6.7999061E-01
   7136.00  6.9203961E-01
   7136.33  7.0438853E-01
   7136.67  7.1648874E-01
   7137.00  7.2782372E-01
   7137.33  7.3747991E-01
   7137.67  7.4474459E-01
   7138.00  7.4873630E-01
   7138.33  7.4789338E-01
   7138.67  7.4193853E-01
   7139.00  7.3051729E-01
   7139.33  7.1311269E-01
   7139.67  6.9115419E-01
   7140.00  6.6568564E-01
   7140.33  6.3789767E-01
   7140.67  6.0950187E-01
   7141.00  5.8158617E-01
   7141.33  5.5527502E-01
   7141.67  5.3098049E-01
   7142.00  5.0898590E-01
   7142.33  4.8973359E-01
   7142.67  4.7291111E-01
   7143.00  4.5843997E-01
   7143.33  4.4646213E-01
   7143.67  4.3655083E-01
   7144.00  4.2858362E-01
   7144.33  4.2266288E-01
   7144.67  4.1846002E-01
   7145.00  4.1590504E-01
   7145.33  4.1512162E-01
   7145.67  4.1583065E-01
   7146.00  4.1793205E-01
   7146.33  4.2138895E-01
   7146.67  4.2574941E-01
   7147.00  4.3064932E-01
   7147.33  4.3557663E-01
   7147.67  4.4001079E-01
   7148.00  4.4360115E-01
   7148.33  4.4601200E-01
   7148.67  4.4740375E-01
   7149.00  4.4793625E-01
   7149.33  4.4778820E-01
   7149.67  4.4729892E-01
   7150.00  4.4666842E-01
   7150.33  4.4608581E-01
   7150.67  4.4568455E-01
   7151.00  4.4555235E-01
   7151.33  4.4579327E-01
   7151.67  4.4638201E-01
   7152.00  4.4729254E-01
   7152.33  4.4847824E-01
   7152.67  4.4978592E-01
   7153.00  4.5108286E-01
   7153.33  4.5217607E-01
   7153.67  4.5292156E-01
   7154.00  4.5319490E-01
   7154.33  4.5281483E-01
   7154.67  4.5179416E-01
   7155.00  4.5012484E-01
   7155.33  4.4777222E-01
   7155.67  4.4490291E-01
   7156.00  4.4162616E-01
   7156.33  4.3805675E-01
   7156.67  4.3437045E-01
   7157.00  4.3066599E-01
   7157.33  4.2702393E-01
   7157.67  4.2346582E-01
   7158.00  4.1998565E-01
   7158.33  4.1656177E-01
   7158.67  4.1315911E-01
   7159.00  4.0976777E-01
   7159.33  4.0640645E-01
   7159.67  4.0311571E-01
   7160.00  3.9994967E-01
   7160.33  3.9700650E-01
   7160.67  3.9433637E-01
   7161.00  3.9199733E-01
   7161.33  3.9009747E-01
   7161.67  3.8863965E-01
   7162.00  3.8766131E-01
   7162.33  3.8725815E-01
   7162.67  3.8738329E-01
   7163.00  3.8803868E-01
   7163.33  3.8926854E-01
   7163.67  3.9096236E-01
   7164.00  3.9305989E-01
   7164.33  3.9551003E-01
   7164.67  3.9816738E-01
   7165.00  4.0093358E-01
   7165.33  4.0369219E-01
   7165.67  4.0633519E-01
   7166.00  4.0877951E-01
   7166.33  4.1091277E-01
   7166.67  4.1272054E-01
   7167.00  4.1418852E-01
   7167.33  4.1529496E-01
   7167.67  4.1613569E-01
   7168.00  4.1678507E-01
   7168.33  4.1734359E-01
   7168.67  4.1794598E-01
   7169.00  4.1869951E-01
   7169.33  4.1974945E-01
   7169.67  4.2114868E-01
   7170.00  4.2294108E-01
   7170.33  4.2518638E-01
   7170.67  4.2779343E-01
   7171.00  4.3068216E-01
   7171.33  4.3370876E-01
   7171.67  4.3659815E-01
   7172.00  4.3903924E-01
