    FDMNES
    energy     <xanes>
   7097.00  5.0335407E-03
   7097.33  5.1488914E-03
   7097.67  5.2693575E-03
   7098.00  5.3952775E-03
   7098.33  5.5278218E-03
   7098.67  5.6667369E-03
   7099.00  5.8124805E-03
   7099.33  5.9665719E-03
   7099.67  6.1287474E-03
   7100.00  6.2996412E-03
   7100.33  6.4812755E-03
   7100.67  6.6733954E-03
   7101.00  6.8769074E-03
   7101.33  7.0945821E-03
   7101.67  7.3262187E-03
   7102.00  7.5731593E-03
   7102.33  7.8393374E-03
   7102.67  8.1247069E-03
   7103.00  8.4313433E-03
   7103.33  8.7650812E-03
   7103.67  9.1262599E-03
   7104.00  9.5182678E-03
   7104.33  9.9502543E-03
   7104.67  1.0423501E-02
   7105.00  1.0943940E-02
   7105.33  1.1527004E-02
   7105.67  1.2176376E-02
   7106.00  1.2903464E-02
   7106.33  1.3737022E-02
   7106.67  1.4687480E-02
   7107.00  1.5779859E-02
   7107.33  1.7076082E-02
   7107.67  1.8608832E-02
   7108.00  2.0445023E-02
   7108.33  2.2751739E-02
   7108.67  2.5657554E-02
   7109.00  2.9409125E-02
   7109.33  3.4665283E-02
   7109.67  4.2189545E-02
   7110.00  5.3493717E-02
   7110.33  7.2824738E-02
   7110.67  1.0303061E-01
   7111.00  1.3784470E-01
   7111.33  1.6397021E-01
   7111.67  1.9465686E-01
   7112.00  2.1106860E-01
   7112.33  2.0540736E-01
   7112.67  2.1257498E-01
   7113.00  2.3565386E-01
   7113.33  2.7204363E-01
   7113.67  3.0612867E-01
   7114.00  3.2630984E-01
   7114.33  3.5334472E-01
   7114.67  3.9012766E-01
   7115.00  4.2481445E-01
   7115.33  4.6051423E-01
   7115.67  4.7485415E-01
   7116.00  4.4223507E-01
   7116.33  3.8107102E-01
   7116.67  3.2628296E-01
   7117.00  2.8660340E-01
   7117.33  2.6234756E-01
   7117.67  2.4692530E-01
   7118.00  2.3567715E-01
   7118.33  2.2376245E-01
   7118.67  2.0761420E-01
   7119.00  1.8727422E-01
   7119.33  1.6738340E-01
   7119.67  1.5152875E-01
   7120.00  1.4003916E-01
   7120.33  1.3242279E-01
   7120.67  1.2746538E-01
   7121.00  1.2453935E-01
   7121.33  1.2291141E-01
   7121.67  1.2166624E-01
   7122.00  1.2046689E-01
   7122.33  1.1929263E-01
   7122.67  1.1834540E-01
   7123.00  1.1800483E-01
   7123.33  1.1895727E-01
   7123.67  1.2130390E-01
   7124.00  1.2498085E-01
   7124.33  1.3002065E-01
   7124.67  1.3632311E-01
   7125.00  1.4418679E-01
   7125.33  1.5450709E-01
   7125.67  1.6753491E-01
   7126.00  1.8334238E-01
   7126.33  2.0227982E-01
   7126.67  2.2474377E-01
   7127.00  2.5196984E-01
   7127.33  2.8556633E-01
   7127.67  3.2378994E-01
   7128.00  3.6394343E-01
   7128.33  4.0058811E-01
   7128.67  4.2947818E-01
   7129.00  4.4933439E-01
   7129.33  4.6024668E-01
   7129.67  4.6620213E-01
   7130.00  4.7131901E-01
   7130.33  4.8107871E-01
   7130.67  4.9784484E-01
   7131.00  5.2190950E-01
   7131.33  5.5319871E-01
   7131.67  5.8992274E-01
   7132.00  6.3119772E-01
   7132.33  6.7603199E-01
   7132.67  7.2210332E-01
   7133.00  7.6741212E-01
   7133.33  8.0920146E-01
   7133.67  8.4599064E-01
   7134.00  8.7694044E-01
   7134.33  9.0138221E-01
   7134.67  9.2084512E-01
   7135.00  9.3603335E-01
   7135.33  9.4669447E-01
   7135.67  9.5344307E-01
   7136.00  9.5751107E-01
   7136.33  9.6197416E-01
   7136.67  9.6840858E-01
   7137.00  9.7422231E-01
   7137.33  9.7112566E-01
   7137.67  9.5311739E-01
   7138.00  9.1870808E-01
   7138.33  8.7064123E-01
   7138.67  8.1744674E-01
   7139.00  7.6434325E-01
   7139.33  7.1567973E-01
   7139.67  6.7277842E-01
   7140.00  6.3613526E-01
   7140.33  6.0641679E-01
   7140.67  5.8238383E-01
   7141.00  5.6348576E-01
   7141.33  5.4955113E-01
   7141.67  5.3929962E-01
   7142.00  5.3215308E-01
   7142.33  5.2783948E-01
   7142.67  5.2555627E-01
   7143.00  5.2495064E-01
   7143.33  5.2582204E-01
   7143.67  5.2766094E-01
   7144.00  5.3016791E-01
   7144.33  5.3301893E-01
   7144.67  5.3580556E-01
   7145.00  5.3821992E-01
   7145.33  5.3985687E-01
   7145.67  5.4055909E-01
   7146.00  5.4019831E-01
   7146.33  5.3858593E-01
   7146.67  5.3589773E-01
   7147.00  5.3222139E-01
   7147.33  5.2761346E-01
   7147.67  5.2237881E-01
   7148.00  5.1670389E-01
   7148.33  5.1077457E-01
   7148.67  5.0481652E-01
   7149.00  4.9897939E-01
   7149.33  4.9344463E-01
   7149.67  4.8829851E-01
   7150.00  4.8362365E-01
   7150.33  4.7956413E-01
   7150.67  4.7610946E-01
   7151.00  4.7329369E-01
   7151.33  4.7121700E-01
   7151.67  4.6981299E-01
   7152.00  4.6909612E-01
   7152.33  4.6916303E-01
   7152.67  4.6992896E-01
   7153.00  4.7138947E-01
   7153.33  4.7361647E-01
   7153.67  4.7649915E-01
   7154.00  4.8000095E-01
   7154.33  4.8412990E-01
   7154.67  4.8873423E-01
   7155.00  4.9372735E-01
   7155.33  4.9902635E-01
   7155.67  5.0446951E-01
   7156.00  5.0994482E-01
   7156.33  5.1531561E-01
   7156.67  5.2048210E-01
   7157.00  5.2536547E-01
   7157.33  5.2985397E-01
   7157.67  5.3394625E-01
   7158.00  5.3761963E-01
   7158.33  5.4081148E-01
   7158.67  5.4358057E-01
   7159.00  5.4593923E-01
   7159.33  5.4785861E-01
   7159.67  5.4941021E-01
   7160.00  5.5061390E-01
   7160.33  5.5145187E-01
   7160.67  5.5198711E-01
   7161.00  5.5223841E-01
   7161.33  5.5219468E-01
   7161.67  5.5191008E-01
   7162.00  5.5140285E-01
   7162.33  5.5066962E-01
   7162.67  5.4975799E-01
   7163.00  5.4868763E-01
   7163.33  5.4746437E-01
   7163.67  5.4612725E-01
   7164.00  5.4469439E-01
   7164.33  5.4317566E-01
   7164.67  5.4159590E-01
   7165.00  5.3996121E-01
   7165.33  5.3826704E-01
   7165.67  5.3652393E-01
   7166.00  5.3473368E-01
   7166.33  5.3288731E-01
   7166.67  5.3098459E-01
   7167.00  5.2901873E-01
   7167.33  5.2697129E-01
   7167.67  5.2484133E-01
   7168.00  5.2262105E-01
   7168.33  5.2029029E-01
   7168.67  5.1785511E-01
   7169.00  5.1531289E-01
   7169.33  5.1265229E-01
   7169.67  5.0989500E-01
   7170.00  5.0705445E-01
   7170.33  5.0414767E-01
   7170.67  5.0121986E-01
   7171.00  4.9831990E-01
   7171.33  4.9555313E-01
   7171.67  4.9305436E-01
   7172.00  4.9100440E-01
