    FDMNES
    energy     <xanes>
   7097.00  4.1165639E-03
   7097.33  4.1957211E-03
   7097.67  4.2777845E-03
   7098.00  4.3629242E-03
   7098.33  4.4517695E-03
   7098.67  4.5441497E-03
   7099.00  4.6402929E-03
   7099.33  4.7410009E-03
   7099.67  4.8460966E-03
   7100.00  4.9558954E-03
   7100.33  5.0714492E-03
   7100.67  5.1925865E-03
   7101.00  5.3197604E-03
   7101.33  5.4544013E-03
   7101.67  5.5963720E-03
   7102.00  5.7463535E-03
   7102.33  5.9063801E-03
   7102.67  6.0764148E-03
   7103.00  6.2575394E-03
   7103.33  6.4528155E-03
   7103.67  6.6624635E-03
   7104.00  6.8883237E-03
   7104.33  7.1353482E-03
   7104.67  7.4044120E-03
   7105.00  7.6989286E-03
   7105.33  8.0276917E-03
   7105.67  8.3933315E-03
   7106.00  8.8029301E-03
   7106.33  9.2741565E-03
   7106.67  9.8148760E-03
   7107.00  1.0442171E-02
   7107.33  1.1198111E-02
   7107.67  1.2109084E-02
   7108.00  1.3226120E-02
   7108.33  1.4677345E-02
   7108.67  1.6574880E-02
   7109.00  1.9129608E-02
   7109.33  2.2913122E-02
   7109.67  2.8639361E-02
   7110.00  3.7726927E-02
   7110.33  5.4291599E-02
   7110.67  8.2052674E-02
   7111.00  1.1755675E-01
   7111.33  1.3683265E-01
   7111.67  1.3081532E-01
   7112.00  1.0745322E-01
   7112.33  8.4827911E-02
   7112.67  7.0226840E-02
   7113.00  6.3201398E-02
   7113.33  6.2423848E-02
   7113.67  6.3071581E-02
   7114.00  6.0037567E-02
   7114.33  5.3522644E-02
   7114.67  4.8490139E-02
   7115.00  4.5934720E-02
   7115.33  4.5492923E-02
   7115.67  4.6169637E-02
   7116.00  4.7496576E-02
   7116.33  4.9379920E-02
   7116.67  5.1972288E-02
   7117.00  5.5487267E-02
   7117.33  5.9992927E-02
   7117.67  6.4944062E-02
   7118.00  6.9924731E-02
   7118.33  7.4791731E-02
   7118.67  7.9677756E-02
   7119.00  8.4665464E-02
   7119.33  8.9992201E-02
   7119.67  9.6127784E-02
   7120.00  1.0367049E-01
   7120.33  1.1358769E-01
   7120.67  1.2632202E-01
   7121.00  1.4247995E-01
   7121.33  1.6290993E-01
   7121.67  1.8657368E-01
   7122.00  2.1196299E-01
   7122.33  2.3616072E-01
   7122.67  2.5653311E-01
   7123.00  2.7240351E-01
   7123.33  2.8504009E-01
   7123.67  2.9673183E-01
   7124.00  3.0784029E-01
   7124.33  3.1732086E-01
   7124.67  3.2539089E-01
   7125.00  3.3432211E-01
   7125.33  3.4781994E-01
   7125.67  3.6619404E-01
   7126.00  3.8776041E-01
   7126.33  4.1085722E-01
   7126.67  4.3925028E-01
   7127.00  4.7801851E-01
   7127.33  5.2639796E-01
   7127.67  5.7749130E-01
   7128.00  6.2941864E-01
   7128.33  6.8121062E-01
   7128.67  7.3050303E-01
   7129.00  7.7594546E-01
   7129.33  8.1768519E-01
   7129.67  8.5632149E-01
   7130.00  8.9006432E-01
   7130.33  9.1527193E-01
   7130.67  9.3225852E-01
   7131.00  9.4224413E-01
   7131.33  9.4616262E-01
   7131.67  9.4544642E-01
   7132.00  9.4049021E-01
   7132.33  9.3232894E-01
   7132.67  9.2381863E-01
   7133.00  9.1671816E-01
   7133.33  9.1214882E-01
   7133.67  9.1051795E-01
   7134.00  9.1246245E-01
   7134.33  9.1760861E-01
   7134.67  9.2298415E-01
   7135.00  9.2560331E-01
   7135.33  9.2079850E-01
   7135.67  9.0577911E-01
   7136.00  8.7834331E-01
   7136.33  8.3631495E-01
   7136.67  7.8368820E-01
   7137.00  7.2465760E-01
   7137.33  6.6515619E-01
   7137.67  6.1057404E-01
   7138.00  5.6400265E-01
   7138.33  5.2830357E-01
   7138.67  5.0226423E-01
   7139.00  4.8501253E-01
   7139.33  4.7579343E-01
   7139.67  4.7162737E-01
   7140.00  4.7059464E-01
   7140.33  4.7086868E-01
   7140.67  4.7104729E-01
   7141.00  4.7073741E-01
   7141.33  4.7001544E-01
   7141.67  4.6931338E-01
   7142.00  4.6895710E-01
   7142.33  4.6929005E-01
   7142.67  4.7037590E-01
   7143.00  4.7225799E-01
   7143.33  4.7502456E-01
   7143.67  4.7851794E-01
   7144.00  4.8265152E-01
   7144.33  4.8735115E-01
   7144.67  4.9239190E-01
   7145.00  4.9761308E-01
   7145.33  5.0278139E-01
   7145.67  5.0762155E-01
   7146.00  5.1184994E-01
   7146.33  5.1500978E-01
   7146.67  5.1693953E-01
   7147.00  5.1748704E-01
   7147.33  5.1642964E-01
   7147.67  5.1404578E-01
   7148.00  5.1051965E-01
   7148.33  5.0602780E-01
   7148.67  5.0099095E-01
   7149.00  4.9567731E-01
   7149.33  4.9037335E-01
   7149.67  4.8531013E-01
   7150.00  4.8063665E-01
   7150.33  4.7652405E-01
   7150.67  4.7293824E-01
   7151.00  4.6984702E-01
   7151.33  4.6720064E-01
   7151.67  4.6478376E-01
   7152.00  4.6241526E-01
   7152.33  4.5985456E-01
   7152.67  4.5692780E-01
   7153.00  4.5351001E-01
   7153.33  4.4945129E-01
   7153.67  4.4480342E-01
   7154.00  4.3957735E-01
   7154.33  4.3373092E-01
   7154.67  4.2736521E-01
   7155.00  4.2051163E-01
   7155.33  4.1316452E-01
   7155.67  4.0545566E-01
   7156.00  3.9748280E-01
   7156.33  3.8938631E-01
   7156.67  3.8137081E-01
   7157.00  3.7361726E-01
   7157.33  3.6639404E-01
   7157.67  3.5982680E-01
   7158.00  3.5403840E-01
   7158.33  3.4922618E-01
   7158.67  3.4530880E-01
   7159.00  3.4226725E-01
   7159.33  3.4014682E-01
   7159.67  3.3876416E-01
   7160.00  3.3803980E-01
   7160.33  3.3794546E-01
   7160.67  3.3831022E-01
   7161.00  3.3904698E-01
   7161.33  3.4009524E-01
   7161.67  3.4133974E-01
   7162.00  3.4272212E-01
   7162.33  3.4419709E-01
   7162.67  3.4570925E-01
   7163.00  3.4722726E-01
   7163.33  3.4872415E-01
   7163.67  3.5019286E-01
   7164.00  3.5163803E-01
   7164.33  3.5307910E-01
   7164.67  3.5454962E-01
   7165.00  3.5608431E-01
   7165.33  3.5774261E-01
   7165.67  3.5956043E-01
   7166.00  3.6157828E-01
   7166.33  3.6386720E-01
   7166.67  3.6642935E-01
   7167.00  3.6928489E-01
   7167.33  3.7248726E-01
   7167.67  3.7600400E-01
   7168.00  3.7983435E-01
   7168.33  3.8401048E-01
   7168.67  3.8848226E-01
   7169.00  3.9323480E-01
   7169.33  3.9827635E-01
   7169.67  4.0354169E-01
   7170.00  4.0899286E-01
   7170.33  4.1458681E-01
   7170.67  4.2022568E-01
   7171.00  4.2581034E-01
   7171.33  4.3113790E-01
   7171.67  4.3595034E-01
   7172.00  4.3989558E-01
