    FDMNES
    energy     <xanes>
   7097.00  4.9731094E-03
   7097.33  5.0887873E-03
   7097.67  5.2096712E-03
   7098.00  5.3361122E-03
   7098.33  5.4693138E-03
   7098.67  5.6090282E-03
   7099.00  5.7557340E-03
   7099.33  5.9110036E-03
   7099.67  6.0745834E-03
   7100.00  6.2471426E-03
   7100.33  6.4307899E-03
   7100.67  6.6252897E-03
   7101.00  6.8316075E-03
   7101.33  7.0526598E-03
   7101.67  7.2882825E-03
   7102.00  7.5399211E-03
   7102.33  7.8117623E-03
   7102.67  8.1038326E-03
   7103.00  8.4183953E-03
   7103.33  8.7617413E-03
   7103.67  9.1343600E-03
   7104.00  9.5399978E-03
   7104.33  9.9886650E-03
   7104.67  1.0481971E-02
   7105.00  1.1026570E-02
   7105.33  1.1639619E-02
   7105.67  1.2325567E-02
   7106.00  1.3097392E-02
   7106.33  1.3987587E-02
   7106.67  1.5008537E-02
   7107.00  1.6189043E-02
   7107.33  1.7600043E-02
   7107.67  1.9279896E-02
   7108.00  2.1305995E-02
   7108.33  2.3870829E-02
   7108.67  2.7122775E-02
   7109.00  3.1344367E-02
   7109.33  3.7285304E-02
   7109.67  4.5801301E-02
   7110.00  5.8580976E-02
   7110.33  8.0450718E-02
   7110.67  1.1577122E-01
   7111.00  1.6153639E-01
   7111.33  1.9429220E-01
   7111.67  2.1462647E-01
   7112.00  2.4169407E-01
   7112.33  2.8090542E-01
   7112.67  3.1659605E-01
   7113.00  3.4289113E-01
   7113.33  3.6060475E-01
   7113.67  3.6337730E-01
   7114.00  3.4494199E-01
   7114.33  3.1224924E-01
   7114.67  2.8626202E-01
   7115.00  2.7738437E-01
   7115.33  2.8455050E-01
   7115.67  2.8622669E-01
   7116.00  2.6627218E-01
   7116.33  2.3078045E-01
   7116.67  1.9899082E-01
   7117.00  1.7614733E-01
   7117.33  1.6154394E-01
   7117.67  1.5120198E-01
   7118.00  1.4340347E-01
   7118.33  1.3745526E-01
   7118.67  1.3294586E-01
   7119.00  1.2983216E-01
   7119.33  1.2811663E-01
   7119.67  1.2748605E-01
   7120.00  1.2780279E-01
   7120.33  1.2893621E-01
   7120.67  1.3039491E-01
   7121.00  1.3187709E-01
   7121.33  1.3363131E-01
   7121.67  1.3649130E-01
   7122.00  1.4149903E-01
   7122.33  1.5008511E-01
   7122.67  1.6176393E-01
   7123.00  1.7547586E-01
   7123.33  1.9087802E-01
   7123.67  2.0870093E-01
   7124.00  2.2926297E-01
   7124.33  2.5054162E-01
   7124.67  2.6878111E-01
   7125.00  2.8307436E-01
   7125.33  2.9613684E-01
   7125.67  3.1107956E-01
   7126.00  3.2853055E-01
   7126.33  3.4803643E-01
   7126.67  3.6877310E-01
   7127.00  3.9105428E-01
   7127.33  4.1637461E-01
   7127.67  4.4527030E-01
   7128.00  4.7707398E-01
   7128.33  5.0873331E-01
   7128.67  5.3680855E-01
   7129.00  5.6073103E-01
   7129.33  5.8324086E-01
   7129.67  6.0782928E-01
   7130.00  6.3492092E-01
   7130.33  6.6249268E-01
   7130.67  6.8818527E-01
   7131.00  7.1108862E-01
   7131.33  7.3130727E-01
   7131.67  7.5081235E-01
   7132.00  7.7137365E-01
   7132.33  7.9461018E-01
   7132.67  8.1979603E-01
   7133.00  8.4486336E-01
   7133.33  8.6560855E-01
   7133.67  8.7895075E-01
   7134.00  8.8289395E-01
   7134.33  8.7486335E-01
   7134.67  8.5571860E-01
   7135.00  8.2614372E-01
   7135.33  7.8789945E-01
   7135.67  7.4595365E-01
   7136.00  7.0359688E-01
   7136.33  6.6399461E-01
   7136.67  6.2860551E-01
   7137.00  5.9828120E-01
   7137.33  5.7419800E-01
   7137.67  5.5575204E-01
   7138.00  5.4273162E-01
   7138.33  5.3509300E-01
   7138.67  5.3114996E-01
   7139.00  5.2973177E-01
   7139.33  5.2969001E-01
   7139.67  5.2998890E-01
   7140.00  5.3030811E-01
   7140.33  5.3065713E-01
   7140.67  5.3123300E-01
   7141.00  5.3222810E-01
   7141.33  5.3387403E-01
   7141.67  5.3616350E-01
   7142.00  5.3908830E-01
   7142.33  5.4266641E-01
   7142.67  5.4674932E-01
   7143.00  5.5126749E-01
   7143.33  5.5618137E-01
   7143.67  5.6135498E-01
   7144.00  5.6669776E-01
   7144.33  5.7209587E-01
   7144.67  5.7741275E-01
   7145.00  5.8253583E-01
   7145.33  5.8730429E-01
   7145.67  5.9165449E-01
   7146.00  5.9551631E-01
   7146.33  5.9876332E-01
   7146.67  6.0143189E-01
   7147.00  6.0351507E-01
   7147.33  6.0495119E-01
   7147.67  6.0583545E-01
   7148.00  6.0620110E-01
   7148.33  6.0604202E-01
   7148.67  6.0546605E-01
   7149.00  6.0451035E-01
   7149.33  6.0317114E-01
   7149.67  6.0152454E-01
   7150.00  5.9960008E-01
   7150.33  5.9740357E-01
   7150.67  5.9500179E-01
   7151.00  5.9243249E-01
   7151.33  5.8973623E-01
   7151.67  5.8699223E-01
   7152.00  5.8426136E-01
   7152.33  5.8162522E-01
   7152.67  5.7913749E-01
   7153.00  5.7684180E-01
   7153.33  5.7479851E-01
   7153.67  5.7298684E-01
   7154.00  5.7138929E-01
   7154.33  5.6997934E-01
   7154.67  5.6866298E-01
   7155.00  5.6736008E-01
   7155.33  5.6595012E-01
   7155.67  5.6432887E-01
   7156.00  5.6239991E-01
   7156.33  5.6001518E-01
   7156.67  5.5715502E-01
   7157.00  5.5378795E-01
   7157.33  5.4985231E-01
   7157.67  5.4545281E-01
   7158.00  5.4065136E-01
   7158.33  5.3549721E-01
   7158.67  5.3012362E-01
   7159.00  5.2461104E-01
   7159.33  5.1903647E-01
   7159.67  5.1347611E-01
   7160.00  5.0797962E-01
   7160.33  5.0261129E-01
   7160.67  4.9740611E-01
   7161.00  4.9241212E-01
   7161.33  4.8772156E-01
   7161.67  4.8334815E-01
   7162.00  4.7931495E-01
   7162.33  4.7567481E-01
   7162.67  4.7237180E-01
   7163.00  4.6937819E-01
   7163.33  4.6668174E-01
   7163.67  4.6419981E-01
   7164.00  4.6189253E-01
   7164.33  4.5973867E-01
   7164.67  4.5769560E-01
   7165.00  4.5575194E-01
   7165.33  4.5391709E-01
   7165.67  4.5218481E-01
   7166.00  4.5056348E-01
   7166.33  4.4907788E-01
   7166.67  4.4772015E-01
   7167.00  4.4649305E-01
   7167.33  4.4541236E-01
   7167.67  4.4445867E-01
   7168.00  4.4362514E-01
   7168.33  4.4290894E-01
   7168.67  4.4227582E-01
   7169.00  4.4170618E-01
   7169.33  4.4118277E-01
   7169.67  4.4068048E-01
   7170.00  4.4018551E-01
   7170.33  4.3968679E-01
   7170.67  4.3918164E-01
   7171.00  4.3867516E-01
   7171.33  4.3818541E-01
   7171.67  4.3773823E-01
   7172.00  4.3736357E-01
