    FDMNES
    energy     <xanes>
   7097.00  4.4750747E-03
   7097.33  4.5707140E-03
   7097.67  4.6702400E-03
   7098.00  4.7738953E-03
   7098.33  4.8825463E-03
   7098.67  4.9959830E-03
   7099.00  5.1145324E-03
   7099.33  5.2393096E-03
   7099.67  5.3700966E-03
   7100.00  5.5073467E-03
   7100.33  5.6525346E-03
   7100.67  5.8054506E-03
   7101.00  5.9667451E-03
   7101.33  6.1384339E-03
   7101.67  6.3203530E-03
   7102.00  6.5134745E-03
   7102.33  6.7206693E-03
   7102.67  6.9419043E-03
   7103.00  7.1787080E-03
   7103.33  7.4353825E-03
   7103.67  7.7122268E-03
   7104.00  8.0117991E-03
   7104.33  8.3409799E-03
   7104.67  8.7008986E-03
   7105.00  9.0961924E-03
   7105.33  9.5388377E-03
   7105.67  1.0032143E-02
   7106.00  1.0585440E-02
   7106.33  1.1222073E-02
   7106.67  1.1951671E-02
   7107.00  1.2795863E-02
   7107.33  1.3807922E-02
   7107.67  1.5019001E-02
   7108.00  1.6490457E-02
   7108.33  1.8375394E-02
   7108.67  2.0799414E-02
   7109.00  2.3999032E-02
   7109.33  2.8604646E-02
   7109.67  3.5358213E-02
   7110.00  4.5722689E-02
   7110.33  6.4006453E-02
   7110.67  9.5485784E-02
   7111.00  1.4359495E-01
   7111.33  1.8656823E-01
   7111.67  1.8331980E-01
   7112.00  1.5390037E-01
   7112.33  1.3260422E-01
   7112.67  1.2133863E-01
   7113.00  1.1897689E-01
   7113.33  1.2402644E-01
   7113.67  1.3639132E-01
   7114.00  1.5275139E-01
   7114.33  1.5627995E-01
   7114.67  1.4633013E-01
   7115.00  1.3088769E-01
   7115.33  1.1134005E-01
   7115.67  9.3737302E-02
   7116.00  8.2396076E-02
   7116.33  7.7996183E-02
   7116.67  7.8285454E-02
   7117.00  8.2528903E-02
   7117.33  9.0688235E-02
   7117.67  1.0194277E-01
   7118.00  1.1594603E-01
   7118.33  1.3266679E-01
   7118.67  1.5170935E-01
   7119.00  1.7324500E-01
   7119.33  1.9798387E-01
   7119.67  2.2562949E-01
   7120.00  2.5562612E-01
   7120.33  2.8709880E-01
   7120.67  3.1903614E-01
   7121.00  3.4989922E-01
   7121.33  3.7473631E-01
   7121.67  3.9071668E-01
   7122.00  3.9906871E-01
   7122.33  4.0487383E-01
   7122.67  4.1459051E-01
   7123.00  4.3206906E-01
   7123.33  4.5936639E-01
   7123.67  4.9153324E-01
   7124.00  5.2095070E-01
   7124.33  5.3393406E-01
   7124.67  5.2717000E-01
   7125.00  5.0913156E-01
   7125.33  4.9465583E-01
   7125.67  4.8590906E-01
   7126.00  4.7761783E-01
   7126.33  4.6542866E-01
   7126.67  4.5124879E-01
   7127.00  4.3797572E-01
   7127.33  4.2774353E-01
   7127.67  4.2000143E-01
   7128.00  4.1410118E-01
   7128.33  4.0980471E-01
   7128.67  4.0707361E-01
   7129.00  4.0640279E-01
   7129.33  4.0893362E-01
   7129.67  4.1518120E-01
   7130.00  4.2588271E-01
   7130.33  4.4221157E-01
   7130.67  4.6323685E-01
   7131.00  4.8767322E-01
   7131.33  5.1344925E-01
   7131.67  5.3867973E-01
   7132.00  5.6263692E-01
   7132.33  5.8462762E-01
   7132.67  6.0449928E-01
   7133.00  6.2213515E-01
   7133.33  6.3746419E-01
   7133.67  6.5094956E-01
   7134.00  6.6242421E-01
   7134.33  6.7109864E-01
   7134.67  6.7738722E-01
   7135.00  6.8220137E-01
   7135.33  6.8675887E-01
   7135.67  6.9164028E-01
   7136.00  6.9657358E-01
   7136.33  7.0051640E-01
   7136.67  7.0249914E-01
   7137.00  7.0189657E-01
   7137.33  6.9821880E-01
   7137.67  6.9217031E-01
   7138.00  6.8426455E-01
   7138.33  6.7498419E-01
   7138.67  6.6507983E-01
   7139.00  6.5501022E-01
   7139.33  6.4526847E-01
   7139.67  6.3619795E-01
   7140.00  6.2808180E-01
   7140.33  6.2138958E-01
   7140.67  6.1628770E-01
   7141.00  6.1307927E-01
   7141.33  6.1238585E-01
   7141.67  6.1412606E-01
   7142.00  6.1819566E-01
   7142.33  6.2422983E-01
   7142.67  6.3107854E-01
   7143.00  6.3797709E-01
   7143.33  6.4430921E-01
   7143.67  6.4994853E-01
   7144.00  6.5488855E-01
   7144.33  6.5907339E-01
   7144.67  6.6259774E-01
   7145.00  6.6545250E-01
   7145.33  6.6751970E-01
   7145.67  6.6884224E-01
   7146.00  6.6937486E-01
   7146.33  6.6895240E-01
   7146.67  6.6761313E-01
   7147.00  6.6528983E-01
   7147.33  6.6176026E-01
   7147.67  6.5706710E-01
   7148.00  6.5114893E-01
   7148.33  6.4382701E-01
   7148.67  6.3527117E-01
   7149.00  6.2552970E-01
   7149.33  6.1459437E-01
   7149.67  6.0279861E-01
   7150.00  5.9036569E-01
   7150.33  5.7754938E-01
   7150.67  5.6470036E-01
   7151.00  5.5207036E-01
   7151.33  5.3997330E-01
   7151.67  5.2854862E-01
   7152.00  5.1791992E-01
   7152.33  5.0828747E-01
   7152.67  4.9957301E-01
   7153.00  4.9176510E-01
   7153.33  4.8492174E-01
   7153.67  4.7885962E-01
   7154.00  4.7350033E-01
   7154.33  4.6881951E-01
   7154.67  4.6464017E-01
   7155.00  4.6087941E-01
   7155.33  4.5749250E-01
   7155.67  4.5436629E-01
   7156.00  4.5145329E-01
   7156.33  4.4873825E-01
   7156.67  4.4617491E-01
   7157.00  4.4374496E-01
   7157.33  4.4145144E-01
   7157.67  4.3927748E-01
   7158.00  4.3722069E-01
   7158.33  4.3528541E-01
   7158.67  4.3344131E-01
   7159.00  4.3166845E-01
   7159.33  4.2994380E-01
   7159.67  4.2822953E-01
   7160.00  4.2649338E-01
   7160.33  4.2469164E-01
   7160.67  4.2280307E-01
   7161.00  4.2081078E-01
   7161.33  4.1869070E-01
   7161.67  4.1645935E-01
   7162.00  4.1412740E-01
   7162.33  4.1170420E-01
   7162.67  4.0923100E-01
   7163.00  4.0674385E-01
   7163.33  4.0428896E-01
   7163.67  4.0190302E-01
   7164.00  3.9961879E-01
   7164.33  3.9748779E-01
   7164.67  3.9552139E-01
   7165.00  3.9373733E-01
   7165.33  3.9217126E-01
   7165.67  3.9080108E-01
   7166.00  3.8962248E-01
   7166.33  3.8864726E-01
   7166.67  3.8783776E-01
   7167.00  3.8717895E-01
   7167.33  3.8666949E-01
   7167.67  3.8627634E-01
   7168.00  3.8598744E-01
   7168.33  3.8580288E-01
   7168.67  3.8570184E-01
   7169.00  3.8567779E-01
   7169.33  3.8573403E-01
   7169.67  3.8585844E-01
   7170.00  3.8604988E-01
   7170.33  3.8631640E-01
   7170.67  3.8664847E-01
   7171.00  3.8704121E-01
   7171.33  3.8748300E-01
   7171.67  3.8792681E-01
   7172.00  3.8830978E-01
