    FDMNES
    energy     <xanes>
   7097.00  4.3678877E-03
   7097.33  4.4603632E-03
   7097.67  4.5566803E-03
   7098.00  4.6570879E-03
   7098.33  4.7624583E-03
   7098.67  4.8725971E-03
   7099.00  4.9878436E-03
   7099.33  5.1093320E-03
   7099.67  5.2368644E-03
   7100.00  5.3709167E-03
   7100.33  5.5130062E-03
   7100.67  5.6629507E-03
   7101.00  5.8214405E-03
   7101.33  5.9905758E-03
   7101.67  6.1702332E-03
   7102.00  6.3614562E-03
   7102.33  6.5672739E-03
   7102.67  6.7877187E-03
   7103.00  7.0244475E-03
   7103.33  7.2820572E-03
   7103.67  7.5609609E-03
   7104.00  7.8639543E-03
   7104.33  8.1984719E-03
   7104.67  8.5658584E-03
   7105.00  8.9712063E-03
   7105.33  9.4275615E-03
   7105.67  9.9386729E-03
   7106.00  1.0514785E-02
   7106.33  1.1181399E-02
   7106.67  1.1949113E-02
   7107.00  1.2841506E-02
   7107.33  1.3916439E-02
   7107.67  1.5207384E-02
   7108.00  1.6780150E-02
   7108.33  1.8798311E-02
   7108.67  2.1393407E-02
   7109.00  2.4812922E-02
   7109.33  2.9713103E-02
   7109.67  3.6852160E-02
   7110.00  4.7718299E-02
   7110.33  6.6599618E-02
   7110.67  9.7948344E-02
   7111.00  1.4213148E-01
   7111.33  1.8485707E-01
   7111.67  2.1239569E-01
   7112.00  2.1928567E-01
   7112.33  2.1557092E-01
   7112.67  2.1147126E-01
   7113.00  1.9798953E-01
   7113.33  1.7104461E-01
   7113.67  1.4377580E-01
   7114.00  1.2251405E-01
   7114.33  1.0736590E-01
   7114.67  9.4467713E-02
   7115.00  8.3680004E-02
   7115.33  7.6096627E-02
   7115.67  7.0885789E-02
   7116.00  6.7844399E-02
   7116.33  6.7195465E-02
   7116.67  6.8471806E-02
   7117.00  7.1431466E-02
   7117.33  7.5766368E-02
   7117.67  8.0638549E-02
   7118.00  8.5739683E-02
   7118.33  9.1623273E-02
   7118.67  9.8917967E-02
   7119.00  1.0783320E-01
   7119.33  1.1845905E-01
   7119.67  1.3058475E-01
   7120.00  1.4436500E-01
   7120.33  1.6019330E-01
   7120.67  1.7767149E-01
   7121.00  1.9632261E-01
   7121.33  2.1536778E-01
   7121.67  2.3366078E-01
   7122.00  2.5044662E-01
   7122.33  2.6569781E-01
   7122.67  2.8061025E-01
   7123.00  2.9578467E-01
   7123.33  3.1112449E-01
   7123.67  3.2713273E-01
   7124.00  3.4492168E-01
   7124.33  3.6370633E-01
   7124.67  3.8006787E-01
   7125.00  3.9328952E-01
   7125.33  4.0579939E-01
   7125.67  4.1874679E-01
   7126.00  4.3075272E-01
   7126.33  4.3995190E-01
   7126.67  4.4697290E-01
   7127.00  4.5295880E-01
   7127.33  4.5837307E-01
   7127.67  4.6229563E-01
   7128.00  4.6365288E-01
   7128.33  4.6270600E-01
   7128.67  4.6225534E-01
   7129.00  4.6430461E-01
   7129.33  4.6986158E-01
   7129.67  4.7792831E-01
   7130.00  4.8778169E-01
   7130.33  4.9866840E-01
   7130.67  5.0971637E-01
   7131.00  5.2105580E-01
   7131.33  5.3494755E-01
   7131.67  5.5429182E-01
   7132.00  5.8086235E-01
   7132.33  6.1449219E-01
   7132.67  6.5055741E-01
   7133.00  6.8528247E-01
   7133.33  7.1567514E-01
   7133.67  7.4205081E-01
   7134.00  7.6434315E-01
   7134.33  7.8021732E-01
   7134.67  7.8837391E-01
   7135.00  7.8807054E-01
   7135.33  7.7913790E-01
   7135.67  7.6477961E-01
   7136.00  7.4737749E-01
   7136.33  7.2927411E-01
   7136.67  7.1212696E-01
   7137.00  6.9660824E-01
   7137.33  6.8316473E-01
   7137.67  6.7146933E-01
   7138.00  6.6140400E-01
   7138.33  6.5313174E-01
   7138.67  6.4650250E-01
   7139.00  6.4152523E-01
   7139.33  6.3824802E-01
   7139.67  6.3615923E-01
   7140.00  6.3489282E-01
   7140.33  6.3408953E-01
   7140.67  6.3342789E-01
   7141.00  6.3284686E-01
   7141.33  6.3247865E-01
   7141.67  6.3249692E-01
   7142.00  6.3304215E-01
   7142.33  6.3423372E-01
   7142.67  6.3590050E-01
   7143.00  6.3786629E-01
   7143.33  6.3989242E-01
   7143.67  6.4175557E-01
   7144.00  6.4333466E-01
   7144.33  6.4454370E-01
   7144.67  6.4547716E-01
   7145.00  6.4624290E-01
   7145.33  6.4700909E-01
   7145.67  6.4795367E-01
   7146.00  6.4920978E-01
   7146.33  6.5092597E-01
   7146.67  6.5306548E-01
   7147.00  6.5557714E-01
   7147.33  6.5838092E-01
   7147.67  6.6129665E-01
   7148.00  6.6416583E-01
   7148.33  6.6668685E-01
   7148.67  6.6849551E-01
   7149.00  6.6911403E-01
   7149.33  6.6767557E-01
   7149.67  6.6382852E-01
   7150.00  6.5725009E-01
   7150.33  6.4755525E-01
   7150.67  6.3545018E-01
   7151.00  6.2149039E-01
   7151.33  6.0630545E-01
   7151.67  5.9075273E-01
   7152.00  5.7532648E-01
   7152.33  5.6049241E-01
   7152.67  5.4642184E-01
   7153.00  5.3321583E-01
   7153.33  5.2101269E-01
   7153.67  5.0966566E-01
   7154.00  4.9912087E-01
   7154.33  4.8939412E-01
   7154.67  4.8031384E-01
   7155.00  4.7180943E-01
   7155.33  4.6386072E-01
   7155.67  4.5632868E-01
   7156.00  4.4915357E-01
   7156.33  4.4231202E-01
   7156.67  4.3571982E-01
   7157.00  4.2934986E-01
   7157.33  4.2321295E-01
   7157.67  4.1728424E-01
   7158.00  4.1157303E-01
   7158.33  4.0612198E-01
   7158.67  4.0091264E-01
   7159.00  3.9594625E-01
   7159.33  3.9124310E-01
   7159.67  3.8676388E-01
   7160.00  3.8251129E-01
   7160.33  3.7854421E-01
   7160.67  3.7488324E-01
   7161.00  3.7158660E-01
   7161.33  3.6877992E-01
   7161.67  3.6646870E-01
   7162.00  3.6468390E-01
   7162.33  3.6349681E-01
   7162.67  3.6281231E-01
   7163.00  3.6258322E-01
   7163.33  3.6278424E-01
   7163.67  3.6328474E-01
   7164.00  3.6401290E-01
   7164.33  3.6491083E-01
   7164.67  3.6589689E-01
   7165.00  3.6693293E-01
   7165.33  3.6799925E-01
   7165.67  3.6909170E-01
   7166.00  3.7022547E-01
   7166.33  3.7144178E-01
   7166.67  3.7277248E-01
   7167.00  3.7425477E-01
   7167.33  3.7595343E-01
   7167.67  3.7787958E-01
   7168.00  3.8005736E-01
   7168.33  3.8253948E-01
   7168.67  3.8529931E-01
   7169.00  3.8833227E-01
   7169.33  3.9165111E-01
   7169.67  3.9518895E-01
   7170.00  3.9890219E-01
   7170.33  4.0273791E-01
   7170.67  4.0659763E-01
   7171.00  4.1039065E-01
   7171.33  4.1395421E-01
   7171.67  4.1711998E-01
   7172.00  4.1967442E-01
