    FDMNES
    energy     <xanes>
   7097.00  4.3314297E-03
   7097.33  4.4204657E-03
   7097.67  4.5131315E-03
   7098.00  4.6096635E-03
   7098.33  4.7108880E-03
   7098.67  4.8166241E-03
   7099.00  4.9271961E-03
   7099.33  5.0436838E-03
   7099.67  5.1659067E-03
   7100.00  5.2943239E-03
   7100.33  5.4303902E-03
   7100.67  5.5739475E-03
   7101.00  5.7256705E-03
   7101.33  5.8875933E-03
   7101.67  6.0596290E-03
   7102.00  6.2428136E-03
   7102.33  6.4401228E-03
   7102.67  6.6516513E-03
   7103.00  6.8790777E-03
   7103.33  7.1270040E-03
   7103.67  7.3959668E-03
   7104.00  7.6888699E-03
   7104.33  8.0133447E-03
   7104.67  8.3710222E-03
   7105.00  8.7673605E-03
   7105.33  9.2161963E-03
   7105.67  9.7220540E-03
   7106.00  1.0296360E-02
   7106.33  1.0967350E-02
   7106.67  1.1748107E-02
   7107.00  1.2666324E-02
   7107.33  1.3789879E-02
   7107.67  1.5162004E-02
   7108.00  1.6865586E-02
   7108.33  1.9108430E-02
   7108.67  2.2073442E-02
   7109.00  2.6104230E-02
   7109.33  3.2133510E-02
   7109.67  4.1333289E-02
   7110.00  5.6034767E-02
   7110.33  8.2959370E-02
   7110.67  1.2751726E-01
   7111.00  1.8049515E-01
   7111.33  1.9758153E-01
   7111.67  1.8913325E-01
   7112.00  1.8535700E-01
   7112.33  1.8199473E-01
   7112.67  1.5997465E-01
   7113.00  1.3007130E-01
   7113.33  1.1035464E-01
   7113.67  1.0053333E-01
   7114.00  9.4111753E-02
   7114.33  8.3862809E-02
   7114.67  7.1347505E-02
   7115.00  5.9364322E-02
   7115.33  5.1210688E-02
   7115.67  4.6383961E-02
   7116.00  4.3892269E-02
   7116.33  4.3095049E-02
   7116.67  4.3335794E-02
   7117.00  4.4384897E-02
   7117.33  4.6204265E-02
   7117.67  4.8734387E-02
   7118.00  5.2093821E-02
   7118.33  5.6585784E-02
   7118.67  6.2212728E-02
   7119.00  6.8953641E-02
   7119.33  7.6575184E-02
   7119.67  8.4260655E-02
   7120.00  9.1320120E-02
   7120.33  9.7303717E-02
   7120.67  1.0269058E-01
   7121.00  1.0805959E-01
   7121.33  1.1411923E-01
   7121.67  1.2128480E-01
   7122.00  1.2987975E-01
   7122.33  1.4037268E-01
   7122.67  1.5274777E-01
   7123.00  1.6726981E-01
   7123.33  1.8492582E-01
   7123.67  2.0645221E-01
   7124.00  2.3306450E-01
   7124.33  2.6716058E-01
   7124.67  3.0915060E-01
   7125.00  3.5885968E-01
   7125.33  4.1209075E-01
   7125.67  4.5601461E-01
   7126.00  4.8107061E-01
   7126.33  4.9259820E-01
   7126.67  5.0442775E-01
   7127.00  5.1930211E-01
   7127.33  5.3702664E-01
   7127.67  5.5810300E-01
   7128.00  5.8407010E-01
   7128.33  6.1666441E-01
   7128.67  6.5443980E-01
   7129.00  6.9553952E-01
   7129.33  7.3748014E-01
   7129.67  7.7826614E-01
   7130.00  8.1693592E-01
   7130.33  8.5207372E-01
   7130.67  8.8276218E-01
   7131.00  9.0792338E-01
   7131.33  9.2605488E-01
   7131.67  9.3781815E-01
   7132.00  9.4337915E-01
   7132.33  9.4230540E-01
   7132.67  9.3571259E-01
   7133.00  9.2409463E-01
   7133.33  9.0808107E-01
   7133.67  8.9002363E-01
   7134.00  8.7157019E-01
   7134.33  8.5333479E-01
   7134.67  8.3406814E-01
   7135.00  8.1242036E-01
   7135.33  7.8767962E-01
   7135.67  7.6118680E-01
   7136.00  7.3423430E-01
   7136.33  7.0829203E-01
   7136.67  6.8421337E-01
   7137.00  6.6252242E-01
   7137.33  6.4390797E-01
   7137.67  6.2818218E-01
   7138.00  6.1537502E-01
   7138.33  6.0579585E-01
   7138.67  5.9896306E-01
   7139.00  5.9471359E-01
   7139.33  5.9306755E-01
   7139.67  5.9336714E-01
   7140.00  5.9521415E-01
   7140.33  5.9820373E-01
   7140.67  6.0166818E-01
   7141.00  6.0518349E-01
   7141.33  6.0830175E-01
   7141.67  6.1079373E-01
   7142.00  6.1253597E-01
   7142.33  6.1340146E-01
   7142.67  6.1356068E-01
   7143.00  6.1313574E-01
   7143.33  6.1223550E-01
   7143.67  6.1107700E-01
   7144.00  6.0979814E-01
   7144.33  6.0854703E-01
   7144.67  6.0743477E-01
   7145.00  6.0652211E-01
   7145.33  6.0584216E-01
   7145.67  6.0529428E-01
   7146.00  6.0474725E-01
   7146.33  6.0393388E-01
   7146.67  6.0256336E-01
   7147.00  6.0031840E-01
   7147.33  5.9667626E-01
   7147.67  5.9150216E-01
   7148.00  5.8466429E-01
   7148.33  5.7596210E-01
   7148.67  5.6577724E-01
   7149.00  5.5437117E-01
   7149.33  5.4202004E-01
   7149.67  5.2922828E-01
   7150.00  5.1630910E-01
   7150.33  5.0358214E-01
   7150.67  4.9124576E-01
   7151.00  4.7943031E-01
   7151.33  4.6830010E-01
   7151.67  4.5781428E-01
   7152.00  4.4797376E-01
   7152.33  4.3883202E-01
   7152.67  4.3026879E-01
   7153.00  4.2223731E-01
   7153.33  4.1472916E-01
   7153.67  4.0761225E-01
   7154.00  4.0082173E-01
   7154.33  3.9431403E-01
   7154.67  3.8798675E-01
   7155.00  3.8178455E-01
   7155.33  3.7565889E-01
   7155.67  3.6955464E-01
   7156.00  3.6344293E-01
   7156.33  3.5730132E-01
   7156.67  3.5113089E-01
   7157.00  3.4494469E-01
   7157.33  3.3877820E-01
   7157.67  3.3268327E-01
   7158.00  3.2672321E-01
   7158.33  3.2101789E-01
   7158.67  3.1564680E-01
   7159.00  3.1071174E-01
   7159.33  3.0640609E-01
   7159.67  3.0278278E-01
   7160.00  2.9994141E-01
   7160.33  2.9808990E-01
   7160.67  2.9718234E-01
   7161.00  2.9725018E-01
   7161.33  2.9843581E-01
   7161.67  3.0060608E-01
   7162.00  3.0372513E-01
   7162.33  3.0783136E-01
   7162.67  3.1272154E-01
   7163.00  3.1829749E-01
   7163.33  3.2450797E-01
   7163.67  3.3115905E-01
   7164.00  3.3814538E-01
   7164.33  3.4537775E-01
   7164.67  3.5272074E-01
   7165.00  3.6008467E-01
   7165.33  3.6735917E-01
   7165.67  3.7447555E-01
   7166.00  3.8138526E-01
   7166.33  3.8801404E-01
   7166.67  3.9436046E-01
   7167.00  4.0040312E-01
   7167.33  4.0608460E-01
   7167.67  4.1143520E-01
   7168.00  4.1645191E-01
   7168.33  4.2109654E-01
   7168.67  4.2542068E-01
   7169.00  4.2943865E-01
   7169.33  4.3313731E-01
   7169.67  4.3657810E-01
   7170.00  4.3978365E-01
   7170.33  4.4275084E-01
   7170.67  4.4552123E-01
   7171.00  4.4809601E-01
   7171.33  4.5042568E-01
   7171.67  4.5247240E-01
   7172.00  4.5414062E-01
