    FDMNES
    energy     <xanes>
   7097.00  4.3986818E-03
   7097.33  4.4846431E-03
   7097.67  4.5737278E-03
   7098.00  4.6661101E-03
   7098.33  4.7624515E-03
   7098.67  4.8625560E-03
   7099.00  4.9666527E-03
   7099.33  5.0755713E-03
   7099.67  5.1891024E-03
   7100.00  5.3075555E-03
   7100.33  5.4319971E-03
   7100.67  5.5622126E-03
   7101.00  5.6986340E-03
   7101.33  5.8426751E-03
   7101.67  5.9941351E-03
   7102.00  6.1536422E-03
   7102.33  6.3231435E-03
   7102.67  6.5024980E-03
   7103.00  6.6926650E-03
   7103.33  6.8964599E-03
   7103.67  7.1139095E-03
   7104.00  7.3465711E-03
   7104.33  7.5987791E-03
   7104.67  7.8709933E-03
   7105.00  8.1659455E-03
   7105.33  8.4908769E-03
   7105.67  8.8473832E-03
   7106.00  9.2407612E-03
   7106.33  9.6844939E-03
   7106.67  1.0183397E-02
   7107.00  1.0749206E-02
   7107.33  1.1411041E-02
   7107.67  1.2184217E-02
   7108.00  1.3100058E-02
   7108.33  1.4236395E-02
   7108.67  1.5651532E-02
   7109.00  1.7456134E-02
   7109.33  1.9939518E-02
   7109.67  2.3414894E-02
   7110.00  2.8491879E-02
   7110.33  3.6927967E-02
   7110.67  5.0839951E-02
   7111.00  7.1758230E-02
   7111.33  9.5649397E-02
   7111.67  1.2418402E-01
   7112.00  1.5244957E-01
   7112.33  1.4995679E-01
   7112.67  1.2662970E-01
   7113.00  9.5780251E-02
   7113.33  7.4775729E-02
   7113.67  6.3498792E-02
   7114.00  5.8529022E-02
   7114.33  5.7022595E-02
   7114.67  5.5036541E-02
   7115.00  5.0471290E-02
   7115.33  4.5415991E-02
   7115.67  4.2227527E-02
   7116.00  4.1045282E-02
   7116.33  4.1647359E-02
   7116.67  4.3558457E-02
   7117.00  4.6720005E-02
   7117.33  5.1345573E-02
   7117.67  5.7285023E-02
   7118.00  6.4334400E-02
   7118.33  7.2044517E-02
   7118.67  8.0008229E-02
   7119.00  8.8547383E-02
   7119.33  9.8816882E-02
   7119.67  1.1173215E-01
   7120.00  1.2819119E-01
   7120.33  1.4983900E-01
   7120.67  1.7733868E-01
   7121.00  2.1194575E-01
   7121.33  2.5635102E-01
   7121.67  3.1091277E-01
   7122.00  3.7617099E-01
   7122.33  4.5140855E-01
   7122.67  5.2894399E-01
   7123.00  6.0059917E-01
   7123.33  6.5960896E-01
   7123.67  7.0922536E-01
   7124.00  7.5314533E-01
   7124.33  7.9367834E-01
   7124.67  8.3049652E-01
   7125.00  8.5994484E-01
   7125.33  8.7379593E-01
   7125.67  8.6842301E-01
   7126.00  8.4310192E-01
   7126.33  8.0024122E-01
   7126.67  7.4909975E-01
   7127.00  6.9578927E-01
   7127.33  6.4601212E-01
   7127.67  6.0247987E-01
   7128.00  5.6641072E-01
   7128.33  5.3909208E-01
   7128.67  5.1924477E-01
   7129.00  5.0644574E-01
   7129.33  5.0096059E-01
   7129.67  5.0121339E-01
   7130.00  5.0637989E-01
   7130.33  5.1624989E-01
   7130.67  5.3004421E-01
   7131.00  5.4778918E-01
   7131.33  5.6991003E-01
   7131.67  5.9533005E-01
   7132.00  6.2282924E-01
   7132.33  6.4975765E-01
   7132.67  6.7216741E-01
   7133.00  6.8589164E-01
   7133.33  6.8545865E-01
   7133.67  6.7228653E-01
   7134.00  6.5025945E-01
   7134.33  6.2620457E-01
   7134.67  6.0609462E-01
   7135.00  5.9195909E-01
   7135.33  5.8409873E-01
   7135.67  5.8021248E-01
   7136.00  5.7892958E-01
   7136.33  5.7921260E-01
   7136.67  5.8008333E-01
   7137.00  5.8109373E-01
   7137.33  5.8188516E-01
   7137.67  5.8228545E-01
   7138.00  5.8220164E-01
   7138.33  5.8150305E-01
   7138.67  5.8021118E-01
   7139.00  5.7830404E-01
   7139.33  5.7570727E-01
   7139.67  5.7252273E-01
   7140.00  5.6878478E-01
   7140.33  5.6448026E-01
   7140.67  5.5972879E-01
   7141.00  5.5458222E-01
   7141.33  5.4906012E-01
   7141.67  5.4326398E-01
   7142.00  5.3724181E-01
   7142.33  5.3102157E-01
   7142.67  5.2467005E-01
   7143.00  5.1822745E-01
   7143.33  5.1174683E-01
   7143.67  5.0529197E-01
   7144.00  4.9891541E-01
   7144.33  4.9270519E-01
   7144.67  4.8672230E-01
   7145.00  4.8104171E-01
   7145.33  4.7580483E-01
   7145.67  4.7105575E-01
   7146.00  4.6687201E-01
   7146.33  4.6341664E-01
   7146.67  4.6067600E-01
   7147.00  4.5869145E-01
   7147.33  4.5758425E-01
   7147.67  4.5724962E-01
   7148.00  4.5765391E-01
   7148.33  4.5880878E-01
   7148.67  4.6052685E-01
   7149.00  4.6269834E-01
   7149.33  4.6521916E-01
   7149.67  4.6789912E-01
   7150.00  4.7060758E-01
   7150.33  4.7319249E-01
   7150.67  4.7555684E-01
   7151.00  4.7763126E-01
   7151.33  4.7932199E-01
   7151.67  4.8064914E-01
   7152.00  4.8161210E-01
   7152.33  4.8218285E-01
   7152.67  4.8243324E-01
   7153.00  4.8239211E-01
   7153.33  4.8206167E-01
   7153.67  4.8150844E-01
   7154.00  4.8076100E-01
   7154.33  4.7982973E-01
   7154.67  4.7876212E-01
   7155.00  4.7757743E-01
   7155.33  4.7628031E-01
   7155.67  4.7489545E-01
   7156.00  4.7342913E-01
   7156.33  4.7187196E-01
   7156.67  4.7022592E-01
   7157.00  4.6848287E-01
   7157.33  4.6662350E-01
   7157.67  4.6465526E-01
   7158.00  4.6257441E-01
   7158.33  4.6036445E-01
   7158.67  4.5804254E-01
   7159.00  4.5561656E-01
   7159.33  4.5309102E-01
   7159.67  4.5049914E-01
   7160.00  4.4786570E-01
   7160.33  4.4522566E-01
   7160.67  4.4262172E-01
   7161.00  4.4009344E-01
   7161.33  4.3770451E-01
   7161.67  4.3548889E-01
   7162.00  4.3348882E-01
   7162.33  4.3178405E-01
   7162.67  4.3038347E-01
   7163.00  4.2931663E-01
   7163.33  4.2865389E-01
   7163.67  4.2836502E-01
   7164.00  4.2845353E-01
   7164.33  4.2895923E-01
   7164.67  4.2981862E-01
   7165.00  4.3101057E-01
   7165.33  4.3254039E-01
   7165.67  4.3432436E-01
   7166.00  4.3631331E-01
   7166.33  4.3845123E-01
   7166.67  4.4066356E-01
   7167.00  4.4291849E-01
   7167.33  4.4518506E-01
   7167.67  4.4743376E-01
   7168.00  4.4964467E-01
   7168.33  4.5179376E-01
   7168.67  4.5387731E-01
   7169.00  4.5589054E-01
   7169.33  4.5782229E-01
   7169.67  4.5968232E-01
   7170.00  4.6147231E-01
   7170.33  4.6318499E-01
   7170.67  4.6482583E-01
   7171.00  4.6638512E-01
   7171.33  4.6782352E-01
   7171.67  4.6910008E-01
   7172.00  4.7014044E-01
