    FDMNES
    energy     <xanes>
   7097.00  4.3394839E-03
   7097.33  4.4376994E-03
   7097.67  4.5404236E-03
   7098.00  4.6479819E-03
   7098.33  4.7614540E-03
   7098.67  4.8806583E-03
   7099.00  5.0060509E-03
   7099.33  5.1390782E-03
   7099.67  5.2795720E-03
   7100.00  5.4281919E-03
   7100.33  5.5869380E-03
   7100.67  5.7556930E-03
   7101.00  5.9354467E-03
   7101.33  6.1290709E-03
   7101.67  6.3365810E-03
   7102.00  6.5595289E-03
   7102.33  6.8022291E-03
   7102.67  7.0650132E-03
   7103.00  7.3504452E-03
   7103.33  7.6653757E-03
   7103.67  8.0108815E-03
   7104.00  8.3914825E-03
   7104.33  8.8188272E-03
   7104.67  9.2958155E-03
   7105.00  9.8310892E-03
   7105.33  1.0446266E-02
   7105.67  1.1149040E-02
   7106.00  1.1957780E-02
   7106.33  1.2917511E-02
   7106.67  1.4050095E-02
   7107.00  1.5400606E-02
   7107.33  1.7079070E-02
   7107.67  1.9157202E-02
   7108.00  2.1770986E-02
   7108.33  2.5260612E-02
   7108.67  2.9927498E-02
   7109.00  3.6335070E-02
   7109.33  4.6007798E-02
   7109.67  6.0851370E-02
   7110.00  8.4647589E-02
   7110.33  1.2840881E-01
   7110.67  2.0255720E-01
   7111.00  2.9910542E-01
   7111.33  3.4715468E-01
   7111.67  3.2689236E-01
   7112.00  2.8143557E-01
   7112.33  2.4095264E-01
   7112.67  2.0360039E-01
   7113.00  1.6703148E-01
   7113.33  1.3366453E-01
   7113.67  1.0652597E-01
   7114.00  8.7393447E-02
   7114.33  7.6290074E-02
   7114.67  7.0310309E-02
   7115.00  6.6063920E-02
   7115.33  5.9934904E-02
   7115.67  5.4650182E-02
   7116.00  5.1589211E-02
   7116.33  4.9012667E-02
   7116.67  4.5628804E-02
   7117.00  4.2323384E-02
   7117.33  4.0217065E-02
   7117.67  3.9295943E-02
   7118.00  3.9416247E-02
   7118.33  4.0553934E-02
   7118.67  4.2559841E-02
   7119.00  4.5472077E-02
   7119.33  4.9461218E-02
   7119.67  5.4441256E-02
   7120.00  6.0577517E-02
   7120.33  6.8625181E-02
   7120.67  7.9213313E-02
   7121.00  9.3119190E-02
   7121.33  1.1040796E-01
   7121.67  1.2614846E-01
   7122.00  1.3454320E-01
   7122.33  1.3523251E-01
   7122.67  1.3449717E-01
   7123.00  1.3428319E-01
   7123.33  1.3535251E-01
   7123.67  1.3901272E-01
   7124.00  1.4679244E-01
   7124.33  1.6065746E-01
   7124.67  1.8069047E-01
   7125.00  2.0725931E-01
   7125.33  2.4111669E-01
   7125.67  2.7974004E-01
   7126.00  3.1860057E-01
   7126.33  3.4825659E-01
   7126.67  3.6529769E-01
   7127.00  3.7206739E-01
   7127.33  3.7113463E-01
   7127.67  3.6663231E-01
   7128.00  3.6328441E-01
   7128.33  3.6578838E-01
   7128.67  3.7467831E-01
   7129.00  3.9030117E-01
   7129.33  4.1338895E-01
   7129.67  4.4262603E-01
   7130.00  4.7788219E-01
   7130.33  5.1995501E-01
   7130.67  5.6794366E-01
   7131.00  6.2189386E-01
   7131.33  6.8290464E-01
   7131.67  7.4842907E-01
   7132.00  8.1118617E-01
   7132.33  8.5186565E-01
   7132.67  8.6232388E-01
   7133.00  8.5280557E-01
   7133.33  8.4578866E-01
   7133.67  8.5361919E-01
   7134.00  8.7871256E-01
   7134.33  9.2369702E-01
   7134.67  9.8784080E-01
   7135.00  1.0725979E+00
   7135.33  1.1756318E+00
   7135.67  1.2710030E+00
   7136.00  1.3183582E+00
   7136.33  1.2724516E+00
   7136.67  1.1657108E+00
   7137.00  1.0420826E+00
   7137.33  9.3585012E-01
   7137.67  8.5242839E-01
   7138.00  7.8913364E-01
   7138.33  7.4287922E-01
   7138.67  7.0760567E-01
   7139.00  6.8077002E-01
   7139.33  6.6117988E-01
   7139.67  6.4677789E-01
   7140.00  6.3690317E-01
   7140.33  6.3162161E-01
   7140.67  6.3021195E-01
   7141.00  6.3259838E-01
   7141.33  6.3917628E-01
   7141.67  6.4930057E-01
   7142.00  6.6261948E-01
   7142.33  6.7870542E-01
   7142.67  6.9612505E-01
   7143.00  7.1359134E-01
   7143.33  7.2914111E-01
   7143.67  7.4125287E-01
   7144.00  7.4872577E-01
   7144.33  7.5009140E-01
   7144.67  7.4600987E-01
   7145.00  7.3702259E-01
   7145.33  7.2371418E-01
   7145.67  7.0782720E-01
   7146.00  6.9042112E-01
   7146.33  6.7251016E-01
   7146.67  6.5498107E-01
   7147.00  6.3834510E-01
   7147.33  6.2314152E-01
   7147.67  6.0940292E-01
   7148.00  5.9717652E-01
   7148.33  5.8657995E-01
   7148.67  5.7728030E-01
   7149.00  5.6909474E-01
   7149.33  5.6186976E-01
   7149.67  5.5520634E-01
   7150.00  5.4883852E-01
   7150.33  5.4246833E-01
   7150.67  5.3582458E-01
   7151.00  5.2869465E-01
   7151.33  5.2076918E-01
   7151.67  5.1195401E-01
   7152.00  5.0213456E-01
   7152.33  4.9110790E-01
   7152.67  4.7900426E-01
   7153.00  4.6586021E-01
   7153.33  4.5165122E-01
   7153.67  4.3664520E-01
   7154.00  4.2101053E-01
   7154.33  4.0494411E-01
   7154.67  3.8878767E-01
   7155.00  3.7279989E-01
   7155.33  3.5732304E-01
   7155.67  3.4255538E-01
   7156.00  3.2868483E-01
   7156.33  3.1602100E-01
   7156.67  3.0455364E-01
   7157.00  2.9434759E-01
   7157.33  2.8559381E-01
   7157.67  2.7811876E-01
   7158.00  2.7188692E-01
   7158.33  2.6698477E-01
   7158.67  2.6319069E-01
   7159.00  2.6043586E-01
   7159.33  2.5875632E-01
   7159.67  2.5794942E-01
   7160.00  2.5794614E-01
   7160.33  2.5876101E-01
   7160.67  2.6023264E-01
   7161.00  2.6230681E-01
   7161.33  2.6499786E-01
   7161.67  2.6819192E-01
   7162.00  2.7185794E-01
   7162.33  2.7602539E-01
   7162.67  2.8061369E-01
   7163.00  2.8559133E-01
   7163.33  2.9093565E-01
   7163.67  2.9649993E-01
   7164.00  3.0215529E-01
   7164.33  3.0770698E-01
   7164.67  3.1297546E-01
   7165.00  3.1781873E-01
   7165.33  3.2205881E-01
   7165.67  3.2572338E-01
   7166.00  3.2883406E-01
   7166.33  3.3140725E-01
   7166.67  3.3361237E-01
   7167.00  3.3555398E-01
   7167.33  3.3733383E-01
   7167.67  3.3907830E-01
   7168.00  3.4086727E-01
   7168.33  3.4279226E-01
   7168.67  3.4489769E-01
   7169.00  3.4722258E-01
   7169.33  3.4983064E-01
   7169.67  3.5270733E-01
   7170.00  3.5585288E-01
   7170.33  3.5927849E-01
   7170.67  3.6290507E-01
   7171.00  3.6666021E-01
   7171.33  3.7039938E-01
   7171.67  3.7387621E-01
   7172.00  3.7677786E-01
