    FDMNES
    energy     <xanes>
   7097.00  4.9680116E-03
   7097.33  5.0885869E-03
   7097.67  5.2148081E-03
   7098.00  5.3470719E-03
   7098.33  5.4867106E-03
   7098.67  5.6334784E-03
   7099.00  5.7879224E-03
   7099.33  5.9518047E-03
   7099.67  6.1248824E-03
   7100.00  6.3079314E-03
   7100.33  6.5033478E-03
   7100.67  6.7109251E-03
   7101.00  6.9318008E-03
   7101.33  7.1693420E-03
   7101.67  7.4234527E-03
   7102.00  7.6958656E-03
   7102.33  7.9915039E-03
   7102.67  8.3105449E-03
   7103.00  8.6557550E-03
   7103.33  9.0346863E-03
   7103.67  9.4481630E-03
   7104.00  9.9008613E-03
   7104.33  1.0405080E-02
   7104.67  1.0963192E-02
   7105.00  1.1583691E-02
   7105.33  1.2288191E-02
   7105.67  1.3082982E-02
   7106.00  1.3985003E-02
   7106.33  1.5036254E-02
   7106.67  1.6253950E-02
   7107.00  1.7676428E-02
   7107.33  1.9397498E-02
   7107.67  2.1469889E-02
   7108.00  2.3997733E-02
   7108.33  2.7238655E-02
   7108.67  3.1392501E-02
   7109.00  3.6835370E-02
   7109.33  4.4555322E-02
   7109.67  5.5653890E-02
   7110.00  7.2282708E-02
   7110.33  1.0061594E-01
   7110.67  1.4731356E-01
   7111.00  2.1450970E-01
   7111.33  2.8203433E-01
   7111.67  3.3216077E-01
   7112.00  3.8299202E-01
   7112.33  4.5334035E-01
   7112.67  4.9414993E-01
   7113.00  4.5023721E-01
   7113.33  3.4456991E-01
   7113.67  2.5358520E-01
   7114.00  1.9178163E-01
   7114.33  1.5892929E-01
   7114.67  1.4710490E-01
   7115.00  1.5330364E-01
   7115.33  1.6742577E-01
   7115.67  1.6536687E-01
   7116.00  1.4283389E-01
   7116.33  1.1774321E-01
   7116.67  1.0011867E-01
   7117.00  8.9833890E-02
   7117.33  8.5446778E-02
   7117.67  8.4308705E-02
   7118.00  8.4975229E-02
   7118.33  8.6511276E-02
   7118.67  8.8800303E-02
   7119.00  9.2141912E-02
   7119.33  9.6394487E-02
   7119.67  1.0083225E-01
   7120.00  1.0551836E-01
   7120.33  1.1138044E-01
   7120.67  1.1884273E-01
   7121.00  1.2779705E-01
   7121.33  1.3812716E-01
   7121.67  1.5047744E-01
   7122.00  1.6623662E-01
   7122.33  1.8671572E-01
   7122.67  2.1126637E-01
   7123.00  2.3970092E-01
   7123.33  2.7188062E-01
   7123.67  3.0519821E-01
   7124.00  3.3645093E-01
   7124.33  3.6184647E-01
   7124.67  3.8046101E-01
   7125.00  3.9240506E-01
   7125.33  3.9963713E-01
   7125.67  4.0651235E-01
   7126.00  4.1565017E-01
   7126.33  4.2916599E-01
   7126.67  4.4671180E-01
   7127.00  4.6715604E-01
   7127.33  4.8906399E-01
   7127.67  5.1229503E-01
   7128.00  5.3808931E-01
   7128.33  5.6796707E-01
   7128.67  6.0113968E-01
   7129.00  6.3633710E-01
   7129.33  6.7166577E-01
   7129.67  7.0579888E-01
   7130.00  7.3878465E-01
   7130.33  7.7176531E-01
   7130.67  8.0543952E-01
   7131.00  8.3839558E-01
   7131.33  8.6458146E-01
   7131.67  8.7690764E-01
   7132.00  8.7047992E-01
   7132.33  8.4426103E-01
   7132.67  8.0851633E-01
   7133.00  7.7191498E-01
   7133.33  7.4314619E-01
   7133.67  7.2473322E-01
   7134.00  7.1597097E-01
   7134.33  7.1409622E-01
   7134.67  7.1458799E-01
   7135.00  7.1544947E-01
   7135.33  7.1519763E-01
   7135.67  7.1325899E-01
   7136.00  7.1003448E-01
   7136.33  7.0687812E-01
   7136.67  7.0474430E-01
   7137.00  7.0361469E-01
   7137.33  7.0296180E-01
   7137.67  7.0212806E-01
   7138.00  7.0072689E-01
   7138.33  6.9826243E-01
   7138.67  6.9450849E-01
   7139.00  6.8926803E-01
   7139.33  6.8230975E-01
   7139.67  6.7386260E-01
   7140.00  6.6388678E-01
   7140.33  6.5211091E-01
   7140.67  6.3890300E-01
   7141.00  6.2477658E-01
   7141.33  6.1071427E-01
   7141.67  5.9779401E-01
   7142.00  5.8679505E-01
   7142.33  5.7861718E-01
   7142.67  5.7316056E-01
   7143.00  5.7031241E-01
   7143.33  5.6984605E-01
   7143.67  5.7060800E-01
   7144.00  5.7155622E-01
   7144.33  5.7116623E-01
   7144.67  5.6834762E-01
   7145.00  5.6243425E-01
   7145.33  5.5296833E-01
   7145.67  5.4109916E-01
   7146.00  5.2794878E-01
   7146.33  5.1490124E-01
   7146.67  5.0304423E-01
   7147.00  4.9299133E-01
   7147.33  4.8532909E-01
   7147.67  4.7978669E-01
   7148.00  4.7621301E-01
   7148.33  4.7457734E-01
   7148.67  4.7440843E-01
   7149.00  4.7549749E-01
   7149.33  4.7774154E-01
   7149.67  4.8079674E-01
   7150.00  4.8449017E-01
   7150.33  4.8869105E-01
   7150.67  4.9317649E-01
   7151.00  4.9782634E-01
   7151.33  5.0253925E-01
   7151.67  5.0723012E-01
   7152.00  5.1184617E-01
   7152.33  5.1630778E-01
   7152.67  5.2055030E-01
   7153.00  5.2447905E-01
   7153.33  5.2789922E-01
   7153.67  5.3071099E-01
   7154.00  5.3278207E-01
   7154.33  5.3387524E-01
   7154.67  5.3402096E-01
   7155.00  5.3320533E-01
   7155.33  5.3136070E-01
   7155.67  5.2870133E-01
   7156.00  5.2533755E-01
   7156.33  5.2133267E-01
   7156.67  5.1688018E-01
   7157.00  5.1206615E-01
   7157.33  5.0692982E-01
   7157.67  5.0155742E-01
   7158.00  4.9597683E-01
   7158.33  4.9018492E-01
   7158.67  4.8421989E-01
   7159.00  4.7809535E-01
   7159.33  4.7181578E-01
   7159.67  4.6543216E-01
   7160.00  4.5898512E-01
   7160.33  4.5252947E-01
   7160.67  4.4613026E-01
   7161.00  4.3984470E-01
   7161.33  4.3375486E-01
   7161.67  4.2788745E-01
   7162.00  4.2227085E-01
   7162.33  4.1695022E-01
   7162.67  4.1188545E-01
   7163.00  4.0706117E-01
   7163.33  4.0248090E-01
   7163.67  3.9809147E-01
   7164.00  3.9387252E-01
   7164.33  3.8982602E-01
   7164.67  3.8592671E-01
   7165.00  3.8217988E-01
   7165.33  3.7862400E-01
   7165.67  3.7526404E-01
   7166.00  3.7212746E-01
   7166.33  3.6928093E-01
   7166.67  3.6672502E-01
   7167.00  3.6448366E-01
   7167.33  3.6262029E-01
   7167.67  3.6110712E-01
   7168.00  3.5995014E-01
   7168.33  3.5919276E-01
   7168.67  3.5878171E-01
   7169.00  3.5870403E-01
   7169.33  3.5897791E-01
   7169.67  3.5953715E-01
   7170.00  3.6035340E-01
   7170.33  3.6141481E-01
   7170.67  3.6264740E-01
   7171.00  3.6400179E-01
   7171.33  3.6540528E-01
   7171.67  3.6673145E-01
   7172.00  3.6783265E-01
