    FDMNES
    energy     <xanes>
   7097.00  4.9269592E-03
   7097.33  5.0462310E-03
   7097.67  5.1710754E-03
   7098.00  5.3018843E-03
   7098.33  5.4399726E-03
   7098.67  5.5850979E-03
   7099.00  5.7378006E-03
   7099.33  5.8998206E-03
   7099.67  6.0709188E-03
   7100.00  6.2518623E-03
   7100.33  6.4450184E-03
   7100.67  6.6501854E-03
   7101.00  6.8684887E-03
   7101.33  7.1032585E-03
   7101.67  7.3544043E-03
   7102.00  7.6236439E-03
   7102.33  7.9158526E-03
   7102.67  8.2312159E-03
   7103.00  8.5724816E-03
   7103.33  8.9471438E-03
   7103.67  9.3560404E-03
   7104.00  9.8038297E-03
   7104.33  1.0302749E-02
   7104.67  1.0855203E-02
   7105.00  1.1469685E-02
   7105.33  1.2167782E-02
   7105.67  1.2955876E-02
   7106.00  1.3850989E-02
   7106.33  1.4895290E-02
   7106.67  1.6106313E-02
   7107.00  1.7522839E-02
   7107.33  1.9239750E-02
   7107.67  2.1311093E-02
   7108.00  2.3843187E-02
   7108.33  2.7099305E-02
   7108.67  3.1286302E-02
   7109.00  3.6793122E-02
   7109.33  4.4644430E-02
   7109.67  5.5996190E-02
   7110.00  7.3109151E-02
   7110.33  1.0246695E-01
   7110.67  1.5084149E-01
   7111.00  2.1925711E-01
   7111.33  2.8621763E-01
   7111.67  3.3972784E-01
   7112.00  3.9302606E-01
   7112.33  4.4234666E-01
   7112.67  4.5671340E-01
   7113.00  4.0701421E-01
   7113.33  3.0962845E-01
   7113.67  2.2835392E-01
   7114.00  1.7631410E-01
   7114.33  1.5153079E-01
   7114.67  1.4587535E-01
   7115.00  1.5622365E-01
   7115.33  1.7035516E-01
   7115.67  1.6471540E-01
   7116.00  1.3972557E-01
   7116.33  1.1470502E-01
   7116.67  9.7477741E-02
   7117.00  8.7462285E-02
   7117.33  8.3327714E-02
   7117.67  8.2559358E-02
   7118.00  8.3699467E-02
   7118.33  8.5879755E-02
   7118.67  8.9225809E-02
   7119.00  9.4068650E-02
   7119.33  9.9896250E-02
   7119.67  1.0523995E-01
   7120.00  1.0920602E-01
   7120.33  1.1242133E-01
   7120.67  1.1732176E-01
   7121.00  1.2546941E-01
   7121.33  1.3760961E-01
   7121.67  1.5287223E-01
   7122.00  1.7137771E-01
   7122.33  1.9415331E-01
   7122.67  2.2035825E-01
   7123.00  2.4855492E-01
   7123.33  2.7778841E-01
   7123.67  3.0854913E-01
   7124.00  3.4045035E-01
   7124.33  3.7028336E-01
   7124.67  3.9416685E-01
   7125.00  4.0959665E-01
   7125.33  4.1639249E-01
   7125.67  4.1968633E-01
   7126.00  4.2368948E-01
   7126.33  4.3283861E-01
   7126.67  4.4836997E-01
   7127.00  4.7009970E-01
   7127.33  4.9694168E-01
   7127.67  5.2637214E-01
   7128.00  5.5728996E-01
   7128.33  5.8846480E-01
   7128.67  6.1776598E-01
   7129.00  6.4438461E-01
   7129.33  6.7124395E-01
   7129.67  7.0189584E-01
   7130.00  7.3539212E-01
   7130.33  7.6596798E-01
   7130.67  7.8864684E-01
   7131.00  8.0143015E-01
   7131.33  8.0316577E-01
   7131.67  7.9651817E-01
   7132.00  7.8375380E-01
   7132.33  7.6812880E-01
   7132.67  7.5332074E-01
   7133.00  7.4137544E-01
   7133.33  7.3414985E-01
   7133.67  7.3140254E-01
   7134.00  7.3256478E-01
   7134.33  7.3639173E-01
   7134.67  7.4058209E-01
   7135.00  7.4379248E-01
   7135.33  7.4538567E-01
   7135.67  7.4593058E-01
   7136.00  7.4577734E-01
   7136.33  7.4486542E-01
   7136.67  7.4297945E-01
   7137.00  7.3982039E-01
   7137.33  7.3506647E-01
   7137.67  7.2910935E-01
   7138.00  7.2237564E-01
   7138.33  7.1534871E-01
   7138.67  7.0830052E-01
   7139.00  7.0110576E-01
   7139.33  6.9318831E-01
   7139.67  6.8388843E-01
   7140.00  6.7254294E-01
   7140.33  6.5838586E-01
   7140.67  6.4205161E-01
   7141.00  6.2456803E-01
   7141.33  6.0778253E-01
   7141.67  5.9337527E-01
   7142.00  5.8238151E-01
   7142.33  5.7565710E-01
   7142.67  5.7223693E-01
   7143.00  5.7114567E-01
   7143.33  5.7094964E-01
   7143.67  5.6990749E-01
   7144.00  5.6681217E-01
   7144.33  5.6046348E-01
   7144.67  5.5119414E-01
   7145.00  5.3959660E-01
   7145.33  5.2668476E-01
   7145.67  5.1388214E-01
   7146.00  5.0209285E-01
   7146.33  4.9224468E-01
   7146.67  4.8446113E-01
   7147.00  4.7879779E-01
   7147.33  4.7537484E-01
   7147.67  4.7369818E-01
   7148.00  4.7352600E-01
   7148.33  4.7472584E-01
   7148.67  4.7686764E-01
   7149.00  4.7972538E-01
   7149.33  4.8311663E-01
   7149.67  4.8676351E-01
   7150.00  4.9049227E-01
   7150.33  4.9409652E-01
   7150.67  4.9740990E-01
   7151.00  5.0030147E-01
   7151.33  5.0261720E-01
   7151.67  5.0443767E-01
   7152.00  5.0587610E-01
   7152.33  5.0713159E-01
   7152.67  5.0846612E-01
   7153.00  5.1003943E-01
   7153.33  5.1196446E-01
   7153.67  5.1413707E-01
   7154.00  5.1640717E-01
   7154.33  5.1852277E-01
   7154.67  5.2026425E-01
   7155.00  5.2146918E-01
   7155.33  5.2194460E-01
   7155.67  5.2174622E-01
   7156.00  5.2090400E-01
   7156.33  5.1940698E-01
   7156.67  5.1738651E-01
   7157.00  5.1487307E-01
   7157.33  5.1181024E-01
   7157.67  5.0823447E-01
   7158.00  5.0411069E-01
   7158.33  4.9932338E-01
   7158.67  4.9392143E-01
   7159.00  4.8790940E-01
   7159.33  4.8126135E-01
   7159.67  4.7413875E-01
   7160.00  4.6665104E-01
   7160.33  4.5892290E-01
   7160.67  4.5114393E-01
   7161.00  4.4344955E-01
   7161.33  4.3600464E-01
   7161.67  4.2888527E-01
   7162.00  4.2214915E-01
   7162.33  4.1587755E-01
   7162.67  4.1001524E-01
   7163.00  4.0454026E-01
   7163.33  3.9945661E-01
   7163.67  3.9467472E-01
   7164.00  3.9015656E-01
   7164.33  3.8589476E-01
   7164.67  3.8183768E-01
   7165.00  3.7797717E-01
   7165.33  3.7434090E-01
   7165.67  3.7091728E-01
   7166.00  3.6772454E-01
   7166.33  3.6482093E-01
   7166.67  3.6220144E-01
   7167.00  3.5988716E-01
   7167.33  3.5793847E-01
   7167.67  3.5632794E-01
   7168.00  3.5506054E-01
   7168.33  3.5417664E-01
   7168.67  3.5362410E-01
   7169.00  3.5339051E-01
   7169.33  3.5349533E-01
   7169.67  3.5387944E-01
   7170.00  3.5452160E-01
   7170.33  3.5542186E-01
   7170.67  3.5651610E-01
   7171.00  3.5776346E-01
   7171.33  3.5910138E-01
   7171.67  3.6039552E-01
   7172.00  3.6148607E-01
