    FDMNES
    energy     <xanes>
   7097.00  4.2854580E-03
   7097.33  4.3690675E-03
   7097.67  4.4557837E-03
   7098.00  4.5457885E-03
   7098.33  4.6397551E-03
   7098.67  4.7375009E-03
   7099.00  4.8392695E-03
   7099.33  4.9459174E-03
   7099.67  5.0572541E-03
   7100.00  5.1736153E-03
   7100.33  5.2961220E-03
   7100.67  5.4245880E-03
   7101.00  5.5594928E-03
   7101.33  5.7023556E-03
   7101.67  5.8530223E-03
   7102.00  6.0122091E-03
   7102.33  6.1820650E-03
   7102.67  6.3625331E-03
   7103.00  6.5547417E-03
   7103.33  6.7618996E-03
   7103.67  6.9842018E-03
   7104.00  7.2235462E-03
   7104.33  7.4850674E-03
   7104.67  7.7695978E-03
   7105.00  8.0806079E-03
   7105.33  8.4270816E-03
   7105.67  8.8115439E-03
   7106.00  9.2410645E-03
   7106.33  9.7333434E-03
   7106.67  1.0295873E-02
   7107.00  1.0945316E-02
   7107.33  1.1722740E-02
   7107.67  1.2652850E-02
   7108.00  1.3783990E-02
   7108.33  1.5237204E-02
   7108.67  1.7114874E-02
   7109.00  1.9610042E-02
   7109.33  2.3242716E-02
   7109.67  2.8646957E-02
   7110.00  3.7078287E-02
   7110.33  5.2137023E-02
   7110.67  7.6815562E-02
   7111.00  1.0736315E-01
   7111.33  1.2570270E-01
   7111.67  1.3519938E-01
   7112.00  1.4416329E-01
   7112.33  1.3866729E-01
   7112.67  1.1703077E-01
   7113.00  9.4271252E-02
   7113.33  7.6282611E-02
   7113.67  6.2836433E-02
   7114.00  5.3961428E-02
   7114.33  4.8963837E-02
   7114.67  4.5305902E-02
   7115.00  4.2490700E-02
   7115.33  4.1074596E-02
   7115.67  4.0838922E-02
   7116.00  4.1646778E-02
   7116.33  4.3565714E-02
   7116.67  4.6474643E-02
   7117.00  5.0383129E-02
   7117.33  5.5407952E-02
   7117.67  6.1415942E-02
   7118.00  6.8474610E-02
   7118.33  7.6995361E-02
   7118.67  8.7083350E-02
   7119.00  9.8640540E-02
   7119.33  1.1082994E-01
   7119.67  1.2195834E-01
   7120.00  1.3088454E-01
   7120.33  1.3757434E-01
   7120.67  1.4415403E-01
   7121.00  1.5263675E-01
   7121.33  1.6541115E-01
   7121.67  1.8323964E-01
   7122.00  2.0667590E-01
   7122.33  2.3665606E-01
   7122.67  2.7254163E-01
   7123.00  3.1438634E-01
   7123.33  3.6244592E-01
   7123.67  4.1451075E-01
   7124.00  4.6811174E-01
   7124.33  5.1831451E-01
   7124.67  5.5943247E-01
   7125.00  5.8657557E-01
   7125.33  5.9571485E-01
   7125.67  5.9317240E-01
   7126.00  5.8686735E-01
   7126.33  5.8750908E-01
   7126.67  5.9941856E-01
   7127.00  6.1931274E-01
   7127.33  6.3716962E-01
   7127.67  6.4809759E-01
   7128.00  6.5454747E-01
   7128.33  6.6173139E-01
   7128.67  6.7281532E-01
   7129.00  6.8867405E-01
   7129.33  7.0960492E-01
   7129.67  7.3410049E-01
   7130.00  7.6084362E-01
   7130.33  7.8733600E-01
   7130.67  8.1010630E-01
   7131.00  8.2595148E-01
   7131.33  8.3122422E-01
   7131.67  8.2725162E-01
   7132.00  8.1612520E-01
   7132.33  8.0039770E-01
   7132.67  7.8275732E-01
   7133.00  7.6408175E-01
   7133.33  7.4471939E-01
   7133.67  7.2531871E-01
   7134.00  7.0696938E-01
   7134.33  6.9189463E-01
   7134.67  6.8115704E-01
   7135.00  6.7474773E-01
   7135.33  6.7168284E-01
   7135.67  6.6986528E-01
   7136.00  6.6822387E-01
   7136.33  6.6612156E-01
   7136.67  6.6353024E-01
   7137.00  6.6057703E-01
   7137.33  6.5743682E-01
   7137.67  6.5427998E-01
   7138.00  6.5116669E-01
   7138.33  6.4808929E-01
   7138.67  6.4496194E-01
   7139.00  6.4167752E-01
   7139.33  6.3805040E-01
   7139.67  6.3396718E-01
   7140.00  6.2931130E-01
   7140.33  6.2389681E-01
   7140.67  6.1776033E-01
   7141.00  6.1091281E-01
   7141.33  6.0334737E-01
   7141.67  5.9527048E-01
   7142.00  5.8681864E-01
   7142.33  5.7813474E-01
   7142.67  5.6940298E-01
   7143.00  5.6073881E-01
   7143.33  5.5226639E-01
   7143.67  5.4403400E-01
   7144.00  5.3607962E-01
   7144.33  5.2846814E-01
   7144.67  5.2117641E-01
   7145.00  5.1420807E-01
   7145.33  5.0760300E-01
   7145.67  5.0133082E-01
   7146.00  4.9541288E-01
   7146.33  4.8993498E-01
   7146.67  4.8489337E-01
   7147.00  4.8032913E-01
   7147.33  4.7635249E-01
   7147.67  4.7293545E-01
   7148.00  4.7010136E-01
   7148.33  4.6793969E-01
   7148.67  4.6637693E-01
   7149.00  4.6540206E-01
   7149.33  4.6505291E-01
   7149.67  4.6520582E-01
   7150.00  4.6579525E-01
   7150.33  4.6676304E-01
   7150.67  4.6794245E-01
   7151.00  4.6920999E-01
   7151.33  4.7040023E-01
   7151.67  4.7136021E-01
   7152.00  4.7195512E-01
   7152.33  4.7197515E-01
   7152.67  4.7135925E-01
   7153.00  4.7002539E-01
   7153.33  4.6781498E-01
   7153.67  4.6480265E-01
   7154.00  4.6099953E-01
   7154.33  4.5635924E-01
   7154.67  4.5105093E-01
   7155.00  4.4515750E-01
   7155.33  4.3872882E-01
   7155.67  4.3193894E-01
   7156.00  4.2488442E-01
   7156.33  4.1765134E-01
   7156.67  4.1035571E-01
   7157.00  4.0307107E-01
   7157.33  3.9588544E-01
   7157.67  3.8885955E-01
   7158.00  3.8205303E-01
   7158.33  3.7557100E-01
   7158.67  3.6944759E-01
   7159.00  3.6374412E-01
   7159.33  3.5859390E-01
   7159.67  3.5400591E-01
   7160.00  3.5003810E-01
   7160.33  3.4683825E-01
   7160.67  3.4437425E-01
   7161.00  3.4268223E-01
   7161.33  3.4189134E-01
   7161.67  3.4191351E-01
   7162.00  3.4274344E-01
   7162.33  3.4445395E-01
   7162.67  3.4690210E-01
   7163.00  3.5003037E-01
   7163.33  3.5381605E-01
   7163.67  3.5806254E-01
   7164.00  3.6266899E-01
   7164.33  3.6756358E-01
   7164.67  3.7261732E-01
   7165.00  3.7775418E-01
   7165.33  3.8289866E-01
   7165.67  3.8798888E-01
   7166.00  3.9298526E-01
   7166.33  3.9784085E-01
   7166.67  4.0255411E-01
   7167.00  4.0711947E-01
   7167.33  4.1151811E-01
   7167.67  4.1577349E-01
   7168.00  4.1989629E-01
   7168.33  4.2388804E-01
   7168.67  4.2777898E-01
   7169.00  4.3158004E-01
   7169.33  4.3529176E-01
   7169.67  4.3893583E-01
   7170.00  4.4251653E-01
   7170.33  4.4601646E-01
   7170.67  4.4942285E-01
   7171.00  4.5270220E-01
   7171.33  4.5575982E-01
   7171.67  4.5849025E-01
   7172.00  4.6072419E-01
