    FDMNES
    energy     <xanes>
   7097.00  4.1960598E-03
   7097.33  4.2796662E-03
   7097.67  4.3663999E-03
   7098.00  4.4564436E-03
   7098.33  4.5504736E-03
   7098.67  4.6483050E-03
   7099.00  4.7501815E-03
   7099.33  4.8569621E-03
   7099.67  4.9684529E-03
   7100.00  5.0849884E-03
   7100.33  5.2076899E-03
   7100.67  5.3363655E-03
   7101.00  5.4714910E-03
   7101.33  5.6145797E-03
   7101.67  5.7654681E-03
   7102.00  5.9248623E-03
   7102.33  6.0948916E-03
   7102.67  6.2754815E-03
   7103.00  6.4677359E-03
   7103.33  6.6748117E-03
   7103.67  6.8968670E-03
   7104.00  7.1357418E-03
   7104.33  7.3964414E-03
   7104.67  7.6797138E-03
   7105.00  7.9888874E-03
   7105.33  8.3326203E-03
   7105.67  8.7132225E-03
   7106.00  9.1373914E-03
   7106.33  9.6219563E-03
   7106.67  1.0173790E-02
   7107.00  1.0808471E-02
   7107.33  1.1564477E-02
   7107.67  1.2464412E-02
   7108.00  1.3552926E-02
   7108.33  1.4941884E-02
   7108.67  1.6724719E-02
   7109.00  1.9078287E-02
   7109.33  2.2479251E-02
   7109.67  2.7507352E-02
   7110.00  3.5312418E-02
   7110.33  4.9184420E-02
   7110.67  7.1738188E-02
   7111.00  9.9021818E-02
   7111.33  1.1354037E-01
   7111.67  1.1799582E-01
   7112.00  1.2341270E-01
   7112.33  1.3006116E-01
   7112.67  1.2706960E-01
   7113.00  1.1560617E-01
   7113.33  1.0997261E-01
   7113.67  1.0845625E-01
   7114.00  1.0059548E-01
   7114.33  8.1656826E-02
   7114.67  6.4692319E-02
   7115.00  5.4120861E-02
   7115.33  4.8828115E-02
   7115.67  4.6256284E-02
   7116.00  4.5478259E-02
   7116.33  4.6114992E-02
   7116.67  4.7725196E-02
   7117.00  5.0073395E-02
   7117.33  5.2853929E-02
   7117.67  5.5801310E-02
   7118.00  5.9028004E-02
   7118.33  6.2960358E-02
   7118.67  6.7860179E-02
   7119.00  7.3943494E-02
   7119.33  8.1605188E-02
   7119.67  9.0935698E-02
   7120.00  1.0225597E-01
   7120.33  1.1643666E-01
   7120.67  1.3390707E-01
   7121.00  1.5535967E-01
   7121.33  1.8196185E-01
   7121.67  2.1305778E-01
   7122.00  2.4763036E-01
   7122.33  2.8349160E-01
   7122.67  3.1808805E-01
   7123.00  3.5085821E-01
   7123.33  3.8368305E-01
   7123.67  4.1943712E-01
   7124.00  4.5931125E-01
   7124.33  5.0187148E-01
   7124.67  5.4120535E-01
   7125.00  5.7035710E-01
   7125.33  5.8147422E-01
   7125.67  5.7831324E-01
   7126.00  5.6790961E-01
   7126.33  5.5983292E-01
   7126.67  5.6034260E-01
   7127.00  5.7178896E-01
   7127.33  5.9404258E-01
   7127.67  6.2077163E-01
   7128.00  6.4684350E-01
   7128.33  6.6867199E-01
   7128.67  6.8797960E-01
   7129.00  7.0757865E-01
   7129.33  7.2994334E-01
   7129.67  7.5426430E-01
   7130.00  7.7838008E-01
   7130.33  7.9892333E-01
   7130.67  8.1425955E-01
   7131.00  8.2375274E-01
   7131.33  8.2682904E-01
   7131.67  8.2483054E-01
   7132.00  8.1854956E-01
   7132.33  8.0873605E-01
   7132.67  7.9699699E-01
   7133.00  7.8425356E-01
   7133.33  7.7116948E-01
   7133.67  7.5795065E-01
   7134.00  7.4450309E-01
   7134.33  7.3090978E-01
   7134.67  7.1754908E-01
   7135.00  7.0471744E-01
   7135.33  6.9274304E-01
   7135.67  6.8168597E-01
   7136.00  6.7164989E-01
   7136.33  6.6286170E-01
   7136.67  6.5522079E-01
   7137.00  6.4870468E-01
   7137.33  6.4333012E-01
   7137.67  6.3875986E-01
   7138.00  6.3474013E-01
   7138.33  6.3094640E-01
   7138.67  6.2700006E-01
   7139.00  6.2264315E-01
   7139.33  6.1760060E-01
   7139.67  6.1188957E-01
   7140.00  6.0557447E-01
   7140.33  5.9878834E-01
   7140.67  5.9184198E-01
   7141.00  5.8496699E-01
   7141.33  5.7843466E-01
   7141.67  5.7239673E-01
   7142.00  5.6698618E-01
   7142.33  5.6241404E-01
   7142.67  5.5866842E-01
   7143.00  5.5579859E-01
   7143.33  5.5394733E-01
   7143.67  5.5299307E-01
   7144.00  5.5290368E-01
   7144.33  5.5371162E-01
   7144.67  5.5521104E-01
   7145.00  5.5727383E-01
   7145.33  5.5974891E-01
   7145.67  5.6234533E-01
   7146.00  5.6482439E-01
   7146.33  5.6684655E-01
   7146.67  5.6819507E-01
   7147.00  5.6868659E-01
   7147.33  5.6806321E-01
   7147.67  5.6640570E-01
   7148.00  5.6373604E-01
   7148.33  5.6002320E-01
   7148.67  5.5551784E-01
   7149.00  5.5034538E-01
   7149.33  5.4457593E-01
   7149.67  5.3839546E-01
   7150.00  5.3189192E-01
   7150.33  5.2512013E-01
   7150.67  5.1817425E-01
   7151.00  5.1109150E-01
   7151.33  5.0387645E-01
   7151.67  4.9653569E-01
   7152.00  4.8904054E-01
   7152.33  4.8131249E-01
   7152.67  4.7331912E-01
   7153.00  4.6500774E-01
   7153.33  4.5626785E-01
   7153.67  4.4709803E-01
   7154.00  4.3747630E-01
   7154.33  4.2734777E-01
   7154.67  4.1680202E-01
   7155.00  4.0589299E-01
   7155.33  3.9467716E-01
   7155.67  3.8330419E-01
   7156.00  3.7188976E-01
   7156.33  3.6059516E-01
   7156.67  3.4956301E-01
   7157.00  3.3892902E-01
   7157.33  3.2891632E-01
   7157.67  3.1960000E-01
   7158.00  3.1109188E-01
   7158.33  3.0361800E-01
   7158.67  2.9714928E-01
   7159.00  2.9173576E-01
   7159.33  2.8754325E-01
   7159.67  2.8443813E-01
   7160.00  2.8240161E-01
   7160.33  2.8151855E-01
   7160.67  2.8159893E-01
   7161.00  2.8257962E-01
   7161.33  2.8448337E-01
   7161.67  2.8712589E-01
   7162.00  2.9043560E-01
   7162.33  2.9439632E-01
   7162.67  2.9884785E-01
   7163.00  3.0371978E-01
   7163.33  3.0897381E-01
   7163.67  3.1448179E-01
   7164.00  3.2016373E-01
   7164.33  3.2593384E-01
   7164.67  3.3168895E-01
   7165.00  3.3736134E-01
   7165.33  3.4286288E-01
   7165.67  3.4814962E-01
   7166.00  3.5317364E-01
   7166.33  3.5785060E-01
   7166.67  3.6218602E-01
   7167.00  3.6616239E-01
   7167.33  3.6972651E-01
   7167.67  3.7293001E-01
   7168.00  3.7578769E-01
   7168.33  3.7828735E-01
   7168.67  3.8050538E-01
   7169.00  3.8247844E-01
   7169.33  3.8422854E-01
   7169.67  3.8582882E-01
   7170.00  3.8732017E-01
   7170.33  3.8873889E-01
   7170.67  3.9012919E-01
   7171.00  3.9150971E-01
   7171.33  3.9287306E-01
   7171.67  3.9416162E-01
   7172.00  3.9526674E-01
