    FDMNES
    energy     <xanes>
   7097.00  4.3843117E-03
   7097.33  4.4785892E-03
   7097.67  4.5769856E-03
   7098.00  4.6797809E-03
   7098.33  4.7879309E-03
   7098.67  4.9012437E-03
   7099.00  5.0201029E-03
   7099.33  5.1457635E-03
   7099.67  5.2780326E-03
   7100.00  5.4174514E-03
   7100.33  5.5657134E-03
   7100.67  5.7226472E-03
   7101.00  5.8890409E-03
   7101.33  6.0672565E-03
   7101.67  6.2571922E-03
   7102.00  6.4600416E-03
   7102.33  6.6792304E-03
   7102.67  6.9148347E-03
   7103.00  7.1687478E-03
   7103.33  7.4461818E-03
   7103.67  7.7476373E-03
   7104.00  8.0762934E-03
   7104.33  8.4405666E-03
   7104.67  8.8419785E-03
   7105.00  9.2862639E-03
   7105.33  9.7880884E-03
   7105.67  1.0351560E-02
   7106.00  1.0988038E-02
   7106.33  1.1725790E-02
   7106.67  1.2576144E-02
   7107.00  1.3564672E-02
   7107.33  1.4754101E-02
   7107.67  1.6179317E-02
   7108.00  1.7909676E-02
   7108.33  2.0117160E-02
   7108.67  2.2935396E-02
   7109.00  2.6617003E-02
   7109.33  3.1829166E-02
   7109.67  3.9326620E-02
   7110.00  5.0590406E-02
   7110.33  6.9842195E-02
   7110.67  1.0104855E-01
   7111.00  1.4282803E-01
   7111.33  1.7958202E-01
   7111.67  2.0862676E-01
   7112.00  2.3788884E-01
   7112.33  2.7739117E-01
   7112.67  3.2197788E-01
   7113.00  3.4705422E-01
   7113.33  3.1073124E-01
   7113.67  2.4273547E-01
   7114.00  1.8118764E-01
   7114.33  1.4180207E-01
   7114.67  1.1990444E-01
   7115.00  1.1129218E-01
   7115.33  1.0994751E-01
   7115.67  1.0711879E-01
   7116.00  1.0057874E-01
   7116.33  9.3560559E-02
   7116.67  8.8593933E-02
   7117.00  8.5991618E-02
   7117.33  8.5723328E-02
   7117.67  8.7086806E-02
   7118.00  8.9477930E-02
   7118.33  9.1821638E-02
   7118.67  9.3249295E-02
   7119.00  9.3646250E-02
   7119.33  9.3323035E-02
   7119.67  9.2955641E-02
   7120.00  9.2906117E-02
   7120.33  9.3347513E-02
   7120.67  9.4371279E-02
   7121.00  9.6436767E-02
   7121.33  1.0035727E-01
   7121.67  1.0631556E-01
   7122.00  1.1456833E-01
   7122.33  1.2575227E-01
   7122.67  1.3979737E-01
   7123.00  1.5678795E-01
   7123.33  1.7686566E-01
   7123.67  1.9894814E-01
   7124.00  2.2172748E-01
   7124.33  2.4281371E-01
   7124.67  2.6024159E-01
   7125.00  2.7270140E-01
   7125.33  2.7903132E-01
   7125.67  2.8108756E-01
   7126.00  2.8105005E-01
   7126.33  2.8177763E-01
   7126.67  2.8504271E-01
   7127.00  2.9136316E-01
   7127.33  3.0088770E-01
   7127.67  3.1291574E-01
   7128.00  3.2725106E-01
   7128.33  3.4371566E-01
   7128.67  3.6129774E-01
   7129.00  3.7952275E-01
   7129.33  3.9889575E-01
   7129.67  4.1998882E-01
   7130.00  4.4253512E-01
   7130.33  4.6546000E-01
   7130.67  4.8801242E-01
   7131.00  5.1008072E-01
   7131.33  5.3156199E-01
   7131.67  5.5234916E-01
   7132.00  5.7208713E-01
   7132.33  5.8968246E-01
   7132.67  6.0384524E-01
   7133.00  6.1296377E-01
   7133.33  6.1538559E-01
   7133.67  6.1342250E-01
   7134.00  6.1012177E-01
   7134.33  6.0908269E-01
   7134.67  6.1114321E-01
   7135.00  6.1522293E-01
   7135.33  6.1940784E-01
   7135.67  6.2282561E-01
   7136.00  6.2571686E-01
   7136.33  6.2858580E-01
   7136.67  6.3166223E-01
   7137.00  6.3500071E-01
   7137.33  6.3871132E-01
   7137.67  6.4275848E-01
   7138.00  6.4705442E-01
   7138.33  6.5150591E-01
   7138.67  6.5606652E-01
   7139.00  6.6076423E-01
   7139.33  6.6565768E-01
   7139.67  6.7073612E-01
   7140.00  6.7598628E-01
   7140.33  6.8139098E-01
   7140.67  6.8688156E-01
   7141.00  6.9240350E-01
   7141.33  6.9788290E-01
   7141.67  7.0323427E-01
   7142.00  7.0834259E-01
   7142.33  7.1295863E-01
   7142.67  7.1687557E-01
   7143.00  7.1982200E-01
   7143.33  7.2127271E-01
   7143.67  7.2100600E-01
   7144.00  7.1868699E-01
   7144.33  7.1366331E-01
   7144.67  7.0599119E-01
   7145.00  6.9561487E-01
   7145.33  6.8242127E-01
   7145.67  6.6726580E-01
   7146.00  6.5087930E-01
   7146.33  6.3430905E-01
   7146.67  6.1870449E-01
   7147.00  6.0491305E-01
   7147.33  5.9384210E-01
   7147.67  5.8531469E-01
   7148.00  5.7914916E-01
   7148.33  5.7519266E-01
   7148.67  5.7274200E-01
   7149.00  5.7142397E-01
   7149.33  5.7095939E-01
   7149.67  5.7096106E-01
   7150.00  5.7124449E-01
   7150.33  5.7168033E-01
   7150.67  5.7216585E-01
   7151.00  5.7266451E-01
   7151.33  5.7316455E-01
   7151.67  5.7367581E-01
   7152.00  5.7421663E-01
   7152.33  5.7481793E-01
   7152.67  5.7549153E-01
   7153.00  5.7624322E-01
   7153.33  5.7707300E-01
   7153.67  5.7794716E-01
   7154.00  5.7883427E-01
   7154.33  5.7968889E-01
   7154.67  5.8047365E-01
   7155.00  5.8115751E-01
   7155.33  5.8169470E-01
   7155.67  5.8207973E-01
   7156.00  5.8229962E-01
   7156.33  5.8232147E-01
   7156.67  5.8215728E-01
   7157.00  5.8179775E-01
   7157.33  5.8120521E-01
   7157.67  5.8039289E-01
   7158.00  5.7934900E-01
   7158.33  5.7802707E-01
   7158.67  5.7644016E-01
   7159.00  5.7457131E-01
   7159.33  5.7236176E-01
   7159.67  5.6982935E-01
   7160.00  5.6696066E-01
   7160.33  5.6370969E-01
   7160.67  5.6013099E-01
   7161.00  5.5624310E-01
   7161.33  5.5204713E-01
   7161.67  5.4763012E-01
   7162.00  5.4304911E-01
   7162.33  5.3836217E-01
   7162.67  5.3365129E-01
   7163.00  5.2897918E-01
   7163.33  5.2442819E-01
   7163.67  5.2004321E-01
   7164.00  5.1586263E-01
   7164.33  5.1194314E-01
   7164.67  5.0826491E-01
   7165.00  5.0482397E-01
   7165.33  5.0163376E-01
   7165.67  4.9864849E-01
   7166.00  4.9585664E-01
   7166.33  4.9327840E-01
   7166.67  4.9089885E-01
   7167.00  4.8873333E-01
   7167.33  4.8683244E-01
   7167.67  4.8518492E-01
   7168.00  4.8379915E-01
   7168.33  4.8270497E-01
   7168.67  4.8185165E-01
   7169.00  4.8121191E-01
   7169.33  4.8076560E-01
   7169.67  4.8044355E-01
   7170.00  4.8020406E-01
   7170.33  4.8000721E-01
   7170.67  4.7981264E-01
   7171.00  4.7960014E-01
   7171.33  4.7935858E-01
   7171.67  4.7910382E-01
   7172.00  4.7886347E-01
