    FDMNES
    energy     <xanes>
   7097.00  5.3365714E-03
   7097.33  5.4661931E-03
   7097.67  5.6017929E-03
   7098.00  5.7437745E-03
   7098.33  5.8935194E-03
   7098.67  6.0507417E-03
   7099.00  6.2159882E-03
   7099.33  6.3910584E-03
   7099.67  6.5756544E-03
   7100.00  6.7705347E-03
   7100.33  6.9780994E-03
   7100.67  7.1980605E-03
   7101.00  7.4315002E-03
   7101.33  7.6817094E-03
   7101.67  7.9484596E-03
   7102.00  8.2333463E-03
   7102.33  8.5410329E-03
   7102.67  8.8714589E-03
   7103.00  9.2270701E-03
   7103.33  9.6147428E-03
   7103.67  1.0034826E-02
   7104.00  1.0491252E-02
   7104.33  1.0994668E-02
   7104.67  1.1546390E-02
   7105.00  1.2153131E-02
   7105.33  1.2832425E-02
   7105.67  1.3587940E-02
   7106.00  1.4432043E-02
   7106.33  1.5396064E-02
   7106.67  1.6489784E-02
   7107.00  1.7738501E-02
   7107.33  1.9204845E-02
   7107.67  2.0916638E-02
   7108.00  2.2934053E-02
   7108.33  2.5405262E-02
   7108.67  2.8423591E-02
   7109.00  3.2171222E-02
   7109.33  3.7112834E-02
   7109.67  4.3681807E-02
   7110.00  5.2717481E-02
   7110.33  6.6556597E-02
   7110.67  8.7779993E-02
   7111.00  1.1894982E-01
   7111.33  1.6010050E-01
   7111.67  2.0441059E-01
   7112.00  2.5009873E-01
   7112.33  3.0606762E-01
   7112.67  3.7969491E-01
   7113.00  4.8507155E-01
   7113.33  6.1323007E-01
   7113.67  6.7865024E-01
   7114.00  6.4040509E-01
   7114.33  5.5315668E-01
   7114.67  4.7031262E-01
   7115.00  3.9620811E-01
   7115.33  3.3593179E-01
   7115.67  2.9258212E-01
   7116.00  2.6507066E-01
   7116.33  2.4783989E-01
   7116.67  2.3129566E-01
   7117.00  2.1199932E-01
   7117.33  1.9202332E-01
   7117.67  1.7470323E-01
   7118.00  1.6104110E-01
   7118.33  1.5108811E-01
   7118.67  1.4362281E-01
   7119.00  1.3800112E-01
   7119.33  1.3365051E-01
   7119.67  1.3001167E-01
   7120.00  1.2713432E-01
   7120.33  1.2529476E-01
   7120.67  1.2430663E-01
   7121.00  1.2412829E-01
   7121.33  1.2500034E-01
   7121.67  1.2691422E-01
   7122.00  1.2991357E-01
   7122.33  1.3413138E-01
   7122.67  1.3942779E-01
   7123.00  1.4587882E-01
   7123.33  1.5382802E-01
   7123.67  1.6329020E-01
   7124.00  1.7434006E-01
   7124.33  1.8710028E-01
   7124.67  2.0118371E-01
   7125.00  2.1641802E-01
   7125.33  2.3288296E-01
   7125.67  2.5063663E-01
   7126.00  2.7002495E-01
   7126.33  2.9168669E-01
   7126.67  3.1534445E-01
   7127.00  3.4041648E-01
   7127.33  3.6578078E-01
   7127.67  3.9042193E-01
   7128.00  4.1444298E-01
   7128.33  4.3975322E-01
   7128.67  4.6901980E-01
   7129.00  5.0427304E-01
   7129.33  5.4736051E-01
   7129.67  5.9677745E-01
   7130.00  6.5085937E-01
   7130.33  7.0716546E-01
   7130.67  7.6284249E-01
   7131.00  8.1625711E-01
   7131.33  8.6579811E-01
   7131.67  9.1108164E-01
   7132.00  9.5131971E-01
   7132.33  9.8427026E-01
   7132.67  1.0085096E+00
   7133.00  1.0216259E+00
   7133.33  1.0193252E+00
   7133.67  1.0021468E+00
   7134.00  9.7082451E-01
   7134.33  9.2665942E-01
   7134.67  8.7490938E-01
   7135.00  8.1891681E-01
   7135.33  7.6187432E-01
   7135.67  7.0637814E-01
   7136.00  6.5397279E-01
   7136.33  6.0653932E-01
   7136.67  5.6451567E-01
   7137.00  5.2855202E-01
   7137.33  5.0002185E-01
   7137.67  4.7833121E-01
   7138.00  4.6332132E-01
   7138.33  4.5510210E-01
   7138.67  4.5189381E-01
   7139.00  4.5268406E-01
   7139.33  4.5670881E-01
   7139.67  4.6269025E-01
   7140.00  4.7004596E-01
   7140.33  4.7842537E-01
   7140.67  4.8741563E-01
   7141.00  4.9683522E-01
   7141.33  5.0654081E-01
   7141.67  5.1633784E-01
   7142.00  5.2609245E-01
   7142.33  5.3564111E-01
   7142.67  5.4488874E-01
   7143.00  5.5374612E-01
   7143.33  5.6205251E-01
   7143.67  5.6977786E-01
   7144.00  5.7685214E-01
   7144.33  5.8311395E-01
   7144.67  5.8859618E-01
   7145.00  5.9326385E-01
   7145.33  5.9699335E-01
   7145.67  5.9989518E-01
   7146.00  6.0199549E-01
   7146.33  6.0325388E-01
   7146.67  6.0383713E-01
   7147.00  6.0381973E-01
   7147.33  6.0323386E-01
   7147.67  6.0224267E-01
   7148.00  6.0093288E-01
   7148.33  5.9937666E-01
   7148.67  5.9769679E-01
   7149.00  5.9596973E-01
   7149.33  5.9427961E-01
   7149.67  5.9269089E-01
   7150.00  5.9125292E-01
   7150.33  5.9003502E-01
   7150.67  5.8903946E-01
   7151.00  5.8827366E-01
   7151.33  5.8776466E-01
   7151.67  5.8747312E-01
   7152.00  5.8738264E-01
   7152.33  5.8749029E-01
   7152.67  5.8774582E-01
   7153.00  5.8812519E-01
   7153.33  5.8861638E-01
   7153.67  5.8918924E-01
   7154.00  5.8983558E-01
   7154.33  5.9056406E-01
   7154.67  5.9137394E-01
   7155.00  5.9227765E-01
   7155.33  5.9330682E-01
   7155.67  5.9446462E-01
   7156.00  5.9576178E-01
   7156.33  5.9721978E-01
   7156.67  5.9881098E-01
   7157.00  6.0051395E-01
   7157.33  6.0229392E-01
   7157.67  6.0407561E-01
   7158.00  6.0578305E-01
   7158.33  6.0728692E-01
   7158.67  6.0848823E-01
   7159.00  6.0927537E-01
   7159.33  6.0944906E-01
   7159.67  6.0895473E-01
   7160.00  6.0770210E-01
   7160.33  6.0550786E-01
   7160.67  6.0243519E-01
   7161.00  5.9848348E-01
   7161.33  5.9358935E-01
   7161.67  5.8793755E-01
   7162.00  5.8162053E-01
   7162.33  5.7470225E-01
   7162.67  5.6739589E-01
   7163.00  5.5982963E-01
   7163.33  5.5213382E-01
   7163.67  5.4445362E-01
   7164.00  5.3688463E-01
   7164.33  5.2954284E-01
   7164.67  5.2247237E-01
   7165.00  5.1571607E-01
   7165.33  5.0934955E-01
   7165.67  5.0334476E-01
   7166.00  4.9770196E-01
   7166.33  4.9245169E-01
   7166.67  4.8752607E-01
   7167.00  4.8289726E-01
   7167.33  4.7855828E-01
   7167.67  4.7443403E-01
   7168.00  4.7048720E-01
   7168.33  4.6669176E-01
   7168.67  4.6298950E-01
   7169.00  4.5934573E-01
   7169.33  4.5572539E-01
   7169.67  4.5210234E-01
   7170.00  4.4846928E-01
   7170.33  4.4483159E-01
   7170.67  4.4121625E-01
   7171.00  4.3766868E-01
   7171.33  4.3430279E-01
   7171.67  4.3126350E-01
   7172.00  4.2875684E-01
