    FDMNES
    energy     <xanes>
   7097.00  5.0688900E-03
   7097.33  5.1841175E-03
   7097.67  5.3043879E-03
   7098.00  5.4300308E-03
   7098.33  5.5621934E-03
   7098.67  5.7006207E-03
   7099.00  5.8457574E-03
   7099.33  5.9990887E-03
   7099.67  6.1603479E-03
   7100.00  6.3301501E-03
   7100.33  6.5104659E-03
   7100.67  6.7010352E-03
   7101.00  6.9027342E-03
   7101.33  7.1182542E-03
   7101.67  7.3473837E-03
   7102.00  7.5914156E-03
   7102.33  7.8541566E-03
   7102.67  8.1355372E-03
   7103.00  8.4375481E-03
   7103.33  8.7658100E-03
   7103.67  9.1206078E-03
   7104.00  9.5051726E-03
   7104.33  9.9282624E-03
   7104.67  1.0391023E-02
   7105.00  1.0899061E-02
   7105.33  1.1467007E-02
   7105.67  1.2098169E-02
   7106.00  1.2803165E-02
   7106.33  1.3608828E-02
   7106.67  1.4524367E-02
   7107.00  1.5572476E-02
   7107.33  1.6809303E-02
   7107.67  1.8262630E-02
   7108.00  1.9990340E-02
   7108.33  2.2135847E-02
   7108.67  2.4800881E-02
   7109.00  2.8180745E-02
   7109.33  3.2784316E-02
   7109.67  3.9146467E-02
   7110.00  4.8311990E-02
   7110.33  6.3260568E-02
   7110.67  8.7289644E-02
   7111.00  1.2243931E-01
   7111.33  1.6280953E-01
   7111.67  1.9640210E-01
   7112.00  2.2361981E-01
   7112.33  2.5334388E-01
   7112.67  2.7792472E-01
   7113.00  2.8655520E-01
   7113.33  2.8802853E-01
   7113.67  2.9981541E-01
   7114.00  3.1921867E-01
   7114.33  3.3009902E-01
   7114.67  3.3047440E-01
   7115.00  3.2508353E-01
   7115.33  3.1380614E-01
   7115.67  2.9959002E-01
   7116.00  2.8797162E-01
   7116.33  2.8252799E-01
   7116.67  2.8099357E-01
   7117.00  2.8295484E-01
   7117.33  2.8764872E-01
   7117.67  2.8656675E-01
   7118.00  2.7181685E-01
   7118.33  2.4431001E-01
   7118.67  2.1529811E-01
   7119.00  1.9032594E-01
   7119.33  1.7187190E-01
   7119.67  1.5866926E-01
   7120.00  1.4981499E-01
   7120.33  1.4477110E-01
   7120.67  1.4234469E-01
   7121.00  1.4198790E-01
   7121.33  1.4351181E-01
   7121.67  1.4676751E-01
   7122.00  1.5210743E-01
   7122.33  1.6034398E-01
   7122.67  1.7152548E-01
   7123.00  1.8572423E-01
   7123.33  2.0304634E-01
   7123.67  2.2264094E-01
   7124.00  2.4394579E-01
   7124.33  2.6647989E-01
   7124.67  2.8961230E-01
   7125.00  3.1289095E-01
   7125.33  3.3551235E-01
   7125.67  3.5671501E-01
   7126.00  3.7604131E-01
   7126.33  3.9347523E-01
   7126.67  4.1010827E-01
   7127.00  4.2674506E-01
   7127.33  4.4363650E-01
   7127.67  4.5999921E-01
   7128.00  4.7508185E-01
   7128.33  4.8897265E-01
   7128.67  5.0300838E-01
   7129.00  5.1759502E-01
   7129.33  5.3096239E-01
   7129.67  5.4060969E-01
   7130.00  5.4600374E-01
   7130.33  5.4896391E-01
   7130.67  5.5245950E-01
   7131.00  5.5796729E-01
   7131.33  5.6642715E-01
   7131.67  5.7724152E-01
   7132.00  5.8974504E-01
   7132.33  6.0318001E-01
   7132.67  6.1687813E-01
   7133.00  6.3070254E-01
   7133.33  6.4481916E-01
   7133.67  6.5944245E-01
   7134.00  6.7472921E-01
   7134.33  6.9072818E-01
   7134.67  7.0695808E-01
   7135.00  7.2270023E-01
   7135.33  7.3651941E-01
   7135.67  7.4727489E-01
   7136.00  7.5403896E-01
   7136.33  7.5582876E-01
   7136.67  7.5363191E-01
   7137.00  7.4842519E-01
   7137.33  7.4154473E-01
   7137.67  7.3473053E-01
   7138.00  7.2911214E-01
   7138.33  7.2589867E-01
   7138.67  7.2530966E-01
   7139.00  7.2738152E-01
   7139.33  7.3198535E-01
   7139.67  7.3792187E-01
   7140.00  7.4400848E-01
   7140.33  7.4836239E-01
   7140.67  7.4950335E-01
   7141.00  7.4637502E-01
   7141.33  7.3793765E-01
   7141.67  7.2521432E-01
   7142.00  7.0908067E-01
   7142.33  6.9049276E-01
   7142.67  6.7085480E-01
   7143.00  6.5092737E-01
   7143.33  6.3137563E-01
   7143.67  6.1255811E-01
   7144.00  5.9470164E-01
   7144.33  5.7813759E-01
   7144.67  5.6286607E-01
   7145.00  5.4898775E-01
   7145.33  5.3675804E-01
   7145.67  5.2598658E-01
   7146.00  5.1662320E-01
   7146.33  5.0876448E-01
   7146.67  5.0216745E-01
   7147.00  4.9676291E-01
   7147.33  4.9260500E-01
   7147.67  4.8946926E-01
   7148.00  4.8728121E-01
   7148.33  4.8605735E-01
   7148.67  4.8559136E-01
   7149.00  4.8578730E-01
   7149.33  4.8658417E-01
   7149.67  4.8777095E-01
   7150.00  4.8921533E-01
   7150.33  4.9077288E-01
   7150.67  4.9228423E-01
   7151.00  4.9364868E-01
   7151.33  4.9476270E-01
   7151.67  4.9562247E-01
   7152.00  4.9623056E-01
   7152.33  4.9658738E-01
   7152.67  4.9676571E-01
   7153.00  4.9681013E-01
   7153.33  4.9676294E-01
   7153.67  4.9668327E-01
   7154.00  4.9660934E-01
   7154.33  4.9658752E-01
   7154.67  4.9664863E-01
   7155.00  4.9682063E-01
   7155.33  4.9714923E-01
   7155.67  4.9764007E-01
   7156.00  4.9830800E-01
   7156.33  4.9918800E-01
   7156.67  5.0026139E-01
   7157.00  5.0152662E-01
   7157.33  5.0299921E-01
   7157.67  5.0464309E-01
   7158.00  5.0644318E-01
   7158.33  5.0839524E-01
   7158.67  5.1045839E-01
   7159.00  5.1261060E-01
   7159.33  5.1483347E-01
   7159.67  5.1709275E-01
   7160.00  5.1936591E-01
   7160.33  5.2162611E-01
   7160.67  5.2385107E-01
   7161.00  5.2601978E-01
   7161.33  5.2809174E-01
   7161.67  5.3004805E-01
   7162.00  5.3186433E-01
   7162.33  5.3348929E-01
   7162.67  5.3491126E-01
   7163.00  5.3610541E-01
   7163.33  5.3703024E-01
   7163.67  5.3771023E-01
   7164.00  5.3813492E-01
   7164.33  5.3826129E-01
   7164.67  5.3811919E-01
   7165.00  5.3771055E-01
   7165.33  5.3700991E-01
   7165.67  5.3606076E-01
   7166.00  5.3487481E-01
   7166.33  5.3343814E-01
   7166.67  5.3179170E-01
   7167.00  5.2994688E-01
   7167.33  5.2790030E-01
   7167.67  5.2569530E-01
   7168.00  5.2334163E-01
   7168.33  5.2083258E-01
   7168.67  5.1820080E-01
   7169.00  5.1546319E-01
   7169.33  5.1263199E-01
   7169.67  5.0974375E-01
   7170.00  5.0682488E-01
   7170.33  5.0391204E-01
   7170.67  5.0104789E-01
   7171.00  4.9827873E-01
   7171.33  4.9569998E-01
   7171.67  4.9340841E-01
   7172.00  4.9154817E-01
