    FDMNES
    energy     <xanes>
   7097.00  5.4372421E-03
   7097.33  5.5664932E-03
   7097.67  5.7016299E-03
   7098.00  5.8430492E-03
   7098.33  5.9921105E-03
   7098.67  6.1485328E-03
   7099.00  6.3128551E-03
   7099.33  6.4868512E-03
   7099.67  6.6702306E-03
   7100.00  6.8637447E-03
   7100.33  7.0697660E-03
   7100.67  7.2880200E-03
   7101.00  7.5195854E-03
   7101.33  7.7677313E-03
   7101.67  8.0322549E-03
   7102.00  8.3147612E-03
   7102.33  8.6199186E-03
   7102.67  8.9477194E-03
   7103.00  9.3006575E-03
   7103.33  9.6856965E-03
   7103.67  1.0103306E-02
   7104.00  1.0557571E-02
   7104.33  1.1059463E-02
   7104.67  1.1610601E-02
   7105.00  1.2218144E-02
   7105.33  1.2900643E-02
   7105.67  1.3662592E-02
   7106.00  1.4517707E-02
   7106.33  1.5500455E-02
   7106.67  1.6623209E-02
   7107.00  1.7915641E-02
   7107.33  1.9450921E-02
   7107.67  2.1266387E-02
   7108.00  2.3438750E-02
   7108.33  2.6157935E-02
   7108.67  2.9561522E-02
   7109.00  3.3912214E-02
   7109.33  3.9895432E-02
   7109.67  4.8241053E-02
   7110.00  6.0376326E-02
   7110.33  8.0426984E-02
   7110.67  1.1335973E-01
   7111.00  1.6237259E-01
   7111.33  2.1241040E-01
   7111.67  2.6104134E-01
   7112.00  3.0437407E-01
   7112.33  2.9751676E-01
   7112.67  2.9598425E-01
   7113.00  3.2624337E-01
   7113.33  3.7057563E-01
   7113.67  4.1345259E-01
   7114.00  4.5176770E-01
   7114.33  4.5692925E-01
   7114.67  4.5358401E-01
   7115.00  4.5071063E-01
   7115.33  4.0780750E-01
   7115.67  3.4228374E-01
   7116.00  2.8610193E-01
   7116.33  2.5261638E-01
   7116.67  2.3543789E-01
   7117.00  2.2971251E-01
   7117.33  2.2920723E-01
   7117.67  2.2269768E-01
   7118.00  2.0505926E-01
   7118.33  1.8339157E-01
   7118.67  1.6706444E-01
   7119.00  1.5782356E-01
   7119.33  1.5486104E-01
   7119.67  1.5534389E-01
   7120.00  1.5731213E-01
   7120.33  1.5771514E-01
   7120.67  1.5488958E-01
   7121.00  1.5018878E-01
   7121.33  1.4673638E-01
   7121.67  1.4586421E-01
   7122.00  1.4763153E-01
   7122.33  1.5273951E-01
   7122.67  1.6130246E-01
   7123.00  1.7299722E-01
   7123.33  1.8743852E-01
   7123.67  2.0385960E-01
   7124.00  2.2195592E-01
   7124.33  2.4146236E-01
   7124.67  2.6150103E-01
   7125.00  2.8090706E-01
   7125.33  2.9751058E-01
   7125.67  3.1041855E-01
   7126.00  3.2005095E-01
   7126.33  3.2829296E-01
   7126.67  3.3793687E-01
   7127.00  3.5102321E-01
   7127.33  3.7007935E-01
   7127.67  3.9575036E-01
   7128.00  4.2865200E-01
   7128.33  4.6960401E-01
   7128.67  5.1671036E-01
   7129.00  5.6844357E-01
   7129.33  6.2258928E-01
   7129.67  6.7600366E-01
   7130.00  7.2632626E-01
   7130.33  7.7083249E-01
   7130.67  8.0901921E-01
   7131.00  8.4051873E-01
   7131.33  8.6504617E-01
   7131.67  8.8475954E-01
   7132.00  9.0093997E-01
   7132.33  9.1443127E-01
   7132.67  9.2612055E-01
   7133.00  9.3607141E-01
   7133.33  9.4367408E-01
   7133.67  9.4840657E-01
   7134.00  9.4919282E-01
   7134.33  9.4369283E-01
   7134.67  9.3128445E-01
   7135.00  9.1205400E-01
   7135.33  8.8715589E-01
   7135.67  8.5942930E-01
   7136.00  8.3003481E-01
   7136.33  7.9931287E-01
   7136.67  7.6763413E-01
   7137.00  7.3533510E-01
   7137.33  7.0296349E-01
   7137.67  6.7124213E-01
   7138.00  6.4094191E-01
   7138.33  6.1331390E-01
   7138.67  5.8888393E-01
   7139.00  5.6812923E-01
   7139.33  5.5175347E-01
   7139.67  5.3914899E-01
   7140.00  5.3001672E-01
   7140.33  5.2426858E-01
   7140.67  5.2104584E-01
   7141.00  5.1997118E-01
   7141.33  5.2088270E-01
   7141.67  5.2322203E-01
   7142.00  5.2671116E-01
   7142.33  5.3111069E-01
   7142.67  5.3594153E-01
   7143.00  5.4084812E-01
   7143.33  5.4535527E-01
   7143.67  5.4909853E-01
   7144.00  5.5178225E-01
   7144.33  5.5300409E-01
   7144.67  5.5282224E-01
   7145.00  5.5125531E-01
   7145.33  5.4827236E-01
   7145.67  5.4423554E-01
   7146.00  5.3935399E-01
   7146.33  5.3380584E-01
   7146.67  5.2790444E-01
   7147.00  5.2183416E-01
   7147.33  5.1578170E-01
   7147.67  5.0989655E-01
   7148.00  5.0428433E-01
   7148.33  4.9909267E-01
   7148.67  4.9435570E-01
   7149.00  4.9012676E-01
   7149.33  4.8652006E-01
   7149.67  4.8349656E-01
   7150.00  4.8107213E-01
   7150.33  4.7933102E-01
   7150.67  4.7819573E-01
   7151.00  4.7765752E-01
   7151.33  4.7777055E-01
   7151.67  4.7843529E-01
   7152.00  4.7961984E-01
   7152.33  4.8133372E-01
   7152.67  4.8345993E-01
   7153.00  4.8594231E-01
   7153.33  4.8874236E-01
   7153.67  4.9174427E-01
   7154.00  4.9487612E-01
   7154.33  4.9806000E-01
   7154.67  5.0121059E-01
   7155.00  5.0426648E-01
   7155.33  5.0714900E-01
   7155.67  5.0983400E-01
   7156.00  5.1229818E-01
   7156.33  5.1450194E-01
   7156.67  5.1648342E-01
   7157.00  5.1826541E-01
   7157.33  5.1986841E-01
   7157.67  5.2136428E-01
   7158.00  5.2280450E-01
   7158.33  5.2425576E-01
   7158.67  5.2578513E-01
   7159.00  5.2745082E-01
   7159.33  5.2934236E-01
   7159.67  5.3149207E-01
   7160.00  5.3394073E-01
   7160.33  5.3676421E-01
   7160.67  5.3993653E-01
   7161.00  5.4345288E-01
   7161.33  5.4732085E-01
   7161.67  5.5143717E-01
   7162.00  5.5571918E-01
   7162.33  5.6005082E-01
   7162.67  5.6428808E-01
   7163.00  5.6830377E-01
   7163.33  5.7190301E-01
   7163.67  5.7499422E-01
   7164.00  5.7747658E-01
   7164.33  5.7917376E-01
   7164.67  5.8011747E-01
   7165.00  5.8028733E-01
   7165.33  5.7959467E-01
   7165.67  5.7817195E-01
   7166.00  5.7606666E-01
   7166.33  5.7326633E-01
   7166.67  5.6991824E-01
   7167.00  5.6608341E-01
   7167.33  5.6177745E-01
   7167.67  5.5711579E-01
   7168.00  5.5214923E-01
   7168.33  5.4690227E-01
   7168.67  5.4145822E-01
   7169.00  5.3585904E-01
   7169.33  5.3013859E-01
   7169.67  5.2436062E-01
   7170.00  5.1857104E-01
   7170.33  5.1283354E-01
   7170.67  5.0721242E-01
   7171.00  5.0178641E-01
   7171.33  4.9673320E-01
   7171.67  4.9223947E-01
   7172.00  4.8858880E-01
