    FDMNES
    energy     <xanes>
   7097.00  5.2515966E-03
   7097.33  5.3737447E-03
   7097.67  5.5013624E-03
   7098.00  5.6348144E-03
   7098.33  5.7753572E-03
   7098.67  5.9227242E-03
   7099.00  6.0774097E-03
   7099.33  6.2410486E-03
   7099.67  6.4133644E-03
   7100.00  6.5950441E-03
   7100.33  6.7882685E-03
   7100.67  6.9927729E-03
   7101.00  7.2095410E-03
   7101.33  7.4415680E-03
   7101.67  7.6886501E-03
   7102.00  7.9522460E-03
   7102.33  8.2366165E-03
   7102.67  8.5417272E-03
   7103.00  8.8698343E-03
   7103.33  9.2272642E-03
   7103.67  9.6143968E-03
   7104.00  1.0034907E-02
   7104.33  1.0498703E-02
   7104.67  1.1007156E-02
   7105.00  1.1566658E-02
   7105.33  1.2193816E-02
   7105.67  1.2892472E-02
   7106.00  1.3674722E-02
   7106.33  1.4571048E-02
   7106.67  1.5591940E-02
   7107.00  1.6763122E-02
   7107.33  1.8148096E-02
   7107.67  1.9777952E-02
   7108.00  2.1717488E-02
   7108.33  2.4126790E-02
   7108.67  2.7117117E-02
   7109.00  3.0902064E-02
   7109.33  3.6034899E-02
   7109.67  4.3082833E-02
   7110.00  5.3150651E-02
   7110.33  6.9384448E-02
   7110.67  9.5387040E-02
   7111.00  1.3388398E-01
   7111.33  1.7808576E-01
   7111.67  2.1679311E-01
   7112.00  2.5492371E-01
   7112.33  2.9832026E-01
   7112.67  3.4496290E-01
   7113.00  3.9773592E-01
   7113.33  4.4057818E-01
   7113.67  4.4456005E-01
   7114.00  4.2711616E-01
   7114.33  3.9835194E-01
   7114.67  3.5145483E-01
   7115.00  2.9989994E-01
   7115.33  2.6087754E-01
   7115.67  2.3578436E-01
   7116.00  2.2240351E-01
   7116.33  2.1821453E-01
   7116.67  2.1711959E-01
   7117.00  2.1247819E-01
   7117.33  1.9876801E-01
   7117.67  1.8182244E-01
   7118.00  1.6748955E-01
   7118.33  1.5891799E-01
   7118.67  1.5483855E-01
   7119.00  1.5403134E-01
   7119.33  1.5517305E-01
   7119.67  1.5625075E-01
   7120.00  1.5592767E-01
   7120.33  1.5407732E-01
   7120.67  1.5238823E-01
   7121.00  1.5196970E-01
   7121.33  1.5356631E-01
   7121.67  1.5763281E-01
   7122.00  1.6499189E-01
   7122.33  1.7662129E-01
   7122.67  1.9215486E-01
   7123.00  2.1142630E-01
   7123.33  2.3351977E-01
   7123.67  2.5510320E-01
   7124.00  2.7278307E-01
   7124.33  2.8329109E-01
   7124.67  2.8823096E-01
   7125.00  2.9021119E-01
   7125.33  2.9249545E-01
   7125.67  2.9735302E-01
   7126.00  3.0598208E-01
   7126.33  3.1980159E-01
   7126.67  3.3872484E-01
   7127.00  3.6291240E-01
   7127.33  3.9276372E-01
   7127.67  4.2696357E-01
   7128.00  4.6491145E-01
   7128.33  5.0667867E-01
   7128.67  5.5110246E-01
   7129.00  5.9655214E-01
   7129.33  6.3991142E-01
   7129.67  6.7851707E-01
   7130.00  7.1104476E-01
   7130.33  7.3719641E-01
   7130.67  7.5953386E-01
   7131.00  7.8000667E-01
   7131.33  8.0043410E-01
   7131.67  8.2166235E-01
   7132.00  8.4354734E-01
   7132.33  8.6505047E-01
   7132.67  8.8464755E-01
   7133.00  9.0083662E-01
   7133.33  9.1143914E-01
   7133.67  9.1607045E-01
   7134.00  9.1446409E-01
   7134.33  9.0616844E-01
   7134.67  8.9252035E-01
   7135.00  8.7401250E-01
   7135.33  8.5059468E-01
   7135.67  8.2335836E-01
   7136.00  7.9290200E-01
   7136.33  7.5976088E-01
   7136.67  7.2520388E-01
   7137.00  6.9020277E-01
   7137.33  6.5614122E-01
   7137.67  6.2425898E-01
   7138.00  5.9562982E-01
   7138.33  5.7174447E-01
   7138.67  5.5258032E-01
   7139.00  5.3817155E-01
   7139.33  5.2872666E-01
   7139.67  5.2310488E-01
   7140.00  5.2074227E-01
   7140.33  5.2136700E-01
   7140.67  5.2416440E-01
   7141.00  5.2882516E-01
   7141.33  5.3527779E-01
   7141.67  5.4308902E-01
   7142.00  5.5202948E-01
   7142.33  5.6182623E-01
   7142.67  5.7184794E-01
   7143.00  5.8147524E-01
   7143.33  5.8967935E-01
   7143.67  5.9571571E-01
   7144.00  5.9893578E-01
   7144.33  5.9850905E-01
   7144.67  5.9487285E-01
   7145.00  5.8839929E-01
   7145.33  5.7951937E-01
   7145.67  5.6930140E-01
   7146.00  5.5839150E-01
   7146.33  5.4740038E-01
   7146.67  5.3678750E-01
   7147.00  5.2681384E-01
   7147.33  5.1776992E-01
   7147.67  5.0964815E-01
   7148.00  5.0248091E-01
   7148.33  4.9638779E-01
   7148.67  4.9122624E-01
   7149.00  4.8696740E-01
   7149.33  4.8368071E-01
   7149.67  4.8121707E-01
   7150.00  4.7954084E-01
   7150.33  4.7870135E-01
   7150.67  4.7856001E-01
   7151.00  4.7907916E-01
   7151.33  4.8029183E-01
   7151.67  4.8207298E-01
   7152.00  4.8437553E-01
   7152.33  4.8719156E-01
   7152.67  4.9038376E-01
   7153.00  4.9386738E-01
   7153.33  4.9754419E-01
   7153.67  5.0125317E-01
   7154.00  5.0486504E-01
   7154.33  5.0819981E-01
   7154.67  5.1115655E-01
   7155.00  5.1364847E-01
   7155.33  5.1554853E-01
   7155.67  5.1690478E-01
   7156.00  5.1773153E-01
   7156.33  5.1800819E-01
   7156.67  5.1785103E-01
   7157.00  5.1731185E-01
   7157.33  5.1640975E-01
   7157.67  5.1524037E-01
   7158.00  5.1384768E-01
   7158.33  5.1225859E-01
   7158.67  5.1054320E-01
   7159.00  5.0874408E-01
   7159.33  5.0690789E-01
   7159.67  5.0509211E-01
   7160.00  5.0334711E-01
   7160.33  5.0175224E-01
   7160.67  5.0035532E-01
   7161.00  4.9921115E-01
   7161.33  4.9841903E-01
   7161.67  4.9799223E-01
   7162.00  4.9796646E-01
   7162.33  4.9842385E-01
   7162.67  4.9932258E-01
   7163.00  5.0065846E-01
   7163.33  5.0246191E-01
   7163.67  5.0463511E-01
   7164.00  5.0711272E-01
   7164.33  5.0983258E-01
   7164.67  5.1267575E-01
   7165.00  5.1555581E-01
   7165.33  5.1836136E-01
   7165.67  5.2099986E-01
   7166.00  5.2338876E-01
   7166.33  5.2539792E-01
   7166.67  5.2699496E-01
   7167.00  5.2812922E-01
   7167.33  5.2869525E-01
   7167.67  5.2873182E-01
   7168.00  5.2823274E-01
   7168.33  5.2714235E-01
   7168.67  5.2555357E-01
   7169.00  5.2350132E-01
   7169.33  5.2098566E-01
   7169.67  5.1812040E-01
   7170.00  5.1496685E-01
   7170.33  5.1157827E-01
   7170.67  5.0807120E-01
   7171.00  5.0453752E-01
   7171.33  5.0113038E-01
   7171.67  4.9804241E-01
   7172.00  4.9551652E-01
