    FDMNES
    energy     <xanes>
   7097.00  5.2235054E-03
   7097.33  5.3534352E-03
   7097.67  5.4895349E-03
   7098.00  5.6322354E-03
   7098.33  5.7829867E-03
   7098.67  5.9415140E-03
   7099.00  6.1084071E-03
   7099.33  6.2855738E-03
   7099.67  6.4727357E-03
   7100.00  6.6707209E-03
   7100.33  6.8821047E-03
   7100.67  7.1066348E-03
   7101.00  7.3455101E-03
   7101.33  7.6023128E-03
   7101.67  7.8768828E-03
   7102.00  8.1710184E-03
   7102.33  8.4898842E-03
   7102.67  8.8335581E-03
   7103.00  9.2048551E-03
   7103.33  9.6115522E-03
   7103.67  1.0054293E-02
   7104.00  1.0537720E-02
   7104.33  1.1074195E-02
   7104.67  1.1665701E-02
   7105.00  1.2320417E-02
   7105.33  1.3059388E-02
   7105.67  1.3887920E-02
   7106.00  1.4821700E-02
   7106.33  1.5899980E-02
   7106.67  1.7137028E-02
   7107.00  1.8566659E-02
   7107.33  2.0271996E-02
   7107.67  2.2295175E-02
   7108.00  2.4722541E-02
   7108.33  2.7767076E-02
   7108.67  3.1580018E-02
   7109.00  3.6449843E-02
   7109.33  4.3124606E-02
   7109.67  5.2381331E-02
   7110.00  6.5730955E-02
   7110.33  8.7444552E-02
   7110.67  1.2202982E-01
   7111.00  1.7158038E-01
   7111.33  2.2887946E-01
   7111.67  2.8842522E-01
   7112.00  3.4856964E-01
   7112.33  4.1254015E-01
   7112.67  4.8491757E-01
   7113.00  5.4805207E-01
   7113.33  5.6782977E-01
   7113.67  5.3234575E-01
   7114.00  4.5501782E-01
   7114.33  3.7503478E-01
   7114.67  3.1069842E-01
   7115.00  2.6463514E-01
   7115.33  2.3758333E-01
   7115.67  2.2473296E-01
   7116.00  2.2332011E-01
   7116.33  2.2790350E-01
   7116.67  2.2897799E-01
   7117.00  2.2195404E-01
   7117.33  2.0753654E-01
   7117.67  1.9093121E-01
   7118.00  1.7499183E-01
   7118.33  1.6177408E-01
   7118.67  1.5147475E-01
   7119.00  1.4381677E-01
   7119.33  1.3830477E-01
   7119.67  1.3391748E-01
   7120.00  1.3014197E-01
   7120.33  1.2688264E-01
   7120.67  1.2459334E-01
   7121.00  1.2391592E-01
   7121.33  1.2529606E-01
   7121.67  1.2798921E-01
   7122.00  1.3130922E-01
   7122.33  1.3469056E-01
   7122.67  1.3817144E-01
   7123.00  1.4214756E-01
   7123.33  1.4711553E-01
   7123.67  1.5312960E-01
   7124.00  1.6023130E-01
   7124.33  1.6854680E-01
   7124.67  1.7790799E-01
   7125.00  1.8836525E-01
   7125.33  2.0037436E-01
   7125.67  2.1417837E-01
   7126.00  2.3001547E-01
   7126.33  2.4816850E-01
   7126.67  2.6818741E-01
   7127.00  2.8974305E-01
   7127.33  3.1238926E-01
   7127.67  3.3525841E-01
   7128.00  3.5751769E-01
   7128.33  3.7832950E-01
   7128.67  3.9879404E-01
   7129.00  4.2117863E-01
   7129.33  4.4893943E-01
   7129.67  4.8340568E-01
   7130.00  5.2554486E-01
   7130.33  5.7717757E-01
   7130.67  6.3754103E-01
   7131.00  7.0594269E-01
   7131.33  7.8043961E-01
   7131.67  8.5595684E-01
   7132.00  9.2823078E-01
   7132.33  9.9230526E-01
   7132.67  1.0470861E+00
   7133.00  1.0923835E+00
   7133.33  1.1266887E+00
   7133.67  1.1479760E+00
   7134.00  1.1504011E+00
   7134.33  1.1247582E+00
   7134.67  1.0750314E+00
   7135.00  1.0080223E+00
   7135.33  9.3285447E-01
   7135.67  8.5828068E-01
   7136.00  7.8819507E-01
   7136.33  7.2536233E-01
   7136.67  6.6937827E-01
   7137.00  6.2009314E-01
   7137.33  5.7803246E-01
   7137.67  5.4217041E-01
   7138.00  5.1234809E-01
   7138.33  4.8905108E-01
   7138.67  4.7117901E-01
   7139.00  4.5828008E-01
   7139.33  4.5024428E-01
   7139.67  4.4581876E-01
   7140.00  4.4440606E-01
   7140.33  4.4568412E-01
   7140.67  4.4884843E-01
   7141.00  4.5356488E-01
   7141.33  4.5971166E-01
   7141.67  4.6695165E-01
   7142.00  4.7519078E-01
   7142.33  4.8444808E-01
   7142.67  4.9449026E-01
   7143.00  5.0516465E-01
   7143.33  5.1625301E-01
   7143.67  5.2734224E-01
   7144.00  5.3804989E-01
   7144.33  5.4779577E-01
   7144.67  5.5626135E-01
   7145.00  5.6318513E-01
   7145.33  5.6823300E-01
   7145.67  5.7169904E-01
   7146.00  5.7380185E-01
   7146.33  5.7476566E-01
   7146.67  5.7509841E-01
   7147.00  5.7510550E-01
   7147.33  5.7507741E-01
   7147.67  5.7523026E-01
   7148.00  5.7567302E-01
   7148.33  5.7650275E-01
   7148.67  5.7768447E-01
   7149.00  5.7919928E-01
   7149.33  5.8102896E-01
   7149.67  5.8306745E-01
   7150.00  5.8525752E-01
   7150.33  5.8755315E-01
   7150.67  5.8989667E-01
   7151.00  5.9226018E-01
   7151.33  5.9462599E-01
   7151.67  5.9699030E-01
   7152.00  5.9935947E-01
   7152.33  6.0175189E-01
   7152.67  6.0418563E-01
   7153.00  6.0667840E-01
   7153.33  6.0925541E-01
   7153.67  6.1191165E-01
   7154.00  6.1463676E-01
   7154.33  6.1740230E-01
   7154.67  6.2014509E-01
   7155.00  6.2279415E-01
   7155.33  6.2522165E-01
   7155.67  6.2733342E-01
   7156.00  6.2902181E-01
   7156.33  6.3009654E-01
   7156.67  6.3051865E-01
   7157.00  6.3021627E-01
   7157.33  6.2903718E-01
   7157.67  6.2705674E-01
   7158.00  6.2428104E-01
   7158.33  6.2064703E-01
   7158.67  6.1630375E-01
   7159.00  6.1130927E-01
   7159.33  6.0566836E-01
   7159.67  5.9953547E-01
   7160.00  5.9298391E-01
   7160.33  5.8605793E-01
   7160.67  5.7888436E-01
   7161.00  5.7153401E-01
   7161.33  5.6407042E-01
   7161.67  5.5657451E-01
   7162.00  5.4910032E-01
   7162.33  5.4171296E-01
   7162.67  5.3444603E-01
   7163.00  5.2732634E-01
   7163.33  5.2039370E-01
   7163.67  5.1363367E-01
   7164.00  5.0704241E-01
   7164.33  5.0062439E-01
   7164.67  4.9433609E-01
   7165.00  4.8815128E-01
   7165.33  4.8204442E-01
   7165.67  4.7597331E-01
   7166.00  4.6991327E-01
   7166.33  4.6384091E-01
   7166.67  4.5774617E-01
   7167.00  4.5162957E-01
   7167.33  4.4550151E-01
   7167.67  4.3938776E-01
   7168.00  4.3332138E-01
   7168.33  4.2736635E-01
   7168.67  4.2156722E-01
   7169.00  4.1597257E-01
   7169.33  4.1067111E-01
   7169.67  4.0568205E-01
   7170.00  4.0104325E-01
   7170.33  3.9683880E-01
   7170.67  3.9304865E-01
   7171.00  3.8969227E-01
   7171.33  3.8684685E-01
   7171.67  3.8448174E-01
   7172.00  3.8262450E-01
