    FDMNES
    energy     <xanes>
   7097.00  4.9080371E-03
   7097.33  5.0266277E-03
   7097.67  5.1507427E-03
   7098.00  5.2807691E-03
   7098.33  5.4180086E-03
   7098.67  5.5622191E-03
   7099.00  5.7139345E-03
   7099.33  5.8748753E-03
   7099.67  6.0448024E-03
   7100.00  6.2244727E-03
   7100.33  6.4162253E-03
   7100.67  6.6198568E-03
   7101.00  6.8364768E-03
   7101.33  7.0693724E-03
   7101.67  7.3184485E-03
   7102.00  7.5853966E-03
   7102.33  7.8750239E-03
   7102.67  8.1875043E-03
   7103.00  8.5255411E-03
   7103.33  8.8965139E-03
   7103.67  9.3012344E-03
   7104.00  9.7442796E-03
   7104.33  1.0237684E-02
   7104.67  1.0783791E-02
   7105.00  1.1390935E-02
   7105.33  1.2080316E-02
   7105.67  1.2858164E-02
   7106.00  1.3741162E-02
   7106.33  1.4770663E-02
   7106.67  1.5963795E-02
   7107.00  1.7358529E-02
   7107.33  1.9047789E-02
   7107.67  2.1084395E-02
   7108.00  2.3572366E-02
   7108.33  2.6769355E-02
   7108.67  3.0877712E-02
   7109.00  3.6278153E-02
   7109.33  4.3974211E-02
   7109.67  5.5099437E-02
   7110.00  7.1871947E-02
   7110.33  1.0064924E-01
   7110.67  1.4798622E-01
   7111.00  2.1449299E-01
   7111.33  2.7898493E-01
   7111.67  3.2977153E-01
   7112.00  3.7868632E-01
   7112.33  4.2634329E-01
   7112.67  4.4483898E-01
   7113.00  4.1273255E-01
   7113.33  3.2496470E-01
   7113.67  2.4055486E-01
   7114.00  1.8314300E-01
   7114.33  1.5412507E-01
   7114.67  1.4487490E-01
   7115.00  1.5258635E-01
   7115.33  1.6900839E-01
   7115.67  1.6985248E-01
   7116.00  1.4756551E-01
   7116.33  1.2065728E-01
   7116.67  1.0123448E-01
   7117.00  8.9572975E-02
   7117.33  8.4393162E-02
   7117.67  8.3021290E-02
   7118.00  8.3924303E-02
   7118.33  8.5986950E-02
   7118.67  8.9078665E-02
   7119.00  9.3600216E-02
   7119.33  9.9255333E-02
   7119.67  1.0466599E-01
   7120.00  1.0892675E-01
   7120.33  1.1240839E-01
   7120.67  1.1730457E-01
   7121.00  1.2524630E-01
   7121.33  1.3722427E-01
   7121.67  1.5234137E-01
   7122.00  1.7053249E-01
   7122.33  1.9289000E-01
   7122.67  2.1885500E-01
   7123.00  2.4694350E-01
   7123.33  2.7566892E-01
   7123.67  3.0562652E-01
   7124.00  3.3705964E-01
   7124.33  3.6710680E-01
   7124.67  3.9163889E-01
   7125.00  4.0794029E-01
   7125.33  4.1540822E-01
   7125.67  4.1888603E-01
   7126.00  4.2247094E-01
   7126.33  4.3067738E-01
   7126.67  4.4519943E-01
   7127.00  4.6625803E-01
   7127.33  4.9324354E-01
   7127.67  5.2365009E-01
   7128.00  5.5625872E-01
   7128.33  5.8970915E-01
   7128.67  6.2144804E-01
   7129.00  6.4998706E-01
   7129.33  6.7755076E-01
   7129.67  7.0841588E-01
   7130.00  7.4236492E-01
   7130.33  7.7357315E-01
   7130.67  7.9628241E-01
   7131.00  8.0810042E-01
   7131.33  8.0803238E-01
   7131.67  7.9943508E-01
   7132.00  7.8498330E-01
   7132.33  7.6823345E-01
   7132.67  7.5270659E-01
   7133.00  7.4011621E-01
   7133.33  7.3197576E-01
   7133.67  7.2815577E-01
   7134.00  7.2837108E-01
   7134.33  7.3162411E-01
   7134.67  7.3541890E-01
   7135.00  7.3807808E-01
   7135.33  7.3870200E-01
   7135.67  7.3816555E-01
   7136.00  7.3727453E-01
   7136.33  7.3649735E-01
   7136.67  7.3563213E-01
   7137.00  7.3419679E-01
   7137.33  7.3147502E-01
   7137.67  7.2734509E-01
   7138.00  7.2193563E-01
   7138.33  7.1554623E-01
   7138.67  7.0865144E-01
   7139.00  7.0135058E-01
   7139.33  6.9339005E-01
   7139.67  6.8438181E-01
   7140.00  6.7378025E-01
   7140.33  6.6078149E-01
   7140.67  6.4566062E-01
   7141.00  6.2910889E-01
   7141.33  6.1264049E-01
   7141.67  5.9798869E-01
   7142.00  5.8634214E-01
   7142.33  5.7878621E-01
   7142.67  5.7459967E-01
   7143.00  5.7294528E-01
   7143.33  5.7251977E-01
   7143.67  5.7156145E-01
   7144.00  5.6880904E-01
   7144.33  5.6294019E-01
   7144.67  5.5409817E-01
   7145.00  5.4274774E-01
   7145.33  5.2979185E-01
   7145.67  5.1668841E-01
   7146.00  5.0438270E-01
   7146.33  4.9384533E-01
   7146.67  4.8528943E-01
   7147.00  4.7881849E-01
   7147.33  4.7460370E-01
   7147.67  4.7217369E-01
   7148.00  4.7129550E-01
   7148.33  4.7185175E-01
   7148.67  4.7341992E-01
   7149.00  4.7578783E-01
   7149.33  4.7880132E-01
   7149.67  4.8218748E-01
   7150.00  4.8578819E-01
   7150.33  4.8943026E-01
   7150.67  4.9292997E-01
   7151.00  4.9613500E-01
   7151.33  4.9883814E-01
   7151.67  5.0101747E-01
   7152.00  5.0270182E-01
   7152.33  5.0400527E-01
   7152.67  5.0521293E-01
   7153.00  5.0653406E-01
   7153.33  5.0816422E-01
   7153.67  5.1009005E-01
   7154.00  5.1221436E-01
   7154.33  5.1432758E-01
   7154.67  5.1618330E-01
   7155.00  5.1758857E-01
   7155.33  5.1831430E-01
   7155.67  5.1837778E-01
   7156.00  5.1779458E-01
   7156.33  5.1655414E-01
   7156.67  5.1480261E-01
   7157.00  5.1258767E-01
   7157.33  5.0987679E-01
   7157.67  5.0671007E-01
   7158.00  5.0305113E-01
   7158.33  4.9877628E-01
   7158.67  4.9390439E-01
   7159.00  4.8841241E-01
   7159.33  4.8223313E-01
   7159.67  4.7549947E-01
   7160.00  4.6829792E-01
   7160.33  4.6072052E-01
   7160.67  4.5296613E-01
   7161.00  4.4517533E-01
   7161.33  4.3751496E-01
   7161.67  4.3009757E-01
   7162.00  4.2300571E-01
   7162.33  4.1634655E-01
   7162.67  4.1009417E-01
   7163.00  4.0424625E-01
   7163.33  3.9883038E-01
   7163.67  3.9376610E-01
   7164.00  3.8902134E-01
   7164.33  3.8459547E-01
   7164.67  3.8042463E-01
   7165.00  3.7649293E-01
   7165.33  3.7282068E-01
   7165.67  3.6938019E-01
   7166.00  3.6617942E-01
   7166.33  3.6326595E-01
   7166.67  3.6062722E-01
   7167.00  3.5827983E-01
   7167.33  3.5627923E-01
   7167.67  3.5459964E-01
   7168.00  3.5324729E-01
   7168.33  3.5226360E-01
   7168.67  3.5160130E-01
   7169.00  3.5125084E-01
   7169.33  3.5123442E-01
   7169.67  3.5149644E-01
   7170.00  3.5201806E-01
   7170.33  3.5280233E-01
   7170.67  3.5378690E-01
   7171.00  3.5493288E-01
   7171.33  3.5618158E-01
   7171.67  3.5740027E-01
   7172.00  3.5843175E-01
