    FDMNES
    energy     <xanes>
   7097.00  5.0549788E-03
   7097.33  5.1692606E-03
   7097.67  5.2884370E-03
   7098.00  5.4128241E-03
   7098.33  5.5435304E-03
   7098.67  5.6803054E-03
   7099.00  5.8235780E-03
   7099.33  5.9747852E-03
   7099.67  6.1336697E-03
   7100.00  6.3008293E-03
   7100.33  6.4781799E-03
   7100.67  6.6654797E-03
   7101.00  6.8635925E-03
   7101.33  7.0751588E-03
   7101.67  7.3000058E-03
   7102.00  7.5394337E-03
   7102.33  7.7972367E-03
   7102.67  8.0734312E-03
   7103.00  8.3700777E-03
   7103.33  8.6929182E-03
   7103.67  9.0424422E-03
   7104.00  9.4221303E-03
   7104.33  9.8412670E-03
   7104.67  1.0301524E-02
   7105.00  1.0809278E-02
   7105.33  1.1380896E-02
   7105.67  1.2021165E-02
   7106.00  1.2743081E-02
   7106.33  1.3579030E-02
   7106.67  1.4542922E-02
   7107.00  1.5665362E-02
   7107.33  1.7021630E-02
   7107.67  1.8657176E-02
   7108.00  2.0660657E-02
   7108.33  2.3253792E-02
   7108.67  2.6623805E-02
   7109.00  3.1123109E-02
   7109.33  3.7698835E-02
   7109.67  4.7499027E-02
   7110.00  6.2794901E-02
   7110.33  9.0164377E-02
   7110.67  1.3593062E-01
   7111.00  1.9699641E-01
   7111.33  2.4060628E-01
   7111.67  2.5116267E-01
   7112.00  2.3761381E-01
   7112.33  2.0945040E-01
   7112.67  1.7347613E-01
   7113.00  1.4159055E-01
   7113.33  1.2112521E-01
   7113.67  1.0844826E-01
   7114.00  1.0096617E-01
   7114.33  9.7743663E-02
   7114.67  9.7951050E-02
   7115.00  1.0142759E-01
   7115.33  1.0855288E-01
   7115.67  1.1906946E-01
   7116.00  1.3306626E-01
   7116.33  1.5033527E-01
   7116.67  1.6876854E-01
   7117.00  1.8749207E-01
   7117.33  2.0756221E-01
   7117.67  2.2905690E-01
   7118.00  2.5126427E-01
   7118.33  2.7318866E-01
   7118.67  2.9409024E-01
   7119.00  3.1357653E-01
   7119.33  3.3146767E-01
   7119.67  3.4858021E-01
   7120.00  3.6576708E-01
   7120.33  3.8394982E-01
   7120.67  4.0314621E-01
   7121.00  4.2270449E-01
   7121.33  4.4099283E-01
   7121.67  4.5649440E-01
   7122.00  4.6862161E-01
   7122.33  4.7878418E-01
   7122.67  4.9023857E-01
   7123.00  5.0450371E-01
   7123.33  5.2190494E-01
   7123.67  5.4097225E-01
   7124.00  5.6031963E-01
   7124.33  5.7860930E-01
   7124.67  5.9565095E-01
   7125.00  6.1113806E-01
   7125.33  6.2367784E-01
   7125.67  6.3242254E-01
   7126.00  6.3700332E-01
   7126.33  6.3734134E-01
   7126.67  6.3482538E-01
   7127.00  6.3028821E-01
   7127.33  6.2424736E-01
   7127.67  6.1730789E-01
   7128.00  6.0983531E-01
   7128.33  6.0229537E-01
   7128.67  5.9505387E-01
   7129.00  5.8831672E-01
   7129.33  5.8250716E-01
   7129.67  5.7782104E-01
   7130.00  5.7439087E-01
   7130.33  5.7259734E-01
   7130.67  5.7235888E-01
   7131.00  5.7346862E-01
   7131.33  5.7554034E-01
   7131.67  5.7787417E-01
   7132.00  5.7999293E-01
   7132.33  5.8147621E-01
   7132.67  5.8248274E-01
   7133.00  5.8350111E-01
   7133.33  5.8518036E-01
   7133.67  5.8731581E-01
   7134.00  5.8937630E-01
   7134.33  5.9074106E-01
   7134.67  5.9122559E-01
   7135.00  5.9082968E-01
   7135.33  5.8965801E-01
   7135.67  5.8809887E-01
   7136.00  5.8643206E-01
   7136.33  5.8496869E-01
   7136.67  5.8388312E-01
   7137.00  5.8322992E-01
   7137.33  5.8293887E-01
   7137.67  5.8267760E-01
   7138.00  5.8208945E-01
   7138.33  5.8062187E-01
   7138.67  5.7798401E-01
   7139.00  5.7397666E-01
   7139.33  5.6841748E-01
   7139.67  5.6171744E-01
   7140.00  5.5422791E-01
   7140.33  5.4636984E-01
   7140.67  5.3860969E-01
   7141.00  5.3123712E-01
   7141.33  5.2455395E-01
   7141.67  5.1858754E-01
   7142.00  5.1334121E-01
   7142.33  5.0882041E-01
   7142.67  5.0481092E-01
   7143.00  5.0117505E-01
   7143.33  4.9778092E-01
   7143.67  4.9447191E-01
   7144.00  4.9117445E-01
   7144.33  4.8784937E-01
   7144.67  4.8451269E-01
   7145.00  4.8120688E-01
   7145.33  4.7802100E-01
   7145.67  4.7503682E-01
   7146.00  4.7234583E-01
   7146.33  4.7011150E-01
   7146.67  4.6839607E-01
   7147.00  4.6728908E-01
   7147.33  4.6696217E-01
   7147.67  4.6738064E-01
   7148.00  4.6855112E-01
   7148.33  4.7050797E-01
   7148.67  4.7302785E-01
   7149.00  4.7591674E-01
   7149.33  4.7886045E-01
   7149.67  4.8145187E-01
   7150.00  4.8332346E-01
   7150.33  4.8394939E-01
   7150.67  4.8319069E-01
   7151.00  4.8092887E-01
   7151.33  4.7698119E-01
   7151.67  4.7166709E-01
   7152.00  4.6516825E-01
   7152.33  4.5761039E-01
   7152.67  4.4935709E-01
   7153.00  4.4061040E-01
   7153.33  4.3155261E-01
   7153.67  4.2241236E-01
   7154.00  4.1334406E-01
   7154.33  4.0455192E-01
   7154.67  3.9617370E-01
   7155.00  3.8834631E-01
   7155.33  3.8129300E-01
   7155.67  3.7502870E-01
   7156.00  3.6960509E-01
   7156.33  3.6514701E-01
   7156.67  3.6152419E-01
   7157.00  3.5869245E-01
   7157.33  3.5667065E-01
   7157.67  3.5528494E-01
   7158.00  3.5445960E-01
   7158.33  3.5416803E-01
   7158.67  3.5427208E-01
   7159.00  3.5471157E-01
   7159.33  3.5546029E-01
   7159.67  3.5643456E-01
   7160.00  3.5760163E-01
   7160.33  3.5895495E-01
   7160.67  3.6045699E-01
   7161.00  3.6209972E-01
   7161.33  3.6389730E-01
   7161.67  3.6583554E-01
   7162.00  3.6792033E-01
   7162.33  3.7018087E-01
   7162.67  3.7260938E-01
   7163.00  3.7521570E-01
   7163.33  3.7803531E-01
   7163.67  3.8105680E-01
   7164.00  3.8429072E-01
   7164.33  3.8777596E-01
   7164.67  3.9149202E-01
   7165.00  3.9544142E-01
   7165.33  3.9965083E-01
   7165.67  4.0408227E-01
   7166.00  4.0872185E-01
   7166.33  4.1356985E-01
   7166.67  4.1857284E-01
   7167.00  4.2369884E-01
   7167.33  4.2891462E-01
   7167.67  4.3416170E-01
   7168.00  4.3939542E-01
   7168.33  4.4455408E-01
   7168.67  4.4959321E-01
   7169.00  4.5446948E-01
   7169.33  4.5911043E-01
   7169.67  4.6350227E-01
   7170.00  4.6761723E-01
   7170.33  4.7139281E-01
   7170.67  4.7484761E-01
   7171.00  4.7796618E-01
   7171.33  4.8067786E-01
   7171.67  4.8297924E-01
   7172.00  4.8480597E-01
