    FDMNES
    energy     <xanes>
   7097.00  4.0075790E-03
   7097.33  4.0859451E-03
   7097.67  4.1673063E-03
   7098.00  4.2518483E-03
   7098.33  4.3402373E-03
   7098.67  4.4323119E-03
   7099.00  4.5283249E-03
   7099.33  4.6291379E-03
   7099.67  4.7345874E-03
   7100.00  4.8450286E-03
   7100.33  4.9616106E-03
   7100.67  5.0841838E-03
   7101.00  5.2132664E-03
   7101.33  5.3504492E-03
   7101.67  5.4956322E-03
   7102.00  5.6496064E-03
   7102.33  5.8146756E-03
   7102.67  5.9908716E-03
   7103.00  6.1794675E-03
   7103.33  6.3839922E-03
   7103.67  6.6048010E-03
   7104.00  6.8440818E-03
   7104.33  7.1076306E-03
   7104.67  7.3966038E-03
   7105.00  7.7150827E-03
   7105.33  8.0734683E-03
   7105.67  8.4750206E-03
   7106.00  8.9281955E-03
   7106.33  9.4539455E-03
   7106.67  1.0061660E-02
   7107.00  1.0771502E-02
   7107.33  1.1632866E-02
   7107.67  1.2676161E-02
   7108.00  1.3960022E-02
   7108.33  1.5630537E-02
   7108.67  1.7810907E-02
   7109.00  2.0731404E-02
   7109.33  2.5006221E-02
   7109.67  3.1366390E-02
   7110.00  4.1250403E-02
   7110.33  5.8882333E-02
   7110.67  8.9287766E-02
   7111.00  1.3503318E-01
   7111.33  1.7650311E-01
   7111.67  1.8270408E-01
   7112.00  1.6101844E-01
   7112.33  1.3435750E-01
   7112.67  1.1043527E-01
   7113.00  8.8523585E-02
   7113.33  7.1080692E-02
   7113.67  5.9519493E-02
   7114.00  5.2919660E-02
   7114.33  4.8142982E-02
   7114.67  4.2983448E-02
   7115.00  3.8420795E-02
   7115.33  3.5742884E-02
   7115.67  3.4554579E-02
   7116.00  3.4432316E-02
   7116.33  3.5072871E-02
   7116.67  3.6123799E-02
   7117.00  3.7479981E-02
   7117.33  3.9251341E-02
   7117.67  4.1578620E-02
   7118.00  4.4605235E-02
   7118.33  4.8470610E-02
   7118.67  5.2938629E-02
   7119.00  5.7718888E-02
   7119.33  6.2322735E-02
   7119.67  6.6334988E-02
   7120.00  6.9584206E-02
   7120.33  7.2156613E-02
   7120.67  7.4590864E-02
   7121.00  7.7344354E-02
   7121.33  8.0940083E-02
   7121.67  8.5581501E-02
   7122.00  9.1500433E-02
   7122.33  9.9276051E-02
   7122.67  1.0922042E-01
   7123.00  1.2184479E-01
   7123.33  1.3809943E-01
   7123.67  1.5784358E-01
   7124.00  1.8090410E-01
   7124.33  2.0708403E-01
   7124.67  2.3560326E-01
   7125.00  2.6616200E-01
   7125.33  2.9773444E-01
   7125.67  3.2765070E-01
   7126.00  3.5304887E-01
   7126.33  3.7112435E-01
   7126.67  3.8499146E-01
   7127.00  3.9988309E-01
   7127.33  4.2299389E-01
   7127.67  4.5716257E-01
   7128.00  5.0340768E-01
   7128.33  5.6251037E-01
   7128.67  6.3046216E-01
   7129.00  7.0328044E-01
   7129.33  7.7435779E-01
   7129.67  8.3710524E-01
   7130.00  8.8735964E-01
   7130.33  9.2222216E-01
   7130.67  9.4578155E-01
   7131.00  9.6127186E-01
   7131.33  9.7111652E-01
   7131.67  9.7740050E-01
   7132.00  9.8043423E-01
   7132.33  9.7984347E-01
   7132.67  9.7617803E-01
   7133.00  9.6979211E-01
   7133.33  9.6103996E-01
   7133.67  9.5077612E-01
   7134.00  9.3927532E-01
   7134.33  9.2645168E-01
   7134.67  9.1253200E-01
   7135.00  8.9771494E-01
   7135.33  8.8217766E-01
   7135.67  8.6618892E-01
   7136.00  8.4986720E-01
   7136.33  8.3330078E-01
   7136.67  8.1661188E-01
   7137.00  7.9986120E-01
   7137.33  7.8308549E-01
   7137.67  7.6629988E-01
   7138.00  7.4950879E-01
   7138.33  7.3273324E-01
   7138.67  7.1602746E-01
   7139.00  6.9947914E-01
   7139.33  6.8327482E-01
   7139.67  6.6756532E-01
   7140.00  6.5252823E-01
   7140.33  6.3845920E-01
   7140.67  6.2540499E-01
   7141.00  6.1347650E-01
   7141.33  6.0292560E-01
   7141.67  5.9365785E-01
   7142.00  5.8568846E-01
   7142.33  5.7915098E-01
   7142.67  5.7381488E-01
   7143.00  5.6958507E-01
   7143.33  5.6644164E-01
   7143.67  5.6410878E-01
   7144.00  5.6244376E-01
   7144.33  5.6133999E-01
   7144.67  5.6058637E-01
   7145.00  5.6008062E-01
   7145.33  5.5975525E-01
   7145.67  5.5953415E-01
   7146.00  5.5939020E-01
   7146.33  5.5931746E-01
   7146.67  5.5930398E-01
   7147.00  5.5934506E-01
   7147.33  5.5943338E-01
   7147.67  5.5954591E-01
   7148.00  5.5965346E-01
   7148.33  5.5967737E-01
   7148.67  5.5951397E-01
   7149.00  5.5903541E-01
   7149.33  5.5800588E-01
   7149.67  5.5630056E-01
   7150.00  5.5377433E-01
   7150.33  5.5018129E-01
   7150.67  5.4556931E-01
   7151.00  5.3992544E-01
   7151.33  5.3315764E-01
   7151.67  5.2547266E-01
   7152.00  5.1696670E-01
   7152.33  5.0767388E-01
   7152.67  4.9780547E-01
   7153.00  4.8746485E-01
   7153.33  4.7672149E-01
   7153.67  4.6573373E-01
   7154.00  4.5460193E-01
   7154.33  4.4344076E-01
   7154.67  4.3236790E-01
   7155.00  4.2147475E-01
   7155.33  4.1088995E-01
   7155.67  4.0065920E-01
   7156.00  3.9083517E-01
   7156.33  3.8150961E-01
   7156.67  3.7263784E-01
   7157.00  3.6421237E-01
   7157.33  3.5626300E-01
   7157.67  3.4870611E-01
   7158.00  3.4151620E-01
   7158.33  3.3471465E-01
   7158.67  3.2825108E-01
   7159.00  3.2213366E-01
   7159.33  3.1643478E-01
   7159.67  3.1114947E-01
   7160.00  3.0632343E-01
   7160.33  3.0208120E-01
   7160.67  2.9841868E-01
   7161.00  2.9538437E-01
   7161.33  2.9310958E-01
   7161.67  2.9154045E-01
   7162.00  2.9068305E-01
   7162.33  2.9060837E-01
   7162.67  2.9119643E-01
   7163.00  2.9240452E-01
   7163.33  2.9424756E-01
   7163.67  2.9659390E-01
   7164.00  2.9938743E-01
   7164.33  3.0260839E-01
   7164.67  3.0614078E-01
   7165.00  3.0992755E-01
   7165.33  3.1393148E-01
   7165.67  3.1807392E-01
   7166.00  3.2231395E-01
   7166.33  3.2661695E-01
   7166.67  3.3093755E-01
   7167.00  3.3524825E-01
   7167.33  3.3952267E-01
   7167.67  3.4374960E-01
   7168.00  3.4792061E-01
   7168.33  3.5202441E-01
   7168.67  3.5607110E-01
   7169.00  3.6006737E-01
   7169.33  3.6401986E-01
   7169.67  3.6794710E-01
   7170.00  3.7186005E-01
   7170.33  3.7576479E-01
   7170.67  3.7965434E-01
   7171.00  3.8349870E-01
   7171.33  3.8719462E-01
   7171.67  3.9057203E-01
   7172.00  3.9337264E-01
