    FDMNES
    energy     <xanes>
   7097.00  4.8549504E-03
   7097.33  4.9684474E-03
   7097.67  5.0870542E-03
   7098.00  5.2111141E-03
   7098.33  5.3418052E-03
   7098.67  5.4788817E-03
   7099.00  5.6228098E-03
   7099.33  5.7751254E-03
   7099.67  5.9355750E-03
   7100.00  6.1048079E-03
   7100.33  6.2848776E-03
   7100.67  6.4755441E-03
   7101.00  6.6777394E-03
   7101.33  6.8942922E-03
   7101.67  7.1250236E-03
   7102.00  7.3713208E-03
   7102.33  7.6372208E-03
   7102.67  7.9227134E-03
   7103.00  8.2299531E-03
   7103.33  8.5649597E-03
   7103.67  8.9281343E-03
   7104.00  9.3230060E-03
   7104.33  9.7590566E-03
   7104.67  1.0237678E-02
   7105.00  1.0765057E-02
   7105.33  1.1357221E-02
   7105.67  1.2018054E-02
   7106.00  1.2759411E-02
   7106.33  1.3611098E-02
   7106.67  1.4583844E-02
   7107.00  1.5703369E-02
   7107.33  1.7033150E-02
   7107.67  1.8605847E-02
   7108.00  2.0488532E-02
   7108.33  2.2847723E-02
   7108.67  2.5806359E-02
   7109.00  2.9599890E-02
   7109.33  3.4848681E-02
   7109.67  4.2236887E-02
   7110.00  5.3111247E-02
   7110.33  7.1303762E-02
   7110.67  1.0034181E-01
   7111.00  1.3841379E-01
   7111.33  1.6908447E-01
   7111.67  1.9634404E-01
   7112.00  2.3202356E-01
   7112.33  2.8025711E-01
   7112.67  3.2428066E-01
   7113.00  3.4148847E-01
   7113.33  3.2609289E-01
   7113.67  3.1630850E-01
   7114.00  3.2694939E-01
   7114.33  3.6168565E-01
   7114.67  4.0411965E-01
   7115.00  4.3023350E-01
   7115.33  4.0848243E-01
   7115.67  3.4533442E-01
   7116.00  2.7556545E-01
   7116.33  2.2995969E-01
   7116.67  2.0760859E-01
   7117.00  1.9948884E-01
   7117.33  1.8826490E-01
   7117.67  1.6729891E-01
   7118.00  1.4460323E-01
   7118.33  1.2851264E-01
   7118.67  1.1888781E-01
   7119.00  1.1433764E-01
   7119.33  1.1377208E-01
   7119.67  1.1525229E-01
   7120.00  1.1712888E-01
   7120.33  1.1712574E-01
   7120.67  1.1487862E-01
   7121.00  1.1207127E-01
   7121.33  1.1134282E-01
   7121.67  1.1332503E-01
   7122.00  1.1761169E-01
   7122.33  1.2307212E-01
   7122.67  1.2842717E-01
   7123.00  1.3368747E-01
   7123.33  1.4001759E-01
   7123.67  1.4818531E-01
   7124.00  1.5851120E-01
   7124.33  1.7161134E-01
   7124.67  1.8754401E-01
   7125.00  2.0647586E-01
   7125.33  2.2841975E-01
   7125.67  2.5174923E-01
   7126.00  2.7449577E-01
   7126.33  2.9445340E-01
   7126.67  3.1265859E-01
   7127.00  3.3137736E-01
   7127.33  3.5264036E-01
   7127.67  3.7591827E-01
   7128.00  4.0022431E-01
   7128.33  4.2480749E-01
   7128.67  4.4971265E-01
   7129.00  4.7612914E-01
   7129.33  5.0683062E-01
   7129.67  5.4191193E-01
   7130.00  5.7921055E-01
   7130.33  6.1419543E-01
   7130.67  6.4347840E-01
   7131.00  6.6591719E-01
   7131.33  6.8143931E-01
   7131.67  6.9175950E-01
   7132.00  6.9717568E-01
   7132.33  6.9790484E-01
   7132.67  6.9633794E-01
   7133.00  6.9447573E-01
   7133.33  6.9426191E-01
   7133.67  6.9626987E-01
   7134.00  7.0059480E-01
   7134.33  7.0753813E-01
   7134.67  7.1697736E-01
   7135.00  7.2898146E-01
   7135.33  7.4303156E-01
   7135.67  7.5695915E-01
   7136.00  7.6890920E-01
   7136.33  7.7690565E-01
   7136.67  7.8038524E-01
   7137.00  7.7901695E-01
   7137.33  7.7276429E-01
   7137.67  7.6345913E-01
   7138.00  7.5246383E-01
   7138.33  7.4114835E-01
   7138.67  7.3032681E-01
   7139.00  7.1993070E-01
   7139.33  7.0901948E-01
   7139.67  6.9653105E-01
   7140.00  6.8205435E-01
   7140.33  6.6599321E-01
   7140.67  6.4976613E-01
   7141.00  6.3436266E-01
   7141.33  6.2069603E-01
   7141.67  6.0894543E-01
   7142.00  5.9933651E-01
   7142.33  5.9238763E-01
   7142.67  5.8793220E-01
   7143.00  5.8596513E-01
   7143.33  5.8663241E-01
   7143.67  5.8935892E-01
   7144.00  5.9379114E-01
   7144.33  5.9949520E-01
   7144.67  6.0555814E-01
   7145.00  6.1120702E-01
   7145.33  6.1543123E-01
   7145.67  6.1784375E-01
   7146.00  6.1836743E-01
   7146.33  6.1715243E-01
   7146.67  6.1498917E-01
   7147.00  6.1238890E-01
   7147.33  6.0978208E-01
   7147.67  6.0737959E-01
   7148.00  6.0521466E-01
   7148.33  6.0323915E-01
   7148.67  6.0130258E-01
   7149.00  5.9928366E-01
   7149.33  5.9703846E-01
   7149.67  5.9451032E-01
   7150.00  5.9166635E-01
   7150.33  5.8846780E-01
   7150.67  5.8499534E-01
   7151.00  5.8130803E-01
   7151.33  5.7747088E-01
   7151.67  5.7358972E-01
   7152.00  5.6973749E-01
   7152.33  5.6599986E-01
   7152.67  5.6242879E-01
   7153.00  5.5907553E-01
   7153.33  5.5602479E-01
   7153.67  5.5328179E-01
   7154.00  5.5086818E-01
   7154.33  5.4883703E-01
   7154.67  5.4714085E-01
   7155.00  5.4576338E-01
   7155.33  5.4470946E-01
   7155.67  5.4390213E-01
   7156.00  5.4330019E-01
   7156.33  5.4286749E-01
   7156.67  5.4252421E-01
   7157.00  5.4221605E-01
   7157.33  5.4187601E-01
   7157.67  5.4144494E-01
   7158.00  5.4087076E-01
   7158.33  5.4007178E-01
   7158.67  5.3902133E-01
   7159.00  5.3767838E-01
   7159.33  5.3595376E-01
   7159.67  5.3384088E-01
   7160.00  5.3129385E-01
   7160.33  5.2819261E-01
   7160.67  5.2453893E-01
   7161.00  5.2028735E-01
   7161.33  5.1532409E-01
   7161.67  5.0972686E-01
   7162.00  5.0353003E-01
   7162.33  4.9675425E-01
   7162.67  4.8959079E-01
   7163.00  4.8217141E-01
   7163.33  4.7464566E-01
   7163.67  4.6717735E-01
   7164.00  4.5988379E-01
   7164.33  4.5291497E-01
   7164.67  4.4631930E-01
   7165.00  4.4014641E-01
   7165.33  4.3448891E-01
   7165.67  4.2930485E-01
   7166.00  4.2459567E-01
   7166.33  4.2041351E-01
   7166.67  4.1668867E-01
   7167.00  4.1340899E-01
   7167.33  4.1061157E-01
   7167.67  4.0822434E-01
   7168.00  4.0622864E-01
   7168.33  4.0464310E-01
   7168.67  4.0339150E-01
   7169.00  4.0244837E-01
   7169.33  4.0181313E-01
   7169.67  4.0140559E-01
   7170.00  4.0118431E-01
   7170.33  4.0111928E-01
   7170.67  4.0114723E-01
   7171.00  4.0123086E-01
   7171.33  4.0133202E-01
   7171.67  4.0141371E-01
   7172.00  4.0145236E-01
