    FDMNES
    energy     <xanes>
   7097.00  5.2620471E-03
   7097.33  5.3973891E-03
   7097.67  5.5393970E-03
   7098.00  5.6885548E-03
   7098.33  5.8464611E-03
   7098.67  6.0128463E-03
   7099.00  6.1883815E-03
   7099.33  6.3751965E-03
   7099.67  6.5730301E-03
   7100.00  6.7828396E-03
   7100.33  7.0075424E-03
   7100.67  7.2469297E-03
   7101.00  7.5024122E-03
   7101.33  7.7781208E-03
   7101.67  8.0739945E-03
   7102.00  8.3921954E-03
   7102.33  8.7388089E-03
   7102.67  9.1141335E-03
   7103.00  9.5216422E-03
   7103.33  9.9707442E-03
   7103.67  1.0462583E-02
   7104.00  1.1003069E-02
   7104.33  1.1607656E-02
   7104.67  1.2279511E-02
   7105.00  1.3029458E-02
   7105.33  1.3884914E-02
   7105.67  1.4854194E-02
   7106.00  1.5959098E-02
   7106.33  1.7253522E-02
   7106.67  1.8760274E-02
   7107.00  2.0529337E-02
   7107.33  2.2682908E-02
   7107.67  2.5291562E-02
   7108.00  2.8493503E-02
   7108.33  3.2631163E-02
   7108.67  3.7976763E-02
   7109.00  4.5041441E-02
   7109.33  5.5174180E-02
   7109.67  6.9909768E-02
   7110.00  9.2251412E-02
   7110.33  1.3084241E-01
   7110.67  1.9497344E-01
   7111.00  2.8755937E-01
   7111.33  3.8507759E-01
   7111.67  4.5410620E-01
   7112.00  4.7893617E-01
   7112.33  4.6303335E-01
   7112.67  4.3588614E-01
   7113.00  4.2682304E-01
   7113.33  4.3071114E-01
   7113.67  4.0099145E-01
   7114.00  3.3737195E-01
   7114.33  2.7982676E-01
   7114.67  2.3743778E-01
   7115.00  2.0176191E-01
   7115.33  1.7111899E-01
   7115.67  1.4861506E-01
   7116.00  1.3443329E-01
   7116.33  1.2699398E-01
   7116.67  1.2358598E-01
   7117.00  1.2348581E-01
   7117.33  1.2625664E-01
   7117.67  1.3017883E-01
   7118.00  1.3409150E-01
   7118.33  1.3773201E-01
   7118.67  1.4094293E-01
   7119.00  1.4291384E-01
   7119.33  1.4309976E-01
   7119.67  1.4223932E-01
   7120.00  1.4123133E-01
   7120.33  1.4154987E-01
   7120.67  1.4396301E-01
   7121.00  1.4895315E-01
   7121.33  1.5742660E-01
   7121.67  1.6924982E-01
   7122.00  1.8454161E-01
   7122.33  2.0442476E-01
   7122.67  2.2879454E-01
   7123.00  2.5702131E-01
   7123.33  2.8835679E-01
   7123.67  3.2191516E-01
   7124.00  3.5698514E-01
   7124.33  3.9136473E-01
   7124.67  4.2193532E-01
   7125.00  4.4640051E-01
   7125.33  4.6340308E-01
   7125.67  4.7526382E-01
   7126.00  4.8348281E-01
   7126.33  4.8854066E-01
   7126.67  4.9090645E-01
   7127.00  4.9071284E-01
   7127.33  4.8830667E-01
   7127.67  4.8502877E-01
   7128.00  4.8196099E-01
   7128.33  4.8029631E-01
   7128.67  4.8056590E-01
   7129.00  4.8317538E-01
   7129.33  4.8898211E-01
   7129.67  4.9822066E-01
   7130.00  5.1120552E-01
   7130.33  5.2805147E-01
   7130.67  5.4706522E-01
   7131.00  5.6656231E-01
   7131.33  5.8420684E-01
   7131.67  5.9845855E-01
   7132.00  6.0848894E-01
   7132.33  6.1390083E-01
   7132.67  6.1632128E-01
   7133.00  6.1689358E-01
   7133.33  6.1622969E-01
   7133.67  6.1440216E-01
   7134.00  6.1098435E-01
   7134.33  6.0534561E-01
   7134.67  5.9800469E-01
   7135.00  5.8983221E-01
   7135.33  5.8217822E-01
   7135.67  5.7598580E-01
   7136.00  5.7168181E-01
   7136.33  5.6957667E-01
   7136.67  5.6924906E-01
   7137.00  5.7052991E-01
   7137.33  5.7345267E-01
   7137.67  5.7765894E-01
   7138.00  5.8292201E-01
   7138.33  5.8901433E-01
   7138.67  5.9554129E-01
   7139.00  6.0231104E-01
   7139.33  6.0922716E-01
   7139.67  6.1625908E-01
   7140.00  6.2343304E-01
   7140.33  6.3078632E-01
   7140.67  6.3824101E-01
   7141.00  6.4564790E-01
   7141.33  6.5265998E-01
   7141.67  6.5891809E-01
   7142.00  6.6406119E-01
   7142.33  6.6755787E-01
   7142.67  6.6939674E-01
   7143.00  6.6957737E-01
   7143.33  6.6813467E-01
   7143.67  6.6566678E-01
   7144.00  6.6262694E-01
   7144.33  6.5953858E-01
   7144.67  6.5683890E-01
   7145.00  6.5477604E-01
   7145.33  6.5357819E-01
   7145.67  6.5313402E-01
   7146.00  6.5335728E-01
   7146.33  6.5417022E-01
   7146.67  6.5534067E-01
   7147.00  6.5672187E-01
   7147.33  6.5816125E-01
   7147.67  6.5952024E-01
   7148.00  6.6072014E-01
   7148.33  6.6169147E-01
   7148.67  6.6242362E-01
   7149.00  6.6287736E-01
   7149.33  6.6296900E-01
   7149.67  6.6270471E-01
   7150.00  6.6206770E-01
   7150.33  6.6100842E-01
   7150.67  6.5958528E-01
   7151.00  6.5781246E-01
   7151.33  6.5565934E-01
   7151.67  6.5316901E-01
   7152.00  6.5033416E-01
   7152.33  6.4709779E-01
   7152.67  6.4349747E-01
   7153.00  6.3953817E-01
   7153.33  6.3519986E-01
   7153.67  6.3056506E-01
   7154.00  6.2567986E-01
   7154.33  6.2057794E-01
   7154.67  6.1533543E-01
   7155.00  6.0998663E-01
   7155.33  6.0454582E-01
   7155.67  5.9903108E-01
   7156.00  5.9343743E-01
   7156.33  5.8773558E-01
   7156.67  5.8191206E-01
   7157.00  5.7594089E-01
   7157.33  5.6976491E-01
   7157.67  5.6336874E-01
   7158.00  5.5671757E-01
   7158.33  5.4973313E-01
   7158.67  5.4241431E-01
   7159.00  5.3473411E-01
   7159.33  5.2662260E-01
   7159.67  5.1812123E-01
   7160.00  5.0924449E-01
   7160.33  4.9998819E-01
   7160.67  4.9044767E-01
   7161.00  4.8068324E-01
   7161.33  4.7076884E-01
   7161.67  4.6083396E-01
   7162.00  4.5098724E-01
   7162.33  4.4138927E-01
   7162.67  4.3214915E-01
   7163.00  4.2338205E-01
   7163.33  4.1528460E-01
   7163.67  4.0788296E-01
   7164.00  4.0124102E-01
   7164.33  3.9550226E-01
   7164.67  3.9057412E-01
   7165.00  3.8643525E-01
   7165.33  3.8311887E-01
   7165.67  3.8044113E-01
   7166.00  3.7829979E-01
   7166.33  3.7660591E-01
   7166.67  3.7515703E-01
   7167.00  3.7381948E-01
   7167.33  3.7245337E-01
   7167.67  3.7096683E-01
   7168.00  3.6931420E-01
   7168.33  3.6746720E-01
   7168.67  3.6548642E-01
   7169.00  3.6343038E-01
   7169.33  3.6138197E-01
   7169.67  3.5942254E-01
   7170.00  3.5761362E-01
   7170.33  3.5603592E-01
   7170.67  3.5469840E-01
   7171.00  3.5361382E-01
   7171.33  3.5280695E-01
   7171.67  3.5221439E-01
   7172.00  3.5178391E-01
