    FDMNES
    energy     <xanes>
   7097.00  4.8408398E-03
   7097.33  4.9566450E-03
   7097.67  5.0777958E-03
   7098.00  5.2046636E-03
   7098.33  5.3385023E-03
   7098.67  5.4790731E-03
   7099.00  5.6268864E-03
   7099.33  5.7835955E-03
   7099.67  5.9489622E-03
   7100.00  6.1237081E-03
   7100.33  6.3100735E-03
   7100.67  6.5078511E-03
   7101.00  6.7180947E-03
   7101.33  6.9439412E-03
   7101.67  7.1852800E-03
   7102.00  7.4437114E-03
   7102.33  7.7238025E-03
   7102.67  8.0256872E-03
   7103.00  8.3519104E-03
   7103.33  8.7094482E-03
   7103.67  9.0990154E-03
   7104.00  9.5248978E-03
   7104.33  9.9984054E-03
   7104.67  1.0521649E-02
   7105.00  1.1102386E-02
   7105.33  1.1760406E-02
   7105.67  1.2501360E-02
   7106.00  1.3340671E-02
   7106.33  1.4316654E-02
   7106.67  1.5444860E-02
   7107.00  1.6760147E-02
   7107.33  1.8347928E-02
   7107.67  2.0256093E-02
   7108.00  2.2579497E-02
   7108.33  2.5553196E-02
   7108.67  2.9360382E-02
   7109.00  3.4346617E-02
   7109.33  4.1423151E-02
   7109.67  5.1617499E-02
   7110.00  6.6941383E-02
   7110.33  9.3128392E-02
   7110.67  1.3572073E-01
   7111.00  1.9383631E-01
   7111.33  2.5069998E-01
   7111.67  3.0639358E-01
   7112.00  3.5741323E-01
   7112.33  3.7717507E-01
   7112.67  3.7359427E-01
   7113.00  3.6022261E-01
   7113.33  3.3790179E-01
   7113.67  3.0341001E-01
   7114.00  2.6396887E-01
   7114.33  2.3063038E-01
   7114.67  2.0162784E-01
   7115.00  1.7512002E-01
   7115.33  1.5480822E-01
   7115.67  1.4159719E-01
   7116.00  1.3320469E-01
   7116.33  1.2528469E-01
   7116.67  1.1659322E-01
   7117.00  1.0899036E-01
   7117.33  1.0459109E-01
   7117.67  1.0343010E-01
   7118.00  1.0532509E-01
   7118.33  1.1025953E-01
   7118.67  1.1683070E-01
   7119.00  1.2280279E-01
   7119.33  1.2590132E-01
   7119.67  1.2791058E-01
   7120.00  1.3005304E-01
   7120.33  1.3232826E-01
   7120.67  1.3501358E-01
   7121.00  1.3870116E-01
   7121.33  1.4414812E-01
   7121.67  1.5153008E-01
   7122.00  1.6102237E-01
   7122.33  1.7270045E-01
   7122.67  1.8613044E-01
   7123.00  2.0145547E-01
   7123.33  2.1896731E-01
   7123.67  2.3783272E-01
   7124.00  2.5733709E-01
   7124.33  2.7694753E-01
   7124.67  2.9654283E-01
   7125.00  3.1658656E-01
   7125.33  3.3833372E-01
   7125.67  3.6201313E-01
   7126.00  3.8683915E-01
   7126.33  4.1159609E-01
   7126.67  4.3651437E-01
   7127.00  4.6308053E-01
   7127.33  4.9322397E-01
   7127.67  5.2668037E-01
   7128.00  5.6256527E-01
   7128.33  5.9893973E-01
   7128.67  6.3373651E-01
   7129.00  6.6625765E-01
   7129.33  6.9529570E-01
   7129.67  7.1865765E-01
   7130.00  7.3329591E-01
   7130.33  7.3532618E-01
   7130.67  7.2615047E-01
   7131.00  7.0771272E-01
   7131.33  6.8313062E-01
   7131.67  6.5772767E-01
   7132.00  6.3514742E-01
   7132.33  6.1887417E-01
   7132.67  6.0931938E-01
   7133.00  6.0634504E-01
   7133.33  6.0958863E-01
   7133.67  6.1706643E-01
   7134.00  6.2794578E-01
   7134.33  6.4193104E-01
   7134.67  6.5805937E-01
   7135.00  6.7551208E-01
   7135.33  6.9288029E-01
   7135.67  7.0848653E-01
   7136.00  7.2081597E-01
   7136.33  7.2769224E-01
   7136.67  7.2895335E-01
   7137.00  7.2496381E-01
   7137.33  7.1661985E-01
   7137.67  7.0607494E-01
   7138.00  6.9455591E-01
   7138.33  6.8314915E-01
   7138.67  6.7258303E-01
   7139.00  6.6327372E-01
   7139.33  6.5568257E-01
   7139.67  6.4970449E-01
   7140.00  6.4531190E-01
   7140.33  6.4259924E-01
   7140.67  6.4126723E-01
   7141.00  6.4121424E-01
   7141.33  6.4243867E-01
   7141.67  6.4459125E-01
   7142.00  6.4741941E-01
   7142.33  6.5057940E-01
   7142.67  6.5360540E-01
   7143.00  6.5615175E-01
   7143.33  6.5782387E-01
   7143.67  6.5858717E-01
   7144.00  6.5845801E-01
   7144.33  6.5744644E-01
   7144.67  6.5580583E-01
   7145.00  6.5368274E-01
   7145.33  6.5118280E-01
   7145.67  6.4844382E-01
   7146.00  6.4550320E-01
   7146.33  6.4233869E-01
   7146.67  6.3895178E-01
   7147.00  6.3531409E-01
   7147.33  6.3135550E-01
   7147.67  6.2708052E-01
   7148.00  6.2247211E-01
   7148.33  6.1749178E-01
   7148.67  6.1220243E-01
   7149.00  6.0663972E-01
   7149.33  6.0084006E-01
   7149.67  5.9491748E-01
   7150.00  5.8896606E-01
   7150.33  5.8311683E-01
   7150.67  5.7747481E-01
   7151.00  5.7212906E-01
   7151.33  5.6721253E-01
   7151.67  5.6273987E-01
   7152.00  5.5874425E-01
   7152.33  5.5530187E-01
   7152.67  5.5234250E-01
   7153.00  5.4984143E-01
   7153.33  5.4780255E-01
   7153.67  5.4610947E-01
   7154.00  5.4469411E-01
   7154.33  5.4348674E-01
   7154.67  5.4235905E-01
   7155.00  5.4121410E-01
   7155.33  5.3991893E-01
   7155.67  5.3837629E-01
   7156.00  5.3649565E-01
   7156.33  5.3413355E-01
   7156.67  5.3127762E-01
   7157.00  5.2789486E-01
   7157.33  5.2390875E-01
   7157.67  5.1940794E-01
   7158.00  5.1443490E-01
   7158.33  5.0901083E-01
   7158.67  5.0327357E-01
   7159.00  4.9730566E-01
   7159.33  4.9118748E-01
   7159.67  4.8502775E-01
   7160.00  4.7889805E-01
   7160.33  4.7287906E-01
   7160.67  4.6700387E-01
   7161.00  4.6129105E-01
   7161.33  4.5575406E-01
   7161.67  4.5034437E-01
   7162.00  4.4502800E-01
   7162.33  4.3977201E-01
   7162.67  4.3453878E-01
   7163.00  4.2930799E-01
   7163.33  4.2406754E-01
   7163.67  4.1882449E-01
   7164.00  4.1359430E-01
   7164.33  4.0840618E-01
   7164.67  4.0328259E-01
   7165.00  3.9824567E-01
   7165.33  3.9333175E-01
   7165.67  3.8854827E-01
   7166.00  3.8391332E-01
   7166.33  3.7946904E-01
   7166.67  3.7521696E-01
   7167.00  3.7117930E-01
   7167.33  3.6741453E-01
   7167.67  3.6392080E-01
   7168.00  3.6072127E-01
   7168.33  3.5787973E-01
   7168.67  3.5537516E-01
   7169.00  3.5321694E-01
   7169.33  3.5144994E-01
   7169.67  3.5002498E-01
   7170.00  3.4893122E-01
   7170.33  3.4818780E-01
   7170.67  3.4772861E-01
   7171.00  3.4752277E-01
   7171.33  3.4754409E-01
   7171.67  3.4768564E-01
   7172.00  3.4784437E-01
