    FDMNES
    energy     <xanes>
   7097.00  4.6639198E-03
   7097.33  4.7696044E-03
   7097.67  4.8798599E-03
   7098.00  4.9949859E-03
   7098.33  5.1160250E-03
   7098.67  5.2427488E-03
   7099.00  5.3755646E-03
   7099.33  5.5158273E-03
   7099.67  5.6633026E-03
   7100.00  5.8185583E-03
   7100.33  5.9834040E-03
   7100.67  6.1576193E-03
   7101.00  6.3420230E-03
   7101.33  6.5391090E-03
   7101.67  6.7487175E-03
   7102.00  6.9720748E-03
   7102.33  7.2127534E-03
   7102.67  7.4707574E-03
   7103.00  7.7480101E-03
   7103.33  8.0498766E-03
   7103.67  8.3767615E-03
   7104.00  8.7318579E-03
   7104.33  9.1237119E-03
   7104.67  9.5536993E-03
   7105.00  1.0027513E-02
   7105.33  1.0559832E-02
   7105.67  1.1154492E-02
   7106.00  1.1822624E-02
   7106.33  1.2592082E-02
   7106.67  1.3473509E-02
   7107.00  1.4491573E-02
   7107.33  1.5706910E-02
   7107.67  1.7151991E-02
   7108.00  1.8892189E-02
   7108.33  2.1089200E-02
   7108.67  2.3863905E-02
   7109.00  2.7445042E-02
   7109.33  3.2429779E-02
   7109.67  3.9463174E-02
   7110.00  4.9802144E-02
   7110.33  6.7066392E-02
   7110.67  9.5561264E-02
   7111.00  1.3862169E-01
   7111.33  1.8544738E-01
   7111.67  2.1724432E-01
   7112.00  2.4830179E-01
   7112.33  2.9605665E-01
   7112.67  3.3225505E-01
   7113.00  3.3285065E-01
   7113.33  3.0110263E-01
   7113.67  2.4491715E-01
   7114.00  1.8359068E-01
   7114.33  1.4079764E-01
   7114.67  1.1368067E-01
   7115.00  9.6996770E-02
   7115.33  8.7184231E-02
   7115.67  8.1116098E-02
   7116.00  7.7768388E-02
   7116.33  7.6859011E-02
   7116.67  7.7917174E-02
   7117.00  8.0912354E-02
   7117.33  8.6169000E-02
   7117.67  9.3614458E-02
   7118.00  1.0347544E-01
   7118.33  1.1641136E-01
   7118.67  1.3238948E-01
   7119.00  1.5158804E-01
   7119.33  1.7439080E-01
   7119.67  2.0001268E-01
   7120.00  2.2777190E-01
   7120.33  2.5659641E-01
   7120.67  2.8477723E-01
   7121.00  3.1060342E-01
   7121.33  3.3127799E-01
   7121.67  3.4581371E-01
   7122.00  3.5440088E-01
   7122.33  3.5884588E-01
   7122.67  3.6289745E-01
   7123.00  3.6897593E-01
   7123.33  3.7902869E-01
   7123.67  3.9261562E-01
   7124.00  4.0888404E-01
   7124.33  4.2678007E-01
   7124.67  4.4532018E-01
   7125.00  4.6404917E-01
   7125.33  4.8181680E-01
   7125.67  4.9746165E-01
   7126.00  5.1047832E-01
   7126.33  5.2061643E-01
   7126.67  5.2829937E-01
   7127.00  5.3328272E-01
   7127.33  5.3457549E-01
   7127.67  5.3213799E-01
   7128.00  5.2603026E-01
   7128.33  5.1664487E-01
   7128.67  5.0563944E-01
   7129.00  4.9424590E-01
   7129.33  4.8384239E-01
   7129.67  4.7527821E-01
   7130.00  4.6914311E-01
   7130.33  4.6628250E-01
   7130.67  4.6666664E-01
   7131.00  4.7052791E-01
   7131.33  4.7861494E-01
   7131.67  4.9075558E-01
   7132.00  5.0710525E-01
   7132.33  5.2787024E-01
   7132.67  5.5137721E-01
   7133.00  5.7587380E-01
   7133.33  5.9892942E-01
   7133.67  6.1907309E-01
   7134.00  6.3572900E-01
   7134.33  6.4849997E-01
   7134.67  6.5819388E-01
   7135.00  6.6521360E-01
   7135.33  6.6979199E-01
   7135.67  6.7274131E-01
   7136.00  6.7453630E-01
   7136.33  6.7561408E-01
   7136.67  6.7648536E-01
   7137.00  6.7743070E-01
   7137.33  6.7870730E-01
   7137.67  6.8039498E-01
   7138.00  6.8252454E-01
   7138.33  6.8512088E-01
   7138.67  6.8805440E-01
   7139.00  6.9122908E-01
   7139.33  6.9452242E-01
   7139.67  6.9776796E-01
   7140.00  7.0082541E-01
   7140.33  7.0348269E-01
   7140.67  7.0561678E-01
   7141.00  7.0708321E-01
   7141.33  7.0761326E-01
   7141.67  7.0716531E-01
   7142.00  7.0563984E-01
   7142.33  7.0281699E-01
   7142.67  6.9881987E-01
   7143.00  6.9368113E-01
   7143.33  6.8737029E-01
   7143.67  6.8017921E-01
   7144.00  6.7228619E-01
   7144.33  6.6386811E-01
   7144.67  6.5522620E-01
   7145.00  6.4656076E-01
   7145.33  6.3810614E-01
   7145.67  6.3000466E-01
   7146.00  6.2235612E-01
   7146.33  6.1529765E-01
   7146.67  6.0879340E-01
   7147.00  6.0284101E-01
   7147.33  5.9747749E-01
   7147.67  5.9258995E-01
   7148.00  5.8812762E-01
   7148.33  5.8406902E-01
   7148.67  5.8030069E-01
   7149.00  5.7676549E-01
   7149.33  5.7342280E-01
   7149.67  5.7019608E-01
   7150.00  5.6704460E-01
   7150.33  5.6393269E-01
   7150.67  5.6082355E-01
   7151.00  5.5769522E-01
   7151.33  5.5452209E-01
   7151.67  5.5129268E-01
   7152.00  5.4799552E-01
   7152.33  5.4460843E-01
   7152.67  5.4112915E-01
   7153.00  5.3754690E-01
   7153.33  5.3383388E-01
   7153.67  5.2999014E-01
   7154.00  5.2600220E-01
   7154.33  5.2183303E-01
   7154.67  5.1748479E-01
   7155.00  5.1294270E-01
   7155.33  5.0816533E-01
   7155.67  5.0316623E-01
   7156.00  4.9793748E-01
   7156.33  4.9244460E-01
   7156.67  4.8671705E-01
   7157.00  4.8075937E-01
   7157.33  4.7455398E-01
   7157.67  4.6814225E-01
   7158.00  4.6153793E-01
   7158.33  4.5473522E-01
   7158.67  4.4777197E-01
   7159.00  4.4066281E-01
   7159.33  4.3341415E-01
   7159.67  4.2607498E-01
   7160.00  4.1868857E-01
   7160.33  4.1132729E-01
   7160.67  4.0407650E-01
   7161.00  3.9702255E-01
   7161.33  3.9030731E-01
   7161.67  3.8399140E-01
   7162.00  3.7814685E-01
   7162.33  3.7290299E-01
   7162.67  3.6823111E-01
   7163.00  3.6414397E-01
   7163.33  3.6070794E-01
   7163.67  3.5782739E-01
   7164.00  3.5547023E-01
   7164.33  3.5364905E-01
   7164.67  3.5225500E-01
   7165.00  3.5124579E-01
   7165.33  3.5061440E-01
   7165.67  3.5027197E-01
   7166.00  3.5018163E-01
   7166.33  3.5033179E-01
   7166.67  3.5066198E-01
   7167.00  3.5114662E-01
   7167.33  3.5177626E-01
   7167.67  3.5251355E-01
   7168.00  3.5334314E-01
   7168.33  3.5425917E-01
   7168.67  3.5523883E-01
   7169.00  3.5627251E-01
   7169.33  3.5735632E-01
   7169.67  3.5847658E-01
   7170.00  3.5962658E-01
   7170.33  3.6080001E-01
   7170.67  3.6198151E-01
   7171.00  3.6315431E-01
   7171.33  3.6428000E-01
   7171.67  3.6530163E-01
   7172.00  3.6613568E-01
