    FDMNES
    energy     <xanes>
   7097.00  5.6683308E-03
   7097.33  5.8197423E-03
   7097.67  5.9788676E-03
   7098.00  6.1462757E-03
   7098.33  6.3238305E-03
   7098.67  6.5112295E-03
   7099.00  6.7092614E-03
   7099.33  6.9204127E-03
   7099.67  7.1443895E-03
   7100.00  7.3823137E-03
   7100.33  7.6375922E-03
   7100.67  7.9099869E-03
   7101.00  8.2011449E-03
   7101.33  8.5158804E-03
   7101.67  8.8541151E-03
   7102.00  9.2183561E-03
   7102.33  9.6156634E-03
   7102.67  1.0046344E-02
   7103.00  1.0514384E-02
   7103.33  1.1030609E-02
   7103.67  1.1596220E-02
   7104.00  1.2217901E-02
   7104.33  1.2913192E-02
   7104.67  1.3685389E-02
   7105.00  1.4546467E-02
   7105.33  1.5526895E-02
   7105.67  1.6635140E-02
   7106.00  1.7894568E-02
   7106.33  1.9363143E-02
   7106.67  2.1063257E-02
   7107.00  2.3046016E-02
   7107.33  2.5436308E-02
   7107.67  2.8299513E-02
   7108.00  3.1767064E-02
   7108.33  3.6161510E-02
   7108.67  4.1712611E-02
   7109.00  4.8853731E-02
   7109.33  5.8696775E-02
   7109.67  7.2362067E-02
   7110.00  9.1998758E-02
   7110.33  1.2364147E-01
   7110.67  1.7432046E-01
   7111.00  2.5183865E-01
   7111.33  3.6309247E-01
   7111.67  5.0119478E-01
   7112.00  6.4792839E-01
   7112.33  7.6579804E-01
   7112.67  7.9847132E-01
   7113.00  7.3158115E-01
   7113.33  6.0688524E-01
   7113.67  4.8190315E-01
   7114.00  3.7961646E-01
   7114.33  3.0863571E-01
   7114.67  2.5930477E-01
   7115.00  2.2581324E-01
   7115.33  2.0480988E-01
   7115.67  1.9195181E-01
   7116.00  1.8534711E-01
   7116.33  1.8323990E-01
   7116.67  1.8244392E-01
   7117.00  1.8079935E-01
   7117.33  1.7697248E-01
   7117.67  1.7142793E-01
   7118.00  1.6497944E-01
   7118.33  1.5880600E-01
   7118.67  1.5341007E-01
   7119.00  1.4861193E-01
   7119.33  1.4394669E-01
   7119.67  1.3912616E-01
   7120.00  1.3426391E-01
   7120.33  1.2975990E-01
   7120.67  1.2581001E-01
   7121.00  1.2249341E-01
   7121.33  1.2013607E-01
   7121.67  1.1896822E-01
   7122.00  1.1917969E-01
   7122.33  1.2099181E-01
   7122.67  1.2420686E-01
   7123.00  1.2885297E-01
   7123.33  1.3527371E-01
   7123.67  1.4359018E-01
   7124.00  1.5424705E-01
   7124.33  1.6833672E-01
   7124.67  1.8627832E-01
   7125.00  2.0867802E-01
   7125.33  2.3657807E-01
   7125.67  2.6919270E-01
   7126.00  3.0549876E-01
   7126.33  3.4297143E-01
   7126.67  3.7697372E-01
   7127.00  4.0308613E-01
   7127.33  4.1837513E-01
   7127.67  4.2774079E-01
   7128.00  4.3575151E-01
   7128.33  4.4625719E-01
   7128.67  4.6024124E-01
   7129.00  4.7746812E-01
   7129.33  4.9717460E-01
   7129.67  5.1802809E-01
   7130.00  5.3966993E-01
   7130.33  5.6255910E-01
   7130.67  5.8722326E-01
   7131.00  6.1404510E-01
   7131.33  6.4311477E-01
   7131.67  6.7325000E-01
   7132.00  7.0311989E-01
   7132.33  7.3058930E-01
   7132.67  7.5415313E-01
   7133.00  7.7269190E-01
   7133.33  7.8480682E-01
   7133.67  7.9103000E-01
   7134.00  7.9136949E-01
   7134.33  7.8511196E-01
   7134.67  7.7305696E-01
   7135.00  7.5542883E-01
   7135.33  7.3222467E-01
   7135.67  7.0511887E-01
   7136.00  6.7531086E-01
   7136.33  6.4423246E-01
   7136.67  6.1354312E-01
   7137.00  5.8429565E-01
   7137.33  5.5755136E-01
   7137.67  5.3339697E-01
   7138.00  5.1197566E-01
   7138.33  4.9378100E-01
   7138.67  4.7859226E-01
   7139.00  4.6649708E-01
   7139.33  4.5791427E-01
   7139.67  4.5240553E-01
   7140.00  4.4988982E-01
   7140.33  4.5061162E-01
   7140.67  4.5408592E-01
   7141.00  4.6019222E-01
   7141.33  4.6906590E-01
   7141.67  4.8018493E-01
   7142.00  4.9332915E-01
   7142.33  5.0841353E-01
   7142.67  5.2487584E-01
   7143.00  5.4238717E-01
   7143.33  5.6061939E-01
   7143.67  5.7907161E-01
   7144.00  5.9738810E-01
   7144.33  6.1512058E-01
   7144.67  6.3200742E-01
   7145.00  6.4782716E-01
   7145.33  6.6224396E-01
   7145.67  6.7531588E-01
   7146.00  6.8701455E-01
   7146.33  6.9718487E-01
   7146.67  7.0604316E-01
   7147.00  7.1364139E-01
   7147.33  7.1989470E-01
   7147.67  7.2501462E-01
   7148.00  7.2905035E-01
   7148.33  7.3192847E-01
   7148.67  7.3384366E-01
   7149.00  7.3486642E-01
   7149.33  7.3496174E-01
   7149.67  7.3429124E-01
   7150.00  7.3290745E-01
   7150.33  7.3079006E-01
   7150.67  7.2807724E-01
   7151.00  7.2481243E-01
   7151.33  7.2097676E-01
   7151.67  7.1667163E-01
   7152.00  7.1192580E-01
   7152.33  7.0672008E-01
   7152.67  7.0113826E-01
   7153.00  6.9521039E-01
   7153.33  6.8893638E-01
   7153.67  6.8239671E-01
   7154.00  6.7563056E-01
   7154.33  6.6866441E-01
   7154.67  6.6157095E-01
   7155.00  6.5439398E-01
   7155.33  6.4718012E-01
   7155.67  6.3998266E-01
   7156.00  6.3284100E-01
   7156.33  6.2580851E-01
   7156.67  6.1891004E-01
   7157.00  6.1217457E-01
   7157.33  6.0565431E-01
   7157.67  5.9934551E-01
   7158.00  5.9325930E-01
   7158.33  5.8743047E-01
   7158.67  5.8182846E-01
   7159.00  5.7644364E-01
   7159.33  5.7127838E-01
   7159.67  5.6627818E-01
   7160.00  5.6141774E-01
   7160.33  5.5668170E-01
   7160.67  5.5202709E-01
   7161.00  5.4743036E-01
   7161.33  5.4287026E-01
   7161.67  5.3832170E-01
   7162.00  5.3377178E-01
   7162.33  5.2920847E-01
   7162.67  5.2462639E-01
   7163.00  5.2002249E-01
   7163.33  5.1539340E-01
   7163.67  5.1074431E-01
   7164.00  5.0607935E-01
   7164.33  5.0140360E-01
   7164.67  4.9672517E-01
   7165.00  4.9204995E-01
   7165.33  4.8738583E-01
   7165.67  4.8273812E-01
   7166.00  4.7811275E-01
   7166.33  4.7351979E-01
   7166.67  4.6896205E-01
   7167.00  4.6444569E-01
   7167.33  4.5997773E-01
   7167.67  4.5554358E-01
   7168.00  4.5113619E-01
   7168.33  4.4675614E-01
   7168.67  4.4239854E-01
   7169.00  4.3806005E-01
   7169.33  4.3373749E-01
   7169.67  4.2942468E-01
   7170.00  4.2511962E-01
   7170.33  4.2082771E-01
   7170.67  4.1656744E-01
   7171.00  4.1237950E-01
   7171.33  4.0838242E-01
   7171.67  4.0474745E-01
   7172.00  4.0173263E-01
