    FDMNES
    energy     <xanes>
   7097.00  4.3277142E-03
   7097.33  4.4115173E-03
   7097.67  4.4984102E-03
   7098.00  4.5885703E-03
   7098.33  4.6826610E-03
   7098.67  4.7804952E-03
   7099.00  4.8823084E-03
   7099.33  4.9889384E-03
   7099.67  5.1001872E-03
   7100.00  5.2163753E-03
   7100.33  5.3385888E-03
   7100.67  5.4666276E-03
   7101.00  5.6009429E-03
   7101.33  5.7429874E-03
   7101.67  5.8925805E-03
   7102.00  6.0503836E-03
   7102.33  6.2184162E-03
   7102.67  6.3965677E-03
   7103.00  6.5858553E-03
   7103.33  6.7892271E-03
   7103.67  7.0067598E-03
   7104.00  7.2401152E-03
   7104.33  7.4938725E-03
   7104.67  7.7685833E-03
   7105.00  8.0671774E-03
   7105.33  8.3973650E-03
   7105.67  8.7609343E-03
   7106.00  9.1635891E-03
   7106.33  9.6197836E-03
   7106.67  1.0134812E-02
   7107.00  1.0721372E-02
   7107.33  1.1410917E-02
   7107.67  1.2220286E-02
   7108.00  1.3183727E-02
   7108.33  1.4386525E-02
   7108.67  1.5894099E-02
   7109.00  1.7830910E-02
   7109.33  2.0525876E-02
   7109.67  2.4349253E-02
   7110.00  3.0027953E-02
   7110.33  3.9639282E-02
   7110.67  5.5213604E-02
   7111.00  7.6442553E-02
   7111.33  9.6473888E-02
   7111.67  1.1413521E-01
   7112.00  1.2835541E-01
   7112.33  1.3764621E-01
   7112.67  1.5092502E-01
   7113.00  1.5939101E-01
   7113.33  1.4033014E-01
   7113.67  1.0741280E-01
   7114.00  8.0051361E-02
   7114.33  6.4224984E-02
   7114.67  5.4370146E-02
   7115.00  4.8268351E-02
   7115.33  4.5572692E-02
   7115.67  4.5317720E-02
   7116.00  4.7191939E-02
   7116.33  5.1385135E-02
   7116.67  5.7731154E-02
   7117.00  6.6327615E-02
   7117.33  7.7401034E-02
   7117.67  8.9911046E-02
   7118.00  1.0258894E-01
   7118.33  1.1493107E-01
   7118.67  1.2808329E-01
   7119.00  1.4250299E-01
   7119.33  1.5652782E-01
   7119.67  1.6704240E-01
   7120.00  1.7240690E-01
   7120.33  1.7362543E-01
   7120.67  1.7487664E-01
   7121.00  1.7906454E-01
   7121.33  1.8888423E-01
   7121.67  2.0468957E-01
   7122.00  2.2657404E-01
   7122.33  2.5366639E-01
   7122.67  2.8192916E-01
   7123.00  3.0835339E-01
   7123.33  3.3135114E-01
   7123.67  3.5011001E-01
   7124.00  3.6117540E-01
   7124.33  3.6293039E-01
   7124.67  3.6455780E-01
   7125.00  3.7383303E-01
   7125.33  3.9663827E-01
   7125.67  4.3100055E-01
   7126.00  4.7346503E-01
   7126.33  5.1926688E-01
   7126.67  5.6430474E-01
   7127.00  6.0709839E-01
   7127.33  6.4726162E-01
   7127.67  6.8590566E-01
   7128.00  7.2343116E-01
   7128.33  7.5844942E-01
   7128.67  7.8818371E-01
   7129.00  8.0888102E-01
   7129.33  8.1473276E-01
   7129.67  8.0636619E-01
   7130.00  7.8690271E-01
   7130.33  7.6215199E-01
   7130.67  7.3814793E-01
   7131.00  7.1736980E-01
   7131.33  7.0156816E-01
   7131.67  6.9076788E-01
   7132.00  6.8522539E-01
   7132.33  6.8529919E-01
   7132.67  6.8939783E-01
   7133.00  6.9631799E-01
   7133.33  7.0467198E-01
   7133.67  7.1290228E-01
   7134.00  7.2030934E-01
   7134.33  7.2683444E-01
   7134.67  7.3250127E-01
   7135.00  7.3593389E-01
   7135.33  7.3417183E-01
   7135.67  7.2692873E-01
   7136.00  7.1527331E-01
   7136.33  7.0124906E-01
   7136.67  6.8744563E-01
   7137.00  6.7542964E-01
   7137.33  6.6676264E-01
   7137.67  6.6161119E-01
   7138.00  6.6000084E-01
   7138.33  6.6198271E-01
   7138.67  6.6653545E-01
   7139.00  6.7298136E-01
   7139.33  6.8052652E-01
   7139.67  6.8804263E-01
   7140.00  6.9463968E-01
   7140.33  6.9908856E-01
   7140.67  7.0080422E-01
   7141.00  6.9931378E-01
   7141.33  6.9399984E-01
   7141.67  6.8548068E-01
   7142.00  6.7415160E-01
   7142.33  6.6031672E-01
   7142.67  6.4484829E-01
   7143.00  6.2820667E-01
   7143.33  6.1074918E-01
   7143.67  5.9291253E-01
   7144.00  5.7491665E-01
   7144.33  5.5694747E-01
   7144.67  5.3914075E-01
   7145.00  5.2161487E-01
   7145.33  5.0459819E-01
   7145.67  4.8826221E-01
   7146.00  4.7284808E-01
   7146.33  4.5881973E-01
   7146.67  4.4632155E-01
   7147.00  4.3556157E-01
   7147.33  4.2692167E-01
   7147.67  4.2018605E-01
   7148.00  4.1526910E-01
   7148.33  4.1216950E-01
   7148.67  4.1040421E-01
   7149.00  4.0970661E-01
   7149.33  4.0986943E-01
   7149.67  4.1054309E-01
   7150.00  4.1155467E-01
   7150.33  4.1273988E-01
   7150.67  4.1389419E-01
   7151.00  4.1485656E-01
   7151.33  4.1540135E-01
   7151.67  4.1540616E-01
   7152.00  4.1473925E-01
   7152.33  4.1317673E-01
   7152.67  4.1073186E-01
   7153.00  4.0736421E-01
   7153.33  4.0295432E-01
   7153.67  3.9766675E-01
   7154.00  3.9158790E-01
   7154.33  3.8478733E-01
   7154.67  3.7753824E-01
   7155.00  3.7002806E-01
   7155.33  3.6247508E-01
   7155.67  3.5509171E-01
   7156.00  3.4803136E-01
   7156.33  3.4148995E-01
   7156.67  3.3549866E-01
   7157.00  3.3009322E-01
   7157.33  3.2534416E-01
   7157.67  3.2114219E-01
   7158.00  3.1744087E-01
   7158.33  3.1423327E-01
   7158.67  3.1140539E-01
   7159.00  3.0891534E-01
   7159.33  3.0676675E-01
   7159.67  3.0490439E-01
   7160.00  3.0332633E-01
   7160.33  3.0208154E-01
   7160.67  3.0115716E-01
   7161.00  3.0058132E-01
   7161.33  3.0044464E-01
   7161.67  3.0075025E-01
   7162.00  3.0154722E-01
   7162.33  3.0296383E-01
   7162.67  3.0499155E-01
   7163.00  3.0767978E-01
   7163.33  3.1116545E-01
   7163.67  3.1539004E-01
   7164.00  3.2035999E-01
   7164.33  3.2614898E-01
   7164.67  3.3262307E-01
   7165.00  3.3972842E-01
   7165.33  3.4745908E-01
   7165.67  3.5566269E-01
   7166.00  3.6426647E-01
   7166.33  3.7322825E-01
   7166.67  3.8243182E-01
   7167.00  3.9181644E-01
   7167.33  4.0132872E-01
   7167.67  4.1088613E-01
   7168.00  4.2043130E-01
   7168.33  4.2989177E-01
   7168.67  4.3921597E-01
   7169.00  4.4835185E-01
   7169.33  4.5720799E-01
   7169.67  4.6575437E-01
   7170.00  4.7393683E-01
   7170.33  4.8163552E-01
   7170.67  4.8883159E-01
   7171.00  4.9545267E-01
   7171.33  5.0130438E-01
   7171.67  5.0631067E-01
   7172.00  5.1028876E-01
