    FDMNES
    energy     <xanes>
   7097.00  5.0748682E-03
   7097.33  5.1946720E-03
   7097.67  5.3199086E-03
   7098.00  5.4509480E-03
   7098.33  5.5890519E-03
   7098.67  5.7339667E-03
   7099.00  5.8861984E-03
   7099.33  6.0474006E-03
   7099.67  6.2173166E-03
   7100.00  6.3966566E-03
   7100.33  6.5876474E-03
   7100.67  6.7900557E-03
   7101.00  7.0049115E-03
   7101.33  7.2353091E-03
   7101.67  7.4810990E-03
   7102.00  7.7438320E-03
   7102.33  8.0279745E-03
   7102.67  8.3335941E-03
   7103.00  8.6631338E-03
   7103.33  9.0233461E-03
   7103.67  9.4148191E-03
   7104.00  9.8416206E-03
   7104.33  1.0314566E-02
   7104.67  1.0835491E-02
   7105.00  1.1411658E-02
   7105.33  1.2061714E-02
   7105.67  1.2790634E-02
   7106.00  1.3612619E-02
   7106.33  1.4563107E-02
   7106.67  1.5655734E-02
   7107.00  1.6921924E-02
   7107.33  1.8438829E-02
   7107.67  2.0247807E-02
   7108.00  2.2432041E-02
   7108.33  2.5197263E-02
   7108.67  2.8697528E-02
   7109.00  3.3224621E-02
   7109.33  3.9541804E-02
   7109.67  4.8479110E-02
   7110.00  6.1658778E-02
   7110.33  8.3767949E-02
   7110.67  1.2030857E-01
   7111.00  1.7434574E-01
   7111.33  2.2749530E-01
   7111.67  2.6598938E-01
   7112.00  3.0083443E-01
   7112.33  3.3993644E-01
   7112.67  3.8395961E-01
   7113.00  4.2817051E-01
   7113.33  4.3342224E-01
   7113.67  3.9867152E-01
   7114.00  3.5458049E-01
   7114.33  2.9648724E-01
   7114.67  2.3300342E-01
   7115.00  1.8361266E-01
   7115.33  1.5355387E-01
   7115.67  1.3411689E-01
   7116.00  1.1987095E-01
   7116.33  1.0801982E-01
   7116.67  9.8220473E-02
   7117.00  9.0884062E-02
   7117.33  8.6339932E-02
   7117.67  8.4009795E-02
   7118.00  8.3679857E-02
   7118.33  8.5442072E-02
   7118.67  8.8963949E-02
   7119.00  9.4062595E-02
   7119.33  1.0041745E-01
   7119.67  1.0736478E-01
   7120.00  1.1445209E-01
   7120.33  1.2090990E-01
   7120.67  1.2653617E-01
   7121.00  1.3197117E-01
   7121.33  1.3904328E-01
   7121.67  1.4928674E-01
   7122.00  1.6335626E-01
   7122.33  1.8182780E-01
   7122.67  2.0448307E-01
   7123.00  2.3087467E-01
   7123.33  2.5987753E-01
   7123.67  2.8991370E-01
   7124.00  3.1991458E-01
   7124.33  3.4834180E-01
   7124.67  3.7518704E-01
   7125.00  4.0207121E-01
   7125.33  4.3158771E-01
   7125.67  4.6376055E-01
   7126.00  4.9729760E-01
   7126.33  5.3015200E-01
   7126.67  5.6091911E-01
   7127.00  5.8895422E-01
   7127.33  6.1381500E-01
   7127.67  6.3594748E-01
   7128.00  6.5499800E-01
   7128.33  6.6902694E-01
   7128.67  6.7704265E-01
   7129.00  6.7956482E-01
   7129.33  6.8019463E-01
   7129.67  6.8419098E-01
   7130.00  6.9449671E-01
   7130.33  7.1279016E-01
   7130.67  7.3719178E-01
   7131.00  7.6625666E-01
   7131.33  7.9818963E-01
   7131.67  8.3017833E-01
   7132.00  8.6011934E-01
   7132.33  8.8566347E-01
   7132.67  9.0540773E-01
   7133.00  9.1651628E-01
   7133.33  9.1444236E-01
   7133.67  9.0371755E-01
   7134.00  8.9303411E-01
   7134.33  8.9192173E-01
   7134.67  8.9851371E-01
   7135.00  9.0707148E-01
   7135.33  9.1128216E-01
   7135.67  9.0873380E-01
   7136.00  8.9874604E-01
   7136.33  8.8097111E-01
   7136.67  8.5766789E-01
   7137.00  8.3038553E-01
   7137.33  8.0072538E-01
   7137.67  7.7062729E-01
   7138.00  7.4126326E-01
   7138.33  7.1386211E-01
   7138.67  6.8884946E-01
   7139.00  6.6652010E-01
   7139.33  6.4731949E-01
   7139.67  6.3079505E-01
   7140.00  6.1674064E-01
   7140.33  6.0509247E-01
   7140.67  5.9519438E-01
   7141.00  5.8669420E-01
   7141.33  5.7931001E-01
   7141.67  5.7254324E-01
   7142.00  5.6611923E-01
   7142.33  5.5979528E-01
   7142.67  5.5336775E-01
   7143.00  5.4671270E-01
   7143.33  5.3968816E-01
   7143.67  5.3227477E-01
   7144.00  5.2444660E-01
   7144.33  5.1615137E-01
   7144.67  5.0747421E-01
   7145.00  4.9847049E-01
   7145.33  4.8920486E-01
   7145.67  4.7982819E-01
   7146.00  4.7046183E-01
   7146.33  4.6127557E-01
   7146.67  4.5239738E-01
   7147.00  4.4394546E-01
   7147.33  4.3610681E-01
   7147.67  4.2890603E-01
   7148.00  4.2239897E-01
   7148.33  4.1671564E-01
   7148.67  4.1178144E-01
   7149.00  4.0759760E-01
   7149.33  4.0424318E-01
   7149.67  4.0160272E-01
   7150.00  3.9965226E-01
   7150.33  3.9844297E-01
   7150.67  3.9785748E-01
   7151.00  3.9786030E-01
   7151.33  3.9846481E-01
   7151.67  3.9953138E-01
   7152.00  4.0097706E-01
   7152.33  4.0270839E-01
   7152.67  4.0453806E-01
   7153.00  4.0631381E-01
   7153.33  4.0781951E-01
   7153.67  4.0890759E-01
   7154.00  4.0944683E-01
   7154.33  4.0924093E-01
   7154.67  4.0831241E-01
   7155.00  4.0664862E-01
   7155.33  4.0417830E-01
   7155.67  4.0103793E-01
   7156.00  3.9729050E-01
   7156.33  3.9297248E-01
   7156.67  3.8827311E-01
   7157.00  3.8331757E-01
   7157.33  3.7825379E-01
   7157.67  3.7326045E-01
   7158.00  3.6847762E-01
   7158.33  3.6409902E-01
   7158.67  3.6020203E-01
   7159.00  3.5686371E-01
   7159.33  3.5421641E-01
   7159.67  3.5220490E-01
   7160.00  3.5082450E-01
   7160.33  3.5012414E-01
   7160.67  3.4998629E-01
   7161.00  3.5036763E-01
   7161.33  3.5126760E-01
   7161.67  3.5256278E-01
   7162.00  3.5419242E-01
   7162.33  3.5611645E-01
   7162.67  3.5823005E-01
   7163.00  3.6047437E-01
   7163.33  3.6279756E-01
   7163.67  3.6514243E-01
   7164.00  3.6747839E-01
   7164.33  3.6978263E-01
   7164.67  3.7206082E-01
   7165.00  3.7432754E-01
   7165.33  3.7660907E-01
   7165.67  3.7893144E-01
   7166.00  3.8131743E-01
   7166.33  3.8380006E-01
   7166.67  3.8638410E-01
   7167.00  3.8907682E-01
   7167.33  3.9189345E-01
   7167.67  3.9481431E-01
   7168.00  3.9782895E-01
   7168.33  4.0093022E-01
   7168.67  4.0408847E-01
   7169.00  4.0728494E-01
   7169.33  4.1049914E-01
   7169.67  4.1370644E-01
   7170.00  4.1688687E-01
   7170.33  4.2000902E-01
   7170.67  4.2304937E-01
   7171.00  4.2597284E-01
   7171.33  4.2869219E-01
   7171.67  4.3111511E-01
   7172.00  4.3309192E-01
