    FDMNES
    energy     <xanes>
   7097.00  5.2677817E-03
   7097.33  5.3932374E-03
   7097.67  5.5244715E-03
   7098.00  5.6618790E-03
   7098.33  5.8068034E-03
   7098.67  5.9589761E-03
   7099.00  6.1189351E-03
   7099.33  6.2884394E-03
   7099.67  6.4672134E-03
   7100.00  6.6560094E-03
   7100.33  6.8571888E-03
   7100.67  7.0704951E-03
   7101.00  7.2970120E-03
   7101.33  7.5400055E-03
   7101.67  7.7992953E-03
   7102.00  8.0764990E-03
   7102.33  8.3762975E-03
   7102.67  8.6987135E-03
   7103.00  9.0462665E-03
   7103.33  9.4259626E-03
   7103.67  9.8383134E-03
   7104.00  1.0287454E-02
   7104.33  1.0784453E-02
   7104.67  1.1330989E-02
   7105.00  1.1934313E-02
   7105.33  1.2613162E-02
   7105.67  1.3372115E-02
   7106.00  1.4225034E-02
   7106.33  1.5206698E-02
   7106.67  1.6329548E-02
   7107.00  1.7623406E-02
   7107.33  1.9161715E-02
   7107.67  2.0981513E-02
   7108.00  2.3159043E-02
   7108.33  2.5882684E-02
   7108.67  2.9286577E-02
   7109.00  3.3627068E-02
   7109.33  3.9570390E-02
   7109.67  4.7813507E-02
   7110.00  5.9714758E-02
   7110.33  7.9142097E-02
   7110.67  1.1038038E-01
   7111.00  1.5596530E-01
   7111.33  2.0801205E-01
   7111.67  2.5818076E-01
   7112.00  3.0394792E-01
   7112.33  3.3170723E-01
   7112.67  3.5442478E-01
   7113.00  3.9609540E-01
   7113.33  4.6018917E-01
   7113.67  5.0356713E-01
   7114.00  4.9347904E-01
   7114.33  4.3794231E-01
   7114.67  3.7622643E-01
   7115.00  3.2485462E-01
   7115.33  2.9060066E-01
   7115.67  2.6941004E-01
   7116.00  2.5714600E-01
   7116.33  2.4761980E-01
   7116.67  2.3454982E-01
   7117.00  2.1552237E-01
   7117.33  1.9167200E-01
   7117.67  1.6901202E-01
   7118.00  1.5117582E-01
   7118.33  1.3963144E-01
   7118.67  1.3248698E-01
   7119.00  1.2842150E-01
   7119.33  1.2634076E-01
   7119.67  1.2507400E-01
   7120.00  1.2406534E-01
   7120.33  1.2292396E-01
   7120.67  1.2154658E-01
   7121.00  1.1997170E-01
   7121.33  1.1851896E-01
   7121.67  1.1784441E-01
   7122.00  1.1858673E-01
   7122.33  1.2146055E-01
   7122.67  1.2630753E-01
   7123.00  1.3300136E-01
   7123.33  1.4162374E-01
   7123.67  1.5198740E-01
   7124.00  1.6429252E-01
   7124.33  1.7926579E-01
   7124.67  1.9706200E-01
   7125.00  2.1782585E-01
   7125.33  2.4158264E-01
   7125.67  2.6729547E-01
   7126.00  2.9438178E-01
   7126.33  3.2274318E-01
   7126.67  3.5199946E-01
   7127.00  3.8102663E-01
   7127.33  4.0708073E-01
   7127.67  4.2840004E-01
   7128.00  4.4498930E-01
   7128.33  4.5899115E-01
   7128.67  4.7384086E-01
   7129.00  4.9147886E-01
   7129.33  5.1386245E-01
   7129.67  5.4134270E-01
   7130.00  5.7414928E-01
   7130.33  6.1222557E-01
   7130.67  6.5324961E-01
   7131.00  6.9521929E-01
   7131.33  7.3595465E-01
   7131.67  7.7449741E-01
   7132.00  8.1069517E-01
   7132.33  8.4474745E-01
   7132.67  8.7750789E-01
   7133.00  9.0907108E-01
   7133.33  9.3815694E-01
   7133.67  9.6294897E-01
   7134.00  9.8131469E-01
   7134.33  9.8982084E-01
   7134.67  9.8780067E-01
   7135.00  9.7463002E-01
   7135.33  9.4974013E-01
   7135.67  9.1665610E-01
   7136.00  8.7799926E-01
   7136.33  8.3659204E-01
   7136.67  7.9537272E-01
   7137.00  7.5601203E-01
   7137.33  7.2020279E-01
   7137.67  6.8830854E-01
   7138.00  6.6067468E-01
   7138.33  6.3799794E-01
   7138.67  6.1965264E-01
   7139.00  6.0542107E-01
   7139.33  5.9535091E-01
   7139.67  5.8843555E-01
   7140.00  5.8415413E-01
   7140.33  5.8213970E-01
   7140.67  5.8155334E-01
   7141.00  5.8194388E-01
   7141.33  5.8292912E-01
   7141.67  5.8407849E-01
   7142.00  5.8513584E-01
   7142.33  5.8580745E-01
   7142.67  5.8592039E-01
   7143.00  5.8531069E-01
   7143.33  5.8370344E-01
   7143.67  5.8108661E-01
   7144.00  5.7739986E-01
   7144.33  5.7250176E-01
   7144.67  5.6659267E-01
   7145.00  5.5978415E-01
   7145.33  5.5217028E-01
   7145.67  5.4406715E-01
   7146.00  5.3568267E-01
   7146.33  5.2721707E-01
   7146.67  5.1883991E-01
   7147.00  5.1067219E-01
   7147.33  5.0288357E-01
   7147.67  4.9553870E-01
   7148.00  4.8870991E-01
   7148.33  4.8253088E-01
   7148.67  4.7696959E-01
   7149.00  4.7204717E-01
   7149.33  4.6785811E-01
   7149.67  4.6432528E-01
   7150.00  4.6144796E-01
   7150.33  4.5930683E-01
   7150.67  4.5782166E-01
   7151.00  4.5699407E-01
   7151.33  4.5690831E-01
   7151.67  4.5748351E-01
   7152.00  4.5871601E-01
   7152.33  4.6067010E-01
   7152.67  4.6323354E-01
   7153.00  4.6636406E-01
   7153.33  4.7005739E-01
   7153.67  4.7416578E-01
   7154.00  4.7860175E-01
   7154.33  4.8327839E-01
   7154.67  4.8805353E-01
   7155.00  4.9283424E-01
   7155.33  4.9751534E-01
   7155.67  5.0203263E-01
   7156.00  5.0633809E-01
   7156.33  5.1036481E-01
   7156.67  5.1412671E-01
   7157.00  5.1762056E-01
   7157.33  5.2081829E-01
   7157.67  5.2376133E-01
   7158.00  5.2645608E-01
   7158.33  5.2887529E-01
   7158.67  5.3104649E-01
   7159.00  5.3296163E-01
   7159.33  5.3457253E-01
   7159.67  5.3589505E-01
   7160.00  5.3691282E-01
   7160.33  5.3756869E-01
   7160.67  5.3789106E-01
   7161.00  5.3787513E-01
   7161.33  5.3748199E-01
   7161.67  5.3676713E-01
   7162.00  5.3575003E-01
   7162.33  5.3443165E-01
   7162.67  5.3289187E-01
   7163.00  5.3117038E-01
   7163.33  5.2929907E-01
   7163.67  5.2735080E-01
   7164.00  5.2537152E-01
   7164.33  5.2340682E-01
   7164.67  5.2148735E-01
   7165.00  5.1963126E-01
   7165.33  5.1785795E-01
   7165.67  5.1615877E-01
   7166.00  5.1452793E-01
   7166.33  5.1295932E-01
   7166.67  5.1142872E-01
   7167.00  5.0991961E-01
   7167.33  5.0841198E-01
   7167.67  5.0688577E-01
   7168.00  5.0532538E-01
   7168.33  5.0370888E-01
   7168.67  5.0203183E-01
   7169.00  5.0029182E-01
   7169.33  4.9848540E-01
   7169.67  4.9662521E-01
   7170.00  4.9471928E-01
   7170.33  4.9278052E-01
   7170.67  4.9083814E-01
   7171.00  4.8892431E-01
   7171.33  4.8710724E-01
   7171.67  4.8547030E-01
   7172.00  4.8412847E-01
