    FDMNES
    energy     <xanes>
   7097.00  5.1152608E-03
   7097.33  5.2330007E-03
   7097.67  5.3560319E-03
   7098.00  5.4847119E-03
   7098.33  5.6202646E-03
   7098.67  5.7624389E-03
   7099.00  5.9117221E-03
   7099.33  6.0697140E-03
   7099.67  6.2361579E-03
   7100.00  6.4117354E-03
   7100.33  6.5985930E-03
   7100.67  6.7964928E-03
   7101.00  7.0064185E-03
   7101.33  7.2313404E-03
   7101.67  7.4710940E-03
   7102.00  7.7271527E-03
   7102.33  8.0037823E-03
   7102.67  8.3010130E-03
   7103.00  8.6211528E-03
   7103.33  8.9706133E-03
   7103.67  9.3498967E-03
   7104.00  9.7628230E-03
   7104.33  1.0219595E-02
   7104.67  1.0721855E-02
   7105.00  1.1276385E-02
   7105.33  1.1900662E-02
   7105.67  1.2599211E-02
   7106.00  1.3385238E-02
   7106.33  1.4291799E-02
   7106.67  1.5331442E-02
   7107.00  1.6533390E-02
   7107.33  1.7969596E-02
   7107.67  1.9678735E-02
   7108.00  2.1738938E-02
   7108.33  2.4344378E-02
   7108.67  2.7643638E-02
   7109.00  3.1919721E-02
   7109.33  3.7922238E-02
   7109.67  4.6500892E-02
   7110.00  5.9331386E-02
   7110.33  8.1204522E-02
   7110.67  1.1652159E-01
   7111.00  1.6257845E-01
   7111.33  1.9586101E-01
   7111.67  2.1678656E-01
   7112.00  2.4336090E-01
   7112.33  2.8703256E-01
   7112.67  3.4178601E-01
   7113.00  3.9480922E-01
   7113.33  4.1604971E-01
   7113.67  3.9802999E-01
   7114.00  3.5575015E-01
   7114.33  3.0888720E-01
   7114.67  2.6988468E-01
   7115.00  2.4173959E-01
   7115.33  2.2481715E-01
   7115.67  2.1595212E-01
   7116.00  2.1318260E-01
   7116.33  2.1256526E-01
   7116.67  2.0736015E-01
   7117.00  1.9444083E-01
   7117.33  1.7706682E-01
   7117.67  1.6178518E-01
   7118.00  1.5094090E-01
   7118.33  1.4482021E-01
   7118.67  1.4133682E-01
   7119.00  1.3908931E-01
   7119.33  1.3721992E-01
   7119.67  1.3572367E-01
   7120.00  1.3484536E-01
   7120.33  1.3453188E-01
   7120.67  1.3436749E-01
   7121.00  1.3437450E-01
   7121.33  1.3525294E-01
   7121.67  1.3762151E-01
   7122.00  1.4185412E-01
   7122.33  1.4841835E-01
   7122.67  1.5722086E-01
   7123.00  1.6844784E-01
   7123.33  1.8265198E-01
   7123.67  1.9958988E-01
   7124.00  2.1907593E-01
   7124.33  2.4061943E-01
   7124.67  2.6269604E-01
   7125.00  2.8401206E-01
   7125.33  3.0324513E-01
   7125.67  3.2039613E-01
   7126.00  3.3590744E-01
   7126.33  3.5057169E-01
   7126.67  3.6543550E-01
   7127.00  3.8131700E-01
   7127.33  3.9954637E-01
   7127.67  4.2105800E-01
   7128.00  4.4653505E-01
   7128.33  4.7595561E-01
   7128.67  5.0721985E-01
   7129.00  5.3899894E-01
   7129.33  5.7054267E-01
   7129.67  6.0200078E-01
   7130.00  6.3414580E-01
   7130.33  6.6890878E-01
   7130.67  7.0808185E-01
   7131.00  7.5268799E-01
   7131.33  8.0099901E-01
   7131.67  8.4728557E-01
   7132.00  8.8733781E-01
   7132.33  9.1772288E-01
   7132.67  9.3966692E-01
   7133.00  9.5445601E-01
   7133.33  9.6313971E-01
   7133.67  9.6745319E-01
   7134.00  9.6732313E-01
   7134.33  9.6083558E-01
   7134.67  9.4702605E-01
   7135.00  9.2497804E-01
   7135.33  8.9397764E-01
   7135.67  8.5674227E-01
   7136.00  8.1541659E-01
   7136.33  7.7232830E-01
   7136.67  7.2973132E-01
   7137.00  6.8891178E-01
   7137.33  6.5125337E-01
   7137.67  6.1709379E-01
   7138.00  5.8685205E-01
   7138.33  5.6140421E-01
   7138.67  5.4040276E-01
   7139.00  5.2385244E-01
   7139.33  5.1207913E-01
   7139.67  5.0413492E-01
   7140.00  4.9953965E-01
   7140.33  4.9801045E-01
   7140.67  4.9858739E-01
   7141.00  5.0077892E-01
   7141.33  5.0421208E-01
   7141.67  5.0830772E-01
   7142.00  5.1273882E-01
   7142.33  5.1717812E-01
   7142.67  5.2135443E-01
   7143.00  5.2508219E-01
   7143.33  5.2811058E-01
   7143.67  5.3036789E-01
   7144.00  5.3172825E-01
   7144.33  5.3191735E-01
   7144.67  5.3095270E-01
   7145.00  5.2879789E-01
   7145.33  5.2537200E-01
   7145.67  5.2098947E-01
   7146.00  5.1586752E-01
   7146.33  5.1024076E-01
   7146.67  5.0445374E-01
   7147.00  4.9872776E-01
   7147.33  4.9331142E-01
   7147.67  4.8833600E-01
   7148.00  4.8390849E-01
   7148.33  4.8020142E-01
   7148.67  4.7719546E-01
   7149.00  4.7491589E-01
   7149.33  4.7345713E-01
   7149.67  4.7271005E-01
   7150.00  4.7264429E-01
   7150.33  4.7327523E-01
   7150.67  4.7443119E-01
   7151.00  4.7600616E-01
   7151.33  4.7788632E-01
   7151.67  4.7987522E-01
   7152.00  4.8183388E-01
   7152.33  4.8359532E-01
   7152.67  4.8506907E-01
   7153.00  4.8619282E-01
   7153.33  4.8688998E-01
   7153.67  4.8722257E-01
   7154.00  4.8723265E-01
   7154.33  4.8696463E-01
   7154.67  4.8654327E-01
   7155.00  4.8605588E-01
   7155.33  4.8560863E-01
   7155.67  4.8529293E-01
   7156.00  4.8518297E-01
   7156.33  4.8538847E-01
   7156.67  4.8593530E-01
   7157.00  4.8686475E-01
   7157.33  4.8826449E-01
   7157.67  4.9010396E-01
   7158.00  4.9238995E-01
   7158.33  4.9517254E-01
   7158.67  4.9837818E-01
   7159.00  5.0198066E-01
   7159.33  5.0598227E-01
   7159.67  5.1028476E-01
   7160.00  5.1483338E-01
   7160.33  5.1957930E-01
   7160.67  5.2442574E-01
   7161.00  5.2930804E-01
   7161.33  5.3415211E-01
   7161.67  5.3890142E-01
   7162.00  5.4350768E-01
   7162.33  5.4790192E-01
   7162.67  5.5208126E-01
   7163.00  5.5602923E-01
   7163.33  5.5969289E-01
   7163.67  5.6307553E-01
   7164.00  5.6614609E-01
   7164.33  5.6881678E-01
   7164.67  5.7108216E-01
   7165.00  5.7289713E-01
   7165.33  5.7414618E-01
   7165.67  5.7484311E-01
   7166.00  5.7495661E-01
   7166.33  5.7439149E-01
   7166.67  5.7322060E-01
   7167.00  5.7145503E-01
   7167.33  5.6905362E-01
   7167.67  5.6613427E-01
   7168.00  5.6274903E-01
   7168.33  5.5891813E-01
   7168.67  5.5476982E-01
   7169.00  5.5037507E-01
   7169.33  5.4578933E-01
   7169.67  5.4110451E-01
   7170.00  5.3637807E-01
   7170.33  5.3167796E-01
   7170.67  5.2706992E-01
   7171.00  5.2262398E-01
   7171.33  5.1848886E-01
   7171.67  5.1481691E-01
   7172.00  5.1184080E-01
