    FDMNES
    energy     <xanes>
   7097.00  5.0504134E-03
   7097.33  5.1691764E-03
   7097.67  5.2933084E-03
   7098.00  5.4231702E-03
   7098.33  5.5600000E-03
   7098.67  5.7035399E-03
   7099.00  5.8542798E-03
   7099.33  6.0138343E-03
   7099.67  6.1819373E-03
   7100.00  6.3592717E-03
   7100.33  6.5479966E-03
   7100.67  6.7478604E-03
   7101.00  6.9598439E-03
   7101.33  7.1869223E-03
   7101.67  7.4289096E-03
   7102.00  7.6872663E-03
   7102.33  7.9662415E-03
   7102.67  8.2658286E-03
   7103.00  8.5882985E-03
   7103.33  8.9399925E-03
   7103.67  9.3213410E-03
   7104.00  9.7360679E-03
   7104.33  1.0194171E-02
   7104.67  1.0697130E-02
   7105.00  1.1251476E-02
   7105.33  1.1874119E-02
   7105.67  1.2569164E-02
   7106.00  1.3349111E-02
   7106.33  1.4245362E-02
   7106.67  1.5269158E-02
   7107.00  1.6447458E-02
   7107.33  1.7846691E-02
   7107.67  1.9500450E-02
   7108.00  2.1477831E-02
   7108.33  2.3949536E-02
   7108.67  2.7037286E-02
   7109.00  3.0973429E-02
   7109.33  3.6361298E-02
   7109.67  4.3830536E-02
   7110.00  5.4604747E-02
   7110.33  7.2129230E-02
   7110.67  9.9907172E-02
   7111.00  1.3922491E-01
   7111.33  1.8666407E-01
   7111.67  2.4474031E-01
   7112.00  3.0919860E-01
   7112.33  3.4929236E-01
   7112.67  3.5978998E-01
   7113.00  3.6134427E-01
   7113.33  3.5230985E-01
   7113.67  3.1922986E-01
   7114.00  2.7721340E-01
   7114.33  2.4814929E-01
   7114.67  2.3765057E-01
   7115.00  2.4811745E-01
   7115.33  2.8191368E-01
   7115.67  3.1960353E-01
   7116.00  3.2942549E-01
   7116.33  2.9582669E-01
   7116.67  2.5445132E-01
   7117.00  2.2488549E-01
   7117.33  2.0999961E-01
   7117.67  2.0121874E-01
   7118.00  1.9561842E-01
   7118.33  1.9156902E-01
   7118.67  1.8732026E-01
   7119.00  1.8350077E-01
   7119.33  1.8053302E-01
   7119.67  1.7759287E-01
   7120.00  1.7532382E-01
   7120.33  1.7535473E-01
   7120.67  1.7651617E-01
   7121.00  1.7668560E-01
   7121.33  1.7455780E-01
   7121.67  1.7180316E-01
   7122.00  1.7081976E-01
   7122.33  1.7531302E-01
   7122.67  1.8683861E-01
   7123.00  2.0624540E-01
   7123.33  2.3448530E-01
   7123.67  2.6888882E-01
   7124.00  3.0535519E-01
   7124.33  3.3612879E-01
   7124.67  3.5751679E-01
   7125.00  3.7045291E-01
   7125.33  3.7943059E-01
   7125.67  3.8814669E-01
   7126.00  3.9463656E-01
   7126.33  3.9685407E-01
   7126.67  3.9826337E-01
   7127.00  4.0131657E-01
   7127.33  4.0776645E-01
   7127.67  4.1838897E-01
   7128.00  4.3425374E-01
   7128.33  4.5714904E-01
   7128.67  4.8636827E-01
   7129.00  5.2079816E-01
   7129.33  5.5819467E-01
   7129.67  5.9463513E-01
   7130.00  6.2710862E-01
   7130.33  6.5318818E-01
   7130.67  6.7401340E-01
   7131.00  6.9046882E-01
   7131.33  7.0249345E-01
   7131.67  7.1041910E-01
   7132.00  7.1435906E-01
   7132.33  7.1522222E-01
   7132.67  7.1523214E-01
   7133.00  7.1538529E-01
   7133.33  7.1590825E-01
   7133.67  7.1664319E-01
   7134.00  7.1757828E-01
   7134.33  7.1871705E-01
   7134.67  7.1958529E-01
   7135.00  7.1899706E-01
   7135.33  7.1395195E-01
   7135.67  7.0195690E-01
   7136.00  6.8125922E-01
   7136.33  6.5105886E-01
   7136.67  6.1514596E-01
   7137.00  5.7675475E-01
   7137.33  5.3930768E-01
   7137.67  5.0487289E-01
   7138.00  4.7447223E-01
   7138.33  4.4924153E-01
   7138.67  4.2873341E-01
   7139.00  4.1276297E-01
   7139.33  4.0127099E-01
   7139.67  3.9292992E-01
   7140.00  3.8698818E-01
   7140.33  3.8297764E-01
   7140.67  3.8031416E-01
   7141.00  3.7888211E-01
   7141.33  3.7880248E-01
   7141.67  3.7991872E-01
   7142.00  3.8222148E-01
   7142.33  3.8584868E-01
   7142.67  3.9064908E-01
   7143.00  3.9661397E-01
   7143.33  4.0384885E-01
   7143.67  4.1212905E-01
   7144.00  4.2133144E-01
   7144.33  4.3133820E-01
   7144.67  4.4179859E-01
   7145.00  4.5246184E-01
   7145.33  4.6299858E-01
   7145.67  4.7310291E-01
   7146.00  4.8252436E-01
   7146.33  4.9091976E-01
   7146.67  4.9827381E-01
   7147.00  5.0457944E-01
   7147.33  5.0984210E-01
   7147.67  5.1442622E-01
   7148.00  5.1863156E-01
   7148.33  5.2286810E-01
   7148.67  5.2753848E-01
   7149.00  5.3295757E-01
   7149.33  5.3956271E-01
   7149.67  5.4744313E-01
   7150.00  5.5671144E-01
   7150.33  5.6758351E-01
   7150.67  5.7981915E-01
   7151.00  5.9329127E-01
   7151.33  6.0790605E-01
   7151.67  6.2325254E-01
   7152.00  6.3904849E-01
   7152.33  6.5494322E-01
   7152.67  6.7053662E-01
   7153.00  6.8548861E-01
   7153.33  6.9930229E-01
   7153.67  7.1175359E-01
   7154.00  7.2254788E-01
   7154.33  7.3113257E-01
   7154.67  7.3753006E-01
   7155.00  7.4164626E-01
   7155.33  7.4321876E-01
   7155.67  7.4267851E-01
   7156.00  7.4022895E-01
   7156.33  7.3595278E-01
   7156.67  7.3035334E-01
   7157.00  7.2367904E-01
   7157.33  7.1609369E-01
   7157.67  7.0793089E-01
   7158.00  6.9936320E-01
   7158.33  6.9053492E-01
   7158.67  6.8161694E-01
   7159.00  6.7270401E-01
   7159.33  6.6388824E-01
   7159.67  6.5521234E-01
   7160.00  6.4670439E-01
   7160.33  6.3841015E-01
   7160.67  6.3032632E-01
   7161.00  6.2246864E-01
   7161.33  6.1489107E-01
   7161.67  6.0760133E-01
   7162.00  6.0064468E-01
   7162.33  5.9413218E-01
   7162.67  5.8808017E-01
   7163.00  5.8253938E-01
   7163.33  5.7761874E-01
   7163.67  5.7326023E-01
   7164.00  5.6944517E-01
   7164.33  5.6617524E-01
   7164.67  5.6329162E-01
   7165.00  5.6068244E-01
   7165.33  5.5820814E-01
   7165.67  5.5568721E-01
   7166.00  5.5298019E-01
   7166.33  5.4990127E-01
   7166.67  5.4638001E-01
   7167.00  5.4235256E-01
   7167.33  5.3771413E-01
   7167.67  5.3253602E-01
   7168.00  5.2684622E-01
   7168.33  5.2063885E-01
   7168.67  5.1404039E-01
   7169.00  5.0712116E-01
   7169.33  4.9994303E-01
   7169.67  4.9263140E-01
   7170.00  4.8527210E-01
   7170.33  4.7797613E-01
   7170.67  4.7085010E-01
   7171.00  4.6400815E-01
   7171.33  4.5768486E-01
   7171.67  4.5209529E-01
   7172.00  4.4756596E-01
