    FDMNES
    energy     <xanes>
   7097.00  5.0251880E-03
   7097.33  5.1425460E-03
   7097.67  5.2651224E-03
   7098.00  5.3932608E-03
   7098.33  5.5281525E-03
   7098.67  5.6695367E-03
   7099.00  5.8178769E-03
   7099.33  5.9747172E-03
   7099.67  6.1397845E-03
   7100.00  6.3137201E-03
   7100.33  6.4985739E-03
   7100.67  6.6940794E-03
   7101.00  6.9011497E-03
   7101.33  7.1225851E-03
   7101.67  7.3581682E-03
   7102.00  7.6092447E-03
   7102.33  7.8797733E-03
   7102.67  8.1696807E-03
   7103.00  8.4810341E-03
   7103.33  8.8196693E-03
   7103.67  9.1858716E-03
   7104.00  9.5829834E-03
   7104.33  1.0020070E-02
   7104.67  1.0498284E-02
   7105.00  1.1023390E-02
   7105.33  1.1610454E-02
   7105.67  1.2262784E-02
   7106.00  1.2991212E-02
   7106.33  1.3823139E-02
   7106.67  1.4767704E-02
   7107.00  1.5847783E-02
   7107.33  1.7120017E-02
   7107.67  1.8611708E-02
   7108.00  2.0380337E-02
   7108.33  2.2568348E-02
   7108.67  2.5274884E-02
   7109.00  2.8691509E-02
   7109.33  3.3318155E-02
   7109.67  3.9679189E-02
   7110.00  4.8802939E-02
   7110.33  6.3583032E-02
   7110.67  8.6638360E-02
   7111.00  1.1698045E-01
   7111.33  1.4447483E-01
   7111.67  1.7355137E-01
   7112.00  2.2126991E-01
   7112.33  2.9385196E-01
   7112.67  3.5183047E-01
   7113.00  3.6798362E-01
   7113.33  3.6109146E-01
   7113.67  3.7113678E-01
   7114.00  3.7411013E-01
   7114.33  3.2971623E-01
   7114.67  2.8152576E-01
   7115.00  2.5632031E-01
   7115.33  2.6323636E-01
   7115.67  2.9515610E-01
   7116.00  3.4004273E-01
   7116.33  3.6637667E-01
   7116.67  3.5186527E-01
   7117.00  3.0868091E-01
   7117.33  2.6682593E-01
   7117.67  2.3687059E-01
   7118.00  2.1767731E-01
   7118.33  2.0618176E-01
   7118.67  1.9697875E-01
   7119.00  1.8853115E-01
   7119.33  1.8100394E-01
   7119.67  1.7479238E-01
   7120.00  1.7026099E-01
   7120.33  1.6666124E-01
   7120.67  1.6195283E-01
   7121.00  1.5647963E-01
   7121.33  1.5254195E-01
   7121.67  1.5090096E-01
   7122.00  1.5195868E-01
   7122.33  1.5665743E-01
   7122.67  1.6521127E-01
   7123.00  1.7826806E-01
   7123.33  1.9701325E-01
   7123.67  2.2030310E-01
   7124.00  2.4654832E-01
   7124.33  2.7430259E-01
   7124.67  3.0329439E-01
   7125.00  3.3332477E-01
   7125.33  3.6233603E-01
   7125.67  3.8737145E-01
   7126.00  4.0568370E-01
   7126.33  4.1362816E-01
   7126.67  4.1251868E-01
   7127.00  4.0536048E-01
   7127.33  3.9687586E-01
   7127.67  3.9084888E-01
   7128.00  3.8868815E-01
   7128.33  3.9130788E-01
   7128.67  3.9836918E-01
   7129.00  4.1050335E-01
   7129.33  4.2982731E-01
   7129.67  4.5708418E-01
   7130.00  4.9330622E-01
   7130.33  5.3999360E-01
   7130.67  5.9490261E-01
   7131.00  6.5584036E-01
   7131.33  7.1939281E-01
   7131.67  7.8034986E-01
   7132.00  8.3305022E-01
   7132.33  8.6807370E-01
   7132.67  8.8308998E-01
   7133.00  8.8073394E-01
   7133.33  8.7027463E-01
   7133.67  8.6452273E-01
   7134.00  8.7058825E-01
   7134.33  8.9184909E-01
   7134.67  9.1851231E-01
   7135.00  9.3487348E-01
   7135.33  9.1687159E-01
   7135.67  8.6333984E-01
   7136.00  7.8628232E-01
   7136.33  7.0365165E-01
   7136.67  6.2732756E-01
   7137.00  5.6050773E-01
   7137.33  5.0444133E-01
   7137.67  4.5690292E-01
   7138.00  4.1711555E-01
   7138.33  3.8537668E-01
   7138.67  3.6036496E-01
   7139.00  3.4169446E-01
   7139.33  3.2951195E-01
   7139.67  3.2240400E-01
   7140.00  3.1974990E-01
   7140.33  3.2135899E-01
   7140.67  3.2620737E-01
   7141.00  3.3391701E-01
   7141.33  3.4444465E-01
   7141.67  3.5717586E-01
   7142.00  3.7186816E-01
   7142.33  3.8843468E-01
   7142.67  4.0632183E-01
   7143.00  4.2515862E-01
   7143.33  4.4443152E-01
   7143.67  4.6336454E-01
   7144.00  4.8122057E-01
   7144.33  4.9687531E-01
   7144.67  5.0986597E-01
   7145.00  5.1988139E-01
   7145.33  5.2664075E-01
   7145.67  5.3101273E-01
   7146.00  5.3363689E-01
   7146.33  5.3516832E-01
   7146.67  5.3639290E-01
   7147.00  5.3772706E-01
   7147.33  5.3954192E-01
   7147.67  5.4198955E-01
   7148.00  5.4518115E-01
   7148.33  5.4927517E-01
   7148.67  5.5415328E-01
   7149.00  5.5974284E-01
   7149.33  5.6597617E-01
   7149.67  5.7260379E-01
   7150.00  5.7945985E-01
   7150.33  5.8636213E-01
   7150.67  5.9314403E-01
   7151.00  5.9970042E-01
   7151.33  6.0591367E-01
   7151.67  6.1178268E-01
   7152.00  6.1729859E-01
   7152.33  6.2242713E-01
   7152.67  6.2723073E-01
   7153.00  6.3172832E-01
   7153.33  6.3590501E-01
   7153.67  6.3981321E-01
   7154.00  6.4346321E-01
   7154.33  6.4683258E-01
   7154.67  6.4996106E-01
   7155.00  6.5285944E-01
   7155.33  6.5552265E-01
   7155.67  6.5801014E-01
   7156.00  6.6036126E-01
   7156.33  6.6262228E-01
   7156.67  6.6486303E-01
   7157.00  6.6712841E-01
   7157.33  6.6945862E-01
   7157.67  6.7184807E-01
   7158.00  6.7426892E-01
   7158.33  6.7665309E-01
   7158.67  6.7891497E-01
   7159.00  6.8096589E-01
   7159.33  6.8266006E-01
   7159.67  6.8393724E-01
   7160.00  6.8472321E-01
   7160.33  6.8488115E-01
   7160.67  6.8443491E-01
   7161.00  6.8335942E-01
   7161.33  6.8156667E-01
   7161.67  6.7915249E-01
   7162.00  6.7614429E-01
   7162.33  6.7251312E-01
   7162.67  6.6837133E-01
   7163.00  6.6375266E-01
   7163.33  6.5863034E-01
   7163.67  6.5307518E-01
   7164.00  6.4708737E-01
   7164.33  6.4059703E-01
   7164.67  6.3363390E-01
   7165.00  6.2616958E-01
   7165.33  6.1810455E-01
   7165.67  6.0948359E-01
   7166.00  6.0030304E-01
   7166.33  5.9051406E-01
   7166.67  5.8023079E-01
   7167.00  5.6951368E-01
   7167.33  5.5840875E-01
   7167.67  5.4706278E-01
   7168.00  5.3557068E-01
   7168.33  5.2403853E-01
   7168.67  5.1258021E-01
   7169.00  5.0128860E-01
   7169.33  4.9029818E-01
   7169.67  4.7966148E-01
   7170.00  4.6944219E-01
   7170.33  4.5977242E-01
   7170.67  4.5066691E-01
   7171.00  4.4220559E-01
   7171.33  4.3462143E-01
   7171.67  4.2804706E-01
   7172.00  4.2277026E-01
