    FDMNES
    energy     <xanes>
   7097.00  4.9099036E-03
   7097.33  5.0236076E-03
   7097.67  5.1422162E-03
   7098.00  5.2660418E-03
   7098.33  5.3961866E-03
   7098.67  5.5323914E-03
   7099.00  5.6750749E-03
   7099.33  5.8256546E-03
   7099.67  5.9838568E-03
   7100.00  6.1502570E-03
   7100.33  6.3267227E-03
   7100.67  6.5129816E-03
   7101.00  6.7098479E-03
   7101.33  6.9198540E-03
   7101.67  7.1427656E-03
   7102.00  7.3797772E-03
   7102.33  7.6344440E-03
   7102.67  7.9066536E-03
   7103.00  8.1982352E-03
   7103.33  8.5144009E-03
   7103.67  8.8553519E-03
   7104.00  9.2240443E-03
   7104.33  9.6285489E-03
   7104.67  1.0069841E-02
   7105.00  1.0553037E-02
   7105.33  1.1091556E-02
   7105.67  1.1688342E-02
   7106.00  1.2353084E-02
   7106.33  1.3110352E-02
   7106.67  1.3968511E-02
   7107.00  1.4948348E-02
   7107.33  1.6101403E-02
   7107.67  1.7453316E-02
   7108.00  1.9057558E-02
   7108.33  2.1046877E-02
   7108.67  2.3516560E-02
   7109.00  2.6649472E-02
   7109.33  3.0923289E-02
   7109.67  3.6845865E-02
   7110.00  4.5411614E-02
   7110.33  5.9501230E-02
   7110.67  8.2672821E-02
   7111.00  1.1796072E-01
   7111.33  1.5569546E-01
   7111.67  1.7995781E-01
   7112.00  1.9790501E-01
   7112.33  2.1083517E-01
   7112.67  2.1555444E-01
   7113.00  2.2525580E-01
   7113.33  2.5376186E-01
   7113.67  2.9568587E-01
   7114.00  3.3661915E-01
   7114.33  3.5327397E-01
   7114.67  3.2163582E-01
   7115.00  2.5486334E-01
   7115.33  1.9924223E-01
   7115.67  1.6600330E-01
   7116.00  1.5089235E-01
   7116.33  1.5152643E-01
   7116.67  1.6562320E-01
   7117.00  1.9445015E-01
   7117.33  2.3538439E-01
   7117.67  2.6471445E-01
   7118.00  2.6869639E-01
   7118.33  2.7065830E-01
   7118.67  2.9338731E-01
   7119.00  3.4010544E-01
   7119.33  3.9922429E-01
   7119.67  4.4081140E-01
   7120.00  4.5150898E-01
   7120.33  4.3739444E-01
   7120.67  4.0970351E-01
   7121.00  3.7392203E-01
   7121.33  3.4052202E-01
   7121.67  3.1538729E-01
   7122.00  2.9892921E-01
   7122.33  2.9059567E-01
   7122.67  2.8783712E-01
   7123.00  2.8914151E-01
   7123.33  2.9341667E-01
   7123.67  3.0011517E-01
   7124.00  3.0962457E-01
   7124.33  3.2230060E-01
   7124.67  3.3710795E-01
   7125.00  3.5363752E-01
   7125.33  3.7235725E-01
   7125.67  3.9284686E-01
   7126.00  4.1397915E-01
   7126.33  4.3397046E-01
   7126.67  4.5218721E-01
   7127.00  4.6894782E-01
   7127.33  4.8471345E-01
   7127.67  4.9933033E-01
   7128.00  5.1218461E-01
   7128.33  5.2323200E-01
   7128.67  5.3400286E-01
   7129.00  5.4569867E-01
   7129.33  5.5920986E-01
   7129.67  5.7380791E-01
   7130.00  5.8775023E-01
   7130.33  5.9786254E-01
   7130.67  6.0261369E-01
   7131.00  6.0194768E-01
   7131.33  5.9764880E-01
   7131.67  5.9350386E-01
   7132.00  5.9191849E-01
   7132.33  5.9482552E-01
   7132.67  6.0189133E-01
   7133.00  6.1262805E-01
   7133.33  6.2641878E-01
   7133.67  6.4172753E-01
   7134.00  6.5742067E-01
   7134.33  6.7205287E-01
   7134.67  6.8455683E-01
   7135.00  6.9412351E-01
   7135.33  6.9963490E-01
   7135.67  7.0117745E-01
   7136.00  6.9870322E-01
   7136.33  6.9196089E-01
   7136.67  6.8181185E-01
   7137.00  6.6859595E-01
   7137.33  6.5232289E-01
   7137.67  6.3371842E-01
   7138.00  6.1326642E-01
   7138.33  5.9171457E-01
   7138.67  5.7036316E-01
   7139.00  5.5027354E-01
   7139.33  5.3271116E-01
   7139.67  5.1793283E-01
   7140.00  5.0604200E-01
   7140.33  4.9717324E-01
   7140.67  4.9058925E-01
   7141.00  4.8589235E-01
   7141.33  4.8283647E-01
   7141.67  4.8092315E-01
   7142.00  4.8000334E-01
   7142.33  4.8015962E-01
   7142.67  4.8133533E-01
   7143.00  4.8360935E-01
   7143.33  4.8717857E-01
   7143.67  4.9185416E-01
   7144.00  4.9749339E-01
   7144.33  5.0391270E-01
   7144.67  5.1070023E-01
   7145.00  5.1755295E-01
   7145.33  5.2408203E-01
   7145.67  5.3003307E-01
   7146.00  5.3525476E-01
   7146.33  5.3961555E-01
   7146.67  5.4330668E-01
   7147.00  5.4647191E-01
   7147.33  5.4924365E-01
   7147.67  5.5179912E-01
   7148.00  5.5419798E-01
   7148.33  5.5642819E-01
   7148.67  5.5846427E-01
   7149.00  5.6024323E-01
   7149.33  5.6163369E-01
   7149.67  5.6258396E-01
   7150.00  5.6301515E-01
   7150.33  5.6277370E-01
   7150.67  5.6187629E-01
   7151.00  5.6029205E-01
   7151.33  5.5793527E-01
   7151.67  5.5492913E-01
   7152.00  5.5132896E-01
   7152.33  5.4715416E-01
   7152.67  5.4255852E-01
   7153.00  5.3761285E-01
   7153.33  5.3234391E-01
   7153.67  5.2682175E-01
   7154.00  5.2105333E-01
   7154.33  5.1498852E-01
   7154.67  5.0862400E-01
   7155.00  5.0193021E-01
   7155.33  4.9484690E-01
   7155.67  4.8743052E-01
   7156.00  4.7972483E-01
   7156.33  4.7179462E-01
   7156.67  4.6378620E-01
   7157.00  4.5581681E-01
   7157.33  4.4804347E-01
   7157.67  4.4056215E-01
   7158.00  4.3345223E-01
   7158.33  4.2683340E-01
   7158.67  4.2068937E-01
   7159.00  4.1503779E-01
   7159.33  4.0995215E-01
   7159.67  4.0537329E-01
   7160.00  4.0129981E-01
   7160.33  3.9778424E-01
   7160.67  3.9474414E-01
   7161.00  3.9215273E-01
   7161.33  3.9002028E-01
   7161.67  3.8824555E-01
   7162.00  3.8677780E-01
   7162.33  3.8558308E-01
   7162.67  3.8456497E-01
   7163.00  3.8366985E-01
   7163.33  3.8285041E-01
   7163.67  3.8205499E-01
   7164.00  3.8125881E-01
   7164.33  3.8044532E-01
   7164.67  3.7961656E-01
   7165.00  3.7878329E-01
   7165.33  3.7797030E-01
   7165.67  3.7720575E-01
   7166.00  3.7651991E-01
   7166.33  3.7596481E-01
   7166.67  3.7556284E-01
   7167.00  3.7534305E-01
   7167.33  3.7536054E-01
   7167.67  3.7561012E-01
   7168.00  3.7610320E-01
   7168.33  3.7687657E-01
   7168.67  3.7789720E-01
   7169.00  3.7915805E-01
   7169.33  3.8067422E-01
   7169.67  3.8239934E-01
   7170.00  3.8431385E-01
   7170.33  3.8640921E-01
   7170.67  3.8862725E-01
   7171.00  3.9092168E-01
   7171.33  3.9320536E-01
   7171.67  3.9532827E-01
   7172.00  3.9709461E-01
