    FDMNES
    energy     <xanes>
   7097.00  4.4759039E-03
   7097.33  4.5733482E-03
   7097.67  4.6749852E-03
   7098.00  4.7810983E-03
   7098.33  4.8926591E-03
   7098.67  5.0094719E-03
   7099.00  5.1319275E-03
   7099.33  5.2613049E-03
   7099.67  5.3974116E-03
   7100.00  5.5408036E-03
   7100.33  5.6932164E-03
   7100.67  5.8544876E-03
   7101.00  6.0254370E-03
   7101.33  6.2085071E-03
   7101.67  6.4036250E-03
   7102.00  6.6120528E-03
   7102.33  6.8373821E-03
   7102.67  7.0797634E-03
   7103.00  7.3412426E-03
   7103.33  7.6273934E-03
   7103.67  7.9389022E-03
   7104.00  8.2793028E-03
   7104.33  8.6578452E-03
   7104.67  9.0765280E-03
   7105.00  9.5419628E-03
   7105.33  1.0070875E-02
   7105.67  1.0668689E-02
   7106.00  1.1349127E-02
   7106.33  1.2146052E-02
   7106.67  1.3074869E-02
   7107.00  1.4168346E-02
   7107.33  1.5506660E-02
   7107.67  1.7139601E-02
   7108.00  1.9162948E-02
   7108.33  2.1815683E-02
   7108.67  2.5301753E-02
   7109.00  3.0003312E-02
   7109.33  3.6946565E-02
   7109.67  4.7378043E-02
   7110.00  6.3760702E-02
   7110.33  9.3217098E-02
   7110.67  1.4252766E-01
   7111.00  2.0824397E-01
   7111.33  2.5491721E-01
   7111.67  2.6392129E-01
   7112.00  2.5137986E-01
   7112.33  2.3711703E-01
   7112.67  2.1393975E-01
   7113.00  1.7479834E-01
   7113.33  1.3856182E-01
   7113.67  1.1544990E-01
   7114.00  1.0365436E-01
   7114.33  9.9297519E-02
   7114.67  9.6143017E-02
   7115.00  9.1033336E-02
   7115.33  8.3263820E-02
   7115.67  7.4657696E-02
   7116.00  6.6495551E-02
   7116.33  5.9847619E-02
   7116.67  5.4855930E-02
   7117.00  5.1374426E-02
   7117.33  4.9246360E-02
   7117.67  4.8126177E-02
   7118.00  4.7922568E-02
   7118.33  4.8650377E-02
   7118.67  5.0110000E-02
   7119.00  5.2207806E-02
   7119.33  5.4951339E-02
   7119.67  5.8328803E-02
   7120.00  6.2458012E-02
   7120.33  6.7541803E-02
   7120.67  7.3529172E-02
   7121.00  8.0566753E-02
   7121.33  8.9240210E-02
   7121.67  9.9872546E-02
   7122.00  1.1278288E-01
   7122.33  1.2848170E-01
   7122.67  1.4691012E-01
   7123.00  1.6842092E-01
   7123.33  1.9357678E-01
   7123.67  2.2132179E-01
   7124.00  2.5047940E-01
   7124.33  2.7990117E-01
   7124.67  3.0978355E-01
   7125.00  3.4157076E-01
   7125.33  3.7709238E-01
   7125.67  4.1575357E-01
   7126.00  4.5798639E-01
   7126.33  5.0690207E-01
   7126.67  5.6272459E-01
   7127.00  6.2415805E-01
   7127.33  6.8991986E-01
   7127.67  7.5667798E-01
   7128.00  8.1915915E-01
   7128.33  8.6837867E-01
   7128.67  9.0081293E-01
   7129.00  9.1527052E-01
   7129.33  9.1145716E-01
   7129.67  8.9596073E-01
   7130.00  8.7388048E-01
   7130.33  8.5043897E-01
   7130.67  8.2867228E-01
   7131.00  8.0894017E-01
   7131.33  7.9130510E-01
   7131.67  7.7636310E-01
   7132.00  7.6558412E-01
   7132.33  7.6064625E-01
   7132.67  7.5985386E-01
   7133.00  7.6106396E-01
   7133.33  7.6206292E-01
   7133.67  7.6200807E-01
   7134.00  7.6093109E-01
   7134.33  7.5884422E-01
   7134.67  7.5582583E-01
   7135.00  7.5185779E-01
   7135.33  7.4644012E-01
   7135.67  7.3871565E-01
   7136.00  7.2803540E-01
   7136.33  7.1479933E-01
   7136.67  7.0109549E-01
   7137.00  6.8841307E-01
   7137.33  6.7809160E-01
   7137.67  6.7027337E-01
   7138.00  6.6493601E-01
   7138.33  6.6205472E-01
   7138.67  6.6085433E-01
   7139.00  6.6078471E-01
   7139.33  6.6119208E-01
   7139.67  6.6137668E-01
   7140.00  6.6095148E-01
   7140.33  6.5964966E-01
   7140.67  6.5767221E-01
   7141.00  6.5523517E-01
   7141.33  6.5259954E-01
   7141.67  6.5002784E-01
   7142.00  6.4766954E-01
   7142.33  6.4565912E-01
   7142.67  6.4396919E-01
   7143.00  6.4256186E-01
   7143.33  6.4138471E-01
   7143.67  6.4031358E-01
   7144.00  6.3925613E-01
   7144.33  6.3808722E-01
   7144.67  6.3669896E-01
   7145.00  6.3497762E-01
   7145.33  6.3271199E-01
   7145.67  6.2979141E-01
   7146.00  6.2605787E-01
   7146.33  6.2120372E-01
   7146.67  6.1519289E-01
   7147.00  6.0792397E-01
   7147.33  5.9917342E-01
   7147.67  5.8911264E-01
   7148.00  5.7778788E-01
   7148.33  5.6514158E-01
   7148.67  5.5143361E-01
   7149.00  5.3677695E-01
   7149.33  5.2122274E-01
   7149.67  5.0504367E-01
   7150.00  4.8841376E-01
   7150.33  4.7154876E-01
   7150.67  4.5476424E-01
   7151.00  4.3834218E-01
   7151.33  4.2271583E-01
   7151.67  4.0812110E-01
   7152.00  3.9478718E-01
   7152.33  3.8307279E-01
   7152.67  3.7286982E-01
   7153.00  3.6415928E-01
   7153.33  3.5701294E-01
   7153.67  3.5108417E-01
   7154.00  3.4618672E-01
   7154.33  3.4218072E-01
   7154.67  3.3872308E-01
   7155.00  3.3561667E-01
   7155.33  3.3268342E-01
   7155.67  3.2975412E-01
   7156.00  3.2673708E-01
   7156.33  3.2354450E-01
   7156.67  3.2019283E-01
   7157.00  3.1673115E-01
   7157.33  3.1325181E-01
   7157.67  3.0987452E-01
   7158.00  3.0670644E-01
   7158.33  3.0390701E-01
   7158.67  3.0153449E-01
   7159.00  2.9965176E-01
   7159.33  2.9837061E-01
   7159.67  2.9764153E-01
   7160.00  2.9746237E-01
   7160.33  2.9788434E-01
   7160.67  2.9881406E-01
   7161.00  3.0022139E-01
   7161.33  3.0212176E-01
   7161.67  3.0442050E-01
   7162.00  3.0708904E-01
   7162.33  3.1013553E-01
   7162.67  3.1347530E-01
   7163.00  3.1706792E-01
   7163.33  3.2089132E-01
   7163.67  3.2487489E-01
   7164.00  3.2898469E-01
   7164.33  3.3320086E-01
   7164.67  3.3748729E-01
   7165.00  3.4182752E-01
   7165.33  3.4621198E-01
   7165.67  3.5062336E-01
   7166.00  3.5504791E-01
   7166.33  3.5946050E-01
   7166.67  3.6383682E-01
   7167.00  3.6815588E-01
   7167.33  3.7238357E-01
   7167.67  3.7650977E-01
   7168.00  3.8052264E-01
   7168.33  3.8440200E-01
   7168.67  3.8816632E-01
   7169.00  3.9182456E-01
   7169.33  3.9537955E-01
   7169.67  3.9885698E-01
   7170.00  4.0226519E-01
   7170.33  4.0559657E-01
   7170.67  4.0884588E-01
   7171.00  4.1198359E-01
   7171.33  4.1491910E-01
   7171.67  4.1754627E-01
   7172.00  4.1969841E-01
