    FDMNES
    energy     <xanes>
   7097.00  4.3748598E-03
   7097.33  4.4717505E-03
   7097.67  4.5729514E-03
   7098.00  4.6787565E-03
   7098.33  4.7901674E-03
   7098.67  4.9069837E-03
   7099.00  5.0296075E-03
   7099.33  5.1593526E-03
   7099.67  5.2960160E-03
   7100.00  5.4401627E-03
   7100.33  5.5935621E-03
   7100.67  5.7560300E-03
   7101.00  5.9283853E-03
   7101.33  6.1130865E-03
   7101.67  6.3100150E-03
   7102.00  6.5204019E-03
   7102.33  6.7477928E-03
   7102.67  6.9922373E-03
   7103.00  7.2556690E-03
   7103.33  7.5434360E-03
   7103.67  7.8559875E-03
   7104.00  8.1965265E-03
   7104.33  8.5735780E-03
   7104.67  8.9885378E-03
   7105.00  9.4470737E-03
   7105.33  9.9637565E-03
   7105.67  1.0542320E-02
   7106.00  1.1193680E-02
   7106.33  1.1945109E-02
   7106.67  1.2806608E-02
   7107.00  1.3801726E-02
   7107.33  1.4988224E-02
   7107.67  1.6395295E-02
   7108.00  1.8082548E-02
   7108.33  2.0196360E-02
   7108.67  2.2838304E-02
   7109.00  2.6201024E-02
   7109.33  3.0777096E-02
   7109.67  3.7051423E-02
   7110.00  4.5952714E-02
   7110.33  6.0087258E-02
   7110.67  8.2644776E-02
   7111.00  1.1816521E-01
   7111.33  1.7436636E-01
   7111.67  2.4060802E-01
   7112.00  2.7893519E-01
   7112.33  2.9510221E-01
   7112.67  3.4565572E-01
   7113.00  4.1292483E-01
   7113.33  4.0141884E-01
   7113.67  3.2184472E-01
   7114.00  2.3888777E-01
   7114.33  1.8535295E-01
   7114.67  1.5319886E-01
   7115.00  1.3337915E-01
   7115.33  1.1937288E-01
   7115.67  1.0955151E-01
   7116.00  1.0226609E-01
   7116.33  9.2170973E-02
   7116.67  8.0506136E-02
   7117.00  7.1046965E-02
   7117.33  6.5155193E-02
   7117.67  6.1704297E-02
   7118.00  6.0178437E-02
   7118.33  6.0246212E-02
   7118.67  6.1162124E-02
   7119.00  6.2609763E-02
   7119.33  6.4793325E-02
   7119.67  6.7870550E-02
   7120.00  7.1784081E-02
   7120.33  7.6436084E-02
   7120.67  8.1782874E-02
   7121.00  8.8163512E-02
   7121.33  9.6439564E-02
   7121.67  1.0689437E-01
   7122.00  1.1947551E-01
   7122.33  1.3350297E-01
   7122.67  1.4788018E-01
   7123.00  1.6272363E-01
   7123.33  1.7914127E-01
   7123.67  1.9779837E-01
   7124.00  2.1891484E-01
   7124.33  2.4234015E-01
   7124.67  2.6729781E-01
   7125.00  2.9302727E-01
   7125.33  3.1644568E-01
   7125.67  3.3486343E-01
   7126.00  3.4862640E-01
   7126.33  3.6149428E-01
   7126.67  3.7885559E-01
   7127.00  4.0406458E-01
   7127.33  4.3939898E-01
   7127.67  4.8295115E-01
   7128.00  5.3344237E-01
   7128.33  5.8800234E-01
   7128.67  6.3722038E-01
   7129.00  6.6788806E-01
   7129.33  6.6396028E-01
   7129.67  6.3369659E-01
   7130.00  5.9113436E-01
   7130.33  5.5024141E-01
   7130.67  5.1634612E-01
   7131.00  4.8966601E-01
   7131.33  4.6931306E-01
   7131.67  4.5277662E-01
   7132.00  4.3890132E-01
   7132.33  4.2736798E-01
   7132.67  4.1805284E-01
   7133.00  4.1127126E-01
   7133.33  4.0759750E-01
   7133.67  4.0661652E-01
   7134.00  4.0797134E-01
   7134.33  4.1119802E-01
   7134.67  4.1527582E-01
   7135.00  4.1945416E-01
   7135.33  4.2288705E-01
   7135.67  4.2521628E-01
   7136.00  4.2640286E-01
   7136.33  4.2664196E-01
   7136.67  4.2654957E-01
   7137.00  4.2658981E-01
   7137.33  4.2728843E-01
   7137.67  4.2887823E-01
   7138.00  4.3150165E-01
   7138.33  4.3534236E-01
   7138.67  4.4021816E-01
   7139.00  4.4603783E-01
   7139.33  4.5275836E-01
   7139.67  4.6009356E-01
   7140.00  4.6784686E-01
   7140.33  4.7581924E-01
   7140.67  4.8378571E-01
   7141.00  4.9160417E-01
   7141.33  4.9913571E-01
   7141.67  5.0638560E-01
   7142.00  5.1339154E-01
   7142.33  5.2022471E-01
   7142.67  5.2701372E-01
   7143.00  5.3384741E-01
   7143.33  5.4082856E-01
   7143.67  5.4800829E-01
   7144.00  5.5543604E-01
   7144.33  5.6320358E-01
   7144.67  5.7129232E-01
   7145.00  5.7968129E-01
   7145.33  5.8842484E-01
   7145.67  5.9752192E-01
   7146.00  6.0698700E-01
   7146.33  6.1684771E-01
   7146.67  6.2700318E-01
   7147.00  6.3737213E-01
   7147.33  6.4784089E-01
   7147.67  6.5825364E-01
   7148.00  6.6848252E-01
   7148.33  6.7835160E-01
   7148.67  6.8779314E-01
   7149.00  6.9674160E-01
   7149.33  7.0507762E-01
   7149.67  7.1283329E-01
   7150.00  7.1998408E-01
   7150.33  7.2642576E-01
   7150.67  7.3221145E-01
   7151.00  7.3731781E-01
   7151.33  7.4162879E-01
   7151.67  7.4520775E-01
   7152.00  7.4804222E-01
   7152.33  7.5004668E-01
   7152.67  7.5133691E-01
   7153.00  7.5194327E-01
   7153.33  7.5183682E-01
   7153.67  7.5116232E-01
   7154.00  7.4998567E-01
   7154.33  7.4833817E-01
   7154.67  7.4635849E-01
   7155.00  7.4411901E-01
   7155.33  7.4167493E-01
   7155.67  7.3911710E-01
   7156.00  7.3649482E-01
   7156.33  7.3385146E-01
   7156.67  7.3122237E-01
   7157.00  7.2862798E-01
   7157.33  7.2609439E-01
   7157.67  7.2362759E-01
   7158.00  7.2123047E-01
   7158.33  7.1890509E-01
   7158.67  7.1662926E-01
   7159.00  7.1438530E-01
   7159.33  7.1214937E-01
   7159.67  7.0989579E-01
   7160.00  7.0760005E-01
   7160.33  7.0521732E-01
   7160.67  7.0271914E-01
   7161.00  7.0007058E-01
   7161.33  6.9720241E-01
   7161.67  6.9408898E-01
   7162.00  6.9068256E-01
   7162.33  6.8687648E-01
   7162.67  6.8264607E-01
   7163.00  6.7792808E-01
   7163.33  6.7257789E-01
   7163.67  6.6659662E-01
   7164.00  6.5993452E-01
   7164.33  6.5246009E-01
   7164.67  6.4424594E-01
   7165.00  6.3529995E-01
   7165.33  6.2557333E-01
   7165.67  6.1522115E-01
   7166.00  6.0432434E-01
   7166.33  5.9294435E-01
   7166.67  5.8126315E-01
   7167.00  5.6939348E-01
   7167.33  5.5745524E-01
   7167.67  5.4557517E-01
   7168.00  5.3384647E-01
   7168.33  5.2239549E-01
   7168.67  5.1127316E-01
   7169.00  5.0053942E-01
   7169.33  4.9030802E-01
   7169.67  4.8057166E-01
   7170.00  4.7136755E-01
   7170.33  4.6280791E-01
   7170.67  4.5486447E-01
   7171.00  4.4758488E-01
   7171.33  4.4114945E-01
   7171.67  4.3562046E-01
   7172.00  4.3119718E-01
