    FDMNES
    energy     <xanes>
   7097.00  4.7265611E-03
   7097.33  4.8344165E-03
   7097.67  4.9468677E-03
   7098.00  5.0642081E-03
   7098.33  5.1874719E-03
   7098.67  5.3164182E-03
   7099.00  5.4514419E-03
   7099.33  5.5938774E-03
   7099.67  5.7434728E-03
   7100.00  5.9007746E-03
   7100.33  6.0675483E-03
   7100.67  6.2435489E-03
   7101.00  6.4295562E-03
   7101.33  6.6279794E-03
   7101.67  6.8386202E-03
   7102.00  7.0626343E-03
   7102.33  7.3034343E-03
   7102.67  7.5609590E-03
   7103.00  7.8370010E-03
   7103.33  8.1366226E-03
   7103.67  8.4601074E-03
   7104.00  8.8103978E-03
   7104.33  9.1954527E-03
   7104.67  9.6164019E-03
   7105.00  1.0078432E-02
   7105.33  1.0595032E-02
   7105.67  1.1169486E-02
   7106.00  1.1811830E-02
   7106.33  1.2547327E-02
   7106.67  1.3385247E-02
   7107.00  1.4347636E-02
   7107.33  1.5488892E-02
   7107.67  1.6837554E-02
   7108.00  1.8451767E-02
   7108.33  2.0475720E-02
   7108.67  2.3016731E-02
   7109.00  2.6279016E-02
   7109.33  3.0797905E-02
   7109.67  3.7156890E-02
   7110.00  4.6496821E-02
   7110.33  6.2077622E-02
   7110.67  8.7356550E-02
   7111.00  1.2348272E-01
   7111.33  1.6269686E-01
   7111.67  1.9554902E-01
   7112.00  2.1383138E-01
   7112.33  2.3126805E-01
   7112.67  2.7548623E-01
   7113.00  3.3021504E-01
   7113.33  3.1340240E-01
   7113.67  2.4270275E-01
   7114.00  1.7853307E-01
   7114.33  1.4134860E-01
   7114.67  1.2008053E-01
   7115.00  1.0796567E-01
   7115.33  1.0195142E-01
   7115.67  1.0078943E-01
   7116.00  1.0460797E-01
   7116.33  1.1428866E-01
   7116.67  1.2888396E-01
   7117.00  1.4651079E-01
   7117.33  1.6334022E-01
   7117.67  1.7862450E-01
   7118.00  1.9362646E-01
   7118.33  2.0684570E-01
   7118.67  2.1701908E-01
   7119.00  2.2508430E-01
   7119.33  2.3092717E-01
   7119.67  2.3413247E-01
   7120.00  2.3760805E-01
   7120.33  2.4697626E-01
   7120.67  2.6349667E-01
   7121.00  2.8640722E-01
   7121.33  3.1356219E-01
   7121.67  3.4105960E-01
   7122.00  3.6645285E-01
   7122.33  3.8949559E-01
   7122.67  4.1405619E-01
   7123.00  4.4302267E-01
   7123.33  4.7618762E-01
   7123.67  5.0826003E-01
   7124.00  5.3421644E-01
   7124.33  5.4983936E-01
   7124.67  5.5784848E-01
   7125.00  5.6182925E-01
   7125.33  5.6549875E-01
   7125.67  5.7056615E-01
   7126.00  5.7683219E-01
   7126.33  5.8276017E-01
   7126.67  5.8653037E-01
   7127.00  5.8756380E-01
   7127.33  5.8707935E-01
   7127.67  5.8741996E-01
   7128.00  5.8946214E-01
   7128.33  5.9268033E-01
   7128.67  5.9516985E-01
   7129.00  5.9531595E-01
   7129.33  5.9148149E-01
   7129.67  5.8404533E-01
   7130.00  5.7382683E-01
   7130.33  5.6228567E-01
   7130.67  5.5123478E-01
   7131.00  5.4172880E-01
   7131.33  5.3470885E-01
   7131.67  5.3008588E-01
   7132.00  5.2780162E-01
   7132.33  5.2797313E-01
   7132.67  5.3019201E-01
   7133.00  5.3441418E-01
   7133.33  5.4091895E-01
   7133.67  5.4945774E-01
   7134.00  5.5992932E-01
   7134.33  5.7222071E-01
   7134.67  5.8551922E-01
   7135.00  5.9902455E-01
   7135.33  6.1143646E-01
   7135.67  6.2168177E-01
   7136.00  6.2899782E-01
   7136.33  6.3267417E-01
   7136.67  6.3350197E-01
   7137.00  6.3223577E-01
   7137.33  6.2982980E-01
   7137.67  6.2741522E-01
   7138.00  6.2563273E-01
   7138.33  6.2502216E-01
   7138.67  6.2550734E-01
   7139.00  6.2689731E-01
   7139.33  6.2884049E-01
   7139.67  6.3076500E-01
   7140.00  6.3225350E-01
   7140.33  6.3285591E-01
   7140.67  6.3247966E-01
   7141.00  6.3107287E-01
   7141.33  6.2855083E-01
   7141.67  6.2514960E-01
   7142.00  6.2100499E-01
   7142.33  6.1622357E-01
   7142.67  6.1105269E-01
   7143.00  6.0563543E-01
   7143.33  6.0011715E-01
   7143.67  5.9465973E-01
   7144.00  5.8939112E-01
   7144.33  5.8449900E-01
   7144.67  5.8007689E-01
   7145.00  5.7622198E-01
   7145.33  5.7308610E-01
   7145.67  5.7059813E-01
   7146.00  5.6870703E-01
   7146.33  5.6734907E-01
   7146.67  5.6629418E-01
   7147.00  5.6537901E-01
   7147.33  5.6441205E-01
   7147.67  5.6323879E-01
   7148.00  5.6175528E-01
   7148.33  5.5984693E-01
   7148.67  5.5755363E-01
   7149.00  5.5490489E-01
   7149.33  5.5191388E-01
   7149.67  5.4866209E-01
   7150.00  5.4516560E-01
   7150.33  5.4137893E-01
   7150.67  5.3728899E-01
   7151.00  5.3283685E-01
   7151.33  5.2788633E-01
   7151.67  5.2241533E-01
   7152.00  5.1636357E-01
   7152.33  5.0960036E-01
   7152.67  5.0218704E-01
   7153.00  4.9413384E-01
   7153.33  4.8542060E-01
   7153.67  4.7622629E-01
   7154.00  4.6668131E-01
   7154.33  4.5695318E-01
   7154.67  4.4727261E-01
   7155.00  4.3782230E-01
   7155.33  4.2885021E-01
   7155.67  4.2046070E-01
   7156.00  4.1274998E-01
   7156.33  4.0587326E-01
   7156.67  3.9975123E-01
   7157.00  3.9436258E-01
   7157.33  3.8973667E-01
   7157.67  3.8570934E-01
   7158.00  3.8220033E-01
   7158.33  3.7916091E-01
   7158.67  3.7643616E-01
   7159.00  3.7394070E-01
   7159.33  3.7159960E-01
   7159.67  3.6931480E-01
   7160.00  3.6702827E-01
   7160.33  3.6468133E-01
   7160.67  3.6224625E-01
   7161.00  3.5970808E-01
   7161.33  3.5705281E-01
   7161.67  3.5430723E-01
   7162.00  3.5149207E-01
   7162.33  3.4863457E-01
   7162.67  3.4577605E-01
   7163.00  3.4294529E-01
   7163.33  3.4018103E-01
   7163.67  3.3751066E-01
   7164.00  3.3496448E-01
   7164.33  3.3259636E-01
   7164.67  3.3041902E-01
   7165.00  3.2845917E-01
   7165.33  3.2677806E-01
   7165.67  3.2537425E-01
   7166.00  3.2427170E-01
   7166.33  3.2353572E-01
   7166.67  3.2314475E-01
   7167.00  3.2311022E-01
   7167.33  3.2348511E-01
   7167.67  3.2422484E-01
   7168.00  3.2532439E-01
   7168.33  3.2681589E-01
   7168.67  3.2864021E-01
   7169.00  3.3078031E-01
   7169.33  3.3324865E-01
   7169.67  3.3597991E-01
   7170.00  3.3894449E-01
   7170.33  3.4212433E-01
   7170.67  3.4544050E-01
   7171.00  3.4882695E-01
   7171.33  3.5215668E-01
   7171.67  3.5522669E-01
   7172.00  3.5776871E-01
