    FDMNES
    energy     <xanes>
   7097.00  5.2751236E-03
   7097.33  5.4069452E-03
   7097.67  5.5450340E-03
   7098.00  5.6898278E-03
   7098.33  5.8428001E-03
   7098.67  6.0036721E-03
   7099.00  6.1730438E-03
   7099.33  6.3528547E-03
   7099.67  6.5428234E-03
   7100.00  6.7437933E-03
   7100.33  6.9583854E-03
   7100.67  7.1863468E-03
   7101.00  7.4289012E-03
   7101.33  7.6897003E-03
   7101.67  7.9685904E-03
   7102.00  8.2674129E-03
   7102.33  8.5914469E-03
   7102.67  8.9407935E-03
   7103.00  9.3183492E-03
   7103.33  9.7320985E-03
   7103.67  1.0182751E-02
   7104.00  1.0675119E-02
   7104.33  1.1221980E-02
   7104.67  1.1825501E-02
   7105.00  1.2494251E-02
   7105.33  1.3250219E-02
   7105.67  1.4099238E-02
   7106.00  1.5058017E-02
   7106.33  1.6168258E-02
   7106.67  1.7445929E-02
   7107.00  1.8927943E-02
   7107.33  2.0704990E-02
   7107.67  2.2825658E-02
   7108.00  2.5387850E-02
   7108.33  2.8634109E-02
   7108.67  3.2747211E-02
   7109.00  3.8074145E-02
   7109.33  4.5526648E-02
   7109.67  5.6110775E-02
   7110.00  7.1799403E-02
   7110.33  9.8266214E-02
   7110.67  1.4160059E-01
   7111.00  2.0288924E-01
   7111.33  2.5736611E-01
   7111.67  2.9445418E-01
   7112.00  3.3981479E-01
   7112.33  4.0529258E-01
   7112.67  4.6179842E-01
   7113.00  4.9204253E-01
   7113.33  4.7061416E-01
   7113.67  3.9932557E-01
   7114.00  3.2761857E-01
   7114.33  2.9718214E-01
   7114.67  2.9904856E-01
   7115.00  3.1871034E-01
   7115.33  3.3508695E-01
   7115.67  3.3671896E-01
   7116.00  3.2380782E-01
   7116.33  2.9981749E-01
   7116.67  2.7311231E-01
   7117.00  2.4861051E-01
   7117.33  2.2881777E-01
   7117.67  2.1203255E-01
   7118.00  1.9659017E-01
   7118.33  1.8318562E-01
   7118.67  1.7287826E-01
   7119.00  1.6564714E-01
   7119.33  1.6123474E-01
   7119.67  1.5884100E-01
   7120.00  1.5829475E-01
   7120.33  1.5973099E-01
   7120.67  1.6263211E-01
   7121.00  1.6668362E-01
   7121.33  1.7154591E-01
   7121.67  1.7545857E-01
   7122.00  1.7603268E-01
   7122.33  1.7301367E-01
   7122.67  1.7090017E-01
   7123.00  1.7241371E-01
   7123.33  1.7871570E-01
   7123.67  1.8881704E-01
   7124.00  2.0228804E-01
   7124.33  2.1902548E-01
   7124.67  2.3801151E-01
   7125.00  2.5838893E-01
   7125.33  2.7876843E-01
   7125.67  2.9745754E-01
   7126.00  3.1314952E-01
   7126.33  3.2476170E-01
   7126.67  3.3344892E-01
   7127.00  3.4064937E-01
   7127.33  3.4831744E-01
   7127.67  3.5775993E-01
   7128.00  3.6953568E-01
   7128.33  3.8447551E-01
   7128.67  4.0303567E-01
   7129.00  4.2608793E-01
   7129.33  4.5484485E-01
   7129.67  4.8844509E-01
   7130.00  5.2627394E-01
   7130.33  5.6798138E-01
   7130.67  6.1249375E-01
   7131.00  6.5936918E-01
   7131.33  7.0828836E-01
   7131.67  7.5812772E-01
   7132.00  8.0747227E-01
   7132.33  8.5292809E-01
   7132.67  8.9025212E-01
   7133.00  9.1475864E-01
   7133.33  9.2095648E-01
   7133.67  9.1228703E-01
   7134.00  8.9269123E-01
   7134.33  8.6540318E-01
   7134.67  8.3388823E-01
   7135.00  7.9958146E-01
   7135.33  7.6325108E-01
   7135.67  7.2576076E-01
   7136.00  6.8777015E-01
   7136.33  6.5045121E-01
   7136.67  6.1498068E-01
   7137.00  5.8231696E-01
   7137.33  5.5375603E-01
   7137.67  5.2938838E-01
   7138.00  5.0948138E-01
   7138.33  4.9470968E-01
   7138.67  4.8440539E-01
   7139.00  4.7834755E-01
   7139.33  4.7665006E-01
   7139.67  4.7837756E-01
   7140.00  4.8309693E-01
   7140.33  4.9057318E-01
   7140.67  4.9994483E-01
   7141.00  5.1074999E-01
   7141.33  5.2261468E-01
   7141.67  5.3499812E-01
   7142.00  5.4759368E-01
   7142.33  5.6008545E-01
   7142.67  5.7221830E-01
   7143.00  5.8378284E-01
   7143.33  5.9445742E-01
   7143.67  6.0414829E-01
   7144.00  6.1272873E-01
   7144.33  6.1996025E-01
   7144.67  6.2596965E-01
   7145.00  6.3078746E-01
   7145.33  6.3435857E-01
   7145.67  6.3692735E-01
   7146.00  6.3858547E-01
   7146.33  6.3934512E-01
   7146.67  6.3942142E-01
   7147.00  6.3890895E-01
   7147.33  6.3784546E-01
   7147.67  6.3637691E-01
   7148.00  6.3456550E-01
   7148.33  6.3243686E-01
   7148.67  6.3007622E-01
   7149.00  6.2751941E-01
   7149.33  6.2477557E-01
   7149.67  6.2187213E-01
   7150.00  6.1880840E-01
   7150.33  6.1557453E-01
   7150.67  6.1220161E-01
   7151.00  6.0870103E-01
   7151.33  6.0507685E-01
   7151.67  6.0136988E-01
   7152.00  5.9761432E-01
   7152.33  5.9386631E-01
   7152.67  5.9020029E-01
   7153.00  5.8669943E-01
   7153.33  5.8352041E-01
   7153.67  5.8077170E-01
   7154.00  5.7858884E-01
   7154.33  5.7722200E-01
   7154.67  5.7672233E-01
   7155.00  5.7717491E-01
   7155.33  5.7872370E-01
   7155.67  5.8115196E-01
   7156.00  5.8427004E-01
   7156.33  5.8778823E-01
   7156.67  5.9125866E-01
   7157.00  5.9434152E-01
   7157.33  5.9663497E-01
   7157.67  5.9804852E-01
   7158.00  5.9854444E-01
   7158.33  5.9807959E-01
   7158.67  5.9689475E-01
   7159.00  5.9512625E-01
   7159.33  5.9287296E-01
   7159.67  5.9031589E-01
   7160.00  5.8753698E-01
   7160.33  5.8458168E-01
   7160.67  5.8150966E-01
   7161.00  5.7833740E-01
   7161.33  5.7505364E-01
   7161.67  5.7166009E-01
   7162.00  5.6814096E-01
   7162.33  5.6445103E-01
   7162.67  5.6057348E-01
   7163.00  5.5647021E-01
   7163.33  5.5205525E-01
   7163.67  5.4730774E-01
   7164.00  5.4218074E-01
   7164.33  5.3657190E-01
   7164.67  5.3049799E-01
   7165.00  5.2394235E-01
   7165.33  5.1684717E-01
   7165.67  5.0929970E-01
   7166.00  5.0134418E-01
   7166.33  4.9301172E-01
   7166.67  4.8443458E-01
   7167.00  4.7569981E-01
   7167.33  4.6690780E-01
   7167.67  4.5817147E-01
   7168.00  4.4957719E-01
   7168.33  4.4124612E-01
   7168.67  4.3323663E-01
   7169.00  4.2561462E-01
   7169.33  4.1848763E-01
   7169.67  4.1183471E-01
   7170.00  4.0567592E-01
   7170.33  4.0009005E-01
   7170.67  3.9502294E-01
   7171.00  3.9048289E-01
   7171.33  3.8655960E-01
   7171.67  3.8323862E-01
   7172.00  3.8059844E-01
