    FDMNES
    energy     <xanes>
   7097.00  5.4135110E-03
   7097.33  5.5550390E-03
   7097.67  5.7035117E-03
   7098.00  5.8594253E-03
   7098.33  6.0244311E-03
   7098.67  6.1982359E-03
   7099.00  6.3815232E-03
   7099.33  6.5764804E-03
   7099.67  6.7828160E-03
   7100.00  7.0014976E-03
   7100.33  7.2355000E-03
   7100.67  7.4845734E-03
   7101.00  7.7501305E-03
   7101.33  8.0363466E-03
   7101.67  8.3430996E-03
   7102.00  8.6725307E-03
   7102.33  9.0307239E-03
   7102.67  9.4178754E-03
   7103.00  9.8373784E-03
   7103.33  1.0298513E-02
   7103.67  1.0802224E-02
   7104.00  1.1354193E-02
   7104.33  1.1969400E-02
   7104.67  1.2650571E-02
   7105.00  1.3407891E-02
   7105.33  1.4267359E-02
   7105.67  1.5236155E-02
   7106.00  1.6334244E-02
   7106.33  1.7611273E-02
   7106.67  1.9086622E-02
   7107.00  2.0804477E-02
   7107.33  2.2873055E-02
   7107.67  2.5350448E-02
   7108.00  2.8353019E-02
   7108.33  3.2167778E-02
   7108.67  3.7007494E-02
   7109.00  4.3273898E-02
   7109.33  5.2011313E-02
   7109.67  6.4331149E-02
   7110.00  8.2390165E-02
   7110.33  1.1235876E-01
   7110.67  1.6152102E-01
   7111.00  2.3633240E-01
   7111.33  3.3007874E-01
   7111.67  4.1566702E-01
   7112.00  4.6940233E-01
   7112.33  4.8774473E-01
   7112.67  5.0508252E-01
   7113.00  5.3773760E-01
   7113.33  5.6961014E-01
   7113.67  5.5404373E-01
   7114.00  4.8864247E-01
   7114.33  3.9993093E-01
   7114.67  3.1396010E-01
   7115.00  2.4405957E-01
   7115.33  1.9589557E-01
   7115.67  1.6263131E-01
   7116.00  1.3993638E-01
   7116.33  1.2512256E-01
   7116.67  1.1517738E-01
   7117.00  1.0909445E-01
   7117.33  1.0667042E-01
   7117.67  1.0708969E-01
   7118.00  1.0991900E-01
   7118.33  1.1438176E-01
   7118.67  1.1904811E-01
   7119.00  1.2330670E-01
   7119.33  1.2711549E-01
   7119.67  1.3083264E-01
   7120.00  1.3482022E-01
   7120.33  1.3959954E-01
   7120.67  1.4546559E-01
   7121.00  1.5276383E-01
   7121.33  1.6272491E-01
   7121.67  1.7601957E-01
   7122.00  1.9259492E-01
   7122.33  2.1256529E-01
   7122.67  2.3552737E-01
   7123.00  2.6135444E-01
   7123.33  2.9091052E-01
   7123.67  3.2437170E-01
   7124.00  3.6128292E-01
   7124.33  4.0117608E-01
   7124.67  4.4362305E-01
   7125.00  4.8741268E-01
   7125.33  5.2721010E-01
   7125.67  5.5750839E-01
   7126.00  5.7669379E-01
   7126.33  5.8817360E-01
   7126.67  5.9955356E-01
   7127.00  6.1429167E-01
   7127.33  6.3233417E-01
   7127.67  6.5013484E-01
   7128.00  6.6567118E-01
   7128.33  6.7881910E-01
   7128.67  6.9122306E-01
   7129.00  7.0342173E-01
   7129.33  7.1485459E-01
   7129.67  7.2416268E-01
   7130.00  7.2941040E-01
   7130.33  7.2785689E-01
   7130.67  7.1988420E-01
   7131.00  7.0654473E-01
   7131.33  6.8978800E-01
   7131.67  6.7297439E-01
   7132.00  6.5854467E-01
   7132.33  6.4895206E-01
   7132.67  6.4413785E-01
   7133.00  6.4332536E-01
   7133.33  6.4498436E-01
   7133.67  6.4708256E-01
   7134.00  6.4878583E-01
   7134.33  6.4982767E-01
   7134.67  6.5039935E-01
   7135.00  6.5037571E-01
   7135.33  6.4895168E-01
   7135.67  6.4551251E-01
   7136.00  6.3979519E-01
   7136.33  6.3181516E-01
   7136.67  6.2252262E-01
   7137.00  6.1274317E-01
   7137.33  6.0363188E-01
   7137.67  5.9614984E-01
   7138.00  5.9093745E-01
   7138.33  5.8858505E-01
   7138.67  5.8855237E-01
   7139.00  5.9034105E-01
   7139.33  5.9324628E-01
   7139.67  5.9618236E-01
   7140.00  5.9838568E-01
   7140.33  5.9912811E-01
   7140.67  5.9848820E-01
   7141.00  5.9667146E-01
   7141.33  5.9380896E-01
   7141.67  5.9003252E-01
   7142.00  5.8514954E-01
   7142.33  5.7865427E-01
   7142.67  5.7046841E-01
   7143.00  5.6053335E-01
   7143.33  5.4882347E-01
   7143.67  5.3593421E-01
   7144.00  5.2231852E-01
   7144.33  5.0851135E-01
   7144.67  4.9503647E-01
   7145.00  4.8223955E-01
   7145.33  4.7052233E-01
   7145.67  4.5992074E-01
   7146.00  4.5048392E-01
   7146.33  4.4234153E-01
   7146.67  4.3529319E-01
   7147.00  4.2928077E-01
   7147.33  4.2436375E-01
   7147.67  4.2036891E-01
   7148.00  4.1725210E-01
   7148.33  4.1505862E-01
   7148.67  4.1362016E-01
   7149.00  4.1286224E-01
   7149.33  4.1274020E-01
   7149.67  4.1304348E-01
   7150.00  4.1364331E-01
   7150.33  4.1441228E-01
   7150.67  4.1520196E-01
   7151.00  4.1592149E-01
   7151.33  4.1647259E-01
   7151.67  4.1682003E-01
   7152.00  4.1693355E-01
   7152.33  4.1675934E-01
   7152.67  4.1632195E-01
   7153.00  4.1563273E-01
   7153.33  4.1471396E-01
   7153.67  4.1369001E-01
   7154.00  4.1268977E-01
   7154.33  4.1192485E-01
   7154.67  4.1155552E-01
   7155.00  4.1170638E-01
   7155.33  4.1251790E-01
   7155.67  4.1388225E-01
   7156.00  4.1569298E-01
   7156.33  4.1779085E-01
   7156.67  4.1991300E-01
   7157.00  4.2185620E-01
   7157.33  4.2335738E-01
   7157.67  4.2429906E-01
   7158.00  4.2458657E-01
   7158.33  4.2407908E-01
   7158.67  4.2286745E-01
   7159.00  4.2098838E-01
   7159.33  4.1843685E-01
   7159.67  4.1537387E-01
   7160.00  4.1187944E-01
   7160.33  4.0800637E-01
   7160.67  4.0388898E-01
   7161.00  3.9960160E-01
   7161.33  3.9521291E-01
   7161.67  3.9080854E-01
   7162.00  3.8644820E-01
   7162.33  3.8220810E-01
   7162.67  3.7813164E-01
   7163.00  3.7426420E-01
   7163.33  3.7068202E-01
   7163.67  3.6738364E-01
   7164.00  3.6438869E-01
   7164.33  3.6175991E-01
   7164.67  3.5947206E-01
   7165.00  3.5753078E-01
   7165.33  3.5597800E-01
   7165.67  3.5476344E-01
   7166.00  3.5387795E-01
   7166.33  3.5334763E-01
   7166.67  3.5311788E-01
   7167.00  3.5317569E-01
   7167.33  3.5354095E-01
   7167.67  3.5416634E-01
   7168.00  3.5504108E-01
   7168.33  3.5618293E-01
   7168.67  3.5755093E-01
   7169.00  3.5913543E-01
   7169.33  3.6094946E-01
   7169.67  3.6295184E-01
   7170.00  3.6512492E-01
   7170.33  3.6745891E-01
   7170.67  3.6989648E-01
   7171.00  3.7238858E-01
   7171.33  3.7484082E-01
   7171.67  3.7710237E-01
   7172.00  3.7897494E-01
