    FDMNES
    energy     <xanes>
   7097.00  4.5451749E-03
   7097.33  4.6451097E-03
   7097.67  4.7491887E-03
   7098.00  4.8576725E-03
   7098.33  4.9714870E-03
   7098.67  5.0904100E-03
   7099.00  5.2147914E-03
   7099.33  5.3458222E-03
   7099.67  5.4832697E-03
   7100.00  5.6276167E-03
   7100.33  5.7804347E-03
   7100.67  5.9414953E-03
   7101.00  6.1114862E-03
   7101.33  6.2925447E-03
   7101.67  6.4844815E-03
   7102.00  6.6883130E-03
   7102.33  6.9070563E-03
   7102.67  7.1406381E-03
   7103.00  7.3906304E-03
   7103.33  7.6614904E-03
   7103.67  7.9534381E-03
   7104.00  8.2690418E-03
   7104.33  8.6152733E-03
   7104.67  8.9930690E-03
   7105.00  9.4069263E-03
   7105.33  9.8685743E-03
   7105.67  1.0380755E-02
   7106.00  1.0952082E-02
   7106.33  1.1604275E-02
   7106.67  1.2345011E-02
   7107.00  1.3192888E-02
   7107.33  1.4193820E-02
   7107.67  1.5370942E-02
   7108.00  1.6771960E-02
   7108.33  1.8514760E-02
   7108.67  2.0683174E-02
   7109.00  2.3437193E-02
   7109.33  2.7191675E-02
   7109.67  3.2377312E-02
   7110.00  3.9830652E-02
   7110.33  5.1918026E-02
   7110.67  7.1189461E-02
   7111.00  9.9065190E-02
   7111.33  1.3048676E-01
   7111.67  1.6000923E-01
   7112.00  2.0002811E-01
   7112.33  2.7338647E-01
   7112.67  3.4598008E-01
   7113.00  3.3254254E-01
   7113.33  2.4335713E-01
   7113.67  1.7246982E-01
   7114.00  1.2901911E-01
   7114.33  1.0474076E-01
   7114.67  9.0158497E-02
   7115.00  8.1912494E-02
   7115.33  7.8345266E-02
   7115.67  7.7795889E-02
   7116.00  7.9711288E-02
   7116.33  8.3950916E-02
   7116.67  9.0083303E-02
   7117.00  9.8187007E-02
   7117.33  1.0872127E-01
   7117.67  1.2143705E-01
   7118.00  1.3611468E-01
   7118.33  1.5239384E-01
   7118.67  1.6940720E-01
   7119.00  1.8657439E-01
   7119.33  2.0335611E-01
   7119.67  2.1982191E-01
   7120.00  2.3643376E-01
   7120.33  2.5377172E-01
   7120.67  2.7169686E-01
   7121.00  2.8965190E-01
   7121.33  3.0661049E-01
   7121.67  3.2191366E-01
   7122.00  3.3528267E-01
   7122.33  3.4685244E-01
   7122.67  3.5788166E-01
   7123.00  3.6957151E-01
   7123.33  3.8323002E-01
   7123.67  3.9893222E-01
   7124.00  4.1663669E-01
   7124.33  4.3752680E-01
   7124.67  4.6254661E-01
   7125.00  4.9160224E-01
   7125.33  5.2285916E-01
   7125.67  5.5238344E-01
   7126.00  5.7669896E-01
   7126.33  5.9250110E-01
   7126.67  6.0080462E-01
   7127.00  6.0260078E-01
   7127.33  5.9844988E-01
   7127.67  5.9061400E-01
   7128.00  5.8078501E-01
   7128.33  5.7047399E-01
   7128.67  5.6067502E-01
   7129.00  5.5214422E-01
   7129.33  5.4630457E-01
   7129.67  5.4375473E-01
   7130.00  5.4456750E-01
   7130.33  5.4839450E-01
   7130.67  5.5410505E-01
   7131.00  5.6135169E-01
   7131.33  5.6990567E-01
   7131.67  5.7858220E-01
   7132.00  5.8611020E-01
   7132.33  5.9133178E-01
   7132.67  5.9465731E-01
   7133.00  5.9668153E-01
   7133.33  5.9820543E-01
   7133.67  6.0020847E-01
   7134.00  6.0322602E-01
   7134.33  6.0720208E-01
   7134.67  6.1116244E-01
   7135.00  6.1434773E-01
   7135.33  6.1621107E-01
   7135.67  6.1704214E-01
   7136.00  6.1720194E-01
   7136.33  6.1711938E-01
   7136.67  6.1718161E-01
   7137.00  6.1758845E-01
   7137.33  6.1851197E-01
   7137.67  6.1991526E-01
   7138.00  6.2176659E-01
   7138.33  6.2403769E-01
   7138.67  6.2658084E-01
   7139.00  6.2929792E-01
   7139.33  6.3207727E-01
   7139.67  6.3479535E-01
   7140.00  6.3735702E-01
   7140.33  6.3962749E-01
   7140.67  6.4154774E-01
   7141.00  6.4304959E-01
   7141.33  6.4400720E-01
   7141.67  6.4443307E-01
   7142.00  6.4430190E-01
   7142.33  6.4353827E-01
   7142.67  6.4223315E-01
   7143.00  6.4041713E-01
   7143.33  6.3807563E-01
   7143.67  6.3530385E-01
   7144.00  6.3212552E-01
   7144.33  6.2852052E-01
   7144.67  6.2456502E-01
   7145.00  6.2028445E-01
   7145.33  6.1567226E-01
   7145.67  6.1079669E-01
   7146.00  6.0568550E-01
   7146.33  6.0034842E-01
   7146.67  5.9485112E-01
   7147.00  5.8923477E-01
   7147.33  5.8354724E-01
   7147.67  5.7786027E-01
   7148.00  5.7223369E-01
   7148.33  5.6675585E-01
   7148.67  5.6147968E-01
   7149.00  5.5645889E-01
   7149.33  5.5177970E-01
   7149.67  5.4742798E-01
   7150.00  5.4340149E-01
   7150.33  5.3970138E-01
   7150.67  5.3622408E-01
   7151.00  5.3289956E-01
   7151.33  5.2964571E-01
   7151.67  5.2636477E-01
   7152.00  5.2298842E-01
   7152.33  5.1942842E-01
   7152.67  5.1565557E-01
   7153.00  5.1164479E-01
   7153.33  5.0734645E-01
   7153.67  5.0277980E-01
   7154.00  4.9793955E-01
   7154.33  4.9279037E-01
   7154.67  4.8736944E-01
   7155.00  4.8168156E-01
   7155.33  4.7570216E-01
   7155.67  4.6947441E-01
   7156.00  4.6301064E-01
   7156.33  4.5630278E-01
   7156.67  4.4940530E-01
   7157.00  4.4235121E-01
   7157.33  4.3517880E-01
   7157.67  4.2796710E-01
   7158.00  4.2078152E-01
   7158.33  4.1371609E-01
   7158.67  4.0684035E-01
   7159.00  4.0022519E-01
   7159.33  3.9399018E-01
   7159.67  3.8816014E-01
   7160.00  3.8278148E-01
   7160.33  3.7795508E-01
   7160.67  3.7364395E-01
   7161.00  3.6985883E-01
   7161.33  3.6666632E-01
   7161.67  3.6398780E-01
   7162.00  3.6180322E-01
   7162.33  3.6013791E-01
   7162.67  3.5889134E-01
   7163.00  3.5801728E-01
   7163.33  3.5749656E-01
   7163.67  3.5723445E-01
   7164.00  3.5718486E-01
   7164.33  3.5731648E-01
   7164.67  3.5756331E-01
   7165.00  3.5789204E-01
   7165.33  3.5827780E-01
   7165.67  3.5869121E-01
   7166.00  3.5911935E-01
   7166.33  3.5955573E-01
   7166.67  3.5999852E-01
   7167.00  3.6045061E-01
   7167.33  3.6092035E-01
   7167.67  3.6141424E-01
   7168.00  3.6194035E-01
   7168.33  3.6251323E-01
   7168.67  3.6313595E-01
   7169.00  3.6381393E-01
   7169.33  3.6455805E-01
   7169.67  3.6536121E-01
   7170.00  3.6622066E-01
   7170.33  3.6713522E-01
   7170.67  3.6808568E-01
   7171.00  3.6905400E-01
   7171.33  3.7000349E-01
   7171.67  3.7087567E-01
   7172.00  3.7159331E-01
