    FDMNES
    energy     <xanes>
   7097.00  4.6906083E-03
   7097.33  4.7973482E-03
   7097.67  4.9089524E-03
   7098.00  5.0257668E-03
   7098.33  5.1489473E-03
   7098.67  5.2782907E-03
   7099.00  5.4142798E-03
   7099.33  5.5584569E-03
   7099.67  5.7106304E-03
   7100.00  5.8714962E-03
   7100.33  6.0431777E-03
   7100.67  6.2255338E-03
   7101.00  6.4196048E-03
   7101.33  6.6284268E-03
   7101.67  6.8519934E-03
   7102.00  7.0919302E-03
   7102.33  7.3527800E-03
   7102.67  7.6348606E-03
   7103.00  7.9408510E-03
   7103.33  8.2779357E-03
   7103.67  8.6472019E-03
   7104.00  9.0533603E-03
   7104.33  9.5085861E-03
   7104.67  1.0015851E-02
   7105.00  1.0584144E-02
   7105.33  1.1235992E-02
   7105.67  1.1979325E-02
   7106.00  1.2833212E-02
   7106.33  1.3844434E-02
   7106.67  1.5035546E-02
   7107.00  1.6453206E-02
   7107.33  1.8211304E-02
   7107.67  2.0383599E-02
   7108.00  2.3110075E-02
   7108.33  2.6740435E-02
   7108.67  3.1581766E-02
   7109.00  3.8207127E-02
   7109.33  4.8160200E-02
   7109.67  6.3346244E-02
   7110.00  8.7538406E-02
   7110.33  1.3184046E-01
   7110.67  2.0840628E-01
   7111.00  3.1589602E-01
   7111.33  3.8085851E-01
   7111.67  3.6180329E-01
   7112.00  3.0580779E-01
   7112.33  2.4848142E-01
   7112.67  1.8897477E-01
   7113.00  1.3955287E-01
   7113.33  1.1110143E-01
   7113.67  9.3551256E-02
   7114.00  8.0107875E-02
   7114.33  6.9055966E-02
   7114.67  5.9876842E-02
   7115.00  5.2551868E-02
   7115.33  4.7802332E-02
   7115.67  4.4981352E-02
   7116.00  4.3600424E-02
   7116.33  4.3430681E-02
   7116.67  4.4170538E-02
   7117.00  4.5773619E-02
   7117.33  4.8348756E-02
   7117.67  5.1784576E-02
   7118.00  5.6012360E-02
   7118.33  6.0889697E-02
   7118.67  6.6046567E-02
   7119.00  7.1344246E-02
   7119.33  7.7031660E-02
   7119.67  8.3587793E-02
   7120.00  9.1482508E-02
   7120.33  1.0145639E-01
   7120.67  1.1395143E-01
   7121.00  1.2985130E-01
   7121.33  1.5124967E-01
   7121.67  1.7940125E-01
   7122.00  2.1585671E-01
   7122.33  2.6207840E-01
   7122.67  3.1272245E-01
   7123.00  3.5847734E-01
   7123.33  3.8546532E-01
   7123.67  3.9378330E-01
   7124.00  3.8898387E-01
   7124.33  3.7634504E-01
   7124.67  3.6145451E-01
   7125.00  3.4870041E-01
   7125.33  3.4230648E-01
   7125.67  3.4433057E-01
   7126.00  3.5694120E-01
   7126.33  3.8165319E-01
   7126.67  4.1403688E-01
   7127.00  4.5125645E-01
   7127.33  4.9280994E-01
   7127.67  5.3730442E-01
   7128.00  5.8267291E-01
   7128.33  6.2628621E-01
   7128.67  6.6699489E-01
   7129.00  7.0446535E-01
   7129.33  7.3820338E-01
   7129.67  7.6822207E-01
   7130.00  7.9368715E-01
   7130.33  8.1232074E-01
   7130.67  8.2325720E-01
   7131.00  8.2617837E-01
   7131.33  8.2254255E-01
   7131.67  8.1699669E-01
   7132.00  8.1248704E-01
   7132.33  8.1115227E-01
   7132.67  8.1269082E-01
   7133.00  8.1617989E-01
   7133.33  8.2015129E-01
   7133.67  8.2315149E-01
   7134.00  8.2432877E-01
   7134.33  8.2285112E-01
   7134.67  8.1892307E-01
   7135.00  8.1276272E-01
   7135.33  8.0462203E-01
   7135.67  7.9529277E-01
   7136.00  7.8530726E-01
   7136.33  7.7537983E-01
   7136.67  7.6629809E-01
   7137.00  7.5870467E-01
   7137.33  7.5336332E-01
   7137.67  7.5016872E-01
   7138.00  7.4895601E-01
   7138.33  7.4946121E-01
   7138.67  7.5082666E-01
   7139.00  7.5235290E-01
   7139.33  7.5304288E-01
   7139.67  7.5209749E-01
   7140.00  7.4886663E-01
   7140.33  7.4248162E-01
   7140.67  7.3308171E-01
   7141.00  7.2072777E-01
   7141.33  7.0539491E-01
   7141.67  6.8789840E-01
   7142.00  6.6873598E-01
   7142.33  6.4839006E-01
   7142.67  6.2759314E-01
   7143.00  6.0681996E-01
   7143.33  5.8661182E-01
   7143.67  5.6729032E-01
   7144.00  5.4910702E-01
   7144.33  5.3242567E-01
   7144.67  5.1716407E-01
   7145.00  5.0332393E-01
   7145.33  4.9104003E-01
   7145.67  4.8007648E-01
   7146.00  4.7036454E-01
   7146.33  4.6195567E-01
   7146.67  4.5460214E-01
   7147.00  4.4821129E-01
   7147.33  4.4278165E-01
   7147.67  4.3810320E-01
   7148.00  4.3409371E-01
   7148.33  4.3073689E-01
   7148.67  4.2787780E-01
   7149.00  4.2544960E-01
   7149.33  4.2342302E-01
   7149.67  4.2168510E-01
   7150.00  4.2018325E-01
   7150.33  4.1888824E-01
   7150.67  4.1773613E-01
   7151.00  4.1670040E-01
   7151.33  4.1576942E-01
   7151.67  4.1491288E-01
   7152.00  4.1411503E-01
   7152.33  4.1336264E-01
   7152.67  4.1263463E-01
   7153.00  4.1191808E-01
   7153.33  4.1118920E-01
   7153.67  4.1041631E-01
   7154.00  4.0957027E-01
   7154.33  4.0860262E-01
   7154.67  4.0748630E-01
   7155.00  4.0617741E-01
   7155.33  4.0458343E-01
   7155.67  4.0267181E-01
   7156.00  4.0038255E-01
   7156.33  3.9757311E-01
   7156.67  3.9419085E-01
   7157.00  3.9011669E-01
   7157.33  3.8508665E-01
   7157.67  3.7906087E-01
   7158.00  3.7196109E-01
   7158.33  3.6366191E-01
   7158.67  3.5443434E-01
   7159.00  3.4449164E-01
   7159.33  3.3409896E-01
   7159.67  3.2364241E-01
   7160.00  3.1339792E-01
   7160.33  3.0370394E-01
   7160.67  2.9471217E-01
   7161.00  2.8655602E-01
   7161.33  2.7945986E-01
   7161.67  2.7336962E-01
   7162.00  2.6831382E-01
   7162.33  2.6443278E-01
   7162.67  2.6158717E-01
   7163.00  2.5975883E-01
   7163.33  2.5904096E-01
   7163.67  2.5927378E-01
   7164.00  2.6042367E-01
   7164.33  2.6255941E-01
   7164.67  2.6552859E-01
   7165.00  2.6929440E-01
   7165.33  2.7391129E-01
   7165.67  2.7924666E-01
   7166.00  2.8526848E-01
   7166.33  2.9202061E-01
   7166.67  2.9938301E-01
   7167.00  3.0731903E-01
   7167.33  3.1584638E-01
   7167.67  3.2484394E-01
   7168.00  3.3425788E-01
   7168.33  3.4406159E-01
   7168.67  3.5413264E-01
   7169.00  3.6439599E-01
   7169.33  3.7477102E-01
   7169.67  3.8514693E-01
   7170.00  3.9543460E-01
   7170.33  4.0549878E-01
   7170.67  4.1523913E-01
   7171.00  4.2452345E-01
   7171.33  4.3305231E-01
   7171.67  4.4056280E-01
   7172.00  4.4662984E-01
