    FDMNES
    energy     <xanes>
   7097.00  5.2247076E-03
   7097.33  5.3530765E-03
   7097.67  5.4874403E-03
   7098.00  5.6282089E-03
   7098.33  5.7767757E-03
   7098.67  5.9328608E-03
   7099.00  6.0970210E-03
   7099.33  6.2710771E-03
   7099.67  6.4547393E-03
   7100.00  6.6487824E-03
   7100.33  6.8556436E-03
   7100.67  7.0750470E-03
   7101.00  7.3081018E-03
   7101.33  7.5581631E-03
   7101.67  7.8250216E-03
   7102.00  8.1103194E-03
   7102.33  8.4188312E-03
   7102.67  8.7505306E-03
   7103.00  9.1079461E-03
   7103.33  9.4981526E-03
   7103.67  9.9215636E-03
   7104.00  1.0382266E-02
   7104.33  1.0891274E-02
   7104.67  1.1450040E-02
   7105.00  1.2065578E-02
   7105.33  1.2756147E-02
   7105.67  1.3525722E-02
   7106.00  1.4387318E-02
   7106.33  1.5373807E-02
   7106.67  1.6495763E-02
   7107.00  1.7780041E-02
   7107.33  1.9293003E-02
   7107.67  2.1064876E-02
   7108.00  2.3160327E-02
   7108.33  2.5738664E-02
   7108.67  2.8902778E-02
   7109.00  3.2852775E-02
   7109.33  3.8101934E-02
   7109.67  4.5144506E-02
   7110.00  5.4941091E-02
   7110.33  7.0157979E-02
   7110.67  9.3383515E-02
   7111.00  1.2544550E-01
   7111.33  1.6261401E-01
   7111.67  2.0723094E-01
   7112.00  2.6609554E-01
   7112.33  3.4248647E-01
   7112.67  4.3309079E-01
   7113.00  5.2855637E-01
   7113.33  6.2601411E-01
   7113.67  6.8598646E-01
   7114.00  6.5748208E-01
   7114.33  5.4878552E-01
   7114.67  4.3473884E-01
   7115.00  3.4527401E-01
   7115.33  2.8565957E-01
   7115.67  2.4526822E-01
   7116.00  2.1880715E-01
   7116.33  2.0365379E-01
   7116.67  1.9597914E-01
   7117.00  1.9310545E-01
   7117.33  1.9053620E-01
   7117.67  1.8470265E-01
   7118.00  1.7565216E-01
   7118.33  1.6547058E-01
   7118.67  1.5632745E-01
   7119.00  1.4909926E-01
   7119.33  1.4403373E-01
   7119.67  1.4019412E-01
   7120.00  1.3677541E-01
   7120.33  1.3286396E-01
   7120.67  1.2821987E-01
   7121.00  1.2355202E-01
   7121.33  1.2055591E-01
   7121.67  1.1979443E-01
   7122.00  1.2100675E-01
   7122.33  1.2366996E-01
   7122.67  1.2705692E-01
   7123.00  1.3093199E-01
   7123.33  1.3534000E-01
   7123.67  1.4035731E-01
   7124.00  1.4612657E-01
   7124.33  1.5291641E-01
   7124.67  1.6074066E-01
   7125.00  1.6966906E-01
   7125.33  1.7988549E-01
   7125.67  1.9128950E-01
   7126.00  2.0397666E-01
   7126.33  2.1839213E-01
   7126.67  2.3475828E-01
   7127.00  2.5348983E-01
   7127.33  2.7537690E-01
   7127.67  3.0031651E-01
   7128.00  3.2823482E-01
   7128.33  3.5891808E-01
   7128.67  3.9130806E-01
   7129.00  4.2513803E-01
   7129.33  4.6126121E-01
   7129.67  5.0057731E-01
   7130.00  5.4384338E-01
   7130.33  5.9147100E-01
   7130.67  6.4179456E-01
   7131.00  6.9346640E-01
   7131.33  7.4530122E-01
   7131.67  7.9650989E-01
   7132.00  8.4652602E-01
   7132.33  8.9442600E-01
   7132.67  9.3961181E-01
   7133.00  9.8107484E-01
   7133.33  1.0164348E+00
   7133.67  1.0439267E+00
   7134.00  1.0607041E+00
   7134.33  1.0611582E+00
   7134.67  1.0445112E+00
   7135.00  1.0111041E+00
   7135.33  9.6295243E-01
   7135.67  9.0707390E-01
   7136.00  8.4779443E-01
   7136.33  7.8885481E-01
   7136.67  7.3251368E-01
   7137.00  6.7997375E-01
   7137.33  6.3273714E-01
   7137.67  5.9083958E-01
   7138.00  5.5465912E-01
   7138.33  5.2519614E-01
   7138.67  5.0173944E-01
   7139.00  4.8413782E-01
   7139.33  4.7269525E-01
   7139.67  4.6616322E-01
   7140.00  4.6395723E-01
   7140.33  4.6580191E-01
   7140.67  4.7055308E-01
   7141.00  4.7768627E-01
   7141.33  4.8693467E-01
   7141.67  4.9767753E-01
   7142.00  5.0965764E-01
   7142.33  5.2274967E-01
   7142.67  5.3659651E-01
   7143.00  5.5098316E-01
   7143.33  5.6565465E-01
   7143.67  5.8024636E-01
   7144.00  5.9443913E-01
   7144.33  6.0773934E-01
   7144.67  6.1985193E-01
   7145.00  6.3046162E-01
   7145.33  6.3903063E-01
   7145.67  6.4556204E-01
   7146.00  6.4994949E-01
   7146.33  6.5190846E-01
   7146.67  6.5180802E-01
   7147.00  6.4980467E-01
   7147.33  6.4590657E-01
   7147.67  6.4056084E-01
   7148.00  6.3398341E-01
   7148.33  6.2630693E-01
   7148.67  6.1790017E-01
   7149.00  6.0896034E-01
   7149.33  5.9965278E-01
   7149.67  5.9020787E-01
   7150.00  5.8078511E-01
   7150.33  5.7157953E-01
   7150.67  5.6270801E-01
   7151.00  5.5427577E-01
   7151.33  5.4646077E-01
   7151.67  5.3929024E-01
   7152.00  5.3283537E-01
   7152.33  5.2726415E-01
   7152.67  5.2253494E-01
   7153.00  5.1868570E-01
   7153.33  5.1586213E-01
   7153.67  5.1396853E-01
   7154.00  5.1300982E-01
   7154.33  5.1309555E-01
   7154.67  5.1408935E-01
   7155.00  5.1596015E-01
   7155.33  5.1875473E-01
   7155.67  5.2229309E-01
   7156.00  5.2649207E-01
   7156.33  5.3130433E-01
   7156.67  5.3652906E-01
   7157.00  5.4204228E-01
   7157.33  5.4771104E-01
   7157.67  5.5336783E-01
   7158.00  5.5888846E-01
   7158.33  5.6410480E-01
   7158.67  5.6892981E-01
   7159.00  5.7327016E-01
   7159.33  5.7695540E-01
   7159.67  5.7997253E-01
   7160.00  5.8225768E-01
   7160.33  5.8364861E-01
   7160.67  5.8419378E-01
   7161.00  5.8385635E-01
   7161.33  5.8249547E-01
   7161.67  5.8022544E-01
   7162.00  5.7706656E-01
   7162.33  5.7295369E-01
   7162.67  5.6805639E-01
   7163.00  5.6244895E-01
   7163.33  5.5615499E-01
   7163.67  5.4935917E-01
   7164.00  5.4215803E-01
   7164.33  5.3462554E-01
   7164.67  5.2690293E-01
   7165.00  5.1907224E-01
   7165.33  5.1121385E-01
   7165.67  5.0340055E-01
   7166.00  4.9568292E-01
   7166.33  4.8812728E-01
   7166.67  4.8075353E-01
   7167.00  4.7358746E-01
   7167.33  4.6667954E-01
   7167.67  4.6001541E-01
   7168.00  4.5360438E-01
   7168.33  4.4749120E-01
   7168.67  4.4165915E-01
   7169.00  4.3611869E-01
   7169.33  4.3091338E-01
   7169.67  4.2601252E-01
   7170.00  4.2142302E-01
   7170.33  4.1719527E-01
   7170.67  4.1330416E-01
   7171.00  4.0976923E-01
   7171.33  4.0667592E-01
   7171.67  4.0403837E-01
   7172.00  4.0193404E-01
