    FDMNES
    energy     <xanes>
   7097.00  5.0806658E-03
   7097.33  5.2031298E-03
   7097.67  5.3312903E-03
   7098.00  5.4655425E-03
   7098.33  5.6072209E-03
   7098.67  5.7560689E-03
   7099.00  5.9126280E-03
   7099.33  6.0786539E-03
   7099.67  6.2538880E-03
   7100.00  6.4390924E-03
   7100.33  6.6366391E-03
   7100.67  6.8462967E-03
   7101.00  7.0691721E-03
   7101.33  7.3085717E-03
   7101.67  7.5643564E-03
   7102.00  7.8381950E-03
   7102.33  8.1348726E-03
   7102.67  8.4544861E-03
   7103.00  8.7996669E-03
   7103.33  9.1776650E-03
   7103.67  9.5891406E-03
   7104.00  1.0038478E-02
   7104.33  1.0537309E-02
   7104.67  1.1087643E-02
   7105.00  1.1697313E-02
   7105.33  1.2386402E-02
   7105.67  1.3160318E-02
   7106.00  1.4034396E-02
   7106.33  1.5046883E-02
   7106.67  1.6212600E-02
   7107.00  1.7565594E-02
   7107.33  1.9189476E-02
   7107.67  2.1129502E-02
   7108.00  2.3476552E-02
   7108.33  2.6455883E-02
   7108.67  3.0238948E-02
   7109.00  3.5151055E-02
   7109.33  4.2049229E-02
   7109.67  5.1889433E-02
   7110.00  6.6547903E-02
   7110.33  9.1388319E-02
   7110.67  1.3171643E-01
   7111.00  1.8693142E-01
   7111.33  2.3692178E-01
   7111.67  2.7494369E-01
   7112.00  3.0938995E-01
   7112.33  3.4386549E-01
   7112.67  3.8251307E-01
   7113.00  4.2798923E-01
   7113.33  4.6704983E-01
   7113.67  4.7237505E-01
   7114.00  4.2968300E-01
   7114.33  3.5746532E-01
   7114.67  2.9027494E-01
   7115.00  2.3864247E-01
   7115.33  2.0409811E-01
   7115.67  1.8045613E-01
   7116.00  1.6382284E-01
   7116.33  1.5062097E-01
   7116.67  1.3846923E-01
   7117.00  1.2791451E-01
   7117.33  1.2061887E-01
   7117.67  1.1639795E-01
   7118.00  1.1475407E-01
   7118.33  1.1518962E-01
   7118.67  1.1632395E-01
   7119.00  1.1675399E-01
   7119.33  1.1554482E-01
   7119.67  1.1378474E-01
   7120.00  1.1267526E-01
   7120.33  1.1345193E-01
   7120.67  1.1625806E-01
   7121.00  1.2089254E-01
   7121.33  1.2722460E-01
   7121.67  1.3519990E-01
   7122.00  1.4534004E-01
   7122.33  1.5888242E-01
   7122.67  1.7610310E-01
   7123.00  1.9689689E-01
   7123.33  2.2045829E-01
   7123.67  2.4466771E-01
   7124.00  2.6818435E-01
   7124.33  2.9022847E-01
   7124.67  3.1095183E-01
   7125.00  3.3034592E-01
   7125.33  3.4789347E-01
   7125.67  3.6342232E-01
   7126.00  3.7712292E-01
   7126.33  3.8999059E-01
   7126.67  4.0371082E-01
   7127.00  4.1953602E-01
   7127.33  4.3843132E-01
   7127.67  4.5934138E-01
   7128.00  4.8070661E-01
   7128.33  5.0029472E-01
   7128.67  5.1750524E-01
   7129.00  5.3343084E-01
   7129.33  5.5087640E-01
   7129.67  5.7213601E-01
   7130.00  5.9830484E-01
   7130.33  6.2954776E-01
   7130.67  6.6304468E-01
   7131.00  6.9574422E-01
   7131.33  7.2289706E-01
   7131.67  7.4149617E-01
   7132.00  7.5026936E-01
   7132.33  7.5035253E-01
   7132.67  7.4784724E-01
   7133.00  7.4735721E-01
   7133.33  7.5276396E-01
   7133.67  7.6344521E-01
   7134.00  7.7695311E-01
   7134.33  7.8864695E-01
   7134.67  7.9500430E-01
   7135.00  7.9463878E-01
   7135.33  7.8706029E-01
   7135.67  7.7473384E-01
   7136.00  7.5954888E-01
   7136.33  7.4333307E-01
   7136.67  7.2735806E-01
   7137.00  7.1203032E-01
   7137.33  6.9768314E-01
   7137.67  6.8450990E-01
   7138.00  6.7285093E-01
   7138.33  6.6325806E-01
   7138.67  6.5561283E-01
   7139.00  6.4982160E-01
   7139.33  6.4580664E-01
   7139.67  6.4302341E-01
   7140.00  6.4122116E-01
   7140.33  6.4037427E-01
   7140.67  6.4043861E-01
   7141.00  6.4157647E-01
   7141.33  6.4414690E-01
   7141.67  6.4803473E-01
   7142.00  6.5303280E-01
   7142.33  6.5860032E-01
   7142.67  6.6370764E-01
   7143.00  6.6735392E-01
   7143.33  6.6810771E-01
   7143.67  6.6554959E-01
   7144.00  6.5951777E-01
   7144.33  6.5001213E-01
   7144.67  6.3824727E-01
   7145.00  6.2507981E-01
   7145.33  6.1139736E-01
   7145.67  5.9800886E-01
   7146.00  5.8536720E-01
   7146.33  5.7392389E-01
   7146.67  5.6368141E-01
   7147.00  5.5464771E-01
   7147.33  5.4688621E-01
   7147.67  5.4011853E-01
   7148.00  5.3420140E-01
   7148.33  5.2904273E-01
   7148.67  5.2439728E-01
   7149.00  5.2015422E-01
   7149.33  5.1627058E-01
   7149.67  5.1267275E-01
   7150.00  5.0935681E-01
   7150.33  5.0637582E-01
   7150.67  5.0371569E-01
   7151.00  5.0138690E-01
   7151.33  4.9941908E-01
   7151.67  4.9773570E-01
   7152.00  4.9629058E-01
   7152.33  4.9504899E-01
   7152.67  4.9394413E-01
   7153.00  4.9296081E-01
   7153.33  4.9213481E-01
   7153.67  4.9150715E-01
   7154.00  4.9115458E-01
   7154.33  4.9123235E-01
   7154.67  4.9180158E-01
   7155.00  4.9294171E-01
   7155.33  4.9479242E-01
   7155.67  4.9728938E-01
   7156.00  5.0040094E-01
   7156.33  5.0409883E-01
   7156.67  5.0816792E-01
   7157.00  5.1244152E-01
   7157.33  5.1668806E-01
   7157.67  5.2065725E-01
   7158.00  5.2412293E-01
   7158.33  5.2673053E-01
   7158.67  5.2833719E-01
   7159.00  5.2876904E-01
   7159.33  5.2770963E-01
   7159.67  5.2524445E-01
   7160.00  5.2136930E-01
   7160.33  5.1598983E-01
   7160.67  5.0942441E-01
   7161.00  5.0185629E-01
   7161.33  4.9345609E-01
   7161.67  4.8461191E-01
   7162.00  4.7557386E-01
   7162.33  4.6660856E-01
   7162.67  4.5792943E-01
   7163.00  4.4970679E-01
   7163.33  4.4218066E-01
   7163.67  4.3538821E-01
   7164.00  4.2938877E-01
   7164.33  4.2431212E-01
   7164.67  4.2004425E-01
   7165.00  4.1655006E-01
   7165.33  4.1385571E-01
   7165.67  4.1179434E-01
   7166.00  4.1029242E-01
   7166.33  4.0932138E-01
   7166.67  4.0873772E-01
   7167.00  4.0847312E-01
   7167.33  4.0848394E-01
   7167.67  4.0867358E-01
   7168.00  4.0899556E-01
   7168.33  4.0941326E-01
   7168.67  4.0987106E-01
   7169.00  4.1033758E-01
   7169.33  4.1078359E-01
   7169.67  4.1119359E-01
   7170.00  4.1155899E-01
   7170.33  4.1187022E-01
   7170.67  4.1213535E-01
   7171.00  4.1235928E-01
   7171.33  4.1254384E-01
   7171.67  4.1269483E-01
   7172.00  4.1280541E-01
