    FDMNES
    energy     <xanes>
   7097.00  5.1438228E-03
   7097.33  5.2649955E-03
   7097.67  5.3917114E-03
   7098.00  5.5243497E-03
   7098.33  5.6642002E-03
   7098.67  5.8110065E-03
   7099.00  5.9652865E-03
   7099.33  6.1287316E-03
   7099.67  6.3010808E-03
   7100.00  6.4830612E-03
   7100.33  6.6769492E-03
   7100.67  6.8825068E-03
   7101.00  7.1007865E-03
   7101.33  7.3349494E-03
   7101.67  7.5848407E-03
   7102.00  7.8520419E-03
   7102.33  8.1411107E-03
   7102.67  8.4521091E-03
   7103.00  8.7875237E-03
   7103.33  9.1542340E-03
   7103.67  9.5528251E-03
   7104.00  9.9874298E-03
   7104.33  1.0469048E-02
   7104.67  1.0999523E-02
   7105.00  1.1586226E-02
   7105.33  1.2248096E-02
   7105.67  1.2990160E-02
   7106.00  1.3826829E-02
   7106.33  1.4794101E-02
   7106.67  1.5905833E-02
   7107.00  1.7193996E-02
   7107.33  1.8737164E-02
   7107.67  2.0577699E-02
   7108.00  2.2800785E-02
   7108.33  2.5617417E-02
   7108.67  2.9187193E-02
   7109.00  3.3812508E-02
   7109.33  4.0286870E-02
   7109.67  4.9483165E-02
   7110.00  6.3106270E-02
   7110.33  8.6013790E-02
   7110.67  1.2324073E-01
   7111.00  1.7671152E-01
   7111.33  2.4054214E-01
   7111.67  2.8985528E-01
   7112.00  2.9936130E-01
   7112.33  3.0856341E-01
   7112.67  3.5925233E-01
   7113.00  4.2184943E-01
   7113.33  3.9622985E-01
   7113.67  3.1008682E-01
   7114.00  2.3181196E-01
   7114.33  1.8979951E-01
   7114.67  1.7482401E-01
   7115.00  1.8285555E-01
   7115.33  2.1739567E-01
   7115.67  2.7690202E-01
   7116.00  3.4929541E-01
   7116.33  3.8594281E-01
   7116.67  3.6608740E-01
   7117.00  3.1711400E-01
   7117.33  2.7136331E-01
   7117.67  2.3638501E-01
   7118.00  2.1056625E-01
   7118.33  1.9159244E-01
   7118.67  1.7648213E-01
   7119.00  1.6415676E-01
   7119.33  1.5465222E-01
   7119.67  1.4783152E-01
   7120.00  1.4328922E-01
   7120.33  1.3983390E-01
   7120.67  1.3644636E-01
   7121.00  1.3330145E-01
   7121.33  1.3094381E-01
   7121.67  1.2963521E-01
   7122.00  1.2978680E-01
   7122.33  1.3228962E-01
   7122.67  1.3734704E-01
   7123.00  1.4474337E-01
   7123.33  1.5364880E-01
   7123.67  1.6344245E-01
   7124.00  1.7489963E-01
   7124.33  1.8959370E-01
   7124.67  2.0750837E-01
   7125.00  2.2817370E-01
   7125.33  2.5099426E-01
   7125.67  2.7512069E-01
   7126.00  3.0023093E-01
   7126.33  3.2603616E-01
   7126.67  3.5187530E-01
   7127.00  3.7681918E-01
   7127.33  3.9887911E-01
   7127.67  4.1684122E-01
   7128.00  4.3088481E-01
   7128.33  4.4392548E-01
   7128.67  4.6028396E-01
   7129.00  4.8225619E-01
   7129.33  5.1085357E-01
   7129.67  5.4353649E-01
   7130.00  5.7787234E-01
   7130.33  6.1127328E-01
   7130.67  6.4295657E-01
   7131.00  6.7347599E-01
   7131.33  7.0411472E-01
   7131.67  7.3574061E-01
   7132.00  7.6818935E-01
   7132.33  7.9991775E-01
   7132.67  8.2849508E-01
   7133.00  8.5149418E-01
   7133.33  8.6568936E-01
   7133.67  8.7120912E-01
   7134.00  8.6862221E-01
   7134.33  8.5881294E-01
   7134.67  8.4448821E-01
   7135.00  8.2689890E-01
   7135.33  8.0661837E-01
   7135.67  7.8451351E-01
   7136.00  7.6115721E-01
   7136.33  7.3740739E-01
   7136.67  7.1426699E-01
   7137.00  6.9239116E-01
   7137.33  6.7246165E-01
   7137.67  6.5448595E-01
   7138.00  6.3856522E-01
   7138.33  6.2504419E-01
   7138.67  6.1370033E-01
   7139.00  6.0455450E-01
   7139.33  5.9789353E-01
   7139.67  5.9343005E-01
   7140.00  5.9112368E-01
   7140.33  5.9111575E-01
   7140.67  5.9292006E-01
   7141.00  5.9621075E-01
   7141.33  6.0055587E-01
   7141.67  6.0513063E-01
   7142.00  6.0925758E-01
   7142.33  6.1201632E-01
   7142.67  6.1292844E-01
   7143.00  6.1163880E-01
   7143.33  6.0770514E-01
   7143.67  6.0155805E-01
   7144.00  5.9350611E-01
   7144.33  5.8388205E-01
   7144.67  5.7344877E-01
   7145.00  5.6269990E-01
   7145.33  5.5213887E-01
   7145.67  5.4213845E-01
   7146.00  5.3298484E-01
   7146.33  5.2508115E-01
   7146.67  5.1846978E-01
   7147.00  5.1325099E-01
   7147.33  5.0966680E-01
   7147.67  5.0750295E-01
   7148.00  5.0665352E-01
   7148.33  5.0708983E-01
   7148.67  5.0847039E-01
   7149.00  5.1061058E-01
   7149.33  5.1335207E-01
   7149.67  5.1640246E-01
   7150.00  5.1958084E-01
   7150.33  5.2270242E-01
   7150.67  5.2564889E-01
   7151.00  5.2836787E-01
   7151.33  5.3083801E-01
   7151.67  5.3315539E-01
   7152.00  5.3541164E-01
   7152.33  5.3773629E-01
   7152.67  5.4023598E-01
   7153.00  5.4298680E-01
   7153.33  5.4607917E-01
   7153.67  5.4948297E-01
   7154.00  5.5316940E-01
   7154.33  5.5709560E-01
   7154.67  5.6113562E-01
   7155.00  5.6519032E-01
   7155.33  5.6912832E-01
   7155.67  5.7285332E-01
   7156.00  5.7628682E-01
   7156.33  5.7931659E-01
   7156.67  5.8194828E-01
   7157.00  5.8416937E-01
   7157.33  5.8593432E-01
   7157.67  5.8731403E-01
   7158.00  5.8833339E-01
   7158.33  5.8898400E-01
   7158.67  5.8933873E-01
   7159.00  5.8942184E-01
   7159.33  5.8922577E-01
   7159.67  5.8879949E-01
   7160.00  5.8815403E-01
   7160.33  5.8727107E-01
   7160.67  5.8618010E-01
   7161.00  5.8488026E-01
   7161.33  5.8334070E-01
   7161.67  5.8158145E-01
   7162.00  5.7959591E-01
   7162.33  5.7734667E-01
   7162.67  5.7485254E-01
   7163.00  5.7210311E-01
   7163.33  5.6905374E-01
   7163.67  5.6572935E-01
   7164.00  5.6212663E-01
   7164.33  5.5821328E-01
   7164.67  5.5403387E-01
   7165.00  5.4960384E-01
   7165.33  5.4492221E-01
   7165.67  5.4005418E-01
   7166.00  5.3503867E-01
   7166.33  5.2991534E-01
   7166.67  5.2475203E-01
   7167.00  5.1959637E-01
   7167.33  5.1450673E-01
   7167.67  5.0952206E-01
   7168.00  5.0467784E-01
   7168.33  5.0002570E-01
   7168.67  4.9556078E-01
   7169.00  4.9128777E-01
   7169.33  4.8722764E-01
   7169.67  4.8334829E-01
   7170.00  4.7964044E-01
   7170.33  4.7611528E-01
   7170.67  4.7275185E-01
   7171.00  4.6956315E-01
   7171.33  4.6662170E-01
   7171.67  4.6400447E-01
   7172.00  4.6185955E-01
