    FDMNES
    energy     <xanes>
   7097.00  5.3506286E-03
   7097.33  5.4851580E-03
   7097.67  5.6260342E-03
   7098.00  5.7736889E-03
   7098.33  5.9295931E-03
   7098.67  6.0934463E-03
   7099.00  6.2658321E-03
   7099.33  6.4486668E-03
   7099.67  6.6416351E-03
   7100.00  6.8455449E-03
   7100.33  7.0629493E-03
   7100.67  7.2935403E-03
   7101.00  7.5384662E-03
   7101.33  7.8012205E-03
   7101.67  8.0815516E-03
   7102.00  8.3811438E-03
   7102.33  8.7049305E-03
   7102.67  9.0528239E-03
   7103.00  9.4273901E-03
   7103.33  9.8358655E-03
   7103.67  1.0278565E-02
   7104.00  1.0759583E-02
   7104.33  1.1290044E-02
   7104.67  1.1871217E-02
   7105.00  1.2510023E-02
   7105.33  1.3224620E-02
   7105.67  1.4018595E-02
   7106.00  1.4904569E-02
   7106.33  1.5914640E-02
   7106.67  1.7058441E-02
   7107.00  1.8361549E-02
   7107.33  1.9887518E-02
   7107.67  2.1664020E-02
   7108.00  2.3751777E-02
   7108.33  2.6301086E-02
   7108.67  2.9407436E-02
   7109.00  3.3259102E-02
   7109.33  3.8342950E-02
   7109.67  4.5136397E-02
   7110.00  5.4580160E-02
   7110.33  6.9343948E-02
   7110.67  9.2228837E-02
   7111.00  1.2385071E-01
   7111.33  1.5163832E-01
   7111.67  1.7109513E-01
   7112.00  1.9915981E-01
   7112.33  2.5342573E-01
   7112.67  3.2775659E-01
   7113.00  4.3096007E-01
   7113.33  5.9154917E-01
   7113.67  7.8295017E-01
   7114.00  9.3210691E-01
   7114.33  9.0021885E-01
   7114.67  7.4091645E-01
   7115.00  5.7207749E-01
   7115.33  4.4271544E-01
   7115.67  3.4560679E-01
   7116.00  2.7645668E-01
   7116.33  2.3155972E-01
   7116.67  2.0197627E-01
   7117.00  1.8382192E-01
   7117.33  1.7542235E-01
   7117.67  1.7429760E-01
   7118.00  1.7964989E-01
   7118.33  1.9013391E-01
   7118.67  2.0099317E-01
   7119.00  2.0824218E-01
   7119.33  2.0964877E-01
   7119.67  2.0645670E-01
   7120.00  1.9959834E-01
   7120.33  1.9067594E-01
   7120.67  1.8155377E-01
   7121.00  1.7264331E-01
   7121.33  1.6397331E-01
   7121.67  1.5601304E-01
   7122.00  1.4951860E-01
   7122.33  1.4559681E-01
   7122.67  1.4437376E-01
   7123.00  1.4566551E-01
   7123.33  1.4905151E-01
   7123.67  1.5357478E-01
   7124.00  1.5886549E-01
   7124.33  1.6522978E-01
   7124.67  1.7317904E-01
   7125.00  1.8319914E-01
   7125.33  1.9551097E-01
   7125.67  2.0804058E-01
   7126.00  2.1789492E-01
   7126.33  2.2387867E-01
   7126.67  2.3000509E-01
   7127.00  2.3925440E-01
   7127.33  2.5333386E-01
   7127.67  2.7116133E-01
   7128.00  2.9145649E-01
   7128.33  3.1234540E-01
   7128.67  3.3220011E-01
   7129.00  3.5057762E-01
   7129.33  3.6797398E-01
   7129.67  3.8578623E-01
   7130.00  4.0503326E-01
   7130.33  4.2624882E-01
   7130.67  4.4811656E-01
   7131.00  4.6939719E-01
   7131.33  4.9025822E-01
   7131.67  5.1229746E-01
   7132.00  5.3626154E-01
   7132.33  5.6175174E-01
   7132.67  5.8741933E-01
   7133.00  6.1276823E-01
   7133.33  6.3822098E-01
   7133.67  6.6469205E-01
   7134.00  6.9273877E-01
   7134.33  7.2231083E-01
   7134.67  7.5171650E-01
   7135.00  7.7847722E-01
   7135.33  7.9776227E-01
   7135.67  8.0625178E-01
   7136.00  8.0158171E-01
   7136.33  7.8202940E-01
   7136.67  7.5199650E-01
   7137.00  7.1505231E-01
   7137.33  6.7494017E-01
   7137.67  6.3517172E-01
   7138.00  5.9755169E-01
   7138.33  5.6372611E-01
   7138.67  5.3383811E-01
   7139.00  5.0808232E-01
   7139.33  4.8712410E-01
   7139.67  4.7057632E-01
   7140.00  4.5854311E-01
   7140.33  4.5155317E-01
   7140.67  4.4879047E-01
   7141.00  4.4989552E-01
   7141.33  4.5479570E-01
   7141.67  4.6256537E-01
   7142.00  4.7279576E-01
   7142.33  4.8530678E-01
   7142.67  4.9946587E-01
   7143.00  5.1500041E-01
   7143.33  5.3181154E-01
   7143.67  5.4960588E-01
   7144.00  5.6831336E-01
   7144.33  5.8798878E-01
   7144.67  6.0843560E-01
   7145.00  6.2949821E-01
   7145.33  6.5091384E-01
   7145.67  6.7222104E-01
   7146.00  6.9299605E-01
   7146.33  7.1260264E-01
   7146.67  7.3069648E-01
   7147.00  7.4692378E-01
   7147.33  7.6068659E-01
   7147.67  7.7204351E-01
   7148.00  7.8089977E-01
   7148.33  7.8693122E-01
   7148.67  7.9053530E-01
   7149.00  7.9184462E-01
   7149.33  7.9080728E-01
   7149.67  7.8793450E-01
   7150.00  7.8346198E-01
   7150.33  7.7751215E-01
   7150.67  7.7053979E-01
   7151.00  7.6279014E-01
   7151.33  7.5446793E-01
   7151.67  7.4589466E-01
   7152.00  7.3728292E-01
   7152.33  7.2884833E-01
   7152.67  7.2071037E-01
   7153.00  7.1295258E-01
   7153.33  7.0568851E-01
   7153.67  6.9888633E-01
   7154.00  6.9254062E-01
   7154.33  6.8666871E-01
   7154.67  6.8115886E-01
   7155.00  6.7595315E-01
   7155.33  6.7101405E-01
   7155.67  6.6625148E-01
   7156.00  6.6162189E-01
   7156.33  6.5709788E-01
   7156.67  6.5264258E-01
   7157.00  6.4824492E-01
   7157.33  6.4390791E-01
   7157.67  6.3962834E-01
   7158.00  6.3541236E-01
   7158.33  6.3127426E-01
   7158.67  6.2720425E-01
   7159.00  6.2319357E-01
   7159.33  6.1922647E-01
   7159.67  6.1526639E-01
   7160.00  6.1127797E-01
   7160.33  6.0720252E-01
   7160.67  6.0299680E-01
   7161.00  5.9861605E-01
   7161.33  5.9398374E-01
   7161.67  5.8908512E-01
   7162.00  5.8388946E-01
   7162.33  5.7832923E-01
   7162.67  5.7243361E-01
   7163.00  5.6620526E-01
   7163.33  5.5961866E-01
   7163.67  5.5273847E-01
   7164.00  5.4559275E-01
   7164.33  5.3819151E-01
   7164.67  5.3060663E-01
   7165.00  5.2287818E-01
   7165.33  5.1504142E-01
   7165.67  5.0715517E-01
   7166.00  4.9925794E-01
   7166.33  4.9139468E-01
   7166.67  4.8359885E-01
   7167.00  4.7589875E-01
   7167.33  4.6833832E-01
   7167.67  4.6092632E-01
   7168.00  4.5368064E-01
   7168.33  4.4664195E-01
   7168.67  4.3980197E-01
   7169.00  4.3317226E-01
   7169.33  4.2679527E-01
   7169.67  4.2065224E-01
   7170.00  4.1474202E-01
   7170.33  4.0910015E-01
   7170.67  4.0372407E-01
   7171.00  3.9865538E-01
   7171.33  3.9402571E-01
   7171.67  3.8994284E-01
   7172.00  3.8661499E-01
