    FDMNES
    energy     <xanes>
   7097.00  4.4173285E-03
   7097.33  4.5073494E-03
   7097.67  4.6009195E-03
   7098.00  4.6982588E-03
   7098.33  4.8001561E-03
   7098.67  4.9064183E-03
   7099.00  5.0173429E-03
   7099.33  5.1339455E-03
   7099.67  5.2560273E-03
   7100.00  5.3840019E-03
   7100.33  5.5192151E-03
   7100.67  5.6614778E-03
   7101.00  5.8113861E-03
   7101.33  5.9707849E-03
   7101.67  6.1395311E-03
   7102.00  6.3185201E-03
   7102.33  6.5103893E-03
   7102.67  6.7151227E-03
   7103.00  6.9341357E-03
   7103.33  7.1713984E-03
   7103.67  7.4272118E-03
   7104.00  7.7039556E-03
   7104.33  8.0080080E-03
   7104.67  8.3404542E-03
   7105.00  8.7056195E-03
   7105.33  9.1146417E-03
   7105.67  9.5706422E-03
   7106.00  1.0082319E-02
   7106.33  1.0671387E-02
   7106.67  1.1346801E-02
   7107.00  1.2128614E-02
   7107.33  1.3066131E-02
   7107.67  1.4187913E-02
   7108.00  1.5550232E-02
   7108.33  1.7293246E-02
   7108.67  1.9530598E-02
   7109.00  2.2476555E-02
   7109.33  2.6701884E-02
   7109.67  3.2875638E-02
   7110.00  4.2316561E-02
   7110.33  5.8829925E-02
   7110.67  8.6151964E-02
   7111.00  1.2273239E-01
   7111.33  1.4829159E-01
   7111.67  1.6376970E-01
   7112.00  1.8682621E-01
   7112.33  2.0601078E-01
   7112.67  2.0162900E-01
   7113.00  1.7909220E-01
   7113.33  1.4617545E-01
   7113.67  1.1718000E-01
   7114.00  9.7167410E-02
   7114.33  8.5246201E-02
   7114.67  7.8414414E-02
   7115.00  7.1996776E-02
   7115.33  6.1238300E-02
   7115.67  5.1539221E-02
   7116.00  4.5334970E-02
   7116.33  4.2282634E-02
   7116.67  4.1021524E-02
   7117.00  4.1035841E-02
   7117.33  4.2133150E-02
   7117.67  4.4085049E-02
   7118.00  4.6945156E-02
   7118.33  5.1065019E-02
   7118.67  5.6495973E-02
   7119.00  6.3126648E-02
   7119.33  7.0423075E-02
   7119.67  7.7729397E-02
   7120.00  8.5404475E-02
   7120.33  9.5010945E-02
   7120.67  1.0754811E-01
   7121.00  1.2342028E-01
   7121.33  1.4244413E-01
   7121.67  1.6263411E-01
   7122.00  1.8259100E-01
   7122.33  2.0265528E-01
   7122.67  2.2517480E-01
   7123.00  2.5199875E-01
   7123.33  2.8439404E-01
   7123.67  3.2151932E-01
   7124.00  3.6337050E-01
   7124.33  4.1016163E-01
   7124.67  4.5970248E-01
   7125.00  5.1082732E-01
   7125.33  5.6551072E-01
   7125.67  6.2489206E-01
   7126.00  6.8432794E-01
   7126.33  7.3201957E-01
   7126.67  7.6295437E-01
   7127.00  7.7778182E-01
   7127.33  7.7964802E-01
   7127.67  7.7567396E-01
   7128.00  7.6976306E-01
   7128.33  7.6500194E-01
   7128.67  7.6347929E-01
   7129.00  7.6654567E-01
   7129.33  7.7467658E-01
   7129.67  7.8520234E-01
   7130.00  7.9597239E-01
   7130.33  8.0490562E-01
   7130.67  8.0957523E-01
   7131.00  8.0658891E-01
   7131.33  7.9180927E-01
   7131.67  7.6744755E-01
   7132.00  7.3712761E-01
   7132.33  7.0634917E-01
   7132.67  6.8041494E-01
   7133.00  6.6278443E-01
   7133.33  6.5636414E-01
   7133.67  6.5791397E-01
   7134.00  6.6339560E-01
   7134.33  6.6855822E-01
   7134.67  6.7189821E-01
   7135.00  6.7341272E-01
   7135.33  6.7344954E-01
   7135.67  6.7294386E-01
   7136.00  6.7226157E-01
   7136.33  6.7136983E-01
   7136.67  6.7025099E-01
   7137.00  6.6904409E-01
   7137.33  6.6804891E-01
   7137.67  6.6744416E-01
   7138.00  6.6724433E-01
   7138.33  6.6730393E-01
   7138.67  6.6728200E-01
   7139.00  6.6687481E-01
   7139.33  6.6567647E-01
   7139.67  6.6354005E-01
   7140.00  6.6033926E-01
   7140.33  6.5586470E-01
   7140.67  6.5026611E-01
   7141.00  6.4360899E-01
   7141.33  6.3592493E-01
   7141.67  6.2754983E-01
   7142.00  6.1873337E-01
   7142.33  6.0977251E-01
   7142.67  6.0095430E-01
   7143.00  5.9245587E-01
   7143.33  5.8445925E-01
   7143.67  5.7694932E-01
   7144.00  5.6990545E-01
   7144.33  5.6331145E-01
   7144.67  5.5703037E-01
   7145.00  5.5098525E-01
   7145.33  5.4510961E-01
   7145.67  5.3930645E-01
   7146.00  5.3351384E-01
   7146.33  5.2765847E-01
   7146.67  5.2169000E-01
   7147.00  5.1556780E-01
   7147.33  5.0923081E-01
   7147.67  5.0267827E-01
   7148.00  4.9590040E-01
   7148.33  4.8887180E-01
   7148.67  4.8163895E-01
   7149.00  4.7423184E-01
   7149.33  4.6668775E-01
   7149.67  4.5909795E-01
   7150.00  4.5154004E-01
   7150.33  4.4411432E-01
   7150.67  4.3688050E-01
   7151.00  4.2988862E-01
   7151.33  4.2320684E-01
   7151.67  4.1680402E-01
   7152.00  4.1065981E-01
   7152.33  4.0475793E-01
   7152.67  3.9902088E-01
   7153.00  3.9341053E-01
   7153.33  3.8791148E-01
   7153.67  3.8250978E-01
   7154.00  3.7722813E-01
   7154.33  3.7214140E-01
   7154.67  3.6730589E-01
   7155.00  3.6280338E-01
   7155.33  3.5879296E-01
   7155.67  3.5532348E-01
   7156.00  3.5247279E-01
   7156.33  3.5038863E-01
   7156.67  3.4899823E-01
   7157.00  3.4825823E-01
   7157.33  3.4811545E-01
   7157.67  3.4832115E-01
   7158.00  3.4869966E-01
   7158.33  3.4905155E-01
   7158.67  3.4922479E-01
   7159.00  3.4914048E-01
   7159.33  3.4874067E-01
   7159.67  3.4810071E-01
   7160.00  3.4729089E-01
   7160.33  3.4640574E-01
   7160.67  3.4556392E-01
   7161.00  3.4485877E-01
   7161.33  3.4441574E-01
   7161.67  3.4428475E-01
   7162.00  3.4452325E-01
   7162.33  3.4524154E-01
   7162.67  3.4643282E-01
   7163.00  3.4812690E-01
   7163.33  3.5040916E-01
   7163.67  3.5321790E-01
   7164.00  3.5654230E-01
   7164.33  3.6041309E-01
   7164.67  3.6472100E-01
   7165.00  3.6941084E-01
   7165.33  3.7444496E-01
   7165.67  3.7970233E-01
   7166.00  3.8511120E-01
   7166.33  3.9060212E-01
   7166.67  3.9609712E-01
   7167.00  4.0154720E-01
   7167.33  4.0689818E-01
   7167.67  4.1213091E-01
   7168.00  4.1722826E-01
   7168.33  4.2216282E-01
   7168.67  4.2695274E-01
   7169.00  4.3160262E-01
   7169.33  4.3610250E-01
   7169.67  4.4047165E-01
   7170.00  4.4470452E-01
   7170.33  4.4876217E-01
   7170.67  4.5262730E-01
   7171.00  4.5625197E-01
   7171.33  4.5951798E-01
   7171.67  4.6235371E-01
   7172.00  4.6463033E-01
