    FDMNES
    energy     <xanes>
   7097.00  4.1284532E-03
   7097.33  4.2045695E-03
   7097.67  4.2833732E-03
   7098.00  4.3650165E-03
   7098.33  4.4500726E-03
   7098.67  4.5383770E-03
   7099.00  4.6301321E-03
   7099.33  4.7260629E-03
   7099.67  4.8259971E-03
   7100.00  4.9302129E-03
   7100.33  5.0396533E-03
   7100.67  5.1541483E-03
   7101.00  5.2740940E-03
   7101.33  5.4007612E-03
   7101.67  5.5340048E-03
   7102.00  5.6744151E-03
   7102.33  5.8237800E-03
   7102.67  5.9820332E-03
   7103.00  6.1501020E-03
   7103.33  6.3306440E-03
   7103.67  6.5237968E-03
   7104.00  6.7311172E-03
   7104.33  6.9568382E-03
   7104.67  7.2016140E-03
   7105.00  7.4682818E-03
   7105.33  7.7642100E-03
   7105.67  8.0914138E-03
   7106.00  8.4556383E-03
   7106.33  8.8712866E-03
   7106.67  9.3443138E-03
   7107.00  9.8880949E-03
   7107.33  1.0535566E-02
   7107.67  1.1305993E-02
   7108.00  1.2237238E-02
   7108.33  1.3423577E-02
   7108.67  1.4941712E-02
   7109.00  1.6935660E-02
   7109.33  1.9787332E-02
   7109.67  2.3939207E-02
   7110.00  3.0257230E-02
   7110.33  4.1229976E-02
   7110.67  5.9456682E-02
   7111.00  8.5580839E-02
   7111.33  1.1575467E-01
   7111.67  1.4280238E-01
   7112.00  1.4499501E-01
   7112.33  1.1537406E-01
   7112.67  8.5377305E-02
   7113.00  6.4299943E-02
   7113.33  5.1866328E-02
   7113.67  4.4853806E-02
   7114.00  4.1866236E-02
   7114.33  3.9976715E-02
   7114.67  3.6101430E-02
   7115.00  3.1853787E-02
   7115.33  2.9232948E-02
   7115.67  2.7835227E-02
   7116.00  2.7251754E-02
   7116.33  2.7269788E-02
   7116.67  2.7703633E-02
   7117.00  2.8516158E-02
   7117.33  2.9748769E-02
   7117.67  3.1384260E-02
   7118.00  3.3475997E-02
   7118.33  3.6194178E-02
   7118.67  3.9630081E-02
   7119.00  4.3987754E-02
   7119.33  4.9741610E-02
   7119.67  5.7112858E-02
   7120.00  6.6342318E-02
   7120.33  7.7300151E-02
   7120.67  8.8401068E-02
   7121.00  9.8730154E-02
   7121.33  1.0966457E-01
   7121.67  1.2378950E-01
   7122.00  1.4306112E-01
   7122.33  1.6991186E-01
   7122.67  2.0379275E-01
   7123.00  2.4285089E-01
   7123.33  2.8267215E-01
   7123.67  3.1969620E-01
   7124.00  3.5352564E-01
   7124.33  3.8371738E-01
   7124.67  4.0731486E-01
   7125.00  4.2019442E-01
   7125.33  4.2428267E-01
   7125.67  4.3185354E-01
   7126.00  4.4936484E-01
   7126.33  4.7662158E-01
   7126.67  5.1041961E-01
   7127.00  5.5455163E-01
   7127.33  6.1710585E-01
   7127.67  6.9630386E-01
   7128.00  7.8682042E-01
   7128.33  8.7658881E-01
   7128.67  9.4891664E-01
   7129.00  9.9027971E-01
   7129.33  9.9088426E-01
   7129.67  9.6468333E-01
   7130.00  9.2554499E-01
   7130.33  8.8654237E-01
   7130.67  8.5373463E-01
   7131.00  8.2840428E-01
   7131.33  8.1150964E-01
   7131.67  8.0115921E-01
   7132.00  7.9547261E-01
   7132.33  7.9228069E-01
   7132.67  7.9022013E-01
   7133.00  7.8978431E-01
   7133.33  7.9228776E-01
   7133.67  7.9745002E-01
   7134.00  8.0426828E-01
   7134.33  8.1062865E-01
   7134.67  8.1415715E-01
   7135.00  8.1326486E-01
   7135.33  8.0686692E-01
   7135.67  7.9652723E-01
   7136.00  7.8364686E-01
   7136.33  7.6972531E-01
   7136.67  7.5607076E-01
   7137.00  7.4325435E-01
   7137.33  7.3154896E-01
   7137.67  7.2053297E-01
   7138.00  7.0971318E-01
   7138.33  6.9833817E-01
   7138.67  6.8592840E-01
   7139.00  6.7230608E-01
   7139.33  6.5749705E-01
   7139.67  6.4206854E-01
   7140.00  6.2647298E-01
   7140.33  6.1121401E-01
   7140.67  5.9657212E-01
   7141.00  5.8268794E-01
   7141.33  5.6969431E-01
   7141.67  5.5742797E-01
   7142.00  5.4578882E-01
   7142.33  5.3470056E-01
   7142.67  5.2396811E-01
   7143.00  5.1349706E-01
   7143.33  5.0324058E-01
   7143.67  4.9315891E-01
   7144.00  4.8328631E-01
   7144.33  4.7375088E-01
   7144.67  4.6464779E-01
   7145.00  4.5611031E-01
   7145.33  4.4838781E-01
   7145.67  4.4153419E-01
   7146.00  4.3564855E-01
   7146.33  4.3093333E-01
   7146.67  4.2727499E-01
   7147.00  4.2463552E-01
   7147.33  4.2301421E-01
   7147.67  4.2211493E-01
   7148.00  4.2173206E-01
   7148.33  4.2160660E-01
   7148.67  4.2139198E-01
   7149.00  4.2082174E-01
   7149.33  4.1955823E-01
   7149.67  4.1748214E-01
   7150.00  4.1447035E-01
   7150.33  4.1029023E-01
   7150.67  4.0503343E-01
   7151.00  3.9872863E-01
   7151.33  3.9135147E-01
   7151.67  3.8317146E-01
   7152.00  3.7435138E-01
   7152.33  3.6505032E-01
   7152.67  3.5554349E-01
   7153.00  3.4601884E-01
   7153.33  3.3671169E-01
   7153.67  3.2779748E-01
   7154.00  3.1943401E-01
   7154.33  3.1187963E-01
   7154.67  3.0519431E-01
   7155.00  2.9948616E-01
   7155.33  2.9498012E-01
   7155.67  2.9158363E-01
   7156.00  2.8927956E-01
   7156.33  2.8809736E-01
   7156.67  2.8772906E-01
   7157.00  2.8795035E-01
   7157.33  2.8847038E-01
   7157.67  2.8889715E-01
   7158.00  2.8893803E-01
   7158.33  2.8824367E-01
   7158.67  2.8675192E-01
   7159.00  2.8445707E-01
   7159.33  2.8140302E-01
   7159.67  2.7792316E-01
   7160.00  2.7429804E-01
   7160.33  2.7092083E-01
   7160.67  2.6813399E-01
   7161.00  2.6623542E-01
   7161.33  2.6568067E-01
   7161.67  2.6657372E-01
   7162.00  2.6908892E-01
   7162.33  2.7360069E-01
   7162.67  2.7998062E-01
   7163.00  2.8826083E-01
   7163.33  2.9866362E-01
   7163.67  3.1087647E-01
   7164.00  3.2477305E-01
   7164.33  3.4031179E-01
   7164.67  3.5699613E-01
   7165.00  3.7448308E-01
   7165.33  3.9234746E-01
   7165.67  4.1002877E-01
   7166.00  4.2706198E-01
   7166.33  4.4276901E-01
   7166.67  4.5682079E-01
   7167.00  4.6889548E-01
   7167.33  4.7849693E-01
   7167.67  4.8587513E-01
   7168.00  4.9117139E-01
   7168.33  4.9450370E-01
   7168.67  4.9656372E-01
   7169.00  4.9781483E-01
   7169.33  4.9876086E-01
   7169.67  4.9990429E-01
   7170.00  5.0155101E-01
   7170.33  5.0400676E-01
   7170.67  5.0723509E-01
   7171.00  5.1115122E-01
   7171.33  5.1555190E-01
   7171.67  5.1992750E-01
   7172.00  5.2373254E-01
