    FDMNES
    energy     <xanes>
   7097.00  5.1797071E-03
   7097.33  5.3043498E-03
   7097.67  5.4347708E-03
   7098.00  5.5713682E-03
   7098.33  5.7154908E-03
   7098.67  5.8668742E-03
   7099.00  6.0260623E-03
   7099.33  6.1948254E-03
   7099.67  6.3728947E-03
   7100.00  6.5610332E-03
   7100.33  6.7616252E-03
   7100.67  6.9744253E-03
   7101.00  7.2005374E-03
   7101.33  7.4432727E-03
   7101.67  7.7024709E-03
   7102.00  7.9797885E-03
   7102.33  8.2799954E-03
   7102.67  8.6031536E-03
   7103.00  8.9518599E-03
   7103.33  9.3333007E-03
   7103.67  9.7480702E-03
   7104.00  1.0200466E-02
   7104.33  1.0701938E-02
   7104.67  1.1254352E-02
   7105.00  1.1865326E-02
   7105.33  1.2554455E-02
   7105.67  1.3326800E-02
   7106.00  1.4197119E-02
   7106.33  1.5202321E-02
   7106.67  1.6356235E-02
   7107.00  1.7691200E-02
   7107.33  1.9286730E-02
   7107.67  2.1184629E-02
   7108.00  2.3469684E-02
   7108.33  2.6351738E-02
   7108.67  2.9986151E-02
   7109.00  3.4668361E-02
   7109.33  4.1171693E-02
   7109.67  5.0334695E-02
   7110.00  6.3797494E-02
   7110.33  8.6261209E-02
   7110.67  1.2287973E-01
   7111.00  1.7596152E-01
   7111.33  2.3218514E-01
   7111.67  2.7342982E-01
   7112.00  2.9923917E-01
   7112.33  3.2317602E-01
   7112.67  3.5837683E-01
   7113.00  4.1165377E-01
   7113.33  4.7483805E-01
   7113.67  5.0574691E-01
   7114.00  4.7300026E-01
   7114.33  3.9467408E-01
   7114.67  3.2066814E-01
   7115.00  2.6701299E-01
   7115.33  2.3568108E-01
   7115.67  2.1785868E-01
   7116.00  2.0767139E-01
   7116.33  2.0019678E-01
   7116.67  1.9125014E-01
   7117.00  1.7886640E-01
   7117.33  1.6496081E-01
   7117.67  1.5336382E-01
   7118.00  1.4502783E-01
   7118.33  1.3938634E-01
   7118.67  1.3521633E-01
   7119.00  1.3230566E-01
   7119.33  1.3089485E-01
   7119.67  1.3086200E-01
   7120.00  1.3187401E-01
   7120.33  1.3311072E-01
   7120.67  1.3435822E-01
   7121.00  1.3624525E-01
   7121.33  1.3921449E-01
   7121.67  1.4296286E-01
   7122.00  1.4774143E-01
   7122.33  1.5407737E-01
   7122.67  1.6174098E-01
   7123.00  1.7061782E-01
   7123.33  1.8119545E-01
   7123.67  1.9409898E-01
   7124.00  2.1008709E-01
   7124.33  2.2991809E-01
   7124.67  2.5228442E-01
   7125.00  2.7522648E-01
   7125.33  2.9535234E-01
   7125.67  3.1104067E-01
   7126.00  3.2308492E-01
   7126.33  3.3454636E-01
   7126.67  3.4877863E-01
   7127.00  3.6767114E-01
   7127.33  3.9289562E-01
   7127.67  4.2342758E-01
   7128.00  4.5777944E-01
   7128.33  4.9267123E-01
   7128.67  5.2398291E-01
   7129.00  5.4971982E-01
   7129.33  5.7074039E-01
   7129.67  5.9148464E-01
   7130.00  6.1475504E-01
   7130.33  6.4176168E-01
   7130.67  6.7044201E-01
   7131.00  6.9870217E-01
   7131.33  7.2468558E-01
   7131.67  7.4850824E-01
   7132.00  7.7108084E-01
   7132.33  7.9451197E-01
   7132.67  8.2087397E-01
   7133.00  8.5075171E-01
   7133.33  8.8245254E-01
   7133.67  9.1198459E-01
   7134.00  9.3587251E-01
   7134.33  9.4955265E-01
   7134.67  9.5204644E-01
   7135.00  9.4292879E-01
   7135.33  9.2159843E-01
   7135.67  8.9125933E-01
   7136.00  8.5429689E-01
   7136.33  8.1330655E-01
   7136.67  7.7127798E-01
   7137.00  7.2981391E-01
   7137.33  6.9057891E-01
   7137.67  6.5448765E-01
   7138.00  6.2236141E-01
   7138.33  5.9541541E-01
   7138.67  5.7328386E-01
   7139.00  5.5581809E-01
   7139.33  5.4308627E-01
   7139.67  5.3393131E-01
   7140.00  5.2778168E-01
   7140.33  5.2432652E-01
   7140.67  5.2276073E-01
   7141.00  5.2274137E-01
   7141.33  5.2410328E-01
   7141.67  5.2641179E-01
   7142.00  5.2941228E-01
   7142.33  5.3280557E-01
   7142.67  5.3617315E-01
   7143.00  5.3921991E-01
   7143.33  5.4164627E-01
   7143.67  5.4346217E-01
   7144.00  5.4473990E-01
   7144.33  5.4558026E-01
   7144.67  5.4615646E-01
   7145.00  5.4650539E-01
   7145.33  5.4654572E-01
   7145.67  5.4620362E-01
   7146.00  5.4538237E-01
   7146.33  5.4394365E-01
   7146.67  5.4195768E-01
   7147.00  5.3949616E-01
   7147.33  5.3668371E-01
   7147.67  5.3375531E-01
   7148.00  5.3087325E-01
   7148.33  5.2823195E-01
   7148.67  5.2593271E-01
   7149.00  5.2404367E-01
   7149.33  5.2265253E-01
   7149.67  5.2169476E-01
   7150.00  5.2113609E-01
   7150.33  5.2095938E-01
   7150.67  5.2105484E-01
   7151.00  5.2136672E-01
   7151.33  5.2185981E-01
   7151.67  5.2247452E-01
   7152.00  5.2319230E-01
   7152.33  5.2402252E-01
   7152.67  5.2496834E-01
   7153.00  5.2605528E-01
   7153.33  5.2734450E-01
   7153.67  5.2885547E-01
   7154.00  5.3062076E-01
   7154.33  5.3270160E-01
   7154.67  5.3507073E-01
   7155.00  5.3771749E-01
   7155.33  5.4063734E-01
   7155.67  5.4374001E-01
   7156.00  5.4695526E-01
   7156.33  5.5018429E-01
   7156.67  5.5331031E-01
   7157.00  5.5622708E-01
   7157.33  5.5876676E-01
   7157.67  5.6085041E-01
   7158.00  5.6238425E-01
   7158.33  5.6319749E-01
   7158.67  5.6330551E-01
   7159.00  5.6267733E-01
   7159.33  5.6121493E-01
   7159.67  5.5903765E-01
   7160.00  5.5619045E-01
   7160.33  5.5266993E-01
   7160.67  5.4863518E-01
   7161.00  5.4416232E-01
   7161.33  5.3929450E-01
   7161.67  5.3415850E-01
   7162.00  5.2882270E-01
   7162.33  5.2334850E-01
   7162.67  5.1781767E-01
   7163.00  5.1228064E-01
   7163.33  5.0680939E-01
   7163.67  5.0146409E-01
   7164.00  4.9629980E-01
   7164.33  4.9140395E-01
   7164.67  4.8679539E-01
   7165.00  4.8250819E-01
   7165.33  4.7861472E-01
   7165.67  4.7508693E-01
   7166.00  4.7192762E-01
   7166.33  4.6917034E-01
   7166.67  4.6674339E-01
   7167.00  4.6461168E-01
   7167.33  4.6275176E-01
   7167.67  4.6106863E-01
   7168.00  4.5950141E-01
   7168.33  4.5798366E-01
   7168.67  4.5644282E-01
   7169.00  4.5482962E-01
   7169.33  4.5308829E-01
   7169.67  4.5120960E-01
   7170.00  4.4918732E-01
   7170.33  4.4701909E-01
   7170.67  4.4475821E-01
   7171.00  4.4245637E-01
   7171.33  4.4021093E-01
   7171.67  4.3815630E-01
   7172.00  4.3645502E-01
