    FDMNES
    energy     <xanes>
   7097.00  4.3629082E-03
   7097.33  4.4461034E-03
   7097.67  4.5322972E-03
   7098.00  4.6216582E-03
   7098.33  4.7148236E-03
   7098.67  4.8116073E-03
   7099.00  4.9122318E-03
   7099.33  5.0174990E-03
   7099.67  5.1272116E-03
   7100.00  5.2416721E-03
   7100.33  5.3619163E-03
   7100.67  5.4877445E-03
   7101.00  5.6195827E-03
   7101.33  5.7588129E-03
   7101.67  5.9052550E-03
   7102.00  6.0595348E-03
   7102.33  6.2235733E-03
   7102.67  6.3972611E-03
   7103.00  6.5815669E-03
   7103.33  6.7793051E-03
   7103.67  6.9905587E-03
   7104.00  7.2169300E-03
   7104.33  7.4628311E-03
   7104.67  7.7288442E-03
   7105.00  8.0178521E-03
   7105.33  8.3374192E-03
   7105.67  8.6894676E-03
   7106.00  9.0797879E-03
   7106.33  9.5230093E-03
   7106.67  1.0025013E-02
   7107.00  1.0599304E-02
   7107.33  1.1279345E-02
   7107.67  1.2084808E-02
   7108.00  1.3054682E-02
   7108.33  1.4286851E-02
   7108.67  1.5863623E-02
   7109.00  1.7940865E-02
   7109.33  2.0939230E-02
   7109.67  2.5372550E-02
   7110.00  3.2260666E-02
   7110.33  4.4546364E-02
   7110.67  6.4832862E-02
   7111.00  9.0732124E-02
   7111.33  1.0708286E-01
   7111.67  1.0764984E-01
   7112.00  9.5552979E-02
   7112.33  8.4308068E-02
   7112.67  8.1938649E-02
   7113.00  8.6372110E-02
   7113.33  9.0354327E-02
   7113.67  9.2988607E-02
   7114.00  8.6990858E-02
   7114.33  7.0064492E-02
   7114.67  5.6364867E-02
   7115.00  4.8776691E-02
   7115.33  4.6065611E-02
   7115.67  4.6007487E-02
   7116.00  4.7673133E-02
   7116.33  5.0310534E-02
   7116.67  5.3192216E-02
   7117.00  5.6286394E-02
   7117.33  6.0275558E-02
   7117.67  6.5763335E-02
   7118.00  7.3130591E-02
   7118.33  8.2603403E-02
   7118.67  9.3097034E-02
   7119.00  1.0393740E-01
   7119.33  1.1719179E-01
   7119.67  1.3550145E-01
   7120.00  1.5932052E-01
   7120.33  1.8697591E-01
   7120.67  2.1525388E-01
   7121.00  2.4260771E-01
   7121.33  2.6842695E-01
   7121.67  2.9371330E-01
   7122.00  3.1930284E-01
   7122.33  3.4530416E-01
   7122.67  3.7121801E-01
   7123.00  3.9668885E-01
   7123.33  4.2091472E-01
   7123.67  4.4363904E-01
   7124.00  4.6592976E-01
   7124.33  4.9085340E-01
   7124.67  5.1965302E-01
   7125.00  5.5007437E-01
   7125.33  5.7463712E-01
   7125.67  5.8764500E-01
   7126.00  5.8863364E-01
   7126.33  5.8231516E-01
   7126.67  5.7615624E-01
   7127.00  5.7277621E-01
   7127.33  5.7253195E-01
   7127.67  5.7513962E-01
   7128.00  5.8195934E-01
   7128.33  5.9648832E-01
   7128.67  6.1992836E-01
   7129.00  6.5210506E-01
   7129.33  6.9159283E-01
   7129.67  7.3451203E-01
   7130.00  7.7756366E-01
   7130.33  8.1527100E-01
   7130.67  8.4377050E-01
   7131.00  8.6143637E-01
   7131.33  8.6802927E-01
   7131.67  8.6703051E-01
   7132.00  8.6047452E-01
   7132.33  8.4971913E-01
   7132.67  8.3498476E-01
   7133.00  8.1439719E-01
   7133.33  7.8559628E-01
   7133.67  7.5157365E-01
   7134.00  7.1678200E-01
   7134.33  6.8707644E-01
   7134.67  6.6459630E-01
   7135.00  6.4942220E-01
   7135.33  6.4104626E-01
   7135.67  6.3703208E-01
   7136.00  6.3600837E-01
   7136.33  6.3686652E-01
   7136.67  6.3844405E-01
   7137.00  6.4016008E-01
   7137.33  6.4141430E-01
   7137.67  6.4173982E-01
   7138.00  6.4072582E-01
   7138.33  6.3783508E-01
   7138.67  6.3322385E-01
   7139.00  6.2706862E-01
   7139.33  6.1951490E-01
   7139.67  6.1093232E-01
   7140.00  6.0138737E-01
   7140.33  5.9083016E-01
   7140.67  5.7960255E-01
   7141.00  5.6808776E-01
   7141.33  5.5687915E-01
   7141.67  5.4644434E-01
   7142.00  5.3706115E-01
   7142.33  5.2897902E-01
   7142.67  5.2195122E-01
   7143.00  5.1578151E-01
   7143.33  5.1028691E-01
   7143.67  5.0519772E-01
   7144.00  5.0043206E-01
   7144.33  4.9601007E-01
   7144.67  4.9190222E-01
   7145.00  4.8809151E-01
   7145.33  4.8451067E-01
   7145.67  4.8095657E-01
   7146.00  4.7725044E-01
   7146.33  4.7319825E-01
   7146.67  4.6879544E-01
   7147.00  4.6409321E-01
   7147.33  4.5917357E-01
   7147.67  4.5414524E-01
   7148.00  4.4901828E-01
   7148.33  4.4369004E-01
   7148.67  4.3802467E-01
   7149.00  4.3186693E-01
   7149.33  4.2499938E-01
   7149.67  4.1745271E-01
   7150.00  4.0927158E-01
   7150.33  4.0053342E-01
   7150.67  3.9150307E-01
   7151.00  3.8238504E-01
   7151.33  3.7343847E-01
   7151.67  3.6485453E-01
   7152.00  3.5677930E-01
   7152.33  3.4940767E-01
   7152.67  3.4272763E-01
   7153.00  3.3676291E-01
   7153.33  3.3160275E-01
   7153.67  3.2713946E-01
   7154.00  3.2334939E-01
   7154.33  3.2028072E-01
   7154.67  3.1781981E-01
   7155.00  3.1593800E-01
   7155.33  3.1466981E-01
   7155.67  3.1391203E-01
   7156.00  3.1363207E-01
   7156.33  3.1384011E-01
   7156.67  3.1442738E-01
   7157.00  3.1533505E-01
   7157.33  3.1650593E-01
   7157.67  3.1780883E-01
   7158.00  3.1915960E-01
   7158.33  3.2049611E-01
   7158.67  3.2183709E-01
   7159.00  3.2328044E-01
   7159.33  3.2506796E-01
   7159.67  3.2740692E-01
   7160.00  3.3048949E-01
   7160.33  3.3458625E-01
   7160.67  3.3966244E-01
   7161.00  3.4573328E-01
   7161.33  3.5289556E-01
   7161.67  3.6097460E-01
   7162.00  3.6989606E-01
   7162.33  3.7962032E-01
   7162.67  3.8988784E-01
   7163.00  4.0052176E-01
   7163.33  4.1130106E-01
   7163.67  4.2195087E-01
   7164.00  4.3224791E-01
   7164.33  4.4188186E-01
   7164.67  4.5073958E-01
   7165.00  4.5871494E-01
   7165.33  4.6563865E-01
   7165.67  4.7164702E-01
   7166.00  4.7680345E-01
   7166.33  4.8112760E-01
   7166.67  4.8484732E-01
   7167.00  4.8808490E-01
   7167.33  4.9093699E-01
   7167.67  4.9357522E-01
   7168.00  4.9609811E-01
   7168.33  4.9860269E-01
   7168.67  5.0117086E-01
   7169.00  5.0385495E-01
   7169.33  5.0671720E-01
   7169.67  5.0975978E-01
   7170.00  5.1298428E-01
   7170.33  5.1639099E-01
   7170.67  5.1991176E-01
   7171.00  5.2347702E-01
   7171.33  5.2694758E-01
   7171.67  5.3012591E-01
   7172.00  5.3276385E-01
