    FDMNES
    energy     <xanes>
   7097.00  4.3320171E-03
   7097.33  4.4183612E-03
   7097.67  4.5078645E-03
   7098.00  4.6007005E-03
   7098.33  4.6975336E-03
   7098.67  4.7981611E-03
   7099.00  4.9028090E-03
   7099.33  5.0123045E-03
   7099.67  5.1264285E-03
   7100.00  5.2454823E-03
   7100.33  5.3705196E-03
   7100.67  5.5013099E-03
   7101.00  5.6382677E-03
   7101.33  5.7827719E-03
   7101.67  5.9345960E-03
   7102.00  6.0943311E-03
   7102.33  6.2638462E-03
   7102.67  6.4429547E-03
   7103.00  6.6325407E-03
   7103.33  6.8352540E-03
   7103.67  7.0510358E-03
   7104.00  7.2812905E-03
   7104.33  7.5300068E-03
   7104.67  7.7974741E-03
   7105.00  8.0861077E-03
   7105.33  8.4024219E-03
   7105.67  8.7476532E-03
   7106.00  9.1264236E-03
   7106.33  9.5506568E-03
   7106.67  1.0024376E-02
   7107.00  1.0557840E-02
   7107.33  1.1176770E-02
   7107.67  1.1894755E-02
   7108.00  1.2740001E-02
   7108.33  1.3783485E-02
   7108.67  1.5081236E-02
   7109.00  1.6740799E-02
   7109.33  1.9050631E-02
   7109.67  2.2350434E-02
   7110.00  2.7314087E-02
   7110.33  3.5892547E-02
   7110.67  4.9995849E-02
   7111.00  6.8946356E-02
   7111.33  8.3190979E-02
   7111.67  8.7519743E-02
   7112.00  8.5288482E-02
   7112.33  8.0290312E-02
   7112.67  7.4019293E-02
   7113.00  6.8143428E-02
   7113.33  6.4501715E-02
   7113.67  6.3149442E-02
   7114.00  6.3881492E-02
   7114.33  6.6654739E-02
   7114.67  7.1083555E-02
   7115.00  7.7120118E-02
   7115.33  8.4985873E-02
   7115.67  9.4557379E-02
   7116.00  1.0594724E-01
   7116.33  1.1954151E-01
   7116.67  1.3517829E-01
   7117.00  1.5283963E-01
   7117.33  1.7256231E-01
   7117.67  1.9369719E-01
   7118.00  2.1578088E-01
   7118.33  2.3853263E-01
   7118.67  2.6197495E-01
   7119.00  2.8640297E-01
   7119.33  3.1199806E-01
   7119.67  3.3807648E-01
   7120.00  3.6381250E-01
   7120.33  3.8784912E-01
   7120.67  4.0886857E-01
   7121.00  4.2534522E-01
   7121.33  4.3540273E-01
   7121.67  4.4018865E-01
   7122.00  4.4110346E-01
   7122.33  4.3970930E-01
   7122.67  4.3775140E-01
   7123.00  4.3617558E-01
   7123.33  4.3587384E-01
   7123.67  4.3709155E-01
   7124.00  4.3989518E-01
   7124.33  4.4433913E-01
   7124.67  4.5010641E-01
   7125.00  4.5723899E-01
   7125.33  4.6619083E-01
   7125.67  4.7703778E-01
   7126.00  4.8965967E-01
   7126.33  5.0318290E-01
   7126.67  5.1580572E-01
   7127.00  5.2601912E-01
   7127.33  5.3231669E-01
   7127.67  5.3511312E-01
   7128.00  5.3500596E-01
   7128.33  5.3266263E-01
   7128.67  5.2921573E-01
   7129.00  5.2531184E-01
   7129.33  5.2150959E-01
   7129.67  5.1811046E-01
   7130.00  5.1526240E-01
   7130.33  5.1317762E-01
   7130.67  5.1184620E-01
   7131.00  5.1124077E-01
   7131.33  5.1128676E-01
   7131.67  5.1171761E-01
   7132.00  5.1241115E-01
   7132.33  5.1337333E-01
   7132.67  5.1467781E-01
   7133.00  5.1644787E-01
   7133.33  5.1873944E-01
   7133.67  5.2114250E-01
   7134.00  5.2314319E-01
   7134.33  5.2418158E-01
   7134.67  5.2427491E-01
   7135.00  5.2354558E-01
   7135.33  5.2215066E-01
   7135.67  5.2042288E-01
   7136.00  5.1857614E-01
   7136.33  5.1683506E-01
   7136.67  5.1534523E-01
   7137.00  5.1419370E-01
   7137.33  5.1348116E-01
   7137.67  5.1317077E-01
   7138.00  5.1325240E-01
   7138.33  5.1374354E-01
   7138.67  5.1455568E-01
   7139.00  5.1564775E-01
   7139.33  5.1700370E-01
   7139.67  5.1855108E-01
   7140.00  5.2025334E-01
   7140.33  5.2208278E-01
   7140.67  5.2398576E-01
   7141.00  5.2593167E-01
   7141.33  5.2789224E-01
   7141.67  5.2984342E-01
   7142.00  5.3177186E-01
   7142.33  5.3366330E-01
   7142.67  5.3551430E-01
   7143.00  5.3731782E-01
   7143.33  5.3905633E-01
   7143.67  5.4072472E-01
   7144.00  5.4231297E-01
   7144.33  5.4380581E-01
   7144.67  5.4522577E-01
   7145.00  5.4659763E-01
   7145.33  5.4794730E-01
   7145.67  5.4930257E-01
   7146.00  5.5069469E-01
   7146.33  5.5218385E-01
   7146.67  5.5381863E-01
   7147.00  5.5565134E-01
   7147.33  5.5776801E-01
   7147.67  5.6017786E-01
   7148.00  5.6290207E-01
   7148.33  5.6598968E-01
   7148.67  5.6939336E-01
   7149.00  5.7309766E-01
   7149.33  5.7711076E-01
   7149.67  5.8136795E-01
   7150.00  5.8584092E-01
   7150.33  5.9050891E-01
   7150.67  5.9529796E-01
   7151.00  6.0015682E-01
   7151.33  6.0501921E-01
   7151.67  6.0981176E-01
   7152.00  6.1446814E-01
   7152.33  6.1888327E-01
   7152.67  6.2301132E-01
   7153.00  6.2679453E-01
   7153.33  6.3012389E-01
   7153.67  6.3300747E-01
   7154.00  6.3542195E-01
   7154.33  6.3729328E-01
   7154.67  6.3868009E-01
   7155.00  6.3958852E-01
   7155.33  6.3997454E-01
   7155.67  6.3991480E-01
   7156.00  6.3942679E-01
   7156.33  6.3847939E-01
   7156.67  6.3714111E-01
   7157.00  6.3542311E-01
   7157.33  6.3328460E-01
   7157.67  6.3077176E-01
   7158.00  6.2788050E-01
   7158.33  6.2455321E-01
   7158.67  6.2082521E-01
   7159.00  6.1668435E-01
   7159.33  6.1206434E-01
   7159.67  6.0700819E-01
   7160.00  6.0151065E-01
   7160.33  5.9551678E-01
   7160.67  5.8909401E-01
   7161.00  5.8226725E-01
   7161.33  5.7503178E-01
   7161.67  5.6748274E-01
   7162.00  5.5967402E-01
   7162.33  5.5165592E-01
   7162.67  5.4353122E-01
   7163.00  5.3537348E-01
   7163.33  5.2727076E-01
   7163.67  5.1929317E-01
   7164.00  5.1150141E-01
   7164.33  5.0398745E-01
   7164.67  4.9676779E-01
   7165.00  4.8987052E-01
   7165.33  4.8335605E-01
   7165.67  4.7718584E-01
   7166.00  4.7135425E-01
   7166.33  4.6588655E-01
   7166.67  4.6072028E-01
   7167.00  4.5583230E-01
   7167.33  4.5122454E-01
   7167.67  4.4683774E-01
   7168.00  4.4265025E-01
   7168.33  4.3866249E-01
   7168.67  4.3483497E-01
   7169.00  4.3115646E-01
   7169.33  4.2763474E-01
   7169.67  4.2424753E-01
   7170.00  4.2099517E-01
   7170.33  4.1790084E-01
   7170.67  4.1496053E-01
   7171.00  4.1219551E-01
   7171.33  4.0967736E-01
   7171.67  4.0746075E-01
   7172.00  4.0565194E-01
