    FDMNES
    energy     <xanes>
   7097.00  4.9170766E-03
   7097.33  5.0357404E-03
   7097.67  5.1599432E-03
   7098.00  5.2900746E-03
   7098.33  5.4274413E-03
   7098.67  5.5718025E-03
   7099.00  5.7236952E-03
   7099.33  5.8848485E-03
   7099.67  6.0550249E-03
   7100.00  6.2349866E-03
   7100.33  6.4270864E-03
   7100.67  6.6311233E-03
   7101.00  6.8482156E-03
   7101.33  7.0816727E-03
   7101.67  7.3314040E-03
   7102.00  7.5991157E-03
   7102.33  7.8896518E-03
   7102.67  8.2031951E-03
   7103.00  8.5424745E-03
   7103.33  8.9149332E-03
   7103.67  9.3214004E-03
   7104.00  9.7665002E-03
   7104.33  1.0262382E-02
   7104.67  1.0811426E-02
   7105.00  1.1422057E-02
   7105.33  1.2115695E-02
   7105.67  1.2898656E-02
   7106.00  1.3787809E-02
   7106.33  1.4824959E-02
   7106.67  1.6027444E-02
   7107.00  1.7433659E-02
   7107.33  1.9137540E-02
   7107.67  2.1192472E-02
   7108.00  2.3703537E-02
   7108.33  2.6930897E-02
   7108.67  3.1078487E-02
   7109.00  3.6529794E-02
   7109.33  4.4294513E-02
   7109.67  5.5509023E-02
   7110.00  7.2395041E-02
   7110.33  1.0132498E-01
   7110.67  1.4900459E-01
   7111.00  2.1673477E-01
   7111.33  2.8394977E-01
   7111.67  3.3707284E-01
   7112.00  3.8800890E-01
   7112.33  4.3859969E-01
   7112.67  4.5659481E-01
   7113.00  4.0984401E-01
   7113.33  3.1355325E-01
   7113.67  2.3167439E-01
   7114.00  1.7842890E-01
   7114.33  1.5257862E-01
   7114.67  1.4609934E-01
   7115.00  1.5601574E-01
   7115.33  1.7107956E-01
   7115.67  1.6731557E-01
   7116.00  1.4290828E-01
   7116.33  1.1701170E-01
   7116.67  9.8793647E-02
   7117.00  8.7965122E-02
   7117.33  8.3195226E-02
   7117.67  8.1896888E-02
   7118.00  8.2602683E-02
   7118.33  8.4436126E-02
   7118.67  8.7485475E-02
   7119.00  9.2125596E-02
   7119.33  9.7975730E-02
   7119.67  1.0350718E-01
   7120.00  1.0755351E-01
   7120.33  1.1026633E-01
   7120.67  1.1416593E-01
   7121.00  1.2104866E-01
   7121.33  1.3180221E-01
   7121.67  1.4569387E-01
   7122.00  1.6287092E-01
   7122.33  1.8428494E-01
   7122.67  2.0928504E-01
   7123.00  2.3684153E-01
   7123.33  2.6623816E-01
   7123.67  2.9738323E-01
   7124.00  3.2958176E-01
   7124.33  3.5987312E-01
   7124.67  3.8466520E-01
   7125.00  4.0121582E-01
   7125.33  4.0858670E-01
   7125.67  4.1164852E-01
   7126.00  4.1480150E-01
   7126.33  4.2286770E-01
   7126.67  4.3744729E-01
   7127.00  4.5850403E-01
   7127.33  4.8494885E-01
   7127.67  5.1400248E-01
   7128.00  5.4443467E-01
   7128.33  5.7517164E-01
   7128.67  6.0411477E-01
   7129.00  6.2990047E-01
   7129.33  6.5448501E-01
   7129.67  6.8187497E-01
   7130.00  7.1237327E-01
   7130.33  7.4203488E-01
   7130.67  7.6638646E-01
   7131.00  7.8319283E-01
   7131.33  7.9054709E-01
   7131.67  7.8965665E-01
   7132.00  7.8169579E-01
   7132.33  7.6895535E-01
   7132.67  7.5542967E-01
   7133.00  7.4378565E-01
   7133.33  7.3669954E-01
   7133.67  7.3437726E-01
   7134.00  7.3617991E-01
   7134.33  7.4059994E-01
   7134.67  7.4526786E-01
   7135.00  7.4895637E-01
   7135.33  7.5116643E-01
   7135.67  7.5243874E-01
   7136.00  7.5303619E-01
   7136.33  7.5277582E-01
   7136.67  7.5141018E-01
   7137.00  7.4869352E-01
   7137.33  7.4443590E-01
   7137.67  7.3910367E-01
   7138.00  7.3308255E-01
   7138.33  7.2667475E-01
   7138.67  7.1994889E-01
   7139.00  7.1264978E-01
   7139.33  7.0412999E-01
   7139.67  6.9391803E-01
   7140.00  6.8153394E-01
   7140.33  6.6642101E-01
   7140.67  6.4933061E-01
   7141.00  6.3133324E-01
   7141.33  6.1429201E-01
   7141.67  5.9980418E-01
   7142.00  5.8884861E-01
   7142.33  5.8222947E-01
   7142.67  5.7892309E-01
   7143.00  5.7791012E-01
   7143.33  5.7769428E-01
   7143.67  5.7651106E-01
   7144.00  5.7315808E-01
   7144.33  5.6647954E-01
   7144.67  5.5689690E-01
   7145.00  5.4506068E-01
   7145.33  5.3199424E-01
   7145.67  5.1906047E-01
   7146.00  5.0717191E-01
   7146.33  4.9730622E-01
   7146.67  4.8958749E-01
   7147.00  4.8406818E-01
   7147.33  4.8085967E-01
   7147.67  4.7944443E-01
   7148.00  4.7956577E-01
   7148.33  4.8106826E-01
   7148.67  4.8349061E-01
   7149.00  4.8657919E-01
   7149.33  4.9011323E-01
   7149.67  4.9380708E-01
   7150.00  4.9748613E-01
   7150.33  5.0095545E-01
   7150.67  5.0410398E-01
   7151.00  5.0685461E-01
   7151.33  5.0912572E-01
   7151.67  5.1102261E-01
   7152.00  5.1265315E-01
   7152.33  5.1417957E-01
   7152.67  5.1578994E-01
   7153.00  5.1759485E-01
   7153.33  5.1966617E-01
   7153.67  5.2190861E-01
   7154.00  5.2419041E-01
   7154.33  5.2628787E-01
   7154.67  5.2801492E-01
   7155.00  5.2922689E-01
   7155.33  5.2974051E-01
   7155.67  5.2960024E-01
   7156.00  5.2882379E-01
   7156.33  5.2738588E-01
   7156.67  5.2541041E-01
   7157.00  5.2292628E-01
   7157.33  5.1987853E-01
   7157.67  5.1631071E-01
   7158.00  5.1219229E-01
   7158.33  5.0741116E-01
   7158.67  5.0201685E-01
   7159.00  4.9601350E-01
   7159.33  4.8937500E-01
   7159.67  4.8226084E-01
   7160.00  4.7477891E-01
   7160.33  4.6705396E-01
   7160.67  4.5927729E-01
   7161.00  4.5158583E-01
   7161.33  4.4414676E-01
   7161.67  4.3703703E-01
   7162.00  4.3031296E-01
   7162.33  4.2405145E-01
   7162.67  4.1819141E-01
   7163.00  4.1270406E-01
   7163.33  4.0758132E-01
   7163.67  4.0272782E-01
   7164.00  3.9810053E-01
   7164.33  3.9368433E-01
   7164.67  3.8943369E-01
   7165.00  3.8534506E-01
   7165.33  3.8145209E-01
   7165.67  3.7775790E-01
   7166.00  3.7429078E-01
   7166.33  3.7112018E-01
   7166.67  3.6824816E-01
   7167.00  3.6569989E-01
   7167.33  3.6353997E-01
   7167.67  3.6173759E-01
   7168.00  3.6029568E-01
   7168.33  3.5925312E-01
   7168.67  3.5855246E-01
   7169.00  3.5817849E-01
   7169.33  3.5814871E-01
   7169.67  3.5840152E-01
   7170.00  3.5891475E-01
   7170.33  3.5968820E-01
   7170.67  3.6065768E-01
   7171.00  3.6178322E-01
   7171.33  3.6300550E-01
   7171.67  3.6419480E-01
   7172.00  3.6519850E-01
