    FDMNES
    energy     <xanes>
   7097.00  5.2969246E-03
   7097.33  5.4314442E-03
   7097.67  5.5725357E-03
   7098.00  5.7206733E-03
   7098.33  5.8774277E-03
   7098.67  6.0425287E-03
   7099.00  6.2166322E-03
   7099.33  6.4018267E-03
   7099.67  6.5978479E-03
   7100.00  6.8056293E-03
   7100.33  7.0280246E-03
   7100.67  7.2648170E-03
   7101.00  7.5173780E-03
   7101.33  7.7897361E-03
   7101.67  8.0818121E-03
   7102.00  8.3957001E-03
   7102.33  8.7373138E-03
   7102.67  9.1069101E-03
   7103.00  9.5078390E-03
   7103.33  9.9492043E-03
   7103.67  1.0432055E-02
   7104.00  1.0962065E-02
   7104.33  1.1554109E-02
   7104.67  1.2211132E-02
   7105.00  1.2943464E-02
   7105.33  1.3777336E-02
   7105.67  1.4720512E-02
   7106.00  1.5793668E-02
   7106.33  1.7048022E-02
   7106.67  1.8504880E-02
   7107.00  2.0211374E-02
   7107.33  2.2282890E-02
   7107.67  2.4785425E-02
   7108.00  2.7848904E-02
   7108.33  3.1795805E-02
   7108.67  3.6882651E-02
   7109.00  4.3593269E-02
   7109.33  5.3211533E-02
   7109.67  6.7219773E-02
   7110.00  8.8532664E-02
   7110.33  1.2544729E-01
   7110.67  1.8523470E-01
   7111.00  2.6227712E-01
   7111.33  3.2193169E-01
   7111.67  3.7243554E-01
   7112.00  4.4519637E-01
   7112.33  5.3248629E-01
   7112.67  5.5794363E-01
   7113.00  4.9658672E-01
   7113.33  4.0227792E-01
   7113.67  3.2471545E-01
   7114.00  2.7145746E-01
   7114.33  2.4171721E-01
   7114.67  2.2904773E-01
   7115.00  2.3019264E-01
   7115.33  2.3694156E-01
   7115.67  2.3733381E-01
   7116.00  2.2919767E-01
   7116.33  2.1663175E-01
   7116.67  2.0479108E-01
   7117.00  1.9541454E-01
   7117.33  1.8799756E-01
   7117.67  1.8054614E-01
   7118.00  1.7223605E-01
   7118.33  1.6303591E-01
   7118.67  1.5380992E-01
   7119.00  1.4565277E-01
   7119.33  1.3998589E-01
   7119.67  1.3673910E-01
   7120.00  1.3544796E-01
   7120.33  1.3547045E-01
   7120.67  1.3601561E-01
   7121.00  1.3674889E-01
   7121.33  1.3723078E-01
   7121.67  1.3728518E-01
   7122.00  1.3719749E-01
   7122.33  1.3751979E-01
   7122.67  1.3865306E-01
   7123.00  1.4089587E-01
   7123.33  1.4456247E-01
   7123.67  1.4950854E-01
   7124.00  1.5573945E-01
   7124.33  1.6350731E-01
   7124.67  1.7284050E-01
   7125.00  1.8400253E-01
   7125.33  1.9762698E-01
   7125.67  2.1370438E-01
   7126.00  2.3216775E-01
   7126.33  2.5268672E-01
   7126.67  2.7442927E-01
   7127.00  2.9738140E-01
   7127.33  3.2210549E-01
   7127.67  3.4868070E-01
   7128.00  3.7736048E-01
   7128.33  4.0903662E-01
   7128.67  4.4409618E-01
   7129.00  4.8318859E-01
   7129.33  5.2767224E-01
   7129.67  5.7731931E-01
   7130.00  6.3175556E-01
   7130.33  6.9010994E-01
   7130.67  7.5005184E-01
   7131.00  8.0988175E-01
   7131.33  8.6771604E-01
   7131.67  9.2259718E-01
   7132.00  9.7375804E-01
   7132.33  1.0195725E+00
   7132.67  1.0589188E+00
   7133.00  1.0894342E+00
   7133.33  1.1057936E+00
   7133.67  1.1056858E+00
   7134.00  1.0869123E+00
   7134.33  1.0471054E+00
   7134.67  9.9177295E-01
   7135.00  9.2592471E-01
   7135.33  8.5591196E-01
   7135.67  7.8770409E-01
   7136.00  7.2411727E-01
   7136.33  6.6747169E-01
   7136.67  6.1754309E-01
   7137.00  5.7444194E-01
   7137.33  5.3893252E-01
   7137.67  5.0993586E-01
   7138.00  4.8714069E-01
   7138.33  4.7077957E-01
   7138.67  4.5955496E-01
   7139.00  4.5292362E-01
   7139.33  4.5074689E-01
   7139.67  4.5194357E-01
   7140.00  4.5607354E-01
   7140.33  4.6302110E-01
   7140.67  4.7212886E-01
   7141.00  4.8314986E-01
   7141.33  4.9603108E-01
   7141.67  5.1030863E-01
   7142.00  5.2574441E-01
   7142.33  5.4212897E-01
   7142.67  5.5898976E-01
   7143.00  5.7596666E-01
   7143.33  5.9255019E-01
   7143.67  6.0828470E-01
   7144.00  6.2273547E-01
   7144.33  6.3520155E-01
   7144.67  6.4548563E-01
   7145.00  6.5330958E-01
   7145.33  6.5815259E-01
   7145.67  6.6031195E-01
   7146.00  6.5987669E-01
   7146.33  6.5677561E-01
   7146.67  6.5163279E-01
   7147.00  6.4478644E-01
   7147.33  6.3650446E-01
   7147.67  6.2735952E-01
   7148.00  6.1765737E-01
   7148.33  6.0767422E-01
   7148.67  5.9771055E-01
   7149.00  5.8796319E-01
   7149.33  5.7867117E-01
   7149.67  5.6993143E-01
   7150.00  5.6184013E-01
   7150.33  5.5456631E-01
   7150.67  5.4806679E-01
   7151.00  5.4236333E-01
   7151.33  5.3756457E-01
   7151.67  5.3356526E-01
   7152.00  5.3035562E-01
   7152.33  5.2801729E-01
   7152.67  5.2643612E-01
   7153.00  5.2559575E-01
   7153.33  5.2556319E-01
   7153.67  5.2622030E-01
   7154.00  5.2753709E-01
   7154.33  5.2954730E-01
   7154.67  5.3212091E-01
   7155.00  5.3520516E-01
   7155.33  5.3878636E-01
   7155.67  5.4273226E-01
   7156.00  5.4696905E-01
   7156.33  5.5142873E-01
   7156.67  5.5599259E-01
   7157.00  5.6058184E-01
   7157.33  5.6510082E-01
   7157.67  5.6947420E-01
   7158.00  5.7363457E-01
   7158.33  5.7747298E-01
   7158.67  5.8095577E-01
   7159.00  5.8402491E-01
   7159.33  5.8655376E-01
   7159.67  5.8853631E-01
   7160.00  5.8991632E-01
   7160.33  5.9054642E-01
   7160.67  5.9045012E-01
   7161.00  5.8958367E-01
   7161.33  5.8780857E-01
   7161.67  5.8519991E-01
   7162.00  5.8174371E-01
   7162.33  5.7733373E-01
   7162.67  5.7209832E-01
   7163.00  5.6607259E-01
   7163.33  5.5922123E-01
   7163.67  5.5170743E-01
   7164.00  5.4360237E-01
   7164.33  5.3493326E-01
   7164.67  5.2585803E-01
   7165.00  5.1646306E-01
   7165.33  5.0682445E-01
   7165.67  4.9707234E-01
   7166.00  4.8729262E-01
   7166.33  4.7758892E-01
   7166.67  4.6804281E-01
   7167.00  4.5872590E-01
   7167.33  4.4975056E-01
   7167.67  4.4114333E-01
   7168.00  4.3295316E-01
   7168.33  4.2529264E-01
   7168.67  4.1814283E-01
   7169.00  4.1152407E-01
   7169.33  4.0551588E-01
   7169.67  4.0005104E-01
   7170.00  3.9512334E-01
   7170.33  3.9078505E-01
   7170.67  3.8695349E-01
   7171.00  3.8361311E-01
   7171.33  3.8080949E-01
   7171.67  3.7848336E-01
   7172.00  3.7664789E-01
