    FDMNES
    energy     <xanes>
   7097.00  5.0153063E-03
   7097.33  5.1296915E-03
   7097.67  5.2490854E-03
   7098.00  5.3738163E-03
   7098.33  5.5050258E-03
   7098.67  5.6424621E-03
   7099.00  5.7865687E-03
   7099.33  5.9388251E-03
   7099.67  6.0989687E-03
   7100.00  6.2676139E-03
   7100.33  6.4467258E-03
   7100.67  6.6360494E-03
   7101.00  6.8364611E-03
   7101.33  7.0506482E-03
   7101.67  7.2784052E-03
   7102.00  7.5210264E-03
   7102.33  7.7823164E-03
   7102.67  8.0622123E-03
   7103.00  8.3627071E-03
   7103.33  8.6894200E-03
   7103.67  9.0426404E-03
   7104.00  9.4255978E-03
   7104.33  9.8470392E-03
   7104.67  1.0308100E-02
   7105.00  1.0814360E-02
   7105.33  1.1380379E-02
   7105.67  1.2009386E-02
   7106.00  1.2711861E-02
   7106.33  1.3514291E-02
   7106.67  1.4425506E-02
   7107.00  1.5467561E-02
   7107.33  1.6694988E-02
   7107.67  1.8133782E-02
   7108.00  1.9838714E-02
   7108.33  2.1945050E-02
   7108.67  2.4544637E-02
   7109.00  2.7814615E-02
   7109.33  3.2212597E-02
   7109.67  3.8199371E-02
   7110.00  4.6673014E-02
   7110.33  6.0189960E-02
   7110.67  8.1682418E-02
   7111.00  1.1305394E-01
   7111.33  1.4632424E-01
   7111.67  1.7823656E-01
   7112.00  2.1710937E-01
   7112.33  2.6464744E-01
   7112.67  3.2791885E-01
   7113.00  4.0095849E-01
   7113.33  4.6782549E-01
   7113.67  4.7518503E-01
   7114.00  3.8107879E-01
   7114.33  2.7515221E-01
   7114.67  2.1162667E-01
   7115.00  1.8547742E-01
   7115.33  1.8465122E-01
   7115.67  1.9606935E-01
   7116.00  2.1845580E-01
   7116.33  2.4469854E-01
   7116.67  2.5499538E-01
   7117.00  2.4166201E-01
   7117.33  2.1546768E-01
   7117.67  1.9169434E-01
   7118.00  1.7461051E-01
   7118.33  1.6508354E-01
   7118.67  1.6051486E-01
   7119.00  1.5866228E-01
   7119.33  1.5658874E-01
   7119.67  1.5278573E-01
   7120.00  1.4765870E-01
   7120.33  1.4243780E-01
   7120.67  1.3797843E-01
   7121.00  1.3465858E-01
   7121.33  1.3309142E-01
   7121.67  1.3353999E-01
   7122.00  1.3637562E-01
   7122.33  1.4237846E-01
   7122.67  1.5162323E-01
   7123.00  1.6444831E-01
   7123.33  1.8157988E-01
   7123.67  2.0228497E-01
   7124.00  2.2558008E-01
   7124.33  2.4930024E-01
   7124.67  2.7093156E-01
   7125.00  2.8914473E-01
   7125.33  3.0312485E-01
   7125.67  3.1411346E-01
   7126.00  3.2327088E-01
   7126.33  3.3148958E-01
   7126.67  3.3910851E-01
   7127.00  3.4615208E-01
   7127.33  3.5333369E-01
   7127.67  3.6256044E-01
   7128.00  3.7628222E-01
   7128.33  3.9868090E-01
   7128.67  4.3211749E-01
   7129.00  4.7957470E-01
   7129.33  5.4670480E-01
   7129.67  6.3328439E-01
   7130.00  7.3665225E-01
   7130.33  8.4386607E-01
   7130.67  9.3253994E-01
   7131.00  9.8823683E-01
   7131.33  1.0076708E+00
   7131.67  1.0091726E+00
   7132.00  1.0045009E+00
   7132.33  1.0003362E+00
   7132.67  9.9724529E-01
   7133.00  9.9372695E-01
   7133.33  9.8757666E-01
   7133.67  9.7783057E-01
   7134.00  9.6400506E-01
   7134.33  9.4554835E-01
   7134.67  9.2333021E-01
   7135.00  8.9785855E-01
   7135.33  8.6953613E-01
   7135.67  8.3944324E-01
   7136.00  8.0820876E-01
   7136.33  7.7640163E-01
   7136.67  7.4457082E-01
   7137.00  7.1305516E-01
   7137.33  6.8231926E-01
   7137.67  6.5268562E-01
   7138.00  6.2455408E-01
   7138.33  5.9869796E-01
   7138.67  5.7540176E-01
   7139.00  5.5507724E-01
   7139.33  5.3846362E-01
   7139.67  5.2523388E-01
   7140.00  5.1524587E-01
   7140.33  5.0847273E-01
   7140.67  5.0401853E-01
   7141.00  5.0136960E-01
   7141.33  5.0008970E-01
   7141.67  4.9950047E-01
   7142.00  4.9922564E-01
   7142.33  4.9891240E-01
   7142.67  4.9829591E-01
   7143.00  4.9721171E-01
   7143.33  4.9547831E-01
   7143.67  4.9313471E-01
   7144.00  4.9019969E-01
   7144.33  4.8666924E-01
   7144.67  4.8270449E-01
   7145.00  4.7840838E-01
   7145.33  4.7389993E-01
   7145.67  4.6936790E-01
   7146.00  4.6496870E-01
   7146.33  4.6093364E-01
   7146.67  4.5740827E-01
   7147.00  4.5453485E-01
   7147.33  4.5254511E-01
   7147.67  4.5142345E-01
   7148.00  4.5118759E-01
   7148.33  4.5191508E-01
   7148.67  4.5343591E-01
   7149.00  4.5568519E-01
   7149.33  4.5866582E-01
   7149.67  4.6222410E-01
   7150.00  4.6631057E-01
   7150.33  4.7093758E-01
   7150.67  4.7600148E-01
   7151.00  4.8146788E-01
   7151.33  4.8733308E-01
   7151.67  4.9348447E-01
   7152.00  4.9984240E-01
   7152.33  5.0629918E-01
   7152.67  5.1270048E-01
   7153.00  5.1891050E-01
   7153.33  5.2472620E-01
   7153.67  5.3004770E-01
   7154.00  5.3477721E-01
   7154.33  5.3876003E-01
   7154.67  5.4205815E-01
   7155.00  5.4469270E-01
   7155.33  5.4665151E-01
   7155.67  5.4810135E-01
   7156.00  5.4913271E-01
   7156.33  5.4981425E-01
   7156.67  5.5028546E-01
   7157.00  5.5062258E-01
   7157.33  5.5089216E-01
   7157.67  5.5115849E-01
   7158.00  5.5145631E-01
   7158.33  5.5181802E-01
   7158.67  5.5224721E-01
   7159.00  5.5274272E-01
   7159.33  5.5329947E-01
   7159.67  5.5388831E-01
   7160.00  5.5448286E-01
   7160.33  5.5504176E-01
   7160.67  5.5552587E-01
   7161.00  5.5589492E-01
   7161.33  5.5607932E-01
   7161.67  5.5605032E-01
   7162.00  5.5576778E-01
   7162.33  5.5515230E-01
   7162.67  5.5420333E-01
   7163.00  5.5289468E-01
   7163.33  5.5115784E-01
   7163.67  5.4903127E-01
   7164.00  5.4651673E-01
   7164.33  5.4357928E-01
   7164.67  5.4028892E-01
   7165.00  5.3667392E-01
   7165.33  5.3273919E-01
   7165.67  5.2856762E-01
   7166.00  5.2420469E-01
   7166.33  5.1968928E-01
   7166.67  5.1509318E-01
   7167.00  5.1045887E-01
   7167.33  5.0582664E-01
   7167.67  5.0123151E-01
   7168.00  4.9669986E-01
   7168.33  4.9226491E-01
   7168.67  4.8793167E-01
   7169.00  4.8371056E-01
   7169.33  4.7962668E-01
   7169.67  4.7567350E-01
   7170.00  4.7185961E-01
   7170.33  4.6821852E-01
   7170.67  4.6475345E-01
   7171.00  4.6149469E-01
   7171.33  4.5853346E-01
   7171.67  4.5593855E-01
   7172.00  4.5383964E-01
