    FDMNES
    energy     <xanes>
   7097.00  5.2978152E-03
   7097.33  5.4297225E-03
   7097.67  5.5678914E-03
   7098.00  5.7127585E-03
   7098.33  5.8657942E-03
   7098.67  6.0267187E-03
   7099.00  6.1961296E-03
   7099.33  6.3759611E-03
   7099.67  6.5659297E-03
   7100.00  6.7668748E-03
   7100.33  6.9814071E-03
   7100.67  7.2092700E-03
   7101.00  7.4516794E-03
   7101.33  7.7122679E-03
   7101.67  7.9908748E-03
   7102.00  8.2893259E-03
   7102.33  8.6128645E-03
   7102.67  8.9615770E-03
   7103.00  9.3383298E-03
   7103.33  9.7510364E-03
   7103.67  1.0200377E-02
   7104.00  1.0691102E-02
   7104.33  1.1235846E-02
   7104.67  1.1836714E-02
   7105.00  1.2502147E-02
   7105.33  1.3253842E-02
   7105.67  1.4097498E-02
   7106.00  1.5049562E-02
   7106.33  1.6151145E-02
   7106.67  1.7417964E-02
   7107.00  1.8886463E-02
   7107.33  2.0646351E-02
   7107.67  2.2746161E-02
   7108.00  2.5283815E-02
   7108.33  2.8503062E-02
   7108.67  3.2592640E-02
   7109.00  3.7912774E-02
   7109.33  4.5423567E-02
   7109.67  5.6235610E-02
   7110.00  7.2545899E-02
   7110.33  1.0054058E-01
   7110.67  1.4452321E-01
   7111.00  1.9544861E-01
   7111.33  2.2635196E-01
   7111.67  2.5527081E-01
   7112.00  2.9411857E-01
   7112.33  3.3975541E-01
   7112.67  3.9327731E-01
   7113.00  4.6593677E-01
   7113.33  5.5821257E-01
   7113.67  6.1022626E-01
   7114.00  5.7177081E-01
   7114.33  4.6295582E-01
   7114.67  3.6082368E-01
   7115.00  2.8989740E-01
   7115.33  2.5150757E-01
   7115.67  2.3343675E-01
   7116.00  2.2837100E-01
   7116.33  2.2866885E-01
   7116.67  2.2854085E-01
   7117.00  2.2643110E-01
   7117.33  2.2115560E-01
   7117.67  2.1299063E-01
   7118.00  2.0285204E-01
   7118.33  1.9174306E-01
   7118.67  1.8032519E-01
   7119.00  1.6936258E-01
   7119.33  1.5999796E-01
   7119.67  1.5223481E-01
   7120.00  1.4589869E-01
   7120.33  1.4094240E-01
   7120.67  1.3692500E-01
   7121.00  1.3385464E-01
   7121.33  1.3265183E-01
   7121.67  1.3372520E-01
   7122.00  1.3693644E-01
   7122.33  1.4191629E-01
   7122.67  1.4796787E-01
   7123.00  1.5485425E-01
   7123.33  1.6266691E-01
   7123.67  1.7152006E-01
   7124.00  1.8168213E-01
   7124.33  1.9374476E-01
   7124.67  2.0801826E-01
   7125.00  2.2490653E-01
   7125.33  2.4427103E-01
   7125.67  2.6389430E-01
   7126.00  2.8220249E-01
   7126.33  2.9980732E-01
   7126.67  3.1889079E-01
   7127.00  3.3997624E-01
   7127.33  3.6154459E-01
   7127.67  3.8137356E-01
   7128.00  3.9885955E-01
   7128.33  4.1527389E-01
   7128.67  4.3349035E-01
   7129.00  4.5580089E-01
   7129.33  4.8421051E-01
   7129.67  5.1776798E-01
   7130.00  5.5572933E-01
   7130.33  5.9826668E-01
   7130.67  6.4527605E-01
   7131.00  6.9735682E-01
   7131.33  7.5573423E-01
   7131.67  8.1930903E-01
   7132.00  8.8636345E-01
   7132.33  9.5286117E-01
   7132.67  1.0125724E+00
   7133.00  1.0583039E+00
   7133.33  1.0786781E+00
   7133.67  1.0717490E+00
   7134.00  1.0385540E+00
   7134.33  9.8272524E-01
   7134.67  9.1542582E-01
   7135.00  8.4408200E-01
   7135.33  7.7585009E-01
   7135.67  7.1424071E-01
   7136.00  6.6038604E-01
   7136.33  6.1495961E-01
   7136.67  5.7604427E-01
   7137.00  5.4274958E-01
   7137.33  5.1485747E-01
   7137.67  4.9123133E-01
   7138.00  4.7156847E-01
   7138.33  4.5601653E-01
   7138.67  4.4375232E-01
   7139.00  4.3440957E-01
   7139.33  4.2790687E-01
   7139.67  4.2367607E-01
   7140.00  4.2164347E-01
   7140.33  4.2209196E-01
   7140.67  4.2474153E-01
   7141.00  4.2953083E-01
   7141.33  4.3656143E-01
   7141.67  4.4536588E-01
   7142.00  4.5571497E-01
   7142.33  4.6746626E-01
   7142.67  4.8014409E-01
   7143.00  4.9346271E-01
   7143.33  5.0712005E-01
   7143.67  5.2073892E-01
   7144.00  5.3403678E-01
   7144.33  5.4663158E-01
   7144.67  5.5834116E-01
   7145.00  5.6898947E-01
   7145.33  5.7828784E-01
   7145.67  5.8632157E-01
   7146.00  5.9309000E-01
   7146.33  5.9849501E-01
   7146.67  6.0278561E-01
   7147.00  6.0606958E-01
   7147.33  6.0838403E-01
   7147.67  6.0999866E-01
   7148.00  6.1105772E-01
   7148.33  6.1166768E-01
   7148.67  6.1202621E-01
   7149.00  6.1225427E-01
   7149.33  6.1247553E-01
   7149.67  6.1279225E-01
   7150.00  6.1327098E-01
   7150.33  6.1398958E-01
   7150.67  6.1494320E-01
   7151.00  6.1612782E-01
   7151.33  6.1754029E-01
   7151.67  6.1910593E-01
   7152.00  6.2077027E-01
   7152.33  6.2246600E-01
   7152.67  6.2411797E-01
   7153.00  6.2566895E-01
   7153.33  6.2704264E-01
   7153.67  6.2821717E-01
   7154.00  6.2917082E-01
   7154.33  6.2986629E-01
   7154.67  6.3034013E-01
   7155.00  6.3060940E-01
   7155.33  6.3067911E-01
   7155.67  6.3060097E-01
   7156.00  6.3039789E-01
   7156.33  6.3007597E-01
   7156.67  6.2965583E-01
   7157.00  6.2913229E-01
   7157.33  6.2847015E-01
   7157.67  6.2765174E-01
   7158.00  6.2664029E-01
   7158.33  6.2535644E-01
   7158.67  6.2377901E-01
   7159.00  6.2186575E-01
   7159.33  6.1952497E-01
   7159.67  6.1676583E-01
   7160.00  6.1355918E-01
   7160.33  6.0981641E-01
   7160.67  6.0557475E-01
   7161.00  6.0082372E-01
   7161.33  5.9549620E-01
   7161.67  5.8966279E-01
   7162.00  5.8334120E-01
   7162.33  5.7650997E-01
   7162.67  5.6927700E-01
   7163.00  5.6169818E-01
   7163.33  5.5381367E-01
   7163.67  5.4573609E-01
   7164.00  5.3753350E-01
   7164.33  5.2927477E-01
   7164.67  5.2103533E-01
   7165.00  5.1287120E-01
   7165.33  5.0485891E-01
   7165.67  4.9703394E-01
   7166.00  4.8943423E-01
   7166.33  4.8212594E-01
   7166.67  4.7509882E-01
   7167.00  4.6836312E-01
   7167.33  4.6195743E-01
   7167.67  4.5583724E-01
   7168.00  4.4998849E-01
   7168.33  4.4442240E-01
   7168.67  4.3908593E-01
   7169.00  4.3396025E-01
   7169.33  4.2905144E-01
   7169.67  4.2432412E-01
   7170.00  4.1977556E-01
   7170.33  4.1543530E-01
   7170.67  4.1129932E-01
   7171.00  4.0739919E-01
   7171.33  4.0383941E-01
   7171.67  4.0070476E-01
   7172.00  3.9815189E-01
