    FDMNES
    energy     <xanes>
   7097.00  5.0902904E-03
   7097.33  5.2067755E-03
   7097.67  5.3283371E-03
   7098.00  5.4553025E-03
   7098.33  5.5888183E-03
   7098.67  5.7286209E-03
   7099.00  5.8751487E-03
   7099.33  6.0298785E-03
   7099.67  6.1925307E-03
   7100.00  6.3637067E-03
   7100.33  6.5453521E-03
   7100.67  6.7371856E-03
   7101.00  6.9400552E-03
   7101.33  7.1565932E-03
   7101.67  7.3865509E-03
   7102.00  7.6311622E-03
   7102.33  7.8941042E-03
   7102.67  8.1752357E-03
   7103.00  8.4764229E-03
   7103.33  8.8030045E-03
   7103.67  9.1551149E-03
   7104.00  9.5357129E-03
   7104.33  9.9529288E-03
   7104.67  1.0407563E-02
   7105.00  1.0904592E-02
   7105.33  1.1457174E-02
   7105.67  1.2067744E-02
   7106.00  1.2745333E-02
   7106.33  1.3513040E-02
   7106.67  1.4377561E-02
   7107.00  1.5357113E-02
   7107.33  1.6497090E-02
   7107.67  1.7816806E-02
   7108.00  1.9359096E-02
   7108.33  2.1229862E-02
   7108.67  2.3494472E-02
   7109.00  2.6281919E-02
   7109.33  2.9922088E-02
   7109.67  3.4721776E-02
   7110.00  4.1278380E-02
   7110.33  5.1270593E-02
   7110.67  6.6643364E-02
   7111.00  8.9314107E-02
   7111.33  1.1735069E-01
   7111.67  1.4822939E-01
   7112.00  1.8481785E-01
   7112.33  2.1926710E-01
   7112.67  2.5083649E-01
   7113.00  2.9653442E-01
   7113.33  3.5191121E-01
   7113.67  3.9833188E-01
   7114.00  4.4631194E-01
   7114.33  5.0301066E-01
   7114.67  5.2872589E-01
   7115.00  4.8983947E-01
   7115.33  4.1390746E-01
   7115.67  3.4815646E-01
   7116.00  3.0209061E-01
   7116.33  2.7473794E-01
   7116.67  2.5916901E-01
   7117.00  2.5123429E-01
   7117.33  2.4341334E-01
   7117.67  2.2756263E-01
   7118.00  2.0369709E-01
   7118.33  1.7979193E-01
   7118.67  1.6175970E-01
   7119.00  1.5040365E-01
   7119.33  1.4489683E-01
   7119.67  1.4208965E-01
   7120.00  1.4002400E-01
   7120.33  1.3795764E-01
   7120.67  1.3626959E-01
   7121.00  1.3519531E-01
   7121.33  1.3481950E-01
   7121.67  1.3531818E-01
   7122.00  1.3732972E-01
   7122.33  1.4199951E-01
   7122.67  1.4944613E-01
   7123.00  1.5962581E-01
   7123.33  1.7263788E-01
   7123.67  1.8782832E-01
   7124.00  2.0467167E-01
   7124.33  2.2230275E-01
   7124.67  2.3947707E-01
   7125.00  2.5533947E-01
   7125.33  2.6933311E-01
   7125.67  2.8229217E-01
   7126.00  2.9542533E-01
   7126.33  3.1071217E-01
   7126.67  3.2947657E-01
   7127.00  3.5261626E-01
   7127.33  3.8103479E-01
   7127.67  4.1340286E-01
   7128.00  4.4809877E-01
   7128.33  4.8229678E-01
   7128.67  5.1346976E-01
   7129.00  5.4060409E-01
   7129.33  5.6349166E-01
   7129.67  5.8371385E-01
   7130.00  6.0234710E-01
   7130.33  6.2057487E-01
   7130.67  6.3971259E-01
   7131.00  6.6078089E-01
   7131.33  6.8500566E-01
   7131.67  7.1219723E-01
   7132.00  7.4176634E-01
   7132.33  7.7227751E-01
   7132.67  8.0126548E-01
   7133.00  8.2631697E-01
   7133.33  8.4399616E-01
   7133.67  8.5351585E-01
   7134.00  8.5471989E-01
   7134.33  8.4788252E-01
   7134.67  8.3594878E-01
   7135.00  8.2083694E-01
   7135.33  8.0429765E-01
   7135.67  7.8776863E-01
   7136.00  7.7176431E-01
   7136.33  7.5630299E-01
   7136.67  7.4077424E-01
   7137.00  7.2450293E-01
   7137.33  7.0656464E-01
   7137.67  6.8679949E-01
   7138.00  6.6545198E-01
   7138.33  6.4339720E-01
   7138.67  6.2211002E-01
   7139.00  6.0278552E-01
   7139.33  5.8681715E-01
   7139.67  5.7430666E-01
   7140.00  5.6527616E-01
   7140.33  5.5987440E-01
   7140.67  5.5731574E-01
   7141.00  5.5726507E-01
   7141.33  5.5964489E-01
   7141.67  5.6388722E-01
   7142.00  5.6974737E-01
   7142.33  5.7706514E-01
   7142.67  5.8528766E-01
   7143.00  5.9400420E-01
   7143.33  6.0262076E-01
   7143.67  6.1047301E-01
   7144.00  6.1695939E-01
   7144.33  6.2120911E-01
   7144.67  6.2304501E-01
   7145.00  6.2231476E-01
   7145.33  6.1878249E-01
   7145.67  6.1305351E-01
   7146.00  6.0549027E-01
   7146.33  5.9639809E-01
   7146.67  5.8641939E-01
   7147.00  5.7592608E-01
   7147.33  5.6527428E-01
   7147.67  5.5478330E-01
   7148.00  5.4465440E-01
   7148.33  5.3512701E-01
   7148.67  5.2625143E-01
   7149.00  5.1809132E-01
   7149.33  5.1077784E-01
   7149.67  5.0422344E-01
   7150.00  4.9841778E-01
   7150.33  4.9342922E-01
   7150.67  4.8914086E-01
   7151.00  4.8553219E-01
   7151.33  4.8266842E-01
   7151.67  4.8045818E-01
   7152.00  4.7889863E-01
   7152.33  4.7807655E-01
   7152.67  4.7792838E-01
   7153.00  4.7847457E-01
   7153.33  4.7982505E-01
   7153.67  4.8189908E-01
   7154.00  4.8468822E-01
   7154.33  4.8824543E-01
   7154.67  4.9242877E-01
   7155.00  4.9717234E-01
   7155.33  5.0244075E-01
   7155.67  5.0806438E-01
   7156.00  5.1393510E-01
   7156.33  5.1993358E-01
   7156.67  5.2591042E-01
   7157.00  5.3175240E-01
   7157.33  5.3730361E-01
   7157.67  5.4248621E-01
   7158.00  5.4721953E-01
   7158.33  5.5136365E-01
   7158.67  5.5493227E-01
   7159.00  5.5789913E-01
   7159.33  5.6017776E-01
   7159.67  5.6185415E-01
   7160.00  5.6294892E-01
   7160.33  5.6342805E-01
   7160.67  5.6340180E-01
   7161.00  5.6291044E-01
   7161.33  5.6194938E-01
   7161.67  5.6061465E-01
   7162.00  5.5894043E-01
   7162.33  5.5692455E-01
   7162.67  5.5463837E-01
   7163.00  5.5210905E-01
   7163.33  5.4934013E-01
   7163.67  5.4638701E-01
   7164.00  5.4327320E-01
   7164.33  5.4000662E-01
   7164.67  5.3662507E-01
   7165.00  5.3314830E-01
   7165.33  5.2959455E-01
   7165.67  5.2599892E-01
   7166.00  5.2238215E-01
   7166.33  5.1876555E-01
   7166.67  5.1516770E-01
   7167.00  5.1160156E-01
   7167.33  5.0808219E-01
   7167.67  5.0460969E-01
   7168.00  5.0118634E-01
   7168.33  4.9781876E-01
   7168.67  4.9449949E-01
   7169.00  4.9122756E-01
   7169.33  4.8801097E-01
   7169.67  4.8485266E-01
   7170.00  4.8176484E-01
   7170.33  4.7877391E-01
   7170.67  4.7589496E-01
   7171.00  4.7316204E-01
   7171.33  4.7066085E-01
   7171.67  4.6846306E-01
   7172.00  4.6668544E-01
