    FDMNES
    energy     <xanes>
   7097.00  4.3303078E-03
   7097.33  4.4079549E-03
   7097.67  4.4881420E-03
   7098.00  4.5709943E-03
   7098.33  4.6570229E-03
   7098.67  4.7460471E-03
   7099.00  4.8382271E-03
   7099.33  4.9341863E-03
   7099.67  5.0337283E-03
   7100.00  5.1370630E-03
   7100.33  5.2449672E-03
   7100.67  5.3572323E-03
   7101.00  5.4741418E-03
   7101.33  5.5966907E-03
   7101.67  5.7246671E-03
   7102.00  5.8584704E-03
   7102.33  5.9994212E-03
   7102.67  6.1473291E-03
   7103.00  6.3027861E-03
   7103.33  6.4676316E-03
   7103.67  6.6417581E-03
   7104.00  6.8261045E-03
   7104.33  7.0234085E-03
   7104.67  7.2338035E-03
   7105.00  7.4589197E-03
   7105.33  7.7032239E-03
   7105.67  7.9675355E-03
   7106.00  8.2550462E-03
   7106.33  8.5740535E-03
   7106.67  8.9274798E-03
   7107.00  9.3226883E-03
   7107.33  9.7782227E-03
   7107.67  1.0304561E-02
   7108.00  1.0923113E-02
   7108.33  1.1688163E-02
   7108.67  1.2645630E-02
   7109.00  1.3883397E-02
   7109.33  1.5640938E-02
   7109.67  1.8217265E-02
   7110.00  2.2210041E-02
   7110.33  2.9353951E-02
   7110.67  4.1131047E-02
   7111.00  5.5445165E-02
   7111.33  6.0099725E-02
   7111.67  5.5617622E-02
   7112.00  4.9761988E-02
   7112.33  4.5837821E-02
   7112.67  4.2630164E-02
   7113.00  3.9453630E-02
   7113.33  3.7432023E-02
   7113.67  3.5738068E-02
   7114.00  3.3616124E-02
   7114.33  3.1912519E-02
   7114.67  3.1365535E-02
   7115.00  3.2026824E-02
   7115.33  3.3979329E-02
   7115.67  3.7129592E-02
   7116.00  4.1572414E-02
   7116.33  4.7513373E-02
   7116.67  5.4458103E-02
   7117.00  6.1361609E-02
   7117.33  6.6122795E-02
   7117.67  6.9119440E-02
   7118.00  7.2495615E-02
   7118.33  7.8593784E-02
   7118.67  8.8119507E-02
   7119.00  1.0162129E-01
   7119.33  1.2008801E-01
   7119.67  1.4315640E-01
   7120.00  1.7068452E-01
   7120.33  2.0258446E-01
   7120.67  2.3768268E-01
   7121.00  2.7557508E-01
   7121.33  3.1628740E-01
   7121.67  3.5879233E-01
   7122.00  4.0112248E-01
   7122.33  4.3840187E-01
   7122.67  4.6704519E-01
   7123.00  4.8585392E-01
   7123.33  4.9671206E-01
   7123.67  5.0727250E-01
   7124.00  5.2224822E-01
   7124.33  5.4363865E-01
   7124.67  5.6980294E-01
   7125.00  6.0029913E-01
   7125.33  6.3559792E-01
   7125.67  6.7491802E-01
   7126.00  7.1735703E-01
   7126.33  7.5826416E-01
   7126.67  7.9124691E-01
   7127.00  8.1329611E-01
   7127.33  8.2438284E-01
   7127.67  8.2934594E-01
   7128.00  8.2927726E-01
   7128.33  8.2024900E-01
   7128.67  8.0024230E-01
   7129.00  7.7008516E-01
   7129.33  7.3413217E-01
   7129.67  7.0003384E-01
   7130.00  6.7306548E-01
   7130.33  6.5779830E-01
   7130.67  6.5273681E-01
   7131.00  6.5534598E-01
   7131.33  6.6100611E-01
   7131.67  6.6461295E-01
   7132.00  6.6471406E-01
   7132.33  6.6180430E-01
   7132.67  6.5612843E-01
   7133.00  6.4546056E-01
   7133.33  6.2572807E-01
   7133.67  5.9819579E-01
   7134.00  5.6661249E-01
   7134.33  5.3664722E-01
   7134.67  5.1186352E-01
   7135.00  4.9357093E-01
   7135.33  4.8255389E-01
   7135.67  4.7705541E-01
   7136.00  4.7596474E-01
   7136.33  4.7851784E-01
   7136.67  4.8370609E-01
   7137.00  4.9161923E-01
   7137.33  5.0332778E-01
   7137.67  5.1922796E-01
   7138.00  5.3980246E-01
   7138.33  5.6555685E-01
   7138.67  5.9483510E-01
   7139.00  6.2579856E-01
   7139.33  6.5544382E-01
   7139.67  6.8114171E-01
   7140.00  7.0116845E-01
   7140.33  7.1334470E-01
   7140.67  7.1738288E-01
   7141.00  7.1235547E-01
   7141.33  6.9703348E-01
   7141.67  6.7432204E-01
   7142.00  6.4687088E-01
   7142.33  6.1769037E-01
   7142.67  5.8934509E-01
   7143.00  5.6298362E-01
   7143.33  5.3942857E-01
   7143.67  5.1833873E-01
   7144.00  4.9949331E-01
   7144.33  4.8282280E-01
   7144.67  4.6781070E-01
   7145.00  4.5429903E-01
   7145.33  4.4240109E-01
   7145.67  4.3198977E-01
   7146.00  4.2317738E-01
   7146.33  4.1633467E-01
   7146.67  4.1133124E-01
   7147.00  4.0811201E-01
   7147.33  4.0656872E-01
   7147.67  4.0595262E-01
   7148.00  4.0563079E-01
   7148.33  4.0480946E-01
   7148.67  4.0300642E-01
   7149.00  4.0001556E-01
   7149.33  3.9572704E-01
   7149.67  3.9051208E-01
   7150.00  3.8463434E-01
   7150.33  3.7834927E-01
   7150.67  3.7195750E-01
   7151.00  3.6563978E-01
   7151.33  3.5959747E-01
   7151.67  3.5392606E-01
   7152.00  3.4869424E-01
   7152.33  3.4400117E-01
   7152.67  3.3979199E-01
   7153.00  3.3604881E-01
   7153.33  3.3278650E-01
   7153.67  3.2989900E-01
   7154.00  3.2733066E-01
   7154.33  3.2503745E-01
   7154.67  3.2290881E-01
   7155.00  3.2087781E-01
   7155.33  3.1888297E-01
   7155.67  3.1688141E-01
   7156.00  3.1487087E-01
   7156.33  3.1289531E-01
   7156.67  3.1103468E-01
   7157.00  3.0938878E-01
   7157.33  3.0813634E-01
   7157.67  3.0737336E-01
   7158.00  3.0721358E-01
   7158.33  3.0786256E-01
   7158.67  3.0931798E-01
   7159.00  3.1162609E-01
   7159.33  3.1491302E-01
   7159.67  3.1904857E-01
   7160.00  3.2398685E-01
   7160.33  3.2974572E-01
   7160.67  3.3615709E-01
   7161.00  3.4316449E-01
   7161.33  3.5078927E-01
   7161.67  3.5893753E-01
   7162.00  3.6760262E-01
   7162.33  3.7684787E-01
   7162.67  3.8659498E-01
   7163.00  3.9681209E-01
   7163.33  4.0748612E-01
   7163.67  4.1847041E-01
   7164.00  4.2965809E-01
   7164.33  4.4090724E-01
   7164.67  4.5205243E-01
   7165.00  4.6297157E-01
   7165.33  4.7350449E-01
   7165.67  4.8360728E-01
   7166.00  4.9323188E-01
   7166.33  5.0228926E-01
   7166.67  5.1084271E-01
   7167.00  5.1890702E-01
   7167.33  5.2645237E-01
   7167.67  5.3356873E-01
   7168.00  5.4028274E-01
   7168.33  5.4657502E-01
   7168.67  5.5251362E-01
   7169.00  5.5811046E-01
   7169.33  5.6333007E-01
   7169.67  5.6821186E-01
   7170.00  5.7274596E-01
   7170.33  5.7686758E-01
   7170.67  5.8059693E-01
   7171.00  5.8390767E-01
   7171.33  5.8670992E-01
   7171.67  5.8902714E-01
   7172.00  5.9084055E-01
