    FDMNES
    energy     <xanes>
   7097.00  5.1026892E-03
   7097.33  5.2326774E-03
   7097.67  5.3691406E-03
   7098.00  5.5125534E-03
   7098.33  5.6644758E-03
   7098.67  5.8246507E-03
   7099.00  5.9937359E-03
   7099.33  6.1738114E-03
   7099.67  6.3646273E-03
   7100.00  6.5671203E-03
   7100.33  6.7841387E-03
   7100.67  7.0154803E-03
   7101.00  7.2625208E-03
   7101.33  7.5292858E-03
   7101.67  7.8157082E-03
   7102.00  8.1238845E-03
   7102.33  8.4597210E-03
   7102.67  8.8234769E-03
   7103.00  9.2184913E-03
   7103.33  9.6538316E-03
   7103.67  1.0130516E-02
   7104.00  1.0654156E-02
   7104.33  1.1239476E-02
   7104.67  1.1889283E-02
   7105.00  1.2613672E-02
   7105.33  1.3438321E-02
   7105.67  1.4370487E-02
   7106.00  1.5430011E-02
   7106.33  1.6666102E-02
   7106.67  1.8098198E-02
   7107.00  1.9770273E-02
   7107.33  2.1789912E-02
   7107.67  2.4215255E-02
   7108.00  2.7162461E-02
   7108.33  3.0918227E-02
   7108.67  3.5697007E-02
   7109.00  4.1904325E-02
   7109.33  5.0600056E-02
   7109.67  6.2934571E-02
   7110.00  8.1152012E-02
   7110.33  1.1162986E-01
   7110.67  1.6084941E-01
   7111.00  2.2984648E-01
   7111.33  3.0088761E-01
   7111.67  3.6319230E-01
   7112.00  4.2662985E-01
   7112.33  5.1602160E-01
   7112.67  6.2247868E-01
   7113.00  7.0269768E-01
   7113.33  6.8525485E-01
   7113.67  5.7322398E-01
   7114.00  4.2574853E-01
   7114.33  3.0855479E-01
   7114.67  2.2733813E-01
   7115.00  1.7375194E-01
   7115.33  1.4012911E-01
   7115.67  1.1791608E-01
   7116.00  1.0433416E-01
   7116.33  9.8589847E-02
   7116.67  9.7141738E-02
   7117.00  9.6705064E-02
   7117.33  9.7342524E-02
   7117.67  9.8734495E-02
   7118.00  9.9425950E-02
   7118.33  9.8600972E-02
   7118.67  9.5813532E-02
   7119.00  9.1778267E-02
   7119.33  8.8401899E-02
   7119.67  8.6083107E-02
   7120.00  8.4234345E-02
   7120.33  8.2594841E-02
   7120.67  8.1525893E-02
   7121.00  8.1247077E-02
   7121.33  8.1868243E-02
   7121.67  8.3168800E-02
   7122.00  8.5089373E-02
   7122.33  8.8084332E-02
   7122.67  9.2915655E-02
   7123.00  1.0028439E-01
   7123.33  1.1024828E-01
   7123.67  1.2083831E-01
   7124.00  1.3048706E-01
   7124.33  1.3851728E-01
   7124.67  1.4530347E-01
   7125.00  1.5099917E-01
   7125.33  1.5573814E-01
   7125.67  1.5947094E-01
   7126.00  1.6174053E-01
   7126.33  1.6271323E-01
   7126.67  1.6435836E-01
   7127.00  1.6843999E-01
   7127.33  1.7660066E-01
   7127.67  1.8876750E-01
   7128.00  2.0505421E-01
   7128.33  2.2643448E-01
   7128.67  2.5322961E-01
   7129.00  2.8628695E-01
   7129.33  3.2674297E-01
   7129.67  3.7289580E-01
   7130.00  4.2357977E-01
   7130.33  4.7794006E-01
   7130.67  5.3219949E-01
   7131.00  5.8092375E-01
   7131.33  6.1930003E-01
   7131.67  6.5244897E-01
   7132.00  6.8708529E-01
   7132.33  7.2952858E-01
   7132.67  7.7867258E-01
   7133.00  8.3019360E-01
   7133.33  8.7748164E-01
   7133.67  9.1724094E-01
   7134.00  9.4879543E-01
   7134.33  9.7245360E-01
   7134.67  9.9083084E-01
   7135.00  1.0045173E+00
   7135.33  1.0114089E+00
   7135.67  1.0087221E+00
   7136.00  9.9232028E-01
   7136.33  9.5627751E-01
   7136.67  9.0457684E-01
   7137.00  8.4504158E-01
   7137.33  7.8966755E-01
   7137.67  7.4442047E-01
   7138.00  7.0912519E-01
   7138.33  6.8169077E-01
   7138.67  6.5923073E-01
   7139.00  6.4139438E-01
   7139.33  6.2879446E-01
   7139.67  6.2048603E-01
   7140.00  6.1571631E-01
   7140.33  6.1356072E-01
   7140.67  6.1239796E-01
   7141.00  6.1119148E-01
   7141.33  6.0895817E-01
   7141.67  6.0545608E-01
   7142.00  6.0080659E-01
   7142.33  5.9545416E-01
   7142.67  5.9021127E-01
   7143.00  5.8572034E-01
   7143.33  5.8277143E-01
   7143.67  5.8157100E-01
   7144.00  5.8219124E-01
   7144.33  5.8458404E-01
   7144.67  5.8801585E-01
   7145.00  5.9187436E-01
   7145.33  5.9536426E-01
   7145.67  5.9790749E-01
   7146.00  5.9920033E-01
   7146.33  5.9905637E-01
   7146.67  5.9791851E-01
   7147.00  5.9618274E-01
   7147.33  5.9433214E-01
   7147.67  5.9278288E-01
   7148.00  5.9174509E-01
   7148.33  5.9136607E-01
   7148.67  5.9148931E-01
   7149.00  5.9195273E-01
   7149.33  5.9253995E-01
   7149.67  5.9303087E-01
   7150.00  5.9330111E-01
   7150.33  5.9322402E-01
   7150.67  5.9279984E-01
   7151.00  5.9201898E-01
   7151.33  5.9082394E-01
   7151.67  5.8923530E-01
   7152.00  5.8723047E-01
   7152.33  5.8475287E-01
   7152.67  5.8189384E-01
   7153.00  5.7872952E-01
   7153.33  5.7537491E-01
   7153.67  5.7201496E-01
   7154.00  5.6879082E-01
   7154.33  5.6589210E-01
   7154.67  5.6341582E-01
   7155.00  5.6145355E-01
   7155.33  5.6015559E-01
   7155.67  5.5949317E-01
   7156.00  5.5948317E-01
   7156.33  5.6020442E-01
   7156.67  5.6154876E-01
   7157.00  5.6346854E-01
   7157.33  5.6592692E-01
   7157.67  5.6870316E-01
   7158.00  5.7158935E-01
   7158.33  5.7421460E-01
   7158.67  5.7615904E-01
   7159.00  5.7697428E-01
   7159.33  5.7592056E-01
   7159.67  5.7276874E-01
   7160.00  5.6730170E-01
   7160.33  5.5921776E-01
   7160.67  5.4905816E-01
   7161.00  5.3720247E-01
   7161.33  5.2404327E-01
   7161.67  5.1026572E-01
   7162.00  4.9628132E-01
   7162.33  4.8249938E-01
   7162.67  4.6918082E-01
   7163.00  4.5650041E-01
   7163.33  4.4470662E-01
   7163.67  4.3380562E-01
   7164.00  4.2385663E-01
   7164.33  4.1502557E-01
   7164.67  4.0720784E-01
   7165.00  4.0040606E-01
   7165.33  3.9473665E-01
   7165.67  3.9005793E-01
   7166.00  3.8634648E-01
   7166.33  3.8367704E-01
   7166.67  3.8188501E-01
   7167.00  3.8092337E-01
   7167.33  3.8082587E-01
   7167.67  3.8142312E-01
   7168.00  3.8264141E-01
   7168.33  3.8444613E-01
   7168.67  3.8665757E-01
   7169.00  3.8916790E-01
   7169.33  3.9186692E-01
   7169.67  3.9460556E-01
   7170.00  3.9728404E-01
   7170.33  3.9978639E-01
   7170.67  4.0206256E-01
   7171.00  4.0407482E-01
   7171.33  4.0576214E-01
   7171.67  4.0713981E-01
   7172.00  4.0818212E-01
