    FDMNES
    energy     <xanes>
   7097.00  4.4105028E-03
   7097.33  4.4936707E-03
   7097.67  4.5797096E-03
   7098.00  4.6687707E-03
   7098.33  4.7614472E-03
   7098.67  4.8575476E-03
   7099.00  4.9572680E-03
   7099.33  5.0613436E-03
   7099.67  5.1695679E-03
   7100.00  5.2822032E-03
   7100.33  5.4001816E-03
   7100.67  5.5232881E-03
   7101.00  5.6518845E-03
   7101.33  5.7871889E-03
   7101.67  5.9289928E-03
   7102.00  6.0778162E-03
   7102.33  6.2353134E-03
   7102.67  6.4013184E-03
   7103.00  6.5766184E-03
   7103.33  6.7635740E-03
   7103.67  6.9621493E-03
   7104.00  7.1736151E-03
   7104.33  7.4015666E-03
   7104.67  7.6463171E-03
   7105.00  7.9100941E-03
   7105.33  8.1988670E-03
   7105.67  8.5138885E-03
   7106.00  8.8595036E-03
   7106.33  9.2468427E-03
   7106.67  9.6798849E-03
   7107.00  1.0168396E-02
   7107.33  1.0736706E-02
   7107.67  1.1397915E-02
   7108.00  1.2178741E-02
   7108.33  1.3145861E-02
   7108.67  1.4350835E-02
   7109.00  1.5891387E-02
   7109.33  1.8024708E-02
   7109.67  2.1037221E-02
   7110.00  2.5488032E-02
   7110.33  3.3007770E-02
   7110.67  4.5718575E-02
   7111.00  6.6127240E-02
   7111.33  9.2235519E-02
   7111.67  1.0724480E-01
   7112.00  1.0170481E-01
   7112.33  8.7205662E-02
   7112.67  7.5851711E-02
   7113.00  6.5653068E-02
   7113.33  5.6668810E-02
   7113.67  4.9002095E-02
   7114.00  4.3737197E-02
   7114.33  4.0890588E-02
   7114.67  3.9025346E-02
   7115.00  3.7852256E-02
   7115.33  3.7366072E-02
   7115.67  3.7438099E-02
   7116.00  3.8112271E-02
   7116.33  3.9523904E-02
   7116.67  4.1613617E-02
   7117.00  4.4405044E-02
   7117.33  4.8054402E-02
   7117.67  5.2567132E-02
   7118.00  5.8053915E-02
   7118.33  6.4791445E-02
   7118.67  7.2790245E-02
   7119.00  8.2246551E-02
   7119.33  9.3750784E-02
   7119.67  1.0752092E-01
   7120.00  1.2396303E-01
   7120.33  1.4397878E-01
   7120.67  1.6772533E-01
   7121.00  1.9571583E-01
   7121.33  2.2909103E-01
   7121.67  2.6742600E-01
   7122.00  3.1021214E-01
   7122.33  3.5622886E-01
   7122.67  4.0338535E-01
   7123.00  4.5219841E-01
   7123.33  5.0862651E-01
   7123.67  5.7846026E-01
   7124.00  6.6053635E-01
   7124.33  7.4128256E-01
   7124.67  8.0716895E-01
   7125.00  8.5346478E-01
   7125.33  8.7883711E-01
   7125.67  8.8984214E-01
   7126.00  8.9058866E-01
   7126.33  8.8425805E-01
   7126.67  8.7417405E-01
   7127.00  8.6125135E-01
   7127.33  8.4490670E-01
   7127.67  8.2497736E-01
   7128.00  8.0196328E-01
   7128.33  7.7873795E-01
   7128.67  7.6046880E-01
   7129.00  7.5162135E-01
   7129.33  7.5611598E-01
   7129.67  7.7059785E-01
   7130.00  7.9059543E-01
   7130.33  8.0925598E-01
   7130.67  8.2128336E-01
   7131.00  8.2488201E-01
   7131.33  8.1998255E-01
   7131.67  8.0965859E-01
   7132.00  7.9561213E-01
   7132.33  7.7897973E-01
   7132.67  7.6092494E-01
   7133.00  7.4187048E-01
   7133.33  7.2193948E-01
   7133.67  7.0133181E-01
   7134.00  6.8026370E-01
   7134.33  6.5931544E-01
   7134.67  6.3920498E-01
   7135.00  6.2041632E-01
   7135.33  6.0328638E-01
   7135.67  5.8742558E-01
   7136.00  5.7258602E-01
   7136.33  5.5865076E-01
   7136.67  5.4540434E-01
   7137.00  5.3281306E-01
   7137.33  5.2096887E-01
   7137.67  5.0983028E-01
   7138.00  4.9944859E-01
   7138.33  4.8999587E-01
   7138.67  4.8144294E-01
   7139.00  4.7385483E-01
   7139.33  4.6743436E-01
   7139.67  4.6212038E-01
   7140.00  4.5796994E-01
   7140.33  4.5517004E-01
   7140.67  4.5354162E-01
   7141.00  4.5301736E-01
   7141.33  4.5360685E-01
   7141.67  4.5501762E-01
   7142.00  4.5705755E-01
   7142.33  4.5951171E-01
   7142.67  4.6206216E-01
   7143.00  4.6448972E-01
   7143.33  4.6653261E-01
   7143.67  4.6806294E-01
   7144.00  4.6897284E-01
   7144.33  4.6908701E-01
   7144.67  4.6844105E-01
   7145.00  4.6701141E-01
   7145.33  4.6469291E-01
   7145.67  4.6159840E-01
   7146.00  4.5775555E-01
   7146.33  4.5312728E-01
   7146.67  4.4787007E-01
   7147.00  4.4205769E-01
   7147.33  4.3573503E-01
   7147.67  4.2907530E-01
   7148.00  4.2218730E-01
   7148.33  4.1519130E-01
   7148.67  4.0823354E-01
   7149.00  4.0142722E-01
   7149.33  3.9493119E-01
   7149.67  3.8882287E-01
   7150.00  3.8318531E-01
   7150.33  3.7816358E-01
   7150.67  3.7373880E-01
   7151.00  3.6993376E-01
   7151.33  3.6683346E-01
   7151.67  3.6434458E-01
   7152.00  3.6243728E-01
   7152.33  3.6112743E-01
   7152.67  3.6028991E-01
   7153.00  3.5987317E-01
   7153.33  3.5986160E-01
   7153.67  3.6015246E-01
   7154.00  3.6070351E-01
   7154.33  3.6149686E-01
   7154.67  3.6246429E-01
   7155.00  3.6357262E-01
   7155.33  3.6479191E-01
   7155.67  3.6606553E-01
   7156.00  3.6736181E-01
   7156.33  3.6864788E-01
   7156.67  3.6989895E-01
   7157.00  3.7110045E-01
   7157.33  3.7224050E-01
   7157.67  3.7333521E-01
   7158.00  3.7440378E-01
   7158.33  3.7547950E-01
   7158.67  3.7659941E-01
   7159.00  3.7779583E-01
   7159.33  3.7911693E-01
   7159.67  3.8057820E-01
   7160.00  3.8219973E-01
   7160.33  3.8401756E-01
   7160.67  3.8601683E-01
   7161.00  3.8820061E-01
   7161.33  3.9059370E-01
   7161.67  3.9317226E-01
   7162.00  3.9593419E-01
   7162.33  3.9889858E-01
   7162.67  4.0203889E-01
   7163.00  4.0535184E-01
   7163.33  4.0885582E-01
   7163.67  4.1252406E-01
   7164.00  4.1634846E-01
   7164.33  4.2033522E-01
   7164.67  4.2445309E-01
   7165.00  4.2869032E-01
   7165.33  4.3304529E-01
   7165.67  4.3748855E-01
   7166.00  4.4200444E-01
   7166.33  4.4658089E-01
   7166.67  4.5119229E-01
   7167.00  4.5582221E-01
   7167.33  4.6045228E-01
   7167.67  4.6506544E-01
   7168.00  4.6964795E-01
   7168.33  4.7417939E-01
   7168.67  4.7865250E-01
   7169.00  4.8305774E-01
   7169.33  4.8737517E-01
   7169.67  4.9160331E-01
   7170.00  4.9573072E-01
   7170.33  4.9972559E-01
   7170.67  5.0357686E-01
   7171.00  5.0725098E-01
   7171.33  5.1065266E-01
   7171.67  5.1368125E-01
   7172.00  5.1615910E-01
