    FDMNES
    energy     <xanes>
   7097.00  4.2001688E-03
   7097.33  4.2782078E-03
   7097.67  4.3590718E-03
   7098.00  4.4429265E-03
   7098.33  4.5303839E-03
   7098.67  4.6212790E-03
   7099.00  4.7158342E-03
   7099.33  4.8148308E-03
   7099.67  4.9180982E-03
   7100.00  5.0259451E-03
   7100.33  5.1393990E-03
   7100.67  5.2582962E-03
   7101.00  5.3830822E-03
   7101.33  5.5151581E-03
   7101.67  5.6543966E-03
   7102.00  5.8014697E-03
   7102.33  5.9583779E-03
   7102.67  6.1250964E-03
   7103.00  6.3026973E-03
   7103.33  6.4942032E-03
   7103.67  6.6998497E-03
   7104.00  6.9214667E-03
   7104.33  7.1639611E-03
   7104.67  7.4282248E-03
   7105.00  7.7176561E-03
   7105.33  8.0409863E-03
   7105.67  8.4008489E-03
   7106.00  8.8042779E-03
   7106.33  9.2687871E-03
   7106.67  9.8021303E-03
   7107.00  1.0421129E-02
   7107.33  1.1167105E-02
   7107.67  1.2065541E-02
   7108.00  1.3165716E-02
   7108.33  1.4590710E-02
   7108.67  1.6445261E-02
   7109.00  1.8925526E-02
   7109.33  2.2556951E-02
   7109.67  2.7972727E-02
   7110.00  3.6419944E-02
   7110.33  5.1510320E-02
   7110.67  7.6933869E-02
   7111.00  1.1269242E-01
   7111.33  1.4769902E-01
   7111.67  1.6198734E-01
   7112.00  1.3877942E-01
   7112.33  1.0080559E-01
   7112.67  7.3039002E-02
   7113.00  5.5961107E-02
   7113.33  4.6952654E-02
   7113.67  4.2909394E-02
   7114.00  4.2496152E-02
   7114.33  4.1819655E-02
   7114.67  3.7684306E-02
   7115.00  3.2941517E-02
   7115.33  3.0154635E-02
   7115.67  2.8761287E-02
   7116.00  2.8277538E-02
   7116.33  2.8448071E-02
   7116.67  2.9020413E-02
   7117.00  2.9930901E-02
   7117.33  3.1280681E-02
   7117.67  3.3141761E-02
   7118.00  3.5606121E-02
   7118.33  3.8828847E-02
   7118.67  4.2802746E-02
   7119.00  4.7714750E-02
   7119.33  5.4177261E-02
   7119.67  6.2418700E-02
   7120.00  7.2289262E-02
   7120.33  8.2589996E-02
   7120.67  9.1938683E-02
   7121.00  1.0116488E-01
   7121.33  1.1347700E-01
   7121.67  1.3104625E-01
   7122.00  1.5526512E-01
   7122.33  1.8733727E-01
   7122.67  2.2383325E-01
   7123.00  2.5982732E-01
   7123.33  2.8909668E-01
   7123.67  3.1215097E-01
   7124.00  3.3232428E-01
   7124.33  3.5129951E-01
   7124.67  3.6534696E-01
   7125.00  3.7227681E-01
   7125.33  3.7934728E-01
   7125.67  3.9676792E-01
   7126.00  4.2655099E-01
   7126.33  4.6423439E-01
   7126.67  5.0668186E-01
   7127.00  5.5958331E-01
   7127.33  6.3228241E-01
   7127.67  7.2223353E-01
   7128.00  8.2164250E-01
   7128.33  9.1153031E-01
   7128.67  9.7057425E-01
   7129.00  9.8671558E-01
   7129.33  9.6010679E-01
   7129.67  9.1376471E-01
   7130.00  8.6247277E-01
   7130.33  8.1674523E-01
   7130.67  7.7957754E-01
   7131.00  7.5220384E-01
   7131.33  7.3773059E-01
   7131.67  7.3555936E-01
   7132.00  7.4377351E-01
   7132.33  7.5829602E-01
   7132.67  7.7409443E-01
   7133.00  7.8923185E-01
   7133.33  8.0348751E-01
   7133.67  8.1799704E-01
   7134.00  8.3275408E-01
   7134.33  8.4582638E-01
   7134.67  8.5533817E-01
   7135.00  8.5988120E-01
   7135.33  8.5694601E-01
   7135.67  8.4604574E-01
   7136.00  8.2735810E-01
   7136.33  8.0252258E-01
   7136.67  7.7604732E-01
   7137.00  7.5126211E-01
   7137.33  7.3136340E-01
   7137.67  7.1647707E-01
   7138.00  7.0572774E-01
   7138.33  6.9747254E-01
   7138.67  6.8940469E-01
   7139.00  6.8012068E-01
   7139.33  6.6828176E-01
   7139.67  6.5380158E-01
   7140.00  6.3690010E-01
   7140.33  6.1810934E-01
   7140.67  5.9863155E-01
   7141.00  5.7928821E-01
   7141.33  5.6092302E-01
   7141.67  5.4386520E-01
   7142.00  5.2828640E-01
   7142.33  5.1442933E-01
   7142.67  5.0208503E-01
   7143.00  4.9122790E-01
   7143.33  4.8201176E-01
   7143.67  4.7422435E-01
   7144.00  4.6782873E-01
   7144.33  4.6291011E-01
   7144.67  4.5916746E-01
   7145.00  4.5643437E-01
   7145.33  4.5457903E-01
   7145.67  4.5327577E-01
   7146.00  4.5235406E-01
   7146.33  4.5167598E-01
   7146.67  4.5107483E-01
   7147.00  4.5044552E-01
   7147.33  4.4966254E-01
   7147.67  4.4865273E-01
   7148.00  4.4735698E-01
   7148.33  4.4567709E-01
   7148.67  4.4360815E-01
   7149.00  4.4111642E-01
   7149.33  4.3809341E-01
   7149.67  4.3453099E-01
   7150.00  4.3037608E-01
   7150.33  4.2548642E-01
   7150.67  4.1988312E-01
   7151.00  4.1352279E-01
   7151.33  4.0627394E-01
   7151.67  3.9823141E-01
   7152.00  3.8942775E-01
   7152.33  3.7987426E-01
   7152.67  3.6982311E-01
   7153.00  3.5948290E-01
   7153.33  3.4916907E-01
   7153.67  3.3924497E-01
   7154.00  3.3003322E-01
   7154.33  3.2199136E-01
   7154.67  3.1520791E-01
   7155.00  3.0975303E-01
   7155.33  3.0572013E-01
   7155.67  3.0274721E-01
   7156.00  3.0057639E-01
   7156.33  2.9891254E-01
   7156.67  2.9734651E-01
   7157.00  2.9561374E-01
   7157.33  2.9343358E-01
   7157.67  2.9072367E-01
   7158.00  2.8744836E-01
   7158.33  2.8357901E-01
   7158.67  2.7929471E-01
   7159.00  2.7474721E-01
   7159.33  2.7016153E-01
   7159.67  2.6581090E-01
   7160.00  2.6194261E-01
   7160.33  2.5894396E-01
   7160.67  2.5699494E-01
   7161.00  2.5631136E-01
   7161.33  2.5730104E-01
   7161.67  2.5996312E-01
   7162.00  2.6442373E-01
   7162.33  2.7103033E-01
   7162.67  2.7960426E-01
   7163.00  2.9014766E-01
   7163.33  3.0283319E-01
   7163.67  3.1727400E-01
   7164.00  3.3326997E-01
   7164.33  3.5065954E-01
   7164.67  3.6888969E-01
   7165.00  3.8756336E-01
   7165.33  4.0616770E-01
   7165.67  4.2418966E-01
   7166.00  4.4119753E-01
   7166.33  4.5656086E-01
   7166.67  4.7011581E-01
   7167.00  4.8167851E-01
   7167.33  4.9094384E-01
   7167.67  4.9830188E-01
   7168.00  5.0400066E-01
   7168.33  5.0828445E-01
   7168.67  5.1177012E-01
   7169.00  5.1484553E-01
   7169.33  5.1789821E-01
   7169.67  5.2121307E-01
   7170.00  5.2492859E-01
   7170.33  5.2913754E-01
   7170.67  5.3370298E-01
   7171.00  5.3847391E-01
   7171.33  5.4318752E-01
   7171.67  5.4750474E-01
   7172.00  5.5107481E-01
