    FDMNES
    energy     <xanes>
   7097.00  4.4991136E-03
   7097.33  4.6015222E-03
   7097.67  4.7086908E-03
   7098.00  4.8209592E-03
   7098.33  4.9394599E-03
   7098.67  5.0639935E-03
   7099.00  5.1950318E-03
   7099.33  5.3340809E-03
   7099.67  5.4809485E-03
   7100.00  5.6363085E-03
   7100.33  5.8022230E-03
   7100.67  5.9785392E-03
   7101.00  6.1662532E-03
   7101.33  6.3682881E-03
   7101.67  6.5846012E-03
   7102.00  6.8167267E-03
   7102.33  7.0689837E-03
   7102.67  7.3415982E-03
   7103.00  7.6370520E-03
   7103.33  7.9620601E-03
   7103.67  8.3174842E-03
   7104.00  8.7075904E-03
   7104.33  9.1435058E-03
   7104.67  9.6276326E-03
   7105.00  1.0167891E-02
   7105.33  1.0784293E-02
   7105.67  1.1483226E-02
   7106.00  1.2280956E-02
   7106.33  1.3217629E-02
   7106.67  1.4311132E-02
   7107.00  1.5599830E-02
   7107.33  1.7177575E-02
   7107.67  1.9101558E-02
   7108.00  2.1482396E-02
   7108.33  2.4595909E-02
   7108.67  2.8674370E-02
   7109.00  3.4154086E-02
   7109.33  4.2205843E-02
   7109.67  5.4244113E-02
   7110.00  7.3065646E-02
   7110.33  1.0673386E-01
   7110.67  1.6262507E-01
   7111.00  2.3541346E-01
   7111.33  2.8472214E-01
   7111.67  2.9576194E-01
   7112.00  2.7891369E-01
   7112.33  2.6730708E-01
   7112.67  2.8013322E-01
   7113.00  3.0207871E-01
   7113.33  2.9104734E-01
   7113.67  2.4328156E-01
   7114.00  1.9138850E-01
   7114.33  1.6211210E-01
   7114.67  1.5055892E-01
   7115.00  1.4400243E-01
   7115.33  1.2892147E-01
   7115.67  1.0982527E-01
   7116.00  9.1712012E-02
   7116.33  7.8641926E-02
   7116.67  7.0722022E-02
   7117.00  6.6941863E-02
   7117.33  6.6609020E-02
   7117.67  6.8826056E-02
   7118.00  7.3433437E-02
   7118.33  8.0447122E-02
   7118.67  8.9246454E-02
   7119.00  9.9662323E-02
   7119.33  1.1076230E-01
   7119.67  1.2008254E-01
   7120.00  1.2673436E-01
   7120.33  1.3257010E-01
   7120.67  1.4006513E-01
   7121.00  1.4926726E-01
   7121.33  1.5833559E-01
   7121.67  1.6638438E-01
   7122.00  1.7460089E-01
   7122.33  1.8554203E-01
   7122.67  2.0045671E-01
   7123.00  2.1970273E-01
   7123.33  2.4279401E-01
   7123.67  2.6701008E-01
   7124.00  2.9027423E-01
   7124.33  3.1122494E-01
   7124.67  3.2960317E-01
   7125.00  3.4439969E-01
   7125.33  3.5421505E-01
   7125.67  3.6032986E-01
   7126.00  3.6415675E-01
   7126.33  3.6665955E-01
   7126.67  3.6735200E-01
   7127.00  3.6483019E-01
   7127.33  3.5855746E-01
   7127.67  3.5141224E-01
   7128.00  3.4619539E-01
   7128.33  3.4557704E-01
   7128.67  3.4928686E-01
   7129.00  3.5595783E-01
   7129.33  3.6276089E-01
   7129.67  3.6696844E-01
   7130.00  3.6754481E-01
   7130.33  3.6457112E-01
   7130.67  3.5981292E-01
   7131.00  3.5450757E-01
   7131.33  3.4996014E-01
   7131.67  3.4697130E-01
   7132.00  3.4594086E-01
   7132.33  3.4712307E-01
   7132.67  3.5000483E-01
   7133.00  3.5447496E-01
   7133.33  3.6113401E-01
   7133.67  3.7056056E-01
   7134.00  3.8337039E-01
   7134.33  3.9969618E-01
   7134.67  4.1737238E-01
   7135.00  4.3431947E-01
   7135.33  4.4897229E-01
   7135.67  4.6201969E-01
   7136.00  4.7433637E-01
   7136.33  4.8641282E-01
   7136.67  4.9806101E-01
   7137.00  5.0879967E-01
   7137.33  5.1801561E-01
   7137.67  5.2581696E-01
   7138.00  5.3244363E-01
   7138.33  5.3828505E-01
   7138.67  5.4400157E-01
   7139.00  5.5009864E-01
   7139.33  5.5719485E-01
   7139.67  5.6547325E-01
   7140.00  5.7494924E-01
   7140.33  5.8551152E-01
   7140.67  5.9666943E-01
   7141.00  6.0811436E-01
   7141.33  6.1955304E-01
   7141.67  6.3072175E-01
   7142.00  6.4135730E-01
   7142.33  6.5097808E-01
   7142.67  6.5933974E-01
   7143.00  6.6624958E-01
   7143.33  6.7153084E-01
   7143.67  6.7561835E-01
   7144.00  6.7886126E-01
   7144.33  6.8165455E-01
   7144.67  6.8443181E-01
   7145.00  6.8741589E-01
   7145.33  6.9075752E-01
   7145.67  6.9438762E-01
   7146.00  6.9820866E-01
   7146.33  7.0208363E-01
   7146.67  7.0586813E-01
   7147.00  7.0945409E-01
   7147.33  7.1267309E-01
   7147.67  7.1540913E-01
   7148.00  7.1751104E-01
   7148.33  7.1873439E-01
   7148.67  7.1911047E-01
   7149.00  7.1866319E-01
   7149.33  7.1744090E-01
   7149.67  7.1576795E-01
   7150.00  7.1389618E-01
   7150.33  7.1213283E-01
   7150.67  7.1071584E-01
   7151.00  7.0980019E-01
   7151.33  7.0956251E-01
   7151.67  7.0994582E-01
   7152.00  7.1090681E-01
   7152.33  7.1239688E-01
   7152.67  7.1420133E-01
   7153.00  7.1615704E-01
   7153.33  7.1804280E-01
   7153.67  7.1964024E-01
   7154.00  7.2075631E-01
   7154.33  7.2109660E-01
   7154.67  7.2057320E-01
   7155.00  7.1907408E-01
   7155.33  7.1638697E-01
   7155.67  7.1261807E-01
   7156.00  7.0778373E-01
   7156.33  7.0181093E-01
   7156.67  6.9490656E-01
   7157.00  6.8715560E-01
   7157.33  6.7858235E-01
   7157.67  6.6940513E-01
   7158.00  6.5973207E-01
   7158.33  6.4963115E-01
   7158.67  6.3924827E-01
   7159.00  6.2865066E-01
   7159.33  6.1786969E-01
   7159.67  6.0695127E-01
   7160.00  5.9590752E-01
   7160.33  5.8474156E-01
   7160.67  5.7350683E-01
   7161.00  5.6227586E-01
   7161.33  5.5120453E-01
   7161.67  5.4046171E-01
   7162.00  5.3023100E-01
   7162.33  5.2080934E-01
   7162.67  5.1226932E-01
   7163.00  5.0469280E-01
   7163.33  4.9822387E-01
   7163.67  4.9269208E-01
   7164.00  4.8801713E-01
   7164.33  4.8417045E-01
   7164.67  4.8093007E-01
   7165.00  4.7819103E-01
   7165.33  4.7589742E-01
   7165.67  4.7391599E-01
   7166.00  4.7219360E-01
   7166.33  4.7071733E-01
   7166.67  4.6944304E-01
   7167.00  4.6836400E-01
   7167.33  4.6749301E-01
   7167.67  4.6679492E-01
   7168.00  4.6625700E-01
   7168.33  4.6587775E-01
   7168.67  4.6561653E-01
   7169.00  4.6545244E-01
   7169.33  4.6537236E-01
   7169.67  4.6534990E-01
   7170.00  4.6537667E-01
   7170.33  4.6545622E-01
   7170.67  4.6558655E-01
   7171.00  4.6577191E-01
   7171.33  4.6601544E-01
   7171.67  4.6628260E-01
   7172.00  4.6651929E-01
