    FDMNES
    energy     <xanes>
   7097.00  5.0997276E-03
   7097.33  5.2285894E-03
   7097.67  5.3636921E-03
   7098.00  5.5054844E-03
   7098.33  5.6554557E-03
   7098.67  5.8133475E-03
   7099.00  5.9797816E-03
   7099.33  6.1567386E-03
   7099.67  6.3439676E-03
   7100.00  6.5423549E-03
   7100.33  6.7546103E-03
   7100.67  6.9805317E-03
   7101.00  7.2214255E-03
   7101.33  7.4811267E-03
   7101.67  7.7595720E-03
   7102.00  8.0587666E-03
   7102.33  8.3843625E-03
   7102.67  8.7366367E-03
   7103.00  9.1188197E-03
   7103.33  9.5396672E-03
   7103.67  1.0000261E-02
   7104.00  1.0506128E-02
   7104.33  1.1071705E-02
   7104.67  1.1700021E-02
   7105.00  1.2401271E-02
   7105.33  1.3201256E-02
   7105.67  1.4108016E-02
   7106.00  1.5142320E-02
   7106.33  1.6355484E-02
   7106.67  1.7769886E-02
   7107.00  1.9433975E-02
   7107.33  2.1466270E-02
   7107.67  2.3937497E-02
   7108.00  2.6985108E-02
   7108.33  3.0950945E-02
   7108.67  3.6116380E-02
   7109.00  4.3009453E-02
   7109.33  5.3036418E-02
   7109.67  6.7853184E-02
   7110.00  9.0720549E-02
   7110.33  1.3111646E-01
   7110.67  1.9923194E-01
   7111.00  2.9587765E-01
   7111.33  3.7657381E-01
   7111.67  4.0448172E-01
   7112.00  3.9523520E-01
   7112.33  3.7155690E-01
   7112.67  3.4356121E-01
   7113.00  3.2164739E-01
   7113.33  3.1982234E-01
   7113.67  3.2966282E-01
   7114.00  3.2664400E-01
   7114.33  2.8981022E-01
   7114.67  2.4104780E-01
   7115.00  1.9717119E-01
   7115.33  1.6574774E-01
   7115.67  1.4466164E-01
   7116.00  1.3180326E-01
   7116.33  1.2550876E-01
   7116.67  1.2316399E-01
   7117.00  1.2351791E-01
   7117.33  1.2561261E-01
   7117.67  1.2840010E-01
   7118.00  1.3142927E-01
   7118.33  1.3476702E-01
   7118.67  1.3893554E-01
   7119.00  1.4433197E-01
   7119.33  1.5131437E-01
   7119.67  1.6006546E-01
   7120.00  1.7090196E-01
   7120.33  1.8410286E-01
   7120.67  1.9913182E-01
   7121.00  2.1540594E-01
   7121.33  2.3218325E-01
   7121.67  2.4928596E-01
   7122.00  2.6713751E-01
   7122.33  2.8595983E-01
   7122.67  3.0492899E-01
   7123.00  3.2328385E-01
   7123.33  3.4035595E-01
   7123.67  3.5611300E-01
   7124.00  3.7049559E-01
   7124.33  3.8369490E-01
   7124.67  3.9710843E-01
   7125.00  4.1221276E-01
   7125.33  4.3028800E-01
   7125.67  4.5045422E-01
   7126.00  4.7115566E-01
   7126.33  4.8962092E-01
   7126.67  5.0382161E-01
   7127.00  5.1301172E-01
   7127.33  5.1752820E-01
   7127.67  5.1945472E-01
   7128.00  5.1977730E-01
   7128.33  5.1887151E-01
   7128.67  5.1715948E-01
   7129.00  5.1519778E-01
   7129.33  5.1396665E-01
   7129.67  5.1381595E-01
   7130.00  5.1467473E-01
   7130.33  5.1663220E-01
   7130.67  5.1972752E-01
   7131.00  5.2403022E-01
   7131.33  5.2955252E-01
   7131.67  5.3599420E-01
   7132.00  5.4339535E-01
   7132.33  5.5226568E-01
   7132.67  5.6281184E-01
   7133.00  5.7478147E-01
   7133.33  5.8618963E-01
   7133.67  5.9320226E-01
   7134.00  5.9229354E-01
   7134.33  5.8115770E-01
   7134.67  5.6400617E-01
   7135.00  5.4493634E-01
   7135.33  5.2791669E-01
   7135.67  5.1468835E-01
   7136.00  5.0594651E-01
   7136.33  5.0247587E-01
   7136.67  5.0350563E-01
   7137.00  5.0865690E-01
   7137.33  5.1770783E-01
   7137.67  5.2937553E-01
   7138.00  5.4280756E-01
   7138.33  5.5700660E-01
   7138.67  5.7080765E-01
   7139.00  5.8340065E-01
   7139.33  5.9390027E-01
   7139.67  6.0230634E-01
   7140.00  6.0875367E-01
   7140.33  6.1349753E-01
   7140.67  6.1732984E-01
   7141.00  6.2077328E-01
   7141.33  6.2435170E-01
   7141.67  6.2842561E-01
   7142.00  6.3320688E-01
   7142.33  6.3889169E-01
   7142.67  6.4529141E-01
   7143.00  6.5217724E-01
   7143.33  6.5912552E-01
   7143.67  6.6557114E-01
   7144.00  6.7100251E-01
   7144.33  6.7470696E-01
   7144.67  6.7655072E-01
   7145.00  6.7646613E-01
   7145.33  6.7439754E-01
   7145.67  6.7092543E-01
   7146.00  6.6644640E-01
   7146.33  6.6138485E-01
   7146.67  6.5627260E-01
   7147.00  6.5147310E-01
   7147.33  6.4742328E-01
   7147.67  6.4430719E-01
   7148.00  6.4227433E-01
   7148.33  6.4154089E-01
   7148.67  6.4193640E-01
   7149.00  6.4337940E-01
   7149.33  6.4583574E-01
   7149.67  6.4899653E-01
   7150.00  6.5266005E-01
   7150.33  6.5659189E-01
   7150.67  6.6047821E-01
   7151.00  6.6406905E-01
   7151.33  6.6700472E-01
   7151.67  6.6909010E-01
   7152.00  6.7012344E-01
   7152.33  6.6976368E-01
   7152.67  6.6804833E-01
   7153.00  6.6494306E-01
   7153.33  6.6032350E-01
   7153.67  6.5448765E-01
   7154.00  6.4760324E-01
   7154.33  6.3980622E-01
   7154.67  6.3145106E-01
   7155.00  6.2274449E-01
   7155.33  6.1387509E-01
   7155.67  6.0501881E-01
   7156.00  5.9626934E-01
   7156.33  5.8771038E-01
   7156.67  5.7934047E-01
   7157.00  5.7114949E-01
   7157.33  5.6312223E-01
   7157.67  5.5519566E-01
   7158.00  5.4732855E-01
   7158.33  5.3947841E-01
   7158.67  5.3160985E-01
   7159.00  5.2370387E-01
   7159.33  5.1574507E-01
   7159.67  5.0774616E-01
   7160.00  4.9972615E-01
   7160.33  4.9172130E-01
   7160.67  4.8377431E-01
   7161.00  4.7592375E-01
   7161.33  4.6822859E-01
   7161.67  4.6071159E-01
   7162.00  4.5340491E-01
   7162.33  4.4637111E-01
   7162.67  4.3960397E-01
   7163.00  4.3311711E-01
   7163.33  4.2695394E-01
   7163.67  4.2107711E-01
   7164.00  4.1547880E-01
   7164.33  4.1017611E-01
   7164.67  4.0511520E-01
   7165.00  4.0027453E-01
   7165.33  3.9564947E-01
   7165.67  3.9118746E-01
   7166.00  3.8686896E-01
   7166.33  3.8269586E-01
   7166.67  3.7864145E-01
   7167.00  3.7470287E-01
   7167.33  3.7090144E-01
   7167.67  3.6723619E-01
   7168.00  3.6372434E-01
   7168.33  3.6041094E-01
   7168.67  3.5729776E-01
   7169.00  3.5440558E-01
   7169.33  3.5178864E-01
   7169.67  3.4943845E-01
   7170.00  3.4737171E-01
   7170.33  3.4564048E-01
   7170.67  3.4421502E-01
   7171.00  3.4309356E-01
   7171.33  3.4229382E-01
   7171.67  3.4173307E-01
   7172.00  3.4133852E-01
