    FDMNES
    energy     <xanes>
   7097.00  4.9994351E-03
   7097.33  5.1195953E-03
   7097.67  5.2452787E-03
   7098.00  5.3768663E-03
   7098.33  5.5156486E-03
   7098.67  5.6613753E-03
   7099.00  5.8145692E-03
   7099.33  5.9769292E-03
   7099.67  6.1482046E-03
   7100.00  6.3291339E-03
   7100.33  6.5220161E-03
   7100.67  6.7266312E-03
   7101.00  6.9440571E-03
   7101.33  7.1775092E-03
   7101.67  7.4268668E-03
   7102.00  7.6937667E-03
   7102.33  7.9828886E-03
   7102.67  8.2943639E-03
   7103.00  8.6307995E-03
   7103.33  8.9993476E-03
   7103.67  9.4007442E-03
   7104.00  9.8393924E-03
   7104.33  1.0326915E-02
   7104.67  1.0865512E-02
   7105.00  1.1463197E-02
   7105.33  1.2140409E-02
   7105.67  1.2903105E-02
   7106.00  1.3767367E-02
   7106.33  1.4773135E-02
   7106.67  1.5937043E-02
   7107.00  1.7295996E-02
   7107.33  1.8940512E-02
   7107.67  2.0922942E-02
   7108.00  2.3346290E-02
   7108.33  2.6466888E-02
   7108.67  3.0492024E-02
   7109.00  3.5812868E-02
   7109.33  4.3472235E-02
   7109.67  5.4694197E-02
   7110.00  7.1891996E-02
   7110.33  1.0196780E-01
   7110.67  1.5106845E-01
   7111.00  2.1488107E-01
   7111.33  2.6518712E-01
   7111.67  2.9499881E-01
   7112.00  3.0857419E-01
   7112.33  3.2159444E-01
   7112.67  3.3786528E-01
   7113.00  3.4650210E-01
   7113.33  3.4635410E-01
   7113.67  3.3535639E-01
   7114.00  3.0390814E-01
   7114.33  2.5574451E-01
   7114.67  2.1065827E-01
   7115.00  1.7707051E-01
   7115.33  1.5632136E-01
   7115.67  1.4221439E-01
   7116.00  1.3083534E-01
   7116.33  1.2092413E-01
   7116.67  1.1302145E-01
   7117.00  1.0764636E-01
   7117.33  1.0530836E-01
   7117.67  1.0563551E-01
   7118.00  1.0845198E-01
   7118.33  1.1345891E-01
   7118.67  1.1941384E-01
   7119.00  1.2528705E-01
   7119.33  1.3040399E-01
   7119.67  1.3533148E-01
   7120.00  1.4070194E-01
   7120.33  1.4720015E-01
   7120.67  1.5488020E-01
   7121.00  1.6336954E-01
   7121.33  1.7277811E-01
   7121.67  1.8427622E-01
   7122.00  1.9966146E-01
   7122.33  2.2159096E-01
   7122.67  2.4871971E-01
   7123.00  2.7686341E-01
   7123.33  3.0003865E-01
   7123.67  3.1882380E-01
   7124.00  3.3706255E-01
   7124.33  3.6024953E-01
   7124.67  3.9024055E-01
   7125.00  4.2611310E-01
   7125.33  4.6523249E-01
   7125.67  5.0372363E-01
   7126.00  5.3856344E-01
   7126.33  5.6654778E-01
   7126.67  5.8790851E-01
   7127.00  6.0382249E-01
   7127.33  6.1649304E-01
   7127.67  6.2849787E-01
   7128.00  6.4070679E-01
   7128.33  6.5345822E-01
   7128.67  6.6708567E-01
   7129.00  6.8207961E-01
   7129.33  6.9859759E-01
   7129.67  7.1527696E-01
   7130.00  7.3024191E-01
   7130.33  7.4008515E-01
   7130.67  7.4296449E-01
   7131.00  7.3901526E-01
   7131.33  7.3186826E-01
   7131.67  7.2779971E-01
   7132.00  7.3065766E-01
   7132.33  7.4297060E-01
   7132.67  7.6223986E-01
   7133.00  7.8545326E-01
   7133.33  8.0749099E-01
   7133.67  8.2301053E-01
   7134.00  8.2833942E-01
   7134.33  8.2038246E-01
   7134.67  8.0241089E-01
   7135.00  7.7830739E-01
   7135.33  7.5338977E-01
   7135.67  7.3176412E-01
   7136.00  7.1492997E-01
   7136.33  7.0349090E-01
   7136.67  6.9596511E-01
   7137.00  6.9148172E-01
   7137.33  6.8953816E-01
   7137.67  6.8933407E-01
   7138.00  6.9043935E-01
   7138.33  6.9215993E-01
   7138.67  6.9332242E-01
   7139.00  6.9284554E-01
   7139.33  6.8924278E-01
   7139.67  6.8210258E-01
   7140.00  6.7122352E-01
   7140.33  6.5657107E-01
   7140.67  6.3956060E-01
   7141.00  6.2133003E-01
   7141.33  6.0312628E-01
   7141.67  5.8587596E-01
   7142.00  5.7009127E-01
   7142.33  5.5630726E-01
   7142.67  5.4439338E-01
   7143.00  5.3432026E-01
   7143.33  5.2620938E-01
   7143.67  5.1971734E-01
   7144.00  5.1472336E-01
   7144.33  5.1122702E-01
   7144.67  5.0884799E-01
   7145.00  5.0735373E-01
   7145.33  5.0648620E-01
   7145.67  5.0580673E-01
   7146.00  5.0499142E-01
   7146.33  5.0363229E-01
   7146.67  5.0152086E-01
   7147.00  4.9851483E-01
   7147.33  4.9442455E-01
   7147.67  4.8939555E-01
   7148.00  4.8352065E-01
   7148.33  4.7689452E-01
   7148.67  4.6982292E-01
   7149.00  4.6250363E-01
   7149.33  4.5514949E-01
   7149.67  4.4795587E-01
   7150.00  4.4106422E-01
   7150.33  4.3467001E-01
   7150.67  4.2883548E-01
   7151.00  4.2364299E-01
   7151.33  4.1924885E-01
   7151.67  4.1559387E-01
   7152.00  4.1266962E-01
   7152.33  4.1051441E-01
   7152.67  4.0896445E-01
   7153.00  4.0793627E-01
   7153.33  4.0737491E-01
   7153.67  4.0712038E-01
   7154.00  4.0708507E-01
   7154.33  4.0719346E-01
   7154.67  4.0735092E-01
   7155.00  4.0750181E-01
   7155.33  4.0759011E-01
   7155.67  4.0758673E-01
   7156.00  4.0746479E-01
   7156.33  4.0716947E-01
   7156.67  4.0667019E-01
   7157.00  4.0590528E-01
   7157.33  4.0472858E-01
   7157.67  4.0305539E-01
   7158.00  4.0075889E-01
   7158.33  3.9760338E-01
   7158.67  3.9359108E-01
   7159.00  3.8871257E-01
   7159.33  3.8296524E-01
   7159.67  3.7664606E-01
   7160.00  3.6998807E-01
   7160.33  3.6328477E-01
   7160.67  3.5682335E-01
   7161.00  3.5080605E-01
   7161.33  3.4548285E-01
   7161.67  3.4088052E-01
   7162.00  3.3704012E-01
   7162.33  3.3405977E-01
   7162.67  3.3180789E-01
   7163.00  3.3022817E-01
   7163.33  3.2931240E-01
   7163.67  3.2890644E-01
   7164.00  3.2894639E-01
   7164.33  3.2941296E-01
   7164.67  3.3020285E-01
   7165.00  3.3127740E-01
   7165.33  3.3263376E-01
   7165.67  3.3421718E-01
   7166.00  3.3601437E-01
   7166.33  3.3804116E-01
   7166.67  3.4026670E-01
   7167.00  3.4268836E-01
   7167.33  3.4532741E-01
   7167.67  3.4815426E-01
   7168.00  3.5116046E-01
   7168.33  3.5435169E-01
   7168.67  3.5768699E-01
   7169.00  3.6114481E-01
   7169.33  3.6470842E-01
   7169.67  3.6833496E-01
   7170.00  3.7199612E-01
   7170.33  3.7565661E-01
   7170.67  3.7927514E-01
   7171.00  3.8280438E-01
   7171.33  3.8613493E-01
   7171.67  3.8913091E-01
   7172.00  3.9158441E-01
