    FDMNES
    energy     <xanes>
   7097.00  4.9855888E-03
   7097.33  5.1009120E-03
   7097.67  5.2213858E-03
   7098.00  5.3473579E-03
   7098.33  5.4800193E-03
   7098.67  5.6191261E-03
   7099.00  5.7651534E-03
   7099.33  5.9196605E-03
   7099.67  6.0824004E-03
   7100.00  6.2540406E-03
   7100.33  6.4366794E-03
   7100.67  6.6300930E-03
   7101.00  6.8352508E-03
   7101.33  7.0550702E-03
   7101.67  7.2894102E-03
   7102.00  7.5397357E-03
   7102.33  7.8102671E-03
   7102.67  8.1010797E-03
   7103.00  8.4144960E-03
   7103.33  8.7569295E-03
   7103.67  9.1289810E-03
   7104.00  9.5345599E-03
   7104.33  9.9840367E-03
   7104.67  1.0479299E-02
   7105.00  1.1027451E-02
   7105.33  1.1646672E-02
   7105.67  1.2342187E-02
   7106.00  1.3128274E-02
   7106.33  1.4040486E-02
   7106.67  1.5093663E-02
   7107.00  1.6320829E-02
   7107.33  1.7803185E-02
   7107.67  1.9588455E-02
   7108.00  2.1770538E-02
   7108.33  2.4584306E-02
   7108.67  2.8225233E-02
   7109.00  3.3063584E-02
   7109.33  4.0098159E-02
   7109.67  5.0545930E-02
   7110.00  6.6823002E-02
   7110.33  9.5787332E-02
   7110.67  1.4217063E-01
   7111.00  1.9476180E-01
   7111.33  2.1846257E-01
   7111.67  2.2972384E-01
   7112.00  2.4494875E-01
   7112.33  2.6612264E-01
   7112.67  2.7713068E-01
   7113.00  2.7182331E-01
   7113.33  2.6797747E-01
   7113.67  2.7239802E-01
   7114.00  2.7498297E-01
   7114.33  2.6525525E-01
   7114.67  2.4540121E-01
   7115.00  2.2099321E-01
   7115.33  1.9939902E-01
   7115.67  1.8384814E-01
   7116.00  1.7529889E-01
   7116.33  1.7483102E-01
   7116.67  1.8030583E-01
   7117.00  1.8842808E-01
   7117.33  1.9288476E-01
   7117.67  1.9116111E-01
   7118.00  1.8566099E-01
   7118.33  1.8110826E-01
   7118.67  1.7967791E-01
   7119.00  1.8040200E-01
   7119.33  1.8012086E-01
   7119.67  1.7682120E-01
   7120.00  1.7052856E-01
   7120.33  1.6206463E-01
   7120.67  1.5328279E-01
   7121.00  1.4623247E-01
   7121.33  1.4325972E-01
   7121.67  1.4450057E-01
   7122.00  1.4982504E-01
   7122.33  1.5939926E-01
   7122.67  1.7257379E-01
   7123.00  1.8920215E-01
   7123.33  2.0915229E-01
   7123.67  2.3134403E-01
   7124.00  2.5541663E-01
   7124.33  2.8160446E-01
   7124.67  3.0962888E-01
   7125.00  3.3914341E-01
   7125.33  3.7001218E-01
   7125.67  4.0248179E-01
   7126.00  4.3699562E-01
   7126.33  4.7322993E-01
   7126.67  5.0932286E-01
   7127.00  5.4363908E-01
   7127.33  5.7413646E-01
   7127.67  5.9987079E-01
   7128.00  6.1996227E-01
   7128.33  6.3362530E-01
   7128.67  6.4284117E-01
   7129.00  6.4933767E-01
   7129.33  6.5479275E-01
   7129.67  6.6028128E-01
   7130.00  6.6589803E-01
   7130.33  6.7123329E-01
   7130.67  6.7597770E-01
   7131.00  6.8021438E-01
   7131.33  6.8457544E-01
   7131.67  6.9003494E-01
   7132.00  6.9742563E-01
   7132.33  7.0754491E-01
   7132.67  7.1989645E-01
   7133.00  7.3390938E-01
   7133.33  7.4877106E-01
   7133.67  7.6326885E-01
   7134.00  7.7619297E-01
   7134.33  7.8553299E-01
   7134.67  7.9052615E-01
   7135.00  7.9107081E-01
   7135.33  7.8746083E-01
   7135.67  7.8125024E-01
   7136.00  7.7336174E-01
   7136.33  7.6467273E-01
   7136.67  7.5606712E-01
   7137.00  7.4804379E-01
   7137.33  7.4106034E-01
   7137.67  7.3510071E-01
   7138.00  7.3007930E-01
   7138.33  7.2578783E-01
   7138.67  7.2167811E-01
   7139.00  7.1726915E-01
   7139.33  7.1189514E-01
   7139.67  7.0522087E-01
   7140.00  6.9704518E-01
   7140.33  6.8721420E-01
   7140.67  6.7621030E-01
   7141.00  6.6442804E-01
   7141.33  6.5228740E-01
   7141.67  6.4012133E-01
   7142.00  6.2799093E-01
   7142.33  6.1580516E-01
   7142.67  6.0345414E-01
   7143.00  5.9090000E-01
   7143.33  5.7818875E-01
   7143.67  5.6550122E-01
   7144.00  5.5302533E-01
   7144.33  5.4104751E-01
   7144.67  5.2971630E-01
   7145.00  5.1914711E-01
   7145.33  5.0949247E-01
   7145.67  5.0065815E-01
   7146.00  4.9263737E-01
   7146.33  4.8551050E-01
   7146.67  4.7915238E-01
   7147.00  4.7354011E-01
   7147.33  4.6874408E-01
   7147.67  4.6466957E-01
   7148.00  4.6131685E-01
   7148.33  4.5877149E-01
   7148.67  4.5694041E-01
   7149.00  4.5581977E-01
   7149.33  4.5548434E-01
   7149.67  4.5581887E-01
   7150.00  4.5678414E-01
   7150.33  4.5838645E-01
   7150.67  4.6047220E-01
   7151.00  4.6295895E-01
   7151.33  4.6578068E-01
   7151.67  4.6879615E-01
   7152.00  4.7192000E-01
   7152.33  4.7506144E-01
   7152.67  4.7813346E-01
   7153.00  4.8107202E-01
   7153.33  4.8379012E-01
   7153.67  4.8626163E-01
   7154.00  4.8845165E-01
   7154.33  4.9028957E-01
   7154.67  4.9179239E-01
   7155.00  4.9294853E-01
   7155.33  4.9370976E-01
   7155.67  4.9412516E-01
   7156.00  4.9420647E-01
   7156.33  4.9393646E-01
   7156.67  4.9338341E-01
   7157.00  4.9257652E-01
   7157.33  4.9152453E-01
   7157.67  4.9028940E-01
   7158.00  4.8889802E-01
   7158.33  4.8736071E-01
   7158.67  4.8571481E-01
   7159.00  4.8397477E-01
   7159.33  4.8214405E-01
   7159.67  4.8024494E-01
   7160.00  4.7828956E-01
   7160.33  4.7628850E-01
   7160.67  4.7426161E-01
   7161.00  4.7222195E-01
   7161.33  4.7018743E-01
   7161.67  4.6816849E-01
   7162.00  4.6616730E-01
   7162.33  4.6418288E-01
   7162.67  4.6220526E-01
   7163.00  4.6022018E-01
   7163.33  4.5820607E-01
   7163.67  4.5615438E-01
   7164.00  4.5405487E-01
   7164.33  4.5189337E-01
   7164.67  4.4967998E-01
   7165.00  4.4742741E-01
   7165.33  4.4516066E-01
   7165.67  4.4291822E-01
   7166.00  4.4073654E-01
   7166.33  4.3867290E-01
   7166.67  4.3675702E-01
   7167.00  4.3502194E-01
   7167.33  4.3352370E-01
   7167.67  4.3225460E-01
   7168.00  4.3122354E-01
   7168.33  4.3046251E-01
   7168.67  4.2993478E-01
   7169.00  4.2962811E-01
   7169.33  4.2954643E-01
   7169.67  4.2963867E-01
   7170.00  4.2988020E-01
   7170.33  4.3025582E-01
   7170.67  4.3071924E-01
   7171.00  4.3124145E-01
   7171.33  4.3178530E-01
   7171.67  4.3229568E-01
   7172.00  4.3271385E-01
