    FDMNES
    energy     <xanes>
   7097.00  4.8240492E-03
   7097.33  4.9261087E-03
   7097.67  5.0323509E-03
   7098.00  5.1430411E-03
   7098.33  5.2591186E-03
   7098.67  5.3803635E-03
   7099.00  5.5071351E-03
   7099.33  5.6406480E-03
   7099.67  5.7806762E-03
   7100.00  5.9277207E-03
   7100.33  6.0833972E-03
   7100.67  6.2474929E-03
   7101.00  6.4207313E-03
   7101.33  6.6053356E-03
   7101.67  6.8011506E-03
   7102.00  7.0092658E-03
   7102.33  7.2328706E-03
   7102.67  7.4719680E-03
   7103.00  7.7282836E-03
   7103.33  8.0066364E-03
   7103.67  8.3074223E-03
   7104.00  8.6335513E-03
   7104.33  8.9927965E-03
   7104.67  9.3865281E-03
   7105.00  9.8200560E-03
   7105.33  1.0307021E-02
   7105.67  1.0851336E-02
   7106.00  1.1463738E-02
   7106.33  1.2171000E-02
   7106.67  1.2984364E-02
   7107.00  1.3928787E-02
   7107.33  1.5065602E-02
   7107.67  1.6430899E-02
   7108.00  1.8095439E-02
   7108.33  2.0235567E-02
   7108.67  2.2995979E-02
   7109.00  2.6648876E-02
   7109.33  3.1919728E-02
   7109.67  3.9663266E-02
   7110.00  5.1566853E-02
   7110.33  7.2598161E-02
   7110.67  1.0855738E-01
   7111.00  1.5995824E-01
   7111.33  1.9222221E-01
   7111.67  2.0637266E-01
   7112.00  2.2769255E-01
   7112.33  2.1348432E-01
   7112.67  1.7536695E-01
   7113.00  1.5069352E-01
   7113.33  1.4317302E-01
   7113.67  1.4580493E-01
   7114.00  1.5835876E-01
   7114.33  1.4906877E-01
   7114.67  1.1551123E-01
   7115.00  8.6719674E-02
   7115.33  7.1326461E-02
   7115.67  6.3152900E-02
   7116.00  5.9311023E-02
   7116.33  5.8412698E-02
   7116.67  5.9265427E-02
   7117.00  6.1267537E-02
   7117.33  6.3931471E-02
   7117.67  6.7311600E-02
   7118.00  7.1936081E-02
   7118.33  7.8479849E-02
   7118.67  8.6932007E-02
   7119.00  9.7407906E-02
   7119.33  1.1044043E-01
   7119.67  1.2623513E-01
   7120.00  1.4538753E-01
   7120.33  1.6909509E-01
   7120.67  1.9712487E-01
   7121.00  2.2896378E-01
   7121.33  2.6324543E-01
   7121.67  2.9788949E-01
   7122.00  3.3256713E-01
   7122.33  3.6883553E-01
   7122.67  4.0806487E-01
   7123.00  4.5072612E-01
   7123.33  4.9704786E-01
   7123.67  5.4554964E-01
   7124.00  5.9418755E-01
   7124.33  6.3912509E-01
   7124.67  6.7724031E-01
   7125.00  7.0634371E-01
   7125.33  7.2441308E-01
   7125.67  7.3370640E-01
   7126.00  7.3567400E-01
   7126.33  7.3106266E-01
   7126.67  7.2362493E-01
   7127.00  7.1752204E-01
   7127.33  7.1543831E-01
   7127.67  7.1400462E-01
   7128.00  7.0854373E-01
   7128.33  6.9674231E-01
   7128.67  6.8539914E-01
   7129.00  6.8137576E-01
   7129.33  6.8944162E-01
   7129.67  7.0665294E-01
   7130.00  7.2917476E-01
   7130.33  7.5138102E-01
   7130.67  7.6837482E-01
   7131.00  7.7756504E-01
   7131.33  7.7712377E-01
   7131.67  7.6916652E-01
   7132.00  7.5531242E-01
   7132.33  7.3716987E-01
   7132.67  7.1712059E-01
   7133.00  6.9646709E-01
   7133.33  6.7630761E-01
   7133.67  6.5720957E-01
   7134.00  6.3954388E-01
   7134.33  6.2398137E-01
   7134.67  6.1078168E-01
   7135.00  6.0035809E-01
   7135.33  5.9340736E-01
   7135.67  5.8915872E-01
   7136.00  5.8641446E-01
   7136.33  5.8375475E-01
   7136.67  5.8069349E-01
   7137.00  5.7735206E-01
   7137.33  5.7394981E-01
   7137.67  5.7061991E-01
   7138.00  5.6737934E-01
   7138.33  5.6417540E-01
   7138.67  5.6089984E-01
   7139.00  5.5745105E-01
   7139.33  5.5368514E-01
   7139.67  5.4955446E-01
   7140.00  5.4501245E-01
   7140.33  5.3997550E-01
   7140.67  5.3449987E-01
   7141.00  5.2861259E-01
   7141.33  5.2231786E-01
   7141.67  5.1572673E-01
   7142.00  5.0890974E-01
   7142.33  5.0194966E-01
   7142.67  4.9497275E-01
   7143.00  4.8807448E-01
   7143.33  4.8137793E-01
   7143.67  4.7494170E-01
   7144.00  4.6881629E-01
   7144.33  4.6308100E-01
   7144.67  4.5770712E-01
   7145.00  4.5269409E-01
   7145.33  4.4807466E-01
   7145.67  4.4378834E-01
   7146.00  4.3982002E-01
   7146.33  4.3619230E-01
   7146.67  4.3285740E-01
   7147.00  4.2981260E-01
   7147.33  4.2709874E-01
   7147.67  4.2469003E-01
   7148.00  4.2259969E-01
   7148.33  4.2088613E-01
   7148.67  4.1952166E-01
   7149.00  4.1851341E-01
   7149.33  4.1790446E-01
   7149.67  4.1763580E-01
   7150.00  4.1768256E-01
   7150.33  4.1803475E-01
   7150.67  4.1860045E-01
   7151.00  4.1932226E-01
   7151.33  4.2013600E-01
   7151.67  4.2094951E-01
   7152.00  4.2168989E-01
   7152.33  4.2225067E-01
   7152.67  4.2256431E-01
   7153.00  4.2255919E-01
   7153.33  4.2211448E-01
   7153.67  4.2121944E-01
   7154.00  4.1983563E-01
   7154.33  4.1787443E-01
   7154.67  4.1539904E-01
   7155.00  4.1242715E-01
   7155.33  4.0894431E-01
   7155.67  4.0507198E-01
   7156.00  4.0088050E-01
   7156.33  3.9643794E-01
   7156.67  3.9188158E-01
   7157.00  3.8731395E-01
   7157.33  3.8287703E-01
   7157.67  3.7869132E-01
   7158.00  3.7487675E-01
   7158.33  3.7163819E-01
   7158.67  3.6904987E-01
   7159.00  3.6722360E-01
   7159.33  3.6638431E-01
   7159.67  3.6651382E-01
   7160.00  3.6766644E-01
   7160.33  3.7000370E-01
   7160.67  3.7338343E-01
   7161.00  3.7776222E-01
   7161.33  3.8316288E-01
   7161.67  3.8933929E-01
   7162.00  3.9614547E-01
   7162.33  4.0342988E-01
   7162.67  4.1090633E-01
   7163.00  4.1836550E-01
   7163.33  4.2554497E-01
   7163.67  4.3228604E-01
   7164.00  4.3847972E-01
   7164.33  4.4400019E-01
   7164.67  4.4894806E-01
   7165.00  4.5339998E-01
   7165.33  4.5744031E-01
   7165.67  4.6126638E-01
   7166.00  4.6500604E-01
   7166.33  4.6879029E-01
   7166.67  4.7270602E-01
   7167.00  4.7680178E-01
   7167.33  4.8112548E-01
   7167.67  4.8564102E-01
   7168.00  4.9031632E-01
   7168.33  4.9510787E-01
   7168.67  4.9993468E-01
   7169.00  5.0473562E-01
   7169.33  5.0943174E-01
   7169.67  5.1397737E-01
   7170.00  5.1833308E-01
   7170.33  5.2243347E-01
   7170.67  5.2627365E-01
   7171.00  5.2982191E-01
   7171.33  5.3298459E-01
   7171.67  5.3572174E-01
   7172.00  5.3792381E-01
