    FDMNES
    energy     <xanes>
   7097.00  4.7340377E-03
   7097.33  4.8389216E-03
   7097.67  4.9483150E-03
   7098.00  5.0625174E-03
   7098.33  5.1825644E-03
   7098.67  5.3082376E-03
   7099.00  5.4399472E-03
   7099.33  5.5790486E-03
   7099.67  5.7253223E-03
   7100.00  5.8793476E-03
   7100.33  6.0429503E-03
   7100.67  6.2159359E-03
   7101.00  6.3991511E-03
   7101.33  6.5951439E-03
   7101.67  6.8038017E-03
   7102.00  7.0264158E-03
   7102.33  7.2666965E-03
   7102.67  7.5247420E-03
   7103.00  7.8026242E-03
   7103.33  8.1060380E-03
   7103.67  8.4355919E-03
   7104.00  8.7948253E-03
   7104.33  9.1930732E-03
   7104.67  9.6321965E-03
   7105.00  1.0118737E-02
   7105.33  1.0669340E-02
   7105.67  1.1289125E-02
   7106.00  1.1991479E-02
   7106.33  1.2809580E-02
   7106.67  1.3757932E-02
   7107.00  1.4867990E-02
   7107.33  1.6216796E-02
   7107.67  1.7850674E-02
   7108.00  1.9859518E-02
   7108.33  2.2466940E-02
   7108.67  2.5857823E-02
   7109.00  3.0378283E-02
   7109.33  3.6948103E-02
   7109.67  4.6645488E-02
   7110.00  6.1589614E-02
   7110.33  8.8016131E-02
   7110.67  1.3371929E-01
   7111.00  2.0483802E-01
   7111.33  2.7247968E-01
   7111.67  2.7200015E-01
   7112.00  2.3227636E-01
   7112.33  2.0959528E-01
   7112.67  2.0259520E-01
   7113.00  2.0249025E-01
   7113.33  2.0396287E-01
   7113.67  1.8816316E-01
   7114.00  1.5043233E-01
   7114.33  1.1376152E-01
   7114.67  8.8301510E-02
   7115.00  7.2261211E-02
   7115.33  6.3144197E-02
   7115.67  5.7902226E-02
   7116.00  5.5592472E-02
   7116.33  5.5755088E-02
   7116.67  5.7167147E-02
   7117.00  5.8790986E-02
   7117.33  6.0178267E-02
   7117.67  6.2140117E-02
   7118.00  6.5454594E-02
   7118.33  7.0915893E-02
   7118.67  7.8694102E-02
   7119.00  8.9195070E-02
   7119.33  1.0344940E-01
   7119.67  1.2176502E-01
   7120.00  1.4472573E-01
   7120.33  1.7324622E-01
   7120.67  2.0582180E-01
   7121.00  2.3977869E-01
   7121.33  2.6910611E-01
   7121.67  2.8964944E-01
   7122.00  3.0156728E-01
   7122.33  3.0873602E-01
   7122.67  3.1658340E-01
   7123.00  3.2786051E-01
   7123.33  3.4477124E-01
   7123.67  3.6732965E-01
   7124.00  3.9577450E-01
   7124.33  4.3069786E-01
   7124.67  4.7044525E-01
   7125.00  5.1347622E-01
   7125.33  5.5771993E-01
   7125.67  6.0120582E-01
   7126.00  6.4282529E-01
   7126.33  6.8129643E-01
   7126.67  7.1666343E-01
   7127.00  7.4835009E-01
   7127.33  7.7287307E-01
   7127.67  7.8834586E-01
   7128.00  7.9538600E-01
   7128.33  7.9608976E-01
   7128.67  7.9239143E-01
   7129.00  7.8372231E-01
   7129.33  7.6902273E-01
   7129.67  7.5123830E-01
   7130.00  7.3520710E-01
   7130.33  7.2823341E-01
   7130.67  7.3101922E-01
   7131.00  7.3987316E-01
   7131.33  7.4812434E-01
   7131.67  7.5102783E-01
   7132.00  7.4691130E-01
   7132.33  7.3523283E-01
   7132.67  7.1899667E-01
   7133.00  7.0107917E-01
   7133.33  6.8492129E-01
   7133.67  6.7225642E-01
   7134.00  6.6359912E-01
   7134.33  6.5906336E-01
   7134.67  6.5669479E-01
   7135.00  6.5395164E-01
   7135.33  6.4686204E-01
   7135.67  6.3490795E-01
   7136.00  6.2027300E-01
   7136.33  6.0616679E-01
   7136.67  5.9399668E-01
   7137.00  5.8395414E-01
   7137.33  5.7616214E-01
   7137.67  5.7025668E-01
   7138.00  5.6620973E-01
   7138.33  5.6425782E-01
   7138.67  5.6413959E-01
   7139.00  5.6575039E-01
   7139.33  5.6900975E-01
   7139.67  5.7329814E-01
   7140.00  5.7810986E-01
   7140.33  5.8270731E-01
   7140.67  5.8630887E-01
   7141.00  5.8819673E-01
   7141.33  5.8729663E-01
   7141.67  5.8342476E-01
   7142.00  5.7656269E-01
   7142.33  5.6695788E-01
   7142.67  5.5591491E-01
   7143.00  5.4441655E-01
   7143.33  5.3355611E-01
   7143.67  5.2398429E-01
   7144.00  5.1600637E-01
   7144.33  5.0986821E-01
   7144.67  5.0522452E-01
   7145.00  5.0189687E-01
   7145.33  4.9980356E-01
   7145.67  4.9860279E-01
   7146.00  4.9813521E-01
   7146.33  4.9829736E-01
   7146.67  4.9884916E-01
   7147.00  4.9964124E-01
   7147.33  5.0050156E-01
   7147.67  5.0124352E-01
   7148.00  5.0172333E-01
   7148.33  5.0174692E-01
   7148.67  5.0125836E-01
   7149.00  5.0019833E-01
   7149.33  4.9845609E-01
   7149.67  4.9610419E-01
   7150.00  4.9315904E-01
   7150.33  4.8958367E-01
   7150.67  4.8549073E-01
   7151.00  4.8092298E-01
   7151.33  4.7588548E-01
   7151.67  4.7049618E-01
   7152.00  4.6481891E-01
   7152.33  4.5891149E-01
   7152.67  4.5289006E-01
   7153.00  4.4683459E-01
   7153.33  4.4082551E-01
   7153.67  4.3491576E-01
   7154.00  4.2914860E-01
   7154.33  4.2358743E-01
   7154.67  4.1824239E-01
   7155.00  4.1314496E-01
   7155.33  4.0837036E-01
   7155.67  4.0392350E-01
   7156.00  3.9984092E-01
   7156.33  3.9621687E-01
   7156.67  3.9304292E-01
   7157.00  3.9035383E-01
   7157.33  3.8825123E-01
   7157.67  3.8670083E-01
   7158.00  3.8572332E-01
   7158.33  3.8540808E-01
   7158.67  3.8568726E-01
   7159.00  3.8655588E-01
   7159.33  3.8806506E-01
   7159.67  3.9010693E-01
   7160.00  3.9263661E-01
   7160.33  3.9563931E-01
   7160.67  3.9898062E-01
   7161.00  4.0258204E-01
   7161.33  4.0636793E-01
   7161.67  4.1022116E-01
   7162.00  4.1406139E-01
   7162.33  4.1778780E-01
   7162.67  4.2133672E-01
   7163.00  4.2465779E-01
   7163.33  4.2767162E-01
   7163.67  4.3037691E-01
   7164.00  4.3275104E-01
   7164.33  4.3474119E-01
   7164.67  4.3639505E-01
   7165.00  4.3772539E-01
   7165.33  4.3871726E-01
   7165.67  4.3943723E-01
   7166.00  4.3991130E-01
   7166.33  4.4013911E-01
   7166.67  4.4017976E-01
   7167.00  4.4006416E-01
   7167.33  4.3981090E-01
   7167.67  4.3946574E-01
   7168.00  4.3905288E-01
   7168.33  4.3859427E-01
   7168.67  4.3812167E-01
   7169.00  4.3765883E-01
   7169.33  4.3724078E-01
   7169.67  4.3689426E-01
   7170.00  4.3664684E-01
   7170.33  4.3654560E-01
   7170.67  4.3659869E-01
   7171.00  4.3681551E-01
   7171.33  4.3720056E-01
   7171.67  4.3767591E-01
   7172.00  4.3814196E-01
