    FDMNES
    energy     <xanes>
   7097.00  4.1354205E-03
   7097.33  4.2198484E-03
   7097.67  4.3076840E-03
   7098.00  4.3991482E-03
   7098.33  4.4950149E-03
   7098.67  4.5951127E-03
   7099.00  4.6997445E-03
   7099.33  4.8099202E-03
   7099.67  4.9254685E-03
   7100.00  5.0468176E-03
   7100.33  5.1753265E-03
   7100.67  5.3108438E-03
   7101.00  5.4539974E-03
   7101.33  5.6066839E-03
   7101.67  5.7688161E-03
   7102.00  5.9413553E-03
   7102.33  6.1270687E-03
   7102.67  6.3260325E-03
   7103.00  6.5397974E-03
   7103.33  6.7726250E-03
   7103.67  7.0249867E-03
   7104.00  7.2995481E-03
   7104.33  7.6033300E-03
   7104.67  7.9377733E-03
   7105.00  8.3078387E-03
   7105.33  8.7261275E-03
   7105.67  9.1966059E-03
   7106.00  9.7295037E-03
   7106.33  1.0350129E-02
   7106.67  1.1069755E-02
   7107.00  1.1912612E-02
   7107.33  1.2938010E-02
   7107.67  1.4182153E-02
   7108.00  1.5714998E-02
   7108.33  1.7710798E-02
   7108.67  2.0315795E-02
   7109.00  2.3803973E-02
   7109.33  2.8907535E-02
   7109.67  3.6501161E-02
   7110.00  4.8307700E-02
   7110.33  6.9303072E-02
   7110.67  1.0440667E-01
   7111.00  1.5243236E-01
   7111.33  1.9249730E-01
   7111.67  2.0959612E-01
   7112.00  2.0726190E-01
   7112.33  1.9838548E-01
   7112.67  1.7968519E-01
   7113.00  1.4504607E-01
   7113.33  1.1113638E-01
   7113.67  8.7517841E-02
   7114.00  7.3266999E-02
   7114.33  6.6137238E-02
   7114.67  6.0487969E-02
   7115.00  5.3116497E-02
   7115.33  4.6089728E-02
   7115.67  4.1521883E-02
   7116.00  3.9155082E-02
   7116.33  3.8471019E-02
   7116.67  3.8753875E-02
   7117.00  3.9593922E-02
   7117.33  4.0414620E-02
   7117.67  4.0741291E-02
   7118.00  4.0577090E-02
   7118.33  4.0244212E-02
   7118.67  4.0083890E-02
   7119.00  4.0293945E-02
   7119.33  4.1075328E-02
   7119.67  4.2455514E-02
   7120.00  4.4508581E-02
   7120.33  4.7416163E-02
   7120.67  5.1173197E-02
   7121.00  5.5857273E-02
   7121.33  6.1674935E-02
   7121.67  6.8574204E-02
   7122.00  7.6650141E-02
   7122.33  8.6319955E-02
   7122.67  9.7873001E-02
   7123.00  1.1191137E-01
   7123.33  1.2979205E-01
   7123.67  1.5221156E-01
   7124.00  1.8007457E-01
   7124.33  2.1435874E-01
   7124.67  2.5311970E-01
   7125.00  2.9449734E-01
   7125.33  3.3660835E-01
   7125.67  3.7870081E-01
   7126.00  4.2117400E-01
   7126.33  4.6321077E-01
   7126.67  4.9971937E-01
   7127.00  5.2597702E-01
   7127.33  5.4386495E-01
   7127.67  5.6211994E-01
   7128.00  5.8439460E-01
   7128.33  6.1097228E-01
   7128.67  6.3997471E-01
   7129.00  6.7198157E-01
   7129.33  7.1106375E-01
   7129.67  7.5899906E-01
   7130.00  8.1426725E-01
   7130.33  8.6995472E-01
   7130.67  9.1616022E-01
   7131.00  9.4653925E-01
   7131.33  9.5794048E-01
   7131.67  9.5538315E-01
   7132.00  9.4093325E-01
   7132.33  9.1594851E-01
   7132.67  8.8621676E-01
   7133.00  8.5640765E-01
   7133.33  8.3086943E-01
   7133.67  8.1084856E-01
   7134.00  7.9704716E-01
   7134.33  7.9048564E-01
   7134.67  7.8869933E-01
   7135.00  7.8879990E-01
   7135.33  7.8763437E-01
   7135.67  7.8417055E-01
   7136.00  7.7864798E-01
   7136.33  7.7169395E-01
   7136.67  7.6418529E-01
   7137.00  7.5652606E-01
   7137.33  7.4898564E-01
   7137.67  7.4166030E-01
   7138.00  7.3457327E-01
   7138.33  7.2770283E-01
   7138.67  7.2089273E-01
   7139.00  7.1396806E-01
   7139.33  7.0665355E-01
   7139.67  6.9880651E-01
   7140.00  6.9036549E-01
   7140.33  6.8135138E-01
   7140.67  6.7206796E-01
   7141.00  6.6279358E-01
   7141.33  6.5390735E-01
   7141.67  6.4566387E-01
   7142.00  6.3825800E-01
   7142.33  6.3195055E-01
   7142.67  6.2666634E-01
   7143.00  6.2238619E-01
   7143.33  6.1916676E-01
   7143.67  6.1680797E-01
   7144.00  6.1522383E-01
   7144.33  6.1439661E-01
   7144.67  6.1414846E-01
   7145.00  6.1440403E-01
   7145.33  6.1512648E-01
   7145.67  6.1616077E-01
   7146.00  6.1739890E-01
   7146.33  6.1870786E-01
   7146.67  6.1992032E-01
   7147.00  6.2088277E-01
   7147.33  6.2134720E-01
   7147.67  6.2117195E-01
   7148.00  6.2019951E-01
   7148.33  6.1816540E-01
   7148.67  6.1509808E-01
   7149.00  6.1096243E-01
   7149.33  6.0563009E-01
   7149.67  5.9928491E-01
   7150.00  5.9199725E-01
   7150.33  5.8375901E-01
   7150.67  5.7478193E-01
   7151.00  5.6515749E-01
   7151.33  5.5490602E-01
   7151.67  5.4417169E-01
   7152.00  5.3301371E-01
   7152.33  5.2145511E-01
   7152.67  5.0960839E-01
   7153.00  4.9753322E-01
   7153.33  4.8528339E-01
   7153.67  4.7294995E-01
   7154.00  4.6058730E-01
   7154.33  4.4824767E-01
   7154.67  4.3596100E-01
   7155.00  4.2374020E-01
   7155.33  4.1159103E-01
   7155.67  3.9949065E-01
   7156.00  3.8742084E-01
   7156.33  3.7536856E-01
   7156.67  3.6334580E-01
   7157.00  3.5139442E-01
   7157.33  3.3960857E-01
   7157.67  3.2807381E-01
   7158.00  3.1689931E-01
   7158.33  3.0628686E-01
   7158.67  2.9631415E-01
   7159.00  2.8709374E-01
   7159.33  2.7884985E-01
   7159.67  2.7156727E-01
   7160.00  2.6530514E-01
   7160.33  2.6023904E-01
   7160.67  2.5625173E-01
   7161.00  2.5333348E-01
   7161.33  2.5158288E-01
   7161.67  2.5082618E-01
   7162.00  2.5101435E-01
   7162.33  2.5219249E-01
   7162.67  2.5418615E-01
   7163.00  2.5693942E-01
   7163.33  2.6047277E-01
   7163.67  2.6462568E-01
   7164.00  2.6932495E-01
   7164.33  2.7453044E-01
   7164.67  2.8008017E-01
   7165.00  2.8588009E-01
   7165.33  2.9184158E-01
   7165.67  2.9784883E-01
   7166.00  3.0383062E-01
   7166.33  3.0971590E-01
   7166.67  3.1548125E-01
   7167.00  3.2111611E-01
   7167.33  3.2660952E-01
   7167.67  3.3199374E-01
   7168.00  3.3728729E-01
   7168.33  3.4250348E-01
   7168.67  3.4766873E-01
   7169.00  3.5279306E-01
   7169.33  3.5787681E-01
   7169.67  3.6292081E-01
   7170.00  3.6791389E-01
   7170.33  3.7282280E-01
   7170.67  3.7761725E-01
   7171.00  3.8224365E-01
   7171.33  3.8656338E-01
   7171.67  3.9042135E-01
   7172.00  3.9357213E-01
