    FDMNES
    energy     <xanes>
   7097.00  4.8757435E-03
   7097.33  4.9857853E-03
   7097.67  5.1006521E-03
   7098.00  5.2206670E-03
   7098.33  5.3469419E-03
   7098.67  5.4792456E-03
   7099.00  5.6180202E-03
   7099.33  5.7647208E-03
   7099.67  5.9191142E-03
   7100.00  6.0818227E-03
   7100.33  6.2548053E-03
   7100.67  6.4378527E-03
   7101.00  6.6318714E-03
   7101.33  6.8395899E-03
   7101.67  7.0608810E-03
   7102.00  7.2971208E-03
   7102.33  7.5522689E-03
   7102.67  7.8264124E-03
   7103.00  8.1217461E-03
   7103.33  8.4443180E-03
   7103.67  8.7947353E-03
   7104.00  9.1767221E-03
   7104.33  9.6001293E-03
   7104.67  1.0066842E-02
   7105.00  1.0583691E-02
   7105.33  1.1168113E-02
   7105.67  1.1825314E-02
   7106.00  1.2569177E-02
   7106.33  1.3434176E-02
   7106.67  1.4435104E-02
   7107.00  1.5604378E-02
   7107.33  1.7021535E-02
   7107.67  1.8733963E-02
   7108.00  2.0834117E-02
   7108.33  2.3552427E-02
   7108.67  2.7079671E-02
   7109.00  3.1774439E-02
   7109.33  3.8594256E-02
   7109.67  4.8675264E-02
   7110.00  6.4256124E-02
   7110.33  9.1812486E-02
   7110.67  1.3790859E-01
   7111.00  2.0180413E-01
   7111.33  2.5820566E-01
   7111.67  2.8531932E-01
   7112.00  2.7440595E-01
   7112.33  2.3538008E-01
   7112.67  1.9352598E-01
   7113.00  1.6124426E-01
   7113.33  1.4471022E-01
   7113.67  1.4212969E-01
   7114.00  1.5355495E-01
   7114.33  1.7953165E-01
   7114.67  2.0834669E-01
   7115.00  2.2163803E-01
   7115.33  2.0713200E-01
   7115.67  1.8270799E-01
   7116.00  1.6049017E-01
   7116.33  1.4516420E-01
   7116.67  1.3505593E-01
   7117.00  1.2886548E-01
   7117.33  1.2598355E-01
   7117.67  1.2580204E-01
   7118.00  1.2856409E-01
   7118.33  1.3501788E-01
   7118.67  1.4463709E-01
   7119.00  1.5697839E-01
   7119.33  1.7161803E-01
   7119.67  1.8635737E-01
   7120.00  1.9810869E-01
   7120.33  2.0502543E-01
   7120.67  2.1108018E-01
   7121.00  2.1981469E-01
   7121.33  2.3374451E-01
   7121.67  2.5246326E-01
   7122.00  2.7540290E-01
   7122.33  3.0156708E-01
   7122.67  3.2836650E-01
   7123.00  3.5322023E-01
   7123.33  3.7244187E-01
   7123.67  3.8494589E-01
   7124.00  3.9118960E-01
   7124.33  3.9319800E-01
   7124.67  3.9474606E-01
   7125.00  3.9840637E-01
   7125.33  4.0709907E-01
   7125.67  4.2204187E-01
   7126.00  4.4424934E-01
   7126.33  4.7484436E-01
   7126.67  5.1156710E-01
   7127.00  5.5185754E-01
   7127.33  5.9110939E-01
   7127.67  6.2422398E-01
   7128.00  6.4687634E-01
   7128.33  6.5332337E-01
   7128.67  6.4508884E-01
   7129.00  6.2625684E-01
   7129.33  6.0377310E-01
   7129.67  5.8403742E-01
   7130.00  5.6968165E-01
   7130.33  5.6221511E-01
   7130.67  5.6030247E-01
   7131.00  5.6313090E-01
   7131.33  5.7034051E-01
   7131.67  5.8088427E-01
   7132.00  5.9447645E-01
   7132.33  6.1110226E-01
   7132.67  6.2959683E-01
   7133.00  6.4850924E-01
   7133.33  6.6517022E-01
   7133.67  6.7767043E-01
   7134.00  6.8517018E-01
   7134.33  6.8719399E-01
   7134.67  6.8500857E-01
   7135.00  6.7928203E-01
   7135.33  6.7055046E-01
   7135.67  6.6013668E-01
   7136.00  6.4893724E-01
   7136.33  6.3796971E-01
   7136.67  6.2804183E-01
   7137.00  6.1969686E-01
   7137.33  6.1361021E-01
   7137.67  6.0974592E-01
   7138.00  6.0813523E-01
   7138.33  6.0894423E-01
   7138.67  6.1170186E-01
   7139.00  6.1617826E-01
   7139.33  6.2223216E-01
   7139.67  6.2933782E-01
   7140.00  6.3718359E-01
   7140.33  6.4545979E-01
   7140.67  6.5378078E-01
   7141.00  6.6187790E-01
   7141.33  6.6939849E-01
   7141.67  6.7613868E-01
   7142.00  6.8188115E-01
   7142.33  6.8623454E-01
   7142.67  6.8914370E-01
   7143.00  6.9046369E-01
   7143.33  6.8987122E-01
   7143.67  6.8754439E-01
   7144.00  6.8352025E-01
   7144.33  6.7771596E-01
   7144.67  6.7048926E-01
   7145.00  6.6199084E-01
   7145.33  6.5228303E-01
   7145.67  6.4171813E-01
   7146.00  6.3048980E-01
   7146.33  6.1876274E-01
   7146.67  6.0679809E-01
   7147.00  5.9475645E-01
   7147.33  5.8281303E-01
   7147.67  5.7109733E-01
   7148.00  5.5971318E-01
   7148.33  5.4880881E-01
   7148.67  5.3839887E-01
   7149.00  5.2852630E-01
   7149.33  5.1929882E-01
   7149.67  5.1067282E-01
   7150.00  5.0267087E-01
   7150.33  4.9540213E-01
   7150.67  4.8881791E-01
   7151.00  4.8295234E-01
   7151.33  4.7794664E-01
   7151.67  4.7375432E-01
   7152.00  4.7041645E-01
   7152.33  4.6808316E-01
   7152.67  4.6666091E-01
   7153.00  4.6614136E-01
   7153.33  4.6658807E-01
   7153.67  4.6781022E-01
   7154.00  4.6970493E-01
   7154.33  4.7218475E-01
   7154.67  4.7500403E-01
   7155.00  4.7799214E-01
   7155.33  4.8093722E-01
   7155.67  4.8364033E-01
   7156.00  4.8594062E-01
   7156.33  4.8761177E-01
   7156.67  4.8861458E-01
   7157.00  4.8890033E-01
   7157.33  4.8837558E-01
   7157.67  4.8717704E-01
   7158.00  4.8537403E-01
   7158.33  4.8300309E-01
   7158.67  4.8023293E-01
   7159.00  4.7714956E-01
   7159.33  4.7381132E-01
   7159.67  4.7031497E-01
   7160.00  4.6670375E-01
   7160.33  4.6300056E-01
   7160.67  4.5923538E-01
   7161.00  4.5541810E-01
   7161.33  4.5155333E-01
   7161.67  4.4765967E-01
   7162.00  4.4375660E-01
   7162.33  4.3988043E-01
   7162.67  4.3607199E-01
   7163.00  4.3238019E-01
   7163.33  4.2889791E-01
   7163.67  4.2567993E-01
   7164.00  4.2279459E-01
   7164.33  4.2036834E-01
   7164.67  4.1841552E-01
   7165.00  4.1697936E-01
   7165.33  4.1615842E-01
   7165.67  4.1588979E-01
   7166.00  4.1615822E-01
   7166.33  4.1698662E-01
   7166.67  4.1825321E-01
   7167.00  4.1989378E-01
   7167.33  4.2185951E-01
   7167.67  4.2402515E-01
   7168.00  4.2631635E-01
   7168.33  4.2865975E-01
   7168.67  4.3097900E-01
   7169.00  4.3322333E-01
   7169.33  4.3533467E-01
   7169.67  4.3730020E-01
   7170.00  4.3910735E-01
   7170.33  4.4073156E-01
   7170.67  4.4219649E-01
   7171.00  4.4350716E-01
   7171.33  4.4464528E-01
   7171.67  4.4561436E-01
   7172.00  4.4638239E-01
