    FDMNES
    energy     <xanes>
   7097.00  4.8078335E-03
   7097.33  4.9158969E-03
   7097.67  5.0287447E-03
   7098.00  5.1467001E-03
   7098.33  5.2708701E-03
   7098.67  5.4010286E-03
   7099.00  5.5376171E-03
   7099.33  5.6820849E-03
   7099.67  5.8342028E-03
   7100.00  5.9945909E-03
   7100.33  6.1651986E-03
   7100.67  6.3458169E-03
   7101.00  6.5373453E-03
   7101.33  6.7424906E-03
   7101.67  6.9611173E-03
   7102.00  7.1945796E-03
   7102.33  7.4467836E-03
   7102.67  7.7177842E-03
   7103.00  8.0097163E-03
   7103.33  8.3284861E-03
   7103.67  8.6746071E-03
   7104.00  9.0516393E-03
   7104.33  9.4690511E-03
   7104.67  9.9284603E-03
   7105.00  1.0436240E-02
   7105.33  1.1008753E-02
   7105.67  1.1650413E-02
   7106.00  1.2373741E-02
   7106.33  1.3209987E-02
   7106.67  1.4171355E-02
   7107.00  1.5285802E-02
   7107.33  1.6622028E-02
   7107.67  1.8217618E-02
   7108.00  2.0147864E-02
   7108.33  2.2599650E-02
   7108.67  2.5717094E-02
   7109.00  2.9773624E-02
   7109.33  3.5492408E-02
   7109.67  4.3692434E-02
   7110.00  5.5985625E-02
   7110.33  7.6985060E-02
   7110.67  1.1105480E-01
   7111.00  1.5608753E-01
   7111.33  1.8921713E-01
   7111.67  2.1209613E-01
   7112.00  2.4685651E-01
   7112.33  2.9877294E-01
   7112.67  3.5061776E-01
   7113.00  3.9857612E-01
   7113.33  3.9913267E-01
   7113.67  3.2627514E-01
   7114.00  2.3623967E-01
   7114.33  1.8026902E-01
   7114.67  1.5364907E-01
   7115.00  1.4663283E-01
   7115.33  1.5264802E-01
   7115.67  1.6939762E-01
   7116.00  1.8717746E-01
   7116.33  1.8218797E-01
   7116.67  1.5915759E-01
   7117.00  1.3456144E-01
   7117.33  1.1817729E-01
   7117.67  1.0879241E-01
   7118.00  1.0431084E-01
   7118.33  1.0270588E-01
   7118.67  1.0212940E-01
   7119.00  1.0243185E-01
   7119.33  1.0418527E-01
   7119.67  1.0682467E-01
   7120.00  1.0962785E-01
   7120.33  1.1158380E-01
   7120.67  1.1234298E-01
   7121.00  1.1253595E-01
   7121.33  1.1360449E-01
   7121.67  1.1657501E-01
   7122.00  1.2208358E-01
   7122.33  1.3091108E-01
   7122.67  1.4265041E-01
   7123.00  1.5685217E-01
   7123.33  1.7278050E-01
   7123.67  1.8927624E-01
   7124.00  2.0596860E-01
   7124.33  2.2321669E-01
   7124.67  2.4140992E-01
   7125.00  2.6045538E-01
   7125.33  2.7953048E-01
   7125.67  2.9723604E-01
   7126.00  3.1224300E-01
   7126.33  3.2325897E-01
   7126.67  3.3140424E-01
   7127.00  3.3820561E-01
   7127.33  3.4547957E-01
   7127.67  3.5433736E-01
   7128.00  3.6548158E-01
   7128.33  3.8049543E-01
   7128.67  4.0083631E-01
   7129.00  4.2839300E-01
   7129.33  4.6605457E-01
   7129.67  5.1334836E-01
   7130.00  5.6949857E-01
   7130.33  6.3243140E-01
   7130.67  6.9665294E-01
   7131.00  7.5763557E-01
   7131.33  8.1100201E-01
   7131.67  8.5725570E-01
   7132.00  8.9817246E-01
   7132.33  9.3613316E-01
   7132.67  9.7264648E-01
   7133.00  1.0062478E+00
   7133.33  1.0314963E+00
   7133.67  1.0435031E+00
   7134.00  1.0387509E+00
   7134.33  1.0166991E+00
   7134.67  9.8648698E-01
   7135.00  9.5444550E-01
   7135.33  9.2404274E-01
   7135.67  8.9512339E-01
   7136.00  8.6723231E-01
   7136.33  8.4061114E-01
   7136.67  8.1578016E-01
   7137.00  7.9336544E-01
   7137.33  7.7416340E-01
   7137.67  7.5781211E-01
   7138.00  7.4397810E-01
   7138.33  7.3224714E-01
   7138.67  7.2162844E-01
   7139.00  7.1151572E-01
   7139.33  7.0136401E-01
   7139.67  6.9087438E-01
   7140.00  6.7996874E-01
   7140.33  6.6865524E-01
   7140.67  6.5711817E-01
   7141.00  6.4550042E-01
   7141.33  6.3395787E-01
   7141.67  6.2257953E-01
   7142.00  6.1139741E-01
   7142.33  6.0040606E-01
   7142.67  5.8949427E-01
   7143.00  5.7854507E-01
   7143.33  5.6737557E-01
   7143.67  5.5587070E-01
   7144.00  5.4396628E-01
   7144.33  5.3165007E-01
   7144.67  5.1914479E-01
   7145.00  5.0671515E-01
   7145.33  4.9482452E-01
   7145.67  4.8385559E-01
   7146.00  4.7416223E-01
   7146.33  4.6626690E-01
   7146.67  4.6014376E-01
   7147.00  4.5579742E-01
   7147.33  4.5330200E-01
   7147.67  4.5223482E-01
   7148.00  4.5237018E-01
   7148.33  4.5355505E-01
   7148.67  4.5543356E-01
   7149.00  4.5783488E-01
   7149.33  4.6063876E-01
   7149.67  4.6365318E-01
   7150.00  4.6676389E-01
   7150.33  4.6987090E-01
   7150.67  4.7290259E-01
   7151.00  4.7581036E-01
   7151.33  4.7853051E-01
   7151.67  4.8105426E-01
   7152.00  4.8336340E-01
   7152.33  4.8540830E-01
   7152.67  4.8719420E-01
   7153.00  4.8869486E-01
   7153.33  4.8983291E-01
   7153.67  4.9060898E-01
   7154.00  4.9098677E-01
   7154.33  4.9086268E-01
   7154.67  4.9024323E-01
   7155.00  4.8909662E-01
   7155.33  4.8734225E-01
   7155.67  4.8506609E-01
   7156.00  4.8231244E-01
   7156.33  4.7911760E-01
   7156.67  4.7564861E-01
   7157.00  4.7202777E-01
   7157.33  4.6841432E-01
   7157.67  4.6497192E-01
   7158.00  4.6183684E-01
   7158.33  4.5920635E-01
   7158.67  4.5713632E-01
   7159.00  4.5569355E-01
   7159.33  4.5500118E-01
   7159.67  4.5497425E-01
   7160.00  4.5558049E-01
   7160.33  4.5682227E-01
   7160.67  4.5853800E-01
   7161.00  4.6064082E-01
   7161.33  4.6305583E-01
   7161.67  4.6563323E-01
   7162.00  4.6827649E-01
   7162.33  4.7087827E-01
   7162.67  4.7335324E-01
   7163.00  4.7563261E-01
   7163.33  4.7761802E-01
   7163.67  4.7928806E-01
   7164.00  4.8060864E-01
   7164.33  4.8151243E-01
   7164.67  4.8203833E-01
   7165.00  4.8219050E-01
   7165.33  4.8194236E-01
   7165.67  4.8136832E-01
   7166.00  4.8050294E-01
   7166.33  4.7936635E-01
   7166.67  4.7804749E-01
   7167.00  4.7660095E-01
   7167.33  4.7508466E-01
   7167.67  4.7357155E-01
   7168.00  4.7211418E-01
   7168.33  4.7077935E-01
   7168.67  4.6959481E-01
   7169.00  4.6858652E-01
   7169.33  4.6780299E-01
   7169.67  4.6723052E-01
   7170.00  4.6686654E-01
   7170.33  4.6672277E-01
   7170.67  4.6675365E-01
   7171.00  4.6693412E-01
   7171.33  4.6723672E-01
   7171.67  4.6758540E-01
   7172.00  4.6790488E-01
