    FDMNES
    energy     <xanes>
   7097.00  4.6495178E-03
   7097.33  4.7573807E-03
   7097.67  4.8702925E-03
   7098.00  4.9886139E-03
   7098.33  5.1135466E-03
   7098.67  5.2448794E-03
   7099.00  5.3831126E-03
   7099.33  5.5298440E-03
   7099.67  5.6848689E-03
   7100.00  5.8489015E-03
   7100.33  6.0241277E-03
   7100.67  6.2103832E-03
   7101.00  6.4087218E-03
   7101.33  6.6222378E-03
   7101.67  6.8508805E-03
   7102.00  7.0962686E-03
   7102.33  7.3629644E-03
   7102.67  7.6511931E-03
   7103.00  7.9635637E-03
   7103.33  8.3071457E-03
   7103.67  8.6828143E-03
   7104.00  9.0950301E-03
   7104.33  9.5554468E-03
   7104.67  1.0066503E-02
   7105.00  1.0636415E-02
   7105.33  1.1285974E-02
   7105.67  1.2021617E-02
   7106.00  1.2860021E-02
   7106.33  1.3842378E-02
   7106.67  1.4986469E-02
   7107.00  1.6330921E-02
   7107.33  1.7970150E-02
   7107.67  1.9959727E-02
   7108.00  2.2407910E-02
   7108.33  2.5583342E-02
   7108.67  2.9703489E-02
   7109.00  3.5176307E-02
   7109.33  4.3083021E-02
   7109.67  5.4674826E-02
   7110.00  7.2406177E-02
   7110.33  1.0335661E-01
   7110.67  1.5496901E-01
   7111.00  2.2824037E-01
   7111.33  2.9941318E-01
   7111.67  3.4442678E-01
   7112.00  3.5397150E-01
   7112.33  3.3289683E-01
   7112.67  3.0733381E-01
   7113.00  2.9519223E-01
   7113.33  3.0223424E-01
   7113.67  3.0142937E-01
   7114.00  2.6528622E-01
   7114.33  2.0478511E-01
   7114.67  1.5429001E-01
   7115.00  1.1982315E-01
   7115.33  9.8595122E-02
   7115.67  8.4553012E-02
   7116.00  7.5210805E-02
   7116.33  6.9629577E-02
   7116.67  6.6969537E-02
   7117.00  6.6875703E-02
   7117.33  6.8835330E-02
   7117.67  7.1249891E-02
   7118.00  7.3459049E-02
   7118.33  7.6282267E-02
   7118.67  8.0554272E-02
   7119.00  8.6590161E-02
   7119.33  9.4341252E-02
   7119.67  1.0260103E-01
   7120.00  1.1049371E-01
   7120.33  1.1770990E-01
   7120.67  1.2442018E-01
   7121.00  1.3107406E-01
   7121.33  1.3924341E-01
   7121.67  1.5007072E-01
   7122.00  1.6382405E-01
   7122.33  1.8014081E-01
   7122.67  1.9796757E-01
   7123.00  2.1733701E-01
   7123.33  2.3875313E-01
   7123.67  2.6137573E-01
   7124.00  2.8388468E-01
   7124.33  3.0450142E-01
   7124.67  3.2289440E-01
   7125.00  3.3948905E-01
   7125.33  3.5489577E-01
   7125.67  3.6915755E-01
   7126.00  3.8096677E-01
   7126.33  3.8759058E-01
   7126.67  3.8939185E-01
   7127.00  3.8873367E-01
   7127.33  3.8915021E-01
   7127.67  3.9229531E-01
   7128.00  3.9835219E-01
   7128.33  4.0733970E-01
   7128.67  4.1834361E-01
   7129.00  4.3011028E-01
   7129.33  4.4006137E-01
   7129.67  4.4640881E-01
   7130.00  4.4881041E-01
   7130.33  4.4801588E-01
   7130.67  4.4598855E-01
   7131.00  4.4375966E-01
   7131.33  4.4193199E-01
   7131.67  4.4046368E-01
   7132.00  4.3907454E-01
   7132.33  4.3723615E-01
   7132.67  4.3458717E-01
   7133.00  4.3120179E-01
   7133.33  4.2820023E-01
   7133.67  4.2700892E-01
   7134.00  4.2817224E-01
   7134.33  4.3190763E-01
   7134.67  4.3786435E-01
   7135.00  4.4609137E-01
   7135.33  4.5679862E-01
   7135.67  4.6937960E-01
   7136.00  4.8334884E-01
   7136.33  4.9807852E-01
   7136.67  5.1279044E-01
   7137.00  5.2707924E-01
   7137.33  5.4073582E-01
   7137.67  5.5395334E-01
   7138.00  5.6687100E-01
   7138.33  5.7950696E-01
   7138.67  5.9183276E-01
   7139.00  6.0379830E-01
   7139.33  6.1539645E-01
   7139.67  6.2679923E-01
   7140.00  6.3813237E-01
   7140.33  6.4948375E-01
   7140.67  6.6084262E-01
   7141.00  6.7212846E-01
   7141.33  6.8317418E-01
   7141.67  6.9387258E-01
   7142.00  7.0414916E-01
   7142.33  7.1392167E-01
   7142.67  7.2327312E-01
   7143.00  7.3225505E-01
   7143.33  7.4091547E-01
   7143.67  7.4939330E-01
   7144.00  7.5778390E-01
   7144.33  7.6618385E-01
   7144.67  7.7463164E-01
   7145.00  7.8308600E-01
   7145.33  7.9137566E-01
   7145.67  7.9925330E-01
   7146.00  8.0642298E-01
   7146.33  8.1239268E-01
   7146.67  8.1695276E-01
   7147.00  8.1983421E-01
   7147.33  8.2051987E-01
   7147.67  8.1903148E-01
   7148.00  8.1525811E-01
   7148.33  8.0892422E-01
   7148.67  8.0046821E-01
   7149.00  7.9012138E-01
   7149.33  7.7805011E-01
   7149.67  7.6486447E-01
   7150.00  7.5094037E-01
   7150.33  7.3664803E-01
   7150.67  7.2238092E-01
   7151.00  7.0838158E-01
   7151.33  6.9491364E-01
   7151.67  6.8204438E-01
   7152.00  6.6983254E-01
   7152.33  6.5839450E-01
   7152.67  6.4765605E-01
   7153.00  6.3762622E-01
   7153.33  6.2841205E-01
   7153.67  6.1994565E-01
   7154.00  6.1224680E-01
   7154.33  6.0542610E-01
   7154.67  5.9937856E-01
   7155.00  5.9407608E-01
   7155.33  5.8954452E-01
   7155.67  5.8561215E-01
   7156.00  5.8218676E-01
   7156.33  5.7919389E-01
   7156.67  5.7645519E-01
   7157.00  5.7385705E-01
   7157.33  5.7126711E-01
   7157.67  5.6854918E-01
   7158.00  5.6558417E-01
   7158.33  5.6218267E-01
   7158.67  5.5825350E-01
   7159.00  5.5368250E-01
   7159.33  5.4826420E-01
   7159.67  5.4202380E-01
   7160.00  5.3494938E-01
   7160.33  5.2699023E-01
   7160.67  5.1835642E-01
   7161.00  5.0918941E-01
   7161.33  4.9965049E-01
   7161.67  4.8999709E-01
   7162.00  4.8041183E-01
   7162.33  4.7112367E-01
   7162.67  4.6226396E-01
   7163.00  4.5394222E-01
   7163.33  4.4632487E-01
   7163.67  4.3938304E-01
   7164.00  4.3313417E-01
   7164.33  4.2766379E-01
   7164.67  4.2286926E-01
   7165.00  4.1873000E-01
   7165.33  4.1529803E-01
   7165.67  4.1246951E-01
   7166.00  4.1022605E-01
   7166.33  4.0862158E-01
   7166.67  4.0757168E-01
   7167.00  4.0706613E-01
   7167.33  4.0715803E-01
   7167.67  4.0776346E-01
   7168.00  4.0886208E-01
   7168.33  4.1047985E-01
   7168.67  4.1251747E-01
   7169.00  4.1493119E-01
   7169.33  4.1770117E-01
   7169.67  4.2072056E-01
   7170.00  4.2392647E-01
   7170.33  4.2725399E-01
   7170.67  4.3060478E-01
   7171.00  4.3389727E-01
   7171.33  4.3699201E-01
   7171.67  4.3974297E-01
   7172.00  4.4195667E-01
