    FDMNES
    energy     <xanes>
   7097.00  5.0962573E-03
   7097.33  5.2211989E-03
   7097.67  5.3519285E-03
   7098.00  5.4888434E-03
   7098.33  5.6332928E-03
   7098.67  5.7850105E-03
   7099.00  5.9445403E-03
   7099.33  6.1136534E-03
   7099.67  6.2920810E-03
   7100.00  6.4805874E-03
   7100.33  6.6815617E-03
   7100.67  6.8947620E-03
   7101.00  7.1212986E-03
   7101.33  7.3644984E-03
   7101.67  7.6242132E-03
   7102.00  7.9021196E-03
   7102.33  8.2030329E-03
   7102.67  8.5270480E-03
   7103.00  8.8768164E-03
   7103.33  9.2596483E-03
   7103.67  9.6762239E-03
   7104.00  1.0130986E-02
   7104.33  1.0635714E-02
   7104.67  1.1192508E-02
   7105.00  1.1809375E-02
   7105.33  1.2506821E-02
   7105.67  1.3290567E-02
   7106.00  1.4176502E-02
   7106.33  1.5204203E-02
   7106.67  1.6389607E-02
   7107.00  1.7768684E-02
   7107.33  1.9429787E-02
   7107.67  2.1422662E-02
   7108.00  2.3846096E-02
   7108.33  2.6945731E-02
   7108.67  3.0916100E-02
   7109.00  3.6125344E-02
   7109.33  4.3551900E-02
   7109.67  5.4327641E-02
   7110.00  7.0682102E-02
   7110.33  9.8976088E-02
   7110.67  1.4484705E-01
   7111.00  2.0424478E-01
   7111.33  2.5114720E-01
   7111.67  2.8650370E-01
   7112.00  3.1901769E-01
   7112.33  3.4685232E-01
   7112.67  3.6905319E-01
   7113.00  3.7751237E-01
   7113.33  3.6812711E-01
   7113.67  3.5031659E-01
   7114.00  3.2523176E-01
   7114.33  2.8742745E-01
   7114.67  2.4297897E-01
   7115.00  2.0301060E-01
   7115.33  1.7542399E-01
   7115.67  1.5813051E-01
   7116.00  1.4927997E-01
   7116.33  1.4878240E-01
   7116.67  1.5539813E-01
   7117.00  1.6719499E-01
   7117.33  1.7741908E-01
   7117.67  1.8050337E-01
   7118.00  1.7747811E-01
   7118.33  1.7174312E-01
   7118.67  1.6537013E-01
   7119.00  1.5860748E-01
   7119.33  1.5194220E-01
   7119.67  1.4675692E-01
   7120.00  1.4441487E-01
   7120.33  1.4655687E-01
   7120.67  1.5333816E-01
   7121.00  1.6502473E-01
   7121.33  1.8269273E-01
   7121.67  2.0644354E-01
   7122.00  2.3681463E-01
   7122.33  2.7421558E-01
   7122.67  3.1563465E-01
   7123.00  3.5749960E-01
   7123.33  3.9503875E-01
   7123.67  4.2716111E-01
   7124.00  4.5382902E-01
   7124.33  4.7440702E-01
   7124.67  4.8995049E-01
   7125.00  5.0040611E-01
   7125.33  5.0537681E-01
   7125.67  5.0985472E-01
   7126.00  5.1965725E-01
   7126.33  5.4022738E-01
   7126.67  5.7122055E-01
   7127.00  6.1120451E-01
   7127.33  6.5812804E-01
   7127.67  7.0852038E-01
   7128.00  7.5895131E-01
   7128.33  8.0050531E-01
   7128.67  8.2407219E-01
   7129.00  8.2455075E-01
   7129.33  8.0293888E-01
   7129.67  7.7343477E-01
   7130.00  7.4672981E-01
   7130.33  7.2982651E-01
   7130.67  7.1969768E-01
   7131.00  7.1194446E-01
   7131.33  7.0152805E-01
   7131.67  6.8647733E-01
   7132.00  6.6821095E-01
   7132.33  6.5098444E-01
   7132.67  6.3780634E-01
   7133.00  6.2956748E-01
   7133.33  6.2739036E-01
   7133.67  6.3034619E-01
   7134.00  6.3597213E-01
   7134.33  6.3898734E-01
   7134.67  6.3640795E-01
   7135.00  6.2884410E-01
   7135.33  6.1921358E-01
   7135.67  6.1066893E-01
   7136.00  6.0447053E-01
   7136.33  6.0083750E-01
   7136.67  5.9818574E-01
   7137.00  5.9515242E-01
   7137.33  5.9055615E-01
   7137.67  5.8447988E-01
   7138.00  5.7741035E-01
   7138.33  5.7007319E-01
   7138.67  5.6306246E-01
   7139.00  5.5658606E-01
   7139.33  5.5066513E-01
   7139.67  5.4500199E-01
   7140.00  5.3932776E-01
   7140.33  5.3330557E-01
   7140.67  5.2675843E-01
   7141.00  5.1959492E-01
   7141.33  5.1174495E-01
   7141.67  5.0339299E-01
   7142.00  4.9468606E-01
   7142.33  4.8580101E-01
   7142.67  4.7694988E-01
   7143.00  4.6827778E-01
   7143.33  4.5996127E-01
   7143.67  4.5206389E-01
   7144.00  4.4465122E-01
   7144.33  4.3784759E-01
   7144.67  4.3162866E-01
   7145.00  4.2602517E-01
   7145.33  4.2114427E-01
   7145.67  4.1691469E-01
   7146.00  4.1332250E-01
   7146.33  4.1040242E-01
   7146.67  4.0803383E-01
   7147.00  4.0618166E-01
   7147.33  4.0486273E-01
   7147.67  4.0397236E-01
   7148.00  4.0347073E-01
   7148.33  4.0335381E-01
   7148.67  4.0353270E-01
   7149.00  4.0397011E-01
   7149.33  4.0465157E-01
   7149.67  4.0550987E-01
   7150.00  4.0651294E-01
   7150.33  4.0763667E-01
   7150.67  4.0882876E-01
   7151.00  4.1005627E-01
   7151.33  4.1128645E-01
   7151.67  4.1250085E-01
   7152.00  4.1370491E-01
   7152.33  4.1494182E-01
   7152.67  4.1628190E-01
   7153.00  4.1780358E-01
   7153.33  4.1961777E-01
   7153.67  4.2171755E-01
   7154.00  4.2405867E-01
   7154.33  4.2652076E-01
   7154.67  4.2889712E-01
   7155.00  4.3101192E-01
   7155.33  4.3263397E-01
   7155.67  4.3369762E-01
   7156.00  4.3415128E-01
   7156.33  4.3391396E-01
   7156.67  4.3310647E-01
   7157.00  4.3179324E-01
   7157.33  4.3001445E-01
   7157.67  4.2791802E-01
   7158.00  4.2558107E-01
   7158.33  4.2306145E-01
   7158.67  4.2044322E-01
   7159.00  4.1776985E-01
   7159.33  4.1507894E-01
   7159.67  4.1240338E-01
   7160.00  4.0976553E-01
   7160.33  4.0719654E-01
   7160.67  4.0471129E-01
   7161.00  4.0232883E-01
   7161.33  4.0008660E-01
   7161.67  3.9798991E-01
   7162.00  3.9605682E-01
   7162.33  3.9433379E-01
   7162.67  3.9281845E-01
   7163.00  3.9151872E-01
   7163.33  3.9046249E-01
   7163.67  3.8961676E-01
   7164.00  3.8896842E-01
   7164.33  3.8851598E-01
   7164.67  3.8821048E-01
   7165.00  3.8802928E-01
   7165.33  3.8796240E-01
   7165.67  3.8797953E-01
   7166.00  3.8806944E-01
   7166.33  3.8822977E-01
   7166.67  3.8844389E-01
   7167.00  3.8870481E-01
   7167.33  3.8901181E-01
   7167.67  3.8935874E-01
   7168.00  3.8974978E-01
   7168.33  3.9020301E-01
   7168.67  3.9072848E-01
   7169.00  3.9134385E-01
   7169.33  3.9208479E-01
   7169.67  3.9295644E-01
   7170.00  3.9396975E-01
   7170.33  3.9514559E-01
   7170.67  3.9645368E-01
   7171.00  3.9786750E-01
   7171.33  3.9933360E-01
   7171.67  4.0073442E-01
   7172.00  4.0192155E-01
