    FDMNES
    energy     <xanes>
   7097.00  5.3253542E-03
   7097.33  5.4588879E-03
   7097.67  5.5987242E-03
   7098.00  5.7452950E-03
   7098.33  5.9000665E-03
   7098.67  6.0627450E-03
   7099.00  6.2339163E-03
   7099.33  6.4154953E-03
   7099.67  6.6071765E-03
   7100.00  6.8097736E-03
   7100.33  7.0258465E-03
   7100.67  7.2551015E-03
   7101.00  7.4987000E-03
   7101.33  7.7601586E-03
   7101.67  8.0392475E-03
   7102.00  8.3376785E-03
   7102.33  8.6604398E-03
   7102.67  9.0074792E-03
   7103.00  9.3814171E-03
   7103.33  9.7896063E-03
   7103.67  1.0232423E-02
   7104.00  1.0714066E-02
   7104.33  1.1245896E-02
   7104.67  1.1829289E-02
   7105.00  1.2471368E-02
   7105.33  1.3190746E-02
   7105.67  1.3991198E-02
   7106.00  1.4885715E-02
   7106.33  1.5907225E-02
   7106.67  1.7065632E-02
   7107.00  1.8387070E-02
   7107.33  1.9936274E-02
   7107.67  2.1740810E-02
   7108.00  2.3861315E-02
   7108.33  2.6447014E-02
   7108.67  2.9588121E-02
   7109.00  3.3462806E-02
   7109.33  3.8525293E-02
   7109.67  4.5190466E-02
   7110.00  5.4266233E-02
   7110.33  6.7939518E-02
   7110.67  8.7849739E-02
   7111.00  1.1291994E-01
   7111.33  1.4022462E-01
   7111.67  1.7852096E-01
   7112.00  2.3645984E-01
   7112.33  3.2902998E-01
   7112.67  4.6872091E-01
   7113.00  6.6768980E-01
   7113.33  8.5982778E-01
   7113.67  8.8314106E-01
   7114.00  7.4138902E-01
   7114.33  5.6644230E-01
   7114.67  4.3148523E-01
   7115.00  3.3968731E-01
   7115.33  2.8230430E-01
   7115.67  2.4460467E-01
   7116.00  2.2069032E-01
   7116.33  2.0764220E-01
   7116.67  2.0157534E-01
   7117.00  2.0007958E-01
   7117.33  1.9905936E-01
   7117.67  1.9426235E-01
   7118.00  1.8476933E-01
   7118.33  1.7287775E-01
   7118.67  1.6128273E-01
   7119.00  1.5048993E-01
   7119.33  1.4054336E-01
   7119.67  1.3134347E-01
   7120.00  1.2319597E-01
   7120.33  1.1703123E-01
   7120.67  1.1316879E-01
   7121.00  1.1157441E-01
   7121.33  1.1193070E-01
   7121.67  1.1333202E-01
   7122.00  1.1539665E-01
   7122.33  1.1806772E-01
   7122.67  1.2122835E-01
   7123.00  1.2477920E-01
   7123.33  1.2865846E-01
   7123.67  1.3282016E-01
   7124.00  1.3732922E-01
   7124.33  1.4240337E-01
   7124.67  1.4821997E-01
   7125.00  1.5505978E-01
   7125.33  1.6354100E-01
   7125.67  1.7406887E-01
   7126.00  1.8731367E-01
   7126.33  2.0478365E-01
   7126.67  2.2734031E-01
   7127.00  2.5624575E-01
   7127.33  2.9353952E-01
   7127.67  3.3774349E-01
   7128.00  3.8556952E-01
   7128.33  4.2925329E-01
   7128.67  4.6226830E-01
   7129.00  4.8252930E-01
   7129.33  4.9136346E-01
   7129.67  4.9583973E-01
   7130.00  5.0087229E-01
   7130.33  5.1024618E-01
   7130.67  5.2462188E-01
   7131.00  5.4430656E-01
   7131.33  5.7041972E-01
   7131.67  6.0303905E-01
   7132.00  6.4314561E-01
   7132.33  6.9315672E-01
   7132.67  7.5322039E-01
   7133.00  8.2401564E-01
   7133.33  9.0606229E-01
   7133.67  9.9350947E-01
   7134.00  1.0774703E+00
   7134.33  1.1406777E+00
   7134.67  1.1727476E+00
   7135.00  1.1707423E+00
   7135.33  1.1368682E+00
   7135.67  1.0841997E+00
   7136.00  1.0201435E+00
   7136.33  9.5063868E-01
   7136.67  8.8089537E-01
   7137.00  8.1365464E-01
   7137.33  7.5159051E-01
   7137.67  6.9535107E-01
   7138.00  6.4550938E-01
   7138.33  6.0319670E-01
   7138.67  5.6760990E-01
   7139.00  5.3867443E-01
   7139.33  5.1702500E-01
   7139.67  5.0155269E-01
   7140.00  4.9187399E-01
   7140.33  4.8802459E-01
   7140.67  4.8858270E-01
   7141.00  4.9278943E-01
   7141.33  5.0005014E-01
   7141.67  5.0911243E-01
   7142.00  5.1926684E-01
   7142.33  5.2988042E-01
   7142.67  5.4040878E-01
   7143.00  5.5058900E-01
   7143.33  5.6021976E-01
   7143.67  5.6935019E-01
   7144.00  5.7802158E-01
   7144.33  5.8623108E-01
   7144.67  5.9402900E-01
   7145.00  6.0135033E-01
   7145.33  6.0796888E-01
   7145.67  6.1376560E-01
   7146.00  6.1855907E-01
   7146.33  6.2200696E-01
   7146.67  6.2411641E-01
   7147.00  6.2482378E-01
   7147.33  6.2395960E-01
   7147.67  6.2178773E-01
   7148.00  6.1844264E-01
   7148.33  6.1400952E-01
   7148.67  6.0884634E-01
   7149.00  6.0316381E-01
   7149.33  5.9716223E-01
   7149.67  5.9108968E-01
   7150.00  5.8510179E-01
   7150.33  5.7936681E-01
   7150.67  5.7395390E-01
   7151.00  5.6891662E-01
   7151.33  5.6433803E-01
   7151.67  5.6017355E-01
   7152.00  5.5641420E-01
   7152.33  5.5308821E-01
   7152.67  5.5012392E-01
   7153.00  5.4750263E-01
   7153.33  5.4524895E-01
   7153.67  5.4331372E-01
   7154.00  5.4169663E-01
   7154.33  5.4044450E-01
   7154.67  5.3952712E-01
   7155.00  5.3895385E-01
   7155.33  5.3877736E-01
   7155.67  5.3895619E-01
   7156.00  5.3948323E-01
   7156.33  5.4037651E-01
   7156.67  5.4156374E-01
   7157.00  5.4301251E-01
   7157.33  5.4470427E-01
   7157.67  5.4655877E-01
   7158.00  5.4852630E-01
   7158.33  5.5055393E-01
   7158.67  5.5257528E-01
   7159.00  5.5453984E-01
   7159.33  5.5637682E-01
   7159.67  5.5804699E-01
   7160.00  5.5950682E-01
   7160.33  5.6067388E-01
   7160.67  5.6153196E-01
   7161.00  5.6204140E-01
   7161.33  5.6210934E-01
   7161.67  5.6174128E-01
   7162.00  5.6089902E-01
   7162.33  5.5947541E-01
   7162.67  5.5749800E-01
   7163.00  5.5494120E-01
   7163.33  5.5170794E-01
   7163.67  5.4786009E-01
   7164.00  5.4339464E-01
   7164.33  5.3824246E-01
   7164.67  5.3249878E-01
   7165.00  5.2618968E-01
   7165.33  5.1929148E-01
   7165.67  5.1192385E-01
   7166.00  5.0414268E-01
   7166.33  4.9597849E-01
   7166.67  4.8755435E-01
   7167.00  4.7894312E-01
   7167.33  4.7021661E-01
   7167.67  4.6147170E-01
   7168.00  4.5278033E-01
   7168.33  4.4423980E-01
   7168.67  4.3590964E-01
   7169.00  4.2785290E-01
   7169.33  4.2018197E-01
   7169.67  4.1291743E-01
   7170.00  4.0610859E-01
   7170.33  3.9987089E-01
   7170.67  3.9418692E-01
   7171.00  3.8909274E-01
   7171.33  3.8471352E-01
   7171.67  3.8103787E-01
   7172.00  3.7814480E-01
