    FDMNES
    energy     <xanes>
   7097.00  5.1945441E-03
   7097.33  5.3169833E-03
   7097.67  5.4450132E-03
   7098.00  5.5790138E-03
   7098.33  5.7202819E-03
   7098.67  5.8685549E-03
   7099.00  6.0243504E-03
   7099.33  6.1893645E-03
   7099.67  6.3633279E-03
   7100.00  6.5469640E-03
   7100.33  6.7425483E-03
   7100.67  6.9498298E-03
   7101.00  7.1698510E-03
   7101.33  7.4057577E-03
   7101.67  7.6573733E-03
   7102.00  7.9262550E-03
   7102.33  8.2169123E-03
   7102.67  8.5293668E-03
   7103.00  8.8660476E-03
   7103.33  9.2337113E-03
   7103.67  9.6328587E-03
   7104.00  1.0067488E-02
   7104.33  1.0548297E-02
   7104.67  1.1076937E-02
   7105.00  1.1660450E-02
   7105.33  1.2317023E-02
   7105.67  1.3051191E-02
   7106.00  1.3876514E-02
   7106.33  1.4826992E-02
   7106.67  1.5915074E-02
   7107.00  1.7170271E-02
   7107.33  1.8665275E-02
   7107.67  2.0437727E-02
   7108.00  2.2564511E-02
   7108.33  2.5236043E-02
   7108.67  2.8592075E-02
   7109.00  3.2899122E-02
   7109.33  3.8854816E-02
   7109.67  4.7212967E-02
   7110.00  5.9449302E-02
   7110.33  7.9795034E-02
   7110.67  1.1288721E-01
   7111.00  1.6071257E-01
   7111.33  2.1049239E-01
   7111.67  2.4733517E-01
   7112.00  2.7327264E-01
   7112.33  2.9737146E-01
   7112.67  3.2473802E-01
   7113.00  3.6200771E-01
   7113.33  4.1226994E-01
   7113.67  4.5206988E-01
   7114.00  4.5600925E-01
   7114.33  4.1678613E-01
   7114.67  3.6450301E-01
   7115.00  3.1794953E-01
   7115.33  2.8613382E-01
   7115.67  2.6611327E-01
   7116.00  2.5425660E-01
   7116.33  2.4554594E-01
   7116.67  2.3427347E-01
   7117.00  2.1733933E-01
   7117.33  1.9566235E-01
   7117.67  1.7504988E-01
   7118.00  1.5846419E-01
   7118.33  1.4683231E-01
   7118.67  1.3849951E-01
   7119.00  1.3241672E-01
   7119.33  1.2789796E-01
   7119.67  1.2437486E-01
   7120.00  1.2173944E-01
   7120.33  1.2000619E-01
   7120.67  1.1904647E-01
   7121.00  1.1888234E-01
   7121.33  1.1953999E-01
   7121.67  1.2092332E-01
   7122.00  1.2328709E-01
   7122.33  1.2736802E-01
   7122.67  1.3359684E-01
   7123.00  1.4251743E-01
   7123.33  1.5519095E-01
   7123.67  1.7165416E-01
   7124.00  1.9177026E-01
   7124.33  2.1458560E-01
   7124.67  2.3763799E-01
   7125.00  2.5965747E-01
   7125.33  2.8156688E-01
   7125.67  3.0551964E-01
   7126.00  3.3175444E-01
   7126.33  3.5813792E-01
   7126.67  3.8253134E-01
   7127.00  4.0554725E-01
   7127.33  4.2976285E-01
   7127.67  4.5603783E-01
   7128.00  4.8357201E-01
   7128.33  5.1087958E-01
   7128.67  5.3730882E-01
   7129.00  5.6321278E-01
   7129.33  5.8908136E-01
   7129.67  6.1397034E-01
   7130.00  6.3608031E-01
   7130.33  6.5464218E-01
   7130.67  6.7235157E-01
   7131.00  6.9111904E-01
   7131.33  7.1157669E-01
   7131.67  7.3274362E-01
   7132.00  7.5380455E-01
   7132.33  7.7399308E-01
   7132.67  7.9308330E-01
   7133.00  8.1111826E-01
   7133.33  8.2845912E-01
   7133.67  8.4573220E-01
   7134.00  8.6309312E-01
   7134.33  8.7990973E-01
   7134.67  8.9434314E-01
   7135.00  9.0320392E-01
   7135.33  9.0054660E-01
   7135.67  8.8480245E-01
   7136.00  8.5661748E-01
   7136.33  8.1858682E-01
   7136.67  7.7648217E-01
   7137.00  7.3374224E-01
   7137.33  6.9342844E-01
   7137.67  6.5692036E-01
   7138.00  6.2500538E-01
   7138.33  5.9878071E-01
   7138.67  5.7774189E-01
   7139.00  5.6176685E-01
   7139.33  5.5102843E-01
   7139.67  5.4429089E-01
   7140.00  5.4087828E-01
   7140.33  5.4031104E-01
   7140.67  5.4157499E-01
   7141.00  5.4418836E-01
   7141.33  5.4783409E-01
   7141.67  5.5207151E-01
   7142.00  5.5667134E-01
   7142.33  5.6140448E-01
   7142.67  5.6600902E-01
   7143.00  5.7025160E-01
   7143.33  5.7374383E-01
   7143.67  5.7624162E-01
   7144.00  5.7747337E-01
   7144.33  5.7699100E-01
   7144.67  5.7483968E-01
   7145.00  5.7100917E-01
   7145.33  5.6542511E-01
   7145.67  5.5851405E-01
   7146.00  5.5052697E-01
   7146.33  5.4167890E-01
   7146.67  5.3236567E-01
   7147.00  5.2282479E-01
   7147.33  5.1331073E-01
   7147.67  5.0405009E-01
   7148.00  4.9522468E-01
   7148.33  4.8708544E-01
   7148.67  4.7966777E-01
   7149.00  4.7303428E-01
   7149.33  4.6734028E-01
   7149.67  4.6250366E-01
   7150.00  4.5851985E-01
   7150.33  4.5546362E-01
   7150.67  4.5318267E-01
   7151.00  4.5162079E-01
   7151.33  4.5078359E-01
   7151.67  4.5051416E-01
   7152.00  4.5074794E-01
   7152.33  4.5146558E-01
   7152.67  4.5254532E-01
   7153.00  4.5393363E-01
   7153.33  4.5560591E-01
   7153.67  4.5748232E-01
   7154.00  4.5952883E-01
   7154.33  4.6173440E-01
   7154.67  4.6406616E-01
   7155.00  4.6652167E-01
   7155.33  4.6912454E-01
   7155.67  4.7187489E-01
   7156.00  4.7479435E-01
   7156.33  4.7793917E-01
   7156.67  4.8131673E-01
   7157.00  4.8495313E-01
   7157.33  4.8891335E-01
   7157.67  4.9318743E-01
   7158.00  4.9779325E-01
   7158.33  5.0278752E-01
   7158.67  5.0813017E-01
   7159.00  5.1381364E-01
   7159.33  5.1985590E-01
   7159.67  5.2617952E-01
   7160.00  5.3273865E-01
   7160.33  5.3948503E-01
   7160.67  5.4631245E-01
   7161.00  5.5313511E-01
   7161.33  5.5982586E-01
   7161.67  5.6628069E-01
   7162.00  5.7240036E-01
   7162.33  5.7801863E-01
   7162.67  5.8309032E-01
   7163.00  5.8755000E-01
   7163.33  5.9126458E-01
   7163.67  5.9428521E-01
   7164.00  5.9659392E-01
   7164.33  5.9808444E-01
   7164.67  5.9883425E-01
   7165.00  5.9883077E-01
   7165.33  5.9796266E-01
   7165.67  5.9631458E-01
   7166.00  5.9388468E-01
   7166.33  5.9058986E-01
   7166.67  5.8656122E-01
   7167.00  5.8184787E-01
   7167.33  5.7645023E-01
   7167.67  5.7053921E-01
   7168.00  5.6421291E-01
   7168.33  5.5755861E-01
   7168.67  5.5072461E-01
   7169.00  5.4379514E-01
   7169.33  5.3685720E-01
   7169.67  5.2998942E-01
   7170.00  5.2325122E-01
   7170.33  5.1673064E-01
   7170.67  5.1046946E-01
   7171.00  5.0453736E-01
   7171.33  4.9911163E-01
   7171.67  4.9434436E-01
   7172.00  4.9049912E-01
