    FDMNES
    energy     <xanes>
   7097.00  4.8682682E-03
   7097.33  4.9830246E-03
   7097.67  5.1030504E-03
   7098.00  5.2287123E-03
   7098.33  5.3612482E-03
   7098.67  5.5004242E-03
   7099.00  5.6467459E-03
   7099.33  5.8018478E-03
   7099.67  5.9654984E-03
   7100.00  6.1384148E-03
   7100.33  6.3228168E-03
   7100.67  6.5185072E-03
   7101.00  6.7265370E-03
   7101.33  6.9500246E-03
   7101.67  7.1888760E-03
   7102.00  7.4446947E-03
   7102.33  7.7220416E-03
   7102.67  8.0210807E-03
   7103.00  8.3443780E-03
   7103.33  8.6989423E-03
   7103.67  9.0855511E-03
   7104.00  9.5085616E-03
   7104.33  9.9794291E-03
   7104.67  1.0500414E-02
   7105.00  1.1079488E-02
   7105.33  1.1736918E-02
   7105.67  1.2478766E-02
   7106.00  1.3321112E-02
   7106.33  1.4303803E-02
   7106.67  1.5443705E-02
   7107.00  1.6777894E-02
   7107.33  1.8397192E-02
   7107.67  2.0354616E-02
   7108.00  2.2754026E-02
   7108.33  2.5853717E-02
   7108.67  2.9863350E-02
   7109.00  3.5177797E-02
   7109.33  4.2848829E-02
   7109.67  5.4110112E-02
   7110.00  7.1392736E-02
   7110.33  1.0168670E-01
   7110.67  1.5163212E-01
   7111.00  2.1818137E-01
   7111.33  2.6913748E-01
   7111.67  2.9619478E-01
   7112.00  3.1502440E-01
   7112.33  3.3197392E-01
   7112.67  3.3356976E-01
   7113.00  3.2792646E-01
   7113.33  3.3104279E-01
   7113.67  3.2346093E-01
   7114.00  2.9136684E-01
   7114.33  2.4069762E-01
   7114.67  1.9213188E-01
   7115.00  1.5388804E-01
   7115.33  1.2765296E-01
   7115.67  1.0958797E-01
   7116.00  9.7549313E-02
   7116.33  9.0107875E-02
   7116.67  8.5508290E-02
   7117.00  8.3132450E-02
   7117.33  8.2786912E-02
   7117.67  8.4016252E-02
   7118.00  8.6757420E-02
   7118.33  9.1122280E-02
   7118.67  9.6243161E-02
   7119.00  1.0081718E-01
   7119.33  1.0364990E-01
   7119.67  1.0495087E-01
   7120.00  1.0523516E-01
   7120.33  1.0583331E-01
   7120.67  1.0783520E-01
   7121.00  1.1164049E-01
   7121.33  1.1787165E-01
   7121.67  1.2681144E-01
   7122.00  1.3905451E-01
   7122.33  1.5587453E-01
   7122.67  1.7737380E-01
   7123.00  2.0354251E-01
   7123.33  2.3367481E-01
   7123.67  2.6503454E-01
   7124.00  2.9521421E-01
   7124.33  3.2104325E-01
   7124.67  3.4146678E-01
   7125.00  3.5701335E-01
   7125.33  3.6981952E-01
   7125.67  3.8296995E-01
   7126.00  3.9829880E-01
   7126.33  4.1767725E-01
   7126.67  4.4120833E-01
   7127.00  4.6844230E-01
   7127.33  4.9791381E-01
   7127.67  5.2698241E-01
   7128.00  5.5411668E-01
   7128.33  5.7905835E-01
   7128.67  6.0371056E-01
   7129.00  6.2991457E-01
   7129.33  6.5970453E-01
   7129.67  6.9296784E-01
   7130.00  7.2849064E-01
   7130.33  7.6306199E-01
   7130.67  7.9205161E-01
   7131.00  8.1091305E-01
   7131.33  8.1522838E-01
   7131.67  8.0928862E-01
   7132.00  7.9881971E-01
   7132.33  7.9069425E-01
   7132.67  7.8820940E-01
   7133.00  7.9166078E-01
   7133.33  8.0011466E-01
   7133.67  8.1088979E-01
   7134.00  8.2177161E-01
   7134.33  8.2911799E-01
   7134.67  8.3062815E-01
   7135.00  8.2577924E-01
   7135.33  8.1549238E-01
   7135.67  8.0308361E-01
   7136.00  7.9085517E-01
   7136.33  7.8091671E-01
   7136.67  7.7367932E-01
   7137.00  7.6882090E-01
   7137.33  7.6538033E-01
   7137.67  7.6169599E-01
   7138.00  7.5650775E-01
   7138.33  7.4841087E-01
   7138.67  7.3729574E-01
   7139.00  7.2333656E-01
   7139.33  7.0689928E-01
   7139.67  6.8902179E-01
   7140.00  6.7023513E-01
   7140.33  6.5089816E-01
   7140.67  6.3135880E-01
   7141.00  6.1186231E-01
   7141.33  5.9285324E-01
   7141.67  5.7481282E-01
   7142.00  5.5828008E-01
   7142.33  5.4413551E-01
   7142.67  5.3257467E-01
   7143.00  5.2376374E-01
   7143.33  5.1788192E-01
   7143.67  5.1412542E-01
   7144.00  5.1192728E-01
   7144.33  5.1073733E-01
   7144.67  5.0993058E-01
   7145.00  5.0923543E-01
   7145.33  5.0849923E-01
   7145.67  5.0769225E-01
   7146.00  5.0682761E-01
   7146.33  5.0593467E-01
   7146.67  5.0505908E-01
   7147.00  5.0424050E-01
   7147.33  5.0353040E-01
   7147.67  5.0294290E-01
   7148.00  5.0248939E-01
   7148.33  5.0218845E-01
   7148.67  5.0200450E-01
   7149.00  5.0190679E-01
   7149.33  5.0185433E-01
   7149.67  5.0179087E-01
   7150.00  5.0167348E-01
   7150.33  5.0144765E-01
   7150.67  5.0109701E-01
   7151.00  5.0061164E-01
   7151.33  4.9998303E-01
   7151.67  4.9925467E-01
   7152.00  4.9846373E-01
   7152.33  4.9766323E-01
   7152.67  4.9691322E-01
   7153.00  4.9626157E-01
   7153.33  4.9577059E-01
   7153.67  4.9544780E-01
   7154.00  4.9529567E-01
   7154.33  4.9530999E-01
   7154.67  4.9542020E-01
   7155.00  4.9555928E-01
   7155.33  4.9561963E-01
   7155.67  4.9549534E-01
   7156.00  4.9508152E-01
   7156.33  4.9420525E-01
   7156.67  4.9280616E-01
   7157.00  4.9080270E-01
   7157.33  4.8803852E-01
   7157.67  4.8455713E-01
   7158.00  4.8035180E-01
   7158.33  4.7536348E-01
   7158.67  4.6974662E-01
   7159.00  4.6358967E-01
   7159.33  4.5697324E-01
   7159.67  4.5009982E-01
   7160.00  4.4310708E-01
   7160.33  4.3615948E-01
   7160.67  4.2939938E-01
   7161.00  4.2293468E-01
   7161.33  4.1691354E-01
   7161.67  4.1135792E-01
   7162.00  4.0630808E-01
   7162.33  4.0184978E-01
   7162.67  3.9790763E-01
   7163.00  3.9445843E-01
   7163.33  3.9152675E-01
   7163.67  3.8901295E-01
   7164.00  3.8687487E-01
   7164.33  3.8510215E-01
   7164.67  3.8360632E-01
   7165.00  3.8235296E-01
   7165.33  3.8134045E-01
   7165.67  3.8052754E-01
   7166.00  3.7991148E-01
   7166.33  3.7952208E-01
   7166.67  3.7934229E-01
   7167.00  3.7937931E-01
   7167.33  3.7966615E-01
   7167.67  3.8017302E-01
   7168.00  3.8089121E-01
   7168.33  3.8182828E-01
   7168.67  3.8293891E-01
   7169.00  3.8420253E-01
   7169.33  3.8560969E-01
   7169.67  3.8711922E-01
   7170.00  3.8871030E-01
   7170.33  3.9036637E-01
   7170.67  3.9205425E-01
   7171.00  3.9374526E-01
   7171.33  3.9538133E-01
   7171.67  3.9687533E-01
   7172.00  3.9810394E-01
