    FDMNES
    energy     <xanes>
   7097.00  4.3779931E-03
   7097.33  4.4697458E-03
   7097.67  4.5652362E-03
   7098.00  4.6647020E-03
   7098.33  4.7689833E-03
   7098.67  4.8778841E-03
   7099.00  4.9917263E-03
   7099.33  5.1115967E-03
   7099.67  5.2372937E-03
   7100.00  5.3692659E-03
   7100.33  5.5089586E-03
   7100.67  5.6561814E-03
   7101.00  5.8115811E-03
   7101.33  5.9771443E-03
   7101.67  6.1527297E-03
   7102.00  6.3393077E-03
   7102.33  6.5397215E-03
   7102.67  6.7539638E-03
   7103.00  6.9835626E-03
   7103.33  7.2327925E-03
   7103.67  7.5019759E-03
   7104.00  7.7936649E-03
   7104.33  8.1146945E-03
   7104.67  8.4661916E-03
   7105.00  8.8527439E-03
   7105.33  9.2861715E-03
   7105.67  9.7696521E-03
   7106.00  1.0312251E-02
   7106.33  1.0936619E-02
   7106.67  1.1651650E-02
   7107.00  1.2477675E-02
   7107.33  1.3464613E-02
   7107.67  1.4639776E-02
   7108.00  1.6057667E-02
   7108.33  1.7852972E-02
   7108.67  2.0127509E-02
   7109.00  2.3072889E-02
   7109.33  2.7187879E-02
   7109.67  3.3008717E-02
   7110.00  4.1574082E-02
   7110.33  5.5868455E-02
   7110.67  7.9593923E-02
   7111.00  1.1682994E-01
   7111.33  1.6640031E-01
   7111.67  2.0981246E-01
   7112.00  2.3282545E-01
   7112.33  2.3933066E-01
   7112.67  2.3179350E-01
   7113.00  2.0077469E-01
   7113.33  1.6067276E-01
   7113.67  1.3104726E-01
   7114.00  1.1136459E-01
   7114.33  9.4565270E-02
   7114.67  8.0788985E-02
   7115.00  7.1731137E-02
   7115.33  6.6657244E-02
   7115.67  6.3370002E-02
   7116.00  6.1220591E-02
   7116.33  6.0533508E-02
   7116.67  6.1227573E-02
   7117.00  6.3061730E-02
   7117.33  6.5673537E-02
   7117.67  6.8715722E-02
   7118.00  7.2366978E-02
   7118.33  7.7181856E-02
   7118.67  8.3368765E-02
   7119.00  9.1152091E-02
   7119.33  1.0101371E-01
   7119.67  1.1294386E-01
   7120.00  1.2709468E-01
   7120.33  1.4388127E-01
   7120.67  1.6304205E-01
   7121.00  1.8451594E-01
   7121.33  2.0840880E-01
   7121.67  2.3415644E-01
   7122.00  2.6128892E-01
   7122.33  2.8896968E-01
   7122.67  3.1606982E-01
   7123.00  3.4185993E-01
   7123.33  3.6558474E-01
   7123.67  3.8707075E-01
   7124.00  4.0633539E-01
   7124.33  4.2378908E-01
   7124.67  4.3969368E-01
   7125.00  4.5264735E-01
   7125.33  4.6018741E-01
   7125.67  4.6418974E-01
   7126.00  4.6722950E-01
   7126.33  4.7085814E-01
   7126.67  4.7491964E-01
   7127.00  4.7929251E-01
   7127.33  4.8470591E-01
   7127.67  4.9209389E-01
   7128.00  5.0178650E-01
   7128.33  5.1301863E-01
   7128.67  5.2400516E-01
   7129.00  5.3387172E-01
   7129.33  5.4251999E-01
   7129.67  5.5066351E-01
   7130.00  5.5862903E-01
   7130.33  5.6647010E-01
   7130.67  5.7447164E-01
   7131.00  5.8331279E-01
   7131.33  5.9414322E-01
   7131.67  6.0736587E-01
   7132.00  6.2326084E-01
   7132.33  6.4210296E-01
   7132.67  6.6263515E-01
   7133.00  6.8333197E-01
   7133.33  7.0220253E-01
   7133.67  7.1841055E-01
   7134.00  7.3170410E-01
   7134.33  7.4183433E-01
   7134.67  7.4921847E-01
   7135.00  7.5356052E-01
   7135.33  7.5382367E-01
   7135.67  7.5034373E-01
   7136.00  7.4367292E-01
   7136.33  7.3461606E-01
   7136.67  7.2449528E-01
   7137.00  7.1399157E-01
   7137.33  7.0359622E-01
   7137.67  6.9350712E-01
   7138.00  6.8376809E-01
   7138.33  6.7440971E-01
   7138.67  6.6538928E-01
   7139.00  6.5673740E-01
   7139.33  6.4856890E-01
   7139.67  6.4089807E-01
   7140.00  6.3377407E-01
   7140.33  6.2730512E-01
   7140.67  6.2142862E-01
   7141.00  6.1613712E-01
   7141.33  6.1148115E-01
   7141.67  6.0736647E-01
   7142.00  6.0377514E-01
   7142.33  6.0075453E-01
   7142.67  5.9823036E-01
   7143.00  5.9619662E-01
   7143.33  5.9471047E-01
   7143.67  5.9371209E-01
   7144.00  5.9320724E-01
   7144.33  5.9326931E-01
   7144.67  5.9384642E-01
   7145.00  5.9495157E-01
   7145.33  5.9667325E-01
   7145.67  5.9895913E-01
   7146.00  6.0181084E-01
   7146.33  6.0527205E-01
   7146.67  6.0920723E-01
   7147.00  6.1351333E-01
   7147.33  6.1804625E-01
   7147.67  6.2255799E-01
   7148.00  6.2681940E-01
   7148.33  6.3046620E-01
   7148.67  6.3326010E-01
   7149.00  6.3494988E-01
   7149.33  6.3512400E-01
   7149.67  6.3379377E-01
   7150.00  6.3090746E-01
   7150.33  6.2631291E-01
   7150.67  6.2032858E-01
   7151.00  6.1312142E-01
   7151.33  6.0480090E-01
   7151.67  5.9573583E-01
   7152.00  5.8612377E-01
   7152.33  5.7611436E-01
   7152.67  5.6589968E-01
   7153.00  5.5557186E-01
   7153.33  5.4519796E-01
   7153.67  5.3482717E-01
   7154.00  5.2448335E-01
   7154.33  5.1419753E-01
   7154.67  5.0399037E-01
   7155.00  4.9388139E-01
   7155.33  4.8391050E-01
   7155.67  4.7409607E-01
   7156.00  4.6447500E-01
   7156.33  4.5512838E-01
   7156.67  4.4608318E-01
   7157.00  4.3739267E-01
   7157.33  4.2917130E-01
   7157.67  4.2142574E-01
   7158.00  4.1420042E-01
   7158.33  4.0760467E-01
   7158.67  4.0159133E-01
   7159.00  3.9616544E-01
   7159.33  3.9138751E-01
   7159.67  3.8715761E-01
   7160.00  3.8344181E-01
   7160.33  3.8025527E-01
   7160.67  3.7749986E-01
   7161.00  3.7515005E-01
   7161.33  3.7323885E-01
   7161.67  3.7171870E-01
   7162.00  3.7060172E-01
   7162.33  3.6996047E-01
   7162.67  3.6975567E-01
   7163.00  3.6998909E-01
   7163.33  3.7070203E-01
   7163.67  3.7180614E-01
   7164.00  3.7325300E-01
   7164.33  3.7500334E-01
   7164.67  3.7693820E-01
   7165.00  3.7898206E-01
   7165.33  3.8105811E-01
   7165.67  3.8309888E-01
   7166.00  3.8506735E-01
   7166.33  3.8693263E-01
   7166.67  3.8871069E-01
   7167.00  3.9042026E-01
   7167.33  3.9208887E-01
   7167.67  3.9375670E-01
   7168.00  3.9545185E-01
   7168.33  3.9720555E-01
   7168.67  3.9902360E-01
   7169.00  4.0090577E-01
   7169.33  4.0284739E-01
   7169.67  4.0482069E-01
   7170.00  4.0680135E-01
   7170.33  4.0875289E-01
   7170.67  4.1064107E-01
   7171.00  4.1243003E-01
   7171.33  4.1405187E-01
   7171.67  4.1545886E-01
   7172.00  4.1657873E-01
