    FDMNES
    energy     <xanes>
   7097.00  4.1473549E-03
   7097.33  4.2222697E-03
   7097.67  4.2996906E-03
   7098.00  4.3797486E-03
   7098.33  4.4629602E-03
   7098.67  4.5491570E-03
   7099.00  4.6385099E-03
   7099.33  4.7316594E-03
   7099.67  4.8284261E-03
   7100.00  4.9290392E-03
   7100.33  5.0343139E-03
   7100.67  5.1440654E-03
   7101.00  5.2586135E-03
   7101.33  5.3790293E-03
   7101.67  5.5051389E-03
   7102.00  5.6374076E-03
   7102.33  5.7773039E-03
   7102.67  5.9247021E-03
   7103.00  6.0803183E-03
   7103.33  6.2462779E-03
   7103.67  6.4225943E-03
   7104.00  6.6104495E-03
   7104.33  6.8131475E-03
   7104.67  7.0310716E-03
   7105.00  7.2663538E-03
   7105.33  7.5246384E-03
   7105.67  7.8073189E-03
   7106.00  8.1187078E-03
   7106.33  8.4697499E-03
   7106.67  8.8648595E-03
   7107.00  9.3142064E-03
   7107.33  9.8430407E-03
   7107.67  1.0466401E-02
   7108.00  1.1214028E-02
   7108.33  1.2160683E-02
   7108.67  1.3369933E-02
   7109.00  1.4961932E-02
   7109.33  1.7261103E-02
   7109.67  2.0665267E-02
   7110.00  2.5963501E-02
   7110.33  3.5443739E-02
   7110.67  5.1253439E-02
   7111.00  7.1968527E-02
   7111.33  8.5872587E-02
   7111.67  8.7930940E-02
   7112.00  7.7360647E-02
   7112.33  6.2958013E-02
   7112.67  5.2747656E-02
   7113.00  4.6376005E-02
   7113.33  4.1902095E-02
   7113.67  3.8458749E-02
   7114.00  3.6637362E-02
   7114.33  3.5502559E-02
   7114.67  3.3927860E-02
   7115.00  3.2418868E-02
   7115.33  3.1447742E-02
   7115.67  3.1246833E-02
   7116.00  3.2016768E-02
   7116.33  3.4048116E-02
   7116.67  3.7395026E-02
   7117.00  4.2127341E-02
   7117.33  4.7556127E-02
   7117.67  5.1499671E-02
   7118.00  5.2731798E-02
   7118.33  5.2378247E-02
   7118.67  5.2792285E-02
   7119.00  5.4839701E-02
   7119.33  5.8940074E-02
   7119.67  6.4869184E-02
   7120.00  7.2721766E-02
   7120.33  8.3237287E-02
   7120.67  9.7125238E-02
   7121.00  1.1568275E-01
   7121.33  1.4159899E-01
   7121.67  1.7609104E-01
   7122.00  2.2051646E-01
   7122.33  2.7557248E-01
   7122.67  3.3473074E-01
   7123.00  3.8803052E-01
   7123.33  4.1817846E-01
   7123.67  4.2108696E-01
   7124.00  4.0562574E-01
   7124.33  3.9330135E-01
   7124.67  3.9874887E-01
   7125.00  4.2384644E-01
   7125.33  4.6644157E-01
   7125.67  5.1935307E-01
   7126.00  5.7833536E-01
   7126.33  6.3806804E-01
   7126.67  6.9398292E-01
   7127.00  7.4669089E-01
   7127.33  8.0228423E-01
   7127.67  8.6368611E-01
   7128.00  9.2626598E-01
   7128.33  9.7480170E-01
   7128.67  9.9738676E-01
   7129.00  9.9150966E-01
   7129.33  9.6314137E-01
   7129.67  9.2647472E-01
   7130.00  8.8833648E-01
   7130.33  8.5276571E-01
   7130.67  8.2144114E-01
   7131.00  7.9627419E-01
   7131.33  7.8034031E-01
   7131.67  7.7269841E-01
   7132.00  7.7146158E-01
   7132.33  7.7361481E-01
   7132.67  7.7534570E-01
   7133.00  7.7425467E-01
   7133.33  7.6794419E-01
   7133.67  7.5635854E-01
   7134.00  7.3980353E-01
   7134.33  7.1883545E-01
   7134.67  6.9541314E-01
   7135.00  6.7093740E-01
   7135.33  6.4706090E-01
   7135.67  6.2500692E-01
   7136.00  6.0548386E-01
   7136.33  5.8918510E-01
   7136.67  5.7570856E-01
   7137.00  5.6487004E-01
   7137.33  5.5672374E-01
   7137.67  5.5077159E-01
   7138.00  5.4690770E-01
   7138.33  5.4534633E-01
   7138.67  5.4586406E-01
   7139.00  5.4854529E-01
   7139.33  5.5385525E-01
   7139.67  5.6176479E-01
   7140.00  5.7255588E-01
   7140.33  5.8695596E-01
   7140.67  6.0474241E-01
   7141.00  6.2573561E-01
   7141.33  6.4916971E-01
   7141.67  6.7225405E-01
   7142.00  6.9132311E-01
   7142.33  6.9971866E-01
   7142.67  6.9406775E-01
   7143.00  6.7348075E-01
   7143.33  6.4000652E-01
   7143.67  6.0131467E-01
   7144.00  5.6243554E-01
   7144.33  5.2758835E-01
   7144.67  4.9786232E-01
   7145.00  4.7339492E-01
   7145.33  4.5428564E-01
   7145.67  4.3920474E-01
   7146.00  4.2752076E-01
   7146.33  4.1892417E-01
   7146.67  4.1253935E-01
   7147.00  4.0799903E-01
   7147.33  4.0513406E-01
   7147.67  4.0345213E-01
   7148.00  4.0271174E-01
   7148.33  4.0272250E-01
   7148.67  4.0312441E-01
   7149.00  4.0367423E-01
   7149.33  4.0406660E-01
   7149.67  4.0404683E-01
   7150.00  4.0342307E-01
   7150.33  4.0195653E-01
   7150.67  3.9969775E-01
   7151.00  3.9668794E-01
   7151.33  3.9295777E-01
   7151.67  3.8872419E-01
   7152.00  3.8409599E-01
   7152.33  3.7913845E-01
   7152.67  3.7397210E-01
   7153.00  3.6864086E-01
   7153.33  3.6313976E-01
   7153.67  3.5749587E-01
   7154.00  3.5172706E-01
   7154.33  3.4584705E-01
   7154.67  3.3990251E-01
   7155.00  3.3393258E-01
   7155.33  3.2799437E-01
   7155.67  3.2214255E-01
   7156.00  3.1642734E-01
   7156.33  3.1092504E-01
   7156.67  3.0565466E-01
   7157.00  3.0064594E-01
   7157.33  2.9596380E-01
   7157.67  2.9159461E-01
   7158.00  2.8755569E-01
   7158.33  2.8392206E-01
   7158.67  2.8069720E-01
   7159.00  2.7794200E-01
   7159.33  2.7582120E-01
   7159.67  2.7437470E-01
   7160.00  2.7369467E-01
   7160.33  2.7396577E-01
   7160.67  2.7510921E-01
   7161.00  2.7709998E-01
   7161.33  2.7995683E-01
   7161.67  2.8347528E-01
   7162.00  2.8755782E-01
   7162.33  2.9216217E-01
   7162.67  2.9715566E-01
   7163.00  3.0249985E-01
   7163.33  3.0821870E-01
   7163.67  3.1427193E-01
   7164.00  3.2066788E-01
   7164.33  3.2746516E-01
   7164.67  3.3463194E-01
   7165.00  3.4217475E-01
   7165.33  3.5014191E-01
   7165.67  3.5847822E-01
   7166.00  3.6716779E-01
   7166.33  3.7622170E-01
   7166.67  3.8555742E-01
   7167.00  3.9512864E-01
   7167.33  4.0489260E-01
   7167.67  4.1475430E-01
   7168.00  4.2464851E-01
   7168.33  4.3449744E-01
   7168.67  4.4423741E-01
   7169.00  4.5381412E-01
   7169.33  4.6314456E-01
   7169.67  4.7220893E-01
   7170.00  4.8097244E-01
   7170.33  4.8935614E-01
   7170.67  4.9736070E-01
   7171.00  5.0493284E-01
   7171.33  5.1188569E-01
   7171.67  5.1804264E-01
   7172.00  5.2306349E-01
