    FDMNES
    energy     <xanes>
   7097.00  4.4923905E-03
   7097.33  4.5848955E-03
   7097.67  4.6810689E-03
   7098.00  4.7811353E-03
   7098.33  4.8859045E-03
   7098.67  4.9951721E-03
   7099.00  5.1092387E-03
   7099.33  5.2291406E-03
   7099.67  5.3546630E-03
   7100.00  5.4862196E-03
   7100.33  5.6251709E-03
   7100.67  5.7713046E-03
   7101.00  5.9252082E-03
   7101.33  6.0887246E-03
   7101.67  6.2616733E-03
   7102.00  6.4449216E-03
   7102.33  6.6410621E-03
   7102.67  6.8500133E-03
   7103.00  7.0731166E-03
   7103.33  7.3141954E-03
   7103.67  7.5734221E-03
   7104.00  7.8529943E-03
   7104.33  8.1588962E-03
   7104.67  8.4919295E-03
   7105.00  8.8559665E-03
   7105.33  9.2611200E-03
   7105.67  9.7098042E-03
   7106.00  1.0209520E-02
   7106.33  1.0779191E-02
   7106.67  1.1425732E-02
   7107.00  1.2165657E-02
   7107.33  1.3039765E-02
   7107.67  1.4069496E-02
   7108.00  1.5298546E-02
   7108.33  1.6835340E-02
   7108.67  1.8760789E-02
   7109.00  2.1228801E-02
   7109.33  2.4642894E-02
   7109.67  2.9443297E-02
   7110.00  3.6489246E-02
   7110.33  4.8214084E-02
   7110.67  6.7003862E-02
   7111.00  9.3100474E-02
   7111.33  1.2292049E-01
   7111.67  1.5640617E-01
   7112.00  1.8554290E-01
   7112.33  1.9576068E-01
   7112.67  1.9793819E-01
   7113.00  1.9212596E-01
   7113.33  1.8067750E-01
   7113.67  1.6208654E-01
   7114.00  1.3278945E-01
   7114.33  1.0653111E-01
   7114.67  8.9224690E-02
   7115.00  7.9357012E-02
   7115.33  7.5162287E-02
   7115.67  7.4555023E-02
   7116.00  7.6939986E-02
   7116.33  8.2473159E-02
   7116.67  9.1016390E-02
   7117.00  1.0307232E-01
   7117.33  1.2018344E-01
   7117.67  1.4265779E-01
   7118.00  1.6900092E-01
   7118.33  1.8912027E-01
   7118.67  1.9244837E-01
   7119.00  1.8300781E-01
   7119.33  1.7465031E-01
   7119.67  1.7383291E-01
   7120.00  1.8052233E-01
   7120.33  1.9361849E-01
   7120.67  2.1081512E-01
   7121.00  2.3126414E-01
   7121.33  2.5462377E-01
   7121.67  2.7978708E-01
   7122.00  3.0575703E-01
   7122.33  3.3093510E-01
   7122.67  3.5402986E-01
   7123.00  3.7461250E-01
   7123.33  3.9296490E-01
   7123.67  4.0998393E-01
   7124.00  4.2563048E-01
   7124.33  4.3918474E-01
   7124.67  4.5052196E-01
   7125.00  4.5967074E-01
   7125.33  4.6694467E-01
   7125.67  4.7356475E-01
   7126.00  4.8043984E-01
   7126.33  4.8812080E-01
   7126.67  4.9620280E-01
   7127.00  5.0419101E-01
   7127.33  5.1170066E-01
   7127.67  5.1866089E-01
   7128.00  5.2493758E-01
   7128.33  5.3023393E-01
   7128.67  5.3454209E-01
   7129.00  5.3786880E-01
   7129.33  5.4017347E-01
   7129.67  5.4161566E-01
   7130.00  5.4221848E-01
   7130.33  5.4202770E-01
   7130.67  5.4146868E-01
   7131.00  5.4093912E-01
   7131.33  5.4091761E-01
   7131.67  5.4160161E-01
   7132.00  5.4305987E-01
   7132.33  5.4533638E-01
   7132.67  5.4821547E-01
   7133.00  5.5156763E-01
   7133.33  5.5531801E-01
   7133.67  5.5940938E-01
   7134.00  5.6389892E-01
   7134.33  5.6878666E-01
   7134.67  5.7372762E-01
   7135.00  5.7833875E-01
   7135.33  5.8213184E-01
   7135.67  5.8496575E-01
   7136.00  5.8678947E-01
   7136.33  5.8757247E-01
   7136.67  5.8762157E-01
   7137.00  5.8714759E-01
   7137.33  5.8638224E-01
   7137.67  5.8561295E-01
   7138.00  5.8503401E-01
   7138.33  5.8487655E-01
   7138.67  5.8522687E-01
   7139.00  5.8615923E-01
   7139.33  5.8779858E-01
   7139.67  5.9007926E-01
   7140.00  5.9299309E-01
   7140.33  5.9659057E-01
   7140.67  6.0075615E-01
   7141.00  6.0544416E-01
   7141.33  6.1063337E-01
   7141.67  6.1615141E-01
   7142.00  6.2187667E-01
   7142.33  6.2767381E-01
   7142.67  6.3340031E-01
   7143.00  6.3894941E-01
   7143.33  6.4417334E-01
   7143.67  6.4903209E-01
   7144.00  6.5349092E-01
   7144.33  6.5747878E-01
   7144.67  6.6104138E-01
   7145.00  6.6417381E-01
   7145.33  6.6680588E-01
   7145.67  6.6896107E-01
   7146.00  6.7059489E-01
   7146.33  6.7156387E-01
   7146.67  6.7186112E-01
   7147.00  6.7141795E-01
   7147.33  6.7006645E-01
   7147.67  6.6786612E-01
   7148.00  6.6481066E-01
   7148.33  6.6082896E-01
   7148.67  6.5609191E-01
   7149.00  6.5067906E-01
   7149.33  6.4462676E-01
   7149.67  6.3811884E-01
   7150.00  6.3124931E-01
   7150.33  6.2408532E-01
   7150.67  6.1674555E-01
   7151.00  6.0929167E-01
   7151.33  6.0177530E-01
   7151.67  5.9425087E-01
   7152.00  5.8675301E-01
   7152.33  5.7932519E-01
   7152.67  5.7199552E-01
   7153.00  5.6479849E-01
   7153.33  5.5780024E-01
   7153.67  5.5102693E-01
   7154.00  5.4452093E-01
   7154.33  5.3837348E-01
   7154.67  5.3259236E-01
   7155.00  5.2721335E-01
   7155.33  5.2232686E-01
   7155.67  5.1790305E-01
   7156.00  5.1395131E-01
   7156.33  5.1052554E-01
   7156.67  5.0754626E-01
   7157.00  5.0498296E-01
   7157.33  5.0283220E-01
   7157.67  5.0098618E-01
   7158.00  4.9938466E-01
   7158.33  4.9797462E-01
   7158.67  4.9666121E-01
   7159.00  4.9538613E-01
   7159.33  4.9408912E-01
   7159.67  4.9272895E-01
   7160.00  4.9128072E-01
   7160.33  4.8971934E-01
   7160.67  4.8806251E-01
   7161.00  4.8632537E-01
   7161.33  4.8452926E-01
   7161.67  4.8271926E-01
   7162.00  4.8093162E-01
   7162.33  4.7921468E-01
   7162.67  4.7759529E-01
   7163.00  4.7609602E-01
   7163.33  4.7474928E-01
   7163.67  4.7354365E-01
   7164.00  4.7247637E-01
   7164.33  4.7155142E-01
   7164.67  4.7073496E-01
   7165.00  4.7000799E-01
   7165.33  4.6935467E-01
   7165.67  4.6874335E-01
   7166.00  4.6815576E-01
   7166.33  4.6757507E-01
   7166.67  4.6698825E-01
   7167.00  4.6638913E-01
   7167.33  4.6577297E-01
   7167.67  4.6514232E-01
   7168.00  4.6449932E-01
   7168.33  4.6384609E-01
   7168.67  4.6318757E-01
   7169.00  4.6252721E-01
   7169.33  4.6186894E-01
   7169.67  4.6121591E-01
   7170.00  4.6057084E-01
   7170.33  4.5993792E-01
   7170.67  4.5931924E-01
   7171.00  4.5871998E-01
   7171.33  4.5815580E-01
   7171.67  4.5764608E-01
   7172.00  4.5722254E-01
