    FDMNES
    energy     <xanes>
   7097.00  5.1626327E-03
   7097.33  5.2903072E-03
   7097.67  5.4240249E-03
   7098.00  5.5642084E-03
   7098.33  5.7122791E-03
   7098.67  5.8679692E-03
   7099.00  6.0318580E-03
   7099.33  6.2058178E-03
   7099.67  6.3895783E-03
   7100.00  6.5839548E-03
   7100.33  6.7914784E-03
   7100.67  7.0119070E-03
   7101.00  7.2464237E-03
   7101.33  7.4985563E-03
   7101.67  7.7681586E-03
   7102.00  8.0570107E-03
   7102.33  8.3702128E-03
   7102.67  8.7078633E-03
   7103.00  9.0727594E-03
   7103.33  9.4726099E-03
   7103.67  9.9080938E-03
   7104.00  1.0383848E-02
   7104.33  1.0912184E-02
   7104.67  1.1495164E-02
   7105.00  1.2141005E-02
   7105.33  1.2870815E-02
   7105.67  1.3690092E-02
   7106.00  1.4614750E-02
   7106.33  1.5684526E-02
   7106.67  1.6914309E-02
   7107.00  1.8338849E-02
   7107.33  2.0043520E-02
   7107.67  2.2072951E-02
   7108.00  2.4517729E-02
   7108.33  2.7601875E-02
   7108.67  3.1490116E-02
   7109.00  3.6496074E-02
   7109.33  4.3440554E-02
   7109.67  5.3211672E-02
   7110.00  6.7548723E-02
   7110.33  9.1418422E-02
   7110.67  1.2994848E-01
   7111.00  1.8360834E-01
   7111.33  2.3316976E-01
   7111.67  2.7266084E-01
   7112.00  3.1682545E-01
   7112.33  3.7981974E-01
   7112.67  4.5641686E-01
   7113.00  5.2372099E-01
   7113.33  5.8125888E-01
   7113.67  6.2238383E-01
   7114.00  5.7475804E-01
   7114.33  4.3351589E-01
   7114.67  3.0724989E-01
   7115.00  2.2061089E-01
   7115.33  1.6779770E-01
   7115.67  1.3401953E-01
   7116.00  1.1282597E-01
   7116.33  1.0047694E-01
   7116.67  9.3039539E-02
   7117.00  8.8611417E-02
   7117.33  8.6728649E-02
   7117.67  8.7667925E-02
   7118.00  9.1758997E-02
   7118.33  9.9668753E-02
   7118.67  1.1139691E-01
   7119.00  1.2712394E-01
   7119.33  1.4570155E-01
   7119.67  1.6210780E-01
   7120.00  1.7098282E-01
   7120.33  1.7012488E-01
   7120.67  1.6544337E-01
   7121.00  1.6101804E-01
   7121.33  1.6000544E-01
   7121.67  1.6244770E-01
   7122.00  1.6743170E-01
   7122.33  1.7443203E-01
   7122.67  1.8353328E-01
   7123.00  1.9539603E-01
   7123.33  2.1112570E-01
   7123.67  2.3056003E-01
   7124.00  2.5363913E-01
   7124.33  2.8035238E-01
   7124.67  3.0907035E-01
   7125.00  3.3773618E-01
   7125.33  3.6298251E-01
   7125.67  3.8344539E-01
   7126.00  3.9969555E-01
   7126.33  4.1341385E-01
   7126.67  4.2589033E-01
   7127.00  4.3650138E-01
   7127.33  4.4366836E-01
   7127.67  4.4777591E-01
   7128.00  4.5002129E-01
   7128.33  4.5237140E-01
   7128.67  4.5663635E-01
   7129.00  4.6397137E-01
   7129.33  4.7536076E-01
   7129.67  4.8954181E-01
   7130.00  5.0471197E-01
   7130.33  5.1862452E-01
   7130.67  5.3111589E-01
   7131.00  5.4358142E-01
   7131.33  5.5827305E-01
   7131.67  5.7601386E-01
   7132.00  5.9698110E-01
   7132.33  6.2126630E-01
   7132.67  6.4750228E-01
   7133.00  6.7409876E-01
   7133.33  6.9874673E-01
   7133.67  7.2044367E-01
   7134.00  7.3948462E-01
   7134.33  7.5742547E-01
   7134.67  7.7591241E-01
   7135.00  7.9469614E-01
   7135.33  8.1069318E-01
   7135.67  8.1955482E-01
   7136.00  8.1759042E-01
   7136.33  8.0203618E-01
   7136.67  7.7714538E-01
   7137.00  7.4696932E-01
   7137.33  7.1570762E-01
   7137.67  6.8631206E-01
   7138.00  6.6012077E-01
   7138.33  6.3840056E-01
   7138.67  6.2092836E-01
   7139.00  6.0768211E-01
   7139.33  5.9890806E-01
   7139.67  5.9368390E-01
   7140.00  5.9157023E-01
   7140.33  5.9236507E-01
   7140.67  5.9526672E-01
   7141.00  5.9994677E-01
   7141.33  6.0629034E-01
   7141.67  6.1383013E-01
   7142.00  6.2229178E-01
   7142.33  6.3138358E-01
   7142.67  6.4066363E-01
   7143.00  6.4983850E-01
   7143.33  6.5857296E-01
   7143.67  6.6669309E-01
   7144.00  6.7405014E-01
   7144.33  6.8039666E-01
   7144.67  6.8574519E-01
   7145.00  6.9003986E-01
   7145.33  6.9312266E-01
   7145.67  6.9515609E-01
   7146.00  6.9620653E-01
   7146.33  6.9628969E-01
   7146.67  6.9567474E-01
   7147.00  6.9451819E-01
   7147.33  6.9295897E-01
   7147.67  6.9120664E-01
   7148.00  6.8937332E-01
   7148.33  6.8754316E-01
   7148.67  6.8574208E-01
   7149.00  6.8394622E-01
   7149.33  6.8207194E-01
   7149.67  6.8001730E-01
   7150.00  6.7767731E-01
   7150.33  6.7489569E-01
   7150.67  6.7163880E-01
   7151.00  6.6785186E-01
   7151.33  6.6342439E-01
   7151.67  6.5842438E-01
   7152.00  6.5287561E-01
   7152.33  6.4676506E-01
   7152.67  6.4021702E-01
   7153.00  6.3328725E-01
   7153.33  6.2599810E-01
   7153.67  6.1844620E-01
   7154.00  6.1067350E-01
   7154.33  6.0269664E-01
   7154.67  5.9456891E-01
   7155.00  5.8631147E-01
   7155.33  5.7793173E-01
   7155.67  5.6946421E-01
   7156.00  5.6092893E-01
   7156.33  5.5234603E-01
   7156.67  5.4374901E-01
   7157.00  5.3516514E-01
   7157.33  5.2663476E-01
   7157.67  5.1818853E-01
   7158.00  5.0985851E-01
   7158.33  5.0169990E-01
   7158.67  4.9372853E-01
   7159.00  4.8597329E-01
   7159.33  4.7849746E-01
   7159.67  4.7129948E-01
   7160.00  4.6440033E-01
   7160.33  4.5786025E-01
   7160.67  4.5165729E-01
   7161.00  4.4580579E-01
   7161.33  4.4036717E-01
   7161.67  4.3530814E-01
   7162.00  4.3063627E-01
   7162.33  4.2640898E-01
   7162.67  4.2258232E-01
   7163.00  4.1915893E-01
   7163.33  4.1618678E-01
   7163.67  4.1360084E-01
   7164.00  4.1137757E-01
   7164.33  4.0952159E-01
   7164.67  4.0794497E-01
   7165.00  4.0659718E-01
   7165.33  4.0542996E-01
   7165.67  4.0435076E-01
   7166.00  4.0329866E-01
   7166.33  4.0220470E-01
   7166.67  4.0102225E-01
   7167.00  3.9972088E-01
   7167.33  3.9826416E-01
   7167.67  3.9666673E-01
   7168.00  3.9493783E-01
   7168.33  3.9308377E-01
   7168.67  3.9114412E-01
   7169.00  3.8914219E-01
   7169.33  3.8710035E-01
   7169.67  3.8504904E-01
   7170.00  3.8301022E-01
   7170.33  3.8101438E-01
   7170.67  3.7908616E-01
   7171.00  3.7725625E-01
   7171.33  3.7558682E-01
   7171.67  3.7412392E-01
   7172.00  3.7293936E-01
