    FDMNES
    energy     <xanes>
   7097.00  4.7776107E-03
   7097.33  4.8874804E-03
   7097.67  5.0022504E-03
   7098.00  5.1222512E-03
   7098.33  5.2486159E-03
   7098.67  5.3811120E-03
   7099.00  5.5201913E-03
   7099.33  5.6673364E-03
   7099.67  5.8223114E-03
   7100.00  5.9857504E-03
   7100.33  6.1596469E-03
   7100.67  6.3437863E-03
   7101.00  6.5390878E-03
   7101.33  6.7483203E-03
   7101.67  6.9713450E-03
   7102.00  7.2095483E-03
   7102.33  7.4669285E-03
   7102.67  7.7435465E-03
   7103.00  8.0415935E-03
   7103.33  8.3671292E-03
   7103.67  8.7206983E-03
   7104.00  9.1059733E-03
   7104.33  9.5327128E-03
   7104.67  1.0002641E-02
   7105.00  1.0522389E-02
   7105.33  1.1108959E-02
   7105.67  1.1767107E-02
   7106.00  1.2510042E-02
   7106.33  1.3370692E-02
   7106.67  1.4362438E-02
   7107.00  1.5515402E-02
   7107.33  1.6903625E-02
   7107.67  1.8569370E-02
   7108.00  2.0596333E-02
   7108.33  2.3193023E-02
   7108.67  2.6527172E-02
   7109.00  3.0916061E-02
   7109.33  3.7206024E-02
   7109.67  4.6389849E-02
   7110.00  6.0426557E-02
   7110.33  8.4924231E-02
   7110.67  1.2489294E-01
   7111.00  1.7673239E-01
   7111.33  2.1582585E-01
   7111.67  2.3891698E-01
   7112.00  2.6021598E-01
   7112.33  2.8166472E-01
   7112.67  2.7581818E-01
   7113.00  2.4181530E-01
   7113.33  2.0760388E-01
   7113.67  1.8926229E-01
   7114.00  1.9085304E-01
   7114.33  2.1673855E-01
   7114.67  2.6083344E-01
   7115.00  3.0966197E-01
   7115.33  3.3046621E-01
   7115.67  3.0545568E-01
   7116.00  2.5306986E-01
   7116.33  2.0719796E-01
   7116.67  1.7646061E-01
   7117.00  1.5781557E-01
   7117.33  1.4733788E-01
   7117.67  1.4089678E-01
   7118.00  1.3692934E-01
   7118.33  1.3424593E-01
   7118.67  1.3127894E-01
   7119.00  1.2747146E-01
   7119.33  1.2391545E-01
   7119.67  1.2200144E-01
   7120.00  1.2216892E-01
   7120.33  1.2434849E-01
   7120.67  1.2741877E-01
   7121.00  1.3051923E-01
   7121.33  1.3394209E-01
   7121.67  1.3923135E-01
   7122.00  1.4721624E-01
   7122.33  1.5821269E-01
   7122.67  1.7160616E-01
   7123.00  1.8750676E-01
   7123.33  2.0706489E-01
   7123.67  2.3089927E-01
   7124.00  2.5969351E-01
   7124.33  2.9391163E-01
   7124.67  3.3059485E-01
   7125.00  3.6562130E-01
   7125.33  3.9400152E-01
   7125.67  4.1630421E-01
   7126.00  4.3482577E-01
   7126.33  4.5169304E-01
   7126.67  4.6733177E-01
   7127.00  4.8044517E-01
   7127.33  4.8839353E-01
   7127.67  4.9089159E-01
   7128.00  4.8941002E-01
   7128.33  4.8811514E-01
   7128.67  4.9199452E-01
   7129.00  5.0432982E-01
   7129.33  5.2751297E-01
   7129.67  5.5817616E-01
   7130.00  5.9199730E-01
   7130.33  6.2146731E-01
   7130.67  6.4075631E-01
   7131.00  6.4830204E-01
   7131.33  6.4656453E-01
   7131.67  6.4227038E-01
   7132.00  6.3916815E-01
   7132.33  6.3959568E-01
   7132.67  6.4350336E-01
   7133.00  6.5119784E-01
   7133.33  6.6413774E-01
   7133.67  6.8197903E-01
   7134.00  7.0333108E-01
   7134.33  7.2520082E-01
   7134.67  7.4497243E-01
   7135.00  7.6153806E-01
   7135.33  7.7282558E-01
   7135.67  7.7667634E-01
   7136.00  7.7069441E-01
   7136.33  7.5278977E-01
   7136.67  7.2642566E-01
   7137.00  6.9500935E-01
   7137.33  6.6275213E-01
   7137.67  6.3325389E-01
   7138.00  6.0842636E-01
   7138.33  5.8988243E-01
   7138.67  5.7672799E-01
   7139.00  5.6823588E-01
   7139.33  5.6370974E-01
   7139.67  5.6154890E-01
   7140.00  5.6089859E-01
   7140.33  5.6111501E-01
   7140.67  5.6163433E-01
   7141.00  5.6223482E-01
   7141.33  5.6279872E-01
   7141.67  5.6327882E-01
   7142.00  5.6361524E-01
   7142.33  5.6365905E-01
   7142.67  5.6331275E-01
   7143.00  5.6250680E-01
   7143.33  5.6118862E-01
   7143.67  5.5948840E-01
   7144.00  5.5748134E-01
   7144.33  5.5520145E-01
   7144.67  5.5271529E-01
   7145.00  5.5004830E-01
   7145.33  5.4723357E-01
   7145.67  5.4437861E-01
   7146.00  5.4160140E-01
   7146.33  5.3911210E-01
   7146.67  5.3708242E-01
   7147.00  5.3568661E-01
   7147.33  5.3520477E-01
   7147.67  5.3566655E-01
   7148.00  5.3713590E-01
   7148.33  5.3976298E-01
   7148.67  5.4339334E-01
   7149.00  5.4797080E-01
   7149.33  5.5349901E-01
   7149.67  5.5973162E-01
   7150.00  5.6651624E-01
   7150.33  5.7368895E-01
   7150.67  5.8097604E-01
   7151.00  5.8816888E-01
   7151.33  5.9498592E-01
   7151.67  6.0125079E-01
   7152.00  6.0680060E-01
   7152.33  6.1140095E-01
   7152.67  6.1512765E-01
   7153.00  6.1802590E-01
   7153.33  6.2012106E-01
   7153.67  6.2165604E-01
   7154.00  6.2276923E-01
   7154.33  6.2357022E-01
   7154.67  6.2420285E-01
   7155.00  6.2472587E-01
   7155.33  6.2515611E-01
   7155.67  6.2548923E-01
   7156.00  6.2568130E-01
   7156.33  6.2561725E-01
   7156.67  6.2520245E-01
   7157.00  6.2430429E-01
   7157.33  6.2265976E-01
   7157.67  6.2015769E-01
   7158.00  6.1663677E-01
   7158.33  6.1179406E-01
   7158.67  6.0568549E-01
   7159.00  5.9830529E-01
   7159.33  5.8959161E-01
   7159.67  5.7987621E-01
   7160.00  5.6938045E-01
   7160.33  5.5834593E-01
   7160.67  5.4714346E-01
   7161.00  5.3602170E-01
   7161.33  5.2526842E-01
   7161.67  5.1503051E-01
   7162.00  5.0541514E-01
   7162.33  4.9657207E-01
   7162.67  4.8842739E-01
   7163.00  4.8096090E-01
   7163.33  4.7420428E-01
   7163.67  4.6801791E-01
   7164.00  4.6234604E-01
   7164.33  4.5718257E-01
   7164.67  4.5241593E-01
   7165.00  4.4800645E-01
   7165.33  4.4395726E-01
   7165.67  4.4020134E-01
   7166.00  4.3672236E-01
   7166.33  4.3354126E-01
   7166.67  4.3061870E-01
   7167.00  4.2795107E-01
   7167.33  4.2556270E-01
   7167.67  4.2340952E-01
   7168.00  4.2147050E-01
   7168.33  4.1973104E-01
   7168.67  4.1812548E-01
   7169.00  4.1661309E-01
   7169.33  4.1515234E-01
   7169.67  4.1369680E-01
   7170.00  4.1222160E-01
   7170.33  4.1070930E-01
   7170.67  4.0917114E-01
   7171.00  4.0763196E-01
   7171.33  4.0615176E-01
   7171.67  4.0480829E-01
   7172.00  4.0369431E-01
