    FDMNES
    energy     <xanes>
   7097.00  4.3478176E-03
   7097.33  4.4446012E-03
   7097.67  4.5456946E-03
   7098.00  4.6513998E-03
   7098.33  4.7627331E-03
   7098.67  4.8795080E-03
   7099.00  5.0021446E-03
   7099.33  5.1319942E-03
   7099.67  5.2688794E-03
   7100.00  5.4134043E-03
   7100.33  5.5674232E-03
   7100.67  5.7308009E-03
   7101.00  5.9044389E-03
   7101.33  6.0909810E-03
   7101.67  6.2904071E-03
   7102.00  6.5041245E-03
   7102.33  6.7360802E-03
   7102.67  6.9865342E-03
   7103.00  7.2578052E-03
   7103.33  7.5561290E-03
   7103.67  7.8824348E-03
   7104.00  8.2408071E-03
   7104.33  8.6418183E-03
   7104.67  9.0880518E-03
   7105.00  9.5873316E-03
   7105.33  1.0159281E-02
   7105.67  1.0810878E-02
   7106.00  1.1558840E-02
   7106.33  1.2444216E-02
   7106.67  1.3487118E-02
   7107.00  1.4728971E-02
   7107.33  1.6271063E-02
   7107.67  1.8180407E-02
   7108.00  2.0583903E-02
   7108.33  2.3799971E-02
   7108.67  2.8115729E-02
   7109.00  3.4068492E-02
   7109.33  4.3119816E-02
   7109.67  5.7127585E-02
   7110.00  7.9795721E-02
   7110.33  1.2202916E-01
   7110.67  1.9465370E-01
   7111.00  2.8861754E-01
   7111.33  3.1114027E-01
   7111.67  2.5714221E-01
   7112.00  2.0456388E-01
   7112.33  1.8000443E-01
   7112.67  1.6231596E-01
   7113.00  1.4069282E-01
   7113.33  1.1526957E-01
   7113.67  9.2475710E-02
   7114.00  7.4540108E-02
   7114.33  6.2078187E-02
   7114.67  5.3931039E-02
   7115.00  4.9442890E-02
   7115.33  4.8075909E-02
   7115.67  4.7321825E-02
   7116.00  4.5866696E-02
   7116.33  4.5608858E-02
   7116.67  4.7299671E-02
   7117.00  5.0868967E-02
   7117.33  5.6540892E-02
   7117.67  6.4242538E-02
   7118.00  7.4162091E-02
   7118.33  8.6684372E-02
   7118.67  1.0119254E-01
   7119.00  1.1682685E-01
   7119.33  1.3185448E-01
   7119.67  1.4475012E-01
   7120.00  1.5523124E-01
   7120.33  1.6441094E-01
   7120.67  1.7409657E-01
   7121.00  1.8501033E-01
   7121.33  1.9730053E-01
   7121.67  2.1048933E-01
   7122.00  2.2428263E-01
   7122.33  2.3793196E-01
   7122.67  2.4988229E-01
   7123.00  2.5905123E-01
   7123.33  2.6645841E-01
   7123.67  2.7562211E-01
   7124.00  2.8923390E-01
   7124.33  3.0995348E-01
   7124.67  3.3744877E-01
   7125.00  3.7095631E-01
   7125.33  4.0779161E-01
   7125.67  4.4278886E-01
   7126.00  4.7222476E-01
   7126.33  4.9098028E-01
   7126.67  4.9654953E-01
   7127.00  4.8938018E-01
   7127.33  4.7448696E-01
   7127.67  4.5955051E-01
   7128.00  4.4895993E-01
   7128.33  4.4654290E-01
   7128.67  4.5200921E-01
   7129.00  4.6432637E-01
   7129.33  4.8106166E-01
   7129.67  4.9671371E-01
   7130.00  5.0604544E-01
   7130.33  5.0541916E-01
   7130.67  5.0061298E-01
   7131.00  4.9771834E-01
   7131.33  5.0182317E-01
   7131.67  5.1345696E-01
   7132.00  5.3273428E-01
   7132.33  5.6041775E-01
   7132.67  5.9468553E-01
   7133.00  6.3323527E-01
   7133.33  6.7068951E-01
   7133.67  7.0088474E-01
   7134.00  7.2092319E-01
   7134.33  7.3150558E-01
   7134.67  7.3812272E-01
   7135.00  7.4342233E-01
   7135.33  7.4729943E-01
   7135.67  7.4772128E-01
   7136.00  7.4345449E-01
   7136.33  7.3540085E-01
   7136.67  7.2648264E-01
   7137.00  7.1808371E-01
   7137.33  7.1097589E-01
   7137.67  7.0515676E-01
   7138.00  7.0062368E-01
   7138.33  6.9748122E-01
   7138.67  6.9550031E-01
   7139.00  6.9460760E-01
   7139.33  6.9483852E-01
   7139.67  6.9597193E-01
   7140.00  6.9790444E-01
   7140.33  7.0052436E-01
   7140.67  7.0343156E-01
   7141.00  7.0621020E-01
   7141.33  7.0812304E-01
   7141.67  7.0854460E-01
   7142.00  7.0695033E-01
   7142.33  7.0279429E-01
   7142.67  6.9662142E-01
   7143.00  6.8902157E-01
   7143.33  6.8078187E-01
   7143.67  6.7274225E-01
   7144.00  6.6538697E-01
   7144.33  6.5916302E-01
   7144.67  6.5402520E-01
   7145.00  6.4991822E-01
   7145.33  6.4680055E-01
   7145.67  6.4434869E-01
   7146.00  6.4234572E-01
   7146.33  6.4053640E-01
   7146.67  6.3861569E-01
   7147.00  6.3635240E-01
   7147.33  6.3343941E-01
   7147.67  6.2976922E-01
   7148.00  6.2524123E-01
   7148.33  6.1968979E-01
   7148.67  6.1324416E-01
   7149.00  6.0596778E-01
   7149.33  5.9789088E-01
   7149.67  5.8924572E-01
   7150.00  5.8017038E-01
   7150.33  5.7080879E-01
   7150.67  5.6137103E-01
   7151.00  5.5200393E-01
   7151.33  5.4288374E-01
   7151.67  5.3409710E-01
   7152.00  5.2572026E-01
   7152.33  5.1788118E-01
   7152.67  5.1056527E-01
   7153.00  5.0379202E-01
   7153.33  4.9762887E-01
   7153.67  4.9198515E-01
   7154.00  4.8682519E-01
   7154.33  4.8214408E-01
   7154.67  4.7781733E-01
   7155.00  4.7377746E-01
   7155.33  4.6996824E-01
   7155.67  4.6628329E-01
   7156.00  4.6265618E-01
   7156.33  4.5901801E-01
   7156.67  4.5531943E-01
   7157.00  4.5152823E-01
   7157.33  4.4760324E-01
   7157.67  4.4354491E-01
   7158.00  4.3934896E-01
   7158.33  4.3500068E-01
   7158.67  4.3052606E-01
   7159.00  4.2593686E-01
   7159.33  4.2123555E-01
   7159.67  4.1645454E-01
   7160.00  4.1161665E-01
   7160.33  4.0674840E-01
   7160.67  4.0188509E-01
   7161.00  3.9705391E-01
   7161.33  3.9229158E-01
   7161.67  3.8762018E-01
   7162.00  3.8306608E-01
   7162.33  3.7867682E-01
   7162.67  3.7446112E-01
   7163.00  3.7043954E-01
   7163.33  3.6665971E-01
   7163.67  3.6311396E-01
   7164.00  3.5981899E-01
   7164.33  3.5682869E-01
   7164.67  3.5412979E-01
   7165.00  3.5173946E-01
   7165.33  3.4971771E-01
   7165.67  3.4804314E-01
   7166.00  3.4673118E-01
   7166.33  3.4584325E-01
   7166.67  3.4534184E-01
   7167.00  3.4523044E-01
   7167.33  3.4555534E-01
   7167.67  3.4626058E-01
   7168.00  3.4733435E-01
   7168.33  3.4879879E-01
   7168.67  3.5058312E-01
   7169.00  3.5266091E-01
   7169.33  3.5503287E-01
   7169.67  3.5763407E-01
   7170.00  3.6043536E-01
   7170.33  3.6341765E-01
   7170.67  3.6651202E-01
   7171.00  3.6966127E-01
   7171.33  3.7275284E-01
   7171.67  3.7560317E-01
   7172.00  3.7796315E-01
