    FDMNES
    energy     <xanes>
   7097.00  5.0397668E-03
   7097.33  5.1532438E-03
   7097.67  5.2716641E-03
   7098.00  5.3953512E-03
   7098.33  5.5254311E-03
   7098.67  5.6616548E-03
   7099.00  5.8044599E-03
   7099.33  5.9553058E-03
   7099.67  6.1139335E-03
   7100.00  6.2809494E-03
   7100.33  6.4582935E-03
   7100.67  6.6457154E-03
   7101.00  6.8440819E-03
   7101.33  7.0560488E-03
   7101.67  7.2814180E-03
   7102.00  7.5214733E-03
   7102.33  7.7799833E-03
   7102.67  8.0568985E-03
   7103.00  8.3542046E-03
   7103.33  8.6774899E-03
   7103.67  9.0270731E-03
   7104.00  9.4061953E-03
   7104.33  9.8236119E-03
   7104.67  1.0280536E-02
   7105.00  1.0782629E-02
   7105.33  1.1344621E-02
   7105.67  1.1969978E-02
   7106.00  1.2669517E-02
   7106.33  1.3470505E-02
   7106.67  1.4382594E-02
   7107.00  1.5429168E-02
   7107.33  1.6667996E-02
   7107.67  1.8128448E-02
   7108.00  1.9871100E-02
   7108.33  2.2046200E-02
   7108.67  2.4763115E-02
   7109.00  2.8231213E-02
   7109.33  3.2999057E-02
   7109.67  3.9658677E-02
   7110.00  4.9369640E-02
   7110.33  6.5431917E-02
   7110.67  9.1193370E-02
   7111.00  1.2723525E-01
   7111.33  1.6596021E-01
   7111.67  2.0264805E-01
   7112.00  2.2928315E-01
   7112.33  2.3949485E-01
   7112.67  2.4880734E-01
   7113.00  2.6644224E-01
   7113.33  3.0155312E-01
   7113.67  3.3729432E-01
   7114.00  3.5209803E-01
   7114.33  3.5274861E-01
   7114.67  3.4796732E-01
   7115.00  3.2529555E-01
   7115.33  2.8802430E-01
   7115.67  2.5577329E-01
   7116.00  2.3494756E-01
   7116.33  2.2541658E-01
   7116.67  2.2015812E-01
   7117.00  2.1228320E-01
   7117.33  1.9708893E-01
   7117.67  1.7980709E-01
   7118.00  1.6503801E-01
   7118.33  1.5483757E-01
   7118.67  1.4817180E-01
   7119.00  1.4433391E-01
   7119.33  1.4268100E-01
   7119.67  1.4240525E-01
   7120.00  1.4359990E-01
   7120.33  1.4687362E-01
   7120.67  1.5206461E-01
   7121.00  1.5888060E-01
   7121.33  1.6734506E-01
   7121.67  1.7738574E-01
   7122.00  1.8860485E-01
   7122.33  1.9984141E-01
   7122.67  2.1023312E-01
   7123.00  2.2000102E-01
   7123.33  2.3018215E-01
   7123.67  2.4150756E-01
   7124.00  2.5394939E-01
   7124.33  2.6674422E-01
   7124.67  2.7931471E-01
   7125.00  2.9254342E-01
   7125.33  3.0910755E-01
   7125.67  3.3041221E-01
   7126.00  3.5647390E-01
   7126.33  3.8573199E-01
   7126.67  4.1453872E-01
   7127.00  4.4012313E-01
   7127.33  4.5999166E-01
   7127.67  4.7467050E-01
   7128.00  4.8511809E-01
   7128.33  4.9276870E-01
   7128.67  4.9979623E-01
   7129.00  5.0763084E-01
   7129.33  5.1798910E-01
   7129.67  5.3196578E-01
   7130.00  5.5072663E-01
   7130.33  5.7612296E-01
   7130.67  6.0776657E-01
   7131.00  6.4485338E-01
   7131.33  6.8515306E-01
   7131.67  7.2439359E-01
   7132.00  7.5925304E-01
   7132.33  7.8646243E-01
   7132.67  8.0642115E-01
   7133.00  8.1996165E-01
   7133.33  8.2835514E-01
   7133.67  8.3442914E-01
   7134.00  8.3989350E-01
   7134.33  8.4583865E-01
   7134.67  8.5190168E-01
   7135.00  8.5689643E-01
   7135.33  8.5851652E-01
   7135.67  8.5524895E-01
   7136.00  8.4597558E-01
   7136.33  8.2958079E-01
   7136.67  8.0768987E-01
   7137.00  7.8175004E-01
   7137.33  7.5355415E-01
   7137.67  7.2529920E-01
   7138.00  6.9831763E-01
   7138.33  6.7393703E-01
   7138.67  6.5241834E-01
   7139.00  6.3395808E-01
   7139.33  6.1897388E-01
   7139.67  6.0697345E-01
   7140.00  5.9778126E-01
   7140.33  5.9141109E-01
   7140.67  5.8714702E-01
   7141.00  5.8456680E-01
   7141.33  5.8324795E-01
   7141.67  5.8245518E-01
   7142.00  5.8170033E-01
   7142.33  5.8044774E-01
   7142.67  5.7841886E-01
   7143.00  5.7546094E-01
   7143.33  5.7140025E-01
   7143.67  5.6639137E-01
   7144.00  5.6051243E-01
   7144.33  5.5381053E-01
   7144.67  5.4654993E-01
   7145.00  5.3889607E-01
   7145.33  5.3102736E-01
   7145.67  5.2316948E-01
   7146.00  5.1548677E-01
   7146.33  5.0819482E-01
   7146.67  5.0139664E-01
   7147.00  4.9519647E-01
   7147.33  4.8977890E-01
   7147.67  4.8513168E-01
   7148.00  4.8130287E-01
   7148.33  4.7843851E-01
   7148.67  4.7645317E-01
   7149.00  4.7535189E-01
   7149.33  4.7523277E-01
   7149.67  4.7595789E-01
   7150.00  4.7748739E-01
   7150.33  4.7984440E-01
   7150.67  4.8283603E-01
   7151.00  4.8634139E-01
   7151.33  4.9022994E-01
   7151.67  4.9426822E-01
   7152.00  4.9828100E-01
   7152.33  5.0203261E-01
   7152.67  5.0536026E-01
   7153.00  5.0812447E-01
   7153.33  5.1011865E-01
   7153.67  5.1135893E-01
   7154.00  5.1182812E-01
   7154.33  5.1145903E-01
   7154.67  5.1041301E-01
   7155.00  5.0877515E-01
   7155.33  5.0660786E-01
   7155.67  5.0410562E-01
   7156.00  5.0138964E-01
   7156.33  4.9859067E-01
   7156.67  4.9585026E-01
   7157.00  4.9327172E-01
   7157.33  4.9099296E-01
   7157.67  4.8906597E-01
   7158.00  4.8754773E-01
   7158.33  4.8654118E-01
   7158.67  4.8601333E-01
   7159.00  4.8596764E-01
   7159.33  4.8644867E-01
   7159.67  4.8736827E-01
   7160.00  4.8869154E-01
   7160.33  4.9041282E-01
   7160.67  4.9243036E-01
   7161.00  4.9469150E-01
   7161.33  4.9716283E-01
   7161.67  4.9977219E-01
   7162.00  5.0248217E-01
   7162.33  5.0526208E-01
   7162.67  5.0807182E-01
   7163.00  5.1088269E-01
   7163.33  5.1365057E-01
   7163.67  5.1634019E-01
   7164.00  5.1891737E-01
   7164.33  5.2132067E-01
   7164.67  5.2352378E-01
   7165.00  5.2548676E-01
   7165.33  5.2712982E-01
   7165.67  5.2844947E-01
   7166.00  5.2941849E-01
   7166.33  5.2996787E-01
   7166.67  5.3013308E-01
   7167.00  5.2991344E-01
   7167.33  5.2927067E-01
   7167.67  5.2827036E-01
   7168.00  5.2693544E-01
   7168.33  5.2526167E-01
   7168.67  5.2332680E-01
   7169.00  5.2117271E-01
   7169.33  5.1883038E-01
   7169.67  5.1636879E-01
   7170.00  5.1382934E-01
   7170.33  5.1125871E-01
   7170.67  5.0871300E-01
   7171.00  5.0624237E-01
   7171.33  5.0394001E-01
   7171.67  5.0189853E-01
   7172.00  5.0024948E-01
