    FDMNES
    energy     <xanes>
   7097.00  5.3546104E-03
   7097.33  5.4963788E-03
   7097.67  5.6452492E-03
   7098.00  5.8017376E-03
   7098.33  5.9675465E-03
   7098.67  6.1423869E-03
   7099.00  6.3269713E-03
   7099.33  6.5235621E-03
   7099.67  6.7318743E-03
   7100.00  6.9529178E-03
   7100.33  7.1897791E-03
   7100.67  7.4422179E-03
   7101.00  7.7117104E-03
   7101.33  8.0025985E-03
   7101.67  8.3147761E-03
   7102.00  8.6504806E-03
   7102.33  9.0160471E-03
   7102.67  9.4116993E-03
   7103.00  9.8409779E-03
   7103.33  1.0313546E-02
   7103.67  1.0830395E-02
   7104.00  1.1397433E-02
   7104.33  1.2030227E-02
   7104.67  1.2731578E-02
   7105.00  1.3512017E-02
   7105.33  1.4398424E-02
   7105.67  1.5398070E-02
   7106.00  1.6531400E-02
   7106.33  1.7849268E-02
   7106.67  1.9370992E-02
   7107.00  2.1141134E-02
   7107.33  2.3268787E-02
   7107.67  2.5810661E-02
   7108.00  2.8881369E-02
   7108.33  3.2762815E-02
   7108.67  3.7656681E-02
   7109.00  4.3944955E-02
   7109.33  5.2613563E-02
   7109.67  6.4675972E-02
   7110.00  8.2089795E-02
   7110.33  1.1036067E-01
   7110.67  1.5544233E-01
   7111.00  2.2156281E-01
   7111.33  3.0736229E-01
   7111.67  4.0824591E-01
   7112.00  5.1464731E-01
   7112.33  6.1004406E-01
   7112.67  6.6778339E-01
   7113.00  6.6817821E-01
   7113.33  6.3494895E-01
   7113.67  5.7738496E-01
   7114.00  4.8849973E-01
   7114.33  3.8850982E-01
   7114.67  3.0333092E-01
   7115.00  2.3918850E-01
   7115.33  1.9621688E-01
   7115.67  1.6788833E-01
   7116.00  1.5094651E-01
   7116.33  1.4184501E-01
   7116.67  1.3388817E-01
   7117.00  1.2460923E-01
   7117.33  1.1613542E-01
   7117.67  1.1025970E-01
   7118.00  1.0732676E-01
   7118.33  1.0746992E-01
   7118.67  1.0999731E-01
   7119.00  1.1503418E-01
   7119.33  1.2272962E-01
   7119.67  1.3215750E-01
   7120.00  1.4225346E-01
   7120.33  1.5001767E-01
   7120.67  1.5314448E-01
   7121.00  1.5262313E-01
   7121.33  1.5267896E-01
   7121.67  1.5579233E-01
   7122.00  1.6228465E-01
   7122.33  1.7243211E-01
   7122.67  1.8586443E-01
   7123.00  2.0253128E-01
   7123.33  2.2064841E-01
   7123.67  2.3679390E-01
   7124.00  2.5059466E-01
   7124.33  2.6545795E-01
   7124.67  2.8409029E-01
   7125.00  3.0631014E-01
   7125.33  3.2990937E-01
   7125.67  3.5285427E-01
   7126.00  3.7535254E-01
   7126.33  3.9831292E-01
   7126.67  4.2086411E-01
   7127.00  4.4091658E-01
   7127.33  4.5605366E-01
   7127.67  4.6658757E-01
   7128.00  4.7275379E-01
   7128.33  4.7440215E-01
   7128.67  4.7335725E-01
   7129.00  4.7163291E-01
   7129.33  4.7152006E-01
   7129.67  4.7415113E-01
   7130.00  4.8053321E-01
   7130.33  4.9254139E-01
   7130.67  5.0992946E-01
   7131.00  5.3137916E-01
   7131.33  5.5361538E-01
   7131.67  5.7293803E-01
   7132.00  5.8740556E-01
   7132.33  5.9586460E-01
   7132.67  5.9979691E-01
   7133.00  6.0035503E-01
   7133.33  5.9887936E-01
   7133.67  5.9723332E-01
   7134.00  5.9650217E-01
   7134.33  5.9722543E-01
   7134.67  5.9857820E-01
   7135.00  5.9933050E-01
   7135.33  5.9733452E-01
   7135.67  5.9140549E-01
   7136.00  5.8142726E-01
   7136.33  5.6861592E-01
   7136.67  5.5557548E-01
   7137.00  5.4388798E-01
   7137.33  5.3485797E-01
   7137.67  5.2857787E-01
   7138.00  5.2515159E-01
   7138.33  5.2485754E-01
   7138.67  5.2697802E-01
   7139.00  5.3092162E-01
   7139.33  5.3593533E-01
   7139.67  5.4112066E-01
   7140.00  5.4608823E-01
   7140.33  5.5072914E-01
   7140.67  5.5528457E-01
   7141.00  5.5999618E-01
   7141.33  5.6510258E-01
   7141.67  5.7057157E-01
   7142.00  5.7628050E-01
   7142.33  5.8204993E-01
   7142.67  5.8777122E-01
   7143.00  5.9350500E-01
   7143.33  5.9956487E-01
   7143.67  6.0635398E-01
   7144.00  6.1427858E-01
   7144.33  6.2388397E-01
   7144.67  6.3508945E-01
   7145.00  6.4773846E-01
   7145.33  6.6150977E-01
   7145.67  6.7562592E-01
   7146.00  6.8943364E-01
   7146.33  7.0199976E-01
   7146.67  7.1271202E-01
   7147.00  7.2106086E-01
   7147.33  7.2636333E-01
   7147.67  7.2894935E-01
   7148.00  7.2908212E-01
   7148.33  7.2702513E-01
   7148.67  7.2362071E-01
   7149.00  7.1937755E-01
   7149.33  7.1477079E-01
   7149.67  7.1023013E-01
   7150.00  7.0597242E-01
   7150.33  7.0216431E-01
   7150.67  6.9874818E-01
   7151.00  6.9564834E-01
   7151.33  6.9276261E-01
   7151.67  6.8993932E-01
   7152.00  6.8708632E-01
   7152.33  6.8411014E-01
   7152.67  6.8097402E-01
   7153.00  6.7765675E-01
   7153.33  6.7413453E-01
   7153.67  6.7045343E-01
   7154.00  6.6664972E-01
   7154.33  6.6276483E-01
   7154.67  6.5885148E-01
   7155.00  6.5492865E-01
   7155.33  6.5098233E-01
   7155.67  6.4696776E-01
   7156.00  6.4282463E-01
   7156.33  6.3845032E-01
   7156.67  6.3380331E-01
   7157.00  6.2884282E-01
   7157.33  6.2349983E-01
   7157.67  6.1780586E-01
   7158.00  6.1175475E-01
   7158.33  6.0528666E-01
   7158.67  5.9842415E-01
   7159.00  5.9114096E-01
   7159.33  5.8335096E-01
   7159.67  5.7509188E-01
   7160.00  5.6636319E-01
   7160.33  5.5713568E-01
   7160.67  5.4752544E-01
   7161.00  5.3761091E-01
   7161.33  5.2748400E-01
   7161.67  5.1730130E-01
   7162.00  5.0718362E-01
   7162.33  4.9729397E-01
   7162.67  4.8773045E-01
   7163.00  4.7857926E-01
   7163.33  4.6996813E-01
   7163.67  4.6186445E-01
   7164.00  4.5426021E-01
   7164.33  4.4717126E-01
   7164.67  4.4047472E-01
   7165.00  4.3410503E-01
   7165.33  4.2801714E-01
   7165.67  4.2211306E-01
   7166.00  4.1634994E-01
   7166.33  4.1071071E-01
   7166.67  4.0516607E-01
   7167.00  3.9971346E-01
   7167.33  3.9437481E-01
   7167.67  3.8915334E-01
   7168.00  3.8406202E-01
   7168.33  3.7913055E-01
   7168.67  3.7435046E-01
   7169.00  3.6972812E-01
   7169.33  3.6529011E-01
   7169.67  3.6102332E-01
   7170.00  3.5693694E-01
   7170.33  3.5307021E-01
   7170.67  3.4941993E-01
   7171.00  3.4601318E-01
   7171.33  3.4293871E-01
   7171.67  3.4025208E-01
   7172.00  3.3807000E-01
