    FDMNES
    energy     <xanes>
   7097.00  5.1846170E-03
   7097.33  5.3057607E-03
   7097.67  5.4322955E-03
   7098.00  5.5645759E-03
   7098.33  5.7038315E-03
   7098.67  5.8497917E-03
   7099.00  6.0029341E-03
   7099.33  6.1648506E-03
   7099.67  6.3352568E-03
   7100.00  6.5148116E-03
   7100.33  6.7056250E-03
   7100.67  6.9074165E-03
   7101.00  7.1211213E-03
   7101.33  7.3496139E-03
   7101.67  7.5926587E-03
   7102.00  7.8516274E-03
   7102.33  8.1305670E-03
   7102.67  8.4293774E-03
   7103.00  8.7501512E-03
   7103.33  9.0988187E-03
   7103.67  9.4756173E-03
   7104.00  9.8838981E-03
   7104.33  1.0332791E-02
   7104.67  1.0823341E-02
   7105.00  1.1361252E-02
   7105.33  1.1961491E-02
   7105.67  1.2627085E-02
   7106.00  1.3368532E-02
   7106.33  1.4212505E-02
   7106.67  1.5167239E-02
   7107.00  1.6254248E-02
   7107.33  1.7526912E-02
   7107.67  1.9009010E-02
   7108.00  2.0752076E-02
   7108.33  2.2883266E-02
   7108.67  2.5483619E-02
   7109.00  2.8711263E-02
   7109.33  3.2970578E-02
   7109.67  3.8643771E-02
   7110.00  4.6471704E-02
   7110.33  5.8537193E-02
   7110.67  7.7314447E-02
   7111.00  1.0570787E-01
   7111.33  1.4396441E-01
   7111.67  1.8482153E-01
   7112.00  2.2122274E-01
   7112.33  2.5600138E-01
   7112.67  3.0183053E-01
   7113.00  3.4723103E-01
   7113.33  3.7878968E-01
   7113.67  4.2562369E-01
   7114.00  5.0602399E-01
   7114.33  5.7232604E-01
   7114.67  5.5225508E-01
   7115.00  4.6451908E-01
   7115.33  3.7476922E-01
   7115.67  3.0855738E-01
   7116.00  2.6485838E-01
   7116.33  2.3966358E-01
   7116.67  2.2461949E-01
   7117.00  2.1340895E-01
   7117.33  1.9907118E-01
   7117.67  1.8226578E-01
   7118.00  1.6800840E-01
   7118.33  1.5933534E-01
   7118.67  1.5210396E-01
   7119.00  1.4420133E-01
   7119.33  1.3760732E-01
   7119.67  1.3368341E-01
   7120.00  1.3211064E-01
   7120.33  1.3221724E-01
   7120.67  1.3344626E-01
   7121.00  1.3599651E-01
   7121.33  1.4040197E-01
   7121.67  1.4617991E-01
   7122.00  1.5269348E-01
   7122.33  1.5971740E-01
   7122.67  1.6774223E-01
   7123.00  1.7742834E-01
   7123.33  1.8944882E-01
   7123.67  2.0365547E-01
   7124.00  2.1996679E-01
   7124.33  2.3794388E-01
   7124.67  2.5612779E-01
   7125.00  2.7325515E-01
   7125.33  2.8807786E-01
   7125.67  3.0085891E-01
   7126.00  3.1244175E-01
   7126.33  3.2447984E-01
   7126.67  3.3862878E-01
   7127.00  3.5615578E-01
   7127.33  3.7890721E-01
   7127.67  4.0719664E-01
   7128.00  4.4098205E-01
   7128.33  4.7893341E-01
   7128.67  5.1703748E-01
   7129.00  5.5176561E-01
   7129.33  5.7976629E-01
   7129.67  6.0222078E-01
   7130.00  6.2127456E-01
   7130.33  6.3960568E-01
   7130.67  6.5950523E-01
   7131.00  6.8231772E-01
   7131.33  7.0923384E-01
   7131.67  7.3952380E-01
   7132.00  7.7199856E-01
   7132.33  8.0396430E-01
   7132.67  8.3185766E-01
   7133.00  8.5262921E-01
   7133.33  8.6301433E-01
   7133.67  8.6440463E-01
   7134.00  8.5853251E-01
   7134.33  8.4741779E-01
   7134.67  8.3397216E-01
   7135.00  8.1976536E-01
   7135.33  8.0621512E-01
   7135.67  7.9401048E-01
   7136.00  7.8322932E-01
   7136.33  7.7332191E-01
   7136.67  7.6287540E-01
   7137.00  7.5047884E-01
   7137.33  7.3425594E-01
   7137.67  7.1402368E-01
   7138.00  6.9026556E-01
   7138.33  6.6437081E-01
   7138.67  6.3874696E-01
   7139.00  6.1511638E-01
   7139.33  5.9528198E-01
   7139.67  5.7942094E-01
   7140.00  5.6753861E-01
   7140.33  5.5974589E-01
   7140.67  5.5509732E-01
   7141.00  5.5317666E-01
   7141.33  5.5385948E-01
   7141.67  5.5651948E-01
   7142.00  5.6089739E-01
   7142.33  5.6688078E-01
   7142.67  5.7399895E-01
   7143.00  5.8198200E-01
   7143.33  5.9054021E-01
   7143.67  5.9920693E-01
   7144.00  6.0759898E-01
   7144.33  6.1514544E-01
   7144.67  6.2146112E-01
   7145.00  6.2616958E-01
   7145.33  6.2867861E-01
   7145.67  6.2902713E-01
   7146.00  6.2717394E-01
   7146.33  6.2296812E-01
   7146.67  6.1692773E-01
   7147.00  6.0935697E-01
   7147.33  6.0052038E-01
   7147.67  5.9097117E-01
   7148.00  5.8103869E-01
   7148.33  5.7104854E-01
   7148.67  5.6127131E-01
   7149.00  5.5187618E-01
   7149.33  5.4306251E-01
   7149.67  5.3484204E-01
   7150.00  5.2724487E-01
   7150.33  5.2035790E-01
   7150.67  5.1409170E-01
   7151.00  5.0843103E-01
   7151.33  5.0343454E-01
   7151.67  4.9902112E-01
   7152.00  4.9519256E-01
   7152.33  4.9203779E-01
   7152.67  4.8950678E-01
   7153.00  4.8762482E-01
   7153.33  4.8650224E-01
   7153.67  4.8606741E-01
   7154.00  4.8631451E-01
   7154.33  4.8729539E-01
   7154.67  4.8887448E-01
   7155.00  4.9098854E-01
   7155.33  4.9360390E-01
   7155.67  4.9656316E-01
   7156.00  4.9977566E-01
   7156.33  5.0315779E-01
   7156.67  5.0659527E-01
   7157.00  5.1001336E-01
   7157.33  5.1332246E-01
   7157.67  5.1646698E-01
   7158.00  5.1939563E-01
   7158.33  5.2202228E-01
   7158.67  5.2433525E-01
   7159.00  5.2630197E-01
   7159.33  5.2784609E-01
   7159.67  5.2899546E-01
   7160.00  5.2974255E-01
   7160.33  5.3003947E-01
   7160.67  5.2995006E-01
   7161.00  5.2949440E-01
   7161.33  5.2866173E-01
   7161.67  5.2753126E-01
   7162.00  5.2613776E-01
   7162.33  5.2449465E-01
   7162.67  5.2266930E-01
   7163.00  5.2069305E-01
   7163.33  5.1858433E-01
   7163.67  5.1638867E-01
   7164.00  5.1413145E-01
   7164.33  5.1182937E-01
   7164.67  5.0949820E-01
   7165.00  5.0715215E-01
   7165.33  5.0481483E-01
   7165.67  5.0250559E-01
   7166.00  5.0023762E-01
   7166.33  4.9802755E-01
   7166.67  4.9587305E-01
   7167.00  4.9377121E-01
   7167.33  4.9171492E-01
   7167.67  4.8967831E-01
   7168.00  4.8763717E-01
   7168.33  4.8555126E-01
   7168.67  4.8338457E-01
   7169.00  4.8110078E-01
   7169.33  4.7864187E-01
   7169.67  4.7599911E-01
   7170.00  4.7316231E-01
   7170.33  4.7012066E-01
   7170.67  4.6694334E-01
   7171.00  4.6370208E-01
   7171.33  4.6053745E-01
   7171.67  4.5764721E-01
   7172.00  4.5526672E-01
