    FDMNES
    energy     <xanes>
   7097.00  4.8715567E-03
   7097.33  4.9825079E-03
   7097.67  5.0983545E-03
   7098.00  5.2194218E-03
   7098.33  5.3468328E-03
   7098.67  5.4803477E-03
   7099.00  5.6204079E-03
   7099.33  5.7684748E-03
   7099.67  5.9243007E-03
   7100.00  6.0885001E-03
   7100.33  6.2630240E-03
   7100.67  6.4476368E-03
   7101.00  6.6432207E-03
   7101.33  6.8524592E-03
   7101.67  7.0751751E-03
   7102.00  7.3126805E-03
   7102.33  7.5688026E-03
   7102.67  7.8435239E-03
   7103.00  8.1388826E-03
   7103.33  8.4605825E-03
   7103.67  8.8089958E-03
   7104.00  9.1874624E-03
   7104.33  9.6049621E-03
   7104.67  1.0062805E-02
   7105.00  1.0566842E-02
   7105.33  1.1132244E-02
   7105.67  1.1762663E-02
   7106.00  1.2469295E-02
   7106.33  1.3280279E-02
   7106.67  1.4205655E-02
   7107.00  1.5269567E-02
   7107.33  1.6531547E-02
   7107.67  1.8021732E-02
   7108.00  1.9802176E-02
   7108.33  2.2026410E-02
   7108.67  2.4804715E-02
   7109.00  2.8347988E-02
   7109.33  3.3206292E-02
   7109.67  3.9962842E-02
   7110.00  4.9754871E-02
   7110.33  6.5769760E-02
   7110.67  9.0924133E-02
   7111.00  1.2508912E-01
   7111.33  1.6632613E-01
   7111.67  2.1636382E-01
   7112.00  2.5576762E-01
   7112.33  2.7126912E-01
   7112.67  2.8896707E-01
   7113.00  3.2564916E-01
   7113.33  3.8198696E-01
   7113.67  4.0951281E-01
   7114.00  3.5943603E-01
   7114.33  2.6805767E-01
   7114.67  2.0477583E-01
   7115.00  1.7709396E-01
   7115.33  1.8267983E-01
   7115.67  2.1453731E-01
   7116.00  2.6395581E-01
   7116.33  2.9434303E-01
   7116.67  2.7384864E-01
   7117.00  2.2481124E-01
   7117.33  1.9040018E-01
   7117.67  1.7366634E-01
   7118.00  1.6355904E-01
   7118.33  1.5309068E-01
   7118.67  1.4342901E-01
   7119.00  1.3421215E-01
   7119.33  1.2534375E-01
   7119.67  1.1820831E-01
   7120.00  1.1337572E-01
   7120.33  1.1099387E-01
   7120.67  1.1058781E-01
   7121.00  1.1160749E-01
   7121.33  1.1309890E-01
   7121.67  1.1452965E-01
   7122.00  1.1627243E-01
   7122.33  1.1923661E-01
   7122.67  1.2390022E-01
   7123.00  1.3066059E-01
   7123.33  1.4038368E-01
   7123.67  1.5328433E-01
   7124.00  1.6970154E-01
   7124.33  1.9024888E-01
   7124.67  2.1401275E-01
   7125.00  2.3986916E-01
   7125.33  2.6600599E-01
   7125.67  2.9106197E-01
   7126.00  3.1501665E-01
   7126.33  3.3892329E-01
   7126.67  3.6405579E-01
   7127.00  3.9104098E-01
   7127.33  4.1995846E-01
   7127.67  4.4957657E-01
   7128.00  4.7869566E-01
   7128.33  5.0642171E-01
   7128.67  5.3328968E-01
   7129.00  5.5999985E-01
   7129.33  5.8741050E-01
   7129.67  6.1583452E-01
   7130.00  6.4472504E-01
   7130.33  6.7233656E-01
   7130.67  6.9786084E-01
   7131.00  7.2229951E-01
   7131.33  7.4845716E-01
   7131.67  7.7789661E-01
   7132.00  8.0985643E-01
   7132.33  8.4048286E-01
   7132.67  8.6433636E-01
   7133.00  8.7661721E-01
   7133.33  8.7225754E-01
   7133.67  8.5418241E-01
   7134.00  8.2617719E-01
   7134.33  7.9280831E-01
   7134.67  7.5866731E-01
   7135.00  7.2593038E-01
   7135.33  6.9656793E-01
   7135.67  6.7133242E-01
   7136.00  6.5098193E-01
   7136.33  6.3668067E-01
   7136.67  6.2748683E-01
   7137.00  6.2240536E-01
   7137.33  6.1991251E-01
   7137.67  6.1782054E-01
   7138.00  6.1494017E-01
   7138.33  6.1058231E-01
   7138.67  6.0526211E-01
   7139.00  5.9971379E-01
   7139.33  5.9500049E-01
   7139.67  5.9184147E-01
   7140.00  5.9070908E-01
   7140.33  5.9218581E-01
   7140.67  5.9605461E-01
   7141.00  6.0225312E-01
   7141.33  6.1087277E-01
   7141.67  6.2135654E-01
   7142.00  6.3334176E-01
   7142.33  6.4631448E-01
   7142.67  6.5925621E-01
   7143.00  6.7115986E-01
   7143.33  6.8043543E-01
   7143.67  6.8623204E-01
   7144.00  6.8793607E-01
   7144.33  6.8486458E-01
   7144.67  6.7790039E-01
   7145.00  6.6756931E-01
   7145.33  6.5423325E-01
   7145.67  6.3895736E-01
   7146.00  6.2241881E-01
   7146.33  6.0542938E-01
   7146.67  5.8891919E-01
   7147.00  5.7356561E-01
   7147.33  5.6017606E-01
   7147.67  5.4885078E-01
   7148.00  5.3965334E-01
   7148.33  5.3271792E-01
   7148.67  5.2755334E-01
   7149.00  5.2391152E-01
   7149.33  5.2163083E-01
   7149.67  5.2026790E-01
   7150.00  5.1962124E-01
   7150.33  5.1959034E-01
   7150.67  5.2000315E-01
   7151.00  5.2081321E-01
   7151.33  5.2204673E-01
   7151.67  5.2365272E-01
   7152.00  5.2562720E-01
   7152.33  5.2799694E-01
   7152.67  5.3068351E-01
   7153.00  5.3364672E-01
   7153.33  5.3685896E-01
   7153.67  5.4023385E-01
   7154.00  5.4372741E-01
   7154.33  5.4731255E-01
   7154.67  5.5095480E-01
   7155.00  5.5464058E-01
   7155.33  5.5836930E-01
   7155.67  5.6213408E-01
   7156.00  5.6592661E-01
   7156.33  5.6972243E-01
   7156.67  5.7347489E-01
   7157.00  5.7712516E-01
   7157.33  5.8055962E-01
   7157.67  5.8369496E-01
   7158.00  5.8643065E-01
   7158.33  5.8858339E-01
   7158.67  5.9010763E-01
   7159.00  5.9092418E-01
   7159.33  5.9086749E-01
   7159.67  5.8999370E-01
   7160.00  5.8829310E-01
   7160.33  5.8568201E-01
   7160.67  5.8230445E-01
   7161.00  5.7821099E-01
   7161.33  5.7339345E-01
   7161.67  5.6801398E-01
   7162.00  5.6214428E-01
   7162.33  5.5581722E-01
   7162.67  5.4916296E-01
   7163.00  5.4224482E-01
   7163.33  5.3510942E-01
   7163.67  5.2785085E-01
   7164.00  5.2052964E-01
   7164.33  5.1321706E-01
   7164.67  5.0598132E-01
   7165.00  4.9888106E-01
   7165.33  4.9200760E-01
   7165.67  4.8539722E-01
   7166.00  4.7909781E-01
   7166.33  4.7320143E-01
   7166.67  4.6769846E-01
   7167.00  4.6260860E-01
   7167.33  4.5799552E-01
   7167.67  4.5380470E-01
   7168.00  4.5002642E-01
   7168.33  4.4669071E-01
   7168.67  4.4372386E-01
   7169.00  4.4110321E-01
   7169.33  4.3884083E-01
   7169.67  4.3686149E-01
   7170.00  4.3513204E-01
   7170.33  4.3364384E-01
   7170.67  4.3233778E-01
   7171.00  4.3118943E-01
   7171.33  4.3019604E-01
   7171.67  4.2933762E-01
   7172.00  4.2862889E-01
