    FDMNES
    energy     <xanes>
   7097.00  4.9131692E-03
   7097.33  5.0320499E-03
   7097.67  5.1564828E-03
   7098.00  5.2868582E-03
   7098.33  5.4244863E-03
   7098.67  5.5691255E-03
   7099.00  5.7213144E-03
   7099.33  5.8827864E-03
   7099.67  6.0533036E-03
   7100.00  6.2336303E-03
   7100.33  6.4261256E-03
   7100.67  6.6305887E-03
   7101.00  6.8481412E-03
   7101.33  7.0821023E-03
   7101.67  7.3323823E-03
   7102.00  7.6006937E-03
   7102.33  7.8918965E-03
   7102.67  8.2061770E-03
   7103.00  8.5462755E-03
   7103.33  8.9196646E-03
   7103.67  9.3271829E-03
   7104.00  9.7734783E-03
   7104.33  1.0270758E-02
   7104.67  1.0821429E-02
   7105.00  1.1433969E-02
   7105.33  1.2129929E-02
   7105.67  1.2915697E-02
   7106.00  1.3808281E-02
   7106.33  1.4849820E-02
   7106.67  1.6057882E-02
   7107.00  1.7471279E-02
   7107.33  1.9184971E-02
   7107.67  2.1253208E-02
   7108.00  2.3782637E-02
   7108.33  2.7037439E-02
   7108.67  3.1225894E-02
   7109.00  3.6739631E-02
   7109.33  4.4611456E-02
   7109.67  5.6011056E-02
   7110.00  7.3227573E-02
   7110.33  1.0282694E-01
   7110.67  1.5159871E-01
   7111.00  2.2016441E-01
   7111.33  2.8598553E-01
   7111.67  3.3772319E-01
   7112.00  3.8889121E-01
   7112.33  4.3584915E-01
   7112.67  4.4942607E-01
   7113.00  4.0352943E-01
   7113.33  3.0969561E-01
   7113.67  2.2916993E-01
   7114.00  1.7698560E-01
   7114.33  1.5175158E-01
   7114.67  1.4530050E-01
   7115.00  1.5478083E-01
   7115.33  1.6953629E-01
   7115.67  1.6600337E-01
   7116.00  1.4189827E-01
   7116.33  1.1634472E-01
   7116.67  9.8539908E-02
   7117.00  8.8114089E-02
   7117.33  8.3681263E-02
   7117.67  8.2647128E-02
   7118.00  8.3549574E-02
   7118.33  8.5530065E-02
   7118.67  8.8693091E-02
   7119.00  9.3300492E-02
   7119.33  9.8678111E-02
   7119.67  1.0341450E-01
   7120.00  1.0683082E-01
   7120.33  1.0969274E-01
   7120.67  1.1424579E-01
   7121.00  1.2189199E-01
   7121.33  1.3326836E-01
   7121.67  1.4760427E-01
   7122.00  1.6519149E-01
   7122.33  1.8746107E-01
   7122.67  2.1393651E-01
   7123.00  2.4319832E-01
   7123.33  2.7376844E-01
   7123.67  3.0563262E-01
   7124.00  3.3839216E-01
   7124.33  3.6883254E-01
   7124.67  3.9307777E-01
   7125.00  4.0880091E-01
   7125.33  4.1606553E-01
   7125.67  4.1995533E-01
   7126.00  4.2463554E-01
   7126.33  4.3463744E-01
   7126.67  4.5126154E-01
   7127.00  4.7427421E-01
   7127.33  5.0232541E-01
   7127.67  5.3265824E-01
   7128.00  5.6432360E-01
   7128.33  5.9677344E-01
   7128.67  6.2797390E-01
   7129.00  6.5602015E-01
   7129.33  6.8198001E-01
   7129.67  7.0994827E-01
   7130.00  7.4030971E-01
   7130.33  7.6831272E-01
   7130.67  7.8872617E-01
   7131.00  7.9904708E-01
   7131.33  7.9794849E-01
   7131.67  7.8860631E-01
   7132.00  7.7381538E-01
   7132.33  7.5733069E-01
   7132.67  7.4260778E-01
   7133.00  7.3118906E-01
   7133.33  7.2417901E-01
   7133.67  7.2109588E-01
   7134.00  7.2152611E-01
   7134.33  7.2438978E-01
   7134.67  7.2743837E-01
   7135.00  7.2937974E-01
   7135.33  7.2989846E-01
   7135.67  7.3008688E-01
   7136.00  7.3078566E-01
   7136.33  7.3249212E-01
   7136.67  7.3479060E-01
   7137.00  7.3703445E-01
   7137.33  7.3809699E-01
   7137.67  7.3711681E-01
   7138.00  7.3355341E-01
   7138.33  7.2709424E-01
   7138.67  7.1867963E-01
   7139.00  7.0903862E-01
   7139.33  6.9874341E-01
   7139.67  6.8797236E-01
   7140.00  6.7634890E-01
   7140.33  6.6304725E-01
   7140.67  6.4803430E-01
   7141.00  6.3183375E-01
   7141.33  6.1585241E-01
   7141.67  6.0172266E-01
   7142.00  5.9055821E-01
   7142.33  5.8334455E-01
   7142.67  5.7931317E-01
   7143.00  5.7759199E-01
   7143.33  5.7682093E-01
   7143.67  5.7526742E-01
   7144.00  5.7171066E-01
   7144.33  5.6493568E-01
   7144.67  5.5527170E-01
   7145.00  5.4332868E-01
   7145.33  5.3015608E-01
   7145.67  5.1717799E-01
   7146.00  5.0528161E-01
   7146.33  4.9535770E-01
   7146.67  4.8748559E-01
   7147.00  4.8169497E-01
   7147.33  4.7807816E-01
   7147.67  4.7614280E-01
   7148.00  4.7565079E-01
   7148.33  4.7647190E-01
   7148.67  4.7819306E-01
   7149.00  4.8059875E-01
   7149.33  4.8351921E-01
   7149.67  4.8669703E-01
   7150.00  4.8997770E-01
   7150.33  4.9318638E-01
   7150.67  4.9617670E-01
   7151.00  4.9883508E-01
   7151.33  5.0102688E-01
   7151.67  5.0280833E-01
   7152.00  5.0426676E-01
   7152.33  5.0556386E-01
   7152.67  5.0692302E-01
   7153.00  5.0848677E-01
   7153.33  5.1036817E-01
   7153.67  5.1249617E-01
   7154.00  5.1475927E-01
   7154.33  5.1696187E-01
   7154.67  5.1890340E-01
   7155.00  5.2042274E-01
   7155.33  5.2130720E-01
   7155.67  5.2154788E-01
   7156.00  5.2112452E-01
   7156.33  5.1997368E-01
   7156.67  5.1821764E-01
   7157.00  5.1589620E-01
   7157.33  5.1298026E-01
   7157.67  5.0955427E-01
   7158.00  5.0561743E-01
   7158.33  5.0108840E-01
   7158.67  4.9601350E-01
   7159.00  4.9038454E-01
   7159.33  4.8414754E-01
   7159.67  4.7741931E-01
   7160.00  4.7027152E-01
   7160.33  4.6277742E-01
   7160.67  4.5510877E-01
   7161.00  4.4738601E-01
   7161.33  4.3975306E-01
   7161.67  4.3231582E-01
   7162.00  4.2515333E-01
   7162.33  4.1837084E-01
   7162.67  4.1196093E-01
   7163.00  4.0593543E-01
   7163.33  4.0033842E-01
   7163.67  3.9510414E-01
   7164.00  3.9020982E-01
   7164.33  3.8566549E-01
   7164.67  3.8140488E-01
   7165.00  3.7740901E-01
   7165.33  3.7369447E-01
   7165.67  3.7022416E-01
   7166.00  3.6700065E-01
   7166.33  3.6406685E-01
   7166.67  3.6140631E-01
   7167.00  3.5903342E-01
   7167.33  3.5700108E-01
   7167.67  3.5528289E-01
   7168.00  3.5388453E-01
   7168.33  3.5284669E-01
   7168.67  3.5212446E-01
   7169.00  3.5171056E-01
   7169.33  3.5163071E-01
   7169.67  3.5183325E-01
   7170.00  3.5230254E-01
   7170.33  3.5304594E-01
   7170.67  3.5400158E-01
   7171.00  3.5513083E-01
   7171.33  3.5637499E-01
   7171.67  3.5759654E-01
   7172.00  3.5863368E-01
