    FDMNES
    energy     <xanes>
   7097.00  4.9330701E-03
   7097.33  5.0481668E-03
   7097.67  5.1684904E-03
   7098.00  5.2943968E-03
   7098.33  5.4270995E-03
   7098.67  5.5663540E-03
   7099.00  5.7126464E-03
   7099.33  5.8675660E-03
   7099.67  6.0308643E-03
   7100.00  6.2032228E-03
   7100.33  6.3867796E-03
   7100.67  6.5813075E-03
   7101.00  6.7877936E-03
   7101.33  7.0092061E-03
   7101.67  7.2453975E-03
   7102.00  7.4978531E-03
   7102.33  7.7708556E-03
   7102.67  8.0644668E-03
   7103.00  8.3810296E-03
   7103.33  8.7270254E-03
   7103.67  9.1030265E-03
   7104.00  9.5129522E-03
   7104.33  9.9672250E-03
   7104.67  1.0467669E-02
   7105.00  1.1021358E-02
   7105.33  1.1646441E-02
   7105.67  1.2347995E-02
   7106.00  1.3140146E-02
   7106.33  1.4058150E-02
   7106.67  1.5116482E-02
   7107.00  1.6347677E-02
   7107.33  1.7831908E-02
   7107.67  1.9616032E-02
   7108.00  2.1792717E-02
   7108.33  2.4594368E-02
   7108.67  2.8215594E-02
   7109.00  3.3026422E-02
   7109.33  4.0030416E-02
   7109.67  5.0467847E-02
   7110.00  6.6810373E-02
   7110.33  9.6055610E-02
   7110.67  1.4248548E-01
   7111.00  1.9213084E-01
   7111.33  2.0537095E-01
   7111.67  2.0131339E-01
   7112.00  2.1075271E-01
   7112.33  2.2933755E-01
   7112.67  2.4651833E-01
   7113.00  2.7078114E-01
   7113.33  2.7099339E-01
   7113.67  2.6329763E-01
   7114.00  2.8623368E-01
   7114.33  3.6004947E-01
   7114.67  4.3376369E-01
   7115.00  4.2495623E-01
   7115.33  3.3323831E-01
   7115.67  2.5142960E-01
   7116.00  2.0258672E-01
   7116.33  1.8790498E-01
   7116.67  1.9996907E-01
   7117.00  2.3608027E-01
   7117.33  2.8456277E-01
   7117.67  3.1848386E-01
   7118.00  3.2314169E-01
   7118.33  2.9649242E-01
   7118.67  2.5863437E-01
   7119.00  2.2318104E-01
   7119.33  1.9679348E-01
   7119.67  1.7767195E-01
   7120.00  1.6371702E-01
   7120.33  1.5294739E-01
   7120.67  1.4365247E-01
   7121.00  1.3553124E-01
   7121.33  1.2882748E-01
   7121.67  1.2341614E-01
   7122.00  1.1927200E-01
   7122.33  1.1678546E-01
   7122.67  1.1620427E-01
   7123.00  1.1767332E-01
   7123.33  1.2090895E-01
   7123.67  1.2491750E-01
   7124.00  1.2935489E-01
   7124.33  1.3446017E-01
   7124.67  1.4061671E-01
   7125.00  1.4826842E-01
   7125.33  1.5817234E-01
   7125.67  1.7066165E-01
   7126.00  1.8642832E-01
   7126.33  2.0713358E-01
   7126.67  2.3345671E-01
   7127.00  2.6608131E-01
   7127.33  3.0528523E-01
   7127.67  3.4737277E-01
   7128.00  3.8707272E-01
   7128.33  4.1604737E-01
   7128.67  4.3273430E-01
   7129.00  4.4004489E-01
   7129.33  4.4359183E-01
   7129.67  4.4896574E-01
   7130.00  4.5896482E-01
   7130.33  4.7602306E-01
   7130.67  4.9974954E-01
   7131.00  5.2967178E-01
   7131.33  5.6520555E-01
   7131.67  6.0414468E-01
   7132.00  6.4495060E-01
   7132.33  6.8581241E-01
   7132.67  7.2500251E-01
   7133.00  7.6113068E-01
   7133.33  7.9201036E-01
   7133.67  8.1662553E-01
   7134.00  8.3386065E-01
   7134.33  8.4236853E-01
   7134.67  8.4413283E-01
   7135.00  8.4095542E-01
   7135.33  8.3510208E-01
   7135.67  8.2935910E-01
   7136.00  8.2553558E-01
   7136.33  8.2563352E-01
   7136.67  8.3003744E-01
   7137.00  8.3865494E-01
   7137.33  8.5044306E-01
   7137.67  8.6192448E-01
   7138.00  8.6907711E-01
   7138.33  8.6544759E-01
   7138.67  8.4846920E-01
   7139.00  8.1775458E-01
   7139.33  7.7517421E-01
   7139.67  7.2736372E-01
   7140.00  6.7875461E-01
   7140.33  6.3344159E-01
   7140.67  5.9304457E-01
   7141.00  5.5818907E-01
   7141.33  5.2955066E-01
   7141.67  5.0603502E-01
   7142.00  4.8718671E-01
   7142.33  4.7296856E-01
   7142.67  4.6233285E-01
   7143.00  4.5484987E-01
   7143.33  4.5040016E-01
   7143.67  4.4825637E-01
   7144.00  4.4814793E-01
   7144.33  4.5005389E-01
   7144.67  4.5355454E-01
   7145.00  4.5848580E-01
   7145.33  4.6476108E-01
   7145.67  4.7190200E-01
   7146.00  4.7952953E-01
   7146.33  4.8709633E-01
   7146.67  4.9403665E-01
   7147.00  4.9992495E-01
   7147.33  5.0429326E-01
   7147.67  5.0730300E-01
   7148.00  5.0917785E-01
   7148.33  5.1026577E-01
   7148.67  5.1113567E-01
   7149.00  5.1214774E-01
   7149.33  5.1364893E-01
   7149.67  5.1567019E-01
   7150.00  5.1813232E-01
   7150.33  5.2089877E-01
   7150.67  5.2376471E-01
   7151.00  5.2662852E-01
   7151.33  5.2944778E-01
   7151.67  5.3227591E-01
   7152.00  5.3520524E-01
   7152.33  5.3839974E-01
   7152.67  5.4195822E-01
   7153.00  5.4596478E-01
   7153.33  5.5053289E-01
   7153.67  5.5559602E-01
   7154.00  5.6111217E-01
   7154.33  5.6704291E-01
   7154.67  5.7322954E-01
   7155.00  5.7956109E-01
   7155.33  5.8590257E-01
   7155.67  5.9211788E-01
   7156.00  5.9809755E-01
   7156.33  6.0368378E-01
   7156.67  6.0882541E-01
   7157.00  6.1345830E-01
   7157.33  6.1745811E-01
   7157.67  6.2086191E-01
   7158.00  6.2365580E-01
   7158.33  6.2576195E-01
   7158.67  6.2726799E-01
   7159.00  6.2819103E-01
   7159.33  6.2848776E-01
   7159.67  6.2825859E-01
   7160.00  6.2753188E-01
   7160.33  6.2628303E-01
   7160.67  6.2460266E-01
   7161.00  6.2251827E-01
   7161.33  6.2001424E-01
   7161.67  6.1716575E-01
   7162.00  6.1399491E-01
   7162.33  6.1048960E-01
   7162.67  6.0671000E-01
   7163.00  6.0266984E-01
   7163.33  5.9834942E-01
   7163.67  5.9378607E-01
   7164.00  5.8898169E-01
   7164.33  5.8390623E-01
   7164.67  5.7858976E-01
   7165.00  5.7303391E-01
   7165.33  5.6721366E-01
   7165.67  5.6116759E-01
   7166.00  5.5490875E-01
   7166.33  5.4843286E-01
   7166.67  5.4178963E-01
   7167.00  5.3500664E-01
   7167.33  5.2810496E-01
   7167.67  5.2113543E-01
   7168.00  5.1413786E-01
   7168.33  5.0716511E-01
   7168.67  5.0026512E-01
   7169.00  4.9348153E-01
   7169.33  4.8688497E-01
   7169.67  4.8050264E-01
   7170.00  4.7437430E-01
   7170.33  4.6858322E-01
   7170.67  4.6314033E-01
   7171.00  4.5809404E-01
   7171.33  4.5358135E-01
   7171.67  4.4967360E-01
   7172.00  4.4653614E-01
