    FDMNES
    energy     <xanes>
   7097.00  5.1388585E-03
   7097.33  5.2623745E-03
   7097.67  5.3915128E-03
   7098.00  5.5266483E-03
   7098.33  5.6690718E-03
   7098.67  5.8185075E-03
   7099.00  5.9754610E-03
   7099.33  6.1416076E-03
   7099.67  6.3166576E-03
   7100.00  6.5013095E-03
   7100.33  6.6977881E-03
   7100.67  6.9058088E-03
   7101.00  7.1263633E-03
   7101.33  7.3624876E-03
   7101.67  7.6139446E-03
   7102.00  7.8821886E-03
   7102.33  8.1714986E-03
   7102.67  8.4817792E-03
   7103.00  8.8152473E-03
   7103.33  9.1781736E-03
   7103.67  9.5708154E-03
   7104.00  9.9967161E-03
   7104.33  1.0465521E-02
   7104.67  1.0978332E-02
   7105.00  1.1541160E-02
   7105.33  1.2169795E-02
   7105.67  1.2867401E-02
   7106.00  1.3645021E-02
   7106.33  1.4530734E-02
   7106.67  1.5533167E-02
   7107.00  1.6674951E-02
   7107.33  1.8012322E-02
   7107.67  1.9570482E-02
   7108.00  2.1404161E-02
   7108.33  2.3649016E-02
   7108.67  2.6394066E-02
   7109.00  2.9813885E-02
   7109.33  3.4362175E-02
   7109.67  4.0497325E-02
   7110.00  4.9122397E-02
   7110.33  6.2797067E-02
   7110.67  8.4081282E-02
   7111.00  1.1311363E-01
   7111.33  1.3966530E-01
   7111.67  1.6098881E-01
   7112.00  1.8654624E-01
   7112.33  2.2005677E-01
   7112.67  2.6422790E-01
   7113.00  3.3241597E-01
   7113.33  4.5388792E-01
   7113.67  6.1765081E-01
   7114.00  7.6309403E-01
   7114.33  7.7036282E-01
   7114.67  6.4622027E-01
   7115.00  4.9128108E-01
   7115.33  3.7721591E-01
   7115.67  3.0018578E-01
   7116.00  2.4985723E-01
   7116.33  2.1958930E-01
   7116.67  2.0229960E-01
   7117.00  1.9561926E-01
   7117.33  1.9668690E-01
   7117.67  1.9764373E-01
   7118.00  1.9293150E-01
   7118.33  1.8106960E-01
   7118.67  1.6696473E-01
   7119.00  1.5421659E-01
   7119.33  1.4489725E-01
   7119.67  1.3823340E-01
   7120.00  1.3323954E-01
   7120.33  1.2885927E-01
   7120.67  1.2447156E-01
   7121.00  1.2035029E-01
   7121.33  1.1760924E-01
   7121.67  1.1682111E-01
   7122.00  1.1789749E-01
   7122.33  1.2035265E-01
   7122.67  1.2342958E-01
   7123.00  1.2687589E-01
   7123.33  1.3071524E-01
   7123.67  1.3503651E-01
   7124.00  1.3994664E-01
   7124.33  1.4556541E-01
   7124.67  1.5185080E-01
   7125.00  1.5893981E-01
   7125.33  1.6729587E-01
   7125.67  1.7714087E-01
   7126.00  1.8862791E-01
   7126.33  2.0183624E-01
   7126.67  2.1634319E-01
   7127.00  2.3208551E-01
   7127.33  2.4950705E-01
   7127.67  2.6915519E-01
   7128.00  2.9202142E-01
   7128.33  3.1984086E-01
   7128.67  3.5264156E-01
   7129.00  3.9004642E-01
   7129.33  4.3088840E-01
   7129.67  4.7280355E-01
   7130.00  5.1483589E-01
   7130.33  5.5715622E-01
   7130.67  6.0052413E-01
   7131.00  6.4585922E-01
   7131.33  6.9518079E-01
   7131.67  7.4945831E-01
   7132.00  8.0865800E-01
   7132.33  8.7094835E-01
   7132.67  9.3206167E-01
   7133.00  9.8835236E-01
   7133.33  1.0356843E+00
   7133.67  1.0734773E+00
   7134.00  1.1007471E+00
   7134.33  1.1135352E+00
   7134.67  1.1096859E+00
   7135.00  1.0865896E+00
   7135.33  1.0422947E+00
   7135.67  9.8374812E-01
   7136.00  9.1664684E-01
   7136.33  8.4695697E-01
   7136.67  7.7950422E-01
   7137.00  7.1671101E-01
   7137.33  6.6091775E-01
   7137.67  6.1207373E-01
   7138.00  5.7042846E-01
   7138.33  5.3689665E-01
   7138.67  5.1032878E-01
   7139.00  4.9032148E-01
   7139.33  4.7694819E-01
   7139.67  4.6864284E-01
   7140.00  4.6462546E-01
   7140.33  4.6443011E-01
   7140.67  4.6685308E-01
   7141.00  4.7135815E-01
   7141.33  4.7768188E-01
   7141.67  4.8529908E-01
   7142.00  4.9401018E-01
   7142.33  5.0374250E-01
   7142.67  5.1420862E-01
   7143.00  5.2524860E-01
   7143.33  5.3670042E-01
   7143.67  5.4828871E-01
   7144.00  5.5980526E-01
   7144.33  5.7096930E-01
   7144.67  5.8159161E-01
   7145.00  5.9149388E-01
   7145.33  6.0038207E-01
   7145.67  6.0821366E-01
   7146.00  6.1487280E-01
   7146.33  6.2008345E-01
   7146.67  6.2391530E-01
   7147.00  6.2631352E-01
   7147.33  6.2706766E-01
   7147.67  6.2638003E-01
   7148.00  6.2431016E-01
   7148.33  6.2082037E-01
   7148.67  6.1623814E-01
   7149.00  6.1074057E-01
   7149.33  6.0447115E-01
   7149.67  5.9775395E-01
   7150.00  5.9078909E-01
   7150.33  5.8379037E-01
   7150.67  5.7695953E-01
   7151.00  5.7044782E-01
   7151.33  5.6445359E-01
   7151.67  5.5902748E-01
   7152.00  5.5424525E-01
   7152.33  5.5026338E-01
   7152.67  5.4703767E-01
   7153.00  5.4459229E-01
   7153.33  5.4304028E-01
   7153.67  5.4228207E-01
   7154.00  5.4230673E-01
   7154.33  5.4318382E-01
   7154.67  5.4477906E-01
   7155.00  5.4704538E-01
   7155.33  5.4998578E-01
   7155.67  5.5343376E-01
   7156.00  5.5729447E-01
   7156.33  5.6147606E-01
   7156.67  5.6580216E-01
   7157.00  5.7014713E-01
   7157.33  5.7435114E-01
   7157.67  5.7829576E-01
   7158.00  5.8187920E-01
   7158.33  5.8494514E-01
   7158.67  5.8747524E-01
   7159.00  5.8942214E-01
   7159.33  5.9067152E-01
   7159.67  5.9128105E-01
   7160.00  5.9124473E-01
   7160.33  5.9048528E-01
   7160.67  5.8909478E-01
   7161.00  5.8708889E-01
   7161.33  5.8441668E-01
   7161.67  5.8117602E-01
   7162.00  5.7738653E-01
   7162.33  5.7301640E-01
   7162.67  5.6817142E-01
   7163.00  5.6288616E-01
   7163.33  5.5715295E-01
   7163.67  5.5107138E-01
   7164.00  5.4468795E-01
   7164.33  5.3802760E-01
   7164.67  5.3117678E-01
   7165.00  5.2418193E-01
   7165.33  5.1708149E-01
   7165.67  5.0993293E-01
   7166.00  5.0277261E-01
   7166.33  4.9564147E-01
   7166.67  4.8856929E-01
   7167.00  4.8158146E-01
   7167.33  4.7471669E-01
   7167.67  4.6798207E-01
   7168.00  4.6139412E-01
   7168.33  4.5499157E-01
   7168.67  4.4877084E-01
   7169.00  4.4274823E-01
   7169.33  4.3697702E-01
   7169.67  4.3145732E-01
   7170.00  4.2620951E-01
   7170.33  4.2129495E-01
   7170.67  4.1670813E-01
   7171.00  4.1248582E-01
   7171.33  4.0874333E-01
   7171.67  4.0552676E-01
   7172.00  4.0295388E-01
