    FDMNES
    energy     <xanes>
   7097.00  5.1322540E-03
   7097.33  5.2557124E-03
   7097.67  5.3848052E-03
   7098.00  5.5199092E-03
   7098.33  5.6623202E-03
   7098.67  5.8117635E-03
   7099.00  5.9687481E-03
   7099.33  6.1349572E-03
   7099.67  6.3101029E-03
   7100.00  6.4948890E-03
   7100.33  6.6915535E-03
   7100.67  6.8998143E-03
   7101.00  7.1206720E-03
   7101.33  7.3571840E-03
   7101.67  7.6091180E-03
   7102.00  7.8779427E-03
   7102.33  8.1679724E-03
   7102.67  8.4791205E-03
   7103.00  8.8136283E-03
   7103.33  9.1778260E-03
   7103.67  9.5719866E-03
   7104.00  9.9996955E-03
   7104.33  1.0470701E-02
   7104.67  1.0986130E-02
   7105.00  1.1552070E-02
   7105.33  1.2184482E-02
   7105.67  1.2886581E-02
   7106.00  1.3669529E-02
   7106.33  1.4561694E-02
   7106.67  1.5571758E-02
   7107.00  1.6722515E-02
   7107.33  1.8070558E-02
   7107.67  1.9640982E-02
   7108.00  2.1488405E-02
   7108.33  2.3747978E-02
   7108.67  2.6506826E-02
   7109.00  2.9936003E-02
   7109.33  3.4478104E-02
   7109.67  4.0570784E-02
   7110.00  4.9073139E-02
   7110.33  6.2383549E-02
   7110.67  8.2668347E-02
   7111.00  1.0960432E-01
   7111.33  1.3759678E-01
   7111.67  1.6664234E-01
   7112.00  1.9709413E-01
   7112.33  2.3309325E-01
   7112.67  2.8818975E-01
   7113.00  3.8147240E-01
   7113.33  5.3281706E-01
   7113.67  6.9166714E-01
   7114.00  7.7141808E-01
   7114.33  6.8953065E-01
   7114.67  5.4240483E-01
   7115.00  4.1259691E-01
   7115.33  3.2621613E-01
   7115.67  2.6820040E-01
   7116.00  2.2988502E-01
   7116.33  2.0739557E-01
   7116.67  1.9609305E-01
   7117.00  1.9380805E-01
   7117.33  1.9632725E-01
   7117.67  1.9589760E-01
   7118.00  1.8861291E-01
   7118.33  1.7569497E-01
   7118.67  1.6272726E-01
   7119.00  1.5231408E-01
   7119.33  1.4520246E-01
   7119.67  1.4004345E-01
   7120.00  1.3577054E-01
   7120.33  1.3137956E-01
   7120.67  1.2657472E-01
   7121.00  1.2189248E-01
   7121.33  1.1877548E-01
   7121.67  1.1790863E-01
   7122.00  1.1913785E-01
   7122.33  1.2187816E-01
   7122.67  1.2532858E-01
   7123.00  1.2923408E-01
   7123.33  1.3354767E-01
   7123.67  1.3820385E-01
   7124.00  1.4322720E-01
   7124.33  1.4884197E-01
   7124.67  1.5529268E-01
   7125.00  1.6289956E-01
   7125.33  1.7221808E-01
   7125.67  1.8338143E-01
   7126.00  1.9654409E-01
   7126.33  2.1182687E-01
   7126.67  2.2873815E-01
   7127.00  2.4733296E-01
   7127.33  2.6852050E-01
   7127.67  2.9303164E-01
   7128.00  3.2177411E-01
   7128.33  3.5592899E-01
   7128.67  3.9411006E-01
   7129.00  4.3418647E-01
   7129.33  4.7326228E-01
   7129.67  5.1057467E-01
   7130.00  5.4707341E-01
   7130.33  5.8412804E-01
   7130.67  6.2214042E-01
   7131.00  6.6133018E-01
   7131.33  7.0258391E-01
   7131.67  7.4624367E-01
   7132.00  7.9206147E-01
   7132.33  8.3878117E-01
   7132.67  8.8425924E-01
   7133.00  9.2679495E-01
   7133.33  9.6465825E-01
   7133.67  9.9819604E-01
   7134.00  1.0274741E+00
   7134.33  1.0504496E+00
   7134.67  1.0636182E+00
   7135.00  1.0616762E+00
   7135.33  1.0372755E+00
   7135.67  9.9298789E-01
   7136.00  9.3322467E-01
   7136.33  8.6452914E-01
   7136.67  7.9487834E-01
   7137.00  7.2855235E-01
   7137.33  6.6930666E-01
   7137.67  6.1775947E-01
   7138.00  5.7434819E-01
   7138.33  5.4006622E-01
   7138.67  5.1348707E-01
   7139.00  4.9400314E-01
   7139.33  4.8141368E-01
   7139.67  4.7379450E-01
   7140.00  4.7011892E-01
   7140.33  4.6966685E-01
   7140.67  4.7124529E-01
   7141.00  4.7436774E-01
   7141.33  4.7885543E-01
   7141.67  4.8440351E-01
   7142.00  4.9095384E-01
   7142.33  4.9857603E-01
   7142.67  5.0707626E-01
   7143.00  5.1635275E-01
   7143.33  5.2631342E-01
   7143.67  5.3666712E-01
   7144.00  5.4720687E-01
   7144.33  5.5767788E-01
   7144.67  5.6784918E-01
   7145.00  5.7752949E-01
   7145.33  5.8642626E-01
   7145.67  5.9443692E-01
   7146.00  6.0141030E-01
   7146.33  6.0704123E-01
   7146.67  6.1135526E-01
   7147.00  6.1427847E-01
   7147.33  6.1559334E-01
   7147.67  6.1550062E-01
   7148.00  6.1407059E-01
   7148.33  6.1128984E-01
   7148.67  6.0749095E-01
   7149.00  6.0285263E-01
   7149.33  5.9751347E-01
   7149.67  5.9176466E-01
   7150.00  5.8577871E-01
   7150.33  5.7973443E-01
   7150.67  5.7380130E-01
   7151.00  5.6809489E-01
   7151.33  5.6277449E-01
   7151.67  5.5789814E-01
   7152.00  5.5353674E-01
   7152.33  5.4983363E-01
   7152.67  5.4677726E-01
   7153.00  5.4441475E-01
   7153.33  5.4288763E-01
   7153.67  5.4214406E-01
   7154.00  5.4221054E-01
   7154.33  5.4320612E-01
   7154.67  5.4502080E-01
   7155.00  5.4762554E-01
   7155.33  5.5104407E-01
   7155.67  5.5507972E-01
   7156.00  5.5960881E-01
   7156.33  5.6449348E-01
   7156.67  5.6949234E-01
   7157.00  5.7442493E-01
   7157.33  5.7905558E-01
   7157.67  5.8323986E-01
   7158.00  5.8685341E-01
   7158.33  5.8970546E-01
   7158.67  5.9181636E-01
   7159.00  5.9316107E-01
   7159.33  5.9364348E-01
   7159.67  5.9338330E-01
   7160.00  5.9241493E-01
   7160.33  5.9070685E-01
   7160.67  5.8839821E-01
   7161.00  5.8553790E-01
   7161.33  5.8211279E-01
   7161.67  5.7823131E-01
   7162.00  5.7393673E-01
   7162.33  5.6923222E-01
   7162.67  5.6420397E-01
   7163.00  5.5888456E-01
   7163.33  5.5328116E-01
   7163.67  5.4746289E-01
   7164.00  5.4146089E-01
   7164.33  5.3529126E-01
   7164.67  5.2900541E-01
   7165.00  5.2262949E-01
   7165.33  5.1618234E-01
   7165.67  5.0969539E-01
   7166.00  5.0318736E-01
   7166.33  4.9667710E-01
   7166.67  4.9018192E-01
   7167.00  4.8371588E-01
   7167.33  4.7729897E-01
   7167.67  4.7093935E-01
   7168.00  4.6465002E-01
   7168.33  4.5845882E-01
   7168.67  4.5237654E-01
   7169.00  4.4643134E-01
   7169.33  4.4068179E-01
   7169.67  4.3513949E-01
   7170.00  4.2983341E-01
   7170.33  4.2483515E-01
   7170.67  4.2015459E-01
   7171.00  4.1583784E-01
   7171.33  4.1201007E-01
   7171.67  4.0872304E-01
   7172.00  4.0609838E-01
