    FDMNES
    energy     <xanes>
   7097.00  3.9993761E-03
   7097.33  4.0800781E-03
   7097.67  4.1639731E-03
   7098.00  4.2512647E-03
   7098.33  4.3426721E-03
   7098.67  4.4380306E-03
   7099.00  4.5376182E-03
   7099.33  4.6423707E-03
   7099.67  4.7521222E-03
   7100.00  4.8672650E-03
   7100.33  4.9890537E-03
   7100.67  5.1173392E-03
   7101.00  5.2526958E-03
   7101.33  5.3968681E-03
   7101.67  5.5497643E-03
   7102.00  5.7122617E-03
   7102.33  5.8868976E-03
   7102.67  6.0737272E-03
   7103.00  6.2741635E-03
   7103.33  6.4921039E-03
   7103.67  6.7279614E-03
   7104.00  6.9841628E-03
   7104.33  7.2671165E-03
   7104.67  7.5781178E-03
   7105.00  7.9216840E-03
   7105.33  8.3093089E-03
   7105.67  8.7445972E-03
   7106.00  9.2368818E-03
   7106.33  9.8092774E-03
   7106.67  1.0472116E-02
   7107.00  1.1247611E-02
   7107.33  1.2190203E-02
   7107.67  1.3333440E-02
   7108.00  1.4742134E-02
   7108.33  1.6578214E-02
   7108.67  1.8979827E-02
   7109.00  2.2206549E-02
   7109.33  2.6957489E-02
   7109.67  3.4087762E-02
   7110.00  4.5289722E-02
   7110.33  6.5402791E-02
   7110.67  9.8279744E-02
   7111.00  1.3811233E-01
   7111.33  1.6060981E-01
   7111.67  1.7345202E-01
   7112.00  1.8609361E-01
   7112.33  1.9024137E-01
   7112.67  1.7442446E-01
   7113.00  1.3992852E-01
   7113.33  1.0661454E-01
   7113.67  8.3111619E-02
   7114.00  6.8570410E-02
   7114.33  5.9948983E-02
   7114.67  5.2823573E-02
   7115.00  4.6114654E-02
   7115.33  4.0511112E-02
   7115.67  3.6829464E-02
   7116.00  3.4860910E-02
   7116.33  3.4179743E-02
   7116.67  3.4256124E-02
   7117.00  3.4907545E-02
   7117.33  3.6104193E-02
   7117.67  3.7792670E-02
   7118.00  4.0030284E-02
   7118.33  4.2962788E-02
   7118.67  4.6495913E-02
   7119.00  5.0492723E-02
   7119.33  5.4668283E-02
   7119.67  5.8600072E-02
   7120.00  6.1947182E-02
   7120.33  6.4413857E-02
   7120.67  6.6318653E-02
   7121.00  6.8118059E-02
   7121.33  7.0374941E-02
   7121.67  7.3351398E-02
   7122.00  7.7212113E-02
   7122.33  8.2332205E-02
   7122.67  8.8965404E-02
   7123.00  9.7589027E-02
   7123.33  1.0923001E-01
   7123.67  1.2438723E-01
   7124.00  1.4389992E-01
   7124.33  1.6953473E-01
   7124.67  2.0154302E-01
   7125.00  2.3995937E-01
   7125.33  2.8308447E-01
   7125.67  3.2522148E-01
   7126.00  3.6146898E-01
   7126.33  3.8801538E-01
   7126.67  4.0657965E-01
   7127.00  4.1904750E-01
   7127.33  4.2833903E-01
   7127.67  4.4057181E-01
   7128.00  4.6136922E-01
   7128.33  4.9440282E-01
   7128.67  5.3653786E-01
   7129.00  5.8596066E-01
   7129.33  6.4295125E-01
   7129.67  7.0719775E-01
   7130.00  7.7876198E-01
   7130.33  8.5671558E-01
   7130.67  9.3638437E-01
   7131.00  1.0127759E+00
   7131.33  1.0780709E+00
   7131.67  1.1275958E+00
   7132.00  1.1578578E+00
   7132.33  1.1646925E+00
   7132.67  1.1519167E+00
   7133.00  1.1225886E+00
   7133.33  1.0808301E+00
   7133.67  1.0346188E+00
   7134.00  9.8899783E-01
   7134.33  9.4748399E-01
   7134.67  9.0927290E-01
   7135.00  8.7300385E-01
   7135.33  8.3807621E-01
   7135.67  8.0465127E-01
   7136.00  7.7326225E-01
   7136.33  7.4468860E-01
   7136.67  7.1882996E-01
   7137.00  6.9571430E-01
   7137.33  6.7560389E-01
   7137.67  6.5804003E-01
   7138.00  6.4290036E-01
   7138.33  6.3031258E-01
   7138.67  6.1981955E-01
   7139.00  6.1125686E-01
   7139.33  6.0462811E-01
   7139.67  5.9949183E-01
   7140.00  5.9565463E-01
   7140.33  5.9304197E-01
   7140.67  5.9133157E-01
   7141.00  5.9038810E-01
   7141.33  5.9016433E-01
   7141.67  5.9048258E-01
   7142.00  5.9127521E-01
   7142.33  5.9251934E-01
   7142.67  5.9408958E-01
   7143.00  5.9592393E-01
   7143.33  5.9796707E-01
   7143.67  6.0010188E-01
   7144.00  6.0225398E-01
   7144.33  6.0435527E-01
   7144.67  6.0638130E-01
   7145.00  6.0833115E-01
   7145.33  6.1021667E-01
   7145.67  6.1206462E-01
   7146.00  6.1386819E-01
   7146.33  6.1558246E-01
   7146.67  6.1717728E-01
   7147.00  6.1860703E-01
   7147.33  6.1976450E-01
   7147.67  6.2058417E-01
   7148.00  6.2097571E-01
   7148.33  6.2076332E-01
   7148.67  6.1990823E-01
   7149.00  6.1832834E-01
   7149.33  6.1584640E-01
   7149.67  6.1251293E-01
   7150.00  6.0830854E-01
   7150.33  6.0312539E-01
   7150.67  5.9709533E-01
   7151.00  5.9025343E-01
   7151.33  5.8255477E-01
   7151.67  5.7414320E-01
   7152.00  5.6505631E-01
   7152.33  5.5525304E-01
   7152.67  5.4484734E-01
   7153.00  5.3386773E-01
   7153.33  5.2227995E-01
   7153.67  5.1018846E-01
   7154.00  4.9763100E-01
   7154.33  4.8460675E-01
   7154.67  4.7122944E-01
   7155.00  4.5756071E-01
   7155.33  4.4365338E-01
   7155.67  4.2962177E-01
   7156.00  4.1554861E-01
   7156.33  4.0154429E-01
   7156.67  3.8770785E-01
   7157.00  3.7413123E-01
   7157.33  3.6096325E-01
   7157.67  3.4825568E-01
   7158.00  3.3608496E-01
   7158.33  3.2460560E-01
   7158.67  3.1380602E-01
   7159.00  3.0373363E-01
   7159.33  2.9453098E-01
   7159.67  2.8613961E-01
   7160.00  2.7858801E-01
   7160.33  2.7201446E-01
   7160.67  2.6633839E-01
   7161.00  2.6158256E-01
   7161.33  2.5789349E-01
   7161.67  2.5518673E-01
   7162.00  2.5349252E-01
   7162.33  2.5296419E-01
   7162.67  2.5347238E-01
   7163.00  2.5499661E-01
   7163.33  2.5759720E-01
   7163.67  2.6105992E-01
   7164.00  2.6527442E-01
   7164.33  2.7015277E-01
   7164.67  2.7544211E-01
   7165.00  2.8098741E-01
   7165.33  2.8662951E-01
   7165.67  2.9221120E-01
   7166.00  2.9763239E-01
   7166.33  3.0278001E-01
   7166.67  3.0763507E-01
   7167.00  3.1217783E-01
   7167.33  3.1637302E-01
   7167.67  3.2028336E-01
   7168.00  3.2393873E-01
   7168.33  3.2735296E-01
   7168.67  3.3059552E-01
   7169.00  3.3370192E-01
   7169.33  3.3669801E-01
   7169.67  3.3962898E-01
   7170.00  3.4251724E-01
   7170.33  3.4537624E-01
   7170.67  3.4821099E-01
   7171.00  3.5100455E-01
   7171.33  3.5368690E-01
   7171.67  3.5613962E-01
   7172.00  3.5817666E-01
