    FDMNES
    energy     <xanes>
   7097.00  4.1433674E-03
   7097.33  4.2265003E-03
   7097.67  4.3127991E-03
   7098.00  4.4024521E-03
   7098.33  4.4961491E-03
   7098.67  4.5937070E-03
   7099.00  4.6953773E-03
   7099.33  4.8020388E-03
   7099.67  4.9134994E-03
   7100.00  5.0301046E-03
   7100.33  5.1530042E-03
   7100.67  5.2820082E-03
   7101.00  5.4176078E-03
   7101.33  5.5613570E-03
   7101.67  5.7130938E-03
   7102.00  5.8735456E-03
   7102.33  6.0448979E-03
   7102.67  6.2270766E-03
   7103.00  6.4212128E-03
   7103.33  6.6305382E-03
   7103.67  6.8552049E-03
   7104.00  7.0970828E-03
   7104.33  7.3612615E-03
   7104.67  7.6484604E-03
   7105.00  7.9620166E-03
   7105.33  8.3106284E-03
   7105.67  8.6964879E-03
   7106.00  9.1261760E-03
   7106.33  9.6162586E-03
   7106.67  1.0173116E-02
   7107.00  1.0811595E-02
   7107.33  1.1568347E-02
   7107.67  1.2463621E-02
   7108.00  1.3538031E-02
   7108.33  1.4892637E-02
   7108.67  1.6606452E-02
   7109.00  1.8829051E-02
   7109.33  2.1956044E-02
   7109.67  2.6436801E-02
   7110.00  3.3152726E-02
   7110.33  4.4630360E-02
   7110.67  6.3424641E-02
   7111.00  8.9594068E-02
   7111.33  1.1580231E-01
   7111.67  1.3719217E-01
   7112.00  1.5007213E-01
   7112.33  1.5540968E-01
   7112.67  1.4975153E-01
   7113.00  1.3250899E-01
   7113.33  1.1492632E-01
   7113.67  1.0259674E-01
   7114.00  9.6066156E-02
   7114.33  9.6232624E-02
   7114.67  9.6748967E-02
   7115.00  8.9395152E-02
   7115.33  7.4464819E-02
   7115.67  6.2148065E-02
   7116.00  5.5010264E-02
   7116.33  5.2373081E-02
   7116.67  5.2257238E-02
   7117.00  5.3696771E-02
   7117.33  5.5753051E-02
   7117.67  5.7811702E-02
   7118.00  6.0099871E-02
   7118.33  6.3325017E-02
   7118.67  6.7806974E-02
   7119.00  7.3758788E-02
   7119.33  8.1651102E-02
   7119.67  9.1648728E-02
   7120.00  1.0422900E-01
   7120.33  1.2060361E-01
   7120.67  1.4146400E-01
   7121.00  1.6806864E-01
   7121.33  2.0311007E-01
   7121.67  2.4728529E-01
   7122.00  3.0087524E-01
   7122.33  3.6068102E-01
   7122.67  4.1480518E-01
   7123.00  4.5055418E-01
   7123.33  4.5806988E-01
   7123.67  4.4796634E-01
   7124.00  4.3126866E-01
   7124.33  4.1764281E-01
   7124.67  4.1096153E-01
   7125.00  4.1216459E-01
   7125.33  4.2137666E-01
   7125.67  4.3552338E-01
   7126.00  4.5189032E-01
   7126.33  4.6690459E-01
   7126.67  4.7855195E-01
   7127.00  4.8682988E-01
   7127.33  4.9293232E-01
   7127.67  4.9899183E-01
   7128.00  5.0639886E-01
   7128.33  5.1624030E-01
   7128.67  5.2858200E-01
   7129.00  5.4388283E-01
   7129.33  5.6354551E-01
   7129.67  5.8813619E-01
   7130.00  6.1833980E-01
   7130.33  6.5500789E-01
   7130.67  6.9622355E-01
   7131.00  7.3920731E-01
   7131.33  7.7764724E-01
   7131.67  8.0470365E-01
   7132.00  8.1557297E-01
   7132.33  8.0760416E-01
   7132.67  7.8761091E-01
   7133.00  7.6132595E-01
   7133.33  7.3434114E-01
   7133.67  7.1020359E-01
   7134.00  6.9027165E-01
   7134.33  6.7535855E-01
   7134.67  6.6432926E-01
   7135.00  6.5644581E-01
   7135.33  6.5110796E-01
   7135.67  6.4720049E-01
   7136.00  6.4408544E-01
   7136.33  6.4115161E-01
   7136.67  6.3787173E-01
   7137.00  6.3391845E-01
   7137.33  6.2895788E-01
   7137.67  6.2308440E-01
   7138.00  6.1643021E-01
   7138.33  6.0918908E-01
   7138.67  6.0175485E-01
   7139.00  5.9443288E-01
   7139.33  5.8761181E-01
   7139.67  5.8150562E-01
   7140.00  5.7627819E-01
   7140.33  5.7215957E-01
   7140.67  5.6904854E-01
   7141.00  5.6690596E-01
   7141.33  5.6574441E-01
   7141.67  5.6532670E-01
   7142.00  5.6553767E-01
   7142.33  5.6632356E-01
   7142.67  5.6753709E-01
   7143.00  5.6913814E-01
   7143.33  5.7115472E-01
   7143.67  5.7353833E-01
   7144.00  5.7628608E-01
   7144.33  5.7941880E-01
   7144.67  5.8285154E-01
   7145.00  5.8653523E-01
   7145.33  5.9040883E-01
   7145.67  5.9431103E-01
   7146.00  5.9807830E-01
   7146.33  6.0146064E-01
   7146.67  6.0431090E-01
   7147.00  6.0649927E-01
   7147.33  6.0782353E-01
   7147.67  6.0831123E-01
   7148.00  6.0791510E-01
   7148.33  6.0645740E-01
   7148.67  6.0399803E-01
   7149.00  6.0051481E-01
   7149.33  5.9593385E-01
   7149.67  5.9052880E-01
   7150.00  5.8450430E-01
   7150.33  5.7810420E-01
   7150.67  5.7165800E-01
   7151.00  5.6538419E-01
   7151.33  5.5953173E-01
   7151.67  5.5419518E-01
   7152.00  5.4944987E-01
   7152.33  5.4541565E-01
   7152.67  5.4200679E-01
   7153.00  5.3918390E-01
   7153.33  5.3693030E-01
   7153.67  5.3505748E-01
   7154.00  5.3342154E-01
   7154.33  5.3185696E-01
   7154.67  5.3017754E-01
   7155.00  5.2822059E-01
   7155.33  5.2573130E-01
   7155.67  5.2257667E-01
   7156.00  5.1860384E-01
   7156.33  5.1353998E-01
   7156.67  5.0739839E-01
   7157.00  5.0013220E-01
   7157.33  4.9160807E-01
   7157.67  4.8204077E-01
   7158.00  4.7154797E-01
   7158.33  4.6022922E-01
   7158.67  4.4841232E-01
   7159.00  4.3632045E-01
   7159.33  4.2421343E-01
   7159.67  4.1233616E-01
   7160.00  4.0086808E-01
   7160.33  3.9004039E-01
   7160.67  3.7988749E-01
   7161.00  3.7046274E-01
   7161.33  3.6189327E-01
   7161.67  3.5409725E-01
   7162.00  3.4707649E-01
   7162.33  3.4092969E-01
   7162.67  3.3557033E-01
   7163.00  3.3101167E-01
   7163.33  3.2736271E-01
   7163.67  3.2451956E-01
   7164.00  3.2247961E-01
   7164.33  3.2132891E-01
   7164.67  3.2093464E-01
   7165.00  3.2124732E-01
   7165.33  3.2226391E-01
   7165.67  3.2380382E-01
   7166.00  3.2576947E-01
   7166.33  3.2808855E-01
   7166.67  3.3062729E-01
   7167.00  3.3332640E-01
   7167.33  3.3615974E-01
   7167.67  3.3909711E-01
   7168.00  3.4213900E-01
   7168.33  3.4530625E-01
   7168.67  3.4859087E-01
   7169.00  3.5199331E-01
   7169.33  3.5552066E-01
   7169.67  3.5914373E-01
   7170.00  3.6284222E-01
   7170.33  3.6658890E-01
   7170.67  3.7033265E-01
   7171.00  3.7401726E-01
   7171.33  3.7751943E-01
   7171.67  3.8067928E-01
   7172.00  3.8326523E-01
