    FDMNES
    energy     <xanes>
   7097.00  4.1116741E-03
   7097.33  4.2003708E-03
   7097.67  4.2928998E-03
   7098.00  4.3895262E-03
   7098.33  4.4911486E-03
   7098.67  4.5975976E-03
   7099.00  4.7092424E-03
   7099.33  4.8272762E-03
   7099.67  4.9515376E-03
   7100.00  5.0825577E-03
   7100.33  5.2219725E-03
   7100.67  5.3696583E-03
   7101.00  5.5264084E-03
   7101.33  5.6945539E-03
   7101.67  5.8740735E-03
   7102.00  6.0662064E-03
   7102.33  6.2744326E-03
   7102.67  6.4989786E-03
   7103.00  6.7418878E-03
   7103.33  7.0086579E-03
   7103.67  7.3001060E-03
   7104.00  7.6198320E-03
   7104.33  7.9771549E-03
   7104.67  8.3743463E-03
   7105.00  8.8182961E-03
   7105.33  9.3262830E-03
   7105.67  9.9044280E-03
   7106.00  1.0567417E-02
   7106.33  1.1351303E-02
   7106.67  1.2273646E-02
   7107.00  1.3370672E-02
   7107.33  1.4730898E-02
   7107.67  1.6412437E-02
   7108.00  1.8525428E-02
   7108.33  2.1345831E-02
   7108.67  2.5120299E-02
   7109.00  3.0310177E-02
   7109.33  3.8167133E-02
   7109.67  5.0268947E-02
   7110.00  6.9750656E-02
   7110.33  1.0572825E-01
   7110.67  1.6650727E-01
   7111.00  2.4405391E-01
   7111.33  2.7983990E-01
   7111.67  2.5839788E-01
   7112.00  2.1139154E-01
   7112.33  1.7033197E-01
   7112.67  1.4058776E-01
   7113.00  1.1786619E-01
   7113.33  9.7767911E-02
   7113.67  8.0553373E-02
   7114.00  6.7970256E-02
   7114.33  6.1030495E-02
   7114.67  5.7713024E-02
   7115.00  5.4849898E-02
   7115.33  4.9946411E-02
   7115.67  4.5548923E-02
   7116.00  4.2954659E-02
   7116.33  4.1979134E-02
   7116.67  4.1648008E-02
   7117.00  4.1458548E-02
   7117.33  4.1268455E-02
   7117.67  4.1369320E-02
   7118.00  4.2117382E-02
   7118.33  4.3886394E-02
   7118.67  4.6561092E-02
   7119.00  4.9949850E-02
   7119.33  5.3711369E-02
   7119.67  5.7360476E-02
   7120.00  6.0608240E-02
   7120.33  6.3314598E-02
   7120.67  6.5732085E-02
   7121.00  6.8141319E-02
   7121.33  7.0925177E-02
   7121.67  7.4340238E-02
   7122.00  7.8593279E-02
   7122.33  8.4005003E-02
   7122.67  9.0635693E-02
   7123.00  9.8725540E-02
   7123.33  1.0899290E-01
   7123.67  1.2188511E-01
   7124.00  1.3805921E-01
   7124.33  1.5856635E-01
   7124.67  1.8305701E-01
   7125.00  2.1145278E-01
   7125.33  2.4419085E-01
   7125.67  2.7991163E-01
   7126.00  3.1616966E-01
   7126.33  3.4882188E-01
   7126.67  3.7588359E-01
   7127.00  3.9706967E-01
   7127.33  4.1413378E-01
   7127.67  4.3213789E-01
   7128.00  4.5511260E-01
   7128.33  4.8659219E-01
   7128.67  5.2510037E-01
   7129.00  5.6824806E-01
   7129.33  6.1318069E-01
   7129.67  6.5757118E-01
   7130.00  7.0028012E-01
   7130.33  7.4019764E-01
   7130.67  7.7710759E-01
   7131.00  8.1045069E-01
   7131.33  8.3884028E-01
   7131.67  8.6244915E-01
   7132.00  8.8196557E-01
   7132.33  8.9918517E-01
   7132.67  9.1691258E-01
   7133.00  9.3695501E-01
   7133.33  9.6093867E-01
   7133.67  9.8823731E-01
   7134.00  1.0171713E+00
   7134.33  1.0437601E+00
   7134.67  1.0636704E+00
   7135.00  1.0735198E+00
   7135.33  1.0697996E+00
   7135.67  1.0545246E+00
   7136.00  1.0297295E+00
   7136.33  9.9783165E-01
   7136.67  9.6271639E-01
   7137.00  9.2647041E-01
   7137.33  8.9078783E-01
   7137.67  8.5650753E-01
   7138.00  8.2399749E-01
   7138.33  7.9366407E-01
   7138.67  7.6530867E-01
   7139.00  7.3895526E-01
   7139.33  7.1490127E-01
   7139.67  6.9292131E-01
   7140.00  6.7301849E-01
   7140.33  6.5542821E-01
   7140.67  6.3983602E-01
   7141.00  6.2616082E-01
   7141.33  6.1449949E-01
   7141.67  6.0447933E-01
   7142.00  5.9596449E-01
   7142.33  5.8896110E-01
   7142.67  5.8313927E-01
   7143.00  5.7836307E-01
   7143.33  5.7459028E-01
   7143.67  5.7153981E-01
   7144.00  5.6904557E-01
   7144.33  5.6693546E-01
   7144.67  5.6493119E-01
   7145.00  5.6282157E-01
   7145.33  5.6032923E-01
   7145.67  5.5731013E-01
   7146.00  5.5367482E-01
   7146.33  5.4935141E-01
   7146.67  5.4453468E-01
   7147.00  5.3939129E-01
   7147.33  5.3413887E-01
   7147.67  5.2901948E-01
   7148.00  5.2420662E-01
   7148.33  5.1991623E-01
   7148.67  5.1619554E-01
   7149.00  5.1309461E-01
   7149.33  5.1070891E-01
   7149.67  5.0893842E-01
   7150.00  5.0774487E-01
   7150.33  5.0712734E-01
   7150.67  5.0693791E-01
   7151.00  5.0709373E-01
   7151.33  5.0752005E-01
   7151.67  5.0807612E-01
   7152.00  5.0866476E-01
   7152.33  5.0916393E-01
   7152.67  5.0947689E-01
   7153.00  5.0951947E-01
   7153.33  5.0915924E-01
   7153.67  5.0836418E-01
   7154.00  5.0707509E-01
   7154.33  5.0515616E-01
   7154.67  5.0261572E-01
   7155.00  4.9940649E-01
   7155.33  4.9539035E-01
   7155.67  4.9061596E-01
   7156.00  4.8505605E-01
   7156.33  4.7859265E-01
   7156.67  4.7132155E-01
   7157.00  4.6324832E-01
   7157.33  4.5430036E-01
   7157.67  4.4462412E-01
   7158.00  4.3428314E-01
   7158.33  4.2330363E-01
   7158.67  4.1187856E-01
   7159.00  4.0013227E-01
   7159.33  3.8820905E-01
   7159.67  3.7630693E-01
   7160.00  3.6458320E-01
   7160.33  3.5325755E-01
   7160.67  3.4244239E-01
   7161.00  3.3225125E-01
   7161.33  3.2287489E-01
   7161.67  3.1428391E-01
   7162.00  3.0650065E-01
   7162.33  2.9962191E-01
   7162.67  2.9352186E-01
   7163.00  2.8817148E-01
   7163.33  2.8362544E-01
   7163.67  2.7976512E-01
   7164.00  2.7657316E-01
   7164.33  2.7411919E-01
   7164.67  2.7231544E-01
   7165.00  2.7115592E-01
   7165.33  2.7070391E-01
   7165.67  2.7085073E-01
   7166.00  2.7155610E-01
   7166.33  2.7281921E-01
   7166.67  2.7450411E-01
   7167.00  2.7654355E-01
   7167.33  2.7889769E-01
   7167.67  2.8147456E-01
   7168.00  2.8424388E-01
   7168.33  2.8721199E-01
   7168.67  2.9035856E-01
   7169.00  2.9369451E-01
   7169.33  2.9726259E-01
   7169.67  3.0105089E-01
   7170.00  3.0506279E-01
   7170.33  3.0931098E-01
   7170.67  3.1372674E-01
   7171.00  3.1823853E-01
   7171.33  3.2268756E-01
   7171.67  3.2680154E-01
   7172.00  3.3021690E-01
