    FDMNES
    energy     <xanes>
   7097.00  4.5583827E-03
   7097.33  4.6533280E-03
   7097.67  4.7519939E-03
   7098.00  4.8546012E-03
   7098.33  4.9619598E-03
   7098.67  5.0738528E-03
   7099.00  5.1905729E-03
   7099.33  5.3131473E-03
   7099.67  5.4413449E-03
   7100.00  5.5755639E-03
   7100.33  5.7171388E-03
   7100.67  5.8658342E-03
   7101.00  6.0222089E-03
   7101.33  6.1880480E-03
   7101.67  6.3631361E-03
   7102.00  6.5482865E-03
   7102.33  6.7459749E-03
   7102.67  6.9560622E-03
   7103.00  7.1797871E-03
   7103.33  7.4207419E-03
   7103.67  7.6789944E-03
   7104.00  7.9565419E-03
   7104.33  8.2589073E-03
   7104.67  8.5866836E-03
   7105.00  8.9433343E-03
   7105.33  9.3380186E-03
   7105.67  9.7726911E-03
   7106.00  1.0253960E-02
   7106.33  1.0798655E-02
   7106.67  1.1412556E-02
   7107.00  1.2110037E-02
   7107.33  1.2926823E-02
   7107.67  1.3881128E-02
   7108.00  1.5010736E-02
   7108.33  1.6409741E-02
   7108.67  1.8147773E-02
   7109.00  2.0358185E-02
   7109.33  2.3391728E-02
   7109.67  2.7632903E-02
   7110.00  3.3836569E-02
   7110.33  4.4181325E-02
   7110.67  6.1112373E-02
   7111.00  8.5596447E-02
   7111.33  1.0996195E-01
   7111.67  1.2811668E-01
   7112.00  1.3638378E-01
   7112.33  1.4318898E-01
   7112.67  1.6132278E-01
   7113.00  1.8370028E-01
   7113.33  1.9246538E-01
   7113.67  1.7520016E-01
   7114.00  1.3911015E-01
   7114.33  1.0790916E-01
   7114.67  8.7776970E-02
   7115.00  7.6783842E-02
   7115.33  7.3161082E-02
   7115.67  7.4628589E-02
   7116.00  8.0841351E-02
   7116.33  9.2941206E-02
   7116.67  1.1159872E-01
   7117.00  1.3833669E-01
   7117.33  1.7515067E-01
   7117.67  2.1813803E-01
   7118.00  2.6141044E-01
   7118.33  2.9857399E-01
   7118.67  3.2895657E-01
   7119.00  3.5182029E-01
   7119.33  3.6342804E-01
   7119.67  3.6192188E-01
   7120.00  3.4830176E-01
   7120.33  3.3068424E-01
   7120.67  3.1800624E-01
   7121.00  3.1214372E-01
   7121.33  3.1156826E-01
   7121.67  3.1313908E-01
   7122.00  3.1557251E-01
   7122.33  3.1774564E-01
   7122.67  3.1946291E-01
   7123.00  3.2152170E-01
   7123.33  3.2399778E-01
   7123.67  3.2581117E-01
   7124.00  3.2716961E-01
   7124.33  3.2974466E-01
   7124.67  3.3420320E-01
   7125.00  3.4004061E-01
   7125.33  3.4694715E-01
   7125.67  3.5556740E-01
   7126.00  3.6704382E-01
   7126.33  3.8283843E-01
   7126.67  4.0232302E-01
   7127.00  4.2452369E-01
   7127.33  4.4875687E-01
   7127.67  4.7513789E-01
   7128.00  5.0451478E-01
   7128.33  5.3762780E-01
   7128.67  5.7315415E-01
   7129.00  6.0950066E-01
   7129.33  6.4412714E-01
   7129.67  6.7483707E-01
   7130.00  6.9988225E-01
   7130.33  7.1727420E-01
   7130.67  7.2859417E-01
   7131.00  7.3617202E-01
   7131.33  7.4296738E-01
   7131.67  7.5012863E-01
   7132.00  7.5651182E-01
   7132.33  7.5934581E-01
   7132.67  7.5729728E-01
   7133.00  7.5013885E-01
   7133.33  7.3814438E-01
   7133.67  7.2294748E-01
   7134.00  7.0538261E-01
   7134.33  6.8620471E-01
   7134.67  6.6661550E-01
   7135.00  6.4750385E-01
   7135.33  6.2996729E-01
   7135.67  6.1463767E-01
   7136.00  6.0212582E-01
   7136.33  5.9334751E-01
   7136.67  5.8798147E-01
   7137.00  5.8570420E-01
   7137.33  5.8601309E-01
   7137.67  5.8757735E-01
   7138.00  5.8948984E-01
   7138.33  5.9082004E-01
   7138.67  5.9110519E-01
   7139.00  5.9018761E-01
   7139.33  5.8801604E-01
   7139.67  5.8498589E-01
   7140.00  5.8136061E-01
   7140.33  5.7738995E-01
   7140.67  5.7334349E-01
   7141.00  5.6936364E-01
   7141.33  5.6555979E-01
   7141.67  5.6191963E-01
   7142.00  5.5841258E-01
   7142.33  5.5504281E-01
   7142.67  5.5186237E-01
   7143.00  5.4900276E-01
   7143.33  5.4674315E-01
   7143.67  5.4522904E-01
   7144.00  5.4457586E-01
   7144.33  5.4486993E-01
   7144.67  5.4577898E-01
   7145.00  5.4695254E-01
   7145.33  5.4785065E-01
   7145.67  5.4802650E-01
   7146.00  5.4721450E-01
   7146.33  5.4522025E-01
   7146.67  5.4234689E-01
   7147.00  5.3885751E-01
   7147.33  5.3505834E-01
   7147.67  5.3126908E-01
   7148.00  5.2764880E-01
   7148.33  5.2432044E-01
   7148.67  5.2126476E-01
   7149.00  5.1845818E-01
   7149.33  5.1589081E-01
   7149.67  5.1350767E-01
   7150.00  5.1129592E-01
   7150.33  5.0926919E-01
   7150.67  5.0739792E-01
   7151.00  5.0566634E-01
   7151.33  5.0405709E-01
   7151.67  5.0251422E-01
   7152.00  5.0099619E-01
   7152.33  4.9945038E-01
   7152.67  4.9783284E-01
   7153.00  4.9610748E-01
   7153.33  4.9421461E-01
   7153.67  4.9212755E-01
   7154.00  4.8980650E-01
   7154.33  4.8717738E-01
   7154.67  4.8424986E-01
   7155.00  4.8101810E-01
   7155.33  4.7745982E-01
   7155.67  4.7364699E-01
   7156.00  4.6962475E-01
   7156.33  4.6543732E-01
   7156.67  4.6116879E-01
   7157.00  4.5687349E-01
   7157.33  4.5261073E-01
   7157.67  4.4842176E-01
   7158.00  4.4433804E-01
   7158.33  4.4040982E-01
   7158.67  4.3664840E-01
   7159.00  4.3307154E-01
   7159.33  4.2972310E-01
   7159.67  4.2659491E-01
   7160.00  4.2369772E-01
   7160.33  4.2106677E-01
   7160.67  4.1867089E-01
   7161.00  4.1650458E-01
   7161.33  4.1458895E-01
   7161.67  4.1289076E-01
   7162.00  4.1140721E-01
   7162.33  4.1016452E-01
   7162.67  4.0913735E-01
   7163.00  4.0832745E-01
   7163.33  4.0776281E-01
   7163.67  4.0741481E-01
   7164.00  4.0728047E-01
   7164.33  4.0738068E-01
   7164.67  4.0768327E-01
   7165.00  4.0818303E-01
   7165.33  4.0889858E-01
   7165.67  4.0980192E-01
   7166.00  4.1089049E-01
   7166.33  4.1218474E-01
   7166.67  4.1365889E-01
   7167.00  4.1530935E-01
   7167.33  4.1715134E-01
   7167.67  4.1915548E-01
   7168.00  4.2131331E-01
   7168.33  4.2363072E-01
   7168.67  4.2607494E-01
   7169.00  4.2862994E-01
   7169.33  4.3128369E-01
   7169.67  4.3399625E-01
   7170.00  4.3673751E-01
   7170.33  4.3946505E-01
   7170.67  4.4213248E-01
   7171.00  4.4469079E-01
   7171.33  4.4704368E-01
   7171.67  4.4910812E-01
   7172.00  4.5076497E-01
