    FDMNES
    energy     <xanes>
   7097.00  4.2555087E-03
   7097.33  4.3366486E-03
   7097.67  4.4206515E-03
   7098.00  4.5076721E-03
   7098.33  4.5983089E-03
   7098.67  4.6923757E-03
   7099.00  4.7900745E-03
   7099.33  4.8921497E-03
   7099.67  4.9984010E-03
   7100.00  5.1090984E-03
   7100.33  5.2251902E-03
   7100.67  5.3464671E-03
   7101.00  5.4733017E-03
   7101.33  5.6069361E-03
   7101.67  5.7471664E-03
   7102.00  5.8945261E-03
   7102.33  6.0507016E-03
   7102.67  6.2155275E-03
   7103.00  6.3898042E-03
   7103.33  6.5759266E-03
   7103.67  6.7738469E-03
   7104.00  6.9848371E-03
   7104.33  7.2125035E-03
   7104.67  7.4571084E-03
   7105.00  7.7208290E-03
   7105.33  8.0095308E-03
   7105.67  8.3242934E-03
   7106.00  8.6692250E-03
   7106.33  9.0549158E-03
   7106.67  9.4847601E-03
   7107.00  9.9676127E-03
   7107.33  1.0525637E-02
   7107.67  1.1169786E-02
   7108.00  1.1923214E-02
   7108.33  1.2843797E-02
   7108.67  1.3974015E-02
   7109.00  1.5395828E-02
   7109.33  1.7325750E-02
   7109.67  2.0003044E-02
   7110.00  2.3899463E-02
   7110.33  3.0370228E-02
   7110.67  4.0808009E-02
   7111.00  5.5291007E-02
   7111.33  6.8472181E-02
   7111.67  7.5174803E-02
   7112.00  7.7596070E-02
   7112.33  8.6427651E-02
   7112.67  1.0442850E-01
   7113.00  1.2767942E-01
   7113.33  1.4941229E-01
   7113.67  1.5264792E-01
   7114.00  1.2619736E-01
   7114.33  9.2112975E-02
   7114.67  6.8454740E-02
   7115.00  5.4570398E-02
   7115.33  4.7444840E-02
   7115.67  4.3794358E-02
   7116.00  4.2461727E-02
   7116.33  4.2982571E-02
   7116.67  4.4902016E-02
   7117.00  4.8228878E-02
   7117.33  5.3382330E-02
   7117.67  6.0550461E-02
   7118.00  7.0131702E-02
   7118.33  8.2821759E-02
   7118.67  9.8229191E-02
   7119.00  1.1587512E-01
   7119.33  1.3502390E-01
   7119.67  1.5397008E-01
   7120.00  1.7069850E-01
   7120.33  1.8386581E-01
   7120.67  1.9648253E-01
   7121.00  2.1174617E-01
   7121.33  2.3193622E-01
   7121.67  2.5547643E-01
   7122.00  2.7981487E-01
   7122.33  3.0124803E-01
   7122.67  3.1830214E-01
   7123.00  3.3162417E-01
   7123.33  3.4474889E-01
   7123.67  3.6298860E-01
   7124.00  3.8956555E-01
   7124.33  4.2567386E-01
   7124.67  4.6736065E-01
   7125.00  5.1153004E-01
   7125.33  5.5543928E-01
   7125.67  5.9646400E-01
   7126.00  6.3036304E-01
   7126.33  6.4860728E-01
   7126.67  6.5101938E-01
   7127.00  6.4371065E-01
   7127.33  6.3714474E-01
   7127.67  6.3763081E-01
   7128.00  6.4635387E-01
   7128.33  6.6232127E-01
   7128.67  6.8100439E-01
   7129.00  6.9855742E-01
   7129.33  7.1023086E-01
   7129.67  7.1394432E-01
   7130.00  7.0873873E-01
   7130.33  6.9432159E-01
   7130.67  6.7535712E-01
   7131.00  6.5777448E-01
   7131.33  6.5051673E-01
   7131.67  6.5654425E-01
   7132.00  6.7521595E-01
   7132.33  7.0465171E-01
   7132.67  7.4022136E-01
   7133.00  7.7867405E-01
   7133.33  8.1481098E-01
   7133.67  8.4305056E-01
   7134.00  8.5912645E-01
   7134.33  8.5928098E-01
   7134.67  8.4711206E-01
   7135.00  8.2619100E-01
   7135.33  8.0049358E-01
   7135.67  7.7405107E-01
   7136.00  7.4871788E-01
   7136.33  7.2582877E-01
   7136.67  7.0549001E-01
   7137.00  6.8784680E-01
   7137.33  6.7348483E-01
   7137.67  6.6236482E-01
   7138.00  6.5475658E-01
   7138.33  6.5119418E-01
   7138.67  6.5081499E-01
   7139.00  6.5272658E-01
   7139.33  6.5535506E-01
   7139.67  6.5662573E-01
   7140.00  6.5501249E-01
   7140.33  6.4903468E-01
   7140.67  6.3927313E-01
   7141.00  6.2651366E-01
   7141.33  6.1175203E-01
   7141.67  5.9632742E-01
   7142.00  5.8095640E-01
   7142.33  5.6623647E-01
   7142.67  5.5236756E-01
   7143.00  5.3946409E-01
   7143.33  5.2772346E-01
   7143.67  5.1705780E-01
   7144.00  5.0749381E-01
   7144.33  4.9918757E-01
   7144.67  4.9198579E-01
   7145.00  4.8584051E-01
   7145.33  4.8076574E-01
   7145.67  4.7649967E-01
   7146.00  4.7290057E-01
   7146.33  4.6984657E-01
   7146.67  4.6709351E-01
   7147.00  4.6450001E-01
   7147.33  4.6193691E-01
   7147.67  4.5930793E-01
   7148.00  4.5656171E-01
   7148.33  4.5364048E-01
   7148.67  4.5053766E-01
   7149.00  4.4723674E-01
   7149.33  4.4370089E-01
   7149.67  4.3996151E-01
   7150.00  4.3604111E-01
   7150.33  4.3197284E-01
   7150.67  4.2784501E-01
   7151.00  4.2373114E-01
   7151.33  4.1973361E-01
   7151.67  4.1592257E-01
   7152.00  4.1235736E-01
   7152.33  4.0912514E-01
   7152.67  4.0621658E-01
   7153.00  4.0363952E-01
   7153.33  4.0142808E-01
   7153.67  3.9952077E-01
   7154.00  3.9788711E-01
   7154.33  3.9649911E-01
   7154.67  3.9525973E-01
   7155.00  3.9409938E-01
   7155.33  3.9292362E-01
   7155.67  3.9163785E-01
   7156.00  3.9016749E-01
   7156.33  3.8841858E-01
   7156.67  3.8639727E-01
   7157.00  3.8411853E-01
   7157.33  3.8161672E-01
   7157.67  3.7901340E-01
   7158.00  3.7641234E-01
   7158.33  3.7396179E-01
   7158.67  3.7177451E-01
   7159.00  3.6994982E-01
   7159.33  3.6863614E-01
   7159.67  3.6784570E-01
   7160.00  3.6761819E-01
   7160.33  3.6804102E-01
   7160.67  3.6902691E-01
   7161.00  3.7054138E-01
   7161.33  3.7257727E-01
   7161.67  3.7498641E-01
   7162.00  3.7767746E-01
   7162.33  3.8055799E-01
   7162.67  3.8349520E-01
   7163.00  3.8640184E-01
   7163.33  3.8917887E-01
   7163.67  3.9177934E-01
   7164.00  3.9417104E-01
   7164.33  3.9631139E-01
   7164.67  3.9823548E-01
   7165.00  3.9996416E-01
   7165.33  4.0151512E-01
   7165.67  4.0295577E-01
   7166.00  4.0433231E-01
   7166.33  4.0570116E-01
   7166.67  4.0712139E-01
   7167.00  4.0864158E-01
   7167.33  4.1033419E-01
   7167.67  4.1222844E-01
   7168.00  4.1436088E-01
   7168.33  4.1680162E-01
   7168.67  4.1954389E-01
   7169.00  4.2260393E-01
   7169.33  4.2603261E-01
   7169.67  4.2978752E-01
   7170.00  4.3385647E-01
   7170.33  4.3824360E-01
   7170.67  4.4285509E-01
   7171.00  4.4760718E-01
   7171.33  4.5232932E-01
   7171.67  4.5672293E-01
   7172.00  4.6039587E-01
