    FDMNES
    energy     <xanes>
   7097.00  5.0947905E-03
   7097.33  5.2103799E-03
   7097.67  5.3309550E-03
   7098.00  5.4568368E-03
   7098.33  5.5891520E-03
   7098.67  5.7276426E-03
   7099.00  5.8727414E-03
   7099.33  6.0259037E-03
   7099.67  6.1868604E-03
   7100.00  6.3562103E-03
   7100.33  6.5358820E-03
   7100.67  6.7256140E-03
   7101.00  6.9262613E-03
   7101.33  7.1404591E-03
   7101.67  7.3679975E-03
   7102.00  7.6101442E-03
   7102.33  7.8706358E-03
   7102.67  8.1494136E-03
   7103.00  8.4484451E-03
   7103.33  8.7732780E-03
   7103.67  9.1242334E-03
   7104.00  9.5045419E-03
   7104.33  9.9229333E-03
   7104.67  1.0380659E-02
   7105.00  1.0883417E-02
   7105.33  1.1446009E-02
   7105.67  1.2072055E-02
   7106.00  1.2772573E-02
   7106.33  1.3575287E-02
   7106.67  1.4490360E-02
   7107.00  1.5541943E-02
   7107.33  1.6789581E-02
   7107.67  1.8264309E-02
   7108.00  2.0029353E-02
   7108.33  2.2241138E-02
   7108.67  2.5014355E-02
   7109.00  2.8566834E-02
   7109.33  3.3465848E-02
   7109.67  4.0314688E-02
   7110.00  5.0284170E-02
   7110.33  6.6666578E-02
   7110.67  9.2720252E-02
   7111.00  1.2927164E-01
   7111.33  1.7329402E-01
   7111.67  2.3078088E-01
   7112.00  3.1063537E-01
   7112.33  3.7438621E-01
   7112.67  3.3873045E-01
   7113.00  2.4593839E-01
   7113.33  1.7654860E-01
   7113.67  1.3417835E-01
   7114.00  1.1028543E-01
   7114.33  9.9208332E-02
   7114.67  9.5689104E-02
   7115.00  9.8374294E-02
   7115.33  1.0806959E-01
   7115.67  1.2519523E-01
   7116.00  1.5096038E-01
   7116.33  1.8541620E-01
   7116.67  2.2031662E-01
   7117.00  2.4525696E-01
   7117.33  2.5236303E-01
   7117.67  2.5117441E-01
   7118.00  2.5210298E-01
   7118.33  2.6422864E-01
   7118.67  2.8932354E-01
   7119.00  3.2737660E-01
   7119.33  3.7533120E-01
   7119.67  4.2159109E-01
   7120.00  4.5470514E-01
   7120.33  4.6531077E-01
   7120.67  4.6052537E-01
   7121.00  4.5011594E-01
   7121.33  4.4698336E-01
   7121.67  4.5899049E-01
   7122.00  4.8834784E-01
   7122.33  5.3006212E-01
   7122.67  5.6813994E-01
   7123.00  5.9013325E-01
   7123.33  5.8670756E-01
   7123.67  5.6219319E-01
   7124.00  5.2088702E-01
   7124.33  4.7012418E-01
   7124.67  4.2340618E-01
   7125.00  3.8977693E-01
   7125.33  3.7482613E-01
   7125.67  3.7446867E-01
   7126.00  3.8509914E-01
   7126.33  4.0203797E-01
   7126.67  4.1885086E-01
   7127.00  4.3208209E-01
   7127.33  4.4027703E-01
   7127.67  4.4603357E-01
   7128.00  4.5214800E-01
   7128.33  4.6146022E-01
   7128.67  4.7388631E-01
   7129.00  4.8766100E-01
   7129.33  4.9940200E-01
   7129.67  5.0745729E-01
   7130.00  5.1231880E-01
   7130.33  5.1557026E-01
   7130.67  5.1839508E-01
   7131.00  5.2064118E-01
   7131.33  5.2174964E-01
   7131.67  5.2159567E-01
   7132.00  5.1977969E-01
   7132.33  5.1523759E-01
   7132.67  5.0792298E-01
   7133.00  4.9847158E-01
   7133.33  4.8875359E-01
   7133.67  4.8119505E-01
   7134.00  4.7741282E-01
   7134.33  4.7884182E-01
   7134.67  4.8479761E-01
   7135.00  4.9469095E-01
   7135.33  5.0793364E-01
   7135.67  5.2312278E-01
   7136.00  5.3938650E-01
   7136.33  5.5576189E-01
   7136.67  5.7137864E-01
   7137.00  5.8567956E-01
   7137.33  5.9807711E-01
   7137.67  6.0869742E-01
   7138.00  6.1765159E-01
   7138.33  6.2502585E-01
   7138.67  6.3132887E-01
   7139.00  6.3687217E-01
   7139.33  6.4197993E-01
   7139.67  6.4704275E-01
   7140.00  6.5227416E-01
   7140.33  6.5777950E-01
   7140.67  6.6335089E-01
   7141.00  6.6861951E-01
   7141.33  6.7284541E-01
   7141.67  6.7543127E-01
   7142.00  6.7579045E-01
   7142.33  6.7306973E-01
   7142.67  6.6742625E-01
   7143.00  6.5900423E-01
   7143.33  6.4796466E-01
   7143.67  6.3520363E-01
   7144.00  6.2124110E-01
   7144.33  6.0650318E-01
   7144.67  5.9145730E-01
   7145.00  5.7633551E-01
   7145.33  5.6134115E-01
   7145.67  5.4658982E-01
   7146.00  5.3215999E-01
   7146.33  5.1817490E-01
   7146.67  5.0465889E-01
   7147.00  4.9168349E-01
   7147.33  4.7941627E-01
   7147.67  4.6787004E-01
   7148.00  4.5712575E-01
   7148.33  4.4737895E-01
   7148.67  4.3856308E-01
   7149.00  4.3065924E-01
   7149.33  4.2368792E-01
   7149.67  4.1742731E-01
   7150.00  4.1175955E-01
   7150.33  4.0659493E-01
   7150.67  4.0174485E-01
   7151.00  3.9712399E-01
   7151.33  3.9270316E-01
   7151.67  3.8846193E-01
   7152.00  3.8443516E-01
   7152.33  3.8071693E-01
   7152.67  3.7733284E-01
   7153.00  3.7432381E-01
   7153.33  3.7177251E-01
   7153.67  3.6964436E-01
   7154.00  3.6794366E-01
   7154.33  3.6672091E-01
   7154.67  3.6591453E-01
   7155.00  3.6551351E-01
   7155.33  3.6555165E-01
   7155.67  3.6596650E-01
   7156.00  3.6675025E-01
   7156.33  3.6794773E-01
   7156.67  3.6952467E-01
   7157.00  3.7150394E-01
   7157.33  3.7397986E-01
   7157.67  3.7694434E-01
   7158.00  3.8044203E-01
   7158.33  3.8459810E-01
   7158.67  3.8938208E-01
   7159.00  3.9481557E-01
   7159.33  4.0098136E-01
   7159.67  4.0776995E-01
   7160.00  4.1513161E-01
   7160.33  4.2303993E-01
   7160.67  4.3132753E-01
   7161.00  4.3989003E-01
   7161.33  4.4860150E-01
   7161.67  4.5728718E-01
   7162.00  4.6582065E-01
   7162.33  4.7402905E-01
   7162.67  4.8181641E-01
   7163.00  4.8907519E-01
   7163.33  4.9561234E-01
   7163.67  5.0141539E-01
   7164.00  5.0642814E-01
   7164.33  5.1051763E-01
   7164.67  5.1379729E-01
   7165.00  5.1630896E-01
   7165.33  5.1804927E-01
   7165.67  5.1921260E-01
   7166.00  5.1990323E-01
   7166.33  5.2019981E-01
   7166.67  5.2025882E-01
   7167.00  5.2016285E-01
   7167.33  5.1997730E-01
   7167.67  5.1976390E-01
   7168.00  5.1954898E-01
   7168.33  5.1934669E-01
   7168.67  5.1915454E-01
   7169.00  5.1896461E-01
   7169.33  5.1876184E-01
   7169.67  5.1853246E-01
   7170.00  5.1826409E-01
   7170.33  5.1793896E-01
   7170.67  5.1755715E-01
   7171.00  5.1712017E-01
   7171.33  5.1663941E-01
   7171.67  5.1616300E-01
   7172.00  5.1575566E-01
