    FDMNES
    energy     <xanes>
   7097.00  4.3022009E-03
   7097.33  4.3970490E-03
   7097.67  4.4960161E-03
   7098.00  4.5993785E-03
   7098.33  4.7080856E-03
   7098.67  4.8219407E-03
   7099.00  4.9413212E-03
   7099.33  5.0674701E-03
   7099.67  5.2001885E-03
   7100.00  5.3400076E-03
   7100.33  5.4886001E-03
   7100.67  5.6457864E-03
   7101.00  5.8123392E-03
   7101.33  5.9905848E-03
   7101.67  6.1804110E-03
   7102.00  6.3829866E-03
   7102.33  6.6016789E-03
   7102.67  6.8365496E-03
   7103.00  7.0894527E-03
   7103.33  7.3655066E-03
   7103.67  7.6651917E-03
   7104.00  7.9916266E-03
   7104.33  8.3530812E-03
   7104.67  8.7510517E-03
   7105.00  9.1911853E-03
   7105.33  9.6879333E-03
   7105.67  1.0245388E-02
   7106.00  1.0874811E-02
   7106.33  1.1604223E-02
   7106.67  1.2445041E-02
   7107.00  1.3422863E-02
   7107.33  1.4600495E-02
   7107.67  1.6013484E-02
   7108.00  1.7732130E-02
   7108.33  1.9930829E-02
   7108.67  2.2746807E-02
   7109.00  2.6438446E-02
   7109.33  3.1686975E-02
   7109.67  3.9262179E-02
   7110.00  5.0671742E-02
   7110.33  7.0308424E-02
   7110.67  1.0354128E-01
   7111.00  1.5487030E-01
   7111.33  2.0961913E-01
   7111.67  2.2587218E-01
   7112.00  2.1397609E-01
   7112.33  2.1220507E-01
   7112.67  2.2000671E-01
   7113.00  2.2674417E-01
   7113.33  2.2930900E-01
   7113.67  2.2724206E-01
   7114.00  2.2032252E-01
   7114.33  2.1388015E-01
   7114.67  2.0230560E-01
   7115.00  1.8144114E-01
   7115.33  1.5538048E-01
   7115.67  1.3257160E-01
   7116.00  1.1570020E-01
   7116.33  1.0221956E-01
   7116.67  9.0000166E-02
   7117.00  8.0174550E-02
   7117.33  7.2887094E-02
   7117.67  6.7989265E-02
   7118.00  6.5619965E-02
   7118.33  6.5783829E-02
   7118.67  6.7877411E-02
   7119.00  7.1644891E-02
   7119.33  7.6730101E-02
   7119.67  8.2236293E-02
   7120.00  8.7770301E-02
   7120.33  9.3659123E-02
   7120.67  1.0041704E-01
   7121.00  1.0828149E-01
   7121.33  1.1747663E-01
   7121.67  1.2794971E-01
   7122.00  1.3987657E-01
   7122.33  1.5379226E-01
   7122.67  1.6989700E-01
   7123.00  1.8863573E-01
   7123.33  2.1090289E-01
   7123.67  2.3640922E-01
   7124.00  2.6453449E-01
   7124.33  2.9353932E-01
   7124.67  3.2062804E-01
   7125.00  3.4367667E-01
   7125.33  3.6142835E-01
   7125.67  3.7654209E-01
   7126.00  3.9137192E-01
   7126.33  4.0666237E-01
   7126.67  4.2102060E-01
   7127.00  4.3306853E-01
   7127.33  4.4162247E-01
   7127.67  4.4709702E-01
   7128.00  4.4984267E-01
   7128.33  4.5053591E-01
   7128.67  4.5110540E-01
   7129.00  4.5323867E-01
   7129.33  4.5853962E-01
   7129.67  4.6661039E-01
   7130.00  4.7651399E-01
   7130.33  4.8679521E-01
   7130.67  4.9617516E-01
   7131.00  5.0409093E-01
   7131.33  5.1025777E-01
   7131.67  5.1523969E-01
   7132.00  5.1952715E-01
   7132.33  5.2360622E-01
   7132.67  5.2809218E-01
   7133.00  5.3395417E-01
   7133.33  5.4332335E-01
   7133.67  5.5757732E-01
   7134.00  5.7753371E-01
   7134.33  6.0331622E-01
   7134.67  6.3228214E-01
   7135.00  6.6239524E-01
   7135.33  6.9206738E-01
   7135.67  7.2079143E-01
   7136.00  7.4794542E-01
   7136.33  7.7122088E-01
   7136.67  7.8870484E-01
   7137.00  7.9923581E-01
   7137.33  8.0196413E-01
   7137.67  7.9872034E-01
   7138.00  7.9063696E-01
   7138.33  7.7858791E-01
   7138.67  7.6414060E-01
   7139.00  7.4809428E-01
   7139.33  7.3116073E-01
   7139.67  7.1418997E-01
   7140.00  6.9779059E-01
   7140.33  6.8273421E-01
   7140.67  6.6932820E-01
   7141.00  6.5780610E-01
   7141.33  6.4855215E-01
   7141.67  6.4134541E-01
   7142.00  6.3615137E-01
   7142.33  6.3309912E-01
   7142.67  6.3175410E-01
   7143.00  6.3186290E-01
   7143.33  6.3315827E-01
   7143.67  6.3502526E-01
   7144.00  6.3703023E-01
   7144.33  6.3868312E-01
   7144.67  6.3970407E-01
   7145.00  6.3996024E-01
   7145.33  6.3936884E-01
   7145.67  6.3817883E-01
   7146.00  6.3659451E-01
   7146.33  6.3486940E-01
   7146.67  6.3328057E-01
   7147.00  6.3202467E-01
   7147.33  6.3134646E-01
   7147.67  6.3129785E-01
   7148.00  6.3193010E-01
   7148.33  6.3334542E-01
   7148.67  6.3541911E-01
   7149.00  6.3806677E-01
   7149.33  6.4117817E-01
   7149.67  6.4446994E-01
   7150.00  6.4768537E-01
   7150.33  6.5039871E-01
   7150.67  6.5222825E-01
   7151.00  6.5278201E-01
   7151.33  6.5142470E-01
   7151.67  6.4802718E-01
   7152.00  6.4241031E-01
   7152.33  6.3426608E-01
   7152.67  6.2405761E-01
   7153.00  6.1209084E-01
   7153.33  5.9867570E-01
   7153.67  5.8448872E-01
   7154.00  5.6995323E-01
   7154.33  5.5550058E-01
   7154.67  5.4144197E-01
   7155.00  5.2796851E-01
   7155.33  5.1530929E-01
   7155.67  5.0344245E-01
   7156.00  4.9238835E-01
   7156.33  4.8223070E-01
   7156.67  4.7281538E-01
   7157.00  4.6408126E-01
   7157.33  4.5602942E-01
   7157.67  4.4851115E-01
   7158.00  4.4146789E-01
   7158.33  4.3488940E-01
   7158.67  4.2867180E-01
   7159.00  4.2277965E-01
   7159.33  4.1721982E-01
   7159.67  4.1193797E-01
   7160.00  4.0692968E-01
   7160.33  4.0223556E-01
   7160.67  3.9783643E-01
   7161.00  3.9375115E-01
   7161.33  3.9004496E-01
   7161.67  3.8669517E-01
   7162.00  3.8371091E-01
   7162.33  3.8113433E-01
   7162.67  3.7890543E-01
   7163.00  3.7700494E-01
   7163.33  3.7544039E-01
   7163.67  3.7413658E-01
   7164.00  3.7305487E-01
   7164.33  3.7217778E-01
   7164.67  3.7145839E-01
   7165.00  3.7088652E-01
   7165.33  3.7047720E-01
   7165.67  3.7021578E-01
   7166.00  3.7010699E-01
   7166.33  3.7017465E-01
   7166.67  3.7039894E-01
   7167.00  3.7077390E-01
   7167.33  3.7130232E-01
   7167.67  3.7194565E-01
   7168.00  3.7268012E-01
   7168.33  3.7348084E-01
   7168.67  3.7430649E-01
   7169.00  3.7512899E-01
   7169.33  3.7591469E-01
   7169.67  3.7664322E-01
   7170.00  3.7729950E-01
   7170.33  3.7786410E-01
   7170.67  3.7834675E-01
   7171.00  3.7875248E-01
   7171.33  3.7908141E-01
   7171.67  3.7934758E-01
   7172.00  3.7954797E-01
