    FDMNES
    energy     <xanes>
   7097.00  3.9962783E-03
   7097.33  4.0723456E-03
   7097.67  4.1511919E-03
   7098.00  4.2329804E-03
   7098.33  4.3183134E-03
   7098.67  4.4070283E-03
   7099.00  4.4993438E-03
   7099.33  4.5960278E-03
   7099.67  4.6969114E-03
   7100.00  4.8022970E-03
   7100.33  4.9131918E-03
   7100.67  5.0294319E-03
   7101.00  5.1514508E-03
   7101.33  5.2806168E-03
   7101.67  5.4167968E-03
   7102.00  5.5606399E-03
   7102.33  5.7140865E-03
   7102.67  5.8770934E-03
   7103.00  6.0506845E-03
   7103.33  6.2377628E-03
   7103.67  6.4385139E-03
   7104.00  6.6546587E-03
   7104.33  6.8908435E-03
   7104.67  7.1478244E-03
   7105.00  7.4287358E-03
   7105.33  7.7416816E-03
   7105.67  8.0889087E-03
   7106.00  8.4767433E-03
   7106.33  8.9210079E-03
   7106.67  9.4282368E-03
   7107.00  1.0013078E-02
   7107.33  1.0711565E-02
   7107.67  1.1544643E-02
   7108.00  1.2553524E-02
   7108.33  1.3840772E-02
   7108.67  1.5489423E-02
   7109.00  1.7655602E-02
   7109.33  2.0753555E-02
   7109.67  2.5263425E-02
   7110.00  3.2126989E-02
   7110.33  4.4059628E-02
   7110.67  6.3917743E-02
   7111.00  9.2183615E-02
   7111.33  1.2065793E-01
   7111.67  1.3994246E-01
   7112.00  1.4546018E-01
   7112.33  1.3832448E-01
   7112.67  1.2310695E-01
   7113.00  1.0132233E-01
   7113.33  8.0235835E-02
   7113.67  6.5042210E-02
   7114.00  5.5858435E-02
   7114.33  5.0565270E-02
   7114.67  4.5593461E-02
   7115.00  4.0899379E-02
   7115.33  3.7999594E-02
   7115.67  3.6767208E-02
   7116.00  3.6823959E-02
   7116.33  3.7864160E-02
   7116.67  3.9430950E-02
   7117.00  4.1328541E-02
   7117.33  4.3610234E-02
   7117.67  4.6447878E-02
   7118.00  5.0010513E-02
   7118.33  5.4428820E-02
   7118.67  5.9460947E-02
   7119.00  6.4866386E-02
   7119.33  7.0247048E-02
   7119.67  7.5095430E-02
   7120.00  7.9026168E-02
   7120.33  8.1879661E-02
   7120.67  8.4292004E-02
   7121.00  8.6971302E-02
   7121.33  9.0910027E-02
   7121.67  9.6696208E-02
   7122.00  1.0483976E-01
   7122.33  1.1628535E-01
   7122.67  1.3144337E-01
   7123.00  1.5128222E-01
   7123.33  1.7797237E-01
   7123.67  2.1167952E-01
   7124.00  2.5105723E-01
   7124.33  2.8818947E-01
   7124.67  3.1117394E-01
   7125.00  3.1745475E-01
   7125.33  3.1741007E-01
   7125.67  3.2191228E-01
   7126.00  3.3269987E-01
   7126.33  3.4902522E-01
   7126.67  3.7026609E-01
   7127.00  3.9801471E-01
   7127.33  4.3466387E-01
   7127.67  4.7908367E-01
   7128.00  5.3025035E-01
   7128.33  5.8690227E-01
   7128.67  6.4629726E-01
   7129.00  7.0693907E-01
   7129.33  7.6758403E-01
   7129.67  8.2685585E-01
   7130.00  8.8261588E-01
   7130.33  9.3019175E-01
   7130.67  9.6695051E-01
   7131.00  9.9158258E-01
   7131.33  1.0035794E+00
   7131.67  1.0065277E+00
   7132.00  1.0020867E+00
   7132.33  9.9077193E-01
   7132.67  9.7474995E-01
   7133.00  9.5591465E-01
   7133.33  9.3694757E-01
   7133.67  9.2021299E-01
   7134.00  9.0667508E-01
   7134.33  8.9595508E-01
   7134.67  8.8601897E-01
   7135.00  8.7590672E-01
   7135.33  8.6535463E-01
   7135.67  8.5439201E-01
   7136.00  8.4282091E-01
   7136.33  8.3022476E-01
   7136.67  8.1654751E-01
   7137.00  8.0179421E-01
   7137.33  7.8596560E-01
   7137.67  7.6934728E-01
   7138.00  7.5208386E-01
   7138.33  7.3428043E-01
   7138.67  7.1617484E-01
   7139.00  6.9794431E-01
   7139.33  6.7984404E-01
   7139.67  6.6212746E-01
   7140.00  6.4502320E-01
   7140.33  6.2888404E-01
   7140.67  6.1383800E-01
   7141.00  6.0004835E-01
   7141.33  5.8780471E-01
   7141.67  5.7699623E-01
   7142.00  5.6763650E-01
   7142.33  5.5987451E-01
   7142.67  5.5346110E-01
   7143.00  5.4830728E-01
   7143.33  5.4442919E-01
   7143.67  5.4154781E-01
   7144.00  5.3954318E-01
   7144.33  5.3836650E-01
   7144.67  5.3777846E-01
   7145.00  5.3763960E-01
   7145.33  5.3779621E-01
   7145.67  5.3800207E-01
   7146.00  5.3806076E-01
   7146.33  5.3770254E-01
   7146.67  5.3678542E-01
   7147.00  5.3520101E-01
   7147.33  5.3282247E-01
   7147.67  5.2978255E-01
   7148.00  5.2616065E-01
   7148.33  5.2201794E-01
   7148.67  5.1753817E-01
   7149.00  5.1281867E-01
   7149.33  5.0793560E-01
   7149.67  5.0298177E-01
   7150.00  4.9800356E-01
   7150.33  4.9303703E-01
   7150.67  4.8809608E-01
   7151.00  4.8317605E-01
   7151.33  4.7825088E-01
   7151.67  4.7327720E-01
   7152.00  4.6820378E-01
   7152.33  4.6293619E-01
   7152.67  4.5742849E-01
   7153.00  4.5163583E-01
   7153.33  4.4548114E-01
   7153.67  4.3898723E-01
   7154.00  4.3215378E-01
   7154.33  4.2495013E-01
   7154.67  4.1743334E-01
   7155.00  4.0961829E-01
   7155.33  4.0148699E-01
   7155.67  3.9309130E-01
   7156.00  3.8444545E-01
   7156.33  3.7553796E-01
   7156.67  3.6641982E-01
   7157.00  3.5711538E-01
   7157.33  3.4764099E-01
   7157.67  3.3805926E-01
   7158.00  3.2841608E-01
   7158.33  3.1877697E-01
   7158.67  3.0922233E-01
   7159.00  2.9983661E-01
   7159.33  2.9077244E-01
   7159.67  2.8213151E-01
   7160.00  2.7404755E-01
   7160.33  2.6678045E-01
   7160.67  2.6041412E-01
   7161.00  2.5509338E-01
   7161.33  2.5111613E-01
   7161.67  2.4844485E-01
   7162.00  2.4713418E-01
   7162.33  2.4736086E-01
   7162.67  2.4890336E-01
   7163.00  2.5167775E-01
   7163.33  2.5568593E-01
   7163.67  2.6062910E-01
   7164.00  2.6634754E-01
   7164.33  2.7272204E-01
   7164.67  2.7949461E-01
   7165.00  2.8651838E-01
   7165.33  2.9365787E-01
   7165.67  3.0078319E-01
   7166.00  3.0782212E-01
   7166.33  3.1470798E-01
   7166.67  3.2144158E-01
   7167.00  3.2802957E-01
   7167.33  3.3448039E-01
   7167.67  3.4084634E-01
   7168.00  3.4716413E-01
   7168.33  3.5347235E-01
   7168.67  3.5980354E-01
   7169.00  3.6617762E-01
   7169.33  3.7261363E-01
   7169.67  3.7910093E-01
   7170.00  3.8562108E-01
   7170.33  3.9213064E-01
   7170.67  3.9855987E-01
   7171.00  4.0481561E-01
   7171.33  4.1068515E-01
   7171.67  4.1592982E-01
   7172.00  4.2020653E-01
