    FDMNES
    energy     <xanes>
   7097.00  4.1159028E-03
   7097.33  4.1913544E-03
   7097.67  4.2693284E-03
   7098.00  4.3499539E-03
   7098.33  4.4337461E-03
   7098.67  4.5205319E-03
   7099.00  4.6104782E-03
   7099.33  4.7042197E-03
   7099.67  4.8015698E-03
   7100.00  4.9027504E-03
   7100.33  5.0085618E-03
   7100.67  5.1188088E-03
   7101.00  5.2337961E-03
   7101.33  5.3545636E-03
   7101.67  5.4809198E-03
   7102.00  5.6133012E-03
   7102.33  5.7531120E-03
   7102.67  5.9001949E-03
   7103.00  6.0552087E-03
   7103.33  6.2201479E-03
   7103.67  6.3949636E-03
   7104.00  6.5807193E-03
   7104.33  6.7804442E-03
   7104.67  6.9943855E-03
   7105.00  7.2244146E-03
   7105.33  7.4755667E-03
   7105.67  7.7489005E-03
   7106.00  8.0481015E-03
   7106.33  8.3826329E-03
   7106.67  8.7559634E-03
   7107.00  9.1765388E-03
   7107.33  9.6654517E-03
   7107.67  1.0234524E-02
   7108.00  1.0907700E-02
   7108.33  1.1745158E-02
   7108.67  1.2796062E-02
   7109.00  1.4153907E-02
   7109.33  1.6069711E-02
   7109.67  1.8843188E-02
   7110.00  2.3067041E-02
   7110.33  3.0446864E-02
   7110.67  4.2559349E-02
   7111.00  5.8572432E-02
   7111.33  7.2222193E-02
   7111.67  8.0254119E-02
   7112.00  7.6634500E-02
   7112.33  6.3306244E-02
   7112.67  5.3474652E-02
   7113.00  4.9484149E-02
   7113.33  4.7776044E-02
   7113.67  4.5302465E-02
   7114.00  4.2276651E-02
   7114.33  3.8392690E-02
   7114.67  3.5128643E-02
   7115.00  3.3144553E-02
   7115.33  3.2407692E-02
   7115.67  3.2567869E-02
   7116.00  3.3429168E-02
   7116.33  3.4836432E-02
   7116.67  3.6739595E-02
   7117.00  3.9379151E-02
   7117.33  4.3329459E-02
   7117.67  4.8853262E-02
   7118.00  5.6219700E-02
   7118.33  6.5928612E-02
   7118.67  7.8154046E-02
   7119.00  9.3435263E-02
   7119.33  1.1244031E-01
   7119.67  1.3248129E-01
   7120.00  1.4734350E-01
   7120.33  1.5076470E-01
   7120.67  1.5241125E-01
   7121.00  1.6127480E-01
   7121.33  1.8205007E-01
   7121.67  2.1355643E-01
   7122.00  2.5538207E-01
   7122.33  3.0514992E-01
   7122.67  3.5224356E-01
   7123.00  3.8641186E-01
   7123.33  4.0644370E-01
   7123.67  4.3005180E-01
   7124.00  4.6969246E-01
   7124.33  5.2289662E-01
   7124.67  5.6949896E-01
   7125.00  6.0391341E-01
   7125.33  6.3242870E-01
   7125.67  6.5993677E-01
   7126.00  6.8781047E-01
   7126.33  7.1526001E-01
   7126.67  7.3670413E-01
   7127.00  7.4911793E-01
   7127.33  7.5558262E-01
   7127.67  7.6234636E-01
   7128.00  7.7049905E-01
   7128.33  7.7655967E-01
   7128.67  7.7695730E-01
   7129.00  7.7130146E-01
   7129.33  7.6241712E-01
   7129.67  7.5461874E-01
   7130.00  7.4953204E-01
   7130.33  7.4752083E-01
   7130.67  7.4781212E-01
   7131.00  7.5002640E-01
   7131.33  7.5289159E-01
   7131.67  7.5274236E-01
   7132.00  7.4588077E-01
   7132.33  7.3028618E-01
   7132.67  7.1138098E-01
   7133.00  6.9578969E-01
   7133.33  6.9058321E-01
   7133.67  6.9410309E-01
   7134.00  7.0170345E-01
   7134.33  7.0783926E-01
   7134.67  7.1004402E-01
   7135.00  7.0814560E-01
   7135.33  7.0294932E-01
   7135.67  6.9657074E-01
   7136.00  6.9044268E-01
   7136.33  6.8582361E-01
   7136.67  6.8260674E-01
   7137.00  6.7981953E-01
   7137.33  6.7532139E-01
   7137.67  6.6753968E-01
   7138.00  6.5591620E-01
   7138.33  6.4076906E-01
   7138.67  6.2408007E-01
   7139.00  6.0725358E-01
   7139.33  5.9159738E-01
   7139.67  5.7757947E-01
   7140.00  5.6535893E-01
   7140.33  5.5509258E-01
   7140.67  5.4635866E-01
   7141.00  5.3892037E-01
   7141.33  5.3258394E-01
   7141.67  5.2688835E-01
   7142.00  5.2153939E-01
   7142.33  5.1620728E-01
   7142.67  5.1058929E-01
   7143.00  5.0447018E-01
   7143.33  4.9758017E-01
   7143.67  4.8989074E-01
   7144.00  4.8135875E-01
   7144.33  4.7190067E-01
   7144.67  4.6171383E-01
   7145.00  4.5093074E-01
   7145.33  4.3969661E-01
   7145.67  4.2828011E-01
   7146.00  4.1687332E-01
   7146.33  4.0572163E-01
   7146.67  3.9499683E-01
   7147.00  3.8484643E-01
   7147.33  3.7549308E-01
   7147.67  3.6693616E-01
   7148.00  3.5920215E-01
   7148.33  3.5235205E-01
   7148.67  3.4618173E-01
   7149.00  3.4056292E-01
   7149.33  3.3540059E-01
   7149.67  3.3054493E-01
   7150.00  3.2595934E-01
   7150.33  3.2172766E-01
   7150.67  3.1794481E-01
   7151.00  3.1476800E-01
   7151.33  3.1247804E-01
   7151.67  3.1111454E-01
   7152.00  3.1073914E-01
   7152.33  3.1147491E-01
   7152.67  3.1313034E-01
   7153.00  3.1560503E-01
   7153.33  3.1883073E-01
   7153.67  3.2255176E-01
   7154.00  3.2661975E-01
   7154.33  3.3090065E-01
   7154.67  3.3523276E-01
   7155.00  3.3950689E-01
   7155.33  3.4357085E-01
   7155.67  3.4730547E-01
   7156.00  3.5057376E-01
   7156.33  3.5312445E-01
   7156.67  3.5486936E-01
   7157.00  3.5569091E-01
   7157.33  3.5539522E-01
   7157.67  3.5414433E-01
   7158.00  3.5207310E-01
   7158.33  3.4938312E-01
   7158.67  3.4650466E-01
   7159.00  3.4378518E-01
   7159.33  3.4169764E-01
   7159.67  3.4053534E-01
   7160.00  3.4056016E-01
   7160.33  3.4218255E-01
   7160.67  3.4537448E-01
   7161.00  3.5020136E-01
   7161.33  3.5687748E-01
   7161.67  3.6513782E-01
   7162.00  3.7488398E-01
   7162.33  3.8612077E-01
   7162.67  3.9847776E-01
   7163.00  4.1174722E-01
   7163.33  4.2573231E-01
   7163.67  4.4004188E-01
   7164.00  4.5438351E-01
   7164.33  4.6835715E-01
   7164.67  4.8164225E-01
   7165.00  4.9394374E-01
   7165.33  5.0479462E-01
   7165.67  5.1410657E-01
   7166.00  5.2171828E-01
   7166.33  5.2728355E-01
   7166.67  5.3099366E-01
   7167.00  5.3289189E-01
   7167.33  5.3291743E-01
   7167.67  5.3152920E-01
   7168.00  5.2900894E-01
   7168.33  5.2562495E-01
   7168.67  5.2181860E-01
   7169.00  5.1782903E-01
   7169.33  5.1384417E-01
   7169.67  5.0996480E-01
   7170.00  5.0623388E-01
   7170.33  5.0270386E-01
   7170.67  4.9939666E-01
   7171.00  4.9637775E-01
   7171.33  4.9379954E-01
   7171.67  4.9171837E-01
   7172.00  4.9018575E-01
