    FDMNES
    energy     <xanes>
   7097.00  4.1831580E-03
   7097.33  4.2645249E-03
   7097.67  4.3488325E-03
   7098.00  4.4362427E-03
   7098.33  4.5273752E-03
   7098.67  4.6220423E-03
   7099.00  4.7204560E-03
   7099.33  4.8233897E-03
   7099.67  4.9306416E-03
   7100.00  5.0424958E-03
   7100.33  5.1599407E-03
   7100.67  5.2827662E-03
   7101.00  5.4113654E-03
   7101.33  5.5470382E-03
   7101.67  5.6895820E-03
   7102.00  5.8395618E-03
   7102.33  5.9987505E-03
   7102.67  6.1669905E-03
   7103.00  6.3451341E-03
   7103.33  6.5357157E-03
   7103.67  6.7387120E-03
   7104.00  6.9554907E-03
   7104.33  7.1899042E-03
   7104.67  7.4422885E-03
   7105.00  7.7150196E-03
   7105.33  8.0144594E-03
   7105.67  8.3419103E-03
   7106.00  8.7019627E-03
   7106.33  9.1063894E-03
   7106.67  9.5593163E-03
   7107.00  1.0070997E-02
   7107.33  1.0667040E-02
   7107.67  1.1361170E-02
   7108.00  1.2181587E-02
   7108.33  1.3199004E-02
   7108.67  1.4469069E-02
   7109.00  1.6098019E-02
   7109.33  1.8369086E-02
   7109.67  2.1610595E-02
   7110.00  2.6471238E-02
   7110.33  3.4846618E-02
   7110.67  4.8891114E-02
   7111.00  6.9284909E-02
   7111.33  8.7512556E-02
   7111.67  9.3047159E-02
   7112.00  8.6180699E-02
   7112.33  7.7829133E-02
   7112.67  7.3704022E-02
   7113.00  7.2730184E-02
   7113.33  7.0300853E-02
   7113.67  6.5014309E-02
   7114.00  5.9390616E-02
   7114.33  5.6464207E-02
   7114.67  5.6759420E-02
   7115.00  6.0096294E-02
   7115.33  6.6533392E-02
   7115.67  7.5608635E-02
   7116.00  8.7319734E-02
   7116.33  1.0200901E-01
   7116.67  1.1926263E-01
   7117.00  1.3908090E-01
   7117.33  1.6239513E-01
   7117.67  1.8921006E-01
   7118.00  2.1725136E-01
   7118.33  2.3696494E-01
   7118.67  2.4622335E-01
   7119.00  2.5405739E-01
   7119.33  2.6826101E-01
   7119.67  2.8526115E-01
   7120.00  2.9931496E-01
   7120.33  3.0454627E-01
   7120.67  3.0185425E-01
   7121.00  2.9420301E-01
   7121.33  2.8541590E-01
   7121.67  2.7822948E-01
   7122.00  2.7375553E-01
   7122.33  2.7317258E-01
   7122.67  2.7672825E-01
   7123.00  2.8496949E-01
   7123.33  2.9892912E-01
   7123.67  3.1791439E-01
   7124.00  3.4135887E-01
   7124.33  3.6816744E-01
   7124.67  3.9588627E-01
   7125.00  4.2311113E-01
   7125.33  4.4937031E-01
   7125.67  4.7490034E-01
   7126.00  4.9953201E-01
   7126.33  5.2352512E-01
   7126.67  5.4800189E-01
   7127.00  5.7288043E-01
   7127.33  5.9466489E-01
   7127.67  6.0852820E-01
   7128.00  6.1204228E-01
   7128.33  6.0631769E-01
   7128.67  5.9741226E-01
   7129.00  5.8914538E-01
   7129.33  5.8410472E-01
   7129.67  5.8163310E-01
   7130.00  5.7999972E-01
   7130.33  5.7656552E-01
   7130.67  5.7024903E-01
   7131.00  5.6156784E-01
   7131.33  5.5215186E-01
   7131.67  5.4334375E-01
   7132.00  5.3511811E-01
   7132.33  5.2646071E-01
   7132.67  5.1651071E-01
   7133.00  5.0530104E-01
   7133.33  4.9403959E-01
   7133.67  4.8455491E-01
   7134.00  4.7812937E-01
   7134.33  4.7578484E-01
   7134.67  4.7675509E-01
   7135.00  4.8052749E-01
   7135.33  4.8685224E-01
   7135.67  4.9496343E-01
   7136.00  5.0442995E-01
   7136.33  5.1485063E-01
   7136.67  5.2564248E-01
   7137.00  5.3641719E-01
   7137.33  5.4666588E-01
   7137.67  5.5599441E-01
   7138.00  5.6402762E-01
   7138.33  5.7017485E-01
   7138.67  5.7438982E-01
   7139.00  5.7661302E-01
   7139.33  5.7678722E-01
   7139.67  5.7556609E-01
   7140.00  5.7346668E-01
   7140.33  5.7113184E-01
   7140.67  5.6919469E-01
   7141.00  5.6803937E-01
   7141.33  5.6806830E-01
   7141.67  5.6925467E-01
   7142.00  5.7157720E-01
   7142.33  5.7504500E-01
   7142.67  5.7935407E-01
   7143.00  5.8433522E-01
   7143.33  5.8985527E-01
   7143.67  5.9567981E-01
   7144.00  6.0168041E-01
   7144.33  6.0774491E-01
   7144.67  6.1378189E-01
   7145.00  6.1974538E-01
   7145.33  6.2559039E-01
   7145.67  6.3129936E-01
   7146.00  6.3681753E-01
   7146.33  6.4195672E-01
   7146.67  6.4646700E-01
   7147.00  6.4994284E-01
   7147.33  6.5150536E-01
   7147.67  6.5060687E-01
   7148.00  6.4671977E-01
   7148.33  6.3917737E-01
   7148.67  6.2859276E-01
   7149.00  6.1550957E-01
   7149.33  6.0068548E-01
   7149.67  5.8539721E-01
   7150.00  5.7051555E-01
   7150.33  5.5701737E-01
   7150.67  5.4532478E-01
   7151.00  5.3574366E-01
   7151.33  5.2873128E-01
   7151.67  5.2401335E-01
   7152.00  5.2149554E-01
   7152.33  5.2121822E-01
   7152.67  5.2264075E-01
   7153.00  5.2546480E-01
   7153.33  5.2942454E-01
   7153.67  5.3397048E-01
   7154.00  5.3876806E-01
   7154.33  5.4349108E-01
   7154.67  5.4790917E-01
   7155.00  5.5188293E-01
   7155.33  5.5525649E-01
   7155.67  5.5808582E-01
   7156.00  5.6041371E-01
   7156.33  5.6227628E-01
   7156.67  5.6383057E-01
   7157.00  5.6516526E-01
   7157.33  5.6635172E-01
   7157.67  5.6746561E-01
   7158.00  5.6852805E-01
   7158.33  5.6951865E-01
   7158.67  5.7039559E-01
   7159.00  5.7109117E-01
   7159.33  5.7147138E-01
   7159.67  5.7146159E-01
   7160.00  5.7096789E-01
   7160.33  5.6982299E-01
   7160.67  5.6803537E-01
   7161.00  5.6558287E-01
   7161.33  5.6240431E-01
   7161.67  5.5864242E-01
   7162.00  5.5437598E-01
   7162.33  5.4967181E-01
   7162.67  5.4470738E-01
   7163.00  5.3959084E-01
   7163.33  5.3442645E-01
   7163.67  5.2930121E-01
   7164.00  5.2425713E-01
   7164.33  5.1931907E-01
   7164.67  5.1445373E-01
   7165.00  5.0962111E-01
   7165.33  5.0475389E-01
   7165.67  4.9978575E-01
   7166.00  4.9466168E-01
   7166.33  4.8930945E-01
   7166.67  4.8373524E-01
   7167.00  4.7794913E-01
   7167.33  4.7197192E-01
   7167.67  4.6589617E-01
   7168.00  4.5980152E-01
   7168.33  4.5380351E-01
   7168.67  4.4799960E-01
   7169.00  4.4247804E-01
   7169.33  4.3737517E-01
   7169.67  4.3271632E-01
   7170.00  4.2854746E-01
   7170.33  4.2496806E-01
   7170.67  4.2192547E-01
   7171.00  4.1941368E-01
   7171.33  4.1746736E-01
   7171.67  4.1597091E-01
   7172.00  4.1485672E-01
