    FDMNES
    energy     <xanes>
   7097.00  4.1490841E-03
   7097.33  4.2319825E-03
   7097.67  4.3181972E-03
   7098.00  4.4079413E-03
   7098.33  4.5019651E-03
   7098.67  4.6000993E-03
   7099.00  4.7026353E-03
   7099.33  4.8105493E-03
   7099.67  4.9236708E-03
   7100.00  5.0424099E-03
   7100.33  5.1680757E-03
   7100.67  5.3005139E-03
   7101.00  5.4403234E-03
   7101.33  5.5893225E-03
   7101.67  5.7474138E-03
   7102.00  5.9155088E-03
   7102.33  6.0962455E-03
   7102.67  6.2896734E-03
   7103.00  6.4972532E-03
   7103.33  6.7230204E-03
   7103.67  6.9673818E-03
   7104.00  7.2328302E-03
   7104.33  7.5259625E-03
   7104.67  7.8480640E-03
   7105.00  8.2037391E-03
   7105.33  8.6047289E-03
   7105.67  9.0546099E-03
   7106.00  9.5628094E-03
   7106.33  1.0152717E-02
   7106.67  1.0834552E-02
   7107.00  1.1630530E-02
   7107.33  1.2595146E-02
   7107.67  1.3761418E-02
   7108.00  1.5193502E-02
   7108.33  1.7051630E-02
   7108.67  1.9470938E-02
   7109.00  2.2705764E-02
   7109.33  2.7440072E-02
   7109.67  3.4504496E-02
   7110.00  4.5542842E-02
   7110.33  6.5265984E-02
   7110.67  9.7602554E-02
   7111.00  1.3786176E-01
   7111.33  1.6295310E-01
   7111.67  1.7206465E-01
   7112.00  1.7298557E-01
   7112.33  1.7625417E-01
   7112.67  1.7506621E-01
   7113.00  1.5408502E-01
   7113.33  1.3242846E-01
   7113.67  1.2796133E-01
   7114.00  1.2859506E-01
   7114.33  1.1199657E-01
   7114.67  9.4831979E-02
   7115.00  8.7141902E-02
   7115.33  7.9550522E-02
   7115.67  6.6299988E-02
   7116.00  5.4671039E-02
   7116.33  4.7807580E-02
   7116.67  4.3380497E-02
   7117.00  4.0332605E-02
   7117.33  3.8418881E-02
   7117.67  3.7446209E-02
   7118.00  3.7347994E-02
   7118.33  3.8106326E-02
   7118.67  3.9524153E-02
   7119.00  4.1545955E-02
   7119.33  4.4205845E-02
   7119.67  4.7421719E-02
   7120.00  5.1221555E-02
   7120.33  5.5790299E-02
   7120.67  6.1213481E-02
   7121.00  6.7670052E-02
   7121.33  7.5517710E-02
   7121.67  8.4777870E-02
   7122.00  9.5593192E-02
   7122.33  1.0837035E-01
   7122.67  1.2307963E-01
   7123.00  1.3979864E-01
   7123.33  1.5864446E-01
   7123.67  1.7902189E-01
   7124.00  2.0057052E-01
   7124.33  2.2340507E-01
   7124.67  2.4807675E-01
   7125.00  2.7537253E-01
   7125.33  3.0590627E-01
   7125.67  3.3850112E-01
   7126.00  3.7181811E-01
   7126.33  4.0394946E-01
   7126.67  4.3350605E-01
   7127.00  4.5962124E-01
   7127.33  4.8105153E-01
   7127.67  4.9772492E-01
   7128.00  5.0980628E-01
   7128.33  5.1846957E-01
   7128.67  5.2631388E-01
   7129.00  5.3474719E-01
   7129.33  5.4476312E-01
   7129.67  5.5693013E-01
   7130.00  5.7225326E-01
   7130.33  5.9243492E-01
   7130.67  6.1745816E-01
   7131.00  6.4718260E-01
   7131.33  6.8125861E-01
   7131.67  7.1705843E-01
   7132.00  7.5142819E-01
   7132.33  7.8014105E-01
   7132.67  8.0245753E-01
   7133.00  8.1865440E-01
   7133.33  8.2854396E-01
   7133.67  8.3342440E-01
   7134.00  8.3423662E-01
   7134.33  8.3258509E-01
   7134.67  8.3123771E-01
   7135.00  8.3180556E-01
   7135.33  8.3431139E-01
   7135.67  8.3649364E-01
   7136.00  8.3662936E-01
   7136.33  8.3354594E-01
   7136.67  8.2779664E-01
   7137.00  8.1984896E-01
   7137.33  8.1005443E-01
   7137.67  7.9910049E-01
   7138.00  7.8734554E-01
   7138.33  7.7511372E-01
   7138.67  7.6280713E-01
   7139.00  7.5070455E-01
   7139.33  7.3916031E-01
   7139.67  7.2835732E-01
   7140.00  7.1845811E-01
   7140.33  7.0971467E-01
   7140.67  7.0204625E-01
   7141.00  6.9543269E-01
   7141.33  6.8990139E-01
   7141.67  6.8517166E-01
   7142.00  6.8106489E-01
   7142.33  6.7739102E-01
   7142.67  6.7384408E-01
   7143.00  6.7019761E-01
   7143.33  6.6615568E-01
   7143.67  6.6154736E-01
   7144.00  6.5623919E-01
   7144.33  6.5006021E-01
   7144.67  6.4313453E-01
   7145.00  6.3556773E-01
   7145.33  6.2750987E-01
   7145.67  6.1928003E-01
   7146.00  6.1112321E-01
   7146.33  6.0334564E-01
   7146.67  5.9610482E-01
   7147.00  5.8949860E-01
   7147.33  5.8364105E-01
   7147.67  5.7840233E-01
   7148.00  5.7369041E-01
   7148.33  5.6942682E-01
   7148.67  5.6543971E-01
   7149.00  5.6163783E-01
   7149.33  5.5794387E-01
   7149.67  5.5427413E-01
   7150.00  5.5058055E-01
   7150.33  5.4680797E-01
   7150.67  5.4292821E-01
   7151.00  5.3891980E-01
   7151.33  5.3475137E-01
   7151.67  5.3043877E-01
   7152.00  5.2598925E-01
   7152.33  5.2140770E-01
   7152.67  5.1673659E-01
   7153.00  5.1200086E-01
   7153.33  5.0721214E-01
   7153.67  5.0237130E-01
   7154.00  4.9745806E-01
   7154.33  4.9239952E-01
   7154.67  4.8712407E-01
   7155.00  4.8154970E-01
   7155.33  4.7552543E-01
   7155.67  4.6900217E-01
   7156.00  4.6190610E-01
   7156.33  4.5409513E-01
   7156.67  4.4562010E-01
   7157.00  4.3648782E-01
   7157.33  4.2666928E-01
   7157.67  4.1633454E-01
   7158.00  4.0559978E-01
   7158.33  3.9460311E-01
   7158.67  3.8356421E-01
   7159.00  3.7265607E-01
   7159.33  3.6212119E-01
   7159.67  3.5210816E-01
   7160.00  3.4276391E-01
   7160.33  3.3433517E-01
   7160.67  3.2683522E-01
   7161.00  3.2033994E-01
   7161.33  3.1504775E-01
   7161.67  3.1086978E-01
   7162.00  3.0782930E-01
   7162.33  3.0607663E-01
   7162.67  3.0547139E-01
   7163.00  3.0601256E-01
   7163.33  3.0782882E-01
   7163.67  3.1075076E-01
   7164.00  3.1473397E-01
   7164.33  3.1981696E-01
   7164.67  3.2575709E-01
   7165.00  3.3242402E-01
   7165.33  3.3970933E-01
   7165.67  3.4735398E-01
   7166.00  3.5520026E-01
   7166.33  3.6308685E-01
   7166.67  3.7086707E-01
   7167.00  3.7844081E-01
   7167.33  3.8568670E-01
   7167.67  3.9258893E-01
   7168.00  3.9912388E-01
   7168.33  4.0523649E-01
   7168.67  4.1098038E-01
   7169.00  4.1636886E-01
   7169.33  4.2138096E-01
   7169.67  4.2608142E-01
   7170.00  4.3048885E-01
   7170.33  4.3458622E-01
   7170.67  4.3841532E-01
   7171.00  4.4196860E-01
   7171.33  4.4517009E-01
   7171.67  4.4796803E-01
   7172.00  4.5023233E-01
