    FDMNES
    energy     <xanes>
   7097.00  4.1733422E-03
   7097.33  4.2607606E-03
   7097.67  4.3518204E-03
   7098.00  4.4467634E-03
   7098.33  4.5464261E-03
   7098.67  4.6506325E-03
   7099.00  4.7597151E-03
   7099.33  4.8747705E-03
   7099.67  4.9956238E-03
   7100.00  5.1227462E-03
   7100.33  5.2576190E-03
   7100.67  5.4000905E-03
   7101.00  5.5508521E-03
   7101.33  5.7119780E-03
   7101.67  5.8833872E-03
   7102.00  6.0661383E-03
   7102.33  6.2632631E-03
   7102.67  6.4748585E-03
   7103.00  6.7026287E-03
   7103.33  6.9512430E-03
   7103.67  7.2212241E-03
   7104.00  7.5154890E-03
   7104.33  7.8417105E-03
   7104.67  8.2014449E-03
   7105.00  8.6000821E-03
   7105.33  9.0513105E-03
   7105.67  9.5593464E-03
   7106.00  1.0135182E-02
   7106.33  1.0806011E-02
   7106.67  1.1583628E-02
   7107.00  1.2493639E-02
   7107.33  1.3598664E-02
   7107.67  1.4935805E-02
   7108.00  1.6577202E-02
   7108.33  1.8701892E-02
   7108.67  2.1455413E-02
   7109.00  2.5110442E-02
   7109.33  3.0389501E-02
   7109.67  3.8129212E-02
   7110.00  4.9967978E-02
   7110.33  7.0600109E-02
   7110.67  1.0468631E-01
   7111.00  1.5193873E-01
   7111.33  1.9891475E-01
   7111.67  2.4038400E-01
   7112.00  2.7100315E-01
   7112.33  2.6290729E-01
   7112.67  2.2134585E-01
   7113.00  1.7282912E-01
   7113.33  1.3444643E-01
   7113.67  1.0541444E-01
   7114.00  8.5044603E-02
   7114.33  7.3231419E-02
   7114.67  6.6449103E-02
   7115.00  6.1089824E-02
   7115.33  5.4598475E-02
   7115.67  4.8676733E-02
   7116.00  4.4679323E-02
   7116.33  4.2549089E-02
   7116.67  4.1404326E-02
   7117.00  4.0968037E-02
   7117.33  4.1281418E-02
   7117.67  4.2298782E-02
   7118.00  4.4042895E-02
   7118.33  4.6646028E-02
   7118.67  5.0058397E-02
   7119.00  5.4252252E-02
   7119.33  5.9026570E-02
   7119.67  6.3736029E-02
   7120.00  6.7809541E-02
   7120.33  7.0805060E-02
   7120.67  7.3037431E-02
   7121.00  7.4889835E-02
   7121.33  7.6816538E-02
   7121.67  7.9196575E-02
   7122.00  8.2330408E-02
   7122.33  8.6669794E-02
   7122.67  9.2375778E-02
   7123.00  9.9718392E-02
   7123.33  1.0933653E-01
   7123.67  1.2148470E-01
   7124.00  1.3670327E-01
   7124.33  1.5616681E-01
   7124.67  1.8005079E-01
   7125.00  2.0868333E-01
   7125.33  2.4245263E-01
   7125.67  2.7957983E-01
   7126.00  3.1819406E-01
   7126.33  3.5623924E-01
   7126.67  3.9311668E-01
   7127.00  4.2858953E-01
   7127.33  4.6092173E-01
   7127.67  4.8825636E-01
   7128.00  5.0934532E-01
   7128.33  5.2437199E-01
   7128.67  5.3724411E-01
   7129.00  5.5099274E-01
   7129.33  5.6841039E-01
   7129.67  5.9038821E-01
   7130.00  6.1754595E-01
   7130.33  6.5099999E-01
   7130.67  6.9027962E-01
   7131.00  7.3532270E-01
   7131.33  7.8580695E-01
   7131.67  8.3851121E-01
   7132.00  8.8959016E-01
   7132.33  9.3276621E-01
   7132.67  9.6480686E-01
   7133.00  9.8499061E-01
   7133.33  9.9506522E-01
   7133.67  1.0013066E+00
   7134.00  1.0078497E+00
   7134.33  1.0173739E+00
   7134.67  1.0284892E+00
   7135.00  1.0383228E+00
   7135.33  1.0426126E+00
   7135.67  1.0396675E+00
   7136.00  1.0289997E+00
   7136.33  1.0105279E+00
   7136.67  9.8668795E-01
   7137.00  9.5898554E-01
   7137.33  9.2871762E-01
   7137.67  8.9739854E-01
   7138.00  8.6578405E-01
   7138.33  8.3450775E-01
   7138.67  8.0390825E-01
   7139.00  7.7418913E-01
   7139.33  7.4566941E-01
   7139.67  7.1842740E-01
   7140.00  6.9267373E-01
   7140.33  6.6886903E-01
   7140.67  6.4700077E-01
   7141.00  6.2719041E-01
   7141.33  6.0977132E-01
   7141.67  5.9447386E-01
   7142.00  5.8125041E-01
   7142.33  5.7025695E-01
   7142.67  5.6113044E-01
   7143.00  5.5376395E-01
   7143.33  5.4824470E-01
   7143.67  5.4425312E-01
   7144.00  5.4167580E-01
   7144.33  5.4052861E-01
   7144.67  5.4049975E-01
   7145.00  5.4144274E-01
   7145.33  5.4326565E-01
   7145.67  5.4568516E-01
   7146.00  5.4856847E-01
   7146.33  5.5181653E-01
   7146.67  5.5524897E-01
   7147.00  5.5874762E-01
   7147.33  5.6217429E-01
   7147.67  5.6541733E-01
   7148.00  5.6838228E-01
   7148.33  5.7091896E-01
   7148.67  5.7297714E-01
   7149.00  5.7447419E-01
   7149.33  5.7523208E-01
   7149.67  5.7523878E-01
   7150.00  5.7441771E-01
   7150.33  5.7257537E-01
   7150.67  5.6976414E-01
   7151.00  5.6595543E-01
   7151.33  5.6102178E-01
   7151.67  5.5512115E-01
   7152.00  5.4830964E-01
   7152.33  5.4057662E-01
   7152.67  5.3213568E-01
   7153.00  5.2309044E-01
   7153.33  5.1350310E-01
   7153.67  5.0355302E-01
   7154.00  4.9333737E-01
   7154.33  4.8293375E-01
   7154.67  4.7243918E-01
   7155.00  4.6190506E-01
   7155.33  4.5137816E-01
   7155.67  4.4089019E-01
   7156.00  4.3045850E-01
   7156.33  4.2009859E-01
   7156.67  4.0980656E-01
   7157.00  3.9958589E-01
   7157.33  3.8944789E-01
   7157.67  3.7938706E-01
   7158.00  3.6941083E-01
   7158.33  3.5954685E-01
   7158.67  3.4980754E-01
   7159.00  3.4022466E-01
   7159.33  3.3087428E-01
   7159.67  3.2179580E-01
   7160.00  3.1305645E-01
   7160.33  3.0479703E-01
   7160.67  2.9705752E-01
   7161.00  2.8991975E-01
   7161.33  2.8356209E-01
   7161.67  2.7797949E-01
   7162.00  2.7322936E-01
   7162.33  2.6946755E-01
   7162.67  2.6660463E-01
   7163.00  2.6464644E-01
   7163.33  2.6369690E-01
   7163.67  2.6361252E-01
   7164.00  2.6435587E-01
   7164.33  2.6596768E-01
   7164.67  2.6828288E-01
   7165.00  2.7123419E-01
   7165.33  2.7480371E-01
   7165.67  2.7883880E-01
   7166.00  2.8327374E-01
   7166.33  2.8808051E-01
   7166.67  2.9315715E-01
   7167.00  2.9845807E-01
   7167.33  3.0396046E-01
   7167.67  3.0960422E-01
   7168.00  3.1536097E-01
   7168.33  3.2121116E-01
   7168.67  3.2711614E-01
   7169.00  3.3305144E-01
   7169.33  3.3898743E-01
   7169.67  3.4489168E-01
   7170.00  3.5073283E-01
   7170.33  3.5645401E-01
   7170.67  3.6201084E-01
   7171.00  3.6733427E-01
   7171.33  3.7225705E-01
   7171.67  3.7661478E-01
   7172.00  3.8014513E-01
