    FDMNES
    energy     <xanes>
   7097.00  4.3416449E-03
   7097.33  4.4289953E-03
   7097.67  4.5196033E-03
   7098.00  4.6136523E-03
   7098.33  4.7118348E-03
   7098.67  4.8139477E-03
   7099.00  4.9202313E-03
   7099.33  5.0315532E-03
   7099.67  5.1476950E-03
   7100.00  5.2689796E-03
   7100.33  5.3965195E-03
   7100.67  5.5300876E-03
   7101.00  5.6701313E-03
   7101.33  5.8181186E-03
   7101.67  5.9738313E-03
   7102.00  6.1379134E-03
   7102.33  6.3123722E-03
   7102.67  6.4970413E-03
   7103.00  6.6928922E-03
   7103.33  6.9027997E-03
   7103.67  7.1267499E-03
   7104.00  7.3663003E-03
   7104.33  7.6258250E-03
   7104.67  7.9057154E-03
   7105.00  8.2086725E-03
   7105.33  8.5419160E-03
   7105.67  8.9069254E-03
   7106.00  9.3089030E-03
   7106.33  9.7611839E-03
   7106.67  1.0268418E-02
   7107.00  1.0842184E-02
   7107.33  1.1511397E-02
   7107.67  1.2291477E-02
   7108.00  1.3214164E-02
   7108.33  1.4359084E-02
   7108.67  1.5788780E-02
   7109.00  1.7622875E-02
   7109.33  2.0180814E-02
   7109.67  2.3834251E-02
   7110.00  2.9317799E-02
   7110.33  3.8752291E-02
   7110.67  5.4252114E-02
   7111.00  7.5459602E-02
   7111.33  9.4157106E-02
   7111.67  1.0448191E-01
   7112.00  1.0347362E-01
   7112.33  9.4175483E-02
   7112.67  8.4298180E-02
   7113.00  7.6573275E-02
   7113.33  7.2377462E-02
   7113.67  7.1018710E-02
   7114.00  7.1997435E-02
   7114.33  7.5085722E-02
   7114.67  7.9748717E-02
   7115.00  8.5843507E-02
   7115.33  9.3520481E-02
   7115.67  1.0267631E-01
   7116.00  1.1338265E-01
   7116.33  1.2591768E-01
   7116.67  1.4013311E-01
   7117.00  1.5603674E-01
   7117.33  1.7376906E-01
   7117.67  1.9291885E-01
   7118.00  2.1309816E-01
   7118.33  2.3377850E-01
   7118.67  2.5451099E-01
   7119.00  2.7514242E-01
   7119.33  2.9539349E-01
   7119.67  3.1478921E-01
   7120.00  3.3260761E-01
   7120.33  3.4787532E-01
   7120.67  3.6144028E-01
   7121.00  3.7462659E-01
   7121.33  3.8793472E-01
   7121.67  4.0047510E-01
   7122.00  4.1168718E-01
   7122.33  4.2120410E-01
   7122.67  4.2876411E-01
   7123.00  4.3404880E-01
   7123.33  4.3744290E-01
   7123.67  4.4055512E-01
   7124.00  4.4455464E-01
   7124.33  4.5054982E-01
   7124.67  4.5864208E-01
   7125.00  4.6860105E-01
   7125.33  4.7984189E-01
   7125.67  4.9125034E-01
   7126.00  5.0187237E-01
   7126.33  5.1061810E-01
   7126.67  5.1754730E-01
   7127.00  5.2313494E-01
   7127.33  5.2815638E-01
   7127.67  5.3323886E-01
   7128.00  5.3834434E-01
   7128.33  5.4281548E-01
   7128.67  5.4606483E-01
   7129.00  5.4797267E-01
   7129.33  5.4891313E-01
   7129.67  5.4967284E-01
   7130.00  5.5055687E-01
   7130.33  5.5130420E-01
   7130.67  5.5110873E-01
   7131.00  5.4914035E-01
   7131.33  5.4459103E-01
   7131.67  5.3797721E-01
   7132.00  5.2985979E-01
   7132.33  5.2081797E-01
   7132.67  5.1158921E-01
   7133.00  5.0272275E-01
   7133.33  4.9493979E-01
   7133.67  4.8851579E-01
   7134.00  4.8351022E-01
   7134.33  4.7985568E-01
   7134.67  4.7704180E-01
   7135.00  4.7475594E-01
   7135.33  4.7274070E-01
   7135.67  4.7080138E-01
   7136.00  4.6889497E-01
   7136.33  4.6707586E-01
   7136.67  4.6545326E-01
   7137.00  4.6415956E-01
   7137.33  4.6340350E-01
   7137.67  4.6323407E-01
   7138.00  4.6370036E-01
   7138.33  4.6489854E-01
   7138.67  4.6674150E-01
   7139.00  4.6922817E-01
   7139.33  4.7245582E-01
   7139.67  4.7636617E-01
   7140.00  4.8096865E-01
   7140.33  4.8631821E-01
   7140.67  4.9224449E-01
   7141.00  4.9862422E-01
   7141.33  5.0530535E-01
   7141.67  5.1204389E-01
   7142.00  5.1865520E-01
   7142.33  5.2489696E-01
   7142.67  5.3063946E-01
   7143.00  5.3577012E-01
   7143.33  5.4011928E-01
   7143.67  5.4374766E-01
   7144.00  5.4667840E-01
   7144.33  5.4891350E-01
   7144.67  5.5065544E-01
   7145.00  5.5203250E-01
   7145.33  5.5318344E-01
   7145.67  5.5430233E-01
   7146.00  5.5552800E-01
   7146.33  5.5703565E-01
   7146.67  5.5891121E-01
   7147.00  5.6123236E-01
   7147.33  5.6412658E-01
   7147.67  5.6756471E-01
   7148.00  5.7155190E-01
   7148.33  5.7613306E-01
   7148.67  5.8119532E-01
   7149.00  5.8667977E-01
   7149.33  5.9253900E-01
   7149.67  5.9861870E-01
   7150.00  6.0480624E-01
   7150.33  6.1095082E-01
   7150.67  6.1690167E-01
   7151.00  6.2252529E-01
   7151.33  6.2761953E-01
   7151.67  6.3212039E-01
   7152.00  6.3594344E-01
   7152.33  6.3893070E-01
   7152.67  6.4114497E-01
   7153.00  6.4258555E-01
   7153.33  6.4318712E-01
   7153.67  6.4309533E-01
   7154.00  6.4236884E-01
   7154.33  6.4101693E-01
   7154.67  6.3919316E-01
   7155.00  6.3696906E-01
   7155.33  6.3438179E-01
   7155.67  6.3153932E-01
   7156.00  6.2848963E-01
   7156.33  6.2525487E-01
   7156.67  6.2188472E-01
   7157.00  6.1839476E-01
   7157.33  6.1478010E-01
   7157.67  6.1105509E-01
   7158.00  6.0721521E-01
   7158.33  6.0323803E-01
   7158.67  5.9913232E-01
   7159.00  5.9489454E-01
   7159.33  5.9050909E-01
   7159.67  5.8599955E-01
   7160.00  5.8137918E-01
   7160.33  5.7666116E-01
   7160.67  5.7188384E-01
   7161.00  5.6707187E-01
   7161.33  5.6225285E-01
   7161.67  5.5745103E-01
   7162.00  5.5267940E-01
   7162.33  5.4794826E-01
   7162.67  5.4324939E-01
   7163.00  5.3857268E-01
   7163.33  5.3389970E-01
   7163.67  5.2920684E-01
   7164.00  5.2447431E-01
   7164.33  5.1967475E-01
   7164.67  5.1480167E-01
   7165.00  5.0984914E-01
   7165.33  5.0480665E-01
   7165.67  4.9969089E-01
   7166.00  4.9451343E-01
   7166.33  4.8928768E-01
   7166.67  4.8404226E-01
   7167.00  4.7879897E-01
   7167.33  4.7358505E-01
   7167.67  4.6841874E-01
   7168.00  4.6331742E-01
   7168.33  4.5831070E-01
   7168.67  4.5340662E-01
   7169.00  4.4862137E-01
   7169.33  4.4399143E-01
   7169.67  4.3951937E-01
   7170.00  4.3522372E-01
   7170.33  4.3115447E-01
   7170.67  4.2731704E-01
   7171.00  4.2374600E-01
   7171.33  4.2054125E-01
   7171.67  4.1775977E-01
   7172.00  4.1552027E-01
