    FDMNES
    energy     <xanes>
   7097.00  4.5397680E-03
   7097.33  4.6347087E-03
   7097.67  4.7334523E-03
   7098.00  4.8362352E-03
   7098.33  4.9439034E-03
   7098.67  5.0562507E-03
   7099.00  5.1735962E-03
   7099.33  5.2970289E-03
   7099.67  5.4263356E-03
   7100.00  5.5619593E-03
   7100.33  5.7053418E-03
   7100.67  5.8562790E-03
   7101.00  6.0154081E-03
   7101.33  6.1847030E-03
   7101.67  6.3640066E-03
   7102.00  6.5542741E-03
   7102.33  6.7583223E-03
   7102.67  6.9761270E-03
   7103.00  7.2091946E-03
   7103.33  7.4617574E-03
   7103.67  7.7341251E-03
   7104.00  8.0288265E-03
   7104.33  8.3526502E-03
   7104.67  8.7067366E-03
   7105.00  9.0956811E-03
   7105.33  9.5313313E-03
   7105.67  1.0016999E-02
   7106.00  1.0561944E-02
   7106.33  1.1189301E-02
   7106.67  1.1908656E-02
   7107.00  1.2741468E-02
   7107.33  1.3740554E-02
   7107.67  1.4936827E-02
   7108.00  1.6391124E-02
   7108.33  1.8255283E-02
   7108.67  2.0654139E-02
   7109.00  2.3823144E-02
   7109.33  2.8391913E-02
   7109.67  3.5108429E-02
   7110.00  4.5449703E-02
   7110.33  6.3685267E-02
   7110.67  9.4001621E-02
   7111.00  1.3498688E-01
   7111.33  1.6633672E-01
   7111.67  1.7613360E-01
   7112.00  1.7027547E-01
   7112.33  1.6604473E-01
   7112.67  1.7022151E-01
   7113.00  1.7256672E-01
   7113.33  1.6408101E-01
   7113.67  1.5128903E-01
   7114.00  1.3400105E-01
   7114.33  1.1111785E-01
   7114.67  9.0218533E-02
   7115.00  7.5321734E-02
   7115.33  6.6765964E-02
   7115.67  6.2155071E-02
   7116.00  6.0373499E-02
   7116.33  6.0779615E-02
   7116.67  6.2512338E-02
   7117.00  6.5229751E-02
   7117.33  6.8916947E-02
   7117.67  7.3544039E-02
   7118.00  7.9122450E-02
   7118.33  8.5482293E-02
   7118.67  9.2193423E-02
   7119.00  9.9364017E-02
   7119.33  1.0809733E-01
   7119.67  1.1966235E-01
   7120.00  1.3528383E-01
   7120.33  1.5665257E-01
   7120.67  1.8315247E-01
   7121.00  2.1320693E-01
   7121.33  2.4343516E-01
   7121.67  2.7191585E-01
   7122.00  2.9988055E-01
   7122.33  3.2964310E-01
   7122.67  3.6122632E-01
   7123.00  3.9335713E-01
   7123.33  4.2324851E-01
   7123.67  4.4830725E-01
   7124.00  4.6727333E-01
   7124.33  4.8125128E-01
   7124.67  4.9525875E-01
   7125.00  5.1323184E-01
   7125.33  5.3840436E-01
   7125.67  5.6961058E-01
   7126.00  6.0447397E-01
   7126.33  6.3771811E-01
   7126.67  6.6419027E-01
   7127.00  6.8256094E-01
   7127.33  6.9506329E-01
   7127.67  7.0632200E-01
   7128.00  7.1814181E-01
   7128.33  7.3031836E-01
   7128.67  7.4099792E-01
   7129.00  7.4839738E-01
   7129.33  7.5075561E-01
   7129.67  7.4913723E-01
   7130.00  7.4521180E-01
   7130.33  7.4114254E-01
   7130.67  7.3790109E-01
   7131.00  7.3467475E-01
   7131.33  7.2873297E-01
   7131.67  7.1802364E-01
   7132.00  7.0207848E-01
   7132.33  6.8229129E-01
   7132.67  6.6238900E-01
   7133.00  6.4502033E-01
   7133.33  6.3207947E-01
   7133.67  6.2219549E-01
   7134.00  6.1363733E-01
   7134.33  6.0521371E-01
   7134.67  5.9736862E-01
   7135.00  5.9108056E-01
   7135.33  5.8747566E-01
   7135.67  5.8661821E-01
   7136.00  5.8864946E-01
   7136.33  5.9407586E-01
   7136.67  6.0259122E-01
   7137.00  6.1411951E-01
   7137.33  6.2861439E-01
   7137.67  6.4496648E-01
   7138.00  6.6219955E-01
   7138.33  6.7891627E-01
   7138.67  6.9382889E-01
   7139.00  7.0598804E-01
   7139.33  7.1429484E-01
   7139.67  7.1900574E-01
   7140.00  7.2027525E-01
   7140.33  7.1806435E-01
   7140.67  7.1314374E-01
   7141.00  7.0582246E-01
   7141.33  6.9618256E-01
   7141.67  6.8487266E-01
   7142.00  6.7230553E-01
   7142.33  6.5892538E-01
   7142.67  6.4533168E-01
   7143.00  6.3188097E-01
   7143.33  6.1891537E-01
   7143.67  6.0654117E-01
   7144.00  5.9481892E-01
   7144.33  5.8384201E-01
   7144.67  5.7348617E-01
   7145.00  5.6368918E-01
   7145.33  5.5443967E-01
   7145.67  5.4561834E-01
   7146.00  5.3718687E-01
   7146.33  5.2915627E-01
   7146.67  5.2145813E-01
   7147.00  5.1407724E-01
   7147.33  5.0703491E-01
   7147.67  5.0027517E-01
   7148.00  4.9377820E-01
   7148.33  4.8754199E-01
   7148.67  4.8149641E-01
   7149.00  4.7559803E-01
   7149.33  4.6979883E-01
   7149.67  4.6402632E-01
   7150.00  4.5822880E-01
   7150.33  4.5234002E-01
   7150.67  4.4632404E-01
   7151.00  4.4015223E-01
   7151.33  4.3378288E-01
   7151.67  4.2723332E-01
   7152.00  4.2051154E-01
   7152.33  4.1361993E-01
   7152.67  4.0660972E-01
   7153.00  3.9951646E-01
   7153.33  3.9238493E-01
   7153.67  3.8527441E-01
   7154.00  3.7823415E-01
   7154.33  3.7133917E-01
   7154.67  3.6463434E-01
   7155.00  3.5817353E-01
   7155.33  3.5205822E-01
   7155.67  3.4631220E-01
   7156.00  3.4098736E-01
   7156.33  3.3620105E-01
   7156.67  3.3194524E-01
   7157.00  3.2825711E-01
   7157.33  3.2524050E-01
   7157.67  3.2283730E-01
   7158.00  3.2106072E-01
   7158.33  3.2000048E-01
   7158.67  3.1957627E-01
   7159.00  3.1977826E-01
   7159.33  3.2065976E-01
   7159.67  3.2211095E-01
   7160.00  3.2409206E-01
   7160.33  3.2660467E-01
   7160.67  3.2952584E-01
   7161.00  3.3279993E-01
   7161.33  3.3639982E-01
   7161.67  3.4023571E-01
   7162.00  3.4427664E-01
   7162.33  3.4852373E-01
   7162.67  3.5294372E-01
   7163.00  3.5753379E-01
   7163.33  3.6230920E-01
   7163.67  3.6723557E-01
   7164.00  3.7229155E-01
   7164.33  3.7745219E-01
   7164.67  3.8265774E-01
   7165.00  3.8786011E-01
   7165.33  3.9299185E-01
   7165.67  3.9800188E-01
   7166.00  4.0284355E-01
   7166.33  4.0744428E-01
   7166.67  4.1179678E-01
   7167.00  4.1588261E-01
   7167.33  4.1965960E-01
   7167.67  4.2316784E-01
   7168.00  4.2642112E-01
   7168.33  4.2941398E-01
   7168.67  4.3220319E-01
   7169.00  4.3481331E-01
   7169.33  4.3725281E-01
   7169.67  4.3956466E-01
   7170.00  4.4176500E-01
   7170.33  4.4385353E-01
   7170.67  4.4584562E-01
   7171.00  4.4773390E-01
   7171.33  4.4947510E-01
   7171.67  4.5102468E-01
   7172.00  4.5229761E-01
