    FDMNES
    energy     <xanes>
   7097.00  5.0716664E-03
   7097.33  5.1910089E-03
   7097.67  5.3157805E-03
   7098.00  5.4463496E-03
   7098.33  5.5839746E-03
   7098.67  5.7283998E-03
   7099.00  5.8801271E-03
   7099.33  6.0408017E-03
   7099.67  6.2101614E-03
   7100.00  6.3889074E-03
   7100.33  6.5792465E-03
   7100.67  6.7809337E-03
   7101.00  6.9949793E-03
   7101.33  7.2244329E-03
   7101.67  7.4691208E-03
   7102.00  7.7305509E-03
   7102.33  8.0130923E-03
   7102.67  8.3167614E-03
   7103.00  8.6439081E-03
   7103.33  9.0010718E-03
   7103.67  9.3887281E-03
   7104.00  9.8107380E-03
   7104.33  1.0277439E-02
   7104.67  1.0790407E-02
   7105.00  1.1356423E-02
   7105.33  1.1993017E-02
   7105.67  1.2704506E-02
   7106.00  1.3503899E-02
   7106.33  1.4423833E-02
   7106.67  1.5476105E-02
   7107.00  1.6688856E-02
   7107.33  1.8131412E-02
   7107.67  1.9839187E-02
   7108.00  2.1884831E-02
   7108.33  2.4448119E-02
   7108.67  2.7659192E-02
   7109.00  3.1766622E-02
   7109.33  3.7419450E-02
   7109.67  4.5310348E-02
   7110.00  5.6793294E-02
   7110.33  7.5728872E-02
   7110.67  1.0624622E-01
   7111.00  1.5012833E-01
   7111.33  1.9843896E-01
   7111.67  2.3808974E-01
   7112.00  2.6811346E-01
   7112.33  2.9240648E-01
   7112.67  3.1460686E-01
   7113.00  3.5021278E-01
   7113.33  4.0577668E-01
   7113.67  4.6693155E-01
   7114.00  5.0650880E-01
   7114.33  4.7747108E-01
   7114.67  4.0592261E-01
   7115.00  3.3083619E-01
   7115.33  2.7349606E-01
   7115.67  2.3240148E-01
   7116.00  2.0459953E-01
   7116.33  1.8669273E-01
   7116.67  1.7230032E-01
   7117.00  1.5748774E-01
   7117.33  1.4159964E-01
   7117.67  1.2758574E-01
   7118.00  1.1688065E-01
   7118.33  1.0968486E-01
   7118.67  1.0492267E-01
   7119.00  1.0233674E-01
   7119.33  1.0220292E-01
   7119.67  1.0368722E-01
   7120.00  1.0604289E-01
   7120.33  1.0914137E-01
   7120.67  1.1292907E-01
   7121.00  1.1719139E-01
   7121.33  1.2163482E-01
   7121.67  1.2654047E-01
   7122.00  1.3254342E-01
   7122.33  1.4037955E-01
   7122.67  1.5014702E-01
   7123.00  1.6206002E-01
   7123.33  1.7667627E-01
   7123.67  1.9375423E-01
   7124.00  2.1276273E-01
   7124.33  2.3221571E-01
   7124.67  2.5001241E-01
   7125.00  2.6465240E-01
   7125.33  2.7506617E-01
   7125.67  2.8282386E-01
   7126.00  2.8983128E-01
   7126.33  2.9847076E-01
   7126.67  3.1010933E-01
   7127.00  3.2562166E-01
   7127.33  3.4614605E-01
   7127.67  3.7106833E-01
   7128.00  3.9963054E-01
   7128.33  4.3027343E-01
   7128.67  4.6031771E-01
   7129.00  4.8779184E-01
   7129.33  5.1135538E-01
   7129.67  5.3246630E-01
   7130.00  5.5282687E-01
   7130.33  5.7449345E-01
   7130.67  5.9860497E-01
   7131.00  6.2545876E-01
   7131.33  6.5483806E-01
   7131.67  6.8599554E-01
   7132.00  7.1932051E-01
   7132.33  7.5677134E-01
   7132.67  7.9938390E-01
   7133.00  8.4696898E-01
   7133.33  8.9664112E-01
   7133.67  9.4245663E-01
   7134.00  9.7906491E-01
   7134.33  1.0003732E+00
   7134.67  1.0069818E+00
   7135.00  1.0001993E+00
   7135.33  9.8151253E-01
   7135.67  9.5555869E-01
   7136.00  9.2514358E-01
   7136.33  8.9277935E-01
   7136.67  8.6059673E-01
   7137.00  8.2964451E-01
   7137.33  8.0088792E-01
   7137.67  7.7445700E-01
   7138.00  7.5051979E-01
   7138.33  7.2950642E-01
   7138.67  7.1113327E-01
   7139.00  6.9541614E-01
   7139.33  6.8269270E-01
   7139.67  6.7257126E-01
   7140.00  6.6489885E-01
   7140.33  6.5959549E-01
   7140.67  6.5587416E-01
   7141.00  6.5318229E-01
   7141.33  6.5090347E-01
   7141.67  6.4843774E-01
   7142.00  6.4547281E-01
   7142.33  6.4176972E-01
   7142.67  6.3742012E-01
   7143.00  6.3249833E-01
   7143.33  6.2704456E-01
   7143.67  6.2120438E-01
   7144.00  6.1504425E-01
   7144.33  6.0861927E-01
   7144.67  6.0206389E-01
   7145.00  5.9547765E-01
   7145.33  5.8895980E-01
   7145.67  5.8256457E-01
   7146.00  5.7633199E-01
   7146.33  5.7030968E-01
   7146.67  5.6446770E-01
   7147.00  5.5877826E-01
   7147.33  5.5320715E-01
   7147.67  5.4769429E-01
   7148.00  5.4221191E-01
   7148.33  5.3675271E-01
   7148.67  5.3132943E-01
   7149.00  5.2597133E-01
   7149.33  5.2073424E-01
   7149.67  5.1564602E-01
   7150.00  5.1073737E-01
   7150.33  5.0606215E-01
   7150.67  5.0161379E-01
   7151.00  4.9740246E-01
   7151.33  4.9346447E-01
   7151.67  4.8977097E-01
   7152.00  4.8632082E-01
   7152.33  4.8314001E-01
   7152.67  4.8019365E-01
   7153.00  4.7747863E-01
   7153.33  4.7502064E-01
   7153.67  4.7278797E-01
   7154.00  4.7077713E-01
   7154.33  4.6900917E-01
   7154.67  4.6744737E-01
   7155.00  4.6607821E-01
   7155.33  4.6489953E-01
   7155.67  4.6385980E-01
   7156.00  4.6293017E-01
   7156.33  4.6208858E-01
   7156.67  4.6130130E-01
   7157.00  4.6055751E-01
   7157.33  4.5986040E-01
   7157.67  4.5920879E-01
   7158.00  4.5860462E-01
   7158.33  4.5804607E-01
   7158.67  4.5750782E-01
   7159.00  4.5696277E-01
   7159.33  4.5636715E-01
   7159.67  4.5568825E-01
   7160.00  4.5489838E-01
   7160.33  4.5396044E-01
   7160.67  4.5288431E-01
   7161.00  4.5167340E-01
   7161.33  4.5032577E-01
   7161.67  4.4887948E-01
   7162.00  4.4735786E-01
   7162.33  4.4578259E-01
   7162.67  4.4418994E-01
   7163.00  4.4260763E-01
   7163.33  4.4106718E-01
   7163.67  4.3958678E-01
   7164.00  4.3819291E-01
   7164.33  4.3693209E-01
   7164.67  4.3581456E-01
   7165.00  4.3485533E-01
   7165.33  4.3408591E-01
   7165.67  4.3348816E-01
   7166.00  4.3305981E-01
   7166.33  4.3281576E-01
   7166.67  4.3272863E-01
   7167.00  4.3279193E-01
   7167.33  4.3301660E-01
   7167.67  4.3337927E-01
   7168.00  4.3387608E-01
   7168.33  4.3451781E-01
   7168.67  4.3528107E-01
   7169.00  4.3616046E-01
   7169.33  4.3715960E-01
   7169.67  4.3824694E-01
   7170.00  4.3940449E-01
   7170.33  4.4061472E-01
   7170.67  4.4184479E-01
   7171.00  4.4306726E-01
   7171.33  4.4423378E-01
   7171.67  4.4528547E-01
   7172.00  4.4614266E-01
