    FDMNES
    energy     <xanes>
   7097.00  4.5663330E-03
   7097.33  4.6628836E-03
   7097.67  4.7634157E-03
   7098.00  4.8681852E-03
   7098.33  4.9780916E-03
   7098.67  5.0929305E-03
   7099.00  5.2130496E-03
   7099.33  5.3396165E-03
   7099.67  5.4724225E-03
   7100.00  5.6119546E-03
   7100.33  5.7597720E-03
   7100.67  5.9156814E-03
   7101.00  6.0803890E-03
   7101.33  6.2560500E-03
   7101.67  6.4425312E-03
   7102.00  6.6409001E-03
   7102.33  6.8542634E-03
   7102.67  7.0826491E-03
   7103.00  7.3277552E-03
   7103.33  7.5942993E-03
   7103.67  7.8827063E-03
   7104.00  8.1958516E-03
   7104.33  8.5413846E-03
   7104.67  8.9207113E-03
   7105.00  9.3391018E-03
   7105.33  9.8100534E-03
   7105.67  1.0337532E-02
   7106.00  1.0932248E-02
   7106.33  1.1620845E-02
   7106.67  1.2414699E-02
   7107.00  1.3338839E-02
   7107.33  1.4454746E-02
   7107.67  1.5799051E-02
   7108.00  1.7443321E-02
   7108.33  1.9566105E-02
   7108.67  2.2315783E-02
   7109.00  2.5971615E-02
   7109.33  3.1281182E-02
   7109.67  3.9138221E-02
   7110.00  5.1307460E-02
   7110.33  7.2882087E-02
   7110.67  1.0870986E-01
   7111.00  1.5627994E-01
   7111.33  1.9106629E-01
   7111.67  2.0692855E-01
   7112.00  2.0911566E-01
   7112.33  2.0078961E-01
   7112.67  1.8874236E-01
   7113.00  1.7217744E-01
   7113.33  1.5173442E-01
   7113.67  1.3245196E-01
   7114.00  1.1620329E-01
   7114.33  1.0222891E-01
   7114.67  9.1287689E-02
   7115.00  8.4272950E-02
   7115.33  7.9609941E-02
   7115.67  7.5461748E-02
   7116.00  7.2460958E-02
   7116.33  7.1868655E-02
   7116.67  7.3558879E-02
   7117.00  7.7414000E-02
   7117.33  8.3454331E-02
   7117.67  9.0840831E-02
   7118.00  9.8850393E-02
   7118.33  1.0731584E-01
   7118.67  1.1672145E-01
   7119.00  1.2753399E-01
   7119.33  1.4022287E-01
   7119.67  1.5464999E-01
   7120.00  1.7080252E-01
   7120.33  1.8878076E-01
   7120.67  2.0811484E-01
   7121.00  2.2838130E-01
   7121.33  2.4894353E-01
   7121.67  2.6914325E-01
   7122.00  2.8867558E-01
   7122.33  3.0748956E-01
   7122.67  3.2608430E-01
   7123.00  3.4478752E-01
   7123.33  3.6301599E-01
   7123.67  3.8002169E-01
   7124.00  3.9680021E-01
   7124.33  4.1584469E-01
   7124.67  4.3720507E-01
   7125.00  4.5922145E-01
   7125.33  4.7884373E-01
   7125.67  4.9419673E-01
   7126.00  5.0438160E-01
   7126.33  5.0926979E-01
   7126.67  5.1162435E-01
   7127.00  5.1360188E-01
   7127.33  5.1695928E-01
   7127.67  5.2213219E-01
   7128.00  5.2932587E-01
   7128.33  5.3911367E-01
   7128.67  5.5119681E-01
   7129.00  5.6496789E-01
   7129.33  5.7934017E-01
   7129.67  5.9337553E-01
   7130.00  6.0692106E-01
   7130.33  6.2025625E-01
   7130.67  6.3370458E-01
   7131.00  6.4737162E-01
   7131.33  6.6157121E-01
   7131.67  6.7676606E-01
   7132.00  6.9320173E-01
   7132.33  7.1025235E-01
   7132.67  7.2607136E-01
   7133.00  7.3903481E-01
   7133.33  7.4772088E-01
   7133.67  7.5269444E-01
   7134.00  7.5403426E-01
   7134.33  7.5092124E-01
   7134.67  7.4412548E-01
   7135.00  7.3477634E-01
   7135.33  7.2429327E-01
   7135.67  7.1391090E-01
   7136.00  7.0416366E-01
   7136.33  6.9545082E-01
   7136.67  6.8771720E-01
   7137.00  6.8091258E-01
   7137.33  6.7502322E-01
   7137.67  6.6981160E-01
   7138.00  6.6515910E-01
   7138.33  6.6097734E-01
   7138.67  6.5707895E-01
   7139.00  6.5335558E-01
   7139.33  6.4969009E-01
   7139.67  6.4595536E-01
   7140.00  6.4205637E-01
   7140.33  6.3787090E-01
   7140.67  6.3337158E-01
   7141.00  6.2853551E-01
   7141.33  6.2332465E-01
   7141.67  6.1781387E-01
   7142.00  6.1205495E-01
   7142.33  6.0611899E-01
   7142.67  6.0015481E-01
   7143.00  5.9430364E-01
   7143.33  5.8878752E-01
   7143.67  5.8374398E-01
   7144.00  5.7928490E-01
   7144.33  5.7554946E-01
   7144.67  5.7243368E-01
   7145.00  5.6986795E-01
   7145.33  5.6779544E-01
   7145.67  5.6603765E-01
   7146.00  5.6449444E-01
   7146.33  5.6307762E-01
   7146.67  5.6168691E-01
   7147.00  5.6025874E-01
   7147.33  5.5871320E-01
   7147.67  5.5699955E-01
   7148.00  5.5506307E-01
   7148.33  5.5280190E-01
   7148.67  5.5018408E-01
   7149.00  5.4715344E-01
   7149.33  5.4359252E-01
   7149.67  5.3951240E-01
   7150.00  5.3488630E-01
   7150.33  5.2963643E-01
   7150.67  5.2385265E-01
   7151.00  5.1757831E-01
   7151.33  5.1084248E-01
   7151.67  5.0380564E-01
   7152.00  4.9657702E-01
   7152.33  4.8928209E-01
   7152.67  4.8205368E-01
   7153.00  4.7498228E-01
   7153.33  4.6817249E-01
   7153.67  4.6163563E-01
   7154.00  4.5537973E-01
   7154.33  4.4942314E-01
   7154.67  4.4370402E-01
   7155.00  4.3818652E-01
   7155.33  4.3283733E-01
   7155.67  4.2759005E-01
   7156.00  4.2241465E-01
   7156.33  4.1730016E-01
   7156.67  4.1224463E-01
   7157.00  4.0727205E-01
   7157.33  4.0244830E-01
   7157.67  3.9782457E-01
   7158.00  3.9346793E-01
   7158.33  3.8950107E-01
   7158.67  3.8595290E-01
   7159.00  3.8287472E-01
   7159.33  3.8037444E-01
   7159.67  3.7841378E-01
   7160.00  3.7700130E-01
   7160.33  3.7619676E-01
   7160.67  3.7591002E-01
   7161.00  3.7611985E-01
   7161.33  3.7686148E-01
   7161.67  3.7805314E-01
   7162.00  3.7967683E-01
   7162.33  3.8176183E-01
   7162.67  3.8423366E-01
   7163.00  3.8707552E-01
   7163.33  3.9031125E-01
   7163.67  3.9387157E-01
   7164.00  3.9772721E-01
   7164.33  4.0186469E-01
   7164.67  4.0619610E-01
   7165.00  4.1066438E-01
   7165.33  4.1520415E-01
   7165.67  4.1973052E-01
   7166.00  4.2417849E-01
   7166.33  4.2846052E-01
   7166.67  4.3253712E-01
   7167.00  4.3636965E-01
   7167.33  4.3989287E-01
   7167.67  4.4312564E-01
   7168.00  4.4606641E-01
   7168.33  4.4869055E-01
   7168.67  4.5105422E-01
   7169.00  4.5318090E-01
   7169.33  4.5507501E-01
   7169.67  4.5679338E-01
   7170.00  4.5836202E-01
   7170.33  4.5979353E-01
   7170.67  4.6112514E-01
   7171.00  4.6236791E-01
   7171.33  4.6350807E-01
   7171.67  4.6452666E-01
   7172.00  4.6537003E-01
