    FDMNES
    energy     <xanes>
   7097.00  4.4888420E-03
   7097.33  4.5900130E-03
   7097.67  4.6957568E-03
   7098.00  4.8063957E-03
   7098.33  4.9230116E-03
   7098.67  5.0454090E-03
   7099.00  5.1740362E-03
   7099.33  5.3103313E-03
   7099.67  5.4541068E-03
   7100.00  5.6060047E-03
   7100.33  5.7679955E-03
   7100.67  5.9399321E-03
   7101.00  6.1227674E-03
   7101.33  6.3192995E-03
   7101.67  6.5294926E-03
   7102.00  6.7548215E-03
   7102.33  6.9994336E-03
   7102.67  7.2635624E-03
   7103.00  7.5496063E-03
   7103.33  7.8640424E-03
   7103.67  8.2077379E-03
   7104.00  8.5848390E-03
   7104.33  9.0061337E-03
   7104.67  9.4740188E-03
   7105.00  9.9962300E-03
   7105.33  1.0592265E-02
   7105.67  1.1268452E-02
   7106.00  1.2040719E-02
   7106.33  1.2948281E-02
   7106.67  1.4008688E-02
   7107.00  1.5259378E-02
   7107.33  1.6791676E-02
   7107.67  1.8660678E-02
   7108.00  2.0972637E-02
   7108.33  2.3990912E-02
   7108.67  2.7931072E-02
   7109.00  3.3195245E-02
   7109.33  4.0845877E-02
   7109.67  5.2107176E-02
   7110.00  6.9374173E-02
   7110.33  9.9666477E-02
   7110.67  1.5182925E-01
   7111.00  2.3308622E-01
   7111.33  3.1546695E-01
   7111.67  3.4472770E-01
   7112.00  3.4206325E-01
   7112.33  3.3691322E-01
   7112.67  3.0234886E-01
   7113.00  2.3715418E-01
   7113.33  1.7425407E-01
   7113.67  1.2945101E-01
   7114.00  1.0043700E-01
   7114.33  8.2945412E-02
   7114.67  7.1531009E-02
   7115.00  6.3440900E-02
   7115.33  5.7409275E-02
   7115.67  5.2980309E-02
   7116.00  5.0223411E-02
   7116.33  4.8647215E-02
   7116.67  4.6530132E-02
   7117.00  4.3732655E-02
   7117.33  4.1390811E-02
   7117.67  4.0008502E-02
   7118.00  3.9550175E-02
   7118.33  3.9936249E-02
   7118.67  4.0933788E-02
   7119.00  4.2471494E-02
   7119.33  4.4606668E-02
   7119.67  4.7382727E-02
   7120.00  5.0993202E-02
   7120.33  5.5890562E-02
   7120.67  6.2354690E-02
   7121.00  7.0929337E-02
   7121.33  8.2833489E-02
   7121.67  9.8270098E-02
   7122.00  1.1648533E-01
   7122.33  1.3425874E-01
   7122.67  1.4957482E-01
   7123.00  1.6465029E-01
   7123.33  1.8316335E-01
   7123.67  2.0492501E-01
   7124.00  2.2824142E-01
   7124.33  2.5101296E-01
   7124.67  2.7194777E-01
   7125.00  2.8973453E-01
   7125.33  3.0262482E-01
   7125.67  3.1231627E-01
   7126.00  3.2159006E-01
   7126.33  3.3358455E-01
   7126.67  3.4861967E-01
   7127.00  3.6592050E-01
   7127.33  3.8530908E-01
   7127.67  4.0718234E-01
   7128.00  4.3098135E-01
   7128.33  4.5544591E-01
   7128.67  4.8315370E-01
   7129.00  5.1801701E-01
   7129.33  5.6422407E-01
   7129.67  6.2133330E-01
   7130.00  6.8806160E-01
   7130.33  7.6063867E-01
   7130.67  8.3097905E-01
   7131.00  8.9134261E-01
   7131.33  9.3099902E-01
   7131.67  9.4726091E-01
   7132.00  9.4132919E-01
   7132.33  9.2086847E-01
   7132.67  9.0043029E-01
   7133.00  8.8777784E-01
   7133.33  8.8617878E-01
   7133.67  8.9107917E-01
   7134.00  8.9790189E-01
   7134.33  9.0141460E-01
   7134.67  8.9973936E-01
   7135.00  8.9357799E-01
   7135.33  8.8504844E-01
   7135.67  8.7651031E-01
   7136.00  8.6882032E-01
   7136.33  8.6211911E-01
   7136.67  8.5575194E-01
   7137.00  8.4911772E-01
   7137.33  8.4148920E-01
   7137.67  8.3256693E-01
   7138.00  8.2219296E-01
   7138.33  8.1020836E-01
   7138.67  7.9698277E-01
   7139.00  7.8277248E-01
   7139.33  7.6785577E-01
   7139.67  7.5268722E-01
   7140.00  7.3757698E-01
   7140.33  7.2289454E-01
   7140.67  7.0885622E-01
   7141.00  6.9563202E-01
   7141.33  6.8348238E-01
   7141.67  6.7241171E-01
   7142.00  6.6253104E-01
   7142.33  6.5410903E-01
   7142.67  6.4706780E-01
   7143.00  6.4146205E-01
   7143.33  6.3749149E-01
   7143.67  6.3490503E-01
   7144.00  6.3354184E-01
   7144.33  6.3318336E-01
   7144.67  6.3324451E-01
   7145.00  6.3324696E-01
   7145.33  6.3255873E-01
   7145.67  6.3080004E-01
   7146.00  6.2771218E-01
   7146.33  6.2298240E-01
   7146.67  6.1682068E-01
   7147.00  6.0934000E-01
   7147.33  6.0059114E-01
   7147.67  5.9093949E-01
   7148.00  5.8058794E-01
   7148.33  5.6971073E-01
   7148.67  5.5858713E-01
   7149.00  5.4738478E-01
   7149.33  5.3627786E-01
   7149.67  5.2539681E-01
   7150.00  5.1484238E-01
   7150.33  5.0475137E-01
   7150.67  4.9512202E-01
   7151.00  4.8597096E-01
   7151.33  4.7734927E-01
   7151.67  4.6916826E-01
   7152.00  4.6139088E-01
   7152.33  4.5401294E-01
   7152.67  4.4694836E-01
   7153.00  4.4016367E-01
   7153.33  4.3364769E-01
   7153.67  4.2733568E-01
   7154.00  4.2120505E-01
   7154.33  4.1524104E-01
   7154.67  4.0936662E-01
   7155.00  4.0351035E-01
   7155.33  3.9755241E-01
   7155.67  3.9137392E-01
   7156.00  3.8485671E-01
   7156.33  3.7781840E-01
   7156.67  3.7023082E-01
   7157.00  3.6206432E-01
   7157.33  3.5327236E-01
   7157.67  3.4400305E-01
   7158.00  3.3436069E-01
   7158.33  3.2446558E-01
   7158.67  3.1450392E-01
   7159.00  3.0460938E-01
   7159.33  2.9495516E-01
   7159.67  2.8564920E-01
   7160.00  2.7679791E-01
   7160.33  2.6858631E-01
   7160.67  2.6104883E-01
   7161.00  2.5427054E-01
   7161.33  2.4844930E-01
   7161.67  2.4355835E-01
   7162.00  2.3965037E-01
   7162.33  2.3689195E-01
   7162.67  2.3516484E-01
   7163.00  2.3445546E-01
   7163.33  2.3485286E-01
   7163.67  2.3617959E-01
   7164.00  2.3837411E-01
   7164.33  2.4145194E-01
   7164.67  2.4522831E-01
   7165.00  2.4963080E-01
   7165.33  2.5464946E-01
   7165.67  2.6014330E-01
   7166.00  2.6605541E-01
   7166.33  2.7237505E-01
   7166.67  2.7901251E-01
   7167.00  2.8593811E-01
   7167.33  2.9315916E-01
   7167.67  3.0062486E-01
   7168.00  3.0832343E-01
   7168.33  3.1627075E-01
   7168.67  3.2442550E-01
   7169.00  3.3277045E-01
   7169.33  3.4129512E-01
   7169.67  3.4993295E-01
   7170.00  3.5862711E-01
   7170.33  3.6728400E-01
   7170.67  3.7578779E-01
   7171.00  3.8400262E-01
   7171.33  3.9164175E-01
   7171.67  3.9841938E-01
   7172.00  4.0391493E-01
