    FDMNES
    energy     <xanes>
   7097.00  5.1270720E-03
   7097.33  5.2544211E-03
   7097.67  5.3878970E-03
   7098.00  5.5279385E-03
   7098.33  5.6760050E-03
   7098.67  5.8318404E-03
   7099.00  5.9960515E-03
   7099.33  6.1705763E-03
   7099.67  6.3551645E-03
   7100.00  6.5506795E-03
   7100.33  6.7597675E-03
   7100.67  6.9822225E-03
   7101.00  7.2193139E-03
   7101.33  7.4747767E-03
   7101.67  7.7485338E-03
   7102.00  8.0425259E-03
   7102.33  8.3622380E-03
   7102.67  8.7079096E-03
   7103.00  9.0826515E-03
   7103.33  9.4949193E-03
   7103.67  9.9457001E-03
   7104.00  1.0440279E-02
   7104.33  1.0992506E-02
   7104.67  1.1605167E-02
   7105.00  1.2287927E-02
   7105.33  1.3065311E-02
   7105.67  1.3944697E-02
   7106.00  1.4945551E-02
   7106.33  1.6116062E-02
   7106.67  1.7476605E-02
   7107.00  1.9071936E-02
   7107.33  2.1011613E-02
   7107.67  2.3359324E-02
   7108.00  2.6239892E-02
   7108.33  2.9963538E-02
   7108.67  3.4780884E-02
   7109.00  4.1164167E-02
   7109.33  5.0370634E-02
   7109.67  6.3871370E-02
   7110.00  8.4563952E-02
   7110.33  1.2071973E-01
   7110.67  1.7955671E-01
   7111.00  2.5474334E-01
   7111.33  3.0835016E-01
   7111.67  3.4928947E-01
   7112.00  4.0741176E-01
   7112.33  4.8086341E-01
   7112.67  5.0230372E-01
   7113.00  4.3570813E-01
   7113.33  3.4022623E-01
   7113.67  2.6737997E-01
   7114.00  2.1969498E-01
   7114.33  1.9404094E-01
   7114.67  1.8502023E-01
   7115.00  1.9163719E-01
   7115.33  2.0983869E-01
   7115.67  2.2311854E-01
   7116.00  2.2053165E-01
   7116.33  2.0538972E-01
   7116.67  1.8922430E-01
   7117.00  1.7586974E-01
   7117.33  1.6569056E-01
   7117.67  1.5700526E-01
   7118.00  1.4965258E-01
   7118.33  1.4481930E-01
   7118.67  1.4220702E-01
   7119.00  1.4059122E-01
   7119.33  1.3824479E-01
   7119.67  1.3479844E-01
   7120.00  1.3128477E-01
   7120.33  1.2942280E-01
   7120.67  1.2954370E-01
   7121.00  1.3136114E-01
   7121.33  1.3445288E-01
   7121.67  1.3820114E-01
   7122.00  1.4241624E-01
   7122.33  1.4726309E-01
   7122.67  1.5298236E-01
   7123.00  1.5990989E-01
   7123.33  1.6871553E-01
   7123.67  1.7980877E-01
   7124.00  1.9394373E-01
   7124.33  2.1279996E-01
   7124.67  2.3691474E-01
   7125.00  2.6637227E-01
   7125.33  2.9939731E-01
   7125.67  3.3066965E-01
   7126.00  3.5572785E-01
   7126.33  3.7202529E-01
   7126.67  3.8356494E-01
   7127.00  3.9434541E-01
   7127.33  4.0862032E-01
   7127.67  4.2846855E-01
   7128.00  4.5504395E-01
   7128.33  4.8938744E-01
   7128.67  5.2917545E-01
   7129.00  5.7171270E-01
   7129.33  6.1313842E-01
   7129.67  6.5134727E-01
   7130.00  6.8630988E-01
   7130.33  7.1846521E-01
   7130.67  7.4810159E-01
   7131.00  7.7434918E-01
   7131.33  7.9550160E-01
   7131.67  8.1204936E-01
   7132.00  8.2541404E-01
   7132.33  8.3887117E-01
   7132.67  8.5628573E-01
   7133.00  8.8003116E-01
   7133.33  9.1015465E-01
   7133.67  9.3917970E-01
   7134.00  9.5626163E-01
   7134.33  9.4525582E-01
   7134.67  9.0516556E-01
   7135.00  8.4245869E-01
   7135.33  7.6901590E-01
   7135.67  6.9717080E-01
   7136.00  6.3242133E-01
   7136.33  5.7854138E-01
   7136.67  5.3456982E-01
   7137.00  4.9990330E-01
   7137.33  4.7452510E-01
   7137.67  4.5622363E-01
   7138.00  4.4396083E-01
   7138.33  4.3716488E-01
   7138.67  4.3415254E-01
   7139.00  4.3412514E-01
   7139.33  4.3658504E-01
   7139.67  4.4063865E-01
   7140.00  4.4586789E-01
   7140.33  4.5200454E-01
   7140.67  4.5869983E-01
   7141.00  4.6583271E-01
   7141.33  4.7340482E-01
   7141.67  4.8139524E-01
   7142.00  4.8985979E-01
   7142.33  4.9892816E-01
   7142.67  5.0854909E-01
   7143.00  5.1867754E-01
   7143.33  5.2923857E-01
   7143.67  5.3998423E-01
   7144.00  5.5068862E-01
   7144.33  5.6100599E-01
   7144.67  5.7067153E-01
   7145.00  5.7944805E-01
   7145.33  5.8697387E-01
   7145.67  5.9324613E-01
   7146.00  5.9821888E-01
   7146.33  6.0176561E-01
   7146.67  6.0415320E-01
   7147.00  6.0551802E-01
   7147.33  6.0593926E-01
   7147.67  6.0570913E-01
   7148.00  6.0497807E-01
   7148.33  6.0385329E-01
   7148.67  6.0249844E-01
   7149.00  6.0099413E-01
   7149.33  5.9940751E-01
   7149.67  5.9781572E-01
   7150.00  5.9627778E-01
   7150.33  5.9488405E-01
   7150.67  5.9369687E-01
   7151.00  5.9277845E-01
   7151.33  5.9222805E-01
   7151.67  5.9204910E-01
   7152.00  5.9226712E-01
   7152.33  5.9294521E-01
   7152.67  5.9402341E-01
   7153.00  5.9547806E-01
   7153.33  5.9730642E-01
   7153.67  5.9940731E-01
   7154.00  6.0172025E-01
   7154.33  6.0418485E-01
   7154.67  6.0670314E-01
   7155.00  6.0920458E-01
   7155.33  6.1159541E-01
   7155.67  6.1380732E-01
   7156.00  6.1577178E-01
   7156.33  6.1736952E-01
   7156.67  6.1856545E-01
   7157.00  6.1929759E-01
   7157.33  6.1943261E-01
   7157.67  6.1897845E-01
   7158.00  6.1789476E-01
   7158.33  6.1606706E-01
   7158.67  6.1356176E-01
   7159.00  6.1037597E-01
   7159.33  6.0644142E-01
   7159.67  6.0187965E-01
   7160.00  5.9674045E-01
   7160.33  5.9103677E-01
   7160.67  5.8491906E-01
   7161.00  5.7846732E-01
   7161.33  5.7174573E-01
   7161.67  5.6487536E-01
   7162.00  5.5792881E-01
   7162.33  5.5097949E-01
   7162.67  5.4408666E-01
   7163.00  5.3728809E-01
   7163.33  5.3062743E-01
   7163.67  5.2410166E-01
   7164.00  5.1770991E-01
   7164.33  5.1145396E-01
   7164.67  5.0529506E-01
   7165.00  4.9920759E-01
   7165.33  4.9316355E-01
   7165.67  4.8712788E-01
   7166.00  4.8108408E-01
   7166.33  4.7502678E-01
   7166.67  4.6895845E-01
   7167.00  4.6288011E-01
   7167.33  4.5679905E-01
   7167.67  4.5073299E-01
   7168.00  4.4470337E-01
   7168.33  4.3874725E-01
   7168.67  4.3288834E-01
   7169.00  4.2715591E-01
   7169.33  4.2160451E-01
   7169.67  4.1624735E-01
   7170.00  4.1111226E-01
   7170.33  4.0626454E-01
   7170.67  4.0171029E-01
   7171.00  3.9749021E-01
   7171.33  3.9372143E-01
   7171.67  3.9046281E-01
   7172.00  3.8784565E-01
