    FDMNES
    energy     <xanes>
   7097.00  3.8457741E-03
   7097.33  3.9185437E-03
   7097.67  3.9941079E-03
   7098.00  4.0726396E-03
   7098.33  4.1547589E-03
   7098.67  4.2403130E-03
   7099.00  4.3295348E-03
   7099.33  4.4232212E-03
   7099.67  4.5212135E-03
   7100.00  4.6238338E-03
   7100.33  4.7321340E-03
   7100.67  4.8459593E-03
   7101.00  4.9657700E-03
   7101.33  5.0929980E-03
   7101.67  5.2275165E-03
   7102.00  5.3700074E-03
   7102.33  5.5224943E-03
   7102.67  5.6849302E-03
   7103.00  5.8583709E-03
   7103.33  6.0458083E-03
   7103.67  6.2473919E-03
   7104.00  6.4648454E-03
   7104.33  6.7028436E-03
   7104.67  6.9620069E-03
   7105.00  7.2453375E-03
   7105.33  7.5606606E-03
   7105.67  7.9097549E-03
   7106.00  8.2982940E-03
   7106.33  8.7405827E-03
   7106.67  9.2414474E-03
   7107.00  9.8128138E-03
   7107.33  1.0484055E-02
   7107.67  1.1268981E-02
   7108.00  1.2196553E-02
   7108.33  1.3337628E-02
   7108.67  1.4737551E-02
   7109.00  1.6482964E-02
   7109.33  1.8790876E-02
   7109.67  2.1852375E-02
   7110.00  2.6026132E-02
   7110.33  3.2282436E-02
   7110.67  4.1798355E-02
   7111.00  5.6729568E-02
   7111.33  8.2489540E-02
   7111.67  1.2407783E-01
   7112.00  1.8542347E-01
   7112.33  2.4642375E-01
   7112.67  2.5119950E-01
   7113.00  1.9807347E-01
   7113.33  1.3996294E-01
   7113.67  1.0316444E-01
   7114.00  8.4767093E-02
   7114.33  8.1008652E-02
   7114.67  8.7181276E-02
   7115.00  9.5012207E-02
   7115.33  9.0811028E-02
   7115.67  8.5407680E-02
   7116.00  8.5348345E-02
   7116.33  8.4304285E-02
   7116.67  7.8713895E-02
   7117.00  7.2632167E-02
   7117.33  6.8600628E-02
   7117.67  6.6752015E-02
   7118.00  6.5614172E-02
   7118.33  6.2601982E-02
   7118.67  5.8653105E-02
   7119.00  5.5609559E-02
   7119.33  5.4274554E-02
   7119.67  5.4102240E-02
   7120.00  5.4800761E-02
   7120.33  5.6282605E-02
   7120.67  5.8363165E-02
   7121.00  6.0907325E-02
   7121.33  6.3838074E-02
   7121.67  6.7251858E-02
   7122.00  7.1410632E-02
   7122.33  7.6772771E-02
   7122.67  8.3530152E-02
   7123.00  9.1982050E-02
   7123.33  1.0264861E-01
   7123.67  1.1516642E-01
   7124.00  1.2894343E-01
   7124.33  1.4302044E-01
   7124.67  1.5650037E-01
   7125.00  1.6881096E-01
   7125.33  1.7944762E-01
   7125.67  1.8901338E-01
   7126.00  1.9840308E-01
   7126.33  2.0892551E-01
   7126.67  2.2146290E-01
   7127.00  2.3675124E-01
   7127.33  2.5608976E-01
   7127.67  2.7988106E-01
   7128.00  3.0869940E-01
   7128.33  3.4332110E-01
   7128.67  3.8234537E-01
   7129.00  4.2449970E-01
   7129.33  4.6854012E-01
   7129.67  5.1377821E-01
   7130.00  5.6075751E-01
   7130.33  6.1067272E-01
   7130.67  6.6282849E-01
   7131.00  7.1494375E-01
   7131.33  7.6155876E-01
   7131.67  7.9835792E-01
   7132.00  8.2363626E-01
   7132.33  8.3793044E-01
   7132.67  8.4522592E-01
   7133.00  8.4582939E-01
   7133.33  8.3597667E-01
   7133.67  8.1377313E-01
   7134.00  7.7888818E-01
   7134.33  7.3340240E-01
   7134.67  6.8389151E-01
   7135.00  6.3481524E-01
   7135.33  5.9042929E-01
   7135.67  5.5217175E-01
   7136.00  5.2058207E-01
   7136.33  4.9622827E-01
   7136.67  4.7754708E-01
   7137.00  4.6371332E-01
   7137.33  4.5424768E-01
   7137.67  4.4781833E-01
   7138.00  4.4383317E-01
   7138.33  4.4198942E-01
   7138.67  4.4164469E-01
   7139.00  4.4253853E-01
   7139.33  4.4454476E-01
   7139.67  4.4732048E-01
   7140.00  4.5069775E-01
   7140.33  4.5455745E-01
   7140.67  4.5870210E-01
   7141.00  4.6303584E-01
   7141.33  4.6749966E-01
   7141.67  4.7204902E-01
   7142.00  4.7669001E-01
   7142.33  4.8147464E-01
   7142.67  4.8644052E-01
   7143.00  4.9163257E-01
   7143.33  4.9712249E-01
   7143.67  5.0288412E-01
   7144.00  5.0888349E-01
   7144.33  5.1510932E-01
   7144.67  5.2149989E-01
   7145.00  5.2803125E-01
   7145.33  5.3472299E-01
   7145.67  5.4156512E-01
   7146.00  5.4856257E-01
   7146.33  5.5573945E-01
   7146.67  5.6307604E-01
   7147.00  5.7056705E-01
   7147.33  5.7821694E-01
   7147.67  5.8598777E-01
   7148.00  5.9385787E-01
   7148.33  6.0180906E-01
   7148.67  6.0980508E-01
   7149.00  6.1782383E-01
   7149.33  6.2584144E-01
   7149.67  6.3383319E-01
   7150.00  6.4177275E-01
   7150.33  6.4960738E-01
   7150.67  6.5729002E-01
   7151.00  6.6475664E-01
   7151.33  6.7188860E-01
   7151.67  6.7862601E-01
   7152.00  6.8488187E-01
   7152.33  6.9049143E-01
   7152.67  6.9544438E-01
   7153.00  6.9969104E-01
   7153.33  7.0311587E-01
   7153.67  7.0582253E-01
   7154.00  7.0784744E-01
   7154.33  7.0917883E-01
   7154.67  7.0997290E-01
   7155.00  7.1029949E-01
   7155.33  7.1018360E-01
   7155.67  7.0973307E-01
   7156.00  7.0898223E-01
   7156.33  7.0791704E-01
   7156.67  7.0657388E-01
   7157.00  7.0494022E-01
   7157.33  7.0294975E-01
   7157.67  7.0060810E-01
   7158.00  6.9788419E-01
   7158.33  6.9469170E-01
   7158.67  6.9105641E-01
   7159.00  6.8696831E-01
   7159.33  6.8238060E-01
   7159.67  6.7737666E-01
   7160.00  6.7199494E-01
   7160.33  6.6625924E-01
   7160.67  6.6027807E-01
   7161.00  6.5410969E-01
   7161.33  6.4780500E-01
   7161.67  6.4144035E-01
   7162.00  6.3506160E-01
   7162.33  6.2871486E-01
   7162.67  6.2242606E-01
   7163.00  6.1621011E-01
   7163.33  6.1008365E-01
   7163.67  6.0403501E-01
   7164.00  5.9805834E-01
   7164.33  5.9215117E-01
   7164.67  5.8629367E-01
   7165.00  5.8047522E-01
   7165.33  5.7468758E-01
   7165.67  5.6891803E-01
   7166.00  5.6316119E-01
   7166.33  5.5741480E-01
   7166.67  5.5167767E-01
   7167.00  5.4595248E-01
   7167.33  5.4024742E-01
   7167.67  5.3456987E-01
   7168.00  5.2893100E-01
   7168.33  5.2335352E-01
   7168.67  5.1784948E-01
   7169.00  5.1243670E-01
   7169.33  5.0715022E-01
   7169.67  5.0199758E-01
   7170.00  4.9699877E-01
   7170.33  4.9220334E-01
   7170.67  4.8762374E-01
   7171.00  4.8330239E-01
   7171.33  4.7936024E-01
   7171.67  4.7589448E-01
   7172.00  4.7308210E-01
