    FDMNES
    energy     <xanes>
   7097.00  4.3801890E-03
   7097.33  4.4651465E-03
   7097.67  4.5532344E-03
   7098.00  4.6446334E-03
   7098.33  4.7400172E-03
   7098.67  4.8391981E-03
   7099.00  4.9424168E-03
   7099.33  5.0505272E-03
   7099.67  5.1633321E-03
   7100.00  5.2811615E-03
   7100.33  5.4051275E-03
   7100.67  5.5350344E-03
   7101.00  5.6713513E-03
   7101.33  5.8155762E-03
   7101.67  5.9675411E-03
   7102.00  6.1279420E-03
   7102.33  6.2988839E-03
   7102.67  6.4802875E-03
   7103.00  6.6732416E-03
   7103.33  6.8808671E-03
   7103.67  7.1033173E-03
   7104.00  7.3424123E-03
   7104.33  7.6031080E-03
   7104.67  7.8861530E-03
   7105.00  8.1948564E-03
   7105.33  8.5378273E-03
   7105.67  8.9174043E-03
   7106.00  9.3403010E-03
   7106.33  9.8233839E-03
   7106.67  1.0373689E-02
   7107.00  1.1007024E-02
   7107.33  1.1762451E-02
   7107.67  1.2663430E-02
   7108.00  1.3756055E-02
   7108.33  1.5156063E-02
   7108.67  1.6962175E-02
   7109.00  1.9361120E-02
   7109.33  2.2858546E-02
   7109.67  2.8079967E-02
   7110.00  3.6268218E-02
   7110.33  5.0977525E-02
   7110.67  7.4888919E-02
   7111.00  1.0305356E-01
   7111.33  1.1734833E-01
   7111.67  1.2105527E-01
   7112.00  1.1496509E-01
   7112.33  1.0194181E-01
   7112.67  9.5986578E-02
   7113.00  1.0166752E-01
   7113.33  1.1254402E-01
   7113.67  1.0780494E-01
   7114.00  8.5523848E-02
   7114.33  6.5276894E-02
   7114.67  5.2926141E-02
   7115.00  4.6378838E-02
   7115.33  4.3715763E-02
   7115.67  4.3234153E-02
   7116.00  4.4395924E-02
   7116.33  4.7064875E-02
   7116.67  5.0939644E-02
   7117.00  5.5964931E-02
   7117.33  6.2186660E-02
   7117.67  6.9429164E-02
   7118.00  7.7847684E-02
   7118.33  8.7817671E-02
   7118.67  9.8880626E-02
   7119.00  1.1022462E-01
   7119.33  1.2108277E-01
   7119.67  1.3242176E-01
   7120.00  1.4527415E-01
   7120.33  1.5910565E-01
   7120.67  1.7253596E-01
   7121.00  1.8536840E-01
   7121.33  1.9814036E-01
   7121.67  2.1131124E-01
   7122.00  2.2488048E-01
   7122.33  2.3871808E-01
   7122.67  2.5302926E-01
   7123.00  2.6848296E-01
   7123.33  2.8631732E-01
   7123.67  3.0715968E-01
   7124.00  3.3174247E-01
   7124.33  3.6172285E-01
   7124.67  3.9800437E-01
   7125.00  4.4181218E-01
   7125.33  4.9321176E-01
   7125.67  5.4739399E-01
   7126.00  6.0192344E-01
   7126.33  6.5871639E-01
   7126.67  7.1978690E-01
   7127.00  7.8458317E-01
   7127.33  8.5077060E-01
   7127.67  9.1456190E-01
   7128.00  9.7102759E-01
   7128.33  1.0101278E+00
   7128.67  1.0268125E+00
   7129.00  1.0199751E+00
   7129.33  9.9247809E-01
   7129.67  9.5463219E-01
   7130.00  9.1221447E-01
   7130.33  8.6957388E-01
   7130.67  8.2957552E-01
   7131.00  7.9388061E-01
   7131.33  7.6387875E-01
   7131.67  7.3892222E-01
   7132.00  7.1934823E-01
   7132.33  7.0654617E-01
   7132.67  6.9952203E-01
   7133.00  6.9706008E-01
   7133.33  6.9725576E-01
   7133.67  6.9748810E-01
   7134.00  6.9618749E-01
   7134.33  6.9221728E-01
   7134.67  6.8652397E-01
   7135.00  6.8047946E-01
   7135.33  6.7532931E-01
   7135.67  6.7103738E-01
   7136.00  6.6717926E-01
   7136.33  6.6315556E-01
   7136.67  6.5838683E-01
   7137.00  6.5233171E-01
   7137.33  6.4417367E-01
   7137.67  6.3378774E-01
   7138.00  6.2116861E-01
   7138.33  6.0647966E-01
   7138.67  5.9069562E-01
   7139.00  5.7460720E-01
   7139.33  5.5921123E-01
   7139.67  5.4520113E-01
   7140.00  5.3304393E-01
   7140.33  5.2330105E-01
   7140.67  5.1574751E-01
   7141.00  5.1024532E-01
   7141.33  5.0667976E-01
   7141.67  5.0436770E-01
   7142.00  5.0283357E-01
   7142.33  5.0152094E-01
   7142.67  4.9988162E-01
   7143.00  4.9758317E-01
   7143.33  4.9432648E-01
   7143.67  4.9024677E-01
   7144.00  4.8551534E-01
   7144.33  4.8038419E-01
   7144.67  4.7520830E-01
   7145.00  4.7020126E-01
   7145.33  4.6553573E-01
   7145.67  4.6116514E-01
   7146.00  4.5698010E-01
   7146.33  4.5278521E-01
   7146.67  4.4839434E-01
   7147.00  4.4371409E-01
   7147.33  4.3872170E-01
   7147.67  4.3358307E-01
   7148.00  4.2845834E-01
   7148.33  4.2353013E-01
   7148.67  4.1884488E-01
   7149.00  4.1436905E-01
   7149.33  4.0998147E-01
   7149.67  4.0549215E-01
   7150.00  4.0075969E-01
   7150.33  3.9564523E-01
   7150.67  3.9019508E-01
   7151.00  3.8448976E-01
   7151.33  3.7867687E-01
   7151.67  3.7296770E-01
   7152.00  3.6752662E-01
   7152.33  3.6256245E-01
   7152.67  3.5812858E-01
   7153.00  3.5426913E-01
   7153.33  3.5106861E-01
   7153.67  3.4844114E-01
   7154.00  3.4635674E-01
   7154.33  3.4483299E-01
   7154.67  3.4376392E-01
   7155.00  3.4311595E-01
   7155.33  3.4290692E-01
   7155.67  3.4306829E-01
   7156.00  3.4359184E-01
   7156.33  3.4452048E-01
   7156.67  3.4580986E-01
   7157.00  3.4745573E-01
   7157.33  3.4948154E-01
   7157.67  3.5180938E-01
   7158.00  3.5439696E-01
   7158.33  3.5721094E-01
   7158.67  3.6016372E-01
   7159.00  3.6320472E-01
   7159.33  3.6629131E-01
   7159.67  3.6939058E-01
   7160.00  3.7249932E-01
   7160.33  3.7564531E-01
   7160.67  3.7887781E-01
   7161.00  3.8226310E-01
   7161.33  3.8592067E-01
   7161.67  3.8990491E-01
   7162.00  3.9427037E-01
   7162.33  3.9909531E-01
   7162.67  4.0431270E-01
   7163.00  4.0987609E-01
   7163.33  4.1573016E-01
   7163.67  4.2173011E-01
   7164.00  4.2777181E-01
   7164.33  4.3373266E-01
   7164.67  4.3953083E-01
   7165.00  4.4511432E-01
   7165.33  4.5042524E-01
   7165.67  4.5549588E-01
   7166.00  4.6034172E-01
   7166.33  4.6495999E-01
   7166.67  4.6939575E-01
   7167.00  4.7365974E-01
   7167.33  4.7773489E-01
   7167.67  4.8163747E-01
   7168.00  4.8535840E-01
   7168.33  4.8886007E-01
   7168.67  4.9215231E-01
   7169.00  4.9522287E-01
   7169.33  4.9803036E-01
   7169.67  5.0059485E-01
   7170.00  5.0291072E-01
   7170.33  5.0494214E-01
   7170.67  5.0671810E-01
   7171.00  5.0823753E-01
   7171.33  5.0947037E-01
   7171.67  5.1045702E-01
   7172.00  5.1121549E-01
