    FDMNES
    energy     <xanes>
   7097.00  4.9293747E-03
   7097.33  5.0488612E-03
   7097.67  5.1739723E-03
   7098.00  5.3051047E-03
   7098.33  5.4435875E-03
   7098.67  5.5891769E-03
   7099.00  5.7424197E-03
   7099.33  5.9050734E-03
   7099.67  6.0768968E-03
   7100.00  6.2586641E-03
   7100.33  6.4527647E-03
   7100.67  6.6589918E-03
   7101.00  6.8784785E-03
   7101.33  7.1145791E-03
   7101.67  7.3671936E-03
   7102.00  7.6380439E-03
   7102.33  7.9320256E-03
   7102.67  8.2493033E-03
   7103.00  8.5926174E-03
   7103.33  8.9694577E-03
   7103.67  9.3806148E-03
   7104.00  9.8307022E-03
   7104.33  1.0331872E-02
   7104.67  1.0886410E-02
   7105.00  1.1502656E-02
   7105.33  1.2201861E-02
   7105.67  1.2990088E-02
   7106.00  1.3883869E-02
   7106.33  1.4924253E-02
   7106.67  1.6127800E-02
   7107.00  1.7531695E-02
   7107.33  1.9227003E-02
   7107.67  2.1264315E-02
   7108.00  2.3744017E-02
   7108.33  2.6914531E-02
   7108.67  3.0967219E-02
   7109.00  3.6262987E-02
   7109.33  4.3750102E-02
   7109.67  5.4483291E-02
   7110.00  7.0524347E-02
   7110.33  9.7784209E-02
   7110.67  1.4256063E-01
   7111.00  2.0661065E-01
   7111.33  2.7226079E-01
   7111.67  3.2375420E-01
   7112.00  3.6319727E-01
   7112.33  3.9985822E-01
   7112.67  4.2761786E-01
   7113.00  4.3084968E-01
   7113.33  4.0515205E-01
   7113.67  3.5684473E-01
   7114.00  2.9933364E-01
   7114.33  2.5245206E-01
   7114.67  2.2072629E-01
   7115.00  2.0048280E-01
   7115.33  1.8082492E-01
   7115.67  1.5874674E-01
   7116.00  1.4041957E-01
   7116.33  1.2912263E-01
   7116.67  1.2144053E-01
   7117.00  1.1518566E-01
   7117.33  1.0983655E-01
   7117.67  1.0572769E-01
   7118.00  1.0336846E-01
   7118.33  1.0336264E-01
   7118.67  1.0529305E-01
   7119.00  1.0874059E-01
   7119.33  1.1297011E-01
   7119.67  1.1633283E-01
   7120.00  1.1758767E-01
   7120.33  1.1672488E-01
   7120.67  1.1514358E-01
   7121.00  1.1360305E-01
   7121.33  1.1262618E-01
   7121.67  1.1235902E-01
   7122.00  1.1291221E-01
   7122.33  1.1461651E-01
   7122.67  1.1773517E-01
   7123.00  1.2272477E-01
   7123.33  1.3044341E-01
   7123.67  1.4107246E-01
   7124.00  1.5495099E-01
   7124.33  1.7292501E-01
   7124.67  1.9509708E-01
   7125.00  2.2189710E-01
   7125.33  2.5323331E-01
   7125.67  2.8642549E-01
   7126.00  3.1932107E-01
   7126.33  3.5051884E-01
   7126.67  3.8075678E-01
   7127.00  4.1063933E-01
   7127.33  4.3937088E-01
   7127.67  4.6614074E-01
   7128.00  4.9174156E-01
   7128.33  5.1918578E-01
   7128.67  5.5169996E-01
   7129.00  5.9168616E-01
   7129.33  6.4052207E-01
   7129.67  6.9354766E-01
   7130.00  7.4593260E-01
   7130.33  7.9416494E-01
   7130.67  8.3889688E-01
   7131.00  8.8038205E-01
   7131.33  9.1697363E-01
   7131.67  9.4696777E-01
   7132.00  9.6795936E-01
   7132.33  9.7580680E-01
   7132.67  9.7051223E-01
   7133.00  9.5247462E-01
   7133.33  9.2261055E-01
   7133.67  8.8540594E-01
   7134.00  8.4364101E-01
   7134.33  8.0027927E-01
   7134.67  7.5854918E-01
   7135.00  7.2061746E-01
   7135.33  6.8857434E-01
   7135.67  6.6202628E-01
   7136.00  6.4056713E-01
   7136.33  6.2389725E-01
   7136.67  6.1051484E-01
   7137.00  5.9958206E-01
   7137.33  5.9034781E-01
   7137.67  5.8175210E-01
   7138.00  5.7315041E-01
   7138.33  5.6394333E-01
   7138.67  5.5399544E-01
   7139.00  5.4340539E-01
   7139.33  5.3247865E-01
   7139.67  5.2172184E-01
   7140.00  5.1158406E-01
   7140.33  5.0277578E-01
   7140.67  4.9570876E-01
   7141.00  4.9076456E-01
   7141.33  4.8844718E-01
   7141.67  4.8843722E-01
   7142.00  4.9062925E-01
   7142.33  4.9520631E-01
   7142.67  5.0188584E-01
   7143.00  5.1061630E-01
   7143.33  5.2136485E-01
   7143.67  5.3334762E-01
   7144.00  5.4585495E-01
   7144.33  5.5785318E-01
   7144.67  5.6844204E-01
   7145.00  5.7695761E-01
   7145.33  5.8260044E-01
   7145.67  5.8555410E-01
   7146.00  5.8595105E-01
   7146.33  5.8390774E-01
   7146.67  5.8024613E-01
   7147.00  5.7548191E-01
   7147.33  5.7013244E-01
   7147.67  5.6477559E-01
   7148.00  5.5976929E-01
   7148.33  5.5549629E-01
   7148.67  5.5204884E-01
   7149.00  5.4948231E-01
   7149.33  5.4787722E-01
   7149.67  5.4702963E-01
   7150.00  5.4682637E-01
   7150.33  5.4719644E-01
   7150.67  5.4796328E-01
   7151.00  5.4906032E-01
   7151.33  5.5048669E-01
   7151.67  5.5220446E-01
   7152.00  5.5422885E-01
   7152.33  5.5661990E-01
   7152.67  5.5934335E-01
   7153.00  5.6238815E-01
   7153.33  5.6575732E-01
   7153.67  5.6936257E-01
   7154.00  5.7314616E-01
   7154.33  5.7704091E-01
   7154.67  5.8094347E-01
   7155.00  5.8476754E-01
   7155.33  5.8838152E-01
   7155.67  5.9169529E-01
   7156.00  5.9461050E-01
   7156.33  5.9695254E-01
   7156.67  5.9868261E-01
   7157.00  5.9972190E-01
   7157.33  5.9989420E-01
   7157.67  5.9922821E-01
   7158.00  5.9767487E-01
   7158.33  5.9507179E-01
   7158.67  5.9150961E-01
   7159.00  5.8699091E-01
   7159.33  5.8144332E-01
   7159.67  5.7507163E-01
   7160.00  5.6799201E-01
   7160.33  5.6030836E-01
   7160.67  5.5227594E-01
   7161.00  5.4404513E-01
   7161.33  5.3574754E-01
   7161.67  5.2748973E-01
   7162.00  5.1932948E-01
   7162.33  5.1132431E-01
   7162.67  5.0347685E-01
   7163.00  4.9579508E-01
   7163.33  4.8830531E-01
   7163.67  4.8099159E-01
   7164.00  4.7386123E-01
   7164.33  4.6694866E-01
   7164.67  4.6024120E-01
   7165.00  4.5374906E-01
   7165.33  4.4751055E-01
   7165.67  4.4150586E-01
   7166.00  4.3573999E-01
   7166.33  4.3024497E-01
   7166.67  4.2499100E-01
   7167.00  4.1997884E-01
   7167.33  4.1524113E-01
   7167.67  4.1074875E-01
   7168.00  4.0649828E-01
   7168.33  4.0252030E-01
   7168.67  3.9879622E-01
   7169.00  3.9533923E-01
   7169.33  3.9220037E-01
   7169.67  3.8935922E-01
   7170.00  3.8682689E-01
   7170.33  3.8465202E-01
   7170.67  3.8279762E-01
   7171.00  3.8125988E-01
   7171.33  3.8006184E-01
   7171.67  3.7913464E-01
   7172.00  3.7843328E-01
