    FDMNES
    energy     <xanes>
   7097.00  5.0355704E-03
   7097.33  5.1537207E-03
   7097.67  5.2771786E-03
   7098.00  5.4062966E-03
   7098.33  5.5422914E-03
   7098.67  5.6849018E-03
   7099.00  5.8346041E-03
   7099.33  5.9929778E-03
   7099.67  6.1597498E-03
   7100.00  6.3355793E-03
   7100.33  6.5225665E-03
   7100.67  6.7204452E-03
   7101.00  6.9301541E-03
   7101.33  7.1545650E-03
   7101.67  7.3934614E-03
   7102.00  7.6482259E-03
   7102.33  7.9229187E-03
   7102.67  8.2174684E-03
   7103.00  8.5339946E-03
   7103.33  8.8784767E-03
   7103.67  9.2512017E-03
   7104.00  9.6555843E-03
   7104.33  1.0100888E-02
   7104.67  1.0588258E-02
   7105.00  1.1123553E-02
   7105.33  1.1722085E-02
   7105.67  1.2387124E-02
   7106.00  1.3129573E-02
   7106.33  1.3977052E-02
   7106.67  1.4938505E-02
   7107.00  1.6036675E-02
   7107.33  1.7327927E-02
   7107.67  1.8838654E-02
   7108.00  2.0625050E-02
   7108.33  2.2826280E-02
   7108.67  2.5536669E-02
   7109.00  2.8939348E-02
   7109.33  3.3510375E-02
   7109.67  3.9737776E-02
   7110.00  4.8578383E-02
   7110.33  6.2740072E-02
   7110.67  8.4972814E-02
   7111.00  1.1598566E-01
   7111.33  1.4848067E-01
   7111.67  1.7684568E-01
   7112.00  2.0503280E-01
   7112.33  2.3746864E-01
   7112.67  2.7474945E-01
   7113.00  3.2540855E-01
   7113.33  4.0730226E-01
   7113.67  5.0254190E-01
   7114.00  5.7523519E-01
   7114.33  5.9003832E-01
   7114.67  5.4190158E-01
   7115.00  4.4726499E-01
   7115.33  3.5042534E-01
   7115.67  2.7759539E-01
   7116.00  2.3037408E-01
   7116.33  2.0490360E-01
   7116.67  1.9075677E-01
   7117.00  1.8049419E-01
   7117.33  1.6883638E-01
   7117.67  1.5767496E-01
   7118.00  1.4933466E-01
   7118.33  1.4401630E-01
   7118.67  1.3975710E-01
   7119.00  1.3539848E-01
   7119.33  1.3075826E-01
   7119.67  1.2669537E-01
   7120.00  1.2391879E-01
   7120.33  1.2317007E-01
   7120.67  1.2429518E-01
   7121.00  1.2683458E-01
   7121.33  1.3008772E-01
   7121.67  1.3371035E-01
   7122.00  1.3773616E-01
   7122.33  1.4217029E-01
   7122.67  1.4687942E-01
   7123.00  1.5164378E-01
   7123.33  1.5624385E-01
   7123.67  1.6125116E-01
   7124.00  1.6783692E-01
   7124.33  1.7791117E-01
   7124.67  1.9227464E-01
   7125.00  2.1144631E-01
   7125.33  2.3517896E-01
   7125.67  2.6026981E-01
   7126.00  2.8423296E-01
   7126.33  3.0647092E-01
   7126.67  3.2867347E-01
   7127.00  3.5164007E-01
   7127.33  3.7530728E-01
   7127.67  3.9900822E-01
   7128.00  4.2268889E-01
   7128.33  4.4810766E-01
   7128.67  4.7794628E-01
   7129.00  5.1404877E-01
   7129.33  5.5716246E-01
   7129.67  6.0419555E-01
   7130.00  6.5201696E-01
   7130.33  6.9619687E-01
   7130.67  7.3359036E-01
   7131.00  7.6232816E-01
   7131.33  7.8141869E-01
   7131.67  7.9420868E-01
   7132.00  8.0306524E-01
   7132.33  8.0917067E-01
   7132.67  8.1259758E-01
   7133.00  8.1243729E-01
   7133.33  8.0722636E-01
   7133.67  7.9736334E-01
   7134.00  7.8350246E-01
   7134.33  7.6705344E-01
   7134.67  7.5054380E-01
   7135.00  7.3545988E-01
   7135.33  7.2224041E-01
   7135.67  7.0963957E-01
   7136.00  6.9669811E-01
   7136.33  6.8267408E-01
   7136.67  6.6747763E-01
   7137.00  6.5111967E-01
   7137.33  6.3373289E-01
   7137.67  6.1600579E-01
   7138.00  5.9869005E-01
   7138.33  5.8300808E-01
   7138.67  5.6973577E-01
   7139.00  5.5939099E-01
   7139.33  5.5240634E-01
   7139.67  5.4792044E-01
   7140.00  5.4527103E-01
   7140.33  5.4382364E-01
   7140.67  5.4287338E-01
   7141.00  5.4213339E-01
   7141.33  5.4147279E-01
   7141.67  5.4086572E-01
   7142.00  5.4032115E-01
   7142.33  5.3983922E-01
   7142.67  5.3940461E-01
   7143.00  5.3903924E-01
   7143.33  5.3885832E-01
   7143.67  5.3901687E-01
   7144.00  5.3970364E-01
   7144.33  5.4122125E-01
   7144.67  5.4362627E-01
   7145.00  5.4697042E-01
   7145.33  5.5132245E-01
   7145.67  5.5641331E-01
   7146.00  5.6202426E-01
   7146.33  5.6784613E-01
   7146.67  5.7347298E-01
   7147.00  5.7857357E-01
   7147.33  5.8270074E-01
   7147.67  5.8571209E-01
   7148.00  5.8748827E-01
   7148.33  5.8786307E-01
   7148.67  5.8710405E-01
   7149.00  5.8538239E-01
   7149.33  5.8285256E-01
   7149.67  5.7984951E-01
   7150.00  5.7657339E-01
   7150.33  5.7322349E-01
   7150.67  5.6997679E-01
   7151.00  5.6695152E-01
   7151.33  5.6430518E-01
   7151.67  5.6209206E-01
   7152.00  5.6038336E-01
   7152.33  5.5932301E-01
   7152.67  5.5889744E-01
   7153.00  5.5914274E-01
   7153.33  5.6016539E-01
   7153.67  5.6186878E-01
   7154.00  5.6421561E-01
   7154.33  5.6719725E-01
   7154.67  5.7062631E-01
   7155.00  5.7437631E-01
   7155.33  5.7829680E-01
   7155.67  5.8218579E-01
   7156.00  5.8588325E-01
   7156.33  5.8916140E-01
   7156.67  5.9189861E-01
   7157.00  5.9396515E-01
   7157.33  5.9513041E-01
   7157.67  5.9538909E-01
   7158.00  5.9467447E-01
   7158.33  5.9281639E-01
   7158.67  5.8993949E-01
   7159.00  5.8607335E-01
   7159.33  5.8116927E-01
   7159.67  5.7543676E-01
   7160.00  5.6897195E-01
   7160.33  5.6182046E-01
   7160.67  5.5418507E-01
   7161.00  5.4617385E-01
   7161.33  5.3787850E-01
   7161.67  5.2945372E-01
   7162.00  5.2100493E-01
   7162.33  5.1266638E-01
   7162.67  5.0455418E-01
   7163.00  4.9678178E-01
   7163.33  4.8952877E-01
   7163.67  4.8284032E-01
   7164.00  4.7678471E-01
   7164.33  4.7149888E-01
   7164.67  4.6691609E-01
   7165.00  4.6302700E-01
   7165.33  4.5987607E-01
   7165.67  4.5731981E-01
   7166.00  4.5529199E-01
   7166.33  4.5376194E-01
   7166.67  4.5258385E-01
   7167.00  4.5167941E-01
   7167.33  4.5098530E-01
   7167.67  4.5040277E-01
   7168.00  4.4987851E-01
   7168.33  4.4935686E-01
   7168.67  4.4878986E-01
   7169.00  4.4814855E-01
   7169.33  4.4740055E-01
   7169.67  4.4655049E-01
   7170.00  4.4560319E-01
   7170.33  4.4456708E-01
   7170.67  4.4348289E-01
   7171.00  4.4238593E-01
   7171.33  4.4133218E-01
   7171.67  4.4038182E-01
   7172.00  4.3959980E-01
