    FDMNES
    energy     <xanes>
   7097.00  4.9514570E-03
   7097.33  5.0638889E-03
   7097.67  5.1813433E-03
   7098.00  5.3041605E-03
   7098.33  5.4335039E-03
   7098.67  5.5691370E-03
   7099.00  5.7115246E-03
   7099.33  5.8621903E-03
   7099.67  6.0208938E-03
   7100.00  6.1882874E-03
   7100.33  6.3664204E-03
   7100.67  6.5550735E-03
   7101.00  6.7551921E-03
   7101.33  6.9696209E-03
   7101.67  7.1982170E-03
   7102.00  7.4424032E-03
   7102.33  7.7062824E-03
   7102.67  7.9899110E-03
   7103.00  8.2955300E-03
   7103.33  8.6293412E-03
   7103.67  8.9918805E-03
   7104.00  9.3868836E-03
   7104.33  9.8242892E-03
   7104.67  1.0305791E-02
   7105.00  1.0838077E-02
   7105.33  1.1438322E-02
   7105.67  1.2111156E-02
   7106.00  1.2869729E-02
   7106.33  1.3746860E-02
   7106.67  1.4755387E-02
   7107.00  1.5924709E-02
   7107.33  1.7327077E-02
   7107.67  1.9002113E-02
   7108.00  2.1029127E-02
   7108.33  2.3604942E-02
   7108.67  2.6881394E-02
   7109.00  3.1146126E-02
   7109.33  3.7158346E-02
   7109.67  4.5772863E-02
   7110.00  5.8668735E-02
   7110.33  8.0685938E-02
   7110.67  1.1697230E-01
   7111.00  1.6830501E-01
   7111.33  2.1494688E-01
   7111.67  2.4220287E-01
   7112.00  2.5868600E-01
   7112.33  2.7553137E-01
   7112.67  2.9729405E-01
   7113.00  3.2168890E-01
   7113.33  3.4423767E-01
   7113.67  3.5642942E-01
   7114.00  3.4304292E-01
   7114.33  3.0165761E-01
   7114.67  2.5558849E-01
   7115.00  2.1725306E-01
   7115.33  1.9143064E-01
   7115.67  1.7463930E-01
   7116.00  1.6341759E-01
   7116.33  1.5304441E-01
   7116.67  1.4092688E-01
   7117.00  1.2864053E-01
   7117.33  1.1957300E-01
   7117.67  1.1456021E-01
   7118.00  1.1331231E-01
   7118.33  1.1512181E-01
   7118.67  1.1870977E-01
   7119.00  1.2392260E-01
   7119.33  1.3026748E-01
   7119.67  1.3591649E-01
   7120.00  1.3998328E-01
   7120.33  1.4222409E-01
   7120.67  1.4324644E-01
   7121.00  1.4423428E-01
   7121.33  1.4686685E-01
   7121.67  1.5166629E-01
   7122.00  1.5881132E-01
   7122.33  1.6855136E-01
   7122.67  1.8033836E-01
   7123.00  1.9417908E-01
   7123.33  2.1098432E-01
   7123.67  2.3045118E-01
   7124.00  2.5118671E-01
   7124.33  2.6993709E-01
   7124.67  2.8439119E-01
   7125.00  2.9459515E-01
   7125.33  3.0247943E-01
   7125.67  3.1034874E-01
   7126.00  3.1905913E-01
   7126.33  3.2929947E-01
   7126.67  3.4131670E-01
   7127.00  3.5542775E-01
   7127.33  3.7216894E-01
   7127.67  3.9129943E-01
   7128.00  4.1266999E-01
   7128.33  4.3634917E-01
   7128.67  4.6234309E-01
   7129.00  4.9125354E-01
   7129.33  5.2403628E-01
   7129.67  5.6007906E-01
   7130.00  5.9843732E-01
   7130.33  6.3676021E-01
   7130.67  6.7197177E-01
   7131.00  7.0248766E-01
   7131.33  7.2875020E-01
   7131.67  7.5453745E-01
   7132.00  7.8312177E-01
   7132.33  8.1745453E-01
   7132.67  8.5603970E-01
   7133.00  8.9517037E-01
   7133.33  9.2702597E-01
   7133.67  9.4493315E-01
   7134.00  9.4510547E-01
   7134.33  9.2682122E-01
   7134.67  8.9826470E-01
   7135.00  8.6535619E-01
   7135.33  8.3314243E-01
   7135.67  8.0414809E-01
   7136.00  7.7929288E-01
   7136.33  7.5938786E-01
   7136.67  7.4373317E-01
   7137.00  7.3202701E-01
   7137.33  7.2413483E-01
   7137.67  7.1878985E-01
   7138.00  7.1505008E-01
   7138.33  7.1179540E-01
   7138.67  7.0804073E-01
   7139.00  7.0338873E-01
   7139.33  6.9771913E-01
   7139.67  6.9138878E-01
   7140.00  6.8460518E-01
   7140.33  6.7741052E-01
   7140.67  6.6968665E-01
   7141.00  6.6108312E-01
   7141.33  6.5089662E-01
   7141.67  6.3889239E-01
   7142.00  6.2501188E-01
   7142.33  6.0944276E-01
   7142.67  5.9309900E-01
   7143.00  5.7667689E-01
   7143.33  5.6092045E-01
   7143.67  5.4617006E-01
   7144.00  5.3258314E-01
   7144.33  5.2032668E-01
   7144.67  5.0917573E-01
   7145.00  4.9903908E-01
   7145.33  4.8993215E-01
   7145.67  4.8166593E-01
   7146.00  4.7419721E-01
   7146.33  4.6758774E-01
   7146.67  4.6171857E-01
   7147.00  4.5657323E-01
   7147.33  4.5222266E-01
   7147.67  4.4856497E-01
   7148.00  4.4558591E-01
   7148.33  4.4333734E-01
   7148.67  4.4170347E-01
   7149.00  4.4065499E-01
   7149.33  4.4022519E-01
   7149.67  4.4030658E-01
   7150.00  4.4086160E-01
   7150.33  4.4189820E-01
   7150.67  4.4331954E-01
   7151.00  4.4508804E-01
   7151.33  4.4719380E-01
   7151.67  4.4954569E-01
   7152.00  4.5209194E-01
   7152.33  4.5478313E-01
   7152.67  4.5753605E-01
   7153.00  4.6029742E-01
   7153.33  4.6301346E-01
   7153.67  4.6566212E-01
   7154.00  4.6823943E-01
   7154.33  4.7074818E-01
   7154.67  4.7321243E-01
   7155.00  4.7565140E-01
   7155.33  4.7809292E-01
   7155.67  4.8055039E-01
   7156.00  4.8301538E-01
   7156.33  4.8545173E-01
   7156.67  4.8781081E-01
   7157.00  4.9004164E-01
   7157.33  4.9206206E-01
   7157.67  4.9384147E-01
   7158.00  4.9533830E-01
   7158.33  4.9646850E-01
   7158.67  4.9723456E-01
   7159.00  4.9760843E-01
   7159.33  4.9751413E-01
   7159.67  4.9699399E-01
   7160.00  4.9605541E-01
   7160.33  4.9468155E-01
   7160.67  4.9297984E-01
   7161.00  4.9102313E-01
   7161.33  4.8890234E-01
   7161.67  4.8676305E-01
   7162.00  4.8471416E-01
   7162.33  4.8289171E-01
   7162.67  4.8136809E-01
   7163.00  4.8021748E-01
   7163.33  4.7955622E-01
   7163.67  4.7936020E-01
   7164.00  4.7962992E-01
   7164.33  4.8039272E-01
   7164.67  4.8154079E-01
   7165.00  4.8301244E-01
   7165.33  4.8475107E-01
   7165.67  4.8663202E-01
   7166.00  4.8857456E-01
   7166.33  4.9048989E-01
   7166.67  4.9230914E-01
   7167.00  4.9398756E-01
   7167.33  4.9547677E-01
   7167.67  4.9678350E-01
   7168.00  4.9790342E-01
   7168.33  4.9882122E-01
   7168.67  4.9957542E-01
   7169.00  5.0018396E-01
   7169.33  5.0065481E-01
   7169.67  5.0102663E-01
   7170.00  5.0131831E-01
   7170.33  5.0154317E-01
   7170.67  5.0172768E-01
   7171.00  5.0188601E-01
   7171.33  5.0202854E-01
   7171.67  5.0216109E-01
   7172.00  5.0227867E-01
