    FDMNES
    energy     <xanes>
   7097.00  4.6824890E-03
   7097.33  4.7910152E-03
   7097.67  4.9046979E-03
   7098.00  5.0239118E-03
   7098.33  5.1498946E-03
   7098.67  5.2824393E-03
   7099.00  5.4220679E-03
   7099.33  5.5704339E-03
   7099.67  5.7273406E-03
   7100.00  5.8935367E-03
   7100.33  6.0712971E-03
   7100.67  6.2604731E-03
   7101.00  6.4621764E-03
   7101.33  6.6796475E-03
   7101.67  6.9128680E-03
   7102.00  7.1635577E-03
   7102.33  7.4365309E-03
   7102.67  7.7320819E-03
   7103.00  8.0530072E-03
   7103.33  8.4068353E-03
   7103.67  8.7945982E-03
   7104.00  9.2211288E-03
   7104.33  9.6989812E-03
   7104.67  1.0230974E-02
   7105.00  1.0826131E-02
   7105.33  1.1507187E-02
   7105.67  1.2281587E-02
   7106.00  1.3167980E-02
   7106.33  1.4212301E-02
   7106.67  1.5435372E-02
   7107.00  1.6881448E-02
   7107.33  1.8658664E-02
   7107.67  2.0833599E-02
   7108.00  2.3534433E-02
   7108.33  2.7080493E-02
   7108.67  3.1741480E-02
   7109.00  3.8022533E-02
   7109.33  4.7275811E-02
   7109.67  6.1126659E-02
   7110.00  8.2783621E-02
   7110.33  1.2159066E-01
   7110.67  1.8733667E-01
   7111.00  2.7901234E-01
   7111.33  3.4788381E-01
   7111.67  3.5619194E-01
   7112.00  3.2378062E-01
   7112.33  2.9777493E-01
   7112.67  2.8918877E-01
   7113.00  2.7791206E-01
   7113.33  2.4219069E-01
   7113.67  1.9994980E-01
   7114.00  1.6778639E-01
   7114.33  1.5158362E-01
   7114.67  1.4719474E-01
   7115.00  1.5093059E-01
   7115.33  1.5382255E-01
   7115.67  1.5129668E-01
   7116.00  1.4794288E-01
   7116.33  1.4333889E-01
   7116.67  1.3280061E-01
   7117.00  1.1922488E-01
   7117.33  1.0985162E-01
   7117.67  1.0620549E-01
   7118.00  1.0679611E-01
   7118.33  1.0842529E-01
   7118.67  1.0857537E-01
   7119.00  1.0777882E-01
   7119.33  1.0804987E-01
   7119.67  1.1058911E-01
   7120.00  1.1577504E-01
   7120.33  1.2346519E-01
   7120.67  1.3179034E-01
   7121.00  1.3916468E-01
   7121.33  1.4511314E-01
   7121.67  1.5059960E-01
   7122.00  1.5623281E-01
   7122.33  1.6281981E-01
   7122.67  1.7101843E-01
   7123.00  1.8116562E-01
   7123.33  1.9338538E-01
   7123.67  2.0690706E-01
   7124.00  2.2085471E-01
   7124.33  2.3413892E-01
   7124.67  2.4653421E-01
   7125.00  2.5801628E-01
   7125.33  2.6811137E-01
   7125.67  2.7652512E-01
   7126.00  2.8303427E-01
   7126.33  2.8756025E-01
   7126.67  2.9109865E-01
   7127.00  2.9484026E-01
   7127.33  3.0054917E-01
   7127.67  3.0881756E-01
   7128.00  3.1915937E-01
   7128.33  3.3002920E-01
   7128.67  3.4011925E-01
   7129.00  3.4935116E-01
   7129.33  3.5822782E-01
   7129.67  3.6724693E-01
   7130.00  3.7655738E-01
   7130.33  3.8628465E-01
   7130.67  3.9655036E-01
   7131.00  4.0756478E-01
   7131.33  4.1965692E-01
   7131.67  4.3283674E-01
   7132.00  4.4718833E-01
   7132.33  4.6295760E-01
   7132.67  4.7996950E-01
   7133.00  4.9798112E-01
   7133.33  5.1635041E-01
   7133.67  5.3398800E-01
   7134.00  5.4991982E-01
   7134.33  5.6290098E-01
   7134.67  5.7262859E-01
   7135.00  5.7865840E-01
   7135.33  5.8010999E-01
   7135.67  5.7765783E-01
   7136.00  5.7212073E-01
   7136.33  5.6483307E-01
   7136.67  5.5753567E-01
   7137.00  5.5118901E-01
   7137.33  5.4658553E-01
   7137.67  5.4372071E-01
   7138.00  5.4256956E-01
   7138.33  5.4317599E-01
   7138.67  5.4511111E-01
   7139.00  5.4815072E-01
   7139.33  5.5218251E-01
   7139.67  5.5697414E-01
   7140.00  5.6251463E-01
   7140.33  5.6895893E-01
   7140.67  5.7624835E-01
   7141.00  5.8433660E-01
   7141.33  5.9308599E-01
   7141.67  6.0203178E-01
   7142.00  6.1073016E-01
   7142.33  6.1853912E-01
   7142.67  6.2513190E-01
   7143.00  6.3034613E-01
   7143.33  6.3412954E-01
   7143.67  6.3701873E-01
   7144.00  6.3945442E-01
   7144.33  6.4194803E-01
   7144.67  6.4487369E-01
   7145.00  6.4842971E-01
   7145.33  6.5280715E-01
   7145.67  6.5790531E-01
   7146.00  6.6366080E-01
   7146.33  6.7003516E-01
   7146.67  6.7683413E-01
   7147.00  6.8394034E-01
   7147.33  6.9122228E-01
   7147.67  6.9848274E-01
   7148.00  7.0553628E-01
   7148.33  7.1205949E-01
   7148.67  7.1779764E-01
   7149.00  7.2245620E-01
   7149.33  7.2551061E-01
   7149.67  7.2683969E-01
   7150.00  7.2628076E-01
   7150.33  7.2358273E-01
   7150.67  7.1919273E-01
   7151.00  7.1345227E-01
   7151.33  7.0676857E-01
   7151.67  6.9977423E-01
   7152.00  6.9285624E-01
   7152.33  6.8637979E-01
   7152.67  6.8045107E-01
   7153.00  6.7508926E-01
   7153.33  6.7028632E-01
   7153.67  6.6585251E-01
   7154.00  6.6166075E-01
   7154.33  6.5758007E-01
   7154.67  6.5347717E-01
   7155.00  6.4927341E-01
   7155.33  6.4488816E-01
   7155.67  6.4031339E-01
   7156.00  6.3554806E-01
   7156.33  6.3059083E-01
   7156.67  6.2550011E-01
   7157.00  6.2031806E-01
   7157.33  6.1510069E-01
   7157.67  6.0991762E-01
   7158.00  6.0482269E-01
   7158.33  5.9988833E-01
   7158.67  5.9513969E-01
   7159.00  5.9060451E-01
   7159.33  5.8633045E-01
   7159.67  5.8228484E-01
   7160.00  5.7845327E-01
   7160.33  5.7484049E-01
   7160.67  5.7139848E-01
   7161.00  5.6810446E-01
   7161.33  5.6494835E-01
   7161.67  5.6189440E-01
   7162.00  5.5893102E-01
   7162.33  5.5606245E-01
   7162.67  5.5327934E-01
   7163.00  5.5059107E-01
   7163.33  5.4803551E-01
   7163.67  5.4561916E-01
   7164.00  5.4335418E-01
   7164.33  5.4127023E-01
   7164.67  5.3934919E-01
   7165.00  5.3758366E-01
   7165.33  5.3596911E-01
   7165.67  5.3445491E-01
   7166.00  5.3300727E-01
   7166.33  5.3159472E-01
   7166.67  5.3017812E-01
   7167.00  5.2872618E-01
   7167.33  5.2719947E-01
   7167.67  5.2558666E-01
   7168.00  5.2388085E-01
   7168.33  5.2207266E-01
   7168.67  5.2018392E-01
   7169.00  5.1822820E-01
   7169.33  5.1621827E-01
   7169.67  5.1418067E-01
   7170.00  5.1213379E-01
   7170.33  5.1010201E-01
   7170.67  5.0811039E-01
   7171.00  5.0618849E-01
   7171.33  5.0440077E-01
   7171.67  5.0281145E-01
   7172.00  5.0151564E-01
