    FDMNES
    energy     <xanes>
   7097.00  5.3857910E-03
   7097.33  5.5218861E-03
   7097.67  5.6645655E-03
   7098.00  5.8142966E-03
   7098.33  5.9726400E-03
   7098.67  6.1393134E-03
   7099.00  6.3149594E-03
   7099.33  6.5016407E-03
   7099.67  6.6990746E-03
   7100.00  6.9081678E-03
   7100.33  7.1317184E-03
   7100.67  7.3694780E-03
   7101.00  7.6227658E-03
   7101.33  7.8954943E-03
   7101.67  8.1875260E-03
   7102.00  8.5008498E-03
   7102.33  8.8411390E-03
   7102.67  9.2085334E-03
   7103.00  9.6061627E-03
   7103.33  1.0042622E-02
   7103.67  1.0518702E-02
   7104.00  1.1039591E-02
   7104.33  1.1619031E-02
   7104.67  1.2259348E-02
   7105.00  1.2969718E-02
   7105.33  1.3773665E-02
   7105.67  1.4677283E-02
   7106.00  1.5698219E-02
   7106.33  1.6880491E-02
   7106.67  1.8240253E-02
   7107.00  1.9815462E-02
   7107.33  2.1699143E-02
   7107.67  2.3938127E-02
   7108.00  2.6628088E-02
   7108.33  3.0003865E-02
   7108.67  3.4227672E-02
   7109.00  3.9607558E-02
   7109.33  4.6931571E-02
   7109.67  5.6975708E-02
   7110.00  7.1228701E-02
   7110.33  9.3847019E-02
   7110.67  1.2954862E-01
   7111.00  1.8331583E-01
   7111.33  2.5956225E-01
   7111.67  3.5857445E-01
   7112.00  4.7261045E-01
   7112.33  5.7245390E-01
   7112.67  6.3451758E-01
   7113.00  6.2921225E-01
   7113.33  5.5191306E-01
   7113.67  4.5663571E-01
   7114.00  3.7060984E-01
   7114.33  3.0593423E-01
   7114.67  2.5997931E-01
   7115.00  2.3033153E-01
   7115.33  2.1588032E-01
   7115.67  2.1182115E-01
   7116.00  2.1321824E-01
   7116.33  2.1144069E-01
   7116.67  2.0251111E-01
   7117.00  1.8831853E-01
   7117.33  1.7306746E-01
   7117.67  1.6002134E-01
   7118.00  1.5011473E-01
   7118.33  1.4317472E-01
   7118.67  1.3786831E-01
   7119.00  1.3365000E-01
   7119.33  1.3038696E-01
   7119.67  1.2787958E-01
   7120.00  1.2603505E-01
   7120.33  1.2485996E-01
   7120.67  1.2450856E-01
   7121.00  1.2529633E-01
   7121.33  1.2738551E-01
   7121.67  1.3040381E-01
   7122.00  1.3419841E-01
   7122.33  1.3866774E-01
   7122.67  1.4343967E-01
   7123.00  1.4830787E-01
   7123.33  1.5352311E-01
   7123.67  1.5965749E-01
   7124.00  1.6715073E-01
   7124.33  1.7640413E-01
   7124.67  1.8717310E-01
   7125.00  1.9926223E-01
   7125.33  2.1258865E-01
   7125.67  2.2714854E-01
   7126.00  2.4346400E-01
   7126.33  2.6289794E-01
   7126.67  2.8630668E-01
   7127.00  3.1445992E-01
   7127.33  3.4768261E-01
   7127.67  3.8312062E-01
   7128.00  4.1756056E-01
   7128.33  4.4835484E-01
   7128.67  4.7790275E-01
   7129.00  5.1021640E-01
   7129.33  5.4974945E-01
   7129.67  5.9670555E-01
   7130.00  6.5033758E-01
   7130.33  7.0946468E-01
   7130.67  7.7129463E-01
   7131.00  8.3399178E-01
   7131.33  8.9568137E-01
   7131.67  9.5497076E-01
   7132.00  1.0101645E+00
   7132.33  1.0570699E+00
   7132.67  1.0918565E+00
   7133.00  1.1100475E+00
   7133.33  1.1052125E+00
   7133.67  1.0793301E+00
   7134.00  1.0350816E+00
   7134.33  9.7667429E-01
   7134.67  9.1221600E-01
   7135.00  8.4646032E-01
   7135.33  7.8353011E-01
   7135.67  7.2521948E-01
   7136.00  6.7240636E-01
   7136.33  6.2628423E-01
   7136.67  5.8629800E-01
   7137.00  5.5253511E-01
   7137.33  5.2578514E-01
   7137.67  5.0507366E-01
   7138.00  4.8996330E-01
   7138.33  4.8016014E-01
   7138.67  4.7390069E-01
   7139.00  4.7015679E-01
   7139.33  4.6818877E-01
   7139.67  4.6730777E-01
   7140.00  4.6742620E-01
   7140.33  4.6882030E-01
   7140.67  4.7156550E-01
   7141.00  4.7580516E-01
   7141.33  4.8177459E-01
   7141.67  4.8916895E-01
   7142.00  4.9777822E-01
   7142.33  5.0737346E-01
   7142.67  5.1745922E-01
   7143.00  5.2771122E-01
   7143.33  5.3778584E-01
   7143.67  5.4746352E-01
   7144.00  5.5660824E-01
   7144.33  5.6504423E-01
   7144.67  5.7278664E-01
   7145.00  5.7978324E-01
   7145.33  5.8585697E-01
   7145.67  5.9101970E-01
   7146.00  5.9519023E-01
   7146.33  5.9815806E-01
   7146.67  6.0002021E-01
   7147.00  6.0079173E-01
   7147.33  6.0042344E-01
   7147.67  5.9916158E-01
   7148.00  5.9712990E-01
   7148.33  5.9441582E-01
   7148.67  5.9127020E-01
   7149.00  5.8784409E-01
   7149.33  5.8428250E-01
   7149.67  5.8073997E-01
   7150.00  5.7732113E-01
   7150.33  5.7415969E-01
   7150.67  5.7131673E-01
   7151.00  5.6886080E-01
   7151.33  5.6692157E-01
   7151.67  5.6550666E-01
   7152.00  5.6466775E-01
   7152.33  5.6453812E-01
   7152.67  5.6508257E-01
   7153.00  5.6632395E-01
   7153.33  5.6835091E-01
   7153.67  5.7104186E-01
   7154.00  5.7433322E-01
   7154.33  5.7816895E-01
   7154.67  5.8232908E-01
   7155.00  5.8664782E-01
   7155.33  5.9089994E-01
   7155.67  5.9486575E-01
   7156.00  5.9836160E-01
   7156.33  6.0112374E-01
   7156.67  6.0309851E-01
   7157.00  6.0421319E-01
   7157.33  6.0432294E-01
   7157.67  6.0355725E-01
   7158.00  6.0196548E-01
   7158.33  5.9954196E-01
   7158.67  5.9648626E-01
   7159.00  5.9289850E-01
   7159.33  5.8884495E-01
   7159.67  5.8449174E-01
   7160.00  5.7992908E-01
   7160.33  5.7522998E-01
   7160.67  5.7047860E-01
   7161.00  5.6571770E-01
   7161.33  5.6098340E-01
   7161.67  5.5629300E-01
   7162.00  5.5165235E-01
   7162.33  5.4705999E-01
   7162.67  5.4249153E-01
   7163.00  5.3792299E-01
   7163.33  5.3331476E-01
   7163.67  5.2863082E-01
   7164.00  5.2383438E-01
   7164.33  5.1886299E-01
   7164.67  5.1369750E-01
   7165.00  5.0831322E-01
   7165.33  5.0266502E-01
   7165.67  4.9678292E-01
   7166.00  4.9068251E-01
   7166.33  4.8437477E-01
   7166.67  4.7793087E-01
   7167.00  4.7140175E-01
   7167.33  4.6485318E-01
   7167.67  4.5836422E-01
   7168.00  4.5200431E-01
   7168.33  4.4586754E-01
   7168.67  4.3998529E-01
   7169.00  4.3439851E-01
   7169.33  4.2918794E-01
   7169.67  4.2434115E-01
   7170.00  4.1987681E-01
   7170.33  4.1585939E-01
   7170.67  4.1224818E-01
   7171.00  4.0904904E-01
   7171.33  4.0632544E-01
   7171.67  4.0404923E-01
   7172.00  4.0225387E-01
