    FDMNES
    energy     <xanes>
   7097.00  5.3690383E-03
   7097.33  5.5045664E-03
   7097.67  5.6466455E-03
   7098.00  5.7957405E-03
   7098.33  5.9534039E-03
   7098.67  6.1193541E-03
   7099.00  6.2942302E-03
   7099.33  6.4800838E-03
   7099.67  6.6766329E-03
   7100.00  6.8847793E-03
   7100.33  7.1073055E-03
   7100.67  7.3439641E-03
   7101.00  7.5960667E-03
   7101.33  7.8675044E-03
   7101.67  8.1581402E-03
   7102.00  8.4699522E-03
   7102.33  8.8085833E-03
   7102.67  9.1741736E-03
   7103.00  9.5698374E-03
   7103.33  1.0004127E-02
   7103.67  1.0477834E-02
   7104.00  1.0996127E-02
   7104.33  1.1572692E-02
   7104.67  1.2209861E-02
   7105.00  1.2916790E-02
   7105.33  1.3716951E-02
   7105.67  1.4616474E-02
   7106.00  1.5633030E-02
   7106.33  1.6810685E-02
   7106.67  1.8165795E-02
   7107.00  1.9736601E-02
   7107.33  2.1616871E-02
   7107.67  2.3854535E-02
   7108.00  2.6547161E-02
   7108.33  2.9934754E-02
   7108.67  3.4186802E-02
   7109.00  3.9625117E-02
   7109.33  4.7078746E-02
   7109.67  5.7390217E-02
   7110.00  7.2186574E-02
   7110.33  9.6060277E-02
   7110.67  1.3426156E-01
   7111.00  1.9167775E-01
   7111.33  2.6707916E-01
   7111.67  3.4547977E-01
   7112.00  4.1818767E-01
   7112.33  5.0792969E-01
   7112.67  6.1087373E-01
   7113.00  6.6128436E-01
   7113.33  5.9769740E-01
   7113.67  4.8385001E-01
   7114.00  3.7627212E-01
   7114.33  3.0162802E-01
   7114.67  2.5320951E-01
   7115.00  2.2525971E-01
   7115.33  2.1486453E-01
   7115.67  2.1584330E-01
   7116.00  2.2238336E-01
   7116.33  2.2437932E-01
   7116.67  2.1624571E-01
   7117.00  1.9976635E-01
   7117.33  1.8092393E-01
   7117.67  1.6427986E-01
   7118.00  1.5102459E-01
   7118.33  1.4158355E-01
   7118.67  1.3495986E-01
   7119.00  1.3062317E-01
   7119.33  1.2834258E-01
   7119.67  1.2743954E-01
   7120.00  1.2740262E-01
   7120.33  1.2747047E-01
   7120.67  1.2708947E-01
   7121.00  1.2647858E-01
   7121.33  1.2663273E-01
   7121.67  1.2808457E-01
   7122.00  1.3081429E-01
   7122.33  1.3467198E-01
   7122.67  1.3921778E-01
   7123.00  1.4418903E-01
   7123.33  1.4954124E-01
   7123.67  1.5561921E-01
   7124.00  1.6297233E-01
   7124.33  1.7234123E-01
   7124.67  1.8376078E-01
   7125.00  1.9724855E-01
   7125.33  2.1283859E-01
   7125.67  2.2991889E-01
   7126.00  2.4815580E-01
   7126.33  2.6764918E-01
   7126.67  2.8883451E-01
   7127.00  3.1242269E-01
   7127.33  3.3923251E-01
   7127.67  3.6860847E-01
   7128.00  3.9968350E-01
   7128.33  4.3149097E-01
   7128.67  4.6418769E-01
   7129.00  4.9935117E-01
   7129.33  5.3952872E-01
   7129.67  5.8475870E-01
   7130.00  6.3441351E-01
   7130.33  6.8759747E-01
   7130.67  7.4264998E-01
   7131.00  7.9882121E-01
   7131.33  8.5534851E-01
   7131.67  9.1061536E-01
   7132.00  9.6247454E-01
   7132.33  1.0071356E+00
   7132.67  1.0422441E+00
   7133.00  1.0651198E+00
   7133.33  1.0712436E+00
   7133.67  1.0611706E+00
   7134.00  1.0354469E+00
   7134.33  9.9500553E-01
   7134.67  9.4534482E-01
   7135.00  8.9000215E-01
   7135.33  8.3237677E-01
   7135.67  7.7555619E-01
   7136.00  7.2131824E-01
   7136.33  6.7163737E-01
   7136.67  6.2702002E-01
   7137.00  5.8809400E-01
   7137.33  5.5615652E-01
   7137.67  5.3071616E-01
   7138.00  5.1176550E-01
   7138.33  4.9963864E-01
   7138.67  4.9262505E-01
   7139.00  4.8952927E-01
   7139.33  4.8905950E-01
   7139.67  4.8953244E-01
   7140.00  4.9017092E-01
   7140.33  4.9061654E-01
   7140.67  4.9103067E-01
   7141.00  4.9173391E-01
   7141.33  4.9321809E-01
   7141.67  4.9570351E-01
   7142.00  4.9932899E-01
   7142.33  5.0425247E-01
   7142.67  5.1020779E-01
   7143.00  5.1700851E-01
   7143.33  5.2444743E-01
   7143.67  5.3214427E-01
   7144.00  5.3983372E-01
   7144.33  5.4719705E-01
   7144.67  5.5403721E-01
   7145.00  5.6020372E-01
   7145.33  5.6548543E-01
   7145.67  5.6993107E-01
   7146.00  5.7354001E-01
   7146.33  5.7625261E-01
   7146.67  5.7823883E-01
   7147.00  5.7956742E-01
   7147.33  5.8025571E-01
   7147.67  5.8046759E-01
   7148.00  5.8027506E-01
   7148.33  5.7971238E-01
   7148.67  5.7889256E-01
   7149.00  5.7787541E-01
   7149.33  5.7670722E-01
   7149.67  5.7546451E-01
   7150.00  5.7419987E-01
   7150.33  5.7298356E-01
   7150.67  5.7187998E-01
   7151.00  5.7095328E-01
   7151.33  5.7031425E-01
   7151.67  5.7001026E-01
   7152.00  5.7010728E-01
   7152.33  5.7073538E-01
   7152.67  5.7189482E-01
   7153.00  5.7362196E-01
   7153.33  5.7600878E-01
   7153.67  5.7896856E-01
   7154.00  5.8246012E-01
   7154.33  5.8645445E-01
   7154.67  5.9077195E-01
   7155.00  5.9527889E-01
   7155.33  5.9979361E-01
   7155.67  6.0411339E-01
   7156.00  6.0806270E-01
   7156.33  6.1138004E-01
   7156.67  6.1397095E-01
   7157.00  6.1572258E-01
   7157.33  6.1642570E-01
   7157.67  6.1614810E-01
   7158.00  6.1488266E-01
   7158.33  6.1253802E-01
   7158.67  6.0929651E-01
   7159.00  6.0523378E-01
   7159.33  6.0036781E-01
   7159.67  5.9490850E-01
   7160.00  5.8896555E-01
   7160.33  5.8262345E-01
   7160.67  5.7604717E-01
   7161.00  5.6933162E-01
   7161.33  5.6257282E-01
   7161.67  5.5586088E-01
   7162.00  5.4925638E-01
   7162.33  5.4283608E-01
   7162.67  5.3661972E-01
   7163.00  5.3062944E-01
   7163.33  5.2490620E-01
   7163.67  5.1941687E-01
   7164.00  5.1414712E-01
   7164.33  5.0909039E-01
   7164.67  5.0417997E-01
   7165.00  4.9937137E-01
   7165.33  4.9461382E-01
   7165.67  4.8984544E-01
   7166.00  4.8502207E-01
   7166.33  4.8008987E-01
   7166.67  4.7503401E-01
   7167.00  4.6984538E-01
   7167.33  4.6451594E-01
   7167.67  4.5908903E-01
   7168.00  4.5360295E-01
   7168.33  4.4811314E-01
   7168.67  4.4268084E-01
   7169.00  4.3735728E-01
   7169.33  4.3221691E-01
   7169.67  4.2728611E-01
   7170.00  4.2259938E-01
   7170.33  4.1822649E-01
   7170.67  4.1416448E-01
   7171.00  4.1044243E-01
   7171.33  4.0715474E-01
   7171.67  4.0433197E-01
   7172.00  4.0207306E-01
