    FDMNES
    energy     <xanes>
   7097.00  4.7997863E-03
   7097.33  4.9113309E-03
   7097.67  5.0279749E-03
   7098.00  5.1500759E-03
   7098.33  5.2788363E-03
   7098.67  5.4140348E-03
   7099.00  5.5561667E-03
   7099.33  5.7068267E-03
   7099.67  5.8658001E-03
   7100.00  6.0337946E-03
   7100.33  6.2129893E-03
   7100.67  6.4032115E-03
   7101.00  6.6055089E-03
   7101.33  6.8229683E-03
   7101.67  7.0555368E-03
   7102.00  7.3048334E-03
   7102.33  7.5754249E-03
   7102.67  7.8675539E-03
   7103.00  8.1838542E-03
   7103.33  8.5314552E-03
   7103.67  8.9113039E-03
   7104.00  9.3279687E-03
   7104.33  9.7933515E-03
   7104.67  1.0310127E-02
   7105.00  1.0886884E-02
   7105.33  1.1545280E-02
   7105.67  1.2292521E-02
   7106.00  1.3146538E-02
   7106.33  1.4151519E-02
   7106.67  1.5327937E-02
   7107.00  1.6718972E-02
   7107.33  1.8430223E-02
   7107.67  2.0528254E-02
   7108.00  2.3140553E-02
   7108.33  2.6585490E-02
   7108.67  3.1137850E-02
   7109.00  3.7311821E-02
   7109.33  4.6489963E-02
   7109.67  6.0362211E-02
   7110.00  8.2270012E-02
   7110.33  1.2194859E-01
   7110.67  1.8932463E-01
   7111.00  2.8187768E-01
   7111.33  3.4911306E-01
   7111.67  3.5585112E-01
   7112.00  3.0858210E-01
   7112.33  2.4190682E-01
   7112.67  1.8814937E-01
   7113.00  1.5139251E-01
   7113.33  1.2966931E-01
   7113.67  1.1775229E-01
   7114.00  1.1392681E-01
   7114.33  1.1910090E-01
   7114.67  1.3257657E-01
   7115.00  1.5049201E-01
   7115.33  1.5782875E-01
   7115.67  1.4892288E-01
   7116.00  1.3313421E-01
   7116.33  1.2052063E-01
   7116.67  1.1276717E-01
   7117.00  1.0935700E-01
   7117.33  1.1013679E-01
   7117.67  1.1449047E-01
   7118.00  1.2255485E-01
   7118.33  1.3479822E-01
   7118.67  1.4979454E-01
   7119.00  1.6550028E-01
   7119.33  1.7856107E-01
   7119.67  1.8723968E-01
   7120.00  1.9156807E-01
   7120.33  1.9303934E-01
   7120.67  1.9403247E-01
   7121.00  1.9569692E-01
   7121.33  1.9939683E-01
   7121.67  2.0628932E-01
   7122.00  2.1745230E-01
   7122.33  2.3411966E-01
   7122.67  2.5535987E-01
   7123.00  2.7996364E-01
   7123.33  3.0542437E-01
   7123.67  3.2844364E-01
   7124.00  3.4709236E-01
   7124.33  3.6095503E-01
   7124.67  3.7297534E-01
   7125.00  3.8575716E-01
   7125.33  4.0153513E-01
   7125.67  4.1987890E-01
   7126.00  4.3959015E-01
   7126.33  4.5931459E-01
   7126.67  4.7858265E-01
   7127.00  4.9722069E-01
   7127.33  5.1384379E-01
   7127.67  5.2707200E-01
   7128.00  5.3640947E-01
   7128.33  5.4197810E-01
   7128.67  5.4538318E-01
   7129.00  5.4791450E-01
   7129.33  5.5106860E-01
   7129.67  5.5571332E-01
   7130.00  5.6215569E-01
   7130.33  5.7054283E-01
   7130.67  5.8040083E-01
   7131.00  5.9153455E-01
   7131.33  6.0393590E-01
   7131.67  6.1723831E-01
   7132.00  6.3095724E-01
   7132.33  6.4391224E-01
   7132.67  6.5476023E-01
   7133.00  6.6258231E-01
   7133.33  6.6689866E-01
   7133.67  6.6892497E-01
   7134.00  6.6962589E-01
   7134.33  6.6998640E-01
   7134.67  6.7077936E-01
   7135.00  6.7232132E-01
   7135.33  6.7469231E-01
   7135.67  6.7745840E-01
   7136.00  6.8015938E-01
   7136.33  6.8210046E-01
   7136.67  6.8280839E-01
   7137.00  6.8196054E-01
   7137.33  6.7927799E-01
   7137.67  6.7526514E-01
   7138.00  6.7044342E-01
   7138.33  6.6559180E-01
   7138.67  6.6150813E-01
   7139.00  6.5875934E-01
   7139.33  6.5799875E-01
   7139.67  6.5915466E-01
   7140.00  6.6213198E-01
   7140.33  6.6677807E-01
   7140.67  6.7238793E-01
   7141.00  6.7844070E-01
   7141.33  6.8431770E-01
   7141.67  6.8953343E-01
   7142.00  6.9376418E-01
   7142.33  6.9660324E-01
   7142.67  6.9807441E-01
   7143.00  6.9815898E-01
   7143.33  6.9678050E-01
   7143.67  6.9428606E-01
   7144.00  6.9088108E-01
   7144.33  6.8672694E-01
   7144.67  6.8211267E-01
   7145.00  6.7716232E-01
   7145.33  6.7192000E-01
   7145.67  6.6642921E-01
   7146.00  6.6065910E-01
   7146.33  6.5450169E-01
   7146.67  6.4792306E-01
   7147.00  6.4086254E-01
   7147.33  6.3320895E-01
   7147.67  6.2502921E-01
   7148.00  6.1636736E-01
   7148.33  6.0726956E-01
   7148.67  5.9790679E-01
   7149.00  5.8837915E-01
   7149.33  5.7877861E-01
   7149.67  5.6919997E-01
   7150.00  5.5970589E-01
   7150.33  5.5036459E-01
   7150.67  5.4118855E-01
   7151.00  5.3219417E-01
   7151.33  5.2340791E-01
   7151.67  5.1480196E-01
   7152.00  5.0637466E-01
   7152.33  4.9815167E-01
   7152.67  4.9011994E-01
   7153.00  4.8229439E-01
   7153.33  4.7472912E-01
   7153.67  4.6742971E-01
   7154.00  4.6043467E-01
   7154.33  4.5384631E-01
   7154.67  4.4769135E-01
   7155.00  4.4204270E-01
   7155.33  4.3706760E-01
   7155.67  4.3278204E-01
   7156.00  4.2925166E-01
   7156.33  4.2662245E-01
   7156.67  4.2479221E-01
   7157.00  4.2371297E-01
   7157.33  4.2335132E-01
   7157.67  4.2346155E-01
   7158.00  4.2387625E-01
   7158.33  4.2440955E-01
   7158.67  4.2486963E-01
   7159.00  4.2513514E-01
   7159.33  4.2507815E-01
   7159.67  4.2470413E-01
   7160.00  4.2403468E-01
   7160.33  4.2310943E-01
   7160.67  4.2205099E-01
   7161.00  4.2094150E-01
   7161.33  4.1987141E-01
   7161.67  4.1890652E-01
   7162.00  4.1808508E-01
   7162.33  4.1744322E-01
   7162.67  4.1694967E-01
   7163.00  4.1657810E-01
   7163.33  4.1629759E-01
   7163.67  4.1605466E-01
   7164.00  4.1581651E-01
   7164.33  4.1555435E-01
   7164.67  4.1526150E-01
   7165.00  4.1494289E-01
   7165.33  4.1461504E-01
   7165.67  4.1430467E-01
   7166.00  4.1403588E-01
   7166.33  4.1384151E-01
   7166.67  4.1372813E-01
   7167.00  4.1369829E-01
   7167.33  4.1375250E-01
   7167.67  4.1386112E-01
   7168.00  4.1400245E-01
   7168.33  4.1414983E-01
   7168.67  4.1427101E-01
   7169.00  4.1434131E-01
   7169.33  4.1433178E-01
   7169.67  4.1424298E-01
   7170.00  4.1407754E-01
   7170.33  4.1384102E-01
   7170.67  4.1356416E-01
   7171.00  4.1327177E-01
   7171.33  4.1299650E-01
   7171.67  4.1276289E-01
   7172.00  4.1258372E-01
