    FDMNES
    energy     <xanes>
   7097.00  4.9698116E-03
   7097.33  5.0842710E-03
   7097.67  5.2037918E-03
   7098.00  5.3287098E-03
   7098.33  5.4601850E-03
   7098.67  5.5979686E-03
   7099.00  5.7425158E-03
   7099.33  5.8953357E-03
   7099.67  6.0561709E-03
   7100.00  6.2256551E-03
   7100.33  6.4058017E-03
   7100.67  6.5963659E-03
   7101.00  6.7982569E-03
   7101.33  7.0142432E-03
   7101.67  7.2441399E-03
   7102.00  7.4892995E-03
   7102.33  7.7536692E-03
   7102.67  8.0372290E-03
   7103.00  8.3420805E-03
   7103.33  8.6741065E-03
   7103.67  9.0336906E-03
   7104.00  9.4242783E-03
   7104.33  9.8551361E-03
   7104.67  1.0327620E-02
   7105.00  1.0847776E-02
   7105.33  1.1431275E-02
   7105.67  1.2081913E-02
   7106.00  1.2811285E-02
   7106.33  1.3648533E-02
   7106.67  1.4604141E-02
   7107.00  1.5703232E-02
   7107.33  1.7007779E-02
   7107.67  1.8549539E-02
   7108.00  2.0393732E-02
   7108.33  2.2702100E-02
   7108.67  2.5593114E-02
   7109.00  2.9293666E-02
   7109.33  3.4400369E-02
   7109.67  4.1565768E-02
   7110.00  5.2070265E-02
   7110.33  6.9485668E-02
   7110.67  9.6488429E-02
   7111.00  1.2973681E-01
   7111.33  1.6095464E-01
   7111.67  1.9912851E-01
   7112.00  2.4437367E-01
   7112.33  2.9737520E-01
   7112.67  3.4462647E-01
   7113.00  3.8040616E-01
   7113.33  4.1565026E-01
   7113.67  4.1511344E-01
   7114.00  3.4157949E-01
   7114.33  2.5158278E-01
   7114.67  1.9546753E-01
   7115.00  1.7299768E-01
   7115.33  1.7882529E-01
   7115.67  1.9777963E-01
   7116.00  2.1508067E-01
   7116.33  2.2089188E-01
   7116.67  2.1930915E-01
   7117.00  2.1105812E-01
   7117.33  1.9035830E-01
   7117.67  1.6564269E-01
   7118.00  1.4700024E-01
   7118.33  1.3978129E-01
   7118.67  1.4130620E-01
   7119.00  1.4930735E-01
   7119.33  1.6090853E-01
   7119.67  1.6978429E-01
   7120.00  1.7168326E-01
   7120.33  1.6678952E-01
   7120.67  1.6057583E-01
   7121.00  1.5607264E-01
   7121.33  1.5560425E-01
   7121.67  1.5893048E-01
   7122.00  1.6483340E-01
   7122.33  1.7121513E-01
   7122.67  1.7726558E-01
   7123.00  1.8495463E-01
   7123.33  1.9891689E-01
   7123.67  2.2142172E-01
   7124.00  2.5282204E-01
   7124.33  2.8987280E-01
   7124.67  3.2546703E-01
   7125.00  3.5571687E-01
   7125.33  3.7696515E-01
   7125.67  3.8993960E-01
   7126.00  3.9782709E-01
   7126.33  4.0608192E-01
   7126.67  4.1825812E-01
   7127.00  4.3541073E-01
   7127.33  4.5799699E-01
   7127.67  4.8470512E-01
   7128.00  5.1497655E-01
   7128.33  5.4877150E-01
   7128.67  5.8480250E-01
   7129.00  6.2087738E-01
   7129.33  6.5259834E-01
   7129.67  6.7875679E-01
   7130.00  7.0116290E-01
   7130.33  7.2179144E-01
   7130.67  7.3990491E-01
   7131.00  7.5278908E-01
   7131.33  7.5690018E-01
   7131.67  7.5365914E-01
   7132.00  7.4546560E-01
   7132.33  7.3472596E-01
   7132.67  7.2321941E-01
   7133.00  7.1172765E-01
   7133.33  7.0121157E-01
   7133.67  6.9214428E-01
   7134.00  6.8449451E-01
   7134.33  6.7799806E-01
   7134.67  6.7262061E-01
   7135.00  6.6915249E-01
   7135.33  6.6912867E-01
   7135.67  6.7255759E-01
   7136.00  6.7858743E-01
   7136.33  6.8482781E-01
   7136.67  6.8830586E-01
   7137.00  6.8741105E-01
   7137.33  6.8182661E-01
   7137.67  6.7383180E-01
   7138.00  6.6499791E-01
   7138.33  6.5645090E-01
   7138.67  6.4854903E-01
   7139.00  6.4139164E-01
   7139.33  6.3522481E-01
   7139.67  6.3019101E-01
   7140.00  6.2657485E-01
   7140.33  6.2493050E-01
   7140.67  6.2530992E-01
   7141.00  6.2786163E-01
   7141.33  6.3291314E-01
   7141.67  6.4006491E-01
   7142.00  6.4902663E-01
   7142.33  6.5931731E-01
   7142.67  6.6978738E-01
   7143.00  6.7926957E-01
   7143.33  6.8580761E-01
   7143.67  6.8808137E-01
   7144.00  6.8500661E-01
   7144.33  6.7540548E-01
   7144.67  6.6061045E-01
   7145.00  6.4184117E-01
   7145.33  6.2060529E-01
   7145.67  5.9887545E-01
   7146.00  5.7781053E-01
   7146.33  5.5854098E-01
   7146.67  5.4140593E-01
   7147.00  5.2663339E-01
   7147.33  5.1460703E-01
   7147.67  5.0496411E-01
   7148.00  4.9758436E-01
   7148.33  4.9254106E-01
   7148.67  4.8936486E-01
   7149.00  4.8785796E-01
   7149.33  4.8795533E-01
   7149.67  4.8924481E-01
   7150.00  4.9153825E-01
   7150.33  4.9472636E-01
   7150.67  4.9850727E-01
   7151.00  5.0270889E-01
   7151.33  5.0715816E-01
   7151.67  5.1162770E-01
   7152.00  5.1595669E-01
   7152.33  5.1994668E-01
   7152.67  5.2350964E-01
   7153.00  5.2656980E-01
   7153.33  5.2900932E-01
   7153.67  5.3088884E-01
   7154.00  5.3222975E-01
   7154.33  5.3302236E-01
   7154.67  5.3339827E-01
   7155.00  5.3342711E-01
   7155.33  5.3316112E-01
   7155.67  5.3271539E-01
   7156.00  5.3215432E-01
   7156.33  5.3153919E-01
   7156.67  5.3093629E-01
   7157.00  5.3039230E-01
   7157.33  5.2996878E-01
   7157.67  5.2969116E-01
   7158.00  5.2958156E-01
   7158.33  5.2966908E-01
   7158.67  5.2991387E-01
   7159.00  5.3027830E-01
   7159.33  5.3069939E-01
   7159.67  5.3107819E-01
   7160.00  5.3132222E-01
   7160.33  5.3128656E-01
   7160.67  5.3089349E-01
   7161.00  5.3006127E-01
   7161.33  5.2864821E-01
   7161.67  5.2666641E-01
   7162.00  5.2409707E-01
   7162.33  5.2087689E-01
   7162.67  5.1711406E-01
   7163.00  5.1285808E-01
   7163.33  5.0812920E-01
   7163.67  5.0306139E-01
   7164.00  4.9772793E-01
   7164.33  4.9219186E-01
   7164.67  4.8655834E-01
   7165.00  4.8089458E-01
   7165.33  4.7527902E-01
   7165.67  4.6977326E-01
   7166.00  4.6442912E-01
   7166.33  4.5932650E-01
   7166.67  4.5448429E-01
   7167.00  4.4993610E-01
   7167.33  4.4575399E-01
   7167.67  4.4191947E-01
   7168.00  4.3844468E-01
   7168.33  4.3538246E-01
   7168.67  4.3269116E-01
   7169.00  4.3037281E-01
   7169.33  4.2846182E-01
   7169.67  4.2689149E-01
   7170.00  4.2563945E-01
   7170.33  4.2471068E-01
   7170.67  4.2403265E-01
   7171.00  4.2356897E-01
   7171.33  4.2329093E-01
   7171.67  4.2311937E-01
   7172.00  4.2299711E-01
