    FDMNES
    energy     <xanes>
   7097.00  4.9727773E-03
   7097.33  5.0866912E-03
   7097.67  5.2056488E-03
   7098.00  5.3299856E-03
   7098.33  5.4608591E-03
   7098.67  5.5980228E-03
   7099.00  5.7419320E-03
   7099.33  5.8940937E-03
   7099.67  6.0542534E-03
   7100.00  6.2230453E-03
   7100.33  6.4024819E-03
   7100.67  6.5923221E-03
   7101.00  6.7934769E-03
   7101.33  7.0087164E-03
   7101.67  7.2378609E-03
   7102.00  7.4822672E-03
   7102.33  7.7458899E-03
   7102.67  8.0287172E-03
   7103.00  8.3328606E-03
   7103.33  8.6642226E-03
   7103.67  9.0232019E-03
   7104.00  9.4132661E-03
   7104.33  9.8437300E-03
   7104.67  1.0315980E-02
   7105.00  1.0836114E-02
   7105.33  1.1419916E-02
   7105.67  1.2071252E-02
   7106.00  1.2801835E-02
   7106.33  1.3641074E-02
   7106.67  1.4599604E-02
   7107.00  1.5702808E-02
   7107.33  1.7013211E-02
   7107.67  1.8562755E-02
   7108.00  2.0416885E-02
   7108.33  2.2737297E-02
   7108.67  2.5640124E-02
   7109.00  2.9346471E-02
   7109.33  3.4429861E-02
   7109.67  4.1488450E-02
   7110.00  5.1683347E-02
   7110.33  6.8330749E-02
   7110.67  9.5387431E-02
   7111.00  1.3670808E-01
   7111.33  1.9085294E-01
   7111.67  2.4350703E-01
   7112.00  2.7080996E-01
   7112.33  2.6853141E-01
   7112.67  2.8556425E-01
   7113.00  3.3370540E-01
   7113.33  3.7002037E-01
   7113.67  3.4813806E-01
   7114.00  2.7901040E-01
   7114.33  2.1793738E-01
   7114.67  1.8887908E-01
   7115.00  1.9096025E-01
   7115.33  2.2601930E-01
   7115.67  2.8411176E-01
   7116.00  3.3772133E-01
   7116.33  3.3189681E-01
   7116.67  2.8179721E-01
   7117.00  2.2778146E-01
   7117.33  1.9010205E-01
   7117.67  1.6466695E-01
   7118.00  1.4909645E-01
   7118.33  1.4279539E-01
   7118.67  1.4269912E-01
   7119.00  1.4780075E-01
   7119.33  1.5587418E-01
   7119.67  1.6270931E-01
   7120.00  1.6610892E-01
   7120.33  1.6520083E-01
   7120.67  1.6286667E-01
   7121.00  1.5992905E-01
   7121.33  1.5566732E-01
   7121.67  1.5185315E-01
   7122.00  1.5035002E-01
   7122.33  1.5287219E-01
   7122.67  1.5898512E-01
   7123.00  1.6814883E-01
   7123.33  1.7988921E-01
   7123.67  1.9326905E-01
   7124.00  2.0825592E-01
   7124.33  2.2580622E-01
   7124.67  2.4608044E-01
   7125.00  2.6864048E-01
   7125.33  2.9273715E-01
   7125.67  3.1765631E-01
   7126.00  3.4285541E-01
   7126.33  3.6687637E-01
   7126.67  3.8813790E-01
   7127.00  4.0551753E-01
   7127.33  4.1848318E-01
   7127.67  4.2940607E-01
   7128.00  4.4109798E-01
   7128.33  4.5720782E-01
   7128.67  4.7895284E-01
   7129.00  5.0648566E-01
   7129.33  5.3972689E-01
   7129.67  5.7701600E-01
   7130.00  6.1723695E-01
   7130.33  6.5869790E-01
   7130.67  6.9909634E-01
   7131.00  7.3688426E-01
   7131.33  7.7066795E-01
   7131.67  8.0043216E-01
   7132.00  8.2564505E-01
   7132.33  8.4510572E-01
   7132.67  8.5952682E-01
   7133.00  8.6928431E-01
   7133.33  8.7382198E-01
   7133.67  8.7323796E-01
   7134.00  8.6718459E-01
   7134.33  8.5508310E-01
   7134.67  8.3827364E-01
   7135.00  8.1755879E-01
   7135.33  7.9342507E-01
   7135.67  7.6696634E-01
   7136.00  7.3881486E-01
   7136.33  7.0984294E-01
   7136.67  6.8132329E-01
   7137.00  6.5424943E-01
   7137.33  6.2981298E-01
   7137.67  6.0833211E-01
   7138.00  5.9020539E-01
   7138.33  5.7623593E-01
   7138.67  5.6604122E-01
   7139.00  5.5936582E-01
   7139.33  5.5591214E-01
   7139.67  5.5450016E-01
   7140.00  5.5449703E-01
   7140.33  5.5549858E-01
   7140.67  5.5711085E-01
   7141.00  5.5920840E-01
   7141.33  5.6172977E-01
   7141.67  5.6448957E-01
   7142.00  5.6731897E-01
   7142.33  5.6993923E-01
   7142.67  5.7208033E-01
   7143.00  5.7349444E-01
   7143.33  5.7380327E-01
   7143.67  5.7290329E-01
   7144.00  5.7064293E-01
   7144.33  5.6676492E-01
   7144.67  5.6149293E-01
   7145.00  5.5496200E-01
   7145.33  5.4731666E-01
   7145.67  5.3905698E-01
   7146.00  5.3057234E-01
   7146.33  5.2239209E-01
   7146.67  5.1497802E-01
   7147.00  5.0871654E-01
   7147.33  5.0415587E-01
   7147.67  5.0133755E-01
   7148.00  5.0034844E-01
   7148.33  5.0135326E-01
   7148.67  5.0391701E-01
   7149.00  5.0778682E-01
   7149.33  5.1275837E-01
   7149.67  5.1838179E-01
   7150.00  5.2439488E-01
   7150.33  5.3054049E-01
   7150.67  5.3657233E-01
   7151.00  5.4233001E-01
   7151.33  5.4762094E-01
   7151.67  5.5239936E-01
   7152.00  5.5662143E-01
   7152.33  5.6021650E-01
   7152.67  5.6329798E-01
   7153.00  5.6593360E-01
   7153.33  5.6818734E-01
   7153.67  5.7022447E-01
   7154.00  5.7215084E-01
   7154.33  5.7407373E-01
   7154.67  5.7606790E-01
   7155.00  5.7816077E-01
   7155.33  5.8034793E-01
   7155.67  5.8255648E-01
   7156.00  5.8470222E-01
   7156.33  5.8664267E-01
   7156.67  5.8827458E-01
   7157.00  5.8949743E-01
   7157.33  5.9015257E-01
   7157.67  5.9023920E-01
   7158.00  5.8973051E-01
   7158.33  5.8855370E-01
   7158.67  5.8681790E-01
   7159.00  5.8457504E-01
   7159.33  5.8184826E-01
   7159.67  5.7877451E-01
   7160.00  5.7542147E-01
   7160.33  5.7183061E-01
   7160.67  5.6808246E-01
   7161.00  5.6421182E-01
   7161.33  5.6023590E-01
   7161.67  5.5618563E-01
   7162.00  5.5207382E-01
   7162.33  5.4790887E-01
   7162.67  5.4371057E-01
   7163.00  5.3948949E-01
   7163.33  5.3525232E-01
   7163.67  5.3100708E-01
   7164.00  5.2675861E-01
   7164.33  5.2251222E-01
   7164.67  5.1827593E-01
   7165.00  5.1406271E-01
   7165.33  5.0990024E-01
   7165.67  5.0581037E-01
   7166.00  5.0181946E-01
   7166.33  4.9797358E-01
   7166.67  4.9427975E-01
   7167.00  4.9074828E-01
   7167.33  4.8739874E-01
   7167.67  4.8419756E-01
   7168.00  4.8112566E-01
   7168.33  4.7816813E-01
   7168.67  4.7527773E-01
   7169.00  4.7242322E-01
   7169.33  4.6957706E-01
   7169.67  4.6672139E-01
   7170.00  4.6384998E-01
   7170.33  4.6096802E-01
   7170.67  4.5810389E-01
   7171.00  4.5529904E-01
   7171.33  4.5264810E-01
   7171.67  4.5026308E-01
   7172.00  4.4830227E-01
