    FDMNES
    energy     <xanes>
   7097.00  4.9347014E-03
   7097.33  5.0451663E-03
   7097.67  5.1603050E-03
   7098.00  5.2804139E-03
   7098.33  5.4065420E-03
   7098.67  5.5384417E-03
   7099.00  5.6765116E-03
   7099.33  5.8221024E-03
   7099.67  5.9749547E-03
   7100.00  6.1356187E-03
   7100.33  6.3058781E-03
   7100.67  6.4854787E-03
   7101.00  6.6752040E-03
   7101.33  6.8774827E-03
   7101.67  7.0921051E-03
   7102.00  7.3202297E-03
   7102.33  7.5652885E-03
   7102.67  7.8272058E-03
   7103.00  8.1077749E-03
   7103.33  8.4120748E-03
   7103.67  8.7403702E-03
   7104.00  9.0956003E-03
   7104.33  9.4857338E-03
   7104.67  9.9118771E-03
   7105.00  1.0379209E-02
   7105.33  1.0901220E-02
   7105.67  1.1481173E-02
   7106.00  1.2129103E-02
   7106.33  1.2870296E-02
   7106.67  1.3714053E-02
   7107.00  1.4682502E-02
   7107.33  1.5830298E-02
   7107.67  1.7186330E-02
   7108.00  1.8809375E-02
   7108.33  2.0845321E-02
   7108.67  2.3403634E-02
   7109.00  2.6692271E-02
   7109.33  3.1256277E-02
   7109.67  3.7690678E-02
   7110.00  4.7157208E-02
   7110.33  6.3002921E-02
   7110.67  8.9169518E-02
   7111.00  1.2892126E-01
   7111.33  1.7747877E-01
   7111.67  2.1174394E-01
   7112.00  2.1818704E-01
   7112.33  2.1144893E-01
   7112.67  2.0912109E-01
   7113.00  2.1695556E-01
   7113.33  2.2167380E-01
   7113.67  2.0935190E-01
   7114.00  1.8385838E-01
   7114.33  1.6606039E-01
   7114.67  1.6624225E-01
   7115.00  1.8428700E-01
   7115.33  2.1145300E-01
   7115.67  2.2502791E-01
   7116.00  2.1421455E-01
   7116.33  1.9048800E-01
   7116.67  1.7146707E-01
   7117.00  1.6241121E-01
   7117.33  1.6588007E-01
   7117.67  1.8063840E-01
   7118.00  2.0619736E-01
   7118.33  2.3958908E-01
   7118.67  2.7085820E-01
   7119.00  2.9214217E-01
   7119.33  3.0183436E-01
   7119.67  3.0854600E-01
   7120.00  3.1679022E-01
   7120.33  3.2599200E-01
   7120.67  3.3301208E-01
   7121.00  3.3691075E-01
   7121.33  3.3830063E-01
   7121.67  3.3861505E-01
   7122.00  3.3830935E-01
   7122.33  3.3750129E-01
   7122.67  3.3645092E-01
   7123.00  3.3565990E-01
   7123.33  3.3656451E-01
   7123.67  3.4031429E-01
   7124.00  3.4751342E-01
   7124.33  3.5869713E-01
   7124.67  3.7327102E-01
   7125.00  3.9100150E-01
   7125.33  4.1168595E-01
   7125.67  4.3426068E-01
   7126.00  4.5774079E-01
   7126.33  4.8023635E-01
   7126.67  5.0056699E-01
   7127.00  5.1904688E-01
   7127.33  5.3731415E-01
   7127.67  5.5728033E-01
   7128.00  5.7996660E-01
   7128.33  6.0527007E-01
   7128.67  6.3056868E-01
   7129.00  6.5376389E-01
   7129.33  6.7422087E-01
   7129.67  6.9329232E-01
   7130.00  7.1103160E-01
   7130.33  7.2567820E-01
   7130.67  7.3574748E-01
   7131.00  7.4024897E-01
   7131.33  7.3850228E-01
   7131.67  7.3250205E-01
   7132.00  7.2418591E-01
   7132.33  7.1639687E-01
   7132.67  7.1147287E-01
   7133.00  7.0981382E-01
   7133.33  7.0953436E-01
   7133.67  7.0791635E-01
   7134.00  7.0404096E-01
   7134.33  6.9798443E-01
   7134.67  6.9089057E-01
   7135.00  6.8356403E-01
   7135.33  6.7685577E-01
   7135.67  6.7122244E-01
   7136.00  6.6686281E-01
   7136.33  6.6382973E-01
   7136.67  6.6154034E-01
   7137.00  6.5941210E-01
   7137.33  6.5660303E-01
   7137.67  6.5252974E-01
   7138.00  6.4684974E-01
   7138.33  6.3929801E-01
   7138.67  6.3036496E-01
   7139.00  6.2046815E-01
   7139.33  6.1008990E-01
   7139.67  5.9973360E-01
   7140.00  5.8965854E-01
   7140.33  5.8007346E-01
   7140.67  5.7095865E-01
   7141.00  5.6228460E-01
   7141.33  5.5402886E-01
   7141.67  5.4606652E-01
   7142.00  5.3833708E-01
   7142.33  5.3080770E-01
   7142.67  5.2343216E-01
   7143.00  5.1622298E-01
   7143.33  5.0925834E-01
   7143.67  5.0259169E-01
   7144.00  4.9630061E-01
   7144.33  4.9051774E-01
   7144.67  4.8522778E-01
   7145.00  4.8043244E-01
   7145.33  4.7616076E-01
   7145.67  4.7230471E-01
   7146.00  4.6881291E-01
   7146.33  4.6566004E-01
   7146.67  4.6274674E-01
   7147.00  4.6002240E-01
   7147.33  4.5744636E-01
   7147.67  4.5494606E-01
   7148.00  4.5247446E-01
   7148.33  4.4997817E-01
   7148.67  4.4741902E-01
   7149.00  4.4477369E-01
   7149.33  4.4201953E-01
   7149.67  4.3917558E-01
   7150.00  4.3625775E-01
   7150.33  4.3328141E-01
   7150.67  4.3027240E-01
   7151.00  4.2724147E-01
   7151.33  4.2418959E-01
   7151.67  4.2111470E-01
   7152.00  4.1801042E-01
   7152.33  4.1486508E-01
   7152.67  4.1167979E-01
   7153.00  4.0845761E-01
   7153.33  4.0520697E-01
   7153.67  4.0195066E-01
   7154.00  3.9871105E-01
   7154.33  3.9552526E-01
   7154.67  3.9242129E-01
   7155.00  3.8942504E-01
   7155.33  3.8658055E-01
   7155.67  3.8390582E-01
   7156.00  3.8143464E-01
   7156.33  3.7923416E-01
   7156.67  3.7730635E-01
   7157.00  3.7567420E-01
   7157.33  3.7439857E-01
   7157.67  3.7345419E-01
   7158.00  3.7284538E-01
   7158.33  3.7260786E-01
   7158.67  3.7269163E-01
   7159.00  3.7309099E-01
   7159.33  3.7383783E-01
   7159.67  3.7488307E-01
   7160.00  3.7621695E-01
   7160.33  3.7786280E-01
   7160.67  3.7977263E-01
   7161.00  3.8193193E-01
   7161.33  3.8435146E-01
   7161.67  3.8698432E-01
   7162.00  3.8981686E-01
   7162.33  3.9285682E-01
   7162.67  3.9606329E-01
   7163.00  3.9941941E-01
   7163.33  4.0291963E-01
   7163.67  4.0652345E-01
   7164.00  4.1020726E-01
   7164.33  4.1394730E-01
   7164.67  4.1770508E-01
   7165.00  4.2145164E-01
   7165.33  4.2514782E-01
   7165.67  4.2876762E-01
   7166.00  4.3228662E-01
   7166.33  4.3566523E-01
   7166.67  4.3890004E-01
   7167.00  4.4197848E-01
   7167.33  4.4486980E-01
   7167.67  4.4758942E-01
   7168.00  4.5013613E-01
   7168.33  4.5249134E-01
   7168.67  4.5468277E-01
   7169.00  4.5671833E-01
   7169.33  4.5859122E-01
   7169.67  4.6033177E-01
   7170.00  4.6195063E-01
   7170.33  4.6344592E-01
   7170.67  4.6484054E-01
   7171.00  4.6613732E-01
   7171.33  4.6731474E-01
   7171.67  4.6835512E-01
   7172.00  4.6920944E-01
