    FDMNES
    energy     <xanes>
   7097.00  4.2638185E-03
   7097.33  4.3480032E-03
   7097.67  4.4352129E-03
   7098.00  4.5256107E-03
   7098.33  4.6198270E-03
   7098.67  4.7176636E-03
   7099.00  4.8193315E-03
   7099.33  4.9256128E-03
   7099.67  5.0362921E-03
   7100.00  5.1516498E-03
   7100.33  5.2726768E-03
   7100.67  5.3991458E-03
   7101.00  5.5314399E-03
   7101.33  5.6708491E-03
   7101.67  5.8171467E-03
   7102.00  5.9708767E-03
   7102.33  6.1337763E-03
   7102.67  6.3056515E-03
   7103.00  6.4873111E-03
   7103.33  6.6812013E-03
   7103.67  6.8872382E-03
   7104.00  7.1066983E-03
   7104.33  7.3432363E-03
   7104.67  7.5970726E-03
   7105.00  7.8703876E-03
   7105.33  8.1691000E-03
   7105.67  8.4942613E-03
   7106.00  8.8500121E-03
   7106.33  9.2470833E-03
   7106.67  9.6889655E-03
   7107.00  1.0184766E-02
   7107.33  1.0757373E-02
   7107.67  1.1418594E-02
   7108.00  1.2193178E-02
   7108.33  1.3143390E-02
   7108.67  1.4317500E-02
   7109.00  1.5808363E-02
   7109.33  1.7864192E-02
   7109.67  2.0772938E-02
   7110.00  2.5104977E-02
   7110.33  3.2514097E-02
   7110.67  4.4706642E-02
   7111.00  6.1582041E-02
   7111.33  7.5380829E-02
   7111.67  7.9606910E-02
   7112.00  7.8476025E-02
   7112.33  7.7899975E-02
   7112.67  7.6434981E-02
   7113.00  7.2083308E-02
   7113.33  6.5377250E-02
   7113.67  6.0083265E-02
   7114.00  5.7405968E-02
   7114.33  5.7315903E-02
   7114.67  5.9016046E-02
   7115.00  6.2258895E-02
   7115.33  6.7130040E-02
   7115.67  7.3496486E-02
   7116.00  8.1492282E-02
   7116.33  9.1624809E-02
   7116.67  1.0403913E-01
   7117.00  1.1917053E-01
   7117.33  1.3811381E-01
   7117.67  1.6126847E-01
   7118.00  1.8931531E-01
   7118.33  2.2312300E-01
   7118.67  2.6076696E-01
   7119.00  2.9955557E-01
   7119.33  3.3477405E-01
   7119.67  3.6289910E-01
   7120.00  3.8275123E-01
   7120.33  3.9546844E-01
   7120.67  4.0507929E-01
   7121.00  4.1280554E-01
   7121.33  4.1670803E-01
   7121.67  4.1504491E-01
   7122.00  4.0840254E-01
   7122.33  4.0061616E-01
   7122.67  3.9601348E-01
   7123.00  3.9602742E-01
   7123.33  4.0018846E-01
   7123.67  4.0633327E-01
   7124.00  4.1379446E-01
   7124.33  4.2307770E-01
   7124.67  4.3456746E-01
   7125.00  4.4833501E-01
   7125.33  4.6411837E-01
   7125.67  4.8111790E-01
   7126.00  4.9910516E-01
   7126.33  5.1817153E-01
   7126.67  5.3800255E-01
   7127.00  5.5791346E-01
   7127.33  5.7605119E-01
   7127.67  5.9056740E-01
   7128.00  6.0034195E-01
   7128.33  6.0480586E-01
   7128.67  6.0567274E-01
   7129.00  6.0436098E-01
   7129.33  6.0243551E-01
   7129.67  6.0091037E-01
   7130.00  5.9980316E-01
   7130.33  5.9866550E-01
   7130.67  5.9721095E-01
   7131.00  5.9554376E-01
   7131.33  5.9417714E-01
   7131.67  5.9373193E-01
   7132.00  5.9466290E-01
   7132.33  5.9713911E-01
   7132.67  5.9998033E-01
   7133.00  6.0154145E-01
   7133.33  5.9964303E-01
   7133.67  5.9417156E-01
   7134.00  5.8568648E-01
   7134.33  5.7486613E-01
   7134.67  5.6268347E-01
   7135.00  5.4952860E-01
   7135.33  5.3564310E-01
   7135.67  5.2139609E-01
   7136.00  5.0704571E-01
   7136.33  4.9293566E-01
   7136.67  4.7935810E-01
   7137.00  4.6657224E-01
   7137.33  4.5497663E-01
   7137.67  4.4464467E-01
   7138.00  4.3568596E-01
   7138.33  4.2834361E-01
   7138.67  4.2246264E-01
   7139.00  4.1804438E-01
   7139.33  4.1525450E-01
   7139.67  4.1388392E-01
   7140.00  4.1389939E-01
   7140.33  4.1541590E-01
   7140.67  4.1819747E-01
   7141.00  4.2216925E-01
   7141.33  4.2736193E-01
   7141.67  4.3352106E-01
   7142.00  4.4054052E-01
   7142.33  4.4838835E-01
   7142.67  4.5685288E-01
   7143.00  4.6583779E-01
   7143.33  4.7528825E-01
   7143.67  4.8505597E-01
   7144.00  4.9507044E-01
   7144.33  5.0529289E-01
   7144.67  5.1566470E-01
   7145.00  5.2617337E-01
   7145.33  5.3683725E-01
   7145.67  5.4765139E-01
   7146.00  5.5862890E-01
   7146.33  5.6980024E-01
   7146.67  5.8113192E-01
   7147.00  5.9258442E-01
   7147.33  6.0406801E-01
   7147.67  6.1542532E-01
   7148.00  6.2647631E-01
   7148.33  6.3690335E-01
   7148.67  6.4651795E-01
   7149.00  6.5512235E-01
   7149.33  6.6240168E-01
   7149.67  6.6842262E-01
   7150.00  6.7317930E-01
   7150.33  6.7656347E-01
   7150.67  6.7880228E-01
   7151.00  6.7996689E-01
   7151.33  6.8000724E-01
   7151.67  6.7910685E-01
   7152.00  6.7730850E-01
   7152.33  6.7455614E-01
   7152.67  6.7101386E-01
   7153.00  6.6674325E-01
   7153.33  6.6175300E-01
   7153.67  6.5623012E-01
   7154.00  6.5027856E-01
   7154.33  6.4398971E-01
   7154.67  6.3753071E-01
   7155.00  6.3100879E-01
   7155.33  6.2454835E-01
   7155.67  6.1824817E-01
   7156.00  6.1218381E-01
   7156.33  6.0646365E-01
   7156.67  6.0110269E-01
   7157.00  5.9613353E-01
   7157.33  5.9163002E-01
   7157.67  5.8754758E-01
   7158.00  5.8388166E-01
   7158.33  5.8066287E-01
   7158.67  5.7780770E-01
   7159.00  5.7527625E-01
   7159.33  5.7304267E-01
   7159.67  5.7100177E-01
   7160.00  5.6908041E-01
   7160.33  5.6718868E-01
   7160.67  5.6522845E-01
   7161.00  5.6311842E-01
   7161.33  5.6073737E-01
   7161.67  5.5803656E-01
   7162.00  5.5496220E-01
   7162.33  5.5141839E-01
   7162.67  5.4743420E-01
   7163.00  5.4300473E-01
   7163.33  5.3808507E-01
   7163.67  5.3275340E-01
   7164.00  5.2703881E-01
   7164.33  5.2093888E-01
   7164.67  5.1454091E-01
   7165.00  5.0788489E-01
   7165.33  5.0099266E-01
   7165.67  4.9394015E-01
   7166.00  4.8677120E-01
   7166.33  4.7952897E-01
   7166.67  4.7227188E-01
   7167.00  4.6504080E-01
   7167.33  4.5788935E-01
   7167.67  4.5085150E-01
   7168.00  4.4396257E-01
   7168.33  4.3728478E-01
   7168.67  4.3083134E-01
   7169.00  4.2463173E-01
   7169.33  4.1875193E-01
   7169.67  4.1318373E-01
   7170.00  4.0794913E-01
   7170.33  4.0311739E-01
   7170.67  3.9866929E-01
   7171.00  3.9463057E-01
   7171.33  3.9109997E-01
   7171.67  3.8809249E-01
   7172.00  3.8569588E-01
