    FDMNES
    energy     <xanes>
   7097.00  5.3244756E-03
   7097.33  5.4566351E-03
   7097.67  5.5950579E-03
   7098.00  5.7401795E-03
   7098.33  5.8934686E-03
   7098.67  6.0546433E-03
   7099.00  6.2242983E-03
   7099.33  6.4043626E-03
   7099.67  6.5945484E-03
   7100.00  6.7956886E-03
   7100.33  7.0103809E-03
   7100.67  7.2383597E-03
   7101.00  7.4808265E-03
   7101.33  7.7413823E-03
   7101.67  8.0198469E-03
   7102.00  8.3180133E-03
   7102.33  8.6410494E-03
   7102.67  8.9889971E-03
   7103.00  9.3646438E-03
   7103.33  9.7757221E-03
   7103.67  1.0222800E-02
   7104.00  1.0710432E-02
   7104.33  1.1250796E-02
   7104.67  1.1845694E-02
   7105.00  1.2503039E-02
   7105.33  1.3243286E-02
   7105.67  1.4071235E-02
   7106.00  1.5001766E-02
   7106.33  1.6072236E-02
   7106.67  1.7295295E-02
   7107.00  1.8702032E-02
   7107.33  2.0368930E-02
   7107.67  2.2331891E-02
   7108.00  2.4666348E-02
   7108.33  2.7557320E-02
   7108.67  3.1124860E-02
   7109.00  3.5599904E-02
   7109.33  4.1568989E-02
   7109.67  4.9579765E-02
   7110.00  6.0681630E-02
   7110.33  7.7750584E-02
   7110.67  1.0373201E-01
   7111.00  1.4113411E-01
   7111.33  1.9373922E-01
   7111.67  2.7035283E-01
   7112.00  3.7715463E-01
   7112.33  4.9084644E-01
   7112.67  5.7770173E-01
   7113.00  6.3192692E-01
   7113.33  6.2458131E-01
   7113.67  5.5569279E-01
   7114.00  4.6025422E-01
   7114.33  3.7459274E-01
   7114.67  3.0961217E-01
   7115.00  2.6589782E-01
   7115.33  2.4193212E-01
   7115.67  2.3115951E-01
   7116.00  2.2840763E-01
   7116.33  2.2446683E-01
   7116.67  2.1404097E-01
   7117.00  1.9912367E-01
   7117.33  1.8323392E-01
   7117.67  1.6844872E-01
   7118.00  1.5591018E-01
   7118.33  1.4651931E-01
   7118.67  1.3952226E-01
   7119.00  1.3425696E-01
   7119.33  1.3015305E-01
   7119.67  1.2664018E-01
   7120.00  1.2352604E-01
   7120.33  1.2073608E-01
   7120.67  1.1849935E-01
   7121.00  1.1739132E-01
   7121.33  1.1794014E-01
   7121.67  1.1973669E-01
   7122.00  1.2247631E-01
   7122.33  1.2605462E-01
   7122.67  1.3037049E-01
   7123.00  1.3552352E-01
   7123.33  1.4184533E-01
   7123.67  1.4947339E-01
   7124.00  1.5866105E-01
   7124.33  1.6988126E-01
   7124.67  1.8297661E-01
   7125.00  1.9783124E-01
   7125.33  2.1454875E-01
   7125.67  2.3313570E-01
   7126.00  2.5392154E-01
   7126.33  2.7721633E-01
   7126.67  3.0205829E-01
   7127.00  3.2755895E-01
   7127.33  3.5293316E-01
   7127.67  3.7796959E-01
   7128.00  4.0310119E-01
   7128.33  4.2994800E-01
   7128.67  4.6032910E-01
   7129.00  4.9588302E-01
   7129.33  5.3841231E-01
   7129.67  5.8631871E-01
   7130.00  6.3725690E-01
   7130.33  6.8761417E-01
   7130.67  7.3473120E-01
   7131.00  7.7776124E-01
   7131.33  8.1682266E-01
   7131.67  8.5365811E-01
   7132.00  8.8931475E-01
   7132.33  9.2449750E-01
   7132.67  9.5926810E-01
   7133.00  9.9265316E-01
   7133.33  1.0211582E+00
   7133.67  1.0403203E+00
   7134.00  1.0453058E+00
   7134.33  1.0301349E+00
   7134.67  9.9717375E-01
   7135.00  9.4956873E-01
   7135.33  8.9174004E-01
   7135.67  8.3039487E-01
   7136.00  7.6932645E-01
   7136.33  7.1197940E-01
   7136.67  6.5976820E-01
   7137.00  6.1361483E-01
   7137.33  5.7495621E-01
   7137.67  5.4320701E-01
   7138.00  5.1832242E-01
   7138.33  5.0072501E-01
   7138.67  4.8884011E-01
   7139.00  4.8175529E-01
   7139.33  4.7870778E-01
   7139.67  4.7809883E-01
   7140.00  4.7914473E-01
   7140.33  4.8138922E-01
   7140.67  4.8443655E-01
   7141.00  4.8824733E-01
   7141.33  4.9297871E-01
   7141.67  4.9859153E-01
   7142.00  5.0509689E-01
   7142.33  5.1254261E-01
   7142.67  5.2070117E-01
   7143.00  5.2943138E-01
   7143.33  5.3859910E-01
   7143.67  5.4796985E-01
   7144.00  5.5738793E-01
   7144.33  5.6666087E-01
   7144.67  5.7562930E-01
   7145.00  5.8413944E-01
   7145.33  5.9192671E-01
   7145.67  5.9888440E-01
   7146.00  6.0485913E-01
   7146.33  6.0956011E-01
   7146.67  6.1301734E-01
   7147.00  6.1516575E-01
   7147.33  6.1580593E-01
   7147.67  6.1512738E-01
   7148.00  6.1319338E-01
   7148.33  6.0998489E-01
   7148.67  6.0581049E-01
   7149.00  6.0083857E-01
   7149.33  5.9521055E-01
   7149.67  5.8922999E-01
   7150.00  5.8309157E-01
   7150.33  5.7700732E-01
   7150.67  5.7115507E-01
   7151.00  5.6567378E-01
   7151.33  5.6076484E-01
   7151.67  5.5647610E-01
   7152.00  5.5288268E-01
   7152.33  5.5014325E-01
   7152.67  5.4820187E-01
   7153.00  5.4707202E-01
   7153.33  5.4684574E-01
   7153.67  5.4738858E-01
   7154.00  5.4865057E-01
   7154.33  5.5062889E-01
   7154.67  5.5313927E-01
   7155.00  5.5607854E-01
   7155.33  5.5935396E-01
   7155.67  5.6279366E-01
   7156.00  5.6628399E-01
   7156.33  5.6969117E-01
   7156.67  5.7291275E-01
   7157.00  5.7586513E-01
   7157.33  5.7842240E-01
   7157.67  5.8056260E-01
   7158.00  5.8224093E-01
   7158.33  5.8335395E-01
   7158.67  5.8393389E-01
   7159.00  5.8396135E-01
   7159.33  5.8334999E-01
   7159.67  5.8216306E-01
   7160.00  5.8040043E-01
   7160.33  5.7799895E-01
   7160.67  5.7504471E-01
   7161.00  5.7155646E-01
   7161.33  5.6750860E-01
   7161.67  5.6301370E-01
   7162.00  5.5811805E-01
   7162.33  5.5284038E-01
   7162.67  5.4729602E-01
   7163.00  5.4154947E-01
   7163.33  5.3565502E-01
   7163.67  5.2969208E-01
   7164.00  5.2370650E-01
   7164.33  5.1774253E-01
   7164.67  5.1182674E-01
   7165.00  5.0597505E-01
   7165.33  5.0020708E-01
   7165.67  4.9451684E-01
   7166.00  4.8890365E-01
   7166.33  4.8337386E-01
   7166.67  4.7791412E-01
   7167.00  4.7252148E-01
   7167.33  4.6720369E-01
   7167.67  4.6195624E-01
   7168.00  4.5678671E-01
   7168.33  4.5172555E-01
   7168.67  4.4678650E-01
   7169.00  4.4199017E-01
   7169.33  4.3738140E-01
   7169.67  4.3296595E-01
   7170.00  4.2876936E-01
   7170.33  4.2485466E-01
   7170.67  4.2122387E-01
   7171.00  4.1790828E-01
   7171.33  4.1499863E-01
   7171.67  4.1251761E-01
   7172.00  4.1054233E-01
