    FDMNES
    energy     <xanes>
   7097.00  4.7865377E-03
   7097.33  4.8980973E-03
   7097.67  5.0148335E-03
   7098.00  5.1371159E-03
   7098.33  5.2661763E-03
   7098.67  5.4017989E-03
   7099.00  5.5444978E-03
   7099.33  5.6959140E-03
   7099.67  5.8558415E-03
   7100.00  6.0250177E-03
   7100.33  6.2056955E-03
   7100.67  6.3977162E-03
   7101.00  6.6021754E-03
   7101.33  6.8222784E-03
   7101.67  7.0579963E-03
   7102.00  7.3110258E-03
   7102.33  7.5861276E-03
   7102.67  7.8835854E-03
   7103.00  8.2061632E-03
   7103.33  8.5613100E-03
   7103.67  8.9500471E-03
   7104.00  9.3771614E-03
   7104.33  9.8550905E-03
   7104.67  1.0386639E-02
   7105.00  1.0980764E-02
   7105.33  1.1660017E-02
   7105.67  1.2431808E-02
   7106.00  1.3314657E-02
   7106.33  1.4354140E-02
   7106.67  1.5570902E-02
   7107.00  1.7008769E-02
   7107.33  1.8774702E-02
   7107.67  2.0934107E-02
   7108.00  2.3612821E-02
   7108.33  2.7123478E-02
   7108.67  3.1726464E-02
   7109.00  3.7908298E-02
   7109.33  4.6963270E-02
   7109.67  6.0417146E-02
   7110.00  8.1264509E-02
   7110.33  1.1814991E-01
   7110.67  1.8001267E-01
   7111.00  2.6728479E-01
   7111.33  3.5163372E-01
   7111.67  4.0171899E-01
   7112.00  4.0430253E-01
   7112.33  3.7557533E-01
   7112.67  3.1581726E-01
   7113.00  2.3814695E-01
   7113.33  1.7659645E-01
   7113.67  1.3537241E-01
   7114.00  1.0956333E-01
   7114.33  9.5042033E-02
   7114.67  8.6396753E-02
   7115.00  8.0503771E-02
   7115.33  7.4911057E-02
   7115.67  6.9215053E-02
   7116.00  6.4296181E-02
   7116.33  6.0918404E-02
   7116.67  5.8863653E-02
   7117.00  5.7972319E-02
   7117.33  5.8198538E-02
   7117.67  5.9275269E-02
   7118.00  6.1112091E-02
   7118.33  6.3767323E-02
   7118.67  6.7188776E-02
   7119.00  7.1410216E-02
   7119.33  7.6510216E-02
   7119.67  8.2310284E-02
   7120.00  8.8733899E-02
   7120.33  9.5805672E-02
   7120.67  1.0349512E-01
   7121.00  1.1197218E-01
   7121.33  1.2179839E-01
   7121.67  1.3344561E-01
   7122.00  1.4753828E-01
   7122.33  1.6510175E-01
   7122.67  1.8607662E-01
   7123.00  2.1055400E-01
   7123.33  2.3928468E-01
   7123.67  2.7176135E-01
   7124.00  3.0647405E-01
   7124.33  3.3974093E-01
   7124.67  3.6897818E-01
   7125.00  3.9392588E-01
   7125.33  4.1566624E-01
   7125.67  4.3770888E-01
   7126.00  4.6277948E-01
   7126.33  4.9178464E-01
   7126.67  5.2248077E-01
   7127.00  5.5284623E-01
   7127.33  5.8056553E-01
   7127.67  6.0512294E-01
   7128.00  6.2706518E-01
   7128.33  6.4780023E-01
   7128.67  6.6873223E-01
   7129.00  6.8922827E-01
   7129.33  7.0634387E-01
   7129.67  7.1904144E-01
   7130.00  7.2810579E-01
   7130.33  7.3456313E-01
   7130.67  7.3836349E-01
   7131.00  7.3806281E-01
   7131.33  7.3245559E-01
   7131.67  7.2430456E-01
   7132.00  7.1672948E-01
   7132.33  7.1258664E-01
   7132.67  7.1153723E-01
   7133.00  7.1241422E-01
   7133.33  7.1394610E-01
   7133.67  7.1517542E-01
   7134.00  7.1560217E-01
   7134.33  7.1488305E-01
   7134.67  7.1355410E-01
   7135.00  7.1247113E-01
   7135.33  7.1305469E-01
   7135.67  7.1592411E-01
   7136.00  7.2090809E-01
   7136.33  7.2696608E-01
   7136.67  7.3259997E-01
   7137.00  7.3708073E-01
   7137.33  7.4006741E-01
   7137.67  7.4197261E-01
   7138.00  7.4308142E-01
   7138.33  7.4358549E-01
   7138.67  7.4371118E-01
   7139.00  7.4354538E-01
   7139.33  7.4314117E-01
   7139.67  7.4259072E-01
   7140.00  7.4192578E-01
   7140.33  7.4110108E-01
   7140.67  7.4000612E-01
   7141.00  7.3844335E-01
   7141.33  7.3600238E-01
   7141.67  7.3243801E-01
   7142.00  7.2750818E-01
   7142.33  7.2082254E-01
   7142.67  7.1247970E-01
   7143.00  7.0252386E-01
   7143.33  6.9098044E-01
   7143.67  6.7834293E-01
   7144.00  6.6492633E-01
   7144.33  6.5103836E-01
   7144.67  6.3704334E-01
   7145.00  6.2315475E-01
   7145.33  6.0959385E-01
   7145.67  5.9645381E-01
   7146.00  5.8381471E-01
   7146.33  5.7180916E-01
   7146.67  5.6039178E-01
   7147.00  5.4956223E-01
   7147.33  5.3937932E-01
   7147.67  5.2974569E-01
   7148.00  5.2063037E-01
   7148.33  5.1204805E-01
   7148.67  5.0388959E-01
   7149.00  4.9611118E-01
   7149.33  4.8870060E-01
   7149.67  4.8156182E-01
   7150.00  4.7464860E-01
   7150.33  4.6793113E-01
   7150.67  4.6133964E-01
   7151.00  4.5483659E-01
   7151.33  4.4838960E-01
   7151.67  4.4196068E-01
   7152.00  4.3552854E-01
   7152.33  4.2907613E-01
   7152.67  4.2260688E-01
   7153.00  4.1613573E-01
   7153.33  4.0970033E-01
   7153.67  4.0334633E-01
   7154.00  3.9712430E-01
   7154.33  3.9111485E-01
   7154.67  3.8533527E-01
   7155.00  3.7979701E-01
   7155.33  3.7450138E-01
   7155.67  3.6934953E-01
   7156.00  3.6425679E-01
   7156.33  3.5911557E-01
   7156.67  3.5384144E-01
   7157.00  3.4837395E-01
   7157.33  3.4263251E-01
   7157.67  3.3664130E-01
   7158.00  3.3043025E-01
   7158.33  3.2403690E-01
   7158.67  3.1755379E-01
   7159.00  3.1104931E-01
   7159.33  3.0461555E-01
   7159.67  2.9833504E-01
   7160.00  2.9228421E-01
   7160.33  2.8658610E-01
   7160.67  2.8128690E-01
   7161.00  2.7646363E-01
   7161.33  2.7227908E-01
   7161.67  2.6875332E-01
   7162.00  2.6596065E-01
   7162.33  2.6407936E-01
   7162.67  2.6307185E-01
   7163.00  2.6297823E-01
   7163.33  2.6393644E-01
   7163.67  2.6582900E-01
   7164.00  2.6864116E-01
   7164.33  2.7244968E-01
   7164.67  2.7709406E-01
   7165.00  2.8252102E-01
   7165.33  2.8874795E-01
   7165.67  2.9560679E-01
   7166.00  3.0302531E-01
   7166.33  3.1097578E-01
   7166.67  3.1931026E-01
   7167.00  3.2795152E-01
   7167.33  3.3683773E-01
   7167.67  3.4585483E-01
   7168.00  3.5493117E-01
   7168.33  3.6398638E-01
   7168.67  3.7295158E-01
   7169.00  3.8176956E-01
   7169.33  3.9034776E-01
   7169.67  3.9865461E-01
   7170.00  4.0664591E-01
   7170.33  4.1422386E-01
   7170.67  4.2137560E-01
   7171.00  4.2803676E-01
   7171.33  4.3402016E-01
   7171.67  4.3921040E-01
   7172.00  4.4337097E-01
