    FDMNES
    energy     <xanes>
   7097.00  4.3902251E-03
   7097.33  4.4900348E-03
   7097.67  4.5944113E-03
   7098.00  4.7036803E-03
   7098.33  4.8189276E-03
   7098.67  4.9399626E-03
   7099.00  5.0672383E-03
   7099.33  5.2022017E-03
   7099.67  5.3446706E-03
   7100.00  5.4952952E-03
   7100.33  5.6560616E-03
   7100.67  5.8268294E-03
   7101.00  6.0085640E-03
   7101.33  6.2040904E-03
   7101.67  6.4133814E-03
   7102.00  6.6379308E-03
   7102.33  6.8819302E-03
   7102.67  7.1456243E-03
   7103.00  7.4314408E-03
   7103.33  7.7459267E-03
   7103.67  8.0899631E-03
   7104.00  8.4677397E-03
   7104.33  8.8901500E-03
   7104.67  9.3596041E-03
   7105.00  9.8838950E-03
   7105.33  1.0482660E-02
   7105.67  1.1162220E-02
   7106.00  1.1938542E-02
   7106.33  1.2850943E-02
   7106.67  1.3916827E-02
   7107.00  1.5173468E-02
   7107.33  1.6711774E-02
   7107.67  1.8585942E-02
   7108.00  2.0900795E-02
   7108.33  2.3915907E-02
   7108.67  2.7841530E-02
   7109.00  3.3070407E-02
   7109.33  4.0639155E-02
   7109.67  5.1735095E-02
   7110.00  6.8676021E-02
   7110.33  9.8116932E-02
   7110.67  1.4712183E-01
   7111.00  2.1770930E-01
   7111.33  2.9588925E-01
   7111.67  3.6591601E-01
   7112.00  3.9815719E-01
   7112.33  3.7544362E-01
   7112.67  3.2551963E-01
   7113.00  2.5658389E-01
   7113.33  1.9015924E-01
   7113.67  1.3572821E-01
   7114.00  9.8547047E-02
   7114.33  7.7584535E-02
   7114.67  6.5723992E-02
   7115.00  5.9342359E-02
   7115.33  5.4373843E-02
   7115.67  5.0090513E-02
   7116.00  4.8011814E-02
   7116.33  4.6979430E-02
   7116.67  4.4439286E-02
   7117.00  4.0810940E-02
   7117.33  3.7940224E-02
   7117.67  3.6315838E-02
   7118.00  3.5847592E-02
   7118.33  3.6530476E-02
   7118.67  3.8234486E-02
   7119.00  4.1030521E-02
   7119.33  4.4961934E-02
   7119.67  4.9424630E-02
   7120.00  5.4482428E-02
   7120.33  6.2029979E-02
   7120.67  7.3932032E-02
   7121.00  9.1589618E-02
   7121.33  1.1384008E-01
   7121.67  1.2997867E-01
   7122.00  1.3058057E-01
   7122.33  1.1971880E-01
   7122.67  1.1115736E-01
   7123.00  1.0937510E-01
   7123.33  1.1577710E-01
   7123.67  1.2899297E-01
   7124.00  1.4874313E-01
   7124.33  1.7468203E-01
   7124.67  2.0280628E-01
   7125.00  2.2813761E-01
   7125.33  2.4332741E-01
   7125.67  2.4827229E-01
   7126.00  2.4847036E-01
   7126.33  2.5183880E-01
   7126.67  2.6075113E-01
   7127.00  2.7421244E-01
   7127.33  2.9059164E-01
   7127.67  3.0905295E-01
   7128.00  3.3063104E-01
   7128.33  3.5755779E-01
   7128.67  3.9000986E-01
   7129.00  4.2754014E-01
   7129.33  4.6889843E-01
   7129.67  5.1121465E-01
   7130.00  5.5243501E-01
   7130.33  5.9114002E-01
   7130.67  6.2861062E-01
   7131.00  6.6682759E-01
   7131.33  7.0747169E-01
   7131.67  7.4783497E-01
   7132.00  7.8114356E-01
   7132.33  7.9649008E-01
   7132.67  7.9768687E-01
   7133.00  7.9546763E-01
   7133.33  8.0138273E-01
   7133.67  8.1879388E-01
   7134.00  8.4922592E-01
   7134.33  8.9760761E-01
   7134.67  9.6736475E-01
   7135.00  1.0634688E+00
   7135.33  1.1850097E+00
   7135.67  1.2945150E+00
   7136.00  1.3366668E+00
   7136.33  1.2698965E+00
   7136.67  1.1518039E+00
   7137.00  1.0307803E+00
   7137.33  9.3382039E-01
   7137.67  8.5968722E-01
   7138.00  8.0420509E-01
   7138.33  7.6414555E-01
   7138.67  7.3410454E-01
   7139.00  7.1187972E-01
   7139.33  6.9645931E-01
   7139.67  6.8590029E-01
   7140.00  6.7949436E-01
   7140.33  6.7709538E-01
   7140.67  6.7781942E-01
   7141.00  6.8135285E-01
   7141.33  6.8766555E-01
   7141.67  6.9611036E-01
   7142.00  7.0638733E-01
   7142.33  7.1830306E-01
   7142.67  7.3120939E-01
   7143.00  7.4458281E-01
   7143.33  7.5756852E-01
   7143.67  7.6912947E-01
   7144.00  7.7813342E-01
   7144.33  7.8265574E-01
   7144.67  7.8194413E-01
   7145.00  7.7536843E-01
   7145.33  7.6229074E-01
   7145.67  7.4446178E-01
   7146.00  7.2333071E-01
   7146.33  7.0063480E-01
   7146.67  6.7821496E-01
   7147.00  6.5707297E-01
   7147.33  6.3812632E-01
   7147.67  6.2138043E-01
   7148.00  6.0679721E-01
   7148.33  5.9437692E-01
   7148.67  5.8351659E-01
   7149.00  5.7385971E-01
   7149.33  5.6507932E-01
   7149.67  5.5668167E-01
   7150.00  5.4837389E-01
   7150.33  5.3985725E-01
   7150.67  5.3095254E-01
   7151.00  5.2154964E-01
   7151.33  5.1151772E-01
   7151.67  5.0092058E-01
   7152.00  4.8978038E-01
   7152.33  4.7807230E-01
   7152.67  4.6589447E-01
   7153.00  4.5326791E-01
   7153.33  4.4016345E-01
   7153.67  4.2665919E-01
   7154.00  4.1276698E-01
   7154.33  3.9846714E-01
   7154.67  3.8386882E-01
   7155.00  3.6906435E-01
   7155.33  3.5421126E-01
   7155.67  3.3956079E-01
   7156.00  3.2534652E-01
   7156.33  3.1190445E-01
   7156.67  2.9938502E-01
   7157.00  2.8797274E-01
   7157.33  2.7800566E-01
   7157.67  2.6945076E-01
   7158.00  2.6237609E-01
   7158.33  2.5700586E-01
   7158.67  2.5314588E-01
   7159.00  2.5076786E-01
   7159.33  2.4999686E-01
   7159.67  2.5058544E-01
   7160.00  2.5246527E-01
   7160.33  2.5569487E-01
   7160.67  2.6001427E-01
   7161.00  2.6530994E-01
   7161.33  2.7152590E-01
   7161.67  2.7837335E-01
   7162.00  2.8567022E-01
   7162.33  2.9321200E-01
   7162.67  3.0073022E-01
   7163.00  3.0802495E-01
   7163.33  3.1483730E-01
   7163.67  3.2106132E-01
   7164.00  3.2660472E-01
   7164.33  3.3132352E-01
   7164.67  3.3531355E-01
   7165.00  3.3861797E-01
   7165.33  3.4124991E-01
   7165.67  3.4339987E-01
   7166.00  3.4517692E-01
   7166.33  3.4667590E-01
   7166.67  3.4804325E-01
   7167.00  3.4936436E-01
   7167.33  3.5072203E-01
   7167.67  3.5216644E-01
   7168.00  3.5372509E-01
   7168.33  3.5542607E-01
   7168.67  3.5724891E-01
   7169.00  3.5917981E-01
   7169.33  3.6120585E-01
   7169.67  3.6328879E-01
   7170.00  3.6540370E-01
   7170.33  3.6752101E-01
   7170.67  3.6960840E-01
   7171.00  3.7163352E-01
   7171.33  3.7352971E-01
   7171.67  3.7522471E-01
   7172.00  3.7660864E-01
