    FDMNES
    energy     <xanes>
   7097.00  5.1466698E-03
   7097.33  5.2741329E-03
   7097.67  5.4076207E-03
   7098.00  5.5475558E-03
   7098.33  5.6953581E-03
   7098.67  5.8507632E-03
   7099.00  6.0143522E-03
   7099.33  6.1879995E-03
   7099.67  6.3714414E-03
   7100.00  6.5654995E-03
   7100.33  6.7727163E-03
   7100.67  6.9928628E-03
   7101.00  7.2271382E-03
   7101.33  7.4791042E-03
   7101.67  7.7486413E-03
   7102.00  8.0375686E-03
   7102.33  8.3510726E-03
   7102.67  8.6893089E-03
   7103.00  9.0551682E-03
   7103.33  9.4565696E-03
   7103.67  9.8943245E-03
   7104.00  1.0373296E-02
   7104.33  1.0906315E-02
   7104.67  1.1495772E-02
   7105.00  1.2150463E-02
   7105.33  1.2892834E-02
   7105.67  1.3729293E-02
   7106.00  1.4677342E-02
   7106.33  1.5780481E-02
   7106.67  1.7056433E-02
   7107.00  1.8544909E-02
   7107.33  2.0343316E-02
   7107.67  2.2506817E-02
   7108.00  2.5144610E-02
   7108.33  2.8528082E-02
   7108.67  3.2872568E-02
   7109.00  3.8585077E-02
   7109.33  4.6746637E-02
   7109.67  5.8606776E-02
   7110.00  7.6627000E-02
   7110.33  1.0787813E-01
   7110.67  1.5917002E-01
   7111.00  2.2816486E-01
   7111.33  2.8396248E-01
   7111.67  3.1346706E-01
   7112.00  3.2741127E-01
   7112.33  3.4348665E-01
   7112.67  3.6893678E-01
   7113.00  4.0482014E-01
   7113.33  4.4796163E-01
   7113.67  4.7031827E-01
   7114.00  4.4096207E-01
   7114.33  3.6645215E-01
   7114.67  2.9279157E-01
   7115.00  2.3607669E-01
   7115.33  1.9871818E-01
   7115.67  1.7372443E-01
   7116.00  1.5686213E-01
   7116.33  1.4434462E-01
   7116.67  1.3296375E-01
   7117.00  1.2257238E-01
   7117.33  1.1460716E-01
   7117.67  1.0929144E-01
   7118.00  1.0639690E-01
   7118.33  1.0574934E-01
   7118.67  1.0654056E-01
   7119.00  1.0823768E-01
   7119.33  1.1092856E-01
   7119.67  1.1493306E-01
   7120.00  1.2015459E-01
   7120.33  1.2596756E-01
   7120.67  1.3212285E-01
   7121.00  1.3918350E-01
   7121.33  1.4807704E-01
   7121.67  1.5914255E-01
   7122.00  1.7288540E-01
   7122.33  1.9057081E-01
   7122.67  2.1251479E-01
   7123.00  2.3867840E-01
   7123.33  2.6784126E-01
   7123.67  2.9713158E-01
   7124.00  3.2474842E-01
   7124.33  3.4881646E-01
   7124.67  3.6850603E-01
   7125.00  3.8351759E-01
   7125.33  3.9482754E-01
   7125.67  4.0545595E-01
   7126.00  4.1735164E-01
   7126.33  4.3153243E-01
   7126.67  4.4678705E-01
   7127.00  4.6196719E-01
   7127.33  4.7706505E-01
   7127.67  4.9369183E-01
   7128.00  5.1334114E-01
   7128.33  5.3701757E-01
   7128.67  5.6352877E-01
   7129.00  5.9207209E-01
   7129.33  6.2287055E-01
   7129.67  6.5609631E-01
   7130.00  6.9105811E-01
   7130.33  7.2489239E-01
   7130.67  7.5411423E-01
   7131.00  7.7605097E-01
   7131.33  7.8749059E-01
   7131.67  7.8925236E-01
   7132.00  7.8299608E-01
   7132.33  7.7251507E-01
   7132.67  7.6360323E-01
   7133.00  7.5979358E-01
   7133.33  7.6309726E-01
   7133.67  7.7094752E-01
   7134.00  7.8056755E-01
   7134.33  7.8866633E-01
   7134.67  7.9351794E-01
   7135.00  7.9449527E-01
   7135.33  7.9069132E-01
   7135.67  7.8271717E-01
   7136.00  7.7142579E-01
   7136.33  7.5820096E-01
   7136.67  7.4479017E-01
   7137.00  7.3212693E-01
   7137.33  7.2093142E-01
   7137.67  7.1105750E-01
   7138.00  7.0216267E-01
   7138.33  6.9363501E-01
   7138.67  6.8472566E-01
   7139.00  6.7495108E-01
   7139.33  6.6390172E-01
   7139.67  6.5183816E-01
   7140.00  6.3913314E-01
   7140.33  6.2639821E-01
   7140.67  6.1431369E-01
   7141.00  6.0340820E-01
   7141.33  5.9434326E-01
   7141.67  5.8715513E-01
   7142.00  5.8186863E-01
   7142.33  5.7851170E-01
   7142.67  5.7645428E-01
   7143.00  5.7517977E-01
   7143.33  5.7398926E-01
   7143.67  5.7219076E-01
   7144.00  5.6933858E-01
   7144.33  5.6500390E-01
   7144.67  5.5936868E-01
   7145.00  5.5263188E-01
   7145.33  5.4507392E-01
   7145.67  5.3718834E-01
   7146.00  5.2929228E-01
   7146.33  5.2175075E-01
   7146.67  5.1478856E-01
   7147.00  5.0857295E-01
   7147.33  5.0333294E-01
   7147.67  4.9901242E-01
   7148.00  4.9561625E-01
   7148.33  4.9322292E-01
   7148.67  4.9165469E-01
   7149.00  4.9083697E-01
   7149.33  4.9074732E-01
   7149.67  4.9118709E-01
   7150.00  4.9204703E-01
   7150.33  4.9323010E-01
   7150.67  4.9456699E-01
   7151.00  4.9594814E-01
   7151.33  4.9724947E-01
   7151.67  4.9838573E-01
   7152.00  4.9929813E-01
   7152.33  4.9991476E-01
   7152.67  5.0026248E-01
   7153.00  5.0036065E-01
   7153.33  5.0022824E-01
   7153.67  4.9994927E-01
   7154.00  4.9957598E-01
   7154.33  4.9915611E-01
   7154.67  4.9872931E-01
   7155.00  4.9830450E-01
   7155.33  4.9786139E-01
   7155.67  4.9735295E-01
   7156.00  4.9671561E-01
   7156.33  4.9582815E-01
   7156.67  4.9461212E-01
   7157.00  4.9297334E-01
   7157.33  4.9074184E-01
   7157.67  4.8789531E-01
   7158.00  4.8437811E-01
   7158.33  4.8006715E-01
   7158.67  4.7505269E-01
   7159.00  4.6936758E-01
   7159.33  4.6300543E-01
   7159.67  4.5613396E-01
   7160.00  4.4884685E-01
   7160.33  4.4122748E-01
   7160.67  4.3343922E-01
   7161.00  4.2559146E-01
   7161.33  4.1781741E-01
   7161.67  4.1022980E-01
   7162.00  4.0292531E-01
   7162.33  3.9604459E-01
   7162.67  3.8961004E-01
   7163.00  3.8367045E-01
   7163.33  3.7834189E-01
   7163.67  3.7358895E-01
   7164.00  3.6942439E-01
   7164.33  3.6592031E-01
   7164.67  3.6298824E-01
   7165.00  3.6060619E-01
   7165.33  3.5880464E-01
   7165.67  3.5747926E-01
   7166.00  3.5659285E-01
   7166.33  3.5614829E-01
   7166.67  3.5604895E-01
   7167.00  3.5625476E-01
   7167.33  3.5675352E-01
   7167.67  3.5747027E-01
   7168.00  3.5837066E-01
   7168.33  3.5943674E-01
   7168.67  3.6061888E-01
   7169.00  3.6189463E-01
   7169.33  3.6325040E-01
   7169.67  3.6465866E-01
   7170.00  3.6610792E-01
   7170.33  3.6759159E-01
   7170.67  3.6909422E-01
   7171.00  3.7059950E-01
   7171.33  3.7206439E-01
   7171.67  3.7341134E-01
   7172.00  3.7452378E-01
