    FDMNES
    energy     <xanes>
   7097.00  4.9843488E-03
   7097.33  5.1015821E-03
   7097.67  5.2242129E-03
   7098.00  5.3526192E-03
   7098.33  5.4880728E-03
   7098.67  5.6303379E-03
   7099.00  5.7799366E-03
   7099.33  5.9385523E-03
   7099.67  6.1059537E-03
   7100.00  6.2828836E-03
   7100.33  6.4716350E-03
   7100.67  6.6720155E-03
   7101.00  6.8851186E-03
   7101.33  7.1141766E-03
   7101.67  7.3591112E-03
   7102.00  7.6215981E-03
   7102.33  7.9063863E-03
   7102.67  8.2136788E-03
   7103.00  8.5461725E-03
   7103.33  8.9112041E-03
   7103.67  9.3096450E-03
   7104.00  9.7461024E-03
   7104.33  1.0232646E-02
   7104.67  1.0771763E-02
   7105.00  1.1371939E-02
   7105.33  1.2054691E-02
   7105.67  1.2826648E-02
   7106.00  1.3705056E-02
   7106.33  1.4732562E-02
   7106.67  1.5927583E-02
   7107.00  1.7330156E-02
   7107.33  1.9038200E-02
   7107.67  2.1109513E-02
   7108.00  2.3656648E-02
   7108.33  2.6959032E-02
   7108.67  3.1243555E-02
   7109.00  3.6935724E-02
   7109.33  4.5163690E-02
   7109.67  5.7235360E-02
   7110.00  7.5717464E-02
   7110.33  1.0804201E-01
   7110.67  1.6227928E-01
   7111.00  2.4019257E-01
   7111.33  3.1385673E-01
   7111.67  3.5712145E-01
   7112.00  3.6380110E-01
   7112.33  3.3405690E-01
   7112.67  3.1376990E-01
   7113.00  3.1763167E-01
   7113.33  3.1608722E-01
   7113.67  2.8111740E-01
   7114.00  2.2480932E-01
   7114.33  1.7524936E-01
   7114.67  1.3895044E-01
   7115.00  1.1345958E-01
   7115.33  9.6535252E-02
   7115.67  8.5169931E-02
   7116.00  7.7989548E-02
   7116.33  7.3900588E-02
   7116.67  7.1595748E-02
   7117.00  7.0712640E-02
   7117.33  7.1333715E-02
   7117.67  7.3350035E-02
   7118.00  7.6771516E-02
   7118.33  8.1546760E-02
   7118.67  8.7095438E-02
   7119.00  9.3028875E-02
   7119.33  9.9140045E-02
   7119.67  1.0551867E-01
   7120.00  1.1237638E-01
   7120.33  1.2009941E-01
   7120.67  1.2895642E-01
   7121.00  1.3946253E-01
   7121.33  1.5317589E-01
   7121.67  1.7151065E-01
   7122.00  1.9601533E-01
   7122.33  2.2795060E-01
   7122.67  2.6200329E-01
   7123.00  2.8973788E-01
   7123.33  3.0732464E-01
   7123.67  3.2750591E-01
   7124.00  3.5914760E-01
   7124.33  4.0172235E-01
   7124.67  4.4047530E-01
   7125.00  4.6336982E-01
   7125.33  4.6900758E-01
   7125.67  4.7178102E-01
   7126.00  4.7964034E-01
   7126.33  4.9378687E-01
   7126.67  5.0964341E-01
   7127.00  5.2594270E-01
   7127.33  5.4540267E-01
   7127.67  5.7012503E-01
   7128.00  5.9970842E-01
   7128.33  6.3111850E-01
   7128.67  6.5975216E-01
   7129.00  6.8232865E-01
   7129.33  6.9572228E-01
   7129.67  7.0110585E-01
   7130.00  7.0011871E-01
   7130.33  6.9494349E-01
   7130.67  6.8839401E-01
   7131.00  6.8178877E-01
   7131.33  6.7603663E-01
   7131.67  6.7153920E-01
   7132.00  6.6885640E-01
   7132.33  6.6949242E-01
   7132.67  6.7484295E-01
   7133.00  6.8678948E-01
   7133.33  7.0849855E-01
   7133.67  7.3992878E-01
   7134.00  7.8031199E-01
   7134.33  8.2672630E-01
   7134.67  8.7221735E-01
   7135.00  9.1054104E-01
   7135.33  9.3423577E-01
   7135.67  9.4242667E-01
   7136.00  9.3579947E-01
   7136.33  9.1585717E-01
   7136.67  8.8793023E-01
   7137.00  8.5518133E-01
   7137.33  8.2047032E-01
   7137.67  7.8625447E-01
   7138.00  7.5370707E-01
   7138.33  7.2367703E-01
   7138.67  6.9595452E-01
   7139.00  6.7049888E-01
   7139.33  6.4755884E-01
   7139.67  6.2679683E-01
   7140.00  6.0807465E-01
   7140.33  5.9134934E-01
   7140.67  5.7613607E-01
   7141.00  5.6232753E-01
   7141.33  5.5020162E-01
   7141.67  5.3986407E-01
   7142.00  5.3163290E-01
   7142.33  5.2610396E-01
   7142.67  5.2305443E-01
   7143.00  5.2231235E-01
   7143.33  5.2363219E-01
   7143.67  5.2610776E-01
   7144.00  5.2911457E-01
   7144.33  5.3200660E-01
   7144.67  5.3435916E-01
   7145.00  5.3596683E-01
   7145.33  5.3663453E-01
   7145.67  5.3646215E-01
   7146.00  5.3546793E-01
   7146.33  5.3357892E-01
   7146.67  5.3092594E-01
   7147.00  5.2754432E-01
   7147.33  5.2342451E-01
   7147.67  5.1876637E-01
   7148.00  5.1370443E-01
   7148.33  5.0839254E-01
   7148.67  5.0304659E-01
   7149.00  4.9781842E-01
   7149.33  4.9289554E-01
   7149.67  4.8836661E-01
   7150.00  4.8431124E-01
   7150.33  4.8086123E-01
   7150.67  4.7798762E-01
   7151.00  4.7570585E-01
   7151.33  4.7409044E-01
   7151.67  4.7305153E-01
   7152.00  4.7256397E-01
   7152.33  4.7264722E-01
   7152.67  4.7317726E-01
   7153.00  4.7408947E-01
   7153.33  4.7533042E-01
   7153.67  4.7675784E-01
   7154.00  4.7826925E-01
   7154.33  4.7972795E-01
   7154.67  4.8100012E-01
   7155.00  4.8196320E-01
   7155.33  4.8242196E-01
   7155.67  4.8230606E-01
   7156.00  4.8152480E-01
   7156.33  4.7990797E-01
   7156.67  4.7750629E-01
   7157.00  4.7431262E-01
   7157.33  4.7025350E-01
   7157.67  4.6547628E-01
   7158.00  4.6004306E-01
   7158.33  4.5397149E-01
   7158.67  4.4743482E-01
   7159.00  4.4052976E-01
   7159.33  4.3334647E-01
   7159.67  4.2604380E-01
   7160.00  4.1873559E-01
   7160.33  4.1157788E-01
   7160.67  4.0469577E-01
   7161.00  3.9819973E-01
   7161.33  3.9226377E-01
   7161.67  3.8691746E-01
   7162.00  3.8221917E-01
   7162.33  3.7829889E-01
   7162.67  3.7508713E-01
   7163.00  3.7257515E-01
   7163.33  3.7081881E-01
   7163.67  3.6969679E-01
   7164.00  3.6917018E-01
   7164.33  3.6925703E-01
   7164.67  3.6983839E-01
   7165.00  3.7087198E-01
   7165.33  3.7236156E-01
   7165.67  3.7421276E-01
   7166.00  3.7639025E-01
   7166.33  3.7889008E-01
   7166.67  3.8163514E-01
   7167.00  3.8458797E-01
   7167.33  3.8772718E-01
   7167.67  3.9099229E-01
   7168.00  3.9435092E-01
   7168.33  3.9777455E-01
   7168.67  4.0122376E-01
   7169.00  4.0467589E-01
   7169.33  4.0810641E-01
   7169.67  4.1149833E-01
   7170.00  4.1483616E-01
   7170.33  4.1809153E-01
   7170.67  4.2124855E-01
   7171.00  4.2427502E-01
   7171.33  4.2708301E-01
   7171.67  4.2957898E-01
   7172.00  4.3160811E-01
