    FDMNES
    energy     <xanes>
   7097.00  4.8546616E-03
   7097.33  4.9710005E-03
   7097.67  5.0926398E-03
   7098.00  5.2199416E-03
   7098.33  5.3541384E-03
   7098.67  5.4949850E-03
   7099.00  5.6429770E-03
   7099.33  5.7997328E-03
   7099.67  5.9650055E-03
   7100.00  6.1394935E-03
   7100.33  6.3253811E-03
   7100.67  6.5224482E-03
   7101.00  6.7317121E-03
   7101.33  6.9562197E-03
   7101.67  7.1958418E-03
   7102.00  7.4521201E-03
   7102.33  7.7294777E-03
   7102.67  8.0280193E-03
   7103.00  8.3501964E-03
   7103.33  8.7027538E-03
   7103.67  9.0863603E-03
   7104.00  9.5051522E-03
   7104.33  9.9700706E-03
   7104.67  1.0483156E-02
   7105.00  1.1051934E-02
   7105.33  1.1695622E-02
   7105.67  1.2419787E-02
   7106.00  1.3239532E-02
   7106.33  1.4192391E-02
   7106.67  1.5293961E-02
   7107.00  1.6578895E-02
   7107.33  1.8132198E-02
   7107.67  2.0002917E-02
   7108.00  2.2287549E-02
   7108.33  2.5225941E-02
   7108.67  2.9010736E-02
   7109.00  3.4004665E-02
   7109.33  4.1170127E-02
   7109.67  5.1620247E-02
   7110.00  6.7541012E-02
   7110.33  9.5222397E-02
   7110.67  1.4108488E-01
   7111.00  2.0547810E-01
   7111.33  2.6953112E-01
   7111.67  3.0917041E-01
   7112.00  3.0769341E-01
   7112.33  2.8570927E-01
   7112.67  2.7370328E-01
   7113.00  2.7270835E-01
   7113.33  2.7566593E-01
   7113.67  2.6972206E-01
   7114.00  2.4301984E-01
   7114.33  2.0666041E-01
   7114.67  1.8147059E-01
   7115.00  1.7038108E-01
   7115.33  1.6762538E-01
   7115.67  1.6112105E-01
   7116.00  1.4609343E-01
   7116.33  1.2945162E-01
   7116.67  1.1928411E-01
   7117.00  1.1685011E-01
   7117.33  1.2148012E-01
   7117.67  1.3052533E-01
   7118.00  1.4289996E-01
   7118.33  1.5818502E-01
   7118.67  1.7356278E-01
   7119.00  1.8512355E-01
   7119.33  1.8913583E-01
   7119.67  1.8798312E-01
   7120.00  1.8629974E-01
   7120.33  1.8981384E-01
   7120.67  2.0027693E-01
   7121.00  2.1782338E-01
   7121.33  2.4237647E-01
   7121.67  2.7187132E-01
   7122.00  3.0503704E-01
   7122.33  3.3968541E-01
   7122.67  3.7244098E-01
   7123.00  4.0146287E-01
   7123.33  4.2598942E-01
   7123.67  4.4729626E-01
   7124.00  4.6615861E-01
   7124.33  4.8360157E-01
   7124.67  5.0199281E-01
   7125.00  5.2381585E-01
   7125.33  5.5168573E-01
   7125.67  5.8375241E-01
   7126.00  6.1562345E-01
   7126.33  6.3867244E-01
   7126.67  6.4720723E-01
   7127.00  6.3904151E-01
   7127.33  6.1523808E-01
   7127.67  5.8520489E-01
   7128.00  5.5661360E-01
   7128.33  5.3596048E-01
   7128.67  5.2251596E-01
   7129.00  5.1345085E-01
   7129.33  5.0574428E-01
   7129.67  4.9825909E-01
   7130.00  4.9112185E-01
   7130.33  4.8410815E-01
   7130.67  4.7659028E-01
   7131.00  4.6825866E-01
   7131.33  4.5911502E-01
   7131.67  4.5001166E-01
   7132.00  4.4254596E-01
   7132.33  4.4023239E-01
   7132.67  4.4544837E-01
   7133.00  4.5941312E-01
   7133.33  4.8126178E-01
   7133.67  5.0434631E-01
   7134.00  5.2222123E-01
   7134.33  5.2885962E-01
   7134.67  5.2648151E-01
   7135.00  5.1944051E-01
   7135.33  5.1333190E-01
   7135.67  5.1132285E-01
   7136.00  5.1415374E-01
   7136.33  5.2179645E-01
   7136.67  5.3254563E-01
   7137.00  5.4530240E-01
   7137.33  5.5899459E-01
   7137.67  5.7257535E-01
   7138.00  5.8545915E-01
   7138.33  5.9706485E-01
   7138.67  6.0731428E-01
   7139.00  6.1616533E-01
   7139.33  6.2355558E-01
   7139.67  6.2986099E-01
   7140.00  6.3530390E-01
   7140.33  6.4006326E-01
   7140.67  6.4441681E-01
   7141.00  6.4847605E-01
   7141.33  6.5228674E-01
   7141.67  6.5592075E-01
   7142.00  6.5941257E-01
   7142.33  6.6279249E-01
   7142.67  6.6610615E-01
   7143.00  6.6935502E-01
   7143.33  6.7246751E-01
   7143.67  6.7531802E-01
   7144.00  6.7771253E-01
   7144.33  6.7926273E-01
   7144.67  6.7974717E-01
   7145.00  6.7894719E-01
   7145.33  6.7659437E-01
   7145.67  6.7300760E-01
   7146.00  6.6850718E-01
   7146.33  6.6355708E-01
   7146.67  6.5871589E-01
   7147.00  6.5430088E-01
   7147.33  6.5057687E-01
   7147.67  6.4749165E-01
   7148.00  6.4497082E-01
   7148.33  6.4291059E-01
   7148.67  6.4108055E-01
   7149.00  6.3934265E-01
   7149.33  6.3757618E-01
   7149.67  6.3571817E-01
   7150.00  6.3374469E-01
   7150.33  6.3163244E-01
   7150.67  6.2939100E-01
   7151.00  6.2700396E-01
   7151.33  6.2440501E-01
   7151.67  6.2154625E-01
   7152.00  6.1834586E-01
   7152.33  6.1463552E-01
   7152.67  6.1035521E-01
   7153.00  6.0541388E-01
   7153.33  5.9964016E-01
   7153.67  5.9309209E-01
   7154.00  5.8578275E-01
   7154.33  5.7768909E-01
   7154.67  5.6900710E-01
   7155.00  5.5985555E-01
   7155.33  5.5034557E-01
   7155.67  5.4066437E-01
   7156.00  5.3092393E-01
   7156.33  5.2123467E-01
   7156.67  5.1166603E-01
   7157.00  5.0226125E-01
   7157.33  4.9307424E-01
   7157.67  4.8409410E-01
   7158.00  4.7532401E-01
   7158.33  4.6678636E-01
   7158.67  4.5844726E-01
   7159.00  4.5029869E-01
   7159.33  4.4235139E-01
   7159.67  4.3457192E-01
   7160.00  4.2695653E-01
   7160.33  4.1953104E-01
   7160.67  4.1229296E-01
   7161.00  4.0526925E-01
   7161.33  3.9853120E-01
   7161.67  3.9208881E-01
   7162.00  3.8597476E-01
   7162.33  3.8026094E-01
   7162.67  3.7491431E-01
   7163.00  3.6993154E-01
   7163.33  3.6533809E-01
   7163.67  3.6106251E-01
   7164.00  3.5707718E-01
   7164.33  3.5338348E-01
   7164.67  3.4992350E-01
   7165.00  3.4668185E-01
   7165.33  3.4367578E-01
   7165.67  3.4088053E-01
   7166.00  3.3830443E-01
   7166.33  3.3599157E-01
   7166.67  3.3392944E-01
   7167.00  3.3213150E-01
   7167.33  3.3064543E-01
   7167.67  3.2944593E-01
   7168.00  3.2853804E-01
   7168.33  3.2796155E-01
   7168.67  3.2768011E-01
   7169.00  3.2769265E-01
   7169.33  3.2803329E-01
   7169.67  3.2866148E-01
   7170.00  3.2957087E-01
   7170.33  3.3078115E-01
   7170.67  3.3223246E-01
   7171.00  3.3388431E-01
   7171.33  3.3566524E-01
   7171.67  3.3739997E-01
   7172.00  3.3887383E-01
