    FDMNES
    energy     <xanes>
   7097.00  4.5159138E-03
   7097.33  4.6151070E-03
   7097.67  4.7184662E-03
   7098.00  4.8262577E-03
   7098.33  4.9394197E-03
   7098.67  5.0577349E-03
   7099.00  5.1815623E-03
   7099.33  5.3121138E-03
   7099.67  5.4491630E-03
   7100.00  5.5932075E-03
   7100.33  5.7458531E-03
   7100.67  5.9068806E-03
   7101.00  6.0770016E-03
   7101.33  6.2584103E-03
   7101.67  6.4509314E-03
   7102.00  6.6556207E-03
   7102.33  6.8755903E-03
   7102.67  7.1107909E-03
   7103.00  7.3628609E-03
   7103.33  7.6364194E-03
   7103.67  7.9317305E-03
   7104.00  8.2514798E-03
   7104.33  8.6029237E-03
   7104.67  8.9870867E-03
   7105.00  9.4086837E-03
   7105.33  9.8799705E-03
   7105.67  1.0403880E-02
   7106.00  1.0989459E-02
   7106.33  1.1659473E-02
   7106.67  1.2422056E-02
   7107.00  1.3296768E-02
   7107.33  1.4331824E-02
   7107.67  1.5551630E-02
   7108.00  1.7006359E-02
   7108.33  1.8819918E-02
   7108.67  2.1080514E-02
   7109.00  2.3956364E-02
   7109.33  2.7883616E-02
   7109.67  3.3315159E-02
   7110.00  4.1129030E-02
   7110.33  5.3775650E-02
   7110.67  7.3575410E-02
   7111.00  1.0088529E-01
   7111.33  1.3444248E-01
   7111.67  1.8033399E-01
   7112.00  2.3894441E-01
   7112.33  2.8580685E-01
   7112.67  2.9823922E-01
   7113.00  2.8347193E-01
   7113.33  2.5996054E-01
   7113.67  2.3314469E-01
   7114.00  1.9685938E-01
   7114.33  1.5670635E-01
   7114.67  1.2559365E-01
   7115.00  1.0506099E-01
   7115.33  9.2681244E-02
   7115.67  8.5322126E-02
   7116.00  8.2062397E-02
   7116.33  8.2319546E-02
   7116.67  8.4957547E-02
   7117.00  8.9403355E-02
   7117.33  9.4908374E-02
   7117.67  1.0055407E-01
   7118.00  1.0649020E-01
   7118.33  1.1415285E-01
   7118.67  1.2442540E-01
   7119.00  1.3758560E-01
   7119.33  1.5390458E-01
   7119.67  1.7281354E-01
   7120.00  1.9404434E-01
   7120.33  2.1730362E-01
   7120.67  2.4146281E-01
   7121.00  2.6538592E-01
   7121.33  2.8735805E-01
   7121.67  3.0657015E-01
   7122.00  3.2309109E-01
   7122.33  3.3802890E-01
   7122.67  3.5308045E-01
   7123.00  3.6837350E-01
   7123.33  3.8248801E-01
   7123.67  3.9523490E-01
   7124.00  4.0762220E-01
   7124.33  4.2036591E-01
   7124.67  4.3310373E-01
   7125.00  4.4531711E-01
   7125.33  4.5637956E-01
   7125.67  4.6607190E-01
   7126.00  4.7414261E-01
   7126.33  4.8008251E-01
   7126.67  4.8402733E-01
   7127.00  4.8600753E-01
   7127.33  4.8575149E-01
   7127.67  4.8363796E-01
   7128.00  4.8032144E-01
   7128.33  4.7717505E-01
   7128.67  4.7541417E-01
   7129.00  4.7554309E-01
   7129.33  4.7790820E-01
   7129.67  4.8224773E-01
   7130.00  4.8856915E-01
   7130.33  4.9701913E-01
   7130.67  5.0711022E-01
   7131.00  5.1859459E-01
   7131.33  5.3154678E-01
   7131.67  5.4613396E-01
   7132.00  5.6280542E-01
   7132.33  5.8164644E-01
   7132.67  6.0103414E-01
   7133.00  6.1945046E-01
   7133.33  6.3545522E-01
   7133.67  6.4885894E-01
   7134.00  6.5953458E-01
   7134.33  6.6712404E-01
   7134.67  6.7218337E-01
   7135.00  6.7507831E-01
   7135.33  6.7604572E-01
   7135.67  6.7561941E-01
   7136.00  6.7396135E-01
   7136.33  6.7106832E-01
   7136.67  6.6722525E-01
   7137.00  6.6259991E-01
   7137.33  6.5736975E-01
   7137.67  6.5186699E-01
   7138.00  6.4629542E-01
   7138.33  6.4086510E-01
   7138.67  6.3570661E-01
   7139.00  6.3089806E-01
   7139.33  6.2651596E-01
   7139.67  6.2247981E-01
   7140.00  6.1872165E-01
   7140.33  6.1515609E-01
   7140.67  6.1165016E-01
   7141.00  6.0812596E-01
   7141.33  6.0452894E-01
   7141.67  6.0088673E-01
   7142.00  5.9727560E-01
   7142.33  5.9387104E-01
   7142.67  5.9085135E-01
   7143.00  5.8840433E-01
   7143.33  5.8682955E-01
   7143.67  5.8618482E-01
   7144.00  5.8655189E-01
   7144.33  5.8808128E-01
   7144.67  5.9058942E-01
   7145.00  5.9398841E-01
   7145.33  5.9823522E-01
   7145.67  6.0307230E-01
   7146.00  6.0834833E-01
   7146.33  6.1391710E-01
   7146.67  6.1957222E-01
   7147.00  6.2517241E-01
   7147.33  6.3053859E-01
   7147.67  6.3555271E-01
   7148.00  6.4009870E-01
   7148.33  6.4399059E-01
   7148.67  6.4721195E-01
   7149.00  6.4970222E-01
   7149.33  6.5131152E-01
   7149.67  6.5211322E-01
   7150.00  6.5210815E-01
   7150.33  6.5119643E-01
   7150.67  6.4947694E-01
   7151.00  6.4694889E-01
   7151.33  6.4350857E-01
   7151.67  6.3925191E-01
   7152.00  6.3417209E-01
   7152.33  6.2815816E-01
   7152.67  6.2131074E-01
   7153.00  6.1363166E-01
   7153.33  6.0502927E-01
   7153.67  5.9562928E-01
   7154.00  5.8546572E-01
   7154.33  5.7450813E-01
   7154.67  5.6292231E-01
   7155.00  5.5078972E-01
   7155.33  5.3816448E-01
   7155.67  5.2522076E-01
   7156.00  5.1206577E-01
   7156.33  4.9881341E-01
   7156.67  4.8559482E-01
   7157.00  4.7250768E-01
   7157.33  4.5968662E-01
   7157.67  4.4719905E-01
   7158.00  4.3512349E-01
   7158.33  4.2360772E-01
   7158.67  4.1266878E-01
   7159.00  4.0236896E-01
   7159.33  3.9285912E-01
   7159.67  3.8410262E-01
   7160.00  3.7613182E-01
   7160.33  3.6906723E-01
   7160.67  3.6280595E-01
   7161.00  3.5732946E-01
   7161.33  3.5269807E-01
   7161.67  3.4877659E-01
   7162.00  3.4552494E-01
   7162.33  3.4297201E-01
   7162.67  3.4099395E-01
   7163.00  3.3955296E-01
   7163.33  3.3866680E-01
   7163.67  3.3823178E-01
   7164.00  3.3821387E-01
   7164.33  3.3862186E-01
   7164.67  3.3937025E-01
   7165.00  3.4042682E-01
   7165.33  3.4178858E-01
   7165.67  3.4338511E-01
   7166.00  3.4518587E-01
   7166.33  3.4717881E-01
   7166.67  3.4931204E-01
   7167.00  3.5156158E-01
   7167.33  3.5391385E-01
   7167.67  3.5633588E-01
   7168.00  3.5881156E-01
   7168.33  3.6132801E-01
   7168.67  3.6386338E-01
   7169.00  3.6640283E-01
   7169.33  3.6892728E-01
   7169.67  3.7141976E-01
   7170.00  3.7386236E-01
   7170.33  3.7622172E-01
   7170.67  3.7847780E-01
   7171.00  3.8059943E-01
   7171.33  3.8251525E-01
   7171.67  3.8417537E-01
   7172.00  3.8549543E-01
