    FDMNES
    energy     <xanes>
   7097.00  4.6323700E-03
   7097.33  4.7336846E-03
   7097.67  4.8392895E-03
   7098.00  4.9494634E-03
   7098.33  5.0651807E-03
   7098.67  5.1862238E-03
   7099.00  5.3129713E-03
   7099.33  5.4466879E-03
   7099.67  5.5871503E-03
   7100.00  5.7348863E-03
   7100.33  5.8915830E-03
   7100.67  6.0570305E-03
   7101.00  6.2319898E-03
   7101.33  6.4187851E-03
   7101.67  6.6172635E-03
   7102.00  6.8285663E-03
   7102.33  7.0560234E-03
   7102.67  7.2996375E-03
   7103.00  7.5612027E-03
   7103.33  7.8457268E-03
   7103.67  8.1535951E-03
   7104.00  8.4877990E-03
   7104.33  8.8563427E-03
   7104.67  9.2605494E-03
   7105.00  9.7057924E-03
   7105.33  1.0205917E-02
   7105.67  1.0764661E-02
   7106.00  1.1392674E-02
   7106.33  1.2116587E-02
   7106.67  1.2947010E-02
   7107.00  1.3908119E-02
   7107.33  1.5059458E-02
   7107.67  1.6434697E-02
   7108.00  1.8100892E-02
   7108.33  2.0225399E-02
   7108.67  2.2942958E-02
   7109.00  2.6509434E-02
   7109.33  3.1610442E-02
   7109.67  3.9059593E-02
   7110.00  5.0467448E-02
   7110.33  7.0393842E-02
   7110.67  1.0213347E-01
   7111.00  1.3933532E-01
   7111.33  1.6165057E-01
   7111.67  1.7815201E-01
   7112.00  1.9886076E-01
   7112.33  2.2262223E-01
   7112.67  2.3316532E-01
   7113.00  2.3629113E-01
   7113.33  2.4328166E-01
   7113.67  2.5596232E-01
   7114.00  2.6940501E-01
   7114.33  2.5843058E-01
   7114.67  2.2069076E-01
   7115.00  1.7654020E-01
   7115.33  1.4302229E-01
   7115.67  1.2020938E-01
   7116.00  1.0490569E-01
   7116.33  9.4413192E-02
   7116.67  8.7207063E-02
   7117.00  8.3017584E-02
   7117.33  8.1866809E-02
   7117.67  8.3241645E-02
   7118.00  8.7007435E-02
   7118.33  9.2850986E-02
   7118.67  9.9358956E-02
   7119.00  1.0553975E-01
   7119.33  1.1111329E-01
   7119.67  1.1668094E-01
   7120.00  1.2269541E-01
   7120.33  1.2956614E-01
   7120.67  1.3743485E-01
   7121.00  1.4653837E-01
   7121.33  1.5735060E-01
   7121.67  1.6981137E-01
   7122.00  1.8376368E-01
   7122.33  1.9903380E-01
   7122.67  2.1577027E-01
   7123.00  2.3488349E-01
   7123.33  2.5740372E-01
   7123.67  2.8235999E-01
   7124.00  3.0874850E-01
   7124.33  3.3605296E-01
   7124.67  3.6453289E-01
   7125.00  3.9471520E-01
   7125.33  4.2680959E-01
   7125.67  4.5972184E-01
   7126.00  4.9176863E-01
   7126.33  5.1939630E-01
   7126.67  5.4028205E-01
   7127.00  5.5375963E-01
   7127.33  5.6025830E-01
   7127.67  5.6195187E-01
   7128.00  5.5946043E-01
   7128.33  5.5271284E-01
   7128.67  5.4284969E-01
   7129.00  5.3137366E-01
   7129.33  5.2132704E-01
   7129.67  5.1530935E-01
   7130.00  5.1481487E-01
   7130.33  5.2154758E-01
   7130.67  5.3500347E-01
   7131.00  5.5494488E-01
   7131.33  5.8118816E-01
   7131.67  6.1170262E-01
   7132.00  6.4534109E-01
   7132.33  6.8171506E-01
   7132.67  7.2118015E-01
   7133.00  7.6530526E-01
   7133.33  8.1603829E-01
   7133.67  8.7087805E-01
   7134.00  9.2606013E-01
   7134.33  9.7674984E-01
   7134.67  1.0209861E+00
   7135.00  1.0575318E+00
   7135.33  1.0830033E+00
   7135.67  1.0959835E+00
   7136.00  1.0949951E+00
   7136.33  1.0781466E+00
   7136.67  1.0489067E+00
   7137.00  1.0100703E+00
   7137.33  9.6494215E-01
   7137.67  9.1791364E-01
   7138.00  8.7130844E-01
   7138.33  8.2697754E-01
   7138.67  7.8534700E-01
   7139.00  7.4656956E-01
   7139.33  7.1097077E-01
   7139.67  6.7812211E-01
   7140.00  6.4800440E-01
   7140.33  6.2103657E-01
   7140.67  5.9700372E-01
   7141.00  5.7602790E-01
   7141.33  5.5859712E-01
   7141.67  5.4432199E-01
   7142.00  5.3312000E-01
   7142.33  5.2515357E-01
   7142.67  5.1977516E-01
   7143.00  5.1668738E-01
   7143.33  5.1576155E-01
   7143.67  5.1637399E-01
   7144.00  5.1816809E-01
   7144.33  5.2080259E-01
   7144.67  5.2374020E-01
   7145.00  5.2659801E-01
   7145.33  5.2887683E-01
   7145.67  5.3024105E-01
   7146.00  5.3039750E-01
   7146.33  5.2891685E-01
   7146.67  5.2584488E-01
   7147.00  5.2112394E-01
   7147.33  5.1454112E-01
   7147.67  5.0638865E-01
   7148.00  4.9683008E-01
   7148.33  4.8602392E-01
   7148.67  4.7450030E-01
   7149.00  4.6264362E-01
   7149.33  4.5092225E-01
   7149.67  4.3972261E-01
   7150.00  4.2931732E-01
   7150.33  4.2005580E-01
   7150.67  4.1191202E-01
   7151.00  4.0486005E-01
   7151.33  3.9889498E-01
   7151.67  3.9371919E-01
   7152.00  3.8917547E-01
   7152.33  3.8516316E-01
   7152.67  3.8150606E-01
   7153.00  3.7814379E-01
   7153.33  3.7507536E-01
   7153.67  3.7225422E-01
   7154.00  3.6967669E-01
   7154.33  3.6738050E-01
   7154.67  3.6534551E-01
   7155.00  3.6357865E-01
   7155.33  3.6211590E-01
   7155.67  3.6091853E-01
   7156.00  3.5997633E-01
   7156.33  3.5929943E-01
   7156.67  3.5883107E-01
   7157.00  3.5854206E-01
   7157.33  3.5840941E-01
   7157.67  3.5836893E-01
   7158.00  3.5837559E-01
   7158.33  3.5837099E-01
   7158.67  3.5829593E-01
   7159.00  3.5809776E-01
   7159.33  3.5769438E-01
   7159.67  3.5705595E-01
   7160.00  3.5614711E-01
   7160.33  3.5490801E-01
   7160.67  3.5337790E-01
   7161.00  3.5158187E-01
   7161.33  3.4954982E-01
   7161.67  3.4739560E-01
   7162.00  3.4521589E-01
   7162.33  3.4314612E-01
   7162.67  3.4129449E-01
   7163.00  3.3975250E-01
   7163.33  3.3865401E-01
   7163.67  3.3800987E-01
   7164.00  3.3785486E-01
   7164.33  3.3827664E-01
   7164.67  3.3922085E-01
   7165.00  3.4068730E-01
   7165.33  3.4273229E-01
   7165.67  3.4527719E-01
   7166.00  3.4830515E-01
   7166.33  3.5184834E-01
   7166.67  3.5581846E-01
   7167.00  3.6018429E-01
   7167.33  3.6494880E-01
   7167.67  3.7002099E-01
   7168.00  3.7535712E-01
   7168.33  3.8092999E-01
   7168.67  3.8665835E-01
   7169.00  3.9249486E-01
   7169.33  3.9839272E-01
   7169.67  4.0429371E-01
   7170.00  4.1015492E-01
   7170.33  4.1591482E-01
   7170.67  4.2152801E-01
   7171.00  4.2693040E-01
   7171.33  4.3196170E-01
   7171.67  4.3644760E-01
   7172.00  4.4010603E-01
