    FDMNES
    energy     <xanes>
   7097.00  5.0362565E-03
   7097.33  5.1588929E-03
   7097.67  5.2872431E-03
   7098.00  5.4217025E-03
   7098.33  5.5636086E-03
   7098.67  5.7127034E-03
   7099.00  5.8695288E-03
   7099.33  6.0358439E-03
   7099.67  6.2113880E-03
   7100.00  6.3969240E-03
   7100.33  6.5948275E-03
   7100.67  6.8048653E-03
   7101.00  7.0281456E-03
   7101.33  7.2679794E-03
   7101.67  7.5242268E-03
   7102.00  7.7985593E-03
   7102.33  8.0957710E-03
   7102.67  8.4159612E-03
   7103.00  8.7617694E-03
   7103.33  9.1404678E-03
   7103.67  9.5527292E-03
   7104.00  1.0002964E-02
   7104.33  1.0502867E-02
   7104.67  1.1054493E-02
   7105.00  1.1665757E-02
   7105.33  1.2356936E-02
   7105.67  1.3133594E-02
   7106.00  1.4011331E-02
   7106.33  1.5029027E-02
   7106.67  1.6202044E-02
   7107.00  1.7565345E-02
   7107.33  1.9204769E-02
   7107.67  2.1167615E-02
   7108.00  2.3548263E-02
   7108.33  2.6580656E-02
   7108.67  3.0444959E-02
   7109.00  3.5481584E-02
   7109.33  4.2585842E-02
   7109.67  5.2755299E-02
   7110.00  6.7941616E-02
   7110.33  9.3772890E-02
   7110.67  1.3658839E-01
   7111.00  1.9955778E-01
   7111.33  2.6711356E-01
   7111.67  3.1696856E-01
   7112.00  3.4301213E-01
   7112.33  3.4301682E-01
   7112.67  3.1353836E-01
   7113.00  2.7785315E-01
   7113.33  2.6729044E-01
   7113.67  2.8273537E-01
   7114.00  3.2161591E-01
   7114.33  3.6726420E-01
   7114.67  3.8747144E-01
   7115.00  3.7842406E-01
   7115.33  3.5325262E-01
   7115.67  3.1163566E-01
   7116.00  2.5930749E-01
   7116.33  2.1697491E-01
   7116.67  1.9211016E-01
   7117.00  1.8310721E-01
   7117.33  1.8409247E-01
   7117.67  1.8387494E-01
   7118.00  1.7752357E-01
   7118.33  1.6671692E-01
   7118.67  1.5605427E-01
   7119.00  1.4724291E-01
   7119.33  1.4083339E-01
   7119.67  1.3571500E-01
   7120.00  1.3108641E-01
   7120.33  1.2795607E-01
   7120.67  1.2716270E-01
   7121.00  1.2866935E-01
   7121.33  1.3238487E-01
   7121.67  1.3765140E-01
   7122.00  1.4423850E-01
   7122.33  1.5234077E-01
   7122.67  1.6160704E-01
   7123.00  1.7192625E-01
   7123.33  1.8450062E-01
   7123.67  2.0031264E-01
   7124.00  2.1987648E-01
   7124.33  2.4363620E-01
   7124.67  2.7017642E-01
   7125.00  2.9744282E-01
   7125.33  3.2214645E-01
   7125.67  3.4433373E-01
   7126.00  3.6611510E-01
   7126.33  3.8862774E-01
   7126.67  4.1096821E-01
   7127.00  4.3225891E-01
   7127.33  4.5083068E-01
   7127.67  4.6500424E-01
   7128.00  4.7420362E-01
   7128.33  4.8055472E-01
   7128.67  4.8878976E-01
   7129.00  5.0224778E-01
   7129.33  5.2338139E-01
   7129.67  5.4910128E-01
   7130.00  5.7482354E-01
   7130.33  5.9631701E-01
   7130.67  6.1510185E-01
   7131.00  6.3302923E-01
   7131.33  6.4945883E-01
   7131.67  6.6224830E-01
   7132.00  6.7022318E-01
   7132.33  6.7351352E-01
   7132.67  6.7442264E-01
   7133.00  6.7447980E-01
   7133.33  6.7537431E-01
   7133.67  6.7816297E-01
   7134.00  6.8252516E-01
   7134.33  6.8622793E-01
   7134.67  6.8764291E-01
   7135.00  6.8707802E-01
   7135.33  6.8547012E-01
   7135.67  6.8327958E-01
   7136.00  6.8029537E-01
   7136.33  6.7607803E-01
   7136.67  6.7068468E-01
   7137.00  6.6426223E-01
   7137.33  6.5706477E-01
   7137.67  6.4959803E-01
   7138.00  6.4227035E-01
   7138.33  6.3575871E-01
   7138.67  6.3069457E-01
   7139.00  6.2771147E-01
   7139.33  6.2764400E-01
   7139.67  6.3020215E-01
   7140.00  6.3498409E-01
   7140.33  6.4136255E-01
   7140.67  6.4831514E-01
   7141.00  6.5532750E-01
   7141.33  6.6214324E-01
   7141.67  6.6881967E-01
   7142.00  6.7538531E-01
   7142.33  6.8160229E-01
   7142.67  6.8705378E-01
   7143.00  6.9133006E-01
   7143.33  6.9404781E-01
   7143.67  6.9555528E-01
   7144.00  6.9620281E-01
   7144.33  6.9641080E-01
   7144.67  6.9663297E-01
   7145.00  6.9709478E-01
   7145.33  6.9792120E-01
   7145.67  6.9896037E-01
   7146.00  6.9997451E-01
   7146.33  7.0050768E-01
   7146.67  7.0014531E-01
   7147.00  6.9850401E-01
   7147.33  6.9504380E-01
   7147.67  6.8981981E-01
   7148.00  6.8288865E-01
   7148.33  6.7433457E-01
   7148.67  6.6475326E-01
   7149.00  6.5455437E-01
   7149.33  6.4416259E-01
   7149.67  6.3392586E-01
   7150.00  6.2401163E-01
   7150.33  6.1455393E-01
   7150.67  6.0549258E-01
   7151.00  5.9677923E-01
   7151.33  5.8838612E-01
   7151.67  5.8023620E-01
   7152.00  5.7231058E-01
   7152.33  5.6462751E-01
   7152.67  5.5716772E-01
   7153.00  5.4994147E-01
   7153.33  5.4299498E-01
   7153.67  5.3631491E-01
   7154.00  5.2991483E-01
   7154.33  5.2384981E-01
   7154.67  5.1810784E-01
   7155.00  5.1271956E-01
   7155.33  5.0778335E-01
   7155.67  5.0331006E-01
   7156.00  4.9935954E-01
   7156.33  4.9607805E-01
   7156.67  4.9345746E-01
   7157.00  4.9154265E-01
   7157.33  4.9045478E-01
   7157.67  4.9009913E-01
   7158.00  4.9044454E-01
   7158.33  4.9149974E-01
   7158.67  4.9308065E-01
   7159.00  4.9507246E-01
   7159.33  4.9735320E-01
   7159.67  4.9972310E-01
   7160.00  5.0203306E-01
   7160.33  5.0408043E-01
   7160.67  5.0572717E-01
   7161.00  5.0683871E-01
   7161.33  5.0718894E-01
   7161.67  5.0674814E-01
   7162.00  5.0544672E-01
   7162.33  5.0312856E-01
   7162.67  4.9990375E-01
   7163.00  4.9579755E-01
   7163.33  4.9076676E-01
   7163.67  4.8499992E-01
   7164.00  4.7858377E-01
   7164.33  4.7155991E-01
   7164.67  4.6411521E-01
   7165.00  4.5635938E-01
   7165.33  4.4839984E-01
   7165.67  4.4038793E-01
   7166.00  4.3243009E-01
   7166.33  4.2465953E-01
   7166.67  4.1715065E-01
   7167.00  4.0997150E-01
   7167.33  4.0323573E-01
   7167.67  3.9694343E-01
   7168.00  3.9112597E-01
   7168.33  3.8587225E-01
   7168.67  3.8113901E-01
   7169.00  3.7693929E-01
   7169.33  3.7334640E-01
   7169.67  3.7028748E-01
   7170.00  3.6775518E-01
   7170.33  3.6579974E-01
   7170.67  3.6433315E-01
   7171.00  3.6332286E-01
   7171.33  3.6275599E-01
   7171.67  3.6247556E-01
   7172.00  3.6234024E-01
