    FDMNES
    energy     <xanes>
   7097.00  4.8855050E-03
   7097.33  4.9989894E-03
   7097.67  5.1175771E-03
   7098.00  5.2416132E-03
   7098.33  5.3722785E-03
   7098.67  5.5093318E-03
   7099.00  5.6532435E-03
   7099.33  5.8055582E-03
   7099.67  5.9660293E-03
   7100.00  6.1353156E-03
   7100.33  6.3154906E-03
   7100.67  6.5063262E-03
   7101.00  6.7087743E-03
   7101.33  6.9257055E-03
   7101.67  7.1569639E-03
   7102.00  7.4039755E-03
   7102.33  7.6708660E-03
   7102.67  7.9576687E-03
   7103.00  8.2666182E-03
   7103.33  8.6039182E-03
   7103.67  8.9700595E-03
   7104.00  9.3687403E-03
   7104.33  9.8098329E-03
   7104.67  1.0294927E-02
   7105.00  1.0830580E-02
   7105.33  1.1433687E-02
   7105.67  1.2108600E-02
   7106.00  1.2868046E-02
   7106.33  1.3743873E-02
   7106.67  1.4748043E-02
   7107.00  1.5908509E-02
   7107.33  1.7294032E-02
   7107.67  1.8940906E-02
   7108.00  2.0922675E-02
   7108.33  2.3421434E-02
   7108.67  2.6572616E-02
   7109.00  3.0633696E-02
   7109.33  3.6279367E-02
   7109.67  4.4244799E-02
   7110.00  5.5968906E-02
   7110.33  7.5575994E-02
   7110.67  1.0753114E-01
   7111.00  1.5353005E-01
   7111.33  1.9954868E-01
   7111.67  2.2892006E-01
   7112.00  2.5532626E-01
   7112.33  2.9729965E-01
   7112.67  3.4848653E-01
   7113.00  3.9875581E-01
   7113.33  4.2320323E-01
   7113.67  3.9634899E-01
   7114.00  3.1865397E-01
   7114.33  2.3955544E-01
   7114.67  1.8889391E-01
   7115.00  1.6419339E-01
   7115.33  1.6183489E-01
   7115.67  1.7591804E-01
   7116.00  2.0218739E-01
   7116.33  2.3168178E-01
   7116.67  2.5113710E-01
   7117.00  2.4324256E-01
   7117.33  2.0552173E-01
   7117.67  1.6787878E-01
   7118.00  1.4126190E-01
   7118.33  1.2615751E-01
   7118.67  1.1793073E-01
   7119.00  1.1470449E-01
   7119.33  1.1427520E-01
   7119.67  1.1307346E-01
   7120.00  1.0988854E-01
   7120.33  1.0572816E-01
   7120.67  1.0305712E-01
   7121.00  1.0295078E-01
   7121.33  1.0576318E-01
   7121.67  1.1096802E-01
   7122.00  1.1865961E-01
   7122.33  1.2986788E-01
   7122.67  1.4531574E-01
   7123.00  1.6584954E-01
   7123.33  1.9212662E-01
   7123.67  2.2184200E-01
   7124.00  2.5260221E-01
   7124.33  2.8184037E-01
   7124.67  3.0789357E-01
   7125.00  3.2911094E-01
   7125.33  3.4355122E-01
   7125.67  3.5235661E-01
   7126.00  3.5680867E-01
   7126.33  3.5947490E-01
   7126.67  3.6433137E-01
   7127.00  3.7412959E-01
   7127.33  3.9115410E-01
   7127.67  4.1392947E-01
   7128.00  4.4041810E-01
   7128.33  4.6815626E-01
   7128.67  4.9550982E-01
   7129.00  5.2189344E-01
   7129.33  5.4703879E-01
   7129.67  5.7181725E-01
   7130.00  5.9724045E-01
   7130.33  6.2420665E-01
   7130.67  6.5227716E-01
   7131.00  6.8053561E-01
   7131.33  7.0766113E-01
   7131.67  7.3301737E-01
   7132.00  7.5604936E-01
   7132.33  7.7523616E-01
   7132.67  7.8986837E-01
   7133.00  7.9965472E-01
   7133.33  8.0469406E-01
   7133.67  8.0653911E-01
   7134.00  8.0580778E-01
   7134.33  8.0243305E-01
   7134.67  7.9652620E-01
   7135.00  7.8750584E-01
   7135.33  7.7386726E-01
   7135.67  7.5601598E-01
   7136.00  7.3529048E-01
   7136.33  7.1414865E-01
   7136.67  6.9484476E-01
   7137.00  6.7848290E-01
   7137.33  6.6581727E-01
   7137.67  6.5606663E-01
   7138.00  6.4864222E-01
   7138.33  6.4302222E-01
   7138.67  6.3838888E-01
   7139.00  6.3432529E-01
   7139.33  6.3051159E-01
   7139.67  6.2675181E-01
   7140.00  6.2306444E-01
   7140.33  6.1968597E-01
   7140.67  6.1692507E-01
   7141.00  6.1513019E-01
   7141.33  6.1488796E-01
   7141.67  6.1642094E-01
   7142.00  6.2004176E-01
   7142.33  6.2635782E-01
   7142.67  6.3524509E-01
   7143.00  6.4664172E-01
   7143.33  6.6027221E-01
   7143.67  6.7462104E-01
   7144.00  6.8786308E-01
   7144.33  6.9666573E-01
   7144.67  6.9865285E-01
   7145.00  6.9226631E-01
   7145.33  6.7660586E-01
   7145.67  6.5478777E-01
   7146.00  6.2940821E-01
   7146.33  6.0337531E-01
   7146.67  5.7901079E-01
   7147.00  5.5747556E-01
   7147.33  5.3978343E-01
   7147.67  5.2552335E-01
   7148.00  5.1443645E-01
   7148.33  5.0641448E-01
   7148.67  5.0066046E-01
   7149.00  4.9684780E-01
   7149.33  4.9489611E-01
   7149.67  4.9439068E-01
   7150.00  4.9519262E-01
   7150.33  4.9730171E-01
   7150.67  5.0041523E-01
   7151.00  5.0437166E-01
   7151.33  5.0902455E-01
   7151.67  5.1405085E-01
   7152.00  5.1924854E-01
   7152.33  5.2442605E-01
   7152.67  5.2947355E-01
   7153.00  5.3435625E-01
   7153.33  5.3906073E-01
   7153.67  5.4363199E-01
   7154.00  5.4808194E-01
   7154.33  5.5237711E-01
   7154.67  5.5648186E-01
   7155.00  5.6032609E-01
   7155.33  5.6376539E-01
   7155.67  5.6673926E-01
   7156.00  5.6916159E-01
   7156.33  5.7086716E-01
   7156.67  5.7187325E-01
   7157.00  5.7214891E-01
   7157.33  5.7159416E-01
   7157.67  5.7032354E-01
   7158.00  5.6837730E-01
   7158.33  5.6574524E-01
   7158.67  5.6258280E-01
   7159.00  5.5896216E-01
   7159.33  5.5492022E-01
   7159.67  5.5058375E-01
   7160.00  5.4601581E-01
   7160.33  5.4125950E-01
   7160.67  5.3638884E-01
   7161.00  5.3144189E-01
   7161.33  5.2645000E-01
   7161.67  5.2144613E-01
   7162.00  5.1644806E-01
   7162.33  5.1147116E-01
   7162.67  5.0651882E-01
   7163.00  5.0159065E-01
   7163.33  4.9668144E-01
   7163.67  4.9177892E-01
   7164.00  4.8687639E-01
   7164.33  4.8196980E-01
   7164.67  4.7706295E-01
   7165.00  4.7216657E-01
   7165.33  4.6730656E-01
   7165.67  4.6251041E-01
   7166.00  4.5781119E-01
   7166.33  4.5326646E-01
   7166.67  4.4889703E-01
   7167.00  4.4473084E-01
   7167.33  4.4081928E-01
   7167.67  4.3714617E-01
   7168.00  4.3371701E-01
   7168.33  4.3056071E-01
   7168.67  4.2763339E-01
   7169.00  4.2491962E-01
   7169.33  4.2242614E-01
   7169.67  4.2011326E-01
   7170.00  4.1797112E-01
   7170.33  4.1601281E-01
   7170.67  4.1421559E-01
   7171.00  4.1258233E-01
   7171.33  4.1114724E-01
   7171.67  4.0991551E-01
   7172.00  4.0892235E-01
