    FDMNES
    energy     <xanes>
   7097.00  4.8851696E-03
   7097.33  4.9977586E-03
   7097.67  5.1153242E-03
   7098.00  5.2381965E-03
   7098.33  5.3675158E-03
   7098.67  5.5030375E-03
   7099.00  5.6452091E-03
   7099.33  5.7955141E-03
   7099.67  5.9536995E-03
   7100.00  6.1203879E-03
   7100.33  6.2975587E-03
   7100.67  6.4849711E-03
   7101.00  6.6835186E-03
   7101.33  6.8959226E-03
   7101.67  7.1220011E-03
   7102.00  7.3630833E-03
   7102.33  7.6230492E-03
   7102.67  7.9018787E-03
   7103.00  8.2016378E-03
   7103.33  8.5281090E-03
   7103.67  8.8816696E-03
   7104.00  9.2657075E-03
   7104.33  9.6893336E-03
   7104.67  1.0153884E-02
   7105.00  1.0665308E-02
   7105.33  1.1239024E-02
   7105.67  1.1878781E-02
   7106.00  1.2596004E-02
   7106.33  1.3419416E-02
   7106.67  1.4359404E-02
   7107.00  1.5440808E-02
   7107.33  1.6724924E-02
   7107.67  1.8243411E-02
   7108.00  2.0061179E-02
   7108.33  2.2339394E-02
   7108.67  2.5197419E-02
   7109.00  2.8863839E-02
   7109.33  3.3941670E-02
   7109.67  4.1099250E-02
   7110.00  5.1653000E-02
   7110.33  6.9325434E-02
   7110.67  9.7226803E-02
   7111.00  1.3223314E-01
   7111.33  1.5735479E-01
   7111.67  1.8025575E-01
   7112.00  2.1991145E-01
   7112.33  2.8569951E-01
   7112.67  3.5455247E-01
   7113.00  3.9890370E-01
   7113.33  4.1397827E-01
   7113.67  3.8845450E-01
   7114.00  3.1473915E-01
   7114.33  2.3633822E-01
   7114.67  1.8517655E-01
   7115.00  1.6048716E-01
   7115.33  1.5884789E-01
   7115.67  1.7481299E-01
   7116.00  2.0535008E-01
   7116.33  2.4073457E-01
   7116.67  2.7150331E-01
   7117.00  2.9435008E-01
   7117.33  2.8526906E-01
   7117.67  2.4517810E-01
   7118.00  2.0021531E-01
   7118.33  1.6795595E-01
   7118.67  1.4608073E-01
   7119.00  1.3188830E-01
   7119.33  1.2422164E-01
   7119.67  1.2102587E-01
   7120.00  1.2075121E-01
   7120.33  1.2100349E-01
   7120.67  1.2119721E-01
   7121.00  1.2314932E-01
   7121.33  1.2913648E-01
   7121.67  1.3881547E-01
   7122.00  1.5135058E-01
   7122.33  1.6564780E-01
   7122.67  1.8046476E-01
   7123.00  1.9541349E-01
   7123.33  2.1059643E-01
   7123.67  2.2616164E-01
   7124.00  2.4197276E-01
   7124.33  2.5738142E-01
   7124.67  2.7166087E-01
   7125.00  2.8433731E-01
   7125.33  2.9487314E-01
   7125.67  3.0345900E-01
   7126.00  3.1057830E-01
   7126.33  3.1753971E-01
   7126.67  3.2604547E-01
   7127.00  3.3746350E-01
   7127.33  3.5371563E-01
   7127.67  3.7545467E-01
   7128.00  4.0349836E-01
   7128.33  4.3912494E-01
   7128.67  4.8088009E-01
   7129.00  5.2712726E-01
   7129.33  5.7507723E-01
   7129.67  6.2131026E-01
   7130.00  6.6401211E-01
   7130.33  7.0288487E-01
   7130.67  7.4023920E-01
   7131.00  7.7734668E-01
   7131.33  8.1356501E-01
   7131.67  8.4633623E-01
   7132.00  8.7262166E-01
   7132.33  8.8844392E-01
   7132.67  8.9427978E-01
   7133.00  8.9152790E-01
   7133.33  8.8251394E-01
   7133.67  8.7082024E-01
   7134.00  8.5792282E-01
   7134.33  8.4416432E-01
   7134.67  8.2909323E-01
   7135.00  8.1187205E-01
   7135.33  7.9137157E-01
   7135.67  7.6800999E-01
   7136.00  7.4260472E-01
   7136.33  7.1655693E-01
   7136.67  6.9141598E-01
   7137.00  6.6815028E-01
   7137.33  6.4773596E-01
   7137.67  6.3007768E-01
   7138.00  6.1513121E-01
   7138.33  6.0302060E-01
   7138.67  5.9317931E-01
   7139.00  5.8537303E-01
   7139.33  5.7955209E-01
   7139.67  5.7527307E-01
   7140.00  5.7240506E-01
   7140.33  5.7103668E-01
   7140.67  5.7099227E-01
   7141.00  5.7230159E-01
   7141.33  5.7518800E-01
   7141.67  5.7949641E-01
   7142.00  5.8517930E-01
   7142.33  5.9219323E-01
   7142.67  5.9998711E-01
   7143.00  6.0800247E-01
   7143.33  6.1524046E-01
   7143.67  6.2066200E-01
   7144.00  6.2327019E-01
   7144.33  6.2166463E-01
   7144.67  6.1591915E-01
   7145.00  6.0626802E-01
   7145.33  5.9322446E-01
   7145.67  5.7841388E-01
   7146.00  5.6290486E-01
   7146.33  5.4782411E-01
   7146.67  5.3396183E-01
   7147.00  5.2181154E-01
   7147.33  5.1193113E-01
   7147.67  5.0415642E-01
   7148.00  4.9844440E-01
   7148.33  4.9484688E-01
   7148.67  4.9287173E-01
   7149.00  4.9229339E-01
   7149.33  4.9301378E-01
   7149.67  4.9467888E-01
   7150.00  4.9714072E-01
   7150.33  5.0034444E-01
   7150.67  5.0409977E-01
   7151.00  5.0832854E-01
   7151.33  5.1299393E-01
   7151.67  5.1796426E-01
   7152.00  5.2316818E-01
   7152.33  5.2854265E-01
   7152.67  5.3399446E-01
   7153.00  5.3947215E-01
   7153.33  5.4493258E-01
   7153.67  5.5035954E-01
   7154.00  5.5575401E-01
   7154.33  5.6112179E-01
   7154.67  5.6646560E-01
   7155.00  5.7176566E-01
   7155.33  5.7695667E-01
   7155.67  5.8196497E-01
   7156.00  5.8669524E-01
   7156.33  5.9097057E-01
   7156.67  5.9471109E-01
   7157.00  5.9781142E-01
   7157.33  6.0007316E-01
   7157.67  6.0151013E-01
   7158.00  6.0207783E-01
   7158.33  6.0164054E-01
   7158.67  6.0031376E-01
   7159.00  5.9812047E-01
   7159.33  5.9500387E-01
   7159.67  5.9112820E-01
   7160.00  5.8655590E-01
   7160.33  5.8128841E-01
   7160.67  5.7548280E-01
   7161.00  5.6920662E-01
   7161.33  5.6248825E-01
   7161.67  5.5545599E-01
   7162.00  5.4817782E-01
   7162.33  5.4070843E-01
   7162.67  5.3314397E-01
   7163.00  5.2554609E-01
   7163.33  5.1798377E-01
   7163.67  5.1051157E-01
   7164.00  5.0317421E-01
   7164.33  4.9603763E-01
   7164.67  4.8911176E-01
   7165.00  4.8241565E-01
   7165.33  4.7599351E-01
   7165.67  4.6982123E-01
   7166.00  4.6389995E-01
   7166.33  4.5826018E-01
   7166.67  4.5286968E-01
   7167.00  4.4772692E-01
   7167.33  4.4286078E-01
   7167.67  4.3824355E-01
   7168.00  4.3387449E-01
   7168.33  4.2977197E-01
   7168.67  4.2589021E-01
   7169.00  4.2221444E-01
   7169.33  4.1875264E-01
   7169.67  4.1546969E-01
   7170.00  4.1236154E-01
   7170.33  4.0945405E-01
   7170.67  4.0673950E-01
   7171.00  4.0424057E-01
   7171.33  4.0202941E-01
   7171.67  4.0013353E-01
   7172.00  3.9861570E-01
