    FDMNES
    energy     <xanes>
   7097.00  4.8614680E-03
   7097.33  4.9776826E-03
   7097.67  5.0993627E-03
   7098.00  5.2268955E-03
   7098.33  5.3615757E-03
   7098.67  5.5031694E-03
   7099.00  5.6522112E-03
   7099.33  5.8104167E-03
   7099.67  5.9775557E-03
   7100.00  6.1543879E-03
   7100.33  6.3432502E-03
   7100.67  6.5439499E-03
   7101.00  6.7576016E-03
   7101.33  6.9874963E-03
   7101.67  7.2335517E-03
   7102.00  7.4974689E-03
   7102.33  7.7840690E-03
   7102.67  8.0935425E-03
   7103.00  8.4286102E-03
   7103.33  8.7966849E-03
   7103.67  9.1986018E-03
   7104.00  9.6389712E-03
   7104.33  1.0129898E-02
   7104.67  1.0673766E-02
   7105.00  1.1278975E-02
   7105.33  1.1966876E-02
   7105.67  1.2743783E-02
   7106.00  1.3626527E-02
   7106.33  1.4656809E-02
   7106.67  1.5851961E-02
   7107.00  1.7250326E-02
   7107.33  1.8945706E-02
   7107.67  2.0991492E-02
   7108.00  2.3492694E-02
   7108.33  2.6709181E-02
   7108.67  3.0844430E-02
   7109.00  3.6280454E-02
   7109.33  4.4020497E-02
   7109.67  5.5184775E-02
   7110.00  7.1956467E-02
   7110.33  1.0061406E-01
   7110.67  1.4827466E-01
   7111.00  2.1939846E-01
   7111.33  3.0524451E-01
   7111.67  3.8200471E-01
   7112.00  4.0614196E-01
   7112.33  3.5719089E-01
   7112.67  3.0644148E-01
   7113.00  2.8307899E-01
   7113.33  2.8436080E-01
   7113.67  2.8516346E-01
   7114.00  2.6876190E-01
   7114.33  2.3729645E-01
   7114.67  2.1150216E-01
   7115.00  1.9713779E-01
   7115.33  1.9005089E-01
   7115.67  1.8643115E-01
   7116.00  1.8478454E-01
   7116.33  1.8066496E-01
   7116.67  1.7308613E-01
   7117.00  1.6445988E-01
   7117.33  1.5758406E-01
   7117.67  1.5259330E-01
   7118.00  1.4835368E-01
   7118.33  1.4330798E-01
   7118.67  1.3718530E-01
   7119.00  1.3052009E-01
   7119.33  1.2409338E-01
   7119.67  1.1832227E-01
   7120.00  1.1343755E-01
   7120.33  1.0991650E-01
   7120.67  1.0792950E-01
   7121.00  1.0758654E-01
   7121.33  1.0896668E-01
   7121.67  1.1165711E-01
   7122.00  1.1553652E-01
   7122.33  1.2075220E-01
   7122.67  1.2723574E-01
   7123.00  1.3503133E-01
   7123.33  1.4412661E-01
   7123.67  1.5389299E-01
   7124.00  1.6399122E-01
   7124.33  1.7491809E-01
   7124.67  1.8754156E-01
   7125.00  2.0230367E-01
   7125.33  2.1904883E-01
   7125.67  2.3659667E-01
   7126.00  2.5425427E-01
   7126.33  2.7202026E-01
   7126.67  2.9087392E-01
   7127.00  3.1185994E-01
   7127.33  3.3565667E-01
   7127.67  3.6124243E-01
   7128.00  3.8772484E-01
   7128.33  4.1450755E-01
   7128.67  4.4172687E-01
   7129.00  4.7015922E-01
   7129.33  5.0129912E-01
   7129.67  5.3542215E-01
   7130.00  5.7202974E-01
   7130.33  6.0967602E-01
   7130.67  6.4619567E-01
   7131.00  6.7991671E-01
   7131.33  7.0900419E-01
   7131.67  7.3369990E-01
   7132.00  7.5465536E-01
   7132.33  7.7307155E-01
   7132.67  7.9090230E-01
   7133.00  8.0920883E-01
   7133.33  8.2834061E-01
   7133.67  8.4706386E-01
   7134.00  8.6327039E-01
   7134.33  8.7296690E-01
   7134.67  8.7395243E-01
   7135.00  8.6517450E-01
   7135.33  8.4643467E-01
   7135.67  8.2114772E-01
   7136.00  7.9153411E-01
   7136.33  7.5959418E-01
   7136.67  7.2729610E-01
   7137.00  6.9569168E-01
   7137.33  6.6582953E-01
   7137.67  6.3809109E-01
   7138.00  6.1281946E-01
   7138.33  5.9063948E-01
   7138.67  5.7140195E-01
   7139.00  5.5522535E-01
   7139.33  5.4259643E-01
   7139.67  5.3316409E-01
   7140.00  5.2691412E-01
   7140.33  5.2412427E-01
   7140.67  5.2416928E-01
   7141.00  5.2671419E-01
   7141.33  5.3147053E-01
   7141.67  5.3755742E-01
   7142.00  5.4442017E-01
   7142.33  5.5152203E-01
   7142.67  5.5843330E-01
   7143.00  5.6495965E-01
   7143.33  5.7098407E-01
   7143.67  5.7663965E-01
   7144.00  5.8206510E-01
   7144.33  5.8745907E-01
   7144.67  5.9302948E-01
   7145.00  5.9892459E-01
   7145.33  6.0531194E-01
   7145.67  6.1216220E-01
   7146.00  6.1941661E-01
   7146.33  6.2694558E-01
   7146.67  6.3447935E-01
   7147.00  6.4177732E-01
   7147.33  6.4849614E-01
   7147.67  6.5446371E-01
   7148.00  6.5953438E-01
   7148.33  6.6349225E-01
   7148.67  6.6644324E-01
   7149.00  6.6841258E-01
   7149.33  6.6934245E-01
   7149.67  6.6941911E-01
   7150.00  6.6869601E-01
   7150.33  6.6712452E-01
   7150.67  6.6482621E-01
   7151.00  6.6181152E-01
   7151.33  6.5799111E-01
   7151.67  6.5344569E-01
   7152.00  6.4816628E-01
   7152.33  6.4206734E-01
   7152.67  6.3526272E-01
   7153.00  6.2776808E-01
   7153.33  6.1952501E-01
   7153.67  6.1066064E-01
   7154.00  6.0123029E-01
   7154.33  5.9125716E-01
   7154.67  5.8090440E-01
   7155.00  5.7027436E-01
   7155.33  5.5947974E-01
   7155.67  5.4867750E-01
   7156.00  5.3798945E-01
   7156.33  5.2758738E-01
   7156.67  5.1757260E-01
   7157.00  5.0805004E-01
   7157.33  4.9920252E-01
   7157.67  4.9104786E-01
   7158.00  4.8365327E-01
   7158.33  4.7717889E-01
   7158.67  4.7155494E-01
   7159.00  4.6678906E-01
   7159.33  4.6297264E-01
   7159.67  4.5996223E-01
   7160.00  4.5770823E-01
   7160.33  4.5622251E-01
   7160.67  4.5533392E-01
   7161.00  4.5496339E-01
   7161.33  4.5506977E-01
   7161.67  4.5550235E-01
   7162.00  4.5617601E-01
   7162.33  4.5702515E-01
   7162.67  4.5795869E-01
   7163.00  4.5892146E-01
   7163.33  4.5985178E-01
   7163.67  4.6070107E-01
   7164.00  4.6142864E-01
   7164.33  4.6197112E-01
   7164.67  4.6231053E-01
   7165.00  4.6241727E-01
   7165.33  4.6222860E-01
   7165.67  4.6175267E-01
   7166.00  4.6097306E-01
   7166.33  4.5983630E-01
   7166.67  4.5837373E-01
   7167.00  4.5658423E-01
   7167.33  4.5444042E-01
   7167.67  4.5200667E-01
   7168.00  4.4930544E-01
   7168.33  4.4633827E-01
   7168.67  4.4317646E-01
   7169.00  4.3986355E-01
   7169.33  4.3644493E-01
   7169.67  4.3299429E-01
   7170.00  4.2956650E-01
   7170.33  4.2623573E-01
   7170.67  4.2305296E-01
   7171.00  4.2007156E-01
   7171.33  4.1739565E-01
   7171.67  4.1508509E-01
   7172.00  4.1324249E-01
