    FDMNES
    energy     <xanes>
   7097.00  4.9459942E-03
   7097.33  5.0683610E-03
   7097.67  5.1966718E-03
   7098.00  5.3313584E-03
   7098.33  5.4738463E-03
   7098.67  5.6238953E-03
   7099.00  5.7821044E-03
   7099.33  5.9503738E-03
   7099.67  6.1284714E-03
   7100.00  6.3172520E-03
   7100.33  6.5193201E-03
   7100.67  6.7344909E-03
   7101.00  6.9640250E-03
   7101.33  7.2116116E-03
   7101.67  7.4771985E-03
   7102.00  7.7627180E-03
   7102.33  8.0736057E-03
   7102.67  8.4101301E-03
   7103.00  8.7753934E-03
   7103.33  9.1777977E-03
   7103.67  9.6183607E-03
   7104.00  1.0102355E-02
   7104.33  1.0643563E-02
   7104.67  1.1244788E-02
   7105.00  1.1915657E-02
   7105.33  1.2680556E-02
   7105.67  1.3546802E-02
   7106.00  1.4533683E-02
   7106.33  1.5688890E-02
   7106.67  1.7032327E-02
   7107.00  1.8607847E-02
   7107.33  2.0522595E-02
   7107.67  2.2837423E-02
   7108.00  2.5671918E-02
   7108.33  2.9321744E-02
   7108.67  3.4017357E-02
   7109.00  4.0191545E-02
   7109.33  4.8980431E-02
   7109.67  6.1650028E-02
   7110.00  8.0668156E-02
   7110.33  1.1309127E-01
   7110.67  1.6641633E-01
   7111.00  2.4309518E-01
   7111.33  3.2878854E-01
   7111.67  4.1763258E-01
   7112.00  4.8526176E-01
   7112.33  4.6441037E-01
   7112.67  4.1992627E-01
   7113.00  3.9868920E-01
   7113.33  3.8817885E-01
   7113.67  3.5589782E-01
   7114.00  3.0156770E-01
   7114.33  2.4704117E-01
   7114.67  2.0411281E-01
   7115.00  1.7155350E-01
   7115.33  1.4785906E-01
   7115.67  1.3119561E-01
   7116.00  1.2019406E-01
   7116.33  1.1388615E-01
   7116.67  1.1128325E-01
   7117.00  1.1220216E-01
   7117.33  1.1617028E-01
   7117.67  1.2147010E-01
   7118.00  1.2689844E-01
   7118.33  1.3086136E-01
   7118.67  1.3215573E-01
   7119.00  1.3033804E-01
   7119.33  1.2521267E-01
   7119.67  1.1792807E-01
   7120.00  1.1003867E-01
   7120.33  1.0347541E-01
   7120.67  9.8719478E-02
   7121.00  9.5536947E-02
   7121.33  9.3577707E-02
   7121.67  9.2484651E-02
   7122.00  9.2319027E-02
   7122.33  9.3344052E-02
   7122.67  9.5521875E-02
   7123.00  9.8927923E-02
   7123.33  1.0379016E-01
   7123.67  1.0977709E-01
   7124.00  1.1632572E-01
   7124.33  1.2261906E-01
   7124.67  1.2888221E-01
   7125.00  1.3619331E-01
   7125.33  1.4605983E-01
   7125.67  1.5902507E-01
   7126.00  1.7555328E-01
   7126.33  1.9594164E-01
   7126.67  2.1864604E-01
   7127.00  2.4222306E-01
   7127.33  2.6530626E-01
   7127.67  2.8803876E-01
   7128.00  3.1162813E-01
   7128.33  3.3801361E-01
   7128.67  3.6803491E-01
   7129.00  4.0231203E-01
   7129.33  4.4198029E-01
   7129.67  4.8668654E-01
   7130.00  5.3638497E-01
   7130.33  5.9145922E-01
   7130.67  6.5065232E-01
   7131.00  7.1247131E-01
   7131.33  7.7358526E-01
   7131.67  8.2962868E-01
   7132.00  8.7690726E-01
   7132.33  9.1164347E-01
   7132.67  9.3600923E-01
   7133.00  9.5273903E-01
   7133.33  9.6498226E-01
   7133.67  9.7540969E-01
   7134.00  9.8388498E-01
   7134.33  9.8731328E-01
   7134.67  9.8242087E-01
   7135.00  9.6715023E-01
   7135.33  9.4131024E-01
   7135.67  9.0931732E-01
   7136.00  8.7385885E-01
   7136.33  8.3695903E-01
   7136.67  8.0016777E-01
   7137.00  7.6429780E-01
   7137.33  7.3022954E-01
   7137.67  6.9825902E-01
   7138.00  6.6872010E-01
   7138.33  6.4227868E-01
   7138.67  6.1886582E-01
   7139.00  5.9869097E-01
   7139.33  5.8239989E-01
   7139.67  5.6974053E-01
   7140.00  5.6083049E-01
   7140.33  5.5621560E-01
   7140.67  5.5536793E-01
   7141.00  5.5809784E-01
   7141.33  5.6433520E-01
   7141.67  5.7293202E-01
   7142.00  5.8302027E-01
   7142.33  5.9349220E-01
   7142.67  6.0318811E-01
   7143.00  6.1133041E-01
   7143.33  6.1709894E-01
   7143.67  6.2062902E-01
   7144.00  6.2212448E-01
   7144.33  6.2190163E-01
   7144.67  6.2081789E-01
   7145.00  6.1946662E-01
   7145.33  6.1849631E-01
   7145.67  6.1829031E-01
   7146.00  6.1902443E-01
   7146.33  6.2078234E-01
   7146.67  6.2319989E-01
   7147.00  6.2594488E-01
   7147.33  6.2857965E-01
   7147.67  6.3075148E-01
   7148.00  6.3225373E-01
   7148.33  6.3290036E-01
   7148.67  6.3283633E-01
   7149.00  6.3216746E-01
   7149.33  6.3098738E-01
   7149.67  6.2949991E-01
   7150.00  6.2779536E-01
   7150.33  6.2590130E-01
   7150.67  6.2383523E-01
   7151.00  6.2156081E-01
   7151.33  6.1898515E-01
   7151.67  6.1607817E-01
   7152.00  6.1279092E-01
   7152.33  6.0903075E-01
   7152.67  6.0483524E-01
   7153.00  6.0021360E-01
   7153.33  5.9515345E-01
   7153.67  5.8976213E-01
   7154.00  5.8409507E-01
   7154.33  5.7818213E-01
   7154.67  5.7209294E-01
   7155.00  5.6585100E-01
   7155.33  5.5944867E-01
   7155.67  5.5289690E-01
   7156.00  5.4617982E-01
   7156.33  5.3924793E-01
   7156.67  5.3209939E-01
   7157.00  5.2471968E-01
   7157.33  5.1707699E-01
   7157.67  5.0921556E-01
   7158.00  5.0117182E-01
   7158.33  4.9301080E-01
   7158.67  4.8485992E-01
   7159.00  4.7684021E-01
   7159.33  4.6914272E-01
   7159.67  4.6188929E-01
   7160.00  4.5520999E-01
   7160.33  4.4932859E-01
   7160.67  4.4426142E-01
   7161.00  4.4006691E-01
   7161.33  4.3688019E-01
   7161.67  4.3456411E-01
   7162.00  4.3306513E-01
   7162.33  4.3237863E-01
   7162.67  4.3229136E-01
   7163.00  4.3268280E-01
   7163.33  4.3344522E-01
   7163.67  4.3438818E-01
   7164.00  4.3538933E-01
   7164.33  4.3630903E-01
   7164.67  4.3704240E-01
   7165.00  4.3750694E-01
   7165.33  4.3758219E-01
   7165.67  4.3725527E-01
   7166.00  4.3649488E-01
   7166.33  4.3522719E-01
   7166.67  4.3351077E-01
   7167.00  4.3136184E-01
   7167.33  4.2876284E-01
   7167.67  4.2580895E-01
   7168.00  4.2255080E-01
   7168.33  4.1903732E-01
   7168.67  4.1537904E-01
   7169.00  4.1164118E-01
   7169.33  4.0789437E-01
   7169.67  4.0420996E-01
   7170.00  4.0064645E-01
   7170.33  3.9728947E-01
   7170.67  3.9417142E-01
   7171.00  3.9133571E-01
   7171.33  3.8887418E-01
   7171.67  3.8680335E-01
   7172.00  3.8517854E-01
