    FDMNES
    energy     <xanes>
   7097.00  4.4059811E-03
   7097.33  4.4918785E-03
   7097.67  4.5808808E-03
   7098.00  4.6731596E-03
   7098.33  4.7693696E-03
   7098.67  4.8693138E-03
   7099.00  4.9732167E-03
   7099.33  5.0818974E-03
   7099.67  5.1951445E-03
   7100.00  5.3132606E-03
   7100.33  5.4372947E-03
   7100.67  5.5670286E-03
   7101.00  5.7028830E-03
   7101.33  5.8462427E-03
   7101.67  5.9969004E-03
   7102.00  6.1554647E-03
   7102.33  6.3238335E-03
   7102.67  6.5018534E-03
   7103.00  6.6904480E-03
   7103.33  6.8923466E-03
   7103.67  7.1075496E-03
   7104.00  7.3375477E-03
   7104.33  7.5865151E-03
   7104.67  7.8548525E-03
   7105.00  8.1451584E-03
   7105.33  8.4643526E-03
   7105.67  8.8138877E-03
   7106.00  9.1987631E-03
   7106.33  9.6317474E-03
   7106.67  1.0117258E-02
   7107.00  1.0666261E-02
   7107.33  1.1306004E-02
   7107.67  1.2050444E-02
   7108.00  1.2928381E-02
   7108.33  1.4011215E-02
   7108.67  1.5350849E-02
   7109.00  1.7045770E-02
   7109.33  1.9350701E-02
   7109.67  2.2529380E-02
   7110.00  2.7089116E-02
   7110.33  3.4477734E-02
   7110.67  4.6596156E-02
   7111.00  6.6404284E-02
   7111.33  9.8517698E-02
   7111.67  1.3490800E-01
   7112.00  1.5325310E-01
   7112.33  1.3158058E-01
   7112.67  1.0085688E-01
   7113.00  7.8724209E-02
   7113.33  6.7412115E-02
   7113.67  6.2385245E-02
   7114.00  6.0463766E-02
   7114.33  5.7707073E-02
   7114.67  5.2593996E-02
   7115.00  4.7197565E-02
   7115.33  4.3950763E-02
   7115.67  4.2778994E-02
   7116.00  4.3307620E-02
   7116.33  4.5408623E-02
   7116.67  4.8812841E-02
   7117.00  5.3520332E-02
   7117.33  5.9595915E-02
   7117.67  6.6556121E-02
   7118.00  7.3998339E-02
   7118.33  8.1825310E-02
   7118.67  9.0544313E-02
   7119.00  1.0100521E-01
   7119.33  1.1462290E-01
   7119.67  1.3208200E-01
   7120.00  1.5430265E-01
   7120.33  1.8321623E-01
   7120.67  2.1938441E-01
   7121.00  2.6392975E-01
   7121.33  3.1904142E-01
   7121.67  3.8346118E-01
   7122.00  4.5498540E-01
   7122.33  5.2710249E-01
   7122.67  5.9131425E-01
   7123.00  6.4415169E-01
   7123.33  6.8675676E-01
   7123.67  7.2469233E-01
   7124.00  7.6018584E-01
   7124.33  7.9215207E-01
   7124.67  8.1670020E-01
   7125.00  8.2853010E-01
   7125.33  8.2071773E-01
   7125.67  7.9533110E-01
   7126.00  7.5621683E-01
   7126.33  7.0921495E-01
   7126.67  6.6146169E-01
   7127.00  6.1677490E-01
   7127.33  5.7841121E-01
   7127.67  5.4667293E-01
   7128.00  5.2165928E-01
   7128.33  5.0390588E-01
   7128.67  4.9227094E-01
   7129.00  4.8647705E-01
   7129.33  4.8675441E-01
   7129.67  4.9184338E-01
   7130.00  5.0127916E-01
   7130.33  5.1528371E-01
   7130.67  5.3332600E-01
   7131.00  5.5541182E-01
   7131.33  5.8174320E-01
   7131.67  6.1087202E-01
   7132.00  6.4100094E-01
   7132.33  6.6813190E-01
   7132.67  6.8730959E-01
   7133.00  6.9380728E-01
   7133.33  6.8304344E-01
   7133.67  6.6010232E-01
   7134.00  6.3164359E-01
   7134.33  6.0581620E-01
   7134.67  5.8654122E-01
   7135.00  5.7424768E-01
   7135.33  5.6819081E-01
   7135.67  5.6579642E-01
   7136.00  5.6571607E-01
   7136.33  5.6696746E-01
   7136.67  5.6866274E-01
   7137.00  5.7038811E-01
   7137.33  5.7179535E-01
   7137.67  5.7272867E-01
   7138.00  5.7308914E-01
   7138.33  5.7273322E-01
   7138.67  5.7171588E-01
   7139.00  5.7003918E-01
   7139.33  5.6764691E-01
   7139.67  5.6466036E-01
   7140.00  5.6112785E-01
   7140.33  5.5705516E-01
   7140.67  5.5256356E-01
   7141.00  5.4769233E-01
   7141.33  5.4243875E-01
   7141.67  5.3688794E-01
   7142.00  5.3108253E-01
   7142.33  5.2505201E-01
   7142.67  5.1887783E-01
   7143.00  5.1261432E-01
   7143.33  5.0633293E-01
   7143.67  5.0012066E-01
   7144.00  4.9405898E-01
   7144.33  4.8828112E-01
   7144.67  4.8286092E-01
   7145.00  4.7788828E-01
   7145.33  4.7353066E-01
   7145.67  4.6980739E-01
   7146.00  4.6678041E-01
   7146.33  4.6459431E-01
   7146.67  4.6317803E-01
   7147.00  4.6252301E-01
   7147.33  4.6267452E-01
   7147.67  4.6346335E-01
   7148.00  4.6479655E-01
   7148.33  4.6659596E-01
   7148.67  4.6866669E-01
   7149.00  4.7088464E-01
   7149.33  4.7311582E-01
   7149.67  4.7524202E-01
   7150.00  4.7718263E-01
   7150.33  4.7883707E-01
   7150.67  4.8019481E-01
   7151.00  4.8123876E-01
   7151.33  4.8192999E-01
   7151.67  4.8232458E-01
   7152.00  4.8244365E-01
   7152.33  4.8228472E-01
   7152.67  4.8190937E-01
   7153.00  4.8134450E-01
   7153.33  4.8060017E-01
   7153.67  4.7972265E-01
   7154.00  4.7873202E-01
   7154.33  4.7763747E-01
   7154.67  4.7646732E-01
   7155.00  4.7522840E-01
   7155.33  4.7390700E-01
   7155.67  4.7250680E-01
   7156.00  4.7102404E-01
   7156.33  4.6944005E-01
   7156.67  4.6775660E-01
   7157.00  4.6596512E-01
   7157.33  4.6404309E-01
   7157.67  4.6200159E-01
   7158.00  4.5984197E-01
   7158.33  4.5755748E-01
   7158.67  4.5517679E-01
   7159.00  4.5271922E-01
   7159.33  4.5020766E-01
   7159.67  4.4768301E-01
   7160.00  4.4518012E-01
   7160.33  4.4275281E-01
   7160.67  4.4044139E-01
   7161.00  4.3828827E-01
   7161.33  4.3636776E-01
   7161.67  4.3470015E-01
   7162.00  4.3332191E-01
   7162.33  4.3231044E-01
   7162.67  4.3165285E-01
   7163.00  4.3136487E-01
   7163.33  4.3150226E-01
   7163.67  4.3201525E-01
   7164.00  4.3289346E-01
   7164.33  4.3416051E-01
   7164.67  4.3574509E-01
   7165.00  4.3760813E-01
   7165.33  4.3970495E-01
   7165.67  4.4193379E-01
   7166.00  4.4425056E-01
   7166.33  4.4662198E-01
   7166.67  4.4900526E-01
   7167.00  4.5137206E-01
   7167.33  4.5369072E-01
   7167.67  4.5594840E-01
   7168.00  4.5813573E-01
   7168.33  4.6023894E-01
   7168.67  4.6226776E-01
   7169.00  4.6422496E-01
   7169.33  4.6610729E-01
   7169.67  4.6792872E-01
   7170.00  4.6969301E-01
   7170.33  4.7139396E-01
   7170.67  4.7303226E-01
   7171.00  4.7459355E-01
   7171.33  4.7603398E-01
   7171.67  4.7731520E-01
   7172.00  4.7836414E-01
