    FDMNES
    energy     <xanes>
   7097.00  5.2467781E-03
   7097.33  5.3766108E-03
   7097.67  5.5125529E-03
   7098.00  5.6550262E-03
   7098.33  5.8054582E-03
   7098.67  5.9635698E-03
   7099.00  6.1299363E-03
   7099.33  6.3064294E-03
   7099.67  6.4927632E-03
   7100.00  6.6897422E-03
   7100.33  6.8998826E-03
   7100.67  7.1229190E-03
   7101.00  7.3600105E-03
   7101.33  7.6146400E-03
   7101.67  7.8866234E-03
   7102.00  8.1776895E-03
   7102.33  8.4928318E-03
   7102.67  8.8320806E-03
   7103.00  9.1981250E-03
   7103.33  9.5984358E-03
   7103.67  1.0033557E-02
   7104.00  1.0507893E-02
   7104.33  1.1033228E-02
   7104.67  1.1611328E-02
   7105.00  1.2249886E-02
   7105.33  1.2968792E-02
   7105.67  1.3772834E-02
   7106.00  1.4676639E-02
   7106.33  1.5716933E-02
   7106.67  1.6906634E-02
   7107.00  1.8276964E-02
   7107.33  1.9904831E-02
   7107.67  2.1828326E-02
   7108.00  2.4126325E-02
   7108.33  2.6993479E-02
   7108.67  3.0565708E-02
   7109.00  3.5103216E-02
   7109.33  4.1279160E-02
   7109.67  4.9782619E-02
   7110.00  6.1954662E-02
   7110.33  8.1647455E-02
   7110.67  1.1370369E-01
   7111.00  1.6357361E-01
   7111.33  2.2318168E-01
   7111.67  2.5983986E-01
   7112.00  2.7936901E-01
   7112.33  3.2267253E-01
   7112.67  4.0211801E-01
   7113.00  5.0948618E-01
   7113.33  6.0093563E-01
   7113.67  6.1209994E-01
   7114.00  5.3947055E-01
   7114.33  4.4079924E-01
   7114.67  3.6062723E-01
   7115.00  3.0630313E-01
   7115.33  2.7737367E-01
   7115.67  2.6598060E-01
   7116.00  2.6720295E-01
   7116.33  2.7232469E-01
   7116.67  2.6996688E-01
   7117.00  2.5629643E-01
   7117.33  2.3460097E-01
   7117.67  2.1179602E-01
   7118.00  1.9085220E-01
   7118.33  1.7347934E-01
   7118.67  1.5946692E-01
   7119.00  1.4855283E-01
   7119.33  1.4045116E-01
   7119.67  1.3411997E-01
   7120.00  1.2905957E-01
   7120.33  1.2518981E-01
   7120.67  1.2251969E-01
   7121.00  1.2122685E-01
   7121.33  1.2146729E-01
   7121.67  1.2278588E-01
   7122.00  1.2485821E-01
   7122.33  1.2744405E-01
   7122.67  1.3038155E-01
   7123.00  1.3371408E-01
   7123.33  1.3763185E-01
   7123.67  1.4222740E-01
   7124.00  1.4765038E-01
   7124.33  1.5422594E-01
   7124.67  1.6205991E-01
   7125.00  1.7138820E-01
   7125.33  1.8271682E-01
   7125.67  1.9596863E-01
   7126.00  2.1097010E-01
   7126.33  2.2736106E-01
   7126.67  2.4472138E-01
   7127.00  2.6332559E-01
   7127.33  2.8386423E-01
   7127.67  3.0620855E-01
   7128.00  3.2996236E-01
   7128.33  3.5434007E-01
   7128.67  3.7853076E-01
   7129.00  4.0262085E-01
   7129.33  4.2840773E-01
   7129.67  4.5889441E-01
   7130.00  4.9734746E-01
   7130.33  5.4838423E-01
   7130.67  6.1235478E-01
   7131.00  6.8906435E-01
   7131.33  7.7694031E-01
   7131.67  8.6900501E-01
   7132.00  9.5881331E-01
   7132.33  1.0380763E+00
   7132.67  1.1031582E+00
   7133.00  1.1517613E+00
   7133.33  1.1792820E+00
   7133.67  1.1852822E+00
   7134.00  1.1681203E+00
   7134.33  1.1265910E+00
   7134.67  1.0690777E+00
   7135.00  1.0020320E+00
   7135.33  9.3176001E-01
   7135.67  8.6305287E-01
   7136.00  7.9799795E-01
   7136.33  7.3832822E-01
   7136.67  6.8388247E-01
   7137.00  6.3484680E-01
   7137.33  5.9211529E-01
   7137.67  5.5519791E-01
   7138.00  5.2425025E-01
   7138.33  5.0007638E-01
   7138.67  4.8174808E-01
   7139.00  4.6891936E-01
   7139.33  4.6159498E-01
   7139.67  4.5839613E-01
   7140.00  4.5860640E-01
   7140.33  4.6173657E-01
   7140.67  4.6674606E-01
   7141.00  4.7313305E-01
   7141.33  4.8056758E-01
   7141.67  4.8861577E-01
   7142.00  4.9708087E-01
   7142.33  5.0581459E-01
   7142.67  5.1462829E-01
   7143.00  5.2338034E-01
   7143.33  5.3185815E-01
   7143.67  5.3989378E-01
   7144.00  5.4731455E-01
   7144.33  5.5383797E-01
   7144.67  5.5942260E-01
   7145.00  5.6399016E-01
   7145.33  5.6736829E-01
   7145.67  5.6970717E-01
   7146.00  5.7106724E-01
   7146.33  5.7145115E-01
   7146.67  5.7111440E-01
   7147.00  5.7020222E-01
   7147.33  5.6882380E-01
   7147.67  5.6717722E-01
   7148.00  5.6537807E-01
   7148.33  5.6354323E-01
   7148.67  5.6178086E-01
   7149.00  5.6016685E-01
   7149.33  5.5880187E-01
   7149.67  5.5771601E-01
   7150.00  5.5694955E-01
   7150.33  5.5658730E-01
   7150.67  5.5661190E-01
   7151.00  5.5703776E-01
   7151.33  5.5792763E-01
   7151.67  5.5923707E-01
   7152.00  5.6096985E-01
   7152.33  5.6318134E-01
   7152.67  5.6581665E-01
   7153.00  5.6887097E-01
   7153.33  5.7238604E-01
   7153.67  5.7629395E-01
   7154.00  5.8057131E-01
   7154.33  5.8521764E-01
   7154.67  5.9013101E-01
   7155.00  5.9524152E-01
   7155.33  6.0045923E-01
   7155.67  6.0565051E-01
   7156.00  6.1069894E-01
   7156.33  6.1542740E-01
   7156.67  6.1973296E-01
   7157.00  6.2350640E-01
   7157.33  6.2655890E-01
   7157.67  6.2888667E-01
   7158.00  6.3043949E-01
   7158.33  6.3108333E-01
   7158.67  6.3091095E-01
   7159.00  6.2993187E-01
   7159.33  6.2807502E-01
   7159.67  6.2547672E-01
   7160.00  6.2217654E-01
   7160.33  6.1814292E-01
   7160.67  6.1351034E-01
   7161.00  6.0832542E-01
   7161.33  6.0257652E-01
   7161.67  5.9637463E-01
   7162.00  5.8976044E-01
   7162.33  5.8273372E-01
   7162.67  5.7538370E-01
   7163.00  5.6774288E-01
   7163.33  5.5981507E-01
   7163.67  5.5166916E-01
   7164.00  5.4333870E-01
   7164.33  5.3484595E-01
   7164.67  5.2625033E-01
   7165.00  5.1758816E-01
   7165.33  5.0889898E-01
   7165.67  5.0022988E-01
   7166.00  4.9161971E-01
   7166.33  4.8312601E-01
   7166.67  4.7477992E-01
   7167.00  4.6661782E-01
   7167.33  4.5870579E-01
   7167.67  4.5105137E-01
   7168.00  4.4368315E-01
   7168.33  4.3666999E-01
   7168.67  4.2999908E-01
   7169.00  4.2369317E-01
   7169.33  4.1782265E-01
   7169.67  4.1235319E-01
   7170.00  4.0729307E-01
   7170.33  4.0270269E-01
   7170.67  3.9853890E-01
   7171.00  3.9481234E-01
   7171.33  3.9160134E-01
   7171.67  3.8889131E-01
   7172.00  3.8673805E-01
