    FDMNES
    energy     <xanes>
   7097.00  3.8426046E-03
   7097.33  3.9110557E-03
   7097.67  3.9819532E-03
   7098.00  4.0554382E-03
   7098.33  4.1320364E-03
   7098.67  4.2116004E-03
   7099.00  4.2943169E-03
   7099.33  4.3808503E-03
   7099.67  4.4710439E-03
   7100.00  4.5651518E-03
   7100.33  4.6640341E-03
   7100.67  4.7675311E-03
   7101.00  4.8759986E-03
   7101.33  4.9905829E-03
   7101.67  5.1111360E-03
   7102.00  5.2381739E-03
   7102.33  5.3732786E-03
   7102.67  5.5163461E-03
   7103.00  5.6681567E-03
   7103.33  5.8309877E-03
   7103.67  6.0048527E-03
   7104.00  6.1909917E-03
   7104.33  6.3928576E-03
   7104.67  6.6107507E-03
   7105.00  6.8467668E-03
   7105.33  7.1064890E-03
   7105.67  7.3909204E-03
   7106.00  7.7038839E-03
   7106.33  8.0551789E-03
   7106.67  8.4476183E-03
   7107.00  8.8888964E-03
   7107.33  9.3981625E-03
   7107.67  9.9833593E-03
   7108.00  1.0662156E-02
   7108.33  1.1477877E-02
   7108.67  1.2455398E-02
   7109.00  1.3643620E-02
   7109.33  1.5163726E-02
   7109.67  1.7111575E-02
   7110.00  1.9666934E-02
   7110.33  2.3302204E-02
   7110.67  2.8544741E-02
   7111.00  3.6405878E-02
   7111.33  4.9681076E-02
   7111.67  7.1348810E-02
   7112.00  1.0549932E-01
   7112.33  1.5743599E-01
   7112.67  1.9872492E-01
   7113.00  1.9340693E-01
   7113.33  1.5015279E-01
   7113.67  1.1311398E-01
   7114.00  9.4085833E-02
   7114.33  9.0576376E-02
   7114.67  9.4178629E-02
   7115.00  1.0296709E-01
   7115.33  1.0827720E-01
   7115.67  1.0291433E-01
   7116.00  9.2362562E-02
   7116.33  7.9342815E-02
   7116.67  6.5537439E-02
   7117.00  5.4858129E-02
   7117.33  4.8451441E-02
   7117.67  4.4630385E-02
   7118.00  4.2583334E-02
   7118.33  4.2002308E-02
   7118.67  4.2545947E-02
   7119.00  4.4173449E-02
   7119.33  4.6801180E-02
   7119.67  4.9802073E-02
   7120.00  5.3115585E-02
   7120.33  5.7388388E-02
   7120.67  6.2722876E-02
   7121.00  6.8764176E-02
   7121.33  7.5178222E-02
   7121.67  8.2149098E-02
   7122.00  8.9976910E-02
   7122.33  9.8821303E-02
   7122.67  1.0842737E-01
   7123.00  1.1876015E-01
   7123.33  1.3011551E-01
   7123.67  1.4269468E-01
   7124.00  1.5654359E-01
   7124.33  1.7119232E-01
   7124.67  1.8565336E-01
   7125.00  1.9953742E-01
   7125.33  2.1337250E-01
   7125.67  2.2849947E-01
   7126.00  2.4616754E-01
   7126.33  2.6805507E-01
   7126.67  2.9467950E-01
   7127.00  3.2680615E-01
   7127.33  3.6601426E-01
   7127.67  4.1197330E-01
   7128.00  4.6442090E-01
   7128.33  5.2200301E-01
   7128.67  5.7921292E-01
   7129.00  6.2898066E-01
   7129.33  6.6033614E-01
   7129.67  6.7148355E-01
   7130.00  6.6574564E-01
   7130.33  6.4993433E-01
   7130.67  6.3187691E-01
   7131.00  6.1471826E-01
   7131.33  6.0009435E-01
   7131.67  5.8741069E-01
   7132.00  5.7572316E-01
   7132.33  5.6422965E-01
   7132.67  5.5272084E-01
   7133.00  5.4131157E-01
   7133.33  5.3032774E-01
   7133.67  5.2009518E-01
   7134.00  5.1093846E-01
   7134.33  5.0332636E-01
   7134.67  4.9724347E-01
   7135.00  4.9268442E-01
   7135.33  4.8965592E-01
   7135.67  4.8778587E-01
   7136.00  4.8691805E-01
   7136.33  4.8697879E-01
   7136.67  4.8769981E-01
   7137.00  4.8895131E-01
   7137.33  4.9063687E-01
   7137.67  4.9255851E-01
   7138.00  4.9457633E-01
   7138.33  4.9650895E-01
   7138.67  4.9820304E-01
   7139.00  4.9953605E-01
   7139.33  5.0037506E-01
   7139.67  5.0083668E-01
   7140.00  5.0108521E-01
   7140.33  5.0138457E-01
   7140.67  5.0199792E-01
   7141.00  5.0314108E-01
   7141.33  5.0512113E-01
   7141.67  5.0800089E-01
   7142.00  5.1186120E-01
   7142.33  5.1686346E-01
   7142.67  5.2285525E-01
   7143.00  5.2975745E-01
   7143.33  5.3749262E-01
   7143.67  5.4578270E-01
   7144.00  5.5448045E-01
   7144.33  5.6344303E-01
   7144.67  5.7244112E-01
   7145.00  5.8128080E-01
   7145.33  5.8975890E-01
   7145.67  5.9781065E-01
   7146.00  6.0536461E-01
   7146.33  6.1228745E-01
   7146.67  6.1861092E-01
   7147.00  6.2432045E-01
   7147.33  6.2932990E-01
   7147.67  6.3371515E-01
   7148.00  6.3748632E-01
   7148.33  6.4059603E-01
   7148.67  6.4315506E-01
   7149.00  6.4520058E-01
   7149.33  6.4671957E-01
   7149.67  6.4781415E-01
   7150.00  6.4851810E-01
   7150.33  6.4882188E-01
   7150.67  6.4880042E-01
   7151.00  6.4847678E-01
   7151.33  6.4784059E-01
   7151.67  6.4694945E-01
   7152.00  6.4582090E-01
   7152.33  6.4444555E-01
   7152.67  6.4287827E-01
   7153.00  6.4114989E-01
   7153.33  6.3928237E-01
   7153.67  6.3732833E-01
   7154.00  6.3531862E-01
   7154.33  6.3328315E-01
   7154.67  6.3125381E-01
   7155.00  6.2925328E-01
   7155.33  6.2730476E-01
   7155.67  6.2540390E-01
   7156.00  6.2353884E-01
   7156.33  6.2168474E-01
   7156.67  6.1980753E-01
   7157.00  6.1788179E-01
   7157.33  6.1588551E-01
   7157.67  6.1384036E-01
   7158.00  6.1178669E-01
   7158.33  6.0981581E-01
   7158.67  6.0803189E-01
   7159.00  6.0654557E-01
   7159.33  6.0553557E-01
   7159.67  6.0505203E-01
   7160.00  6.0515293E-01
   7160.33  6.0593804E-01
   7160.67  6.0730636E-01
   7161.00  6.0920111E-01
   7161.33  6.1157837E-01
   7161.67  6.1426569E-01
   7162.00  6.1715322E-01
   7162.33  6.2012190E-01
   7162.67  6.2304128E-01
   7163.00  6.2581553E-01
   7163.33  6.2831371E-01
   7163.67  6.3048000E-01
   7164.00  6.3225185E-01
   7164.33  6.3351234E-01
   7164.67  6.3427069E-01
   7165.00  6.3449562E-01
   7165.33  6.3409152E-01
   7165.67  6.3311394E-01
   7166.00  6.3155940E-01
   7166.33  6.2936201E-01
   7166.67  6.2660857E-01
   7167.00  6.2332010E-01
   7167.33  6.1946712E-01
   7167.67  6.1515438E-01
   7168.00  6.1042408E-01
   7168.33  6.0528580E-01
   7168.67  5.9984485E-01
   7169.00  5.9415551E-01
   7169.33  5.8826029E-01
   7169.67  5.8225019E-01
   7170.00  5.7618651E-01
   7170.33  5.7014893E-01
   7170.67  5.6422274E-01
   7171.00  5.5850143E-01
   7171.33  5.5318176E-01
   7171.67  5.4846114E-01
   7172.00  5.4463378E-01
