    FDMNES
    energy     <xanes>
   7097.00  4.7493685E-03
   7097.33  4.8610451E-03
   7097.67  4.9778515E-03
   7098.00  5.1001442E-03
   7098.33  5.2291271E-03
   7098.67  5.3645714E-03
   7099.00  5.5069679E-03
   7099.33  5.6579047E-03
   7099.67  5.8171542E-03
   7100.00  5.9854112E-03
   7100.33  6.1648295E-03
   7100.67  6.3552126E-03
   7101.00  6.5575767E-03
   7101.33  6.7749414E-03
   7101.67  7.0072069E-03
   7102.00  7.2559186E-03
   7102.33  7.5254825E-03
   7102.67  7.8160402E-03
   7103.00  8.1300577E-03
   7103.33  8.4742833E-03
   7103.67  8.8494356E-03
   7104.00  9.2596848E-03
   7104.33  9.7160173E-03
   7104.67  1.0220544E-02
   7105.00  1.0780858E-02
   7105.33  1.1416302E-02
   7105.67  1.2132544E-02
   7106.00  1.2944816E-02
   7106.33  1.3890910E-02
   7106.67  1.4986561E-02
   7107.00  1.6266634E-02
   7107.33  1.7816568E-02
   7107.67  1.9685515E-02
   7108.00  2.1970172E-02
   7108.33  2.4910728E-02
   7108.67  2.8699397E-02
   7109.00  3.3698318E-02
   7109.33  4.0868401E-02
   7109.67  5.1320484E-02
   7110.00  6.7237392E-02
   7110.33  9.4875765E-02
   7110.67  1.4027843E-01
   7111.00  2.0196119E-01
   7111.33  2.5774119E-01
   7111.67  2.9661069E-01
   7112.00  3.1717260E-01
   7112.33  3.2552673E-01
   7112.67  3.2903922E-01
   7113.00  3.2303597E-01
   7113.33  2.9524446E-01
   7113.67  2.5383847E-01
   7114.00  2.1408952E-01
   7114.33  1.9164745E-01
   7114.67  1.8784123E-01
   7115.00  1.9607413E-01
   7115.33  2.0028539E-01
   7115.67  1.9630879E-01
   7116.00  1.8648499E-01
   7116.33  1.6561323E-01
   7116.67  1.4218392E-01
   7117.00  1.2363368E-01
   7117.33  1.1224175E-01
   7117.67  1.0648512E-01
   7118.00  1.0551640E-01
   7118.33  1.0826403E-01
   7118.67  1.1290812E-01
   7119.00  1.1912684E-01
   7119.33  1.2619313E-01
   7119.67  1.3286202E-01
   7120.00  1.3844056E-01
   7120.33  1.4081277E-01
   7120.67  1.4008289E-01
   7121.00  1.3860003E-01
   7121.33  1.3903279E-01
   7121.67  1.4204875E-01
   7122.00  1.4774837E-01
   7122.33  1.5644836E-01
   7122.67  1.6800588E-01
   7123.00  1.8280603E-01
   7123.33  2.0178200E-01
   7123.67  2.2419794E-01
   7124.00  2.4817644E-01
   7124.33  2.6917075E-01
   7124.67  2.8421005E-01
   7125.00  2.9374811E-01
   7125.33  3.0143021E-01
   7125.67  3.1158393E-01
   7126.00  3.2606105E-01
   7126.33  3.4514326E-01
   7126.67  3.6564374E-01
   7127.00  3.8401831E-01
   7127.33  3.9662330E-01
   7127.67  4.0517050E-01
   7128.00  4.1377531E-01
   7128.33  4.2840956E-01
   7128.67  4.5109093E-01
   7129.00  4.8090217E-01
   7129.33  5.1400460E-01
   7129.67  5.4654991E-01
   7130.00  5.7912228E-01
   7130.33  6.1400858E-01
   7130.67  6.5016552E-01
   7131.00  6.8456902E-01
   7131.33  7.1261163E-01
   7131.67  7.3298075E-01
   7132.00  7.4631939E-01
   7132.33  7.5500022E-01
   7132.67  7.6258087E-01
   7133.00  7.7030510E-01
   7133.33  7.7777177E-01
   7133.67  7.8322070E-01
   7134.00  7.8451664E-01
   7134.33  7.7882806E-01
   7134.67  7.6644093E-01
   7135.00  7.4810529E-01
   7135.33  7.2468876E-01
   7135.67  6.9878794E-01
   7136.00  6.7282834E-01
   7136.33  6.5000346E-01
   7136.67  6.3173046E-01
   7137.00  6.1844078E-01
   7137.33  6.1030413E-01
   7137.67  6.0577917E-01
   7138.00  6.0384870E-01
   7138.33  6.0359176E-01
   7138.67  6.0401657E-01
   7139.00  6.0470685E-01
   7139.33  6.0540554E-01
   7139.67  6.0600778E-01
   7140.00  6.0652978E-01
   7140.33  6.0711956E-01
   7140.67  6.0798213E-01
   7141.00  6.0926421E-01
   7141.33  6.1102772E-01
   7141.67  6.1299064E-01
   7142.00  6.1480072E-01
   7142.33  6.1593141E-01
   7142.67  6.1616292E-01
   7143.00  6.1548639E-01
   7143.33  6.1409694E-01
   7143.67  6.1253205E-01
   7144.00  6.1121298E-01
   7144.33  6.1064440E-01
   7144.67  6.1103328E-01
   7145.00  6.1251345E-01
   7145.33  6.1525871E-01
   7145.67  6.1903504E-01
   7146.00  6.2365812E-01
   7146.33  6.2885826E-01
   7146.67  6.3410490E-01
   7147.00  6.3891283E-01
   7147.33  6.4258449E-01
   7147.67  6.4481902E-01
   7148.00  6.4545556E-01
   7148.33  6.4439000E-01
   7148.67  6.4214401E-01
   7149.00  6.3910579E-01
   7149.33  6.3567373E-01
   7149.67  6.3222884E-01
   7150.00  6.2894997E-01
   7150.33  6.2595425E-01
   7150.67  6.2320109E-01
   7151.00  6.2064084E-01
   7151.33  6.1820683E-01
   7151.67  6.1580126E-01
   7152.00  6.1336046E-01
   7152.33  6.1080668E-01
   7152.67  6.0810383E-01
   7153.00  6.0522860E-01
   7153.33  6.0215307E-01
   7153.67  5.9891166E-01
   7154.00  5.9551998E-01
   7154.33  5.9196974E-01
   7154.67  5.8826376E-01
   7155.00  5.8436183E-01
   7155.33  5.8015027E-01
   7155.67  5.7556414E-01
   7156.00  5.7052241E-01
   7156.33  5.6489818E-01
   7156.67  5.5874595E-01
   7157.00  5.5210049E-01
   7157.33  5.4499465E-01
   7157.67  5.3759176E-01
   7158.00  5.2999348E-01
   7158.33  5.2229551E-01
   7158.67  5.1459423E-01
   7159.00  5.0694578E-01
   7159.33  4.9940960E-01
   7159.67  4.9200138E-01
   7160.00  4.8473141E-01
   7160.33  4.7761843E-01
   7160.67  4.7064206E-01
   7161.00  4.6380034E-01
   7161.33  4.5710733E-01
   7161.67  4.5054197E-01
   7162.00  4.4410068E-01
   7162.33  4.3779783E-01
   7162.67  4.3162098E-01
   7163.00  4.2557615E-01
   7163.33  4.1969283E-01
   7163.67  4.1397009E-01
   7164.00  4.0842639E-01
   7164.33  4.0311191E-01
   7164.67  3.9802917E-01
   7165.00  3.9320424E-01
   7165.33  3.8870671E-01
   7165.67  3.8453579E-01
   7166.00  3.8072128E-01
   7166.33  3.7734639E-01
   7166.67  3.7439798E-01
   7167.00  3.7190281E-01
   7167.33  3.6994160E-01
   7167.67  3.6846642E-01
   7168.00  3.6747811E-01
   7168.33  3.6702299E-01
   7168.67  3.6701215E-01
   7169.00  3.6740859E-01
   7169.33  3.6820496E-01
   7169.67  3.6930100E-01
   7170.00  3.7064961E-01
   7170.33  3.7222466E-01
   7170.67  3.7395214E-01
   7171.00  3.7578610E-01
   7171.33  3.7765321E-01
   7171.67  3.7941238E-01
   7172.00  3.8087874E-01
