    FDMNES
    energy     <xanes>
   7097.00  5.0682530E-03
   7097.33  5.1863865E-03
   7097.67  5.3098193E-03
   7098.00  5.4389063E-03
   7098.33  5.5748673E-03
   7098.67  5.7174457E-03
   7099.00  5.8671233E-03
   7099.33  6.0254895E-03
   7099.67  6.1922796E-03
   7100.00  6.3681646E-03
   7100.33  6.5552689E-03
   7100.67  6.7533423E-03
   7101.00  6.9633483E-03
   7101.33  7.1882134E-03
   7101.67  7.4277519E-03
   7102.00  7.6833995E-03
   7102.33  7.9593356E-03
   7102.67  8.2555525E-03
   7103.00  8.5742846E-03
   7103.33  8.9217732E-03
   7103.67  9.2984459E-03
   7104.00  9.7079745E-03
   7104.33  1.0160216E-02
   7104.67  1.0656651E-02
   7105.00  1.1203745E-02
   7105.33  1.1818234E-02
   7105.67  1.2504260E-02
   7106.00  1.3274295E-02
   7106.33  1.4159664E-02
   7106.67  1.5171876E-02
   7107.00  1.6338229E-02
   7107.33  1.7726056E-02
   7107.67  1.9370649E-02
   7108.00  2.1343990E-02
   7108.33  2.3824842E-02
   7108.67  2.6947085E-02
   7109.00  3.0966275E-02
   7109.33  3.6556124E-02
   7109.67  4.4464491E-02
   7110.00  5.6162648E-02
   7110.33  7.5871206E-02
   7110.67  1.0787897E-01
   7111.00  1.5212773E-01
   7111.33  1.9115788E-01
   7111.67  2.1370834E-01
   7112.00  2.3100974E-01
   7112.33  2.6379372E-01
   7112.67  3.1037205E-01
   7113.00  3.5053593E-01
   7113.33  3.6527971E-01
   7113.67  3.6643758E-01
   7114.00  3.5975604E-01
   7114.33  3.4490230E-01
   7114.67  3.2459839E-01
   7115.00  3.0082779E-01
   7115.33  2.7853190E-01
   7115.67  2.6262428E-01
   7116.00  2.5477504E-01
   7116.33  2.5468744E-01
   7116.67  2.5862894E-01
   7117.00  2.6188145E-01
   7117.33  2.5373059E-01
   7117.67  2.3227067E-01
   7118.00  2.0515402E-01
   7118.33  1.8198253E-01
   7118.67  1.6454860E-01
   7119.00  1.5132137E-01
   7119.33  1.4076343E-01
   7119.67  1.3240742E-01
   7120.00  1.2689187E-01
   7120.33  1.2515685E-01
   7120.67  1.2660842E-01
   7121.00  1.3044958E-01
   7121.33  1.3566807E-01
   7121.67  1.4174417E-01
   7122.00  1.4927644E-01
   7122.33  1.5969770E-01
   7122.67  1.7344544E-01
   7123.00  1.9043075E-01
   7123.33  2.0945168E-01
   7123.67  2.2806941E-01
   7124.00  2.4497395E-01
   7124.33  2.5975310E-01
   7124.67  2.7348833E-01
   7125.00  2.8727553E-01
   7125.33  3.0277603E-01
   7125.67  3.2122306E-01
   7126.00  3.4326544E-01
   7126.33  3.6841724E-01
   7126.67  3.9368392E-01
   7127.00  4.1648276E-01
   7127.33  4.3471817E-01
   7127.67  4.4950747E-01
   7128.00  4.6261075E-01
   7128.33  4.7650095E-01
   7128.67  4.9296473E-01
   7129.00  5.1273683E-01
   7129.33  5.3589541E-01
   7129.67  5.6085324E-01
   7130.00  5.8635876E-01
   7130.33  6.1126022E-01
   7130.67  6.3529841E-01
   7131.00  6.5880412E-01
   7131.33  6.8245184E-01
   7131.67  7.0649990E-01
   7132.00  7.3039194E-01
   7132.33  7.5229201E-01
   7132.67  7.7060748E-01
   7133.00  7.8459508E-01
   7133.33  7.9443233E-01
   7133.67  8.0231151E-01
   7134.00  8.0976413E-01
   7134.33  8.1783319E-01
   7134.67  8.2603559E-01
   7135.00  8.3273222E-01
   7135.33  8.3436472E-01
   7135.67  8.2875316E-01
   7136.00  8.1502191E-01
   7136.33  7.9336944E-01
   7136.67  7.6709530E-01
   7137.00  7.3847163E-01
   7137.33  7.0978811E-01
   7137.67  6.8277759E-01
   7138.00  6.5844009E-01
   7138.33  6.3784654E-01
   7138.67  6.2080643E-01
   7139.00  6.0729071E-01
   7139.33  5.9755684E-01
   7139.67  5.9097267E-01
   7140.00  5.8734787E-01
   7140.33  5.8678261E-01
   7140.67  5.8864089E-01
   7141.00  5.9258276E-01
   7141.33  5.9825566E-01
   7141.67  6.0473298E-01
   7142.00  6.1123163E-01
   7142.33  6.1658391E-01
   7142.67  6.1987036E-01
   7143.00  6.2033488E-01
   7143.33  6.1701868E-01
   7143.67  6.1027986E-01
   7144.00  6.0044465E-01
   7144.33  5.8793165E-01
   7144.67  5.7394845E-01
   7145.00  5.5929503E-01
   7145.33  5.4481575E-01
   7145.67  5.3112117E-01
   7146.00  5.1857414E-01
   7146.33  5.0758073E-01
   7146.67  4.9804393E-01
   7147.00  4.8994419E-01
   7147.33  4.8337214E-01
   7147.67  4.7805101E-01
   7148.00  4.7388233E-01
   7148.33  4.7087590E-01
   7148.67  4.6878014E-01
   7149.00  4.6749254E-01
   7149.33  4.6698818E-01
   7149.67  4.6708027E-01
   7150.00  4.6769577E-01
   7150.33  4.6882379E-01
   7150.67  4.7036090E-01
   7151.00  4.7228504E-01
   7151.33  4.7463581E-01
   7151.67  4.7737062E-01
   7152.00  4.8049696E-01
   7152.33  4.8406829E-01
   7152.67  4.8802597E-01
   7153.00  4.9234651E-01
   7153.33  4.9701921E-01
   7153.67  5.0192767E-01
   7154.00  5.0698312E-01
   7154.33  5.1206264E-01
   7154.67  5.1702237E-01
   7155.00  5.2173787E-01
   7155.33  5.2602664E-01
   7155.67  5.2982491E-01
   7156.00  5.3306409E-01
   7156.33  5.3562420E-01
   7156.67  5.3757221E-01
   7157.00  5.3892466E-01
   7157.33  5.3965371E-01
   7157.67  5.3988700E-01
   7158.00  5.3968170E-01
   7158.33  5.3906013E-01
   7158.67  5.3813459E-01
   7159.00  5.3695712E-01
   7159.33  5.3555621E-01
   7159.67  5.3400006E-01
   7160.00  5.3231791E-01
   7160.33  5.3052457E-01
   7160.67  5.2865104E-01
   7161.00  5.2670705E-01
   7161.33  5.2469226E-01
   7161.67  5.2262166E-01
   7162.00  5.2049646E-01
   7162.33  5.1830044E-01
   7162.67  5.1603831E-01
   7163.00  5.1371554E-01
   7163.33  5.1133621E-01
   7163.67  5.0892072E-01
   7164.00  5.0648271E-01
   7164.33  5.0403710E-01
   7164.67  5.0159930E-01
   7165.00  4.9917931E-01
   7165.33  4.9678783E-01
   7165.67  4.9442775E-01
   7166.00  4.9210396E-01
   7166.33  4.8982087E-01
   7166.67  4.8756895E-01
   7167.00  4.8534324E-01
   7167.33  4.8314313E-01
   7167.67  4.8096794E-01
   7168.00  4.7881848E-01
   7168.33  4.7669561E-01
   7168.67  4.7459626E-01
   7169.00  4.7252276E-01
   7169.33  4.7048323E-01
   7169.67  4.6847934E-01
   7170.00  4.6651739E-01
   7170.33  4.6461455E-01
   7170.67  4.6278025E-01
   7171.00  4.6103485E-01
   7171.33  4.5943107E-01
   7171.67  4.5801535E-01
   7172.00  4.5686473E-01
