    FDMNES
    energy     <xanes>
   7097.00  5.2382593E-03
   7097.33  5.3720803E-03
   7097.67  5.5123690E-03
   7098.00  5.6595857E-03
   7098.33  5.8152654E-03
   7098.67  5.9791333E-03
   7099.00  6.1518241E-03
   7099.33  6.3353712E-03
   7099.67  6.5295026E-03
   7100.00  6.7351178E-03
   7100.33  6.9549842E-03
   7100.67  7.1888705E-03
   7101.00  7.4380928E-03
   7101.33  7.7065396E-03
   7101.67  7.9941029E-03
   7102.00  8.3027823E-03
   7102.33  8.6382548E-03
   7102.67  9.0007172E-03
   7103.00  9.3933479E-03
   7103.33  9.8248279E-03
   7103.67  1.0296071E-02
   7104.00  1.0812415E-02
   7104.33  1.1387918E-02
   7104.67  1.2025195E-02
   7105.00  1.2733851E-02
   7105.33  1.3538369E-02
   7105.67  1.4445609E-02
   7106.00  1.5474458E-02
   7106.33  1.6671814E-02
   7106.67  1.8056138E-02
   7107.00  1.9669280E-02
   7107.33  2.1613605E-02
   7107.67  2.3944130E-02
   7108.00  2.6770752E-02
   7108.33  3.0364000E-02
   7108.67  3.4922976E-02
   7109.00  4.0822683E-02
   7109.33  4.9033457E-02
   7109.67  6.0571418E-02
   7110.00  7.7398509E-02
   7110.33  1.0508836E-01
   7110.67  1.5020634E-01
   7111.00  2.1944586E-01
   7111.33  3.1226512E-01
   7111.67  4.0370075E-01
   7112.00  4.8087150E-01
   7112.33  5.4739852E-01
   7112.67  5.8508423E-01
   7113.00  5.6657531E-01
   7113.33  4.8239108E-01
   7113.67  3.7693418E-01
   7114.00  2.9248494E-01
   7114.33  2.3522006E-01
   7114.67  1.8941221E-01
   7115.00  1.5398662E-01
   7115.33  1.3040605E-01
   7115.67  1.1308011E-01
   7116.00  9.8738111E-02
   7116.33  8.7779343E-02
   7116.67  8.0617162E-02
   7117.00  7.7058503E-02
   7117.33  7.7096077E-02
   7117.67  8.0259598E-02
   7118.00  8.6722421E-02
   7118.33  9.6926338E-02
   7118.67  1.0945630E-01
   7119.00  1.2229871E-01
   7119.33  1.3281478E-01
   7119.67  1.4065885E-01
   7120.00  1.4691877E-01
   7120.33  1.5317719E-01
   7120.67  1.5944336E-01
   7121.00  1.6482738E-01
   7121.33  1.7006750E-01
   7121.67  1.7878925E-01
   7122.00  1.9390648E-01
   7122.33  2.1764671E-01
   7122.67  2.4866550E-01
   7123.00  2.8575488E-01
   7123.33  3.2733046E-01
   7123.67  3.7094011E-01
   7124.00  4.1576979E-01
   7124.33  4.6252666E-01
   7124.67  5.1190399E-01
   7125.00  5.6294864E-01
   7125.33  6.1123911E-01
   7125.67  6.5203517E-01
   7126.00  6.8295103E-01
   7126.33  7.0320448E-01
   7126.67  7.1557712E-01
   7127.00  7.2074287E-01
   7127.33  7.1798062E-01
   7127.67  7.0849128E-01
   7128.00  6.9292933E-01
   7128.33  6.7188126E-01
   7128.67  6.4745831E-01
   7129.00  6.2121530E-01
   7129.33  5.9521486E-01
   7129.67  5.7118283E-01
   7130.00  5.5014362E-01
   7130.33  5.3348330E-01
   7130.67  5.2147493E-01
   7131.00  5.1448571E-01
   7131.33  5.1293774E-01
   7131.67  5.1534018E-01
   7132.00  5.2053031E-01
   7132.33  5.2722724E-01
   7132.67  5.3415138E-01
   7133.00  5.4087190E-01
   7133.33  5.4757762E-01
   7133.67  5.5502891E-01
   7134.00  5.6395987E-01
   7134.33  5.7487084E-01
   7134.67  5.8703594E-01
   7135.00  5.9996734E-01
   7135.33  6.1354797E-01
   7135.67  6.2756776E-01
   7136.00  6.4167009E-01
   7136.33  6.5511478E-01
   7136.67  6.6728884E-01
   7137.00  6.7779044E-01
   7137.33  6.8624118E-01
   7137.67  6.9300301E-01
   7138.00  6.9832305E-01
   7138.33  7.0239365E-01
   7138.67  7.0563384E-01
   7139.00  7.0817916E-01
   7139.33  7.0993567E-01
   7139.67  7.1082708E-01
   7140.00  7.1064712E-01
   7140.33  7.0901159E-01
   7140.67  7.0593065E-01
   7141.00  7.0134964E-01
   7141.33  6.9515558E-01
   7141.67  6.8773999E-01
   7142.00  6.7939704E-01
   7142.33  6.7042853E-01
   7142.67  6.6119138E-01
   7143.00  6.5188183E-01
   7143.33  6.4270213E-01
   7143.67  6.3378668E-01
   7144.00  6.2523678E-01
   7144.33  6.1720069E-01
   7144.67  6.0968629E-01
   7145.00  6.0272875E-01
   7145.33  5.9641330E-01
   7145.67  5.9064956E-01
   7146.00  5.8539430E-01
   7146.33  5.8062183E-01
   7146.67  5.7617317E-01
   7147.00  5.7194201E-01
   7147.33  5.6780695E-01
   7147.67  5.6363715E-01
   7148.00  5.5935638E-01
   7148.33  5.5490146E-01
   7148.67  5.5029762E-01
   7149.00  5.4558049E-01
   7149.33  5.4080179E-01
   7149.67  5.3602818E-01
   7150.00  5.3130240E-01
   7150.33  5.2666807E-01
   7150.67  5.2213031E-01
   7151.00  5.1768942E-01
   7151.33  5.1334597E-01
   7151.67  5.0907257E-01
   7152.00  5.0484740E-01
   7152.33  5.0064155E-01
   7152.67  4.9641924E-01
   7153.00  4.9214840E-01
   7153.33  4.8777527E-01
   7153.67  4.8326289E-01
   7154.00  4.7856537E-01
   7154.33  4.7359736E-01
   7154.67  4.6833756E-01
   7155.00  4.6274857E-01
   7155.33  4.5675183E-01
   7155.67  4.5037502E-01
   7156.00  4.4361815E-01
   7156.33  4.3645425E-01
   7156.67  4.2896639E-01
   7157.00  4.2120193E-01
   7157.33  4.1320557E-01
   7157.67  4.0508678E-01
   7158.00  3.9692304E-01
   7158.33  3.8880932E-01
   7158.67  3.8082308E-01
   7159.00  3.7302672E-01
   7159.33  3.6551026E-01
   7159.67  3.5828561E-01
   7160.00  3.5137759E-01
   7160.33  3.4484420E-01
   7160.67  3.3864866E-01
   7161.00  3.3278778E-01
   7161.33  3.2729572E-01
   7161.67  3.2212812E-01
   7162.00  3.1728468E-01
   7162.33  3.1280904E-01
   7162.67  3.0866805E-01
   7163.00  3.0487304E-01
   7163.33  3.0148706E-01
   7163.67  2.9848522E-01
   7164.00  2.9588658E-01
   7164.33  2.9376741E-01
   7164.67  2.9209659E-01
   7165.00  2.9089071E-01
   7165.33  2.9022498E-01
   7165.67  2.9004917E-01
   7166.00  2.9036661E-01
   7166.33  2.9123550E-01
   7166.67  2.9258348E-01
   7167.00  2.9439475E-01
   7167.33  2.9669886E-01
   7167.67  2.9940901E-01
   7168.00  3.0249278E-01
   7168.33  3.0594793E-01
   7168.67  3.0968553E-01
   7169.00  3.1366422E-01
   7169.33  3.1785875E-01
   7169.67  3.2219369E-01
   7170.00  3.2662308E-01
   7170.33  3.3109497E-01
   7170.67  3.3553937E-01
   7171.00  3.3988497E-01
   7171.33  3.4398249E-01
   7171.67  3.4765569E-01
   7172.00  3.5064746E-01
