    FDMNES
    energy     <xanes>
   7097.00  3.5825285E-03
   7097.33  3.6458305E-03
   7097.67  3.7114483E-03
   7098.00  3.7795221E-03
   7098.33  3.8505612E-03
   7098.67  3.9244357E-03
   7099.00  4.0013345E-03
   7099.33  4.0819105E-03
   7099.67  4.1660291E-03
   7100.00  4.2539521E-03
   7100.33  4.3465399E-03
   7100.67  4.4436623E-03
   7101.00  4.5456944E-03
   7101.33  4.6538084E-03
   7101.67  4.7678989E-03
   7102.00  4.8885253E-03
   7102.33  5.0173492E-03
   7102.67  5.1543373E-03
   7103.00  5.3003642E-03
   7103.33  5.4579042E-03
   7103.67  5.6271042E-03
   7104.00  5.8094146E-03
   7104.33  6.0087552E-03
   7104.67  6.2257169E-03
   7105.00  6.4628917E-03
   7105.33  6.7270038E-03
   7105.67  7.0197882E-03
   7106.00  7.3463554E-03
   7106.33  7.7195372E-03
   7106.67  8.1443190E-03
   7107.00  8.6322343E-03
   7107.33  9.2117399E-03
   7107.67  9.8986762E-03
   7108.00  1.0724788E-02
   7108.33  1.1769278E-02
   7108.67  1.3095118E-02
   7109.00  1.4821979E-02
   7109.33  1.7269464E-02
   7109.67  2.0812181E-02
   7110.00  2.6191874E-02
   7110.33  3.5544792E-02
   7110.67  5.0828221E-02
   7111.00  7.0397929E-02
   7111.33  8.1143184E-02
   7111.67  8.4486422E-02
   7112.00  9.2413359E-02
   7112.33  1.1133033E-01
   7112.67  1.2986469E-01
   7113.00  1.2896880E-01
   7113.33  1.0817933E-01
   7113.67  9.2691593E-02
   7114.00  9.2329523E-02
   7114.33  1.1041237E-01
   7114.67  1.3634651E-01
   7115.00  1.4648916E-01
   7115.33  1.2655397E-01
   7115.67  1.0150202E-01
   7116.00  8.3269842E-02
   7116.33  7.4123054E-02
   7116.67  6.7322707E-02
   7117.00  5.9481198E-02
   7117.33  5.1945845E-02
   7117.67  4.6234952E-02
   7118.00  4.2226159E-02
   7118.33  3.9594152E-02
   7118.67  3.7921191E-02
   7119.00  3.7130842E-02
   7119.33  3.7223164E-02
   7119.67  3.7776266E-02
   7120.00  3.8302443E-02
   7120.33  3.8568077E-02
   7120.67  3.9228540E-02
   7121.00  4.0739385E-02
   7121.33  4.3355809E-02
   7121.67  4.7027090E-02
   7122.00  5.1892730E-02
   7122.33  5.8298685E-02
   7122.67  6.6071792E-02
   7123.00  7.5049946E-02
   7123.33  8.5010534E-02
   7123.67  9.4860809E-02
   7124.00  1.0312862E-01
   7124.33  1.0944242E-01
   7124.67  1.1572520E-01
   7125.00  1.2283855E-01
   7125.33  1.3079623E-01
   7125.67  1.3919032E-01
   7126.00  1.4803071E-01
   7126.33  1.5786666E-01
   7126.67  1.6924635E-01
   7127.00  1.8260480E-01
   7127.33  1.9828622E-01
   7127.67  2.1579950E-01
   7128.00  2.3506690E-01
   7128.33  2.5672857E-01
   7128.67  2.8140623E-01
   7129.00  3.1018990E-01
   7129.33  3.4497429E-01
   7129.67  3.8472209E-01
   7130.00  4.2585048E-01
   7130.33  4.5925233E-01
   7130.67  4.7858317E-01
   7131.00  4.8319765E-01
   7131.33  4.7637073E-01
   7131.67  4.6497315E-01
   7132.00  4.5260715E-01
   7132.33  4.4200609E-01
   7132.67  4.3431102E-01
   7133.00  4.3021536E-01
   7133.33  4.3084005E-01
   7133.67  4.3605798E-01
   7134.00  4.4597279E-01
   7134.33  4.6089776E-01
   7134.67  4.7963732E-01
   7135.00  5.0139754E-01
   7135.33  5.2536997E-01
   7135.67  5.5030085E-01
   7136.00  5.7548324E-01
   7136.33  6.0031673E-01
   7136.67  6.2456223E-01
   7137.00  6.4818695E-01
   7137.33  6.7129160E-01
   7137.67  6.9420800E-01
   7138.00  7.1714628E-01
   7138.33  7.4015595E-01
   7138.67  7.6286712E-01
   7139.00  7.8453601E-01
   7139.33  8.0347466E-01
   7139.67  8.1823316E-01
   7140.00  8.2732658E-01
   7140.33  8.2869184E-01
   7140.67  8.2286753E-01
   7141.00  8.1034246E-01
   7141.33  7.9174614E-01
   7141.67  7.6941904E-01
   7142.00  7.4479260E-01
   7142.33  7.1921904E-01
   7142.67  6.9393944E-01
   7143.00  6.6967266E-01
   7143.33  6.4719909E-01
   7143.67  6.2667951E-01
   7144.00  6.0828551E-01
   7144.33  5.9238236E-01
   7144.67  5.7871025E-01
   7145.00  5.6724231E-01
   7145.33  5.5815707E-01
   7145.67  5.5106726E-01
   7146.00  5.4587817E-01
   7146.33  5.4269874E-01
   7146.67  5.4116768E-01
   7147.00  5.4114592E-01
   7147.33  5.4262158E-01
   7147.67  5.4523685E-01
   7148.00  5.4881810E-01
   7148.33  5.5325219E-01
   7148.67  5.5824017E-01
   7149.00  5.6361807E-01
   7149.33  5.6924330E-01
   7149.67  5.7494423E-01
   7150.00  5.8061663E-01
   7150.33  5.8613893E-01
   7150.67  5.9143072E-01
   7151.00  5.9640751E-01
   7151.33  6.0091304E-01
   7151.67  6.0489223E-01
   7152.00  6.0825797E-01
   7152.33  6.1084534E-01
   7152.67  6.1270573E-01
   7153.00  6.1385316E-01
   7153.33  6.1429246E-01
   7153.67  6.1426521E-01
   7154.00  6.1395954E-01
   7154.33  6.1361877E-01
   7154.67  6.1348530E-01
   7155.00  6.1371839E-01
   7155.33  6.1445389E-01
   7155.67  6.1556781E-01
   7156.00  6.1688612E-01
   7156.33  6.1808544E-01
   7156.67  6.1880921E-01
   7157.00  6.1875522E-01
   7157.33  6.1753439E-01
   7157.67  6.1516600E-01
   7158.00  6.1168077E-01
   7158.33  6.0710526E-01
   7158.67  6.0176891E-01
   7159.00  5.9585155E-01
   7159.33  5.8947619E-01
   7159.67  5.8281967E-01
   7160.00  5.7596079E-01
   7160.33  5.6896089E-01
   7160.67  5.6191456E-01
   7161.00  5.5489887E-01
   7161.33  5.4802923E-01
   7161.67  5.4139157E-01
   7162.00  5.3506930E-01
   7162.33  5.2920008E-01
   7162.67  5.2381096E-01
   7163.00  5.1895632E-01
   7163.33  5.1475435E-01
   7163.67  5.1116287E-01
   7164.00  5.0819729E-01
   7164.33  5.0594325E-01
   7164.67  5.0431771E-01
   7165.00  5.0331063E-01
   7165.33  5.0297586E-01
   7165.67  5.0320415E-01
   7166.00  5.0395348E-01
   7166.33  5.0521663E-01
   7166.67  5.0685482E-01
   7167.00  5.0878423E-01
   7167.33  5.1091565E-01
   7167.67  5.1310458E-01
   7168.00  5.1524390E-01
   7168.33  5.1719414E-01
   7168.67  5.1887436E-01
   7169.00  5.2021714E-01
   7169.33  5.2112527E-01
   7169.67  5.2163283E-01
   7170.00  5.2175480E-01
   7170.33  5.2149423E-01
   7170.67  5.2096347E-01
   7171.00  5.2023734E-01
   7171.33  5.1940529E-01
   7171.67  5.1859596E-01
   7172.00  5.1791770E-01
