    FDMNES
    energy     <xanes>
   7097.00  4.9139476E-03
   7097.33  5.0174747E-03
   7097.67  5.1252150E-03
   7098.00  5.2374280E-03
   7098.33  5.3550454E-03
   7098.67  5.4778329E-03
   7099.00  5.6061356E-03
   7099.33  5.7411427E-03
   7099.67  5.8826043E-03
   7100.00  6.0309910E-03
   7100.33  6.1878557E-03
   7100.67  6.3529437E-03
   7101.00  6.5269147E-03
   7101.33  6.7118526E-03
   7101.67  6.9075236E-03
   7102.00  7.1148837E-03
   7102.33  7.3368224E-03
   7102.67  7.5731851E-03
   7103.00  7.8254139E-03
   7103.33  8.0976792E-03
   7103.67  8.3900378E-03
   7104.00  8.7047754E-03
   7104.33  9.0482218E-03
   7104.67  9.4209564E-03
   7105.00  9.8268362E-03
   7105.33  1.0276114E-02
   7105.67  1.0770677E-02
   7106.00  1.1317596E-02
   7106.33  1.1934996E-02
   7106.67  1.2628282E-02
   7107.00  1.3411998E-02
   7107.33  1.4322456E-02
   7107.67  1.5375928E-02
   7108.00  1.6607955E-02
   7108.33  1.8106947E-02
   7108.67  1.9931780E-02
   7109.00  2.2197998E-02
   7109.33  2.5207201E-02
   7109.67  2.9269638E-02
   7110.00  3.4996100E-02
   7110.33  4.4097319E-02
   7110.67  5.8045428E-02
   7111.00  7.6156428E-02
   7111.33  9.4319736E-02
   7111.67  1.1381136E-01
   7112.00  1.3454684E-01
   7112.33  1.5944005E-01
   7112.67  1.8883074E-01
   7113.00  2.1764012E-01
   7113.33  2.4239355E-01
   7113.67  2.6983742E-01
   7114.00  3.1244744E-01
   7114.33  3.6721463E-01
   7114.67  3.9349280E-01
   7115.00  3.7308937E-01
   7115.33  3.2624431E-01
   7115.67  2.8109299E-01
   7116.00  2.4562124E-01
   7116.33  2.2009113E-01
   7116.67  1.9861054E-01
   7117.00  1.7809208E-01
   7117.33  1.5882183E-01
   7117.67  1.4299706E-01
   7118.00  1.3190027E-01
   7118.33  1.2626351E-01
   7118.67  1.2506328E-01
   7119.00  1.2784860E-01
   7119.33  1.3391188E-01
   7119.67  1.4061080E-01
   7120.00  1.4556285E-01
   7120.33  1.4736311E-01
   7120.67  1.4768205E-01
   7121.00  1.4822544E-01
   7121.33  1.5086170E-01
   7121.67  1.5631345E-01
   7122.00  1.6473070E-01
   7122.33  1.7590673E-01
   7122.67  1.8857106E-01
   7123.00  2.0189921E-01
   7123.33  2.1548787E-01
   7123.67  2.2963134E-01
   7124.00  2.4485303E-01
   7124.33  2.6151633E-01
   7124.67  2.7914753E-01
   7125.00  2.9753339E-01
   7125.33  3.1674754E-01
   7125.67  3.3642775E-01
   7126.00  3.5589123E-01
   7126.33  3.7386771E-01
   7126.67  3.8967456E-01
   7127.00  4.0327847E-01
   7127.33  4.1542402E-01
   7127.67  4.2775079E-01
   7128.00  4.4160639E-01
   7128.33  4.5886037E-01
   7128.67  4.8020863E-01
   7129.00  5.0572905E-01
   7129.33  5.3490617E-01
   7129.67  5.6637977E-01
   7130.00  6.0018035E-01
   7130.33  6.3798315E-01
   7130.67  6.8137021E-01
   7131.00  7.3217025E-01
   7131.33  7.9295052E-01
   7131.67  8.6242415E-01
   7132.00  9.3827367E-01
   7132.33  1.0142414E+00
   7132.67  1.0801529E+00
   7133.00  1.1262675E+00
   7133.33  1.1419479E+00
   7133.67  1.1315028E+00
   7134.00  1.1011224E+00
   7134.33  1.0582395E+00
   7134.67  1.0112550E+00
   7135.00  9.6393175E-01
   7135.33  9.1882614E-01
   7135.67  8.7662376E-01
   7136.00  8.3754438E-01
   7136.33  8.0191698E-01
   7136.67  7.6917025E-01
   7137.00  7.3911958E-01
   7137.33  7.1187057E-01
   7137.67  6.8692899E-01
   7138.00  6.6415435E-01
   7138.33  6.4363030E-01
   7138.67  6.2491261E-01
   7139.00  6.0781702E-01
   7139.33  5.9230002E-01
   7139.67  5.7797149E-01
   7140.00  5.6465517E-01
   7140.33  5.5225869E-01
   7140.67  5.4049737E-01
   7141.00  5.2922205E-01
   7141.33  5.1830383E-01
   7141.67  5.0754975E-01
   7142.00  4.9686235E-01
   7142.33  4.8621719E-01
   7142.67  4.7572580E-01
   7143.00  4.6562812E-01
   7143.33  4.5643129E-01
   7143.67  4.4846383E-01
   7144.00  4.4199269E-01
   7144.33  4.3730914E-01
   7144.67  4.3406577E-01
   7145.00  4.3200088E-01
   7145.33  4.3085860E-01
   7145.67  4.3020257E-01
   7146.00  4.2979821E-01
   7146.33  4.2944661E-01
   7146.67  4.2900745E-01
   7147.00  4.2841477E-01
   7147.33  4.2761371E-01
   7147.67  4.2663180E-01
   7148.00  4.2549273E-01
   7148.33  4.2422393E-01
   7148.67  4.2288951E-01
   7149.00  4.2153397E-01
   7149.33  4.2021111E-01
   7149.67  4.1896347E-01
   7150.00  4.1782668E-01
   7150.33  4.1685578E-01
   7150.67  4.1606305E-01
   7151.00  4.1546812E-01
   7151.33  4.1511528E-01
   7151.67  4.1499586E-01
   7152.00  4.1512493E-01
   7152.33  4.1555587E-01
   7152.67  4.1627695E-01
   7153.00  4.1730090E-01
   7153.33  4.1867830E-01
   7153.67  4.2038276E-01
   7154.00  4.2242737E-01
   7154.33  4.2486762E-01
   7154.67  4.2766528E-01
   7155.00  4.3082269E-01
   7155.33  4.3438675E-01
   7155.67  4.3831275E-01
   7156.00  4.4259965E-01
   7156.33  4.4728928E-01
   7156.67  4.5233075E-01
   7157.00  4.5771459E-01
   7157.33  4.6346347E-01
   7157.67  4.6950908E-01
   7158.00  4.7581809E-01
   7158.33  4.8236662E-01
   7158.67  4.8906518E-01
   7159.00  4.9585164E-01
   7159.33  5.0264966E-01
   7159.67  5.0937881E-01
   7160.00  5.1597224E-01
   7160.33  5.2232818E-01
   7160.67  5.2840529E-01
   7161.00  5.3415613E-01
   7161.33  5.3949278E-01
   7161.67  5.4443190E-01
   7162.00  5.4895867E-01
   7162.33  5.5301709E-01
   7162.67  5.5666566E-01
   7163.00  5.5991617E-01
   7163.33  5.6273973E-01
   7163.67  5.6520259E-01
   7164.00  5.6732665E-01
   7164.33  5.6910930E-01
   7164.67  5.7062307E-01
   7165.00  5.7189522E-01
   7165.33  5.7292956E-01
   7165.67  5.7378087E-01
   7166.00  5.7447119E-01
   7166.33  5.7500429E-01
   7166.67  5.7541224E-01
   7167.00  5.7570303E-01
   7167.33  5.7587305E-01
   7167.67  5.7594403E-01
   7168.00  5.7591266E-01
   7168.33  5.7575269E-01
   7168.67  5.7546315E-01
   7169.00  5.7502983E-01
   7169.33  5.7441632E-01
   7169.67  5.7362862E-01
   7170.00  5.7265831E-01
   7170.33  5.7147936E-01
   7170.67  5.7012525E-01
   7171.00  5.6862226E-01
   7171.33  5.6702615E-01
   7171.67  5.6547965E-01
   7172.00  5.6416282E-01
