    FDMNES
    energy     <xanes>
   7097.00  4.7614241E-03
   7097.33  4.8743515E-03
   7097.67  4.9923992E-03
   7098.00  5.1159205E-03
   7098.33  5.2461132E-03
   7098.67  5.3827476E-03
   7099.00  5.5263117E-03
   7099.33  5.6783888E-03
   7099.67  5.8387543E-03
   7100.00  6.0081043E-03
   7100.33  6.1885959E-03
   7100.67  6.3800450E-03
   7101.00  6.5834817E-03
   7101.33  6.8019555E-03
   7101.67  7.0354013E-03
   7102.00  7.2854128E-03
   7102.33  7.5565007E-03
   7102.67  7.8488970E-03
   7103.00  8.1652048E-03
   7103.33  8.5124808E-03
   7103.67  8.8916767E-03
   7104.00  9.3073401E-03
   7104.33  9.7713201E-03
   7104.67  1.0286359E-02
   7105.00  1.0861108E-02
   7105.33  1.1517366E-02
   7105.67  1.2262656E-02
   7106.00  1.3115368E-02
   7106.33  1.4120792E-02
   7106.67  1.5300797E-02
   7107.00  1.6700837E-02
   7107.33  1.8432265E-02
   7107.67  2.0568447E-02
   7108.00  2.3248828E-02
   7108.33  2.6823928E-02
   7108.67  3.1610822E-02
   7109.00  3.8204326E-02
   7109.33  4.8227559E-02
   7109.67  6.3758902E-02
   7110.00  8.8942090E-02
   7110.33  1.3578685E-01
   7110.67  2.1419487E-01
   7111.00  3.0824518E-01
   7111.33  3.3494879E-01
   7111.67  2.9297368E-01
   7112.00  2.3137493E-01
   7112.33  1.8280226E-01
   7112.67  1.4842026E-01
   7113.00  1.2471758E-01
   7113.33  1.0898369E-01
   7113.67  9.8072058E-02
   7114.00  9.0785275E-02
   7114.33  8.6426554E-02
   7114.67  8.3801564E-02
   7115.00  8.2604513E-02
   7115.33  8.3309079E-02
   7115.67  8.5994302E-02
   7116.00  9.0843355E-02
   7116.33  9.8387471E-02
   7116.67  1.0846633E-01
   7117.00  1.2090979E-01
   7117.33  1.3519660E-01
   7117.67  1.5006052E-01
   7118.00  1.6472147E-01
   7118.33  1.7856354E-01
   7118.67  1.9154933E-01
   7119.00  2.0406269E-01
   7119.33  2.1758646E-01
   7119.67  2.3387985E-01
   7120.00  2.5411938E-01
   7120.33  2.7934948E-01
   7120.67  3.0872639E-01
   7121.00  3.4151638E-01
   7121.33  3.7681781E-01
   7121.67  4.1328171E-01
   7122.00  4.5038969E-01
   7122.33  4.8802475E-01
   7122.67  5.2594904E-01
   7123.00  5.6352449E-01
   7123.33  5.9889357E-01
   7123.67  6.2979117E-01
   7124.00  6.5361110E-01
   7124.33  6.6653234E-01
   7124.67  6.6890418E-01
   7125.00  6.6182698E-01
   7125.33  6.4709013E-01
   7125.67  6.2829250E-01
   7126.00  6.0725332E-01
   7126.33  5.8545177E-01
   7126.67  5.6425825E-01
   7127.00  5.4463049E-01
   7127.33  5.2765709E-01
   7127.67  5.1333397E-01
   7128.00  5.0150903E-01
   7128.33  4.9193025E-01
   7128.67  4.8369847E-01
   7129.00  4.7627564E-01
   7129.33  4.6920693E-01
   7129.67  4.6217032E-01
   7130.00  4.5511826E-01
   7130.33  4.4823179E-01
   7130.67  4.4183463E-01
   7131.00  4.3628820E-01
   7131.33  4.3213645E-01
   7131.67  4.2948307E-01
   7132.00  4.2840917E-01
   7132.33  4.2905274E-01
   7132.67  4.3107424E-01
   7133.00  4.3433072E-01
   7133.33  4.3883922E-01
   7133.67  4.4441999E-01
   7134.00  4.5110383E-01
   7134.33  4.5913113E-01
   7134.67  4.6848224E-01
   7135.00  4.7929774E-01
   7135.33  4.9199272E-01
   7135.67  5.0658067E-01
   7136.00  5.2319685E-01
   7136.33  5.4208071E-01
   7136.67  5.6271065E-01
   7137.00  5.8463992E-01
   7137.33  6.0720769E-01
   7137.67  6.2944414E-01
   7138.00  6.5048962E-01
   7138.33  6.6895653E-01
   7138.67  6.8392993E-01
   7139.00  6.9458675E-01
   7139.33  6.9989416E-01
   7139.67  7.0053411E-01
   7140.00  6.9696010E-01
   7140.33  6.8960530E-01
   7140.67  6.7991674E-01
   7141.00  6.6878020E-01
   7141.33  6.5703772E-01
   7141.67  6.4546091E-01
   7142.00  6.3449717E-01
   7142.33  6.2463260E-01
   7142.67  6.1596049E-01
   7143.00  6.0856791E-01
   7143.33  6.0263103E-01
   7143.67  5.9793545E-01
   7144.00  5.9439953E-01
   7144.33  5.9202842E-01
   7144.67  5.9054782E-01
   7145.00  5.8982532E-01
   7145.33  5.8978152E-01
   7145.67  5.9019436E-01
   7146.00  5.9095023E-01
   7146.33  5.9196339E-01
   7146.67  5.9311034E-01
   7147.00  5.9432263E-01
   7147.33  5.9553089E-01
   7147.67  5.9667439E-01
   7148.00  5.9770518E-01
   7148.33  5.9855136E-01
   7148.67  5.9918585E-01
   7149.00  5.9956849E-01
   7149.33  5.9961764E-01
   7149.67  5.9933984E-01
   7150.00  5.9871662E-01
   7150.33  5.9767028E-01
   7150.67  5.9620432E-01
   7151.00  5.9427443E-01
   7151.33  5.9176018E-01
   7151.67  5.8867167E-01
   7152.00  5.8496655E-01
   7152.33  5.8052354E-01
   7152.67  5.7540047E-01
   7153.00  5.6959098E-01
   7153.33  5.6302053E-01
   7153.67  5.5580188E-01
   7154.00  5.4797191E-01
   7154.33  5.3951391E-01
   7154.67  5.3055854E-01
   7155.00  5.2116268E-01
   7155.33  5.1134767E-01
   7155.67  5.0122714E-01
   7156.00  4.9085692E-01
   7156.33  4.8027934E-01
   7156.67  4.6958276E-01
   7157.00  4.5881642E-01
   7157.33  4.4802918E-01
   7157.67  4.3727252E-01
   7158.00  4.2658815E-01
   7158.33  4.1603889E-01
   7158.67  4.0565667E-01
   7159.00  3.9548106E-01
   7159.33  3.8558804E-01
   7159.67  3.7598827E-01
   7160.00  3.6671567E-01
   7160.33  3.5785087E-01
   7160.67  3.4937937E-01
   7161.00  3.4132443E-01
   7161.33  3.3376292E-01
   7161.67  3.2665669E-01
   7162.00  3.2001714E-01
   7162.33  3.1391335E-01
   7162.67  3.0829158E-01
   7163.00  3.0315527E-01
   7163.33  2.9856924E-01
   7163.67  2.9447647E-01
   7164.00  2.9088075E-01
   7164.33  2.8784913E-01
   7164.67  2.8532374E-01
   7165.00  2.8330879E-01
   7165.33  2.8187283E-01
   7165.67  2.8095402E-01
   7166.00  2.8055311E-01
   7166.33  2.8073352E-01
   7166.67  2.8142651E-01
   7167.00  2.8262563E-01
   7167.33  2.8438105E-01
   7167.67  2.8661477E-01
   7168.00  2.8930930E-01
   7168.33  2.9249392E-01
   7168.67  2.9608228E-01
   7169.00  3.0004176E-01
   7169.33  3.0436976E-01
   7169.67  3.0897490E-01
   7170.00  3.1380717E-01
   7170.33  3.1881799E-01
   7170.67  3.2390252E-01
   7171.00  3.2896489E-01
   7171.33  3.3381739E-01
   7171.67  3.3821149E-01
   7172.00  3.4180819E-01
