    FDMNES
    energy     <xanes>
   7097.00  4.5850819E-03
   7097.33  4.6854148E-03
   7097.67  4.7900595E-03
   7098.00  4.8993042E-03
   7098.33  5.0141422E-03
   7098.67  5.1343669E-03
   7099.00  5.2603736E-03
   7099.33  5.3934636E-03
   7099.67  5.5334298E-03
   7100.00  5.6808302E-03
   7100.33  5.8374194E-03
   7100.67  6.0030136E-03
   7101.00  6.1784278E-03
   7101.33  6.3661099E-03
   7101.67  6.5659526E-03
   7102.00  6.7791950E-03
   7102.33  7.0093957E-03
   7102.67  7.2566416E-03
   7103.00  7.5229101E-03
   7103.33  7.8136397E-03
   7103.67  8.1293821E-03
   7104.00  8.4734841E-03
   7104.33  8.8547886E-03
   7104.67  9.2749679E-03
   7105.00  9.7401193E-03
   7105.33  1.0265794E-02
   7105.67  1.0856512E-02
   7106.00  1.1524482E-02
   7106.33  1.2300001E-02
   7106.67  1.3195549E-02
   7107.00  1.4238867E-02
   7107.33  1.5497834E-02
   7107.67  1.7010733E-02
   7108.00  1.8852987E-02
   7108.33  2.1210900E-02
   7108.67  2.4228317E-02
   7109.00  2.8174928E-02
   7109.33  3.3754982E-02
   7109.67  4.1738900E-02
   7110.00  5.3620730E-02
   7110.33  7.3680790E-02
   7110.67  1.0691752E-01
   7111.00  1.5755377E-01
   7111.33  2.2353083E-01
   7111.67  2.8809625E-01
   7112.00  3.2266627E-01
   7112.33  3.1396941E-01
   7112.67  2.7711251E-01
   7113.00  2.3523618E-01
   7113.33  2.0577971E-01
   7113.67  1.7522563E-01
   7114.00  1.4081717E-01
   7114.33  1.1354352E-01
   7114.67  9.6815937E-02
   7115.00  8.6112812E-02
   7115.33  7.5099082E-02
   7115.67  6.4755023E-02
   7116.00  5.7200328E-02
   7116.33  5.2826351E-02
   7116.67  5.0484278E-02
   7117.00  4.9604832E-02
   7117.33  4.9874386E-02
   7117.67  5.0974987E-02
   7118.00  5.2942293E-02
   7118.33  5.6070872E-02
   7118.67  6.0370988E-02
   7119.00  6.5827138E-02
   7119.33  7.2222992E-02
   7119.67  7.8753953E-02
   7120.00  8.4709897E-02
   7120.33  8.9481131E-02
   7120.67  9.3356317E-02
   7121.00  9.6843700E-02
   7121.33  1.0069801E-01
   7121.67  1.0555367E-01
   7122.00  1.1193690E-01
   7122.33  1.2068576E-01
   7122.67  1.3211790E-01
   7123.00  1.4679706E-01
   7123.33  1.6604831E-01
   7123.67  1.9037451E-01
   7124.00  2.2070965E-01
   7124.33  2.5873710E-01
   7124.67  3.0360488E-01
   7125.00  3.5434277E-01
   7125.33  4.0883304E-01
   7125.67  4.6192692E-01
   7126.00  5.0784276E-01
   7126.33  5.3966687E-01
   7126.67  5.5898774E-01
   7127.00  5.7074005E-01
   7127.33  5.8464197E-01
   7127.67  6.0816451E-01
   7128.00  6.4325936E-01
   7128.33  6.8903553E-01
   7128.67  7.4055949E-01
   7129.00  7.9477333E-01
   7129.33  8.4827347E-01
   7129.67  8.9762574E-01
   7130.00  9.3969006E-01
   7130.33  9.6991097E-01
   7130.67  9.8772371E-01
   7131.00  9.9323178E-01
   7131.33  9.8732042E-01
   7131.67  9.7467079E-01
   7132.00  9.5814128E-01
   7132.33  9.3970246E-01
   7132.67  9.2027572E-01
   7133.00  8.9974804E-01
   7133.33  8.7799300E-01
   7133.67  8.5604112E-01
   7134.00  8.3514318E-01
   7134.33  8.1641832E-01
   7134.67  7.9931533E-01
   7135.00  7.8305924E-01
   7135.33  7.6690718E-01
   7135.67  7.5053007E-01
   7136.00  7.3395948E-01
   7136.33  7.1744564E-01
   7136.67  7.0132396E-01
   7137.00  6.8589334E-01
   7137.33  6.7156769E-01
   7137.67  6.5840735E-01
   7138.00  6.4648105E-01
   7138.33  6.3595196E-01
   7138.67  6.2661876E-01
   7139.00  6.1841302E-01
   7139.33  6.1136406E-01
   7139.67  6.0523567E-01
   7140.00  5.9993583E-01
   7140.33  5.9545339E-01
   7140.67  5.9160530E-01
   7141.00  5.8832252E-01
   7141.33  5.8559915E-01
   7141.67  5.8331710E-01
   7142.00  5.8143548E-01
   7142.33  5.7996023E-01
   7142.67  5.7882158E-01
   7143.00  5.7798992E-01
   7143.33  5.7743651E-01
   7143.67  5.7706330E-01
   7144.00  5.7683151E-01
   7144.33  5.7675871E-01
   7144.67  5.7685903E-01
   7145.00  5.7716988E-01
   7145.33  5.7776319E-01
   7145.67  5.7862105E-01
   7146.00  5.7971066E-01
   7146.33  5.8093185E-01
   7146.67  5.8205773E-01
   7147.00  5.8283042E-01
   7147.33  5.8279644E-01
   7147.67  5.8165794E-01
   7148.00  5.7910681E-01
   7148.33  5.7465370E-01
   7148.67  5.6836319E-01
   7149.00  5.6023352E-01
   7149.33  5.5019123E-01
   7149.67  5.3871301E-01
   7150.00  5.2609212E-01
   7150.33  5.1260585E-01
   7150.67  4.9871693E-01
   7151.00  4.8471135E-01
   7151.33  4.7089675E-01
   7151.67  4.5748094E-01
   7152.00  4.4461142E-01
   7152.33  4.3248333E-01
   7152.67  4.2107508E-01
   7153.00  4.1040792E-01
   7153.33  4.0056949E-01
   7153.67  3.9143883E-01
   7154.00  3.8297725E-01
   7154.33  3.7520145E-01
   7154.67  3.6796253E-01
   7155.00  3.6119193E-01
   7155.33  3.5485418E-01
   7155.67  3.4881809E-01
   7156.00  3.4301612E-01
   7156.33  3.3739728E-01
   7156.67  3.3188177E-01
   7157.00  3.2643168E-01
   7157.33  3.2102695E-01
   7157.67  3.1566185E-01
   7158.00  3.1035742E-01
   7158.33  3.0517701E-01
   7158.67  3.0018138E-01
   7159.00  2.9545049E-01
   7159.33  2.9113402E-01
   7159.67  2.8729463E-01
   7160.00  2.8402593E-01
   7160.33  2.8151629E-01
   7160.67  2.7977460E-01
   7161.00  2.7886890E-01
   7161.33  2.7897174E-01
   7161.67  2.8000355E-01
   7162.00  2.8196593E-01
   7162.33  2.8494932E-01
   7162.67  2.8878770E-01
   7163.00  2.9340535E-01
   7163.33  2.9876772E-01
   7163.67  3.0465741E-01
   7164.00  3.1094657E-01
   7164.33  3.1752493E-01
   7164.67  3.2422629E-01
   7165.00  3.3094822E-01
   7165.33  3.3758664E-01
   7165.67  3.4407931E-01
   7166.00  3.5038198E-01
   7166.33  3.5643494E-01
   7166.67  3.6225301E-01
   7167.00  3.6783789E-01
   7167.33  3.7317450E-01
   7167.67  3.7830731E-01
   7168.00  3.8325526E-01
   7168.33  3.8802753E-01
   7168.67  3.9267407E-01
   7169.00  3.9721917E-01
   7169.33  4.0167764E-01
   7169.67  4.0607698E-01
   7170.00  4.1042525E-01
   7170.33  4.1471414E-01
   7170.67  4.1893095E-01
   7171.00  4.2303686E-01
   7171.33  4.2691643E-01
   7171.67  4.3041760E-01
   7172.00  4.3330297E-01
