    FDMNES
    energy     <xanes>
   7097.00  5.1391194E-03
   7097.33  5.2569582E-03
   7097.67  5.3800440E-03
   7098.00  5.5087287E-03
   7098.33  5.6442219E-03
   7098.67  5.7862713E-03
   7099.00  5.9353562E-03
   7099.33  6.0930555E-03
   7099.67  6.2591111E-03
   7100.00  6.4341932E-03
   7100.33  6.6204182E-03
   7100.67  6.8175460E-03
   7101.00  7.0265441E-03
   7101.33  7.2503389E-03
   7101.67  7.4887631E-03
   7102.00  7.7432665E-03
   7102.33  8.0180510E-03
   7102.67  8.3131433E-03
   7103.00  8.6308168E-03
   7103.33  8.9773911E-03
   7103.67  9.3533639E-03
   7104.00  9.7625064E-03
   7104.33  1.0214891E-02
   7104.67  1.0712156E-02
   7105.00  1.1261020E-02
   7105.33  1.1878784E-02
   7105.67  1.2569985E-02
   7106.00  1.3347762E-02
   7106.33  1.4244982E-02
   7106.67  1.5274277E-02
   7107.00  1.6464880E-02
   7107.33  1.7888746E-02
   7107.67  1.9584948E-02
   7108.00  2.1632103E-02
   7108.33  2.4225533E-02
   7108.67  2.7515544E-02
   7109.00  3.1787683E-02
   7109.33  3.7797313E-02
   7109.67  4.6399115E-02
   7110.00  5.9275424E-02
   7110.33  8.1256031E-02
   7110.67  1.1713073E-01
   7111.00  1.6604878E-01
   7111.33  2.0700194E-01
   7111.67  2.3073219E-01
   7112.00  2.4821681E-01
   7112.33  2.7135406E-01
   7112.67  3.1018386E-01
   7113.00  3.6228961E-01
   7113.33  3.8768448E-01
   7113.67  3.7027642E-01
   7114.00  3.3118295E-01
   7114.33  2.8871993E-01
   7114.67  2.5220546E-01
   7115.00  2.2506262E-01
   7115.33  2.0822324E-01
   7115.67  1.9799814E-01
   7116.00  1.9089348E-01
   7116.33  1.8230540E-01
   7116.67  1.7147365E-01
   7117.00  1.6062704E-01
   7117.33  1.5214416E-01
   7117.67  1.4686845E-01
   7118.00  1.4529384E-01
   7118.33  1.4703370E-01
   7118.67  1.4986503E-01
   7119.00  1.5229004E-01
   7119.33  1.5346309E-01
   7119.67  1.5388893E-01
   7120.00  1.5421768E-01
   7120.33  1.5510357E-01
   7120.67  1.5673160E-01
   7121.00  1.5928475E-01
   7121.33  1.6369955E-01
   7121.67  1.7099402E-01
   7122.00  1.8194692E-01
   7122.33  1.9703312E-01
   7122.67  2.1485974E-01
   7123.00  2.3424072E-01
   7123.33  2.5448499E-01
   7123.67  2.7609311E-01
   7124.00  3.0025039E-01
   7124.33  3.2821911E-01
   7124.67  3.5893578E-01
   7125.00  3.9066481E-01
   7125.33  4.2060132E-01
   7125.67  4.4695323E-01
   7126.00  4.6905353E-01
   7126.33  4.8603537E-01
   7126.67  4.9757128E-01
   7127.00  5.0312680E-01
   7127.33  5.0428511E-01
   7127.67  5.0614535E-01
   7128.00  5.1191956E-01
   7128.33  5.2283255E-01
   7128.67  5.3636289E-01
   7129.00  5.5039914E-01
   7129.33  5.6328040E-01
   7129.67  5.7481758E-01
   7130.00  5.8546134E-01
   7130.33  5.9631023E-01
   7130.67  6.0869759E-01
   7131.00  6.2366879E-01
   7131.33  6.4233898E-01
   7131.67  6.6433875E-01
   7132.00  6.8926868E-01
   7132.33  7.1655420E-01
   7132.67  7.4477869E-01
   7133.00  7.7279870E-01
   7133.33  7.9919500E-01
   7133.67  8.2328880E-01
   7134.00  8.4463253E-01
   7134.33  8.6222152E-01
   7134.67  8.7534154E-01
   7135.00  8.8253749E-01
   7135.33  8.8121014E-01
   7135.67  8.7164348E-01
   7136.00  8.5447915E-01
   7136.33  8.3091051E-01
   7136.67  8.0410178E-01
   7137.00  7.7608783E-01
   7137.33  7.4891897E-01
   7137.67  7.2391449E-01
   7138.00  7.0186327E-01
   7138.33  6.8368524E-01
   7138.67  6.6909900E-01
   7139.00  6.5803474E-01
   7139.33  6.5062195E-01
   7139.67  6.4599023E-01
   7140.00  6.4360485E-01
   7140.33  6.4289094E-01
   7140.67  6.4280054E-01
   7141.00  6.4257596E-01
   7141.33  6.4130425E-01
   7141.67  6.3851325E-01
   7142.00  6.3392136E-01
   7142.33  6.2721683E-01
   7142.67  6.1874990E-01
   7143.00  6.0869499E-01
   7143.33  5.9710239E-01
   7143.67  5.8436330E-01
   7144.00  5.7068430E-01
   7144.33  5.5628598E-01
   7144.67  5.4161239E-01
   7145.00  5.2698185E-01
   7145.33  5.1281941E-01
   7145.67  4.9944775E-01
   7146.00  4.8715381E-01
   7146.33  4.7635517E-01
   7146.67  4.6702915E-01
   7147.00  4.5921433E-01
   7147.33  4.5305685E-01
   7147.67  4.4826928E-01
   7148.00  4.4472957E-01
   7148.33  4.4240936E-01
   7148.67  4.4099929E-01
   7149.00  4.4034917E-01
   7149.33  4.4036228E-01
   7149.67  4.4080724E-01
   7150.00  4.4156479E-01
   7150.33  4.4254251E-01
   7150.67  4.4362533E-01
   7151.00  4.4475952E-01
   7151.33  4.4591351E-01
   7151.67  4.4708028E-01
   7152.00  4.4827520E-01
   7152.33  4.4953990E-01
   7152.67  4.5091062E-01
   7153.00  4.5242837E-01
   7153.33  4.5416346E-01
   7153.67  4.5613098E-01
   7154.00  4.5835562E-01
   7154.33  4.6088627E-01
   7154.67  4.6368563E-01
   7155.00  4.6673579E-01
   7155.33  4.7002534E-01
   7155.67  4.7346966E-01
   7156.00  4.7700433E-01
   7156.33  4.8054897E-01
   7156.67  4.8401968E-01
   7157.00  4.8734696E-01
   7157.33  4.9042970E-01
   7157.67  4.9323687E-01
   7158.00  4.9573415E-01
   7158.33  4.9785799E-01
   7158.67  4.9964554E-01
   7159.00  5.0110522E-01
   7159.33  5.0222107E-01
   7159.67  5.0306351E-01
   7160.00  5.0366404E-01
   7160.33  5.0403435E-01
   7160.67  5.0423431E-01
   7161.00  5.0429158E-01
   7161.33  5.0422413E-01
   7161.67  5.0407689E-01
   7162.00  5.0387671E-01
   7162.33  5.0365266E-01
   7162.67  5.0343808E-01
   7163.00  5.0325829E-01
   7163.33  5.0315152E-01
   7163.67  5.0313665E-01
   7164.00  5.0323163E-01
   7164.33  5.0346631E-01
   7164.67  5.0383121E-01
   7165.00  5.0432386E-01
   7165.33  5.0494736E-01
   7165.67  5.0566718E-01
   7166.00  5.0646004E-01
   7166.33  5.0729774E-01
   7166.67  5.0813667E-01
   7167.00  5.0894105E-01
   7167.33  5.0965852E-01
   7167.67  5.1025668E-01
   7168.00  5.1070122E-01
   7168.33  5.1093273E-01
   7168.67  5.1094412E-01
   7169.00  5.1071375E-01
   7169.33  5.1019385E-01
   7169.67  5.0941323E-01
   7170.00  5.0837933E-01
   7170.33  5.0708458E-01
   7170.67  5.0559589E-01
   7171.00  5.0396286E-01
   7171.33  5.0226620E-01
   7171.67  5.0065425E-01
   7172.00  4.9929889E-01
