    FDMNES
    energy     <xanes>
   7097.00  4.3340392E-03
   7097.33  4.4233383E-03
   7097.67  4.5162216E-03
   7098.00  4.6129146E-03
   7098.33  4.7142190E-03
   7098.67  4.8199438E-03
   7099.00  4.9303942E-03
   7099.33  5.0466052E-03
   7099.67  5.1683806E-03
   7100.00  5.2961454E-03
   7100.33  5.4312743E-03
   7100.67  5.5735818E-03
   7101.00  5.7236810E-03
   7101.33  5.8834609E-03
   7101.67  6.0527835E-03
   7102.00  6.2325709E-03
   7102.33  6.4255283E-03
   7102.67  6.6316495E-03
   7103.00  6.8523925E-03
   7103.33  7.0918362E-03
   7103.67  7.3503023E-03
   7104.00  7.6302437E-03
   7104.33  7.9382235E-03
   7104.67  8.2753756E-03
   7105.00  8.6461646E-03
   7105.33  9.0620751E-03
   7105.67  9.5263599E-03
   7106.00  1.0048025E-02
   7106.33  1.0649545E-02
   7106.67  1.1340296E-02
   7107.00  1.2141181E-02
   7107.33  1.3103630E-02
   7107.67  1.4257896E-02
   7108.00  1.5663450E-02
   7108.33  1.7468865E-02
   7108.67  1.9797216E-02
   7109.00  2.2880980E-02
   7109.33  2.7344381E-02
   7109.67  3.3938473E-02
   7110.00  4.4150235E-02
   7110.33  6.2244204E-02
   7110.67  9.1819687E-02
   7111.00  1.2853875E-01
   7111.33  1.4992558E-01
   7111.67  1.6092969E-01
   7112.00  1.7000619E-01
   7112.33  1.7099991E-01
   7112.67  1.7080923E-01
   7113.00  1.7577443E-01
   7113.33  1.7637541E-01
   7113.67  1.6188925E-01
   7114.00  1.3753118E-01
   7114.33  1.1521084E-01
   7114.67  9.7229200E-02
   7115.00  8.2438937E-02
   7115.33  7.1805821E-02
   7115.67  6.4759352E-02
   7116.00  6.0540208E-02
   7116.33  5.8612819E-02
   7116.67  5.8187905E-02
   7117.00  5.8987056E-02
   7117.33  6.1015205E-02
   7117.67  6.4137931E-02
   7118.00  6.8375115E-02
   7118.33  7.3847574E-02
   7118.67  8.0320846E-02
   7119.00  8.7632039E-02
   7119.33  9.5685010E-02
   7119.67  1.0435434E-01
   7120.00  1.1367781E-01
   7120.33  1.2391055E-01
   7120.67  1.3534089E-01
   7121.00  1.4835328E-01
   7121.33  1.6384753E-01
   7121.67  1.8270954E-01
   7122.00  2.0619698E-01
   7122.33  2.3625913E-01
   7122.67  2.7251927E-01
   7123.00  3.1402902E-01
   7123.33  3.5754699E-01
   7123.67  3.9635356E-01
   7124.00  4.2405639E-01
   7124.33  4.3580642E-01
   7124.67  4.3815154E-01
   7125.00  4.3859939E-01
   7125.33  4.4426264E-01
   7125.67  4.5612711E-01
   7126.00  4.7296332E-01
   7126.33  4.9314705E-01
   7126.67  5.1457868E-01
   7127.00  5.3616881E-01
   7127.33  5.5727944E-01
   7127.67  5.7819120E-01
   7128.00  5.9913792E-01
   7128.33  6.1908455E-01
   7128.67  6.3643383E-01
   7129.00  6.5036009E-01
   7129.33  6.6017631E-01
   7129.67  6.6605586E-01
   7130.00  6.6779900E-01
   7130.33  6.6564391E-01
   7130.67  6.6147942E-01
   7131.00  6.5621430E-01
   7131.33  6.5024976E-01
   7131.67  6.4412599E-01
   7132.00  6.3844871E-01
   7132.33  6.3381995E-01
   7132.67  6.2994383E-01
   7133.00  6.2675160E-01
   7133.33  6.2591600E-01
   7133.67  6.3022467E-01
   7134.00  6.4213620E-01
   7134.33  6.6290615E-01
   7134.67  6.8810869E-01
   7135.00  7.1315849E-01
   7135.33  7.3299570E-01
   7135.67  7.4640572E-01
   7136.00  7.5405418E-01
   7136.33  7.5764864E-01
   7136.67  7.5985235E-01
   7137.00  7.6201009E-01
   7137.33  7.6517191E-01
   7137.67  7.6956294E-01
   7138.00  7.7492246E-01
   7138.33  7.8030783E-01
   7138.67  7.8427588E-01
   7139.00  7.8543133E-01
   7139.33  7.8173932E-01
   7139.67  7.7269860E-01
   7140.00  7.5797703E-01
   7140.33  7.3726184E-01
   7140.67  7.1227525E-01
   7141.00  6.8430165E-01
   7141.33  6.5480586E-01
   7141.67  6.2543145E-01
   7142.00  5.9716349E-01
   7142.33  5.7103216E-01
   7142.67  5.4724914E-01
   7143.00  5.2597583E-01
   7143.33  5.0752108E-01
   7143.67  4.9143004E-01
   7144.00  4.7751839E-01
   7144.33  4.6577988E-01
   7144.67  4.5572126E-01
   7145.00  4.4714002E-01
   7145.33  4.3998427E-01
   7145.67  4.3391924E-01
   7146.00  4.2882287E-01
   7146.33  4.2469267E-01
   7146.67  4.2134260E-01
   7147.00  4.1872598E-01
   7147.33  4.1689506E-01
   7147.67  4.1574233E-01
   7148.00  4.1525524E-01
   7148.33  4.1549288E-01
   7148.67  4.1632855E-01
   7149.00  4.1769649E-01
   7149.33  4.1955405E-01
   7149.67  4.2172303E-01
   7150.00  4.2407967E-01
   7150.33  4.2648370E-01
   7150.67  4.2879709E-01
   7151.00  4.3092967E-01
   7151.33  4.3279096E-01
   7151.67  4.3440818E-01
   7152.00  4.3581752E-01
   7152.33  4.3706459E-01
   7152.67  4.3823296E-01
   7153.00  4.3936443E-01
   7153.33  4.4046988E-01
   7153.67  4.4151458E-01
   7154.00  4.4241942E-01
   7154.33  4.4300412E-01
   7154.67  4.4311580E-01
   7155.00  4.4257537E-01
   7155.33  4.4107522E-01
   7155.67  4.3856090E-01
   7156.00  4.3494852E-01
   7156.33  4.3008229E-01
   7156.67  4.2417922E-01
   7157.00  4.1737670E-01
   7157.33  4.0981733E-01
   7157.67  4.0186172E-01
   7158.00  3.9376686E-01
   7158.33  3.8585022E-01
   7158.67  3.7836339E-01
   7159.00  3.7150215E-01
   7159.33  3.6554257E-01
   7159.67  3.6050568E-01
   7160.00  3.5645810E-01
   7160.33  3.5357475E-01
   7160.67  3.5174962E-01
   7161.00  3.5099209E-01
   7161.33  3.5143856E-01
   7161.67  3.5294852E-01
   7162.00  3.5550367E-01
   7162.33  3.5918674E-01
   7162.67  3.6380099E-01
   7163.00  3.6926027E-01
   7163.33  3.7553045E-01
   7163.67  3.8237984E-01
   7164.00  3.8968092E-01
   7164.33  3.9732755E-01
   7164.67  4.0515088E-01
   7165.00  4.1305579E-01
   7165.33  4.2095486E-01
   7165.67  4.2878812E-01
   7166.00  4.3652100E-01
   7166.33  4.4410731E-01
   7166.67  4.5153033E-01
   7167.00  4.5875163E-01
   7167.33  4.6567211E-01
   7167.67  4.7222514E-01
   7168.00  4.7829060E-01
   7168.33  4.8360459E-01
   7168.67  4.8803761E-01
   7169.00  4.9139963E-01
   7169.33  4.9333546E-01
   7169.67  4.9387285E-01
   7170.00  4.9298097E-01
   7170.33  4.9057266E-01
   7170.67  4.8703040E-01
   7171.00  4.8263944E-01
   7171.33  4.7779620E-01
   7171.67  4.7313418E-01
   7172.00  4.6924439E-01
