    FDMNES
    energy     <xanes>
   7097.00  5.6825284E-03
   7097.33  5.8378051E-03
   7097.67  6.0011389E-03
   7098.00  6.1731339E-03
   7098.33  6.3557536E-03
   7098.67  6.5486964E-03
   7099.00  6.7528036E-03
   7099.33  6.9707079E-03
   7099.67  7.2021229E-03
   7100.00  7.4482528E-03
   7100.33  7.7127256E-03
   7100.67  7.9953258E-03
   7101.00  8.2978328E-03
   7101.33  8.6254096E-03
   7101.67  8.9780316E-03
   7102.00  9.3584299E-03
   7102.33  9.7742386E-03
   7102.67  1.0225888E-02
   7103.00  1.0717762E-02
   7103.33  1.1261687E-02
   7103.67  1.1859145E-02
   7104.00  1.2517576E-02
   7104.33  1.3256379E-02
   7104.67  1.4079522E-02
   7105.00  1.5000534E-02
   7105.33  1.6053648E-02
   7105.67  1.7249039E-02
   7106.00  1.8613614E-02
   7106.33  2.0213851E-02
   7106.67  2.2076979E-02
   7107.00  2.4263365E-02
   7107.33  2.6920305E-02
   7107.67  3.0129247E-02
   7108.00  3.4051079E-02
   7108.33  3.9081936E-02
   7108.67  4.5519985E-02
   7109.00  5.3924885E-02
   7109.33  6.5750148E-02
   7109.67  8.2548566E-02
   7110.00  1.0732345E-01
   7110.33  1.4860630E-01
   7110.67  2.1597700E-01
   7111.00  3.1638941E-01
   7111.33  4.4315594E-01
   7111.67  5.8562236E-01
   7112.00  7.3028199E-01
   7112.33  8.1183999E-01
   7112.67  7.8981841E-01
   7113.00  6.8126302E-01
   7113.33  5.4241988E-01
   7113.67  4.1852325E-01
   7114.00  3.2256271E-01
   7114.33  2.5701120E-01
   7114.67  2.1149865E-01
   7115.00  1.8050791E-01
   7115.33  1.6068974E-01
   7115.67  1.4809229E-01
   7116.00  1.4145676E-01
   7116.33  1.4039909E-01
   7116.67  1.4294669E-01
   7117.00  1.4712346E-01
   7117.33  1.4999974E-01
   7117.67  1.5019591E-01
   7118.00  1.4817225E-01
   7118.33  1.4553645E-01
   7118.67  1.4386599E-01
   7119.00  1.4358038E-01
   7119.33  1.4425898E-01
   7119.67  1.4501318E-01
   7120.00  1.4538273E-01
   7120.33  1.4494633E-01
   7120.67  1.4492029E-01
   7121.00  1.4713968E-01
   7121.33  1.5326017E-01
   7121.67  1.6260462E-01
   7122.00  1.7430049E-01
   7122.33  1.8771863E-01
   7122.67  2.0310482E-01
   7123.00  2.2165497E-01
   7123.33  2.4469333E-01
   7123.67  2.7111147E-01
   7124.00  2.9894900E-01
   7124.33  3.2425217E-01
   7124.67  3.4394939E-01
   7125.00  3.5724549E-01
   7125.33  3.6537313E-01
   7125.67  3.7183431E-01
   7126.00  3.7858943E-01
   7126.33  3.8664031E-01
   7126.67  3.9495881E-01
   7127.00  4.0183303E-01
   7127.33  4.0548442E-01
   7127.67  4.0687578E-01
   7128.00  4.0808946E-01
   7128.33  4.1246185E-01
   7128.67  4.2176594E-01
   7129.00  4.3646403E-01
   7129.33  4.5599820E-01
   7129.67  4.7761056E-01
   7130.00  4.9928630E-01
   7130.33  5.1904963E-01
   7130.67  5.3615605E-01
   7131.00  5.5043634E-01
   7131.33  5.6226037E-01
   7131.67  5.7322650E-01
   7132.00  5.8452518E-01
   7132.33  5.9725352E-01
   7132.67  6.1148387E-01
   7133.00  6.2665606E-01
   7133.33  6.4081088E-01
   7133.67  6.5113996E-01
   7134.00  6.5516773E-01
   7134.33  6.5058088E-01
   7134.67  6.3944044E-01
   7135.00  6.2407449E-01
   7135.33  6.0683072E-01
   7135.67  5.8919391E-01
   7136.00  5.7131949E-01
   7136.33  5.5303697E-01
   7136.67  5.3472147E-01
   7137.00  5.1722813E-01
   7137.33  5.0209451E-01
   7137.67  4.9004967E-01
   7138.00  4.8147514E-01
   7138.33  4.7674129E-01
   7138.67  4.7501339E-01
   7139.00  4.7580239E-01
   7139.33  4.7874187E-01
   7139.67  4.8303605E-01
   7140.00  4.8828177E-01
   7140.33  4.9420121E-01
   7140.67  5.0050823E-01
   7141.00  5.0712592E-01
   7141.33  5.1409983E-01
   7141.67  5.2146295E-01
   7142.00  5.2929962E-01
   7142.33  5.3777039E-01
   7142.67  5.4685955E-01
   7143.00  5.5657389E-01
   7143.33  5.6694474E-01
   7143.67  5.7781011E-01
   7144.00  5.8906714E-01
   7144.33  6.0061786E-01
   7144.67  6.1230806E-01
   7145.00  6.2405472E-01
   7145.33  6.3579782E-01
   7145.67  6.4751931E-01
   7146.00  6.5923007E-01
   7146.33  6.7096445E-01
   7146.67  6.8275635E-01
   7147.00  6.9463365E-01
   7147.33  7.0664076E-01
   7147.67  7.1878370E-01
   7148.00  7.3106262E-01
   7148.33  7.4346383E-01
   7148.67  7.5591280E-01
   7149.00  7.6832798E-01
   7149.33  7.8056055E-01
   7149.67  7.9246791E-01
   7150.00  8.0388110E-01
   7150.33  8.1447972E-01
   7150.67  8.2409653E-01
   7151.00  8.3249567E-01
   7151.33  8.3921058E-01
   7151.67  8.4416056E-01
   7152.00  8.4714109E-01
   7152.33  8.4769406E-01
   7152.67  8.4597189E-01
   7153.00  8.4194029E-01
   7153.33  8.3535571E-01
   7153.67  8.2662145E-01
   7154.00  8.1589320E-01
   7154.33  8.0317371E-01
   7154.67  7.8893402E-01
   7155.00  7.7339965E-01
   7155.33  7.5671331E-01
   7155.67  7.3926992E-01
   7156.00  7.2128581E-01
   7156.33  7.0295618E-01
   7156.67  6.8453384E-01
   7157.00  6.6618692E-01
   7157.33  6.4812039E-01
   7157.67  6.3045330E-01
   7158.00  6.1329637E-01
   7158.33  5.9683418E-01
   7158.67  5.8107747E-01
   7159.00  5.6608515E-01
   7159.33  5.5200556E-01
   7159.67  5.3876773E-01
   7160.00  5.2638752E-01
   7160.33  5.1497879E-01
   7160.67  5.0442468E-01
   7161.00  4.9470325E-01
   7161.33  4.8586877E-01
   7161.67  4.7776200E-01
   7162.00  4.7032172E-01
   7162.33  4.6354048E-01
   7162.67  4.5725666E-01
   7163.00  4.5139355E-01
   7163.33  4.4590932E-01
   7163.67  4.4068948E-01
   7164.00  4.3568399E-01
   7164.33  4.3087080E-01
   7164.67  4.2620092E-01
   7165.00  4.2166121E-01
   7165.33  4.1726068E-01
   7165.67  4.1298515E-01
   7166.00  4.0884077E-01
   7166.33  4.0485622E-01
   7166.67  4.0102432E-01
   7167.00  3.9734664E-01
   7167.33  3.9384266E-01
   7167.67  3.9049812E-01
   7168.00  3.8731682E-01
   7168.33  3.8432008E-01
   7168.67  3.8148444E-01
   7169.00  3.7880597E-01
   7169.33  3.7629916E-01
   7169.67  3.7394143E-01
   7170.00  3.7173105E-01
   7170.33  3.6968730E-01
   7170.67  3.6779732E-01
   7171.00  3.6607074E-01
   7171.33  3.6454859E-01
   7171.67  3.6323844E-01
   7172.00  3.6217588E-01
