    FDMNES
    energy     <xanes>
   7097.00  5.1123723E-03
   7097.33  5.2321895E-03
   7097.67  5.3573327E-03
   7098.00  5.4881500E-03
   7098.33  5.6258523E-03
   7098.67  5.7701688E-03
   7099.00  5.9215668E-03
   7099.33  6.0816100E-03
   7099.67  6.2500115E-03
   7100.00  6.4274134E-03
   7100.33  6.6158804E-03
   7100.67  6.8151252E-03
   7101.00  7.0260534E-03
   7101.33  7.2514644E-03
   7101.67  7.4911057E-03
   7102.00  7.7462955E-03
   7102.33  8.0209487E-03
   7102.67  8.3149262E-03
   7103.00  8.6302193E-03
   7103.33  8.9725116E-03
   7103.67  9.3419514E-03
   7104.00  9.7416854E-03
   7104.33  1.0180353E-02
   7104.67  1.0658789E-02
   7105.00  1.1182253E-02
   7105.33  1.1764665E-02
   7105.67  1.2408516E-02
   7106.00  1.3123266E-02
   7106.33  1.3933124E-02
   7106.67  1.4844854E-02
   7107.00  1.5877248E-02
   7107.33  1.7077194E-02
   7107.67  1.8463898E-02
   7108.00  2.0080701E-02
   7108.33  2.2034864E-02
   7108.67  2.4390753E-02
   7109.00  2.7276973E-02
   7109.33  3.1023920E-02
   7109.67  3.5939838E-02
   7110.00  4.2631351E-02
   7110.33  5.2782553E-02
   7110.67  6.7912498E-02
   7111.00  8.7793472E-02
   7111.33  1.0686565E-01
   7111.67  1.2654713E-01
   7112.00  1.5463960E-01
   7112.33  1.9967450E-01
   7112.67  2.6841763E-01
   7113.00  3.7077741E-01
   7113.33  5.0966547E-01
   7113.67  6.3690693E-01
   7114.00  7.0637531E-01
   7114.33  6.6335952E-01
   7114.67  5.4349906E-01
   7115.00  4.1393778E-01
   7115.33  3.2194519E-01
   7115.67  2.6473679E-01
   7116.00  2.3545286E-01
   7116.33  2.2942085E-01
   7116.67  2.3204341E-01
   7117.00  2.2898545E-01
   7117.33  2.1472832E-01
   7117.67  1.9744588E-01
   7118.00  1.8098682E-01
   7118.33  1.6792913E-01
   7118.67  1.5832784E-01
   7119.00  1.5118709E-01
   7119.33  1.4533212E-01
   7119.67  1.3994370E-01
   7120.00  1.3483330E-01
   7120.33  1.3025949E-01
   7120.67  1.2673524E-01
   7121.00  1.2445792E-01
   7121.33  1.2323837E-01
   7121.67  1.2284098E-01
   7122.00  1.2343329E-01
   7122.33  1.2528174E-01
   7122.67  1.2815820E-01
   7123.00  1.3192312E-01
   7123.33  1.3657830E-01
   7123.67  1.4202255E-01
   7124.00  1.4832718E-01
   7124.33  1.5585874E-01
   7124.67  1.6494883E-01
   7125.00  1.7615628E-01
   7125.33  1.9044634E-01
   7125.67  2.0779314E-01
   7126.00  2.2815922E-01
   7126.33  2.5181187E-01
   7126.67  2.7851317E-01
   7127.00  3.0817065E-01
   7127.33  3.3947755E-01
   7127.67  3.6894014E-01
   7128.00  3.9390286E-01
   7128.33  4.1397682E-01
   7128.67  4.3314703E-01
   7129.00  4.5501522E-01
   7129.33  4.8371978E-01
   7129.67  5.2019927E-01
   7130.00  5.6423239E-01
   7130.33  6.1465708E-01
   7130.67  6.6790364E-01
   7131.00  7.2173587E-01
   7131.33  7.7478450E-01
   7131.67  8.2728112E-01
   7132.00  8.7977863E-01
   7132.33  9.3245126E-01
   7132.67  9.8422390E-01
   7133.00  1.0328134E+00
   7133.33  1.0725822E+00
   7133.67  1.0981228E+00
   7134.00  1.1041880E+00
   7134.33  1.0851879E+00
   7134.67  1.0462858E+00
   7135.00  9.9265785E-01
   7135.33  9.3020933E-01
   7135.67  8.6558225E-01
   7136.00  8.0208366E-01
   7136.33  7.4246754E-01
   7136.67  6.8753323E-01
   7137.00  6.3782881E-01
   7137.33  5.9441178E-01
   7137.67  5.5684004E-01
   7138.00  5.2527316E-01
   7138.33  5.0049164E-01
   7138.67  4.8149273E-01
   7139.00  4.6780612E-01
   7139.33  4.5921167E-01
   7139.67  4.5426555E-01
   7140.00  4.5228155E-01
   7140.33  4.5293130E-01
   7140.67  4.5550519E-01
   7141.00  4.5977114E-01
   7141.33  4.6572773E-01
   7141.67  4.7302697E-01
   7142.00  4.8152378E-01
   7142.33  4.9114877E-01
   7142.67  5.0155157E-01
   7143.00  5.1252110E-01
   7143.33  5.2384484E-01
   7143.67  5.3523803E-01
   7144.00  5.4650100E-01
   7144.33  5.5737439E-01
   7144.67  5.6770350E-01
   7145.00  5.7733161E-01
   7145.33  5.8598167E-01
   7145.67  5.9360795E-01
   7146.00  6.0008956E-01
   7146.33  6.0514480E-01
   7146.67  6.0883486E-01
   7147.00  6.1110428E-01
   7147.33  6.1175318E-01
   7147.67  6.1100338E-01
   7148.00  6.0893883E-01
   7148.33  6.0556173E-01
   7148.67  6.0121679E-01
   7149.00  5.9610638E-01
   7149.33  5.9042347E-01
   7149.67  5.8449471E-01
   7150.00  5.7854333E-01
   7150.33  5.7284382E-01
   7150.67  5.6757892E-01
   7151.00  5.6289403E-01
   7151.33  5.5899795E-01
   7151.67  5.5586921E-01
   7152.00  5.5352936E-01
   7152.33  5.5206686E-01
   7152.67  5.5133818E-01
   7153.00  5.5127829E-01
   7153.33  5.5186116E-01
   7153.67  5.5290539E-01
   7154.00  5.5431591E-01
   7154.33  5.5602484E-01
   7154.67  5.5791664E-01
   7155.00  5.5993881E-01
   7155.33  5.6206225E-01
   7155.67  5.6425388E-01
   7156.00  5.6650523E-01
   7156.33  5.6882015E-01
   7156.67  5.7119039E-01
   7157.00  5.7361269E-01
   7157.33  5.7608134E-01
   7157.67  5.7857034E-01
   7158.00  5.8105333E-01
   7158.33  5.8348358E-01
   7158.67  5.8581504E-01
   7159.00  5.8799499E-01
   7159.33  5.8992701E-01
   7159.67  5.9156396E-01
   7160.00  5.9283879E-01
   7160.33  5.9361695E-01
   7160.67  5.9387557E-01
   7161.00  5.9355140E-01
   7161.33  5.9249853E-01
   7161.67  5.9074927E-01
   7162.00  5.8827822E-01
   7162.33  5.8498518E-01
   7162.67  5.8098222E-01
   7163.00  5.7631375E-01
   7163.33  5.7098244E-01
   7163.67  5.6515580E-01
   7164.00  5.5892728E-01
   7164.33  5.5237904E-01
   7164.67  5.4565869E-01
   7165.00  5.3885144E-01
   7165.33  5.3203920E-01
   7165.67  5.2528476E-01
   7166.00  5.1862659E-01
   7166.33  5.1210947E-01
   7166.67  5.0573219E-01
   7167.00  4.9949888E-01
   7167.33  4.9342642E-01
   7167.67  4.8749311E-01
   7168.00  4.8169556E-01
   7168.33  4.7604876E-01
   7168.67  4.7053911E-01
   7169.00  4.6517379E-01
   7169.33  4.5998396E-01
   7169.67  4.5496335E-01
   7170.00  4.5012541E-01
   7170.33  4.4551658E-01
   7170.67  4.4114214E-01
   7171.00  4.3703964E-01
   7171.33  4.3332117E-01
   7171.67  4.3006693E-01
   7172.00  4.2743300E-01
