    FDMNES
    energy     <xanes>
   7097.00  4.1529613E-03
   7097.33  4.2299996E-03
   7097.67  4.3097384E-03
   7098.00  4.3923281E-03
   7098.33  4.4783408E-03
   7098.67  4.5676078E-03
   7099.00  4.6603284E-03
   7099.33  4.7572233E-03
   7099.67  4.8581150E-03
   7100.00  4.9632763E-03
   7100.33  5.0736403E-03
   7100.67  5.1890304E-03
   7101.00  5.3098336E-03
   7101.33  5.4373013E-03
   7101.67  5.5712797E-03
   7102.00  5.7123431E-03
   7102.33  5.8622448E-03
   7102.67  6.0209053E-03
   7103.00  6.1892253E-03
   7103.33  6.3698012E-03
   7103.67  6.5627504E-03
   7104.00  6.7695846E-03
   7104.33  6.9944313E-03
   7104.67  7.2379134E-03
   7105.00  7.5027934E-03
   7105.33  7.7962636E-03
   7105.67  8.1202967E-03
   7106.00  8.4805256E-03
   7106.33  8.8910943E-03
   7106.67  9.3579455E-03
   7107.00  9.8943695E-03
   7107.33  1.0533154E-02
   7107.67  1.1293956E-02
   7108.00  1.2215267E-02
   7108.33  1.3393351E-02
   7108.67  1.4909019E-02
   7109.00  1.6914256E-02
   7109.33  1.9816275E-02
   7109.67  2.4103773E-02
   7110.00  3.0739735E-02
   7110.33  4.2494726E-02
   7110.67  6.1993875E-02
   7111.00  8.8361566E-02
   7111.33  1.1360481E-01
   7111.67  1.2964110E-01
   7112.00  1.1957905E-01
   7112.33  9.1769141E-02
   7112.67  7.0196218E-02
   7113.00  5.6119181E-02
   7113.33  4.6969539E-02
   7113.67  4.1239876E-02
   7114.00  3.8523815E-02
   7114.33  3.7475533E-02
   7114.67  3.5502233E-02
   7115.00  3.3095079E-02
   7115.33  3.1706548E-02
   7115.67  3.1250224E-02
   7116.00  3.1545420E-02
   7116.33  3.2555144E-02
   7116.67  3.4173220E-02
   7117.00  3.6421101E-02
   7117.33  3.9416846E-02
   7117.67  4.3047597E-02
   7118.00  4.7156317E-02
   7118.33  5.1413943E-02
   7118.67  5.5539105E-02
   7119.00  5.9642974E-02
   7119.33  6.4285642E-02
   7119.67  6.9980616E-02
   7120.00  7.7131868E-02
   7120.33  8.6411936E-02
   7120.67  9.8126285E-02
   7121.00  1.1292610E-01
   7121.33  1.3239528E-01
   7121.67  1.5736069E-01
   7122.00  1.8895650E-01
   7122.33  2.2856832E-01
   7122.67  2.7321008E-01
   7123.00  3.1741039E-01
   7123.33  3.5026899E-01
   7123.67  3.6782125E-01
   7124.00  3.7474645E-01
   7124.33  3.8106818E-01
   7124.67  3.9326717E-01
   7125.00  4.1317882E-01
   7125.33  4.4174450E-01
   7125.67  4.7649499E-01
   7126.00  5.1536686E-01
   7126.33  5.5700732E-01
   7126.67  6.0160730E-01
   7127.00  6.5061203E-01
   7127.33  7.0511966E-01
   7127.67  7.6195642E-01
   7128.00  8.1662161E-01
   7128.33  8.6233758E-01
   7128.67  8.9633672E-01
   7129.00  9.1785970E-01
   7129.33  9.2655606E-01
   7129.67  9.2571432E-01
   7130.00  9.1716031E-01
   7130.33  9.0289627E-01
   7130.67  8.8691145E-01
   7131.00  8.7225040E-01
   7131.33  8.6182663E-01
   7131.67  8.5510664E-01
   7132.00  8.5011073E-01
   7132.33  8.4389620E-01
   7132.67  8.3471520E-01
   7133.00  8.2180781E-01
   7133.33  8.0448561E-01
   7133.67  7.8359938E-01
   7134.00  7.5975115E-01
   7134.33  7.3354942E-01
   7134.67  7.0627638E-01
   7135.00  6.7895281E-01
   7135.33  6.5298161E-01
   7135.67  6.2927910E-01
   7136.00  6.0844943E-01
   7136.33  5.9121116E-01
   7136.67  5.7718392E-01
   7137.00  5.6625551E-01
   7137.33  5.5861567E-01
   7137.67  5.5374367E-01
   7138.00  5.5155259E-01
   7138.33  5.5233969E-01
   7138.67  5.5581420E-01
   7139.00  5.6206507E-01
   7139.33  5.7160843E-01
   7139.67  5.8422908E-01
   7140.00  5.9999898E-01
   7140.33  6.1922136E-01
   7140.67  6.4113191E-01
   7141.00  6.6502490E-01
   7141.33  6.8946431E-01
   7141.67  7.1204527E-01
   7142.00  7.3021527E-01
   7142.33  7.4003670E-01
   7142.67  7.4034986E-01
   7143.00  7.3077784E-01
   7143.33  7.1164032E-01
   7143.67  6.8672037E-01
   7144.00  6.5864348E-01
   7144.33  6.2997303E-01
   7144.67  6.0258631E-01
   7145.00  5.7737879E-01
   7145.33  5.5513071E-01
   7145.67  5.3554321E-01
   7146.00  5.1844801E-01
   7146.33  5.0381035E-01
   7146.67  4.9100751E-01
   7147.00  4.7974604E-01
   7147.33  4.6986847E-01
   7147.67  4.6095442E-01
   7148.00  4.5281403E-01
   7148.33  4.4534382E-01
   7148.67  4.3833387E-01
   7149.00  4.3169626E-01
   7149.33  4.2539038E-01
   7149.67  4.1932255E-01
   7150.00  4.1345648E-01
   7150.33  4.0778080E-01
   7150.67  4.0224876E-01
   7151.00  3.9684192E-01
   7151.33  3.9155401E-01
   7151.67  3.8635346E-01
   7152.00  3.8122490E-01
   7152.33  3.7615720E-01
   7152.67  3.7112707E-01
   7153.00  3.6612614E-01
   7153.33  3.6116121E-01
   7153.67  3.5622899E-01
   7154.00  3.5132224E-01
   7154.33  3.4643698E-01
   7154.67  3.4157381E-01
   7155.00  3.3673830E-01
   7155.33  3.3194301E-01
   7155.67  3.2719225E-01
   7156.00  3.2249186E-01
   7156.33  3.1785406E-01
   7156.67  3.1327677E-01
   7157.00  3.0876386E-01
   7157.33  3.0432469E-01
   7157.67  2.9994902E-01
   7158.00  2.9563627E-01
   7158.33  2.9139419E-01
   7158.67  2.8721747E-01
   7159.00  2.8311840E-01
   7159.33  2.7915220E-01
   7159.67  2.7538666E-01
   7160.00  2.7193079E-01
   7160.33  2.6900475E-01
   7160.67  2.6671890E-01
   7161.00  2.6519543E-01
   7161.33  2.6462824E-01
   7161.67  2.6492953E-01
   7162.00  2.6606818E-01
   7162.33  2.6807450E-01
   7162.67  2.7077398E-01
   7163.00  2.7410000E-01
   7163.33  2.7805426E-01
   7163.67  2.8251595E-01
   7164.00  2.8745432E-01
   7164.33  2.9289618E-01
   7164.67  2.9876344E-01
   7165.00  3.0504267E-01
   7165.33  3.1177246E-01
   7165.67  3.1889581E-01
   7166.00  3.2640990E-01
   7166.33  3.3436193E-01
   7166.67  3.4269906E-01
   7167.00  3.5140999E-01
   7167.33  3.6051769E-01
   7167.67  3.6995076E-01
   7168.00  3.7967779E-01
   7168.33  3.8968373E-01
   7168.67  3.9988198E-01
   7169.00  4.1021822E-01
   7169.33  4.2063277E-01
   7169.67  4.3104341E-01
   7170.00  4.4138189E-01
   7170.33  4.5154000E-01
   7170.67  4.6143074E-01
   7171.00  4.7093181E-01
   7171.33  4.7975073E-01
   7171.67  4.8758937E-01
   7172.00  4.9397189E-01
