    FDMNES
    energy     <xanes>
   7097.00  4.0298185E-03
   7097.33  4.1054222E-03
   7097.67  4.1837370E-03
   7098.00  4.2649186E-03
   7098.33  4.3495493E-03
   7098.67  4.4374663E-03
   7099.00  4.5288776E-03
   7099.33  4.6245220E-03
   7099.67  4.7242292E-03
   7100.00  4.8282857E-03
   7100.33  4.9376554E-03
   7100.67  5.0521711E-03
   7101.00  5.1722414E-03
   7101.33  5.2991685E-03
   7101.67  5.4328117E-03
   7102.00  5.5737799E-03
   7102.33  5.7239093E-03
   7102.67  5.8831399E-03
   7103.00  6.0524280E-03
   7103.33  6.2345052E-03
   7103.67  6.4295196E-03
   7104.00  6.6390730E-03
   7104.33  6.8675136E-03
   7104.67  7.1155127E-03
   7105.00  7.3859790E-03
   7105.33  7.6864610E-03
   7105.67  8.0190033E-03
   7106.00  8.3894635E-03
   7106.33  8.8125284E-03
   7106.67  9.2941999E-03
   7107.00  9.8480284E-03
   7107.33  1.0507390E-02
   7107.67  1.1291616E-02
   7108.00  1.2238836E-02
   7108.33  1.3444007E-02
   7108.67  1.4983986E-02
   7109.00  1.7003399E-02
   7109.33  1.9886171E-02
   7109.67  2.4077749E-02
   7110.00  3.0452295E-02
   7110.33  4.1532972E-02
   7110.67  5.9986707E-02
   7111.00  8.6233762E-02
   7111.33  1.1184556E-01
   7111.67  1.2955200E-01
   7112.00  1.3840996E-01
   7112.33  1.3042020E-01
   7112.67  1.0915965E-01
   7113.00  8.6438459E-02
   7113.33  7.0112576E-02
   7113.67  5.9524878E-02
   7114.00  5.2762755E-02
   7114.33  4.7529154E-02
   7114.67  4.2736896E-02
   7115.00  3.8953544E-02
   7115.33  3.7018672E-02
   7115.67  3.6452570E-02
   7116.00  3.6776125E-02
   7116.33  3.7604382E-02
   7116.67  3.8798396E-02
   7117.00  4.0578920E-02
   7117.33  4.3363542E-02
   7117.67  4.7190998E-02
   7118.00  5.2035187E-02
   7118.33  5.7760545E-02
   7118.67  6.3789545E-02
   7119.00  6.9571905E-02
   7119.33  7.4418434E-02
   7119.67  7.8192787E-02
   7120.00  8.1144526E-02
   7120.33  8.3988448E-02
   7120.67  8.7572033E-02
   7121.00  9.2531640E-02
   7121.33  9.9807692E-02
   7121.67  1.0990417E-01
   7122.00  1.2366884E-01
   7122.33  1.4309398E-01
   7122.67  1.6923199E-01
   7123.00  2.0253943E-01
   7123.33  2.3653150E-01
   7123.67  2.5668216E-01
   7124.00  2.6252359E-01
   7124.33  2.6814643E-01
   7124.67  2.8050383E-01
   7125.00  2.9924529E-01
   7125.33  3.2235087E-01
   7125.67  3.4616651E-01
   7126.00  3.6915212E-01
   7126.33  3.9263092E-01
   7126.67  4.2004797E-01
   7127.00  4.5470086E-01
   7127.33  5.0022452E-01
   7127.67  5.5492042E-01
   7128.00  6.1581025E-01
   7128.33  6.7743034E-01
   7128.67  7.3344948E-01
   7129.00  7.7919158E-01
   7129.33  8.0976422E-01
   7129.67  8.2709077E-01
   7130.00  8.3432584E-01
   7130.33  8.3703325E-01
   7130.67  8.4147536E-01
   7131.00  8.4988702E-01
   7131.33  8.6134253E-01
   7131.67  8.7227032E-01
   7132.00  8.8062368E-01
   7132.33  8.8581883E-01
   7132.67  8.8979638E-01
   7133.00  8.9412885E-01
   7133.33  8.9952877E-01
   7133.67  9.0487510E-01
   7134.00  9.0876697E-01
   7134.33  9.1000480E-01
   7134.67  9.0936740E-01
   7135.00  9.0759948E-01
   7135.33  9.0443745E-01
   7135.67  8.9875740E-01
   7136.00  8.8919611E-01
   7136.33  8.7416103E-01
   7136.67  8.5442264E-01
   7137.00  8.3097611E-01
   7137.33  8.0522078E-01
   7137.67  7.7902557E-01
   7138.00  7.5344232E-01
   7138.33  7.2938649E-01
   7138.67  7.0699981E-01
   7139.00  6.8631612E-01
   7139.33  6.6743193E-01
   7139.67  6.4999170E-01
   7140.00  6.3387218E-01
   7140.33  6.1912067E-01
   7140.67  6.0552972E-01
   7141.00  5.9308632E-01
   7141.33  5.8195217E-01
   7141.67  5.7202404E-01
   7142.00  5.6332308E-01
   7142.33  5.5598833E-01
   7142.67  5.4982839E-01
   7143.00  5.4478425E-01
   7143.33  5.4087485E-01
   7143.67  5.3782261E-01
   7144.00  5.3546454E-01
   7144.33  5.3363995E-01
   7144.67  5.3205324E-01
   7145.00  5.3050528E-01
   7145.33  5.2877063E-01
   7145.67  5.2671999E-01
   7146.00  5.2428529E-01
   7146.33  5.2141960E-01
   7146.67  5.1825140E-01
   7147.00  5.1489456E-01
   7147.33  5.1149425E-01
   7147.67  5.0818709E-01
   7148.00  5.0505199E-01
   7148.33  5.0216291E-01
   7148.67  4.9949760E-01
   7149.00  4.9703751E-01
   7149.33  4.9477180E-01
   7149.67  4.9264880E-01
   7150.00  4.9064449E-01
   7150.33  4.8873876E-01
   7150.67  4.8688206E-01
   7151.00  4.8503141E-01
   7151.33  4.8311793E-01
   7151.67  4.8107416E-01
   7152.00  4.7882838E-01
   7152.33  4.7626246E-01
   7152.67  4.7332671E-01
   7153.00  4.6994787E-01
   7153.33  4.6597787E-01
   7153.67  4.6139999E-01
   7154.00  4.5614300E-01
   7154.33  4.5003109E-01
   7154.67  4.4308872E-01
   7155.00  4.3527148E-01
   7155.33  4.2644299E-01
   7155.67  4.1673039E-01
   7156.00  4.0618257E-01
   7156.33  3.9480734E-01
   7156.67  3.8283904E-01
   7157.00  3.7042764E-01
   7157.33  3.5773827E-01
   7157.67  3.4501312E-01
   7158.00  3.3244355E-01
   7158.33  3.2030440E-01
   7158.67  3.0876619E-01
   7159.00  2.9800188E-01
   7159.33  2.8830898E-01
   7159.67  2.7971899E-01
   7160.00  2.7233726E-01
   7160.33  2.6641932E-01
   7160.67  2.6186492E-01
   7161.00  2.5870644E-01
   7161.33  2.5712986E-01
   7161.67  2.5693246E-01
   7162.00  2.5806121E-01
   7162.33  2.6058307E-01
   7162.67  2.6423590E-01
   7163.00  2.6890595E-01
   7163.33  2.7455151E-01
   7163.67  2.8091073E-01
   7164.00  2.8785157E-01
   7164.33  2.9527692E-01
   7164.67  3.0298971E-01
   7165.00  3.1087653E-01
   7165.33  3.1882733E-01
   7165.67  3.2673688E-01
   7166.00  3.3453812E-01
   7166.33  3.4215320E-01
   7166.67  3.4956853E-01
   7167.00  3.5677319E-01
   7167.33  3.6374556E-01
   7167.67  3.7052882E-01
   7168.00  3.7714550E-01
   7168.33  3.8360841E-01
   7168.67  3.8996153E-01
   7169.00  3.9622051E-01
   7169.33  4.0238016E-01
   7169.67  4.0844173E-01
   7170.00  4.1438390E-01
   7170.33  4.2014760E-01
   7170.67  4.2569649E-01
   7171.00  4.3096412E-01
   7171.33  4.3578668E-01
   7171.67  4.4002654E-01
   7172.00  4.4345558E-01
