    FDMNES
    energy     <xanes>
   7097.00  5.1329635E-03
   7097.33  5.2491609E-03
   7097.67  5.3704329E-03
   7098.00  5.4971124E-03
   7098.33  5.6303563E-03
   7098.67  5.7699102E-03
   7099.00  5.9162244E-03
   7099.33  6.0707995E-03
   7099.67  6.2333712E-03
   7100.00  6.4045643E-03
   7100.33  6.5863747E-03
   7100.67  6.7785479E-03
   7101.00  6.9819775E-03
   7101.33  7.1993985E-03
   7101.67  7.4306107E-03
   7102.00  7.6769387E-03
   7102.33  7.9422666E-03
   7102.67  8.2265481E-03
   7103.00  8.5318329E-03
   7103.33  8.8638827E-03
   7103.67  9.2230310E-03
   7104.00  9.6126207E-03
   7104.33  1.0041677E-02
   7104.67  1.0511448E-02
   7105.00  1.1027761E-02
   7105.33  1.1605770E-02
   7105.67  1.2249004E-02
   7106.00  1.2968538E-02
   7106.33  1.3792274E-02
   7106.67  1.4729909E-02
   7107.00  1.5805107E-02
   7107.33  1.7076263E-02
   7107.67  1.8572224E-02
   7108.00  2.0352867E-02
   7108.33  2.2566037E-02
   7108.67  2.5314862E-02
   7109.00  2.8796690E-02
   7109.33  3.3521363E-02
   7109.67  4.0007894E-02
   7110.00  4.9262924E-02
   7110.33  6.4153794E-02
   7110.67  8.8144865E-02
   7111.00  1.2494512E-01
   7111.33  1.7294537E-01
   7111.67  2.1812375E-01
   7112.00  2.4991915E-01
   7112.33  2.7152466E-01
   7112.67  2.9889462E-01
   7113.00  3.3000742E-01
   7113.33  3.4868693E-01
   7113.67  3.6287350E-01
   7114.00  3.8461163E-01
   7114.33  3.7563148E-01
   7114.67  3.2197940E-01
   7115.00  2.6107476E-01
   7115.33  2.2032209E-01
   7115.67  1.9590189E-01
   7116.00  1.8131341E-01
   7116.33  1.6948279E-01
   7116.67  1.5638446E-01
   7117.00  1.4397302E-01
   7117.33  1.3606086E-01
   7117.67  1.3200906E-01
   7118.00  1.3047581E-01
   7118.33  1.3122171E-01
   7118.67  1.3470103E-01
   7119.00  1.4107650E-01
   7119.33  1.4963552E-01
   7119.67  1.5891665E-01
   7120.00  1.6832028E-01
   7120.33  1.7730061E-01
   7120.67  1.8522564E-01
   7121.00  1.9193959E-01
   7121.33  1.9836274E-01
   7121.67  2.0540810E-01
   7122.00  2.1301736E-01
   7122.33  2.2109277E-01
   7122.67  2.3000369E-01
   7123.00  2.4028578E-01
   7123.33  2.5245262E-01
   7123.67  2.6634656E-01
   7124.00  2.8196052E-01
   7124.33  2.9939279E-01
   7124.67  3.1843919E-01
   7125.00  3.3918641E-01
   7125.33  3.6193629E-01
   7125.67  3.8654013E-01
   7126.00  4.1299616E-01
   7126.33  4.4107715E-01
   7126.67  4.6961732E-01
   7127.00  4.9788818E-01
   7127.33  5.2589248E-01
   7127.67  5.5419540E-01
   7128.00  5.8285641E-01
   7128.33  6.1113239E-01
   7128.67  6.3803936E-01
   7129.00  6.6283665E-01
   7129.33  6.8445406E-01
   7129.67  7.0295107E-01
   7130.00  7.1893453E-01
   7130.33  7.3404249E-01
   7130.67  7.5029880E-01
   7131.00  7.6846260E-01
   7131.33  7.8808285E-01
   7131.67  8.0762137E-01
   7132.00  8.2605152E-01
   7132.33  8.4228580E-01
   7132.67  8.5587052E-01
   7133.00  8.6617054E-01
   7133.33  8.7181475E-01
   7133.67  8.7242580E-01
   7134.00  8.6746348E-01
   7134.33  8.5619176E-01
   7134.67  8.3989478E-01
   7135.00  8.1939125E-01
   7135.33  7.9543335E-01
   7135.67  7.6957466E-01
   7136.00  7.4275591E-01
   7136.33  7.1596852E-01
   7136.67  6.9003343E-01
   7137.00  6.6548349E-01
   7137.33  6.4293545E-01
   7137.67  6.2234162E-01
   7138.00  6.0372345E-01
   7138.33  5.8726713E-01
   7138.67  5.7266551E-01
   7139.00  5.5989236E-01
   7139.33  5.4920802E-01
   7139.67  5.4048141E-01
   7140.00  5.3384907E-01
   7140.33  5.2978169E-01
   7140.67  5.2815172E-01
   7141.00  5.2899914E-01
   7141.33  5.3243092E-01
   7141.67  5.3763499E-01
   7142.00  5.4385294E-01
   7142.33  5.4988790E-01
   7142.67  5.5450126E-01
   7143.00  5.5682135E-01
   7143.33  5.5602701E-01
   7143.67  5.5266223E-01
   7144.00  5.4730800E-01
   7144.33  5.4067893E-01
   7144.67  5.3368134E-01
   7145.00  5.2676364E-01
   7145.33  5.2020503E-01
   7145.67  5.1393917E-01
   7146.00  5.0779393E-01
   7146.33  5.0146930E-01
   7146.67  4.9472237E-01
   7147.00  4.8741190E-01
   7147.33  4.7944762E-01
   7147.67  4.7104656E-01
   7148.00  4.6243571E-01
   7148.33  4.5395674E-01
   7148.67  4.4592416E-01
   7149.00  4.3858514E-01
   7149.33  4.3228247E-01
   7149.67  4.2706578E-01
   7150.00  4.2304027E-01
   7150.33  4.2045585E-01
   7150.67  4.1920313E-01
   7151.00  4.1929535E-01
   7151.33  4.2088239E-01
   7151.67  4.2374252E-01
   7152.00  4.2779405E-01
   7152.33  4.3303810E-01
   7152.67  4.3917921E-01
   7153.00  4.4606131E-01
   7153.33  4.5356679E-01
   7153.67  4.6144858E-01
   7154.00  4.6957199E-01
   7154.33  4.7782505E-01
   7154.67  4.8610208E-01
   7155.00  4.9434663E-01
   7155.33  5.0249704E-01
   7155.67  5.1051839E-01
   7156.00  5.1836521E-01
   7156.33  5.2593030E-01
   7156.67  5.3313369E-01
   7157.00  5.3985036E-01
   7157.33  5.4582673E-01
   7157.67  5.5096258E-01
   7158.00  5.5510941E-01
   7158.33  5.5798428E-01
   7158.67  5.5963887E-01
   7159.00  5.6004607E-01
   7159.33  5.5908270E-01
   7159.67  5.5698904E-01
   7160.00  5.5387767E-01
   7160.33  5.4980277E-01
   7160.67  5.4505168E-01
   7161.00  5.3978400E-01
   7161.33  5.3414092E-01
   7161.67  5.2833952E-01
   7162.00  5.2252054E-01
   7162.33  5.1684302E-01
   7162.67  5.1141213E-01
   7163.00  5.0631607E-01
   7163.33  5.0169128E-01
   7163.67  4.9755192E-01
   7164.00  4.9394692E-01
   7164.33  4.9098600E-01
   7164.67  4.8860886E-01
   7165.00  4.8680991E-01
   7165.33  4.8563784E-01
   7165.67  4.8498887E-01
   7166.00  4.8482489E-01
   7166.33  4.8514694E-01
   7166.67  4.8584088E-01
   7167.00  4.8685068E-01
   7167.33  4.8813901E-01
   7167.67  4.8960617E-01
   7168.00  4.9119446E-01
   7168.33  4.9284705E-01
   7168.67  4.9449738E-01
   7169.00  4.9609797E-01
   7169.33  4.9758702E-01
   7169.67  4.9893764E-01
   7170.00  5.0012239E-01
   7170.33  5.0109339E-01
   7170.67  5.0186078E-01
   7171.00  5.0242260E-01
   7171.33  5.0276717E-01
   7171.67  5.0295540E-01
   7172.00  5.0304421E-01
