    FDMNES
    energy     <xanes>
   7097.00  5.1547232E-03
   7097.33  5.2718022E-03
   7097.67  5.3940060E-03
   7098.00  5.5216711E-03
   7098.33  5.6559661E-03
   7098.67  5.7966345E-03
   7099.00  5.9441312E-03
   7099.33  6.0999724E-03
   7099.67  6.2638910E-03
   7100.00  6.4365183E-03
   7100.33  6.6198708E-03
   7100.67  6.8136911E-03
   7101.00  7.0188818E-03
   7101.33  7.2382054E-03
   7101.67  7.4714592E-03
   7102.00  7.7199804E-03
   7102.33  7.9876912E-03
   7102.67  8.2745434E-03
   7103.00  8.5826053E-03
   7103.33  8.9176927E-03
   7103.67  9.2801390E-03
   7104.00  9.6733161E-03
   7104.33  1.0106329E-02
   7104.67  1.0580431E-02
   7105.00  1.1101496E-02
   7105.33  1.1684804E-02
   7105.67  1.2333903E-02
   7106.00  1.3059951E-02
   7106.33  1.3891068E-02
   7106.67  1.4837014E-02
   7107.00  1.5921629E-02
   7107.33  1.7203761E-02
   7107.67  1.8712489E-02
   7108.00  2.0508201E-02
   7108.33  2.2740075E-02
   7108.67  2.5512436E-02
   7109.00  2.9025037E-02
   7109.33  3.3794677E-02
   7109.67  4.0350359E-02
   7110.00  4.9719770E-02
   7110.33  6.4836297E-02
   7110.67  8.9229260E-02
   7111.00  1.2638463E-01
   7111.33  1.7315495E-01
   7111.67  2.1679364E-01
   7112.00  2.4735790E-01
   7112.33  2.6768106E-01
   7112.67  2.9344446E-01
   7113.00  3.2703290E-01
   7113.33  3.5747177E-01
   7113.67  3.8061940E-01
   7114.00  4.0168173E-01
   7114.33  3.8702070E-01
   7114.67  3.3068862E-01
   7115.00  2.6953435E-01
   7115.33  2.2878531E-01
   7115.67  2.0408965E-01
   7116.00  1.8881981E-01
   7116.33  1.7574795E-01
   7116.67  1.6145858E-01
   7117.00  1.4863112E-01
   7117.33  1.4111341E-01
   7117.67  1.3743538E-01
   7118.00  1.3514992E-01
   7118.33  1.3406481E-01
   7118.67  1.3628769E-01
   7119.00  1.4214616E-01
   7119.33  1.5059770E-01
   7119.67  1.5997636E-01
   7120.00  1.6964854E-01
   7120.33  1.7898070E-01
   7120.67  1.8715356E-01
   7121.00  1.9396056E-01
   7121.33  2.0045713E-01
   7121.67  2.0760442E-01
   7122.00  2.1531458E-01
   7122.33  2.2349021E-01
   7122.67  2.3243980E-01
   7123.00  2.4261652E-01
   7123.33  2.5451127E-01
   7123.67  2.6803468E-01
   7124.00  2.8318391E-01
   7124.33  3.0006504E-01
   7124.67  3.1874090E-01
   7125.00  3.3972589E-01
   7125.33  3.6365003E-01
   7125.67  3.8976771E-01
   7126.00  4.1712717E-01
   7126.33  4.4438052E-01
   7126.67  4.7077739E-01
   7127.00  4.9649542E-01
   7127.33  5.2261982E-01
   7127.67  5.5043839E-01
   7128.00  5.8055153E-01
   7128.33  6.1190508E-01
   7128.67  6.4107747E-01
   7129.00  6.6566078E-01
   7129.33  6.8476771E-01
   7129.67  6.9993889E-01
   7130.00  7.1195065E-01
   7130.33  7.2223683E-01
   7130.67  7.3335419E-01
   7131.00  7.4672061E-01
   7131.33  7.6265689E-01
   7131.67  7.7976538E-01
   7132.00  7.9697924E-01
   7132.33  8.1331987E-01
   7132.67  8.2829577E-01
   7133.00  8.4135010E-01
   7133.33  8.5111043E-01
   7133.67  8.5658018E-01
   7134.00  8.5667129E-01
   7134.33  8.4996031E-01
   7134.67  8.3730298E-01
   7135.00  8.1932507E-01
   7135.33  7.9677612E-01
   7135.67  7.7178172E-01
   7136.00  7.4573857E-01
   7136.33  7.2003033E-01
   7136.67  6.9555154E-01
   7137.00  6.7276633E-01
   7137.33  6.5213040E-01
   7137.67  6.3338235E-01
   7138.00  6.1639732E-01
   7138.33  6.0118515E-01
   7138.67  5.8738234E-01
   7139.00  5.7490059E-01
   7139.33  5.6389588E-01
   7139.67  5.5432769E-01
   7140.00  5.4641426E-01
   7140.33  5.4076631E-01
   7140.67  5.3753261E-01
   7141.00  5.3699229E-01
   7141.33  5.3957482E-01
   7141.67  5.4457137E-01
   7142.00  5.5122484E-01
   7142.33  5.5819854E-01
   7142.67  5.6381548E-01
   7143.00  5.6683820E-01
   7143.33  5.6609994E-01
   7143.67  5.6220942E-01
   7144.00  5.5590776E-01
   7144.33  5.4812792E-01
   7144.67  5.3999581E-01
   7145.00  5.3207117E-01
   7145.33  5.2474136E-01
   7145.67  5.1797029E-01
   7146.00  5.1162471E-01
   7146.33  5.0547837E-01
   7146.67  4.9925135E-01
   7147.00  4.9277569E-01
   7147.33  4.8592098E-01
   7147.67  4.7876929E-01
   7148.00  4.7144260E-01
   7148.33  4.6415028E-01
   7148.67  4.5711905E-01
   7149.00  4.5053450E-01
   7149.33  4.4465072E-01
   7149.67  4.3951682E-01
   7150.00  4.3520909E-01
   7150.33  4.3190094E-01
   7150.67  4.2951790E-01
   7151.00  4.2807710E-01
   7151.33  4.2770825E-01
   7151.67  4.2828580E-01
   7152.00  4.2978243E-01
   7152.33  4.3225465E-01
   7152.67  4.3552601E-01
   7153.00  4.3952793E-01
   7153.33  4.4425422E-01
   7153.67  4.4953684E-01
   7154.00  4.5530481E-01
   7154.33  4.6153585E-01
   7154.67  4.6811531E-01
   7155.00  4.7499550E-01
   7155.33  4.8215331E-01
   7155.67  4.8949387E-01
   7156.00  4.9694525E-01
   7156.33  5.0440097E-01
   7156.67  5.1172643E-01
   7157.00  5.1878433E-01
   7157.33  5.2533766E-01
   7157.67  5.3124940E-01
   7158.00  5.3635601E-01
   7158.33  5.4036560E-01
   7158.67  5.4327127E-01
   7159.00  5.4500862E-01
   7159.33  5.4542114E-01
   7159.67  5.4472152E-01
   7160.00  5.4302004E-01
   7160.33  5.4038864E-01
   7160.67  5.3713203E-01
   7161.00  5.3342290E-01
   7161.33  5.2940875E-01
   7161.67  5.2527284E-01
   7162.00  5.2111795E-01
   7162.33  5.1704838E-01
   7162.67  5.1312791E-01
   7163.00  5.0940697E-01
   7163.33  5.0596565E-01
   7163.67  5.0281894E-01
   7164.00  5.0000662E-01
   7164.33  4.9760471E-01
   7164.67  4.9558252E-01
   7165.00  4.9394555E-01
   7165.33  4.9273902E-01
   7165.67  4.9190324E-01
   7166.00  4.9142163E-01
   7166.33  4.9130891E-01
   7166.67  4.9149099E-01
   7167.00  4.9193445E-01
   7167.33  4.9262280E-01
   7167.67  4.9348220E-01
   7168.00  4.9447183E-01
   7168.33  4.9555517E-01
   7168.67  4.9667629E-01
   7169.00  4.9779769E-01
   7169.33  4.9887659E-01
   7169.67  4.9988505E-01
   7170.00  5.0079802E-01
   7170.33  5.0157684E-01
   7170.67  5.0221956E-01
   7171.00  5.0271820E-01
   7171.33  5.0305585E-01
   7171.67  5.0326890E-01
   7172.00  5.0339273E-01
