    FDMNES
    energy     <xanes>
   7097.00  5.0701913E-03
   7097.33  5.1926631E-03
   7097.67  5.3207850E-03
   7098.00  5.4549455E-03
   7098.33  5.5964634E-03
   7098.67  5.7450810E-03
   7099.00  5.9013311E-03
   7099.33  6.0669482E-03
   7099.67  6.2416734E-03
   7100.00  6.4262589E-03
   7100.33  6.6230494E-03
   7100.67  6.8318167E-03
   7101.00  7.0536580E-03
   7101.33  7.2918503E-03
   7101.67  7.5462662E-03
   7102.00  7.8185717E-03
   7102.33  8.1135346E-03
   7102.67  8.4312856E-03
   7103.00  8.7744799E-03
   7103.33  9.1504076E-03
   7103.67  9.5598210E-03
   7104.00  1.0007214E-02
   7104.33  1.0504449E-02
   7104.67  1.1053794E-02
   7105.00  1.1663451E-02
   7105.33  1.2354341E-02
   7105.67  1.3132628E-02
   7106.00  1.4014845E-02
   7106.33  1.5042038E-02
   7106.67  1.6231465E-02
   7107.00  1.7621230E-02
   7107.33  1.9304713E-02
   7107.67  2.1336180E-02
   7108.00  2.3822015E-02
   7108.33  2.7026392E-02
   7108.67  3.1161671E-02
   7109.00  3.6626660E-02
   7109.33  4.4476578E-02
   7109.67  5.5923688E-02
   7110.00  7.3344006E-02
   7110.33  1.0363283E-01
   7110.67  1.5464218E-01
   7111.00  2.2996401E-01
   7111.33  3.0682997E-01
   7111.67  3.5102081E-01
   7112.00  3.5427187E-01
   7112.33  3.3113455E-01
   7112.67  3.0182768E-01
   7113.00  2.7140702E-01
   7113.33  2.3734601E-01
   7113.67  2.0230880E-01
   7114.00  1.7150102E-01
   7114.33  1.5073614E-01
   7114.67  1.4024793E-01
   7115.00  1.3982724E-01
   7115.33  1.5033226E-01
   7115.67  1.6726301E-01
   7116.00  1.7946749E-01
   7116.33  1.7138195E-01
   7116.67  1.5483001E-01
   7117.00  1.4195275E-01
   7117.33  1.3911438E-01
   7117.67  1.4496975E-01
   7118.00  1.5891566E-01
   7118.33  1.8341787E-01
   7118.67  2.2059236E-01
   7119.00  2.7261423E-01
   7119.33  3.3602301E-01
   7119.67  3.9411799E-01
   7120.00  4.3599305E-01
   7120.33  4.5795076E-01
   7120.67  4.6337540E-01
   7121.00  4.5330526E-01
   7121.33  4.3206445E-01
   7121.67  4.0930128E-01
   7122.00  3.8958433E-01
   7122.33  3.7462176E-01
   7122.67  3.6341755E-01
   7123.00  3.5601461E-01
   7123.33  3.5354920E-01
   7123.67  3.5588772E-01
   7124.00  3.6302086E-01
   7124.33  3.7469959E-01
   7124.67  3.8789741E-01
   7125.00  3.9969576E-01
   7125.33  4.0847602E-01
   7125.67  4.1506172E-01
   7126.00  4.1949562E-01
   7126.33  4.2218245E-01
   7126.67  4.2558049E-01
   7127.00  4.3197197E-01
   7127.33  4.4331207E-01
   7127.67  4.5805452E-01
   7128.00  4.7365827E-01
   7128.33  4.8693954E-01
   7128.67  4.9720927E-01
   7129.00  5.0539917E-01
   7129.33  5.1328945E-01
   7129.67  5.2186172E-01
   7130.00  5.3075969E-01
   7130.33  5.3936316E-01
   7130.67  5.4835403E-01
   7131.00  5.5933567E-01
   7131.33  5.7477255E-01
   7131.67  5.9485297E-01
   7132.00  6.1813444E-01
   7132.33  6.3975996E-01
   7132.67  6.5367530E-01
   7133.00  6.5672586E-01
   7133.33  6.4936158E-01
   7133.67  6.3747594E-01
   7134.00  6.2443998E-01
   7134.33  6.1201988E-01
   7134.67  6.0008950E-01
   7135.00  5.8828103E-01
   7135.33  5.7681086E-01
   7135.67  5.6653173E-01
   7136.00  5.5840834E-01
   7136.33  5.5372953E-01
   7136.67  5.5251604E-01
   7137.00  5.5465367E-01
   7137.33  5.5994900E-01
   7137.67  5.6726166E-01
   7138.00  5.7584830E-01
   7138.33  5.8489456E-01
   7138.67  5.9352358E-01
   7139.00  6.0111690E-01
   7139.33  6.0699039E-01
   7139.67  6.1118543E-01
   7140.00  6.1384104E-01
   7140.33  6.1517635E-01
   7140.67  6.1579262E-01
   7141.00  6.1607209E-01
   7141.33  6.1640017E-01
   7141.67  6.1704378E-01
   7142.00  6.1812516E-01
   7142.33  6.1969552E-01
   7142.67  6.2155624E-01
   7143.00  6.2350406E-01
   7143.33  6.2522828E-01
   7143.67  6.2643665E-01
   7144.00  6.2683069E-01
   7144.33  6.2589367E-01
   7144.67  6.2341374E-01
   7145.00  6.1912178E-01
   7145.33  6.1256406E-01
   7145.67  6.0397998E-01
   7146.00  5.9353739E-01
   7146.33  5.8142844E-01
   7146.67  5.6833192E-01
   7147.00  5.5469037E-01
   7147.33  5.4095708E-01
   7147.67  5.2748527E-01
   7148.00  5.1445363E-01
   7148.33  5.0203276E-01
   7148.67  4.9018263E-01
   7149.00  4.7888995E-01
   7149.33  4.6817910E-01
   7149.67  4.5793266E-01
   7150.00  4.4810715E-01
   7150.33  4.3869118E-01
   7150.67  4.2958528E-01
   7151.00  4.2075880E-01
   7151.33  4.1222773E-01
   7151.67  4.0395763E-01
   7152.00  3.9595874E-01
   7152.33  3.8829278E-01
   7152.67  3.8095831E-01
   7153.00  3.7399110E-01
   7153.33  3.6748596E-01
   7153.67  3.6143561E-01
   7154.00  3.5587842E-01
   7154.33  3.5092585E-01
   7154.67  3.4655378E-01
   7155.00  3.4279845E-01
   7155.33  3.3978237E-01
   7155.67  3.3745848E-01
   7156.00  3.3584919E-01
   7156.33  3.3505953E-01
   7156.67  3.3499781E-01
   7157.00  3.3565145E-01
   7157.33  3.3707877E-01
   7157.67  3.3915386E-01
   7158.00  3.4183411E-01
   7158.33  3.4513039E-01
   7158.67  3.4890854E-01
   7159.00  3.5310626E-01
   7159.33  3.5768862E-01
   7159.67  3.6253231E-01
   7160.00  3.6756898E-01
   7160.33  3.7273737E-01
   7160.67  3.7795143E-01
   7161.00  3.8316553E-01
   7161.33  3.8834857E-01
   7161.67  3.9349296E-01
   7162.00  3.9859464E-01
   7162.33  4.0363566E-01
   7162.67  4.0859547E-01
   7163.00  4.1344446E-01
   7163.33  4.1812194E-01
   7163.67  4.2259289E-01
   7164.00  4.2680418E-01
   7164.33  4.3065111E-01
   7164.67  4.3411245E-01
   7165.00  4.3714463E-01
   7165.33  4.3965601E-01
   7165.67  4.4169011E-01
   7166.00  4.4324904E-01
   7166.33  4.4429250E-01
   7166.67  4.4490770E-01
   7167.00  4.4512837E-01
   7167.33  4.4495795E-01
   7167.67  4.4449475E-01
   7168.00  4.4379190E-01
   7168.33  4.4289633E-01
   7168.67  4.4190309E-01
   7169.00  4.4087696E-01
   7169.33  4.3989661E-01
   7169.67  4.3902444E-01
   7170.00  4.3831024E-01
   7170.33  4.3782352E-01
   7170.67  4.3756407E-01
   7171.00  4.3753423E-01
   7171.33  4.3773194E-01
   7171.67  4.3805865E-01
   7172.00  4.3840888E-01
