    FDMNES
    energy     <xanes>
   7097.00  5.2229308E-03
   7097.33  5.3462423E-03
   7097.67  5.4751444E-03
   7098.00  5.6100134E-03
   7098.33  5.7521396E-03
   7098.67  5.9012552E-03
   7099.00  6.0578713E-03
   7099.33  6.2236709E-03
   7099.67  6.3983777E-03
   7100.00  6.5827042E-03
   7100.33  6.7789014E-03
   7100.67  6.9867084E-03
   7101.00  7.2071485E-03
   7101.33  7.4433240E-03
   7101.67  7.6950424E-03
   7102.00  7.9638272E-03
   7102.33  8.2541098E-03
   7102.67  8.5658840E-03
   7103.00  8.9015182E-03
   7103.33  9.2676250E-03
   7103.67  9.6646527E-03
   7104.00  1.0096483E-02
   7104.33  1.0573538E-02
   7104.67  1.1097357E-02
   7105.00  1.1674744E-02
   7105.33  1.2323316E-02
   7105.67  1.3047340E-02
   7106.00  1.3859828E-02
   7106.33  1.4793477E-02
   7106.67  1.5859969E-02
   7107.00  1.7087357E-02
   7107.33  1.8544779E-02
   7107.67  2.0267191E-02
   7108.00  2.2326531E-02
   7108.33  2.4900615E-02
   7108.67  2.8116457E-02
   7109.00  3.2216625E-02
   7109.33  3.7831513E-02
   7109.67  4.5621116E-02
   7110.00  5.6870434E-02
   7110.33  7.5235561E-02
   7110.67  1.0478406E-01
   7111.00  1.4823063E-01
   7111.33  1.9989398E-01
   7111.67  2.4874226E-01
   7112.00  2.9126470E-01
   7112.33  3.2279295E-01
   7112.67  3.4165099E-01
   7113.00  3.6177412E-01
   7113.33  3.9179471E-01
   7113.67  4.1652389E-01
   7114.00  4.1667685E-01
   7114.33  3.7921359E-01
   7114.67  3.3004943E-01
   7115.00  2.8773868E-01
   7115.33  2.6085452E-01
   7115.67  2.4568798E-01
   7116.00  2.3833943E-01
   7116.33  2.3301672E-01
   7116.67  2.2393554E-01
   7117.00  2.1098671E-01
   7117.33  1.9790253E-01
   7117.67  1.8675965E-01
   7118.00  1.7721175E-01
   7118.33  1.6879678E-01
   7118.67  1.6189122E-01
   7119.00  1.5727626E-01
   7119.33  1.5640478E-01
   7119.67  1.5876560E-01
   7120.00  1.6265213E-01
   7120.33  1.6664502E-01
   7120.67  1.7113657E-01
   7121.00  1.7707042E-01
   7121.33  1.8593242E-01
   7121.67  1.9803959E-01
   7122.00  2.1302105E-01
   7122.33  2.2997714E-01
   7122.67  2.4805581E-01
   7123.00  2.6616005E-01
   7123.33  2.7982814E-01
   7123.67  2.8624111E-01
   7124.00  2.8689966E-01
   7124.33  2.8690478E-01
   7124.67  2.9075615E-01
   7125.00  3.0035558E-01
   7125.33  3.1723012E-01
   7125.67  3.4027999E-01
   7126.00  3.6843255E-01
   7126.33  4.0038180E-01
   7126.67  4.3411698E-01
   7127.00  4.6782865E-01
   7127.33  4.9796882E-01
   7127.67  5.2264588E-01
   7128.00  5.4243814E-01
   7128.33  5.5954534E-01
   7128.67  5.7598512E-01
   7129.00  5.9257090E-01
   7129.33  6.1158297E-01
   7129.67  6.3508793E-01
   7130.00  6.6378580E-01
   7130.33  6.9744942E-01
   7130.67  7.3351440E-01
   7131.00  7.6946509E-01
   7131.33  8.0144554E-01
   7131.67  8.2674710E-01
   7132.00  8.4352146E-01
   7132.33  8.4985796E-01
   7132.67  8.4747202E-01
   7133.00  8.3736165E-01
   7133.33  8.1983222E-01
   7133.67  7.9655185E-01
   7134.00  7.6815739E-01
   7134.33  7.3515947E-01
   7134.67  6.9962946E-01
   7135.00  6.6319043E-01
   7135.33  6.2771894E-01
   7135.67  5.9439437E-01
   7136.00  5.6385700E-01
   7136.33  5.3680096E-01
   7136.67  5.1286048E-01
   7137.00  4.9195702E-01
   7137.33  4.7435108E-01
   7137.67  4.5961984E-01
   7138.00  4.4778109E-01
   7138.33  4.3928483E-01
   7138.67  4.3383284E-01
   7139.00  4.3141758E-01
   7139.33  4.3226731E-01
   7139.67  4.3577449E-01
   7140.00  4.4168960E-01
   7140.33  4.4997872E-01
   7140.67  4.6006748E-01
   7141.00  4.7164436E-01
   7141.33  4.8436160E-01
   7141.67  4.9745908E-01
   7142.00  5.1028168E-01
   7142.33  5.2189715E-01
   7142.67  5.3174997E-01
   7143.00  5.3943879E-01
   7143.33  5.4448029E-01
   7143.67  5.4725323E-01
   7144.00  5.4798718E-01
   7144.33  5.4683730E-01
   7144.67  5.4441130E-01
   7145.00  5.4104498E-01
   7145.33  5.3703801E-01
   7145.67  5.3281051E-01
   7146.00  5.2864165E-01
   7146.33  5.2484705E-01
   7146.67  5.2158432E-01
   7147.00  5.1898009E-01
   7147.33  5.1722855E-01
   7147.67  5.1626744E-01
   7148.00  5.1607377E-01
   7148.33  5.1666955E-01
   7148.67  5.1788602E-01
   7149.00  5.1965792E-01
   7149.33  5.2199009E-01
   7149.67  5.2480526E-01
   7150.00  5.2811562E-01
   7150.33  5.3200415E-01
   7150.67  5.3641408E-01
   7151.00  5.4133284E-01
   7151.33  5.4677610E-01
   7151.67  5.5261295E-01
   7152.00  5.5876019E-01
   7152.33  5.6512674E-01
   7152.67  5.7155911E-01
   7153.00  5.7794068E-01
   7153.33  5.8411260E-01
   7153.67  5.8996973E-01
   7154.00  5.9541171E-01
   7154.33  6.0027448E-01
   7154.67  6.0454900E-01
   7155.00  6.0819465E-01
   7155.33  6.1110457E-01
   7155.67  6.1335225E-01
   7156.00  6.1493819E-01
   7156.33  6.1578593E-01
   7156.67  6.1598806E-01
   7157.00  6.1555968E-01
   7157.33  6.1445481E-01
   7157.67  6.1279498E-01
   7158.00  6.1063646E-01
   7158.33  6.0801368E-01
   7158.67  6.0508370E-01
   7159.00  6.0194770E-01
   7159.33  5.9871603E-01
   7159.67  5.9551162E-01
   7160.00  5.9241435E-01
   7160.33  5.8950799E-01
   7160.67  5.8679628E-01
   7161.00  5.8427467E-01
   7161.33  5.8193178E-01
   7161.67  5.7969426E-01
   7162.00  5.7750631E-01
   7162.33  5.7529815E-01
   7162.67  5.7301979E-01
   7163.00  5.7064845E-01
   7163.33  5.6815379E-01
   7163.67  5.6554193E-01
   7164.00  5.6281630E-01
   7164.33  5.5997752E-01
   7164.67  5.5705663E-01
   7165.00  5.5407048E-01
   7165.33  5.5103188E-01
   7165.67  5.4796182E-01
   7166.00  5.4486762E-01
   7166.33  5.4174446E-01
   7166.67  5.3858260E-01
   7167.00  5.3536274E-01
   7167.33  5.3204342E-01
   7167.67  5.2859977E-01
   7168.00  5.2500131E-01
   7168.33  5.2119638E-01
   7168.67  5.1718677E-01
   7169.00  5.1296317E-01
   7169.33  5.0850376E-01
   7169.67  5.0385662E-01
   7170.00  4.9905562E-01
   7170.33  4.9414642E-01
   7170.67  4.8922082E-01
   7171.00  4.8437030E-01
   7171.33  4.7977408E-01
   7171.67  4.7564190E-01
   7172.00  4.7226059E-01
