    FDMNES
    energy     <xanes>
   7097.00  5.2139592E-03
   7097.33  5.3372669E-03
   7097.67  5.4661569E-03
   7098.00  5.6010040E-03
   7098.33  5.7430949E-03
   7098.67  5.8921609E-03
   7099.00  6.0487111E-03
   7099.33  6.2144227E-03
   7099.67  6.3890185E-03
   7100.00  6.5732074E-03
   7100.33  6.7692320E-03
   7100.67  6.9768296E-03
   7101.00  7.1970185E-03
   7101.33  7.4328876E-03
   7101.67  7.6842422E-03
   7102.00  7.9525977E-03
   7102.33  8.2423651E-03
   7102.67  8.5535353E-03
   7103.00  8.8884644E-03
   7103.33  9.2537339E-03
   7103.67  9.6497883E-03
   7104.00  1.0080492E-02
   7104.33  1.0556220E-02
   7104.67  1.1078511E-02
   7105.00  1.1654143E-02
   7105.33  1.2300677E-02
   7105.67  1.3022383E-02
   7106.00  1.3832259E-02
   7106.33  1.4762959E-02
   7106.67  1.5826226E-02
   7107.00  1.7050176E-02
   7107.33  1.8504120E-02
   7107.67  2.0223382E-02
   7108.00  2.2280500E-02
   7108.33  2.4854923E-02
   7108.67  2.8076113E-02
   7109.00  3.2191204E-02
   7109.33  3.7844238E-02
   7109.67  4.5717629E-02
   7110.00  5.7142146E-02
   7110.33  7.5899002E-02
   7110.67  1.0600370E-01
   7111.00  1.4917389E-01
   7111.33  1.9819569E-01
   7111.67  2.4798660E-01
   7112.00  2.9588336E-01
   7112.33  3.2577621E-01
   7112.67  3.3769337E-01
   7113.00  3.4741194E-01
   7113.33  3.6724740E-01
   7113.67  3.9003909E-01
   7114.00  3.9670601E-01
   7114.33  3.6597984E-01
   7114.67  3.2193441E-01
   7115.00  2.8543600E-01
   7115.33  2.6442210E-01
   7115.67  2.5319372E-01
   7116.00  2.4591390E-01
   7116.33  2.3386775E-01
   7116.67  2.1455766E-01
   7117.00  1.9386513E-01
   7117.33  1.8058270E-01
   7117.67  1.7580469E-01
   7118.00  1.7732014E-01
   7118.33  1.8153810E-01
   7118.67  1.8569022E-01
   7119.00  1.8939002E-01
   7119.33  1.9181098E-01
   7119.67  1.9156962E-01
   7120.00  1.9001145E-01
   7120.33  1.9121610E-01
   7120.67  1.9656838E-01
   7121.00  2.0513395E-01
   7121.33  2.1508346E-01
   7121.67  2.2638841E-01
   7122.00  2.4061588E-01
   7122.33  2.5828797E-01
   7122.67  2.7557044E-01
   7123.00  2.8844837E-01
   7123.33  2.9539792E-01
   7123.67  3.0077635E-01
   7124.00  3.0751318E-01
   7124.33  3.1646108E-01
   7124.67  3.2660424E-01
   7125.00  3.3784030E-01
   7125.33  3.5164267E-01
   7125.67  3.6943681E-01
   7126.00  3.9194437E-01
   7126.33  4.1870289E-01
   7126.67  4.4638369E-01
   7127.00  4.7182822E-01
   7127.33  4.9213330E-01
   7127.67  5.0960420E-01
   7128.00  5.2866588E-01
   7128.33  5.5445560E-01
   7128.67  5.8713473E-01
   7129.00  6.2511166E-01
   7129.33  6.6503061E-01
   7129.67  7.0175666E-01
   7130.00  7.3107861E-01
   7130.33  7.4954352E-01
   7130.67  7.6023780E-01
   7131.00  7.6647876E-01
   7131.33  7.7085304E-01
   7131.67  7.7400013E-01
   7132.00  7.7488414E-01
   7132.33  7.7137893E-01
   7132.67  7.6285766E-01
   7133.00  7.4904574E-01
   7133.33  7.2960592E-01
   7133.67  7.0600854E-01
   7134.00  6.7942571E-01
   7134.33  6.5124435E-01
   7134.67  6.2307330E-01
   7135.00  5.9602681E-01
   7135.33  5.7155458E-01
   7135.67  5.5012264E-01
   7136.00  5.3180041E-01
   7136.33  5.1625015E-01
   7136.67  5.0203653E-01
   7137.00  4.8821024E-01
   7137.33  4.7409372E-01
   7137.67  4.5982145E-01
   7138.00  4.4602979E-01
   7138.33  4.3391535E-01
   7138.67  4.2412322E-01
   7139.00  4.1699112E-01
   7139.33  4.1281161E-01
   7139.67  4.1096880E-01
   7140.00  4.1119150E-01
   7140.33  4.1347919E-01
   7140.67  4.1747495E-01
   7141.00  4.2310863E-01
   7141.33  4.3046313E-01
   7141.67  4.3914720E-01
   7142.00  4.4888275E-01
   7142.33  4.5928362E-01
   7142.67  4.6969767E-01
   7143.00  4.7959561E-01
   7143.33  4.8830567E-01
   7143.67  4.9563823E-01
   7144.00  5.0157207E-01
   7144.33  5.0625149E-01
   7144.67  5.1034226E-01
   7145.00  5.1437757E-01
   7145.33  5.1901143E-01
   7145.67  5.2464127E-01
   7146.00  5.3153137E-01
   7146.33  5.3998658E-01
   7146.67  5.4976202E-01
   7147.00  5.6063464E-01
   7147.33  5.7228223E-01
   7147.67  5.8410681E-01
   7148.00  5.9561800E-01
   7148.33  6.0612762E-01
   7148.67  6.1527611E-01
   7149.00  6.2283915E-01
   7149.33  6.2856033E-01
   7149.67  6.3277544E-01
   7150.00  6.3569720E-01
   7150.33  6.3749733E-01
   7150.67  6.3858496E-01
   7151.00  6.3915869E-01
   7151.33  6.3933276E-01
   7151.67  6.3923200E-01
   7152.00  6.3887345E-01
   7152.33  6.3820100E-01
   7152.67  6.3720487E-01
   7153.00  6.3584175E-01
   7153.33  6.3401562E-01
   7153.67  6.3174812E-01
   7154.00  6.2902947E-01
   7154.33  6.2581235E-01
   7154.67  6.2217971E-01
   7155.00  6.1816838E-01
   7155.33  6.1379254E-01
   7155.67  6.0915492E-01
   7156.00  6.0430961E-01
   7156.33  5.9929895E-01
   7156.67  5.9420004E-01
   7157.00  5.8906314E-01
   7157.33  5.8395102E-01
   7157.67  5.7892370E-01
   7158.00  5.7403793E-01
   7158.33  5.6938863E-01
   7158.67  5.6501943E-01
   7159.00  5.6098933E-01
   7159.33  5.5740981E-01
   7159.67  5.5427555E-01
   7160.00  5.5161114E-01
   7160.33  5.4948719E-01
   7160.67  5.4782725E-01
   7161.00  5.4659093E-01
   7161.33  5.4574019E-01
   7161.67  5.4511762E-01
   7162.00  5.4460398E-01
   7162.33  5.4405185E-01
   7162.67  5.4333698E-01
   7163.00  5.4236062E-01
   7163.33  5.4099035E-01
   7163.67  5.3922712E-01
   7164.00  5.3707417E-01
   7164.33  5.3453284E-01
   7164.67  5.3172345E-01
   7165.00  5.2872736E-01
   7165.33  5.2563092E-01
   7165.67  5.2253149E-01
   7166.00  5.1948594E-01
   7166.33  5.1654781E-01
   7166.67  5.1371901E-01
   7167.00  5.1099032E-01
   7167.33  5.0833856E-01
   7167.67  5.0570971E-01
   7168.00  5.0305888E-01
   7168.33  5.0031888E-01
   7168.67  4.9745049E-01
   7169.00  4.9442366E-01
   7169.33  4.9119701E-01
   7169.67  4.8779405E-01
   7170.00  4.8423370E-01
   7170.33  4.8054432E-01
   7170.67  4.7680568E-01
   7171.00  4.7309458E-01
   7171.33  4.6955635E-01
   7171.67  4.6636551E-01
   7172.00  4.6375002E-01
