    FDMNES
    energy     <xanes>
   7097.00  5.1378977E-03
   7097.33  5.2553094E-03
   7097.67  5.3778516E-03
   7098.00  5.5058577E-03
   7098.33  5.6404914E-03
   7098.67  5.7814906E-03
   7099.00  5.9293036E-03
   7099.33  6.0854341E-03
   7099.67  6.2496061E-03
   7100.00  6.4224380E-03
   7100.33  6.6059192E-03
   7100.67  6.7997770E-03
   7101.00  7.0048888E-03
   7101.33  7.2239612E-03
   7101.67  7.4567643E-03
   7102.00  7.7045854E-03
   7102.33  7.9712337E-03
   7102.67  8.2566085E-03
   7103.00  8.5626780E-03
   7103.33  8.8950275E-03
   7103.67  9.2538823E-03
   7104.00  9.6424058E-03
   7104.33  1.0069219E-02
   7104.67  1.0535336E-02
   7105.00  1.1046174E-02
   7105.33  1.1615949E-02
   7105.67  1.2247633E-02
   7106.00  1.2951312E-02
   7106.33  1.3752589E-02
   7106.67  1.4659702E-02
   7107.00  1.5693719E-02
   7107.33  1.6906918E-02
   7107.67  1.8323800E-02
   7108.00  1.9996589E-02
   7108.33  2.2054736E-02
   7108.67  2.4586370E-02
   7109.00  2.7762613E-02
   7109.33  3.2028897E-02
   7109.67  3.7844403E-02
   7110.00  4.6109574E-02
   7110.33  5.9364701E-02
   7110.67  8.0076514E-02
   7111.00  1.0842806E-01
   7111.33  1.3764474E-01
   7111.67  1.6377652E-01
   7112.00  1.9176344E-01
   7112.33  2.3445697E-01
   7112.67  2.8699758E-01
   7113.00  3.3487039E-01
   7113.33  3.7553020E-01
   7113.67  4.1151898E-01
   7114.00  4.3387620E-01
   7114.33  4.2759136E-01
   7114.67  4.0105612E-01
   7115.00  3.6502376E-01
   7115.33  3.2544537E-01
   7115.67  2.8982447E-01
   7116.00  2.6327147E-01
   7116.33  2.4813185E-01
   7116.67  2.4048249E-01
   7117.00  2.3598662E-01
   7117.33  2.2763496E-01
   7117.67  2.1322932E-01
   7118.00  1.9661854E-01
   7118.33  1.8336606E-01
   7118.67  1.7433262E-01
   7119.00  1.6837025E-01
   7119.33  1.6383418E-01
   7119.67  1.5938654E-01
   7120.00  1.5475664E-01
   7120.33  1.5027571E-01
   7120.67  1.4652021E-01
   7121.00  1.4394913E-01
   7121.33  1.4310557E-01
   7121.67  1.4415891E-01
   7122.00  1.4759438E-01
   7122.33  1.5427384E-01
   7122.67  1.6395792E-01
   7123.00  1.7652040E-01
   7123.33  1.9199693E-01
   7123.67  2.0945158E-01
   7124.00  2.2794936E-01
   7124.33  2.4606744E-01
   7124.67  2.6274115E-01
   7125.00  2.7767612E-01
   7125.33  2.9118760E-01
   7125.67  3.0438171E-01
   7126.00  3.1809263E-01
   7126.33  3.3329225E-01
   7126.67  3.5047276E-01
   7127.00  3.7012287E-01
   7127.33  3.9305407E-01
   7127.67  4.1908141E-01
   7128.00  4.4808348E-01
   7128.33  4.8010452E-01
   7128.67  5.1459146E-01
   7129.00  5.5160318E-01
   7129.33  5.9186244E-01
   7129.67  6.3521983E-01
   7130.00  6.8130983E-01
   7130.33  7.2910712E-01
   7130.67  7.7631331E-01
   7131.00  8.2070198E-01
   7131.33  8.5939769E-01
   7131.67  8.9191772E-01
   7132.00  9.1834796E-01
   7132.33  9.3888481E-01
   7132.67  9.5504191E-01
   7133.00  9.6702549E-01
   7133.33  9.7367443E-01
   7133.67  9.7450431E-01
   7134.00  9.6870322E-01
   7134.33  9.5508526E-01
   7134.67  9.3497218E-01
   7135.00  9.0919783E-01
   7135.33  8.7841605E-01
   7135.67  8.4444609E-01
   7136.00  8.0832095E-01
   7136.33  7.7099685E-01
   7136.67  7.3355633E-01
   7137.00  6.9670704E-01
   7137.33  6.6131161E-01
   7137.67  6.2780510E-01
   7138.00  5.9667730E-01
   7138.33  5.6885815E-01
   7138.67  5.4447837E-01
   7139.00  5.2384775E-01
   7139.33  5.0760238E-01
   7139.67  4.9514850E-01
   7140.00  4.8621625E-01
   7140.33  4.8073971E-01
   7140.67  4.7782498E-01
   7141.00  4.7703839E-01
   7141.33  4.7811386E-01
   7141.67  4.8040909E-01
   7142.00  4.8357368E-01
   7142.33  4.8728034E-01
   7142.67  4.9111019E-01
   7143.00  4.9479309E-01
   7143.33  4.9802856E-01
   7143.67  5.0068996E-01
   7144.00  5.0268210E-01
   7144.33  5.0387045E-01
   7144.67  5.0435999E-01
   7145.00  5.0419870E-01
   7145.33  5.0339473E-01
   7145.67  5.0211094E-01
   7146.00  5.0042832E-01
   7146.33  4.9840223E-01
   7146.67  4.9616201E-01
   7147.00  4.9378406E-01
   7147.33  4.9134947E-01
   7147.67  4.8895067E-01
   7148.00  4.8666037E-01
   7148.33  4.8458429E-01
   7148.67  4.8277632E-01
   7149.00  4.8129847E-01
   7149.33  4.8026496E-01
   7149.67  4.7967984E-01
   7150.00  4.7957474E-01
   7150.33  4.8003464E-01
   7150.67  4.8100825E-01
   7151.00  4.8249309E-01
   7151.33  4.8452966E-01
   7151.67  4.8701636E-01
   7152.00  4.8990443E-01
   7152.33  4.9316390E-01
   7152.67  4.9666962E-01
   7153.00  5.0034208E-01
   7153.33  5.0409194E-01
   7153.67  5.0781082E-01
   7154.00  5.1141566E-01
   7154.33  5.1479286E-01
   7154.67  5.1789320E-01
   7155.00  5.2066685E-01
   7155.33  5.2302988E-01
   7155.67  5.2501226E-01
   7156.00  5.2661820E-01
   7156.33  5.2782733E-01
   7156.67  5.2872416E-01
   7157.00  5.2935283E-01
   7157.33  5.2974463E-01
   7157.67  5.2998479E-01
   7158.00  5.3012116E-01
   7158.33  5.3019623E-01
   7158.67  5.3025728E-01
   7159.00  5.3033197E-01
   7159.33  5.3044917E-01
   7159.67  5.3061990E-01
   7160.00  5.3085164E-01
   7160.33  5.3115528E-01
   7160.67  5.3152040E-01
   7161.00  5.3194131E-01
   7161.33  5.3241405E-01
   7161.67  5.3292106E-01
   7162.00  5.3344891E-01
   7162.33  5.3397844E-01
   7162.67  5.3448858E-01
   7163.00  5.3496136E-01
   7163.33  5.3537012E-01
   7163.67  5.3569748E-01
   7164.00  5.3591386E-01
   7164.33  5.3597395E-01
   7164.67  5.3587681E-01
   7165.00  5.3560757E-01
   7165.33  5.3512555E-01
   7165.67  5.3443944E-01
   7166.00  5.3353821E-01
   7166.33  5.3238233E-01
   7166.67  5.3099135E-01
   7167.00  5.2936077E-01
   7167.33  5.2745889E-01
   7167.67  5.2531796E-01
   7168.00  5.2294306E-01
   7168.33  5.2031731E-01
   7168.67  5.1748597E-01
   7169.00  5.1446848E-01
   7169.33  5.1127065E-01
   7169.67  5.0794478E-01
   7170.00  5.0452636E-01
   7170.33  5.0106176E-01
   7170.67  4.9761809E-01
   7171.00  4.9426033E-01
   7171.33  4.9111267E-01
   7171.67  4.8830669E-01
   7172.00  4.8602712E-01
