    FDMNES
    energy     <xanes>
   7097.00  5.3664074E-03
   7097.33  5.5022306E-03
   7097.67  5.6445880E-03
   7098.00  5.7939404E-03
   7098.33  5.9518316E-03
   7098.67  6.1179773E-03
   7099.00  6.2930105E-03
   7099.33  6.4789688E-03
   7099.67  6.6755669E-03
   7100.00  6.8836975E-03
   7100.33  7.1061214E-03
   7100.67  7.3425875E-03
   7101.00  7.5943942E-03
   7101.33  7.8654010E-03
   7101.67  8.1554671E-03
   7102.00  8.4665537E-03
   7102.33  8.8042601E-03
   7102.67  9.1687275E-03
   7103.00  9.5630522E-03
   7103.33  9.9957395E-03
   7103.67  1.0467601E-02
   7104.00  1.0983804E-02
   7104.33  1.1558031E-02
   7104.67  1.2192699E-02
   7105.00  1.2897066E-02
   7105.33  1.3694828E-02
   7105.67  1.4592463E-02
   7106.00  1.5608163E-02
   7106.33  1.6787243E-02
   7106.67  1.8147497E-02
   7107.00  1.9729522E-02
   7107.33  2.1632998E-02
   7107.67  2.3912504E-02
   7108.00  2.6677206E-02
   7108.33  3.0197744E-02
   7108.67  3.4681855E-02
   7109.00  4.0522698E-02
   7109.33  4.8755235E-02
   7109.67  6.0534144E-02
   7110.00  7.8121663E-02
   7110.33  1.0804075E-01
   7110.67  1.5760538E-01
   7111.00  2.3109991E-01
   7111.33  3.1276354E-01
   7111.67  3.5110616E-01
   7112.00  3.3342557E-01
   7112.33  3.2065743E-01
   7112.67  3.5361823E-01
   7113.00  4.3121292E-01
   7113.33  5.0410655E-01
   7113.67  5.3983124E-01
   7114.00  5.2875131E-01
   7114.33  4.4833783E-01
   7114.67  3.6560757E-01
   7115.00  3.1605042E-01
   7115.33  2.9928109E-01
   7115.67  2.9046255E-01
   7116.00  2.7595501E-01
   7116.33  2.5661108E-01
   7116.67  2.4090544E-01
   7117.00  2.3135018E-01
   7117.33  2.2686196E-01
   7117.67  2.2265241E-01
   7118.00  2.1499111E-01
   7118.33  2.0254422E-01
   7118.67  1.8835453E-01
   7119.00  1.7496682E-01
   7119.33  1.6448283E-01
   7119.67  1.5621339E-01
   7120.00  1.4887833E-01
   7120.33  1.4192014E-01
   7120.67  1.3606541E-01
   7121.00  1.3208284E-01
   7121.33  1.3013631E-01
   7121.67  1.2935947E-01
   7122.00  1.2970547E-01
   7122.33  1.3186820E-01
   7122.67  1.3581673E-01
   7123.00  1.4141909E-01
   7123.33  1.4878403E-01
   7123.67  1.5779840E-01
   7124.00  1.6861604E-01
   7124.33  1.8167368E-01
   7124.67  1.9688863E-01
   7125.00  2.1446957E-01
   7125.33  2.3523445E-01
   7125.67  2.5932126E-01
   7126.00  2.8667736E-01
   7126.33  3.1632894E-01
   7126.67  3.4544272E-01
   7127.00  3.7122154E-01
   7127.33  3.8993936E-01
   7127.67  4.0119030E-01
   7128.00  4.0644963E-01
   7128.33  4.0948242E-01
   7128.67  4.1476647E-01
   7129.00  4.2492361E-01
   7129.33  4.4220746E-01
   7129.67  4.6596890E-01
   7130.00  4.9601558E-01
   7130.33  5.3337098E-01
   7130.67  5.7824416E-01
   7131.00  6.3194653E-01
   7131.33  6.9644015E-01
   7131.67  7.6878791E-01
   7132.00  8.4552030E-01
   7132.33  9.2156160E-01
   7132.67  9.9090525E-01
   7133.00  1.0469988E+00
   7133.33  1.0795353E+00
   7133.67  1.0866714E+00
   7134.00  1.0690833E+00
   7134.33  1.0300589E+00
   7134.67  9.7984633E-01
   7135.00  9.2423884E-01
   7135.33  8.6755548E-01
   7135.67  8.1253025E-01
   7136.00  7.6054801E-01
   7136.33  7.1289371E-01
   7136.67  6.6916317E-01
   7137.00  6.2914241E-01
   7137.33  5.9311039E-01
   7137.67  5.6075119E-01
   7138.00  5.3235396E-01
   7138.33  5.0878937E-01
   7138.67  4.8966070E-01
   7139.00  4.7486940E-01
   7139.33  4.6460174E-01
   7139.67  4.5794025E-01
   7140.00  4.5451877E-01
   7140.33  4.5428763E-01
   7140.67  4.5651865E-01
   7141.00  4.6090975E-01
   7141.33  4.6734746E-01
   7141.67  4.7526758E-01
   7142.00  4.8438079E-01
   7142.33  4.9445465E-01
   7142.67  5.0504086E-01
   7143.00  5.1584629E-01
   7143.33  5.2652159E-01
   7143.67  5.3676481E-01
   7144.00  5.4633110E-01
   7144.33  5.5486920E-01
   7144.67  5.6232517E-01
   7145.00  5.6862026E-01
   7145.33  5.7359819E-01
   7145.67  5.7747390E-01
   7146.00  5.8035401E-01
   7146.33  5.8230420E-01
   7146.67  5.8363503E-01
   7147.00  5.8452788E-01
   7147.33  5.8514534E-01
   7147.67  5.8569291E-01
   7148.00  5.8629561E-01
   7148.33  5.8708997E-01
   7148.67  5.8814123E-01
   7149.00  5.8949356E-01
   7149.33  5.9121263E-01
   7149.67  5.9326323E-01
   7150.00  5.9563824E-01
   7150.33  5.9835634E-01
   7150.67  6.0135075E-01
   7151.00  6.0459128E-01
   7151.33  6.0806342E-01
   7151.67  6.1169652E-01
   7152.00  6.1544837E-01
   7152.33  6.1927432E-01
   7152.67  6.2311266E-01
   7153.00  6.2691741E-01
   7153.33  6.3062135E-01
   7153.67  6.3417770E-01
   7154.00  6.3753781E-01
   7154.33  6.4061775E-01
   7154.67  6.4340162E-01
   7155.00  6.4585450E-01
   7155.33  6.4789747E-01
   7155.67  6.4955100E-01
   7156.00  6.5080047E-01
   7156.33  6.5158493E-01
   7156.67  6.5195336E-01
   7157.00  6.5190669E-01
   7157.33  6.5139531E-01
   7157.67  6.5047014E-01
   7158.00  6.4912534E-01
   7158.33  6.4729117E-01
   7158.67  6.4499512E-01
   7159.00  6.4220309E-01
   7159.33  6.3879643E-01
   7159.67  6.3478732E-01
   7160.00  6.3012854E-01
   7160.33  6.2468747E-01
   7160.67  6.1852946E-01
   7161.00  6.1166320E-01
   7161.33  6.0404310E-01
   7161.67  5.9582494E-01
   7162.00  5.8709706E-01
   7162.33  5.7793854E-01
   7162.67  5.6853765E-01
   7163.00  5.5901164E-01
   7163.33  5.4948404E-01
   7163.67  5.4005878E-01
   7164.00  5.3080542E-01
   7164.33  5.2180738E-01
   7164.67  5.1306540E-01
   7165.00  5.0458790E-01
   7165.33  4.9640073E-01
   7165.67  4.8845360E-01
   7166.00  4.8072642E-01
   7166.33  4.7321661E-01
   7166.67  4.6587314E-01
   7167.00  4.5867535E-01
   7167.33  4.5161951E-01
   7167.67  4.4467915E-01
   7168.00  4.3785369E-01
   7168.33  4.3116648E-01
   7168.67  4.2461800E-01
   7169.00  4.1822618E-01
   7169.33  4.1203805E-01
   7169.67  4.0605784E-01
   7170.00  4.0031210E-01
   7170.33  3.9487019E-01
   7170.67  3.8973951E-01
   7171.00  3.8496439E-01
   7171.33  3.8067433E-01
   7171.67  3.7694357E-01
   7172.00  3.7393197E-01
