    FDMNES
    energy     <xanes>
   7097.00  3.5665364E-03
   7097.33  3.6275102E-03
   7097.67  3.6905865E-03
   7098.00  3.7558854E-03
   7098.33  3.8238566E-03
   7098.67  3.8943725E-03
   7099.00  3.9675923E-03
   7099.33  4.0440850E-03
   7099.67  4.1237158E-03
   7100.00  4.2067025E-03
   7100.33  4.2937833E-03
   7100.67  4.3848228E-03
   7101.00  4.4801283E-03
   7101.33  4.5806880E-03
   7101.67  4.6863803E-03
   7102.00  4.7976554E-03
   7102.33  4.9158873E-03
   7102.67  5.0410004E-03
   7103.00  5.1736854E-03
   7103.33  5.3159425E-03
   7103.67  5.4678169E-03
   7104.00  5.6304269E-03
   7104.33  5.8068573E-03
   7104.67  5.9974502E-03
   7105.00  6.2041446E-03
   7105.33  6.4320557E-03
   7105.67  6.6822708E-03
   7106.00  6.9584577E-03
   7106.33  7.2699348E-03
   7106.67  7.6197979E-03
   7107.00  8.0158292E-03
   7107.33  8.4772987E-03
   7107.67  9.0134300E-03
   7108.00  9.6436046E-03
   7108.33  1.0415573E-02
   7108.67  1.1361409E-02
   7109.00  1.2542546E-02
   7109.33  1.4115724E-02
   7109.67  1.6231546E-02
   7110.00  1.9177777E-02
   7110.33  2.3747414E-02
   7110.67  3.0804602E-02
   7111.00  4.1358112E-02
   7111.33  5.8191099E-02
   7111.67  8.4293111E-02
   7112.00  1.1471446E-01
   7112.33  1.3100007E-01
   7112.67  1.2819720E-01
   7113.00  1.0856606E-01
   7113.33  8.7294081E-02
   7113.67  7.0678852E-02
   7114.00  6.1137206E-02
   7114.33  5.9912213E-02
   7114.67  6.3703643E-02
   7115.00  6.7200405E-02
   7115.33  7.0766838E-02
   7115.67  7.7783676E-02
   7116.00  8.7631116E-02
   7116.33  1.0208549E-01
   7116.67  1.1560908E-01
   7117.00  1.1484450E-01
   7117.33  9.4119777E-02
   7117.67  7.1981997E-02
   7118.00  5.5967692E-02
   7118.33  4.6298340E-02
   7118.67  4.0199529E-02
   7119.00  3.6557232E-02
   7119.33  3.4779971E-02
   7119.67  3.4143680E-02
   7120.00  3.4348489E-02
   7120.33  3.5196123E-02
   7120.67  3.6418240E-02
   7121.00  3.7981438E-02
   7121.33  4.0041567E-02
   7121.67  4.2672933E-02
   7122.00  4.5969364E-02
   7122.33  5.0117584E-02
   7122.67  5.5219283E-02
   7123.00  6.1650087E-02
   7123.33  7.0272631E-02
   7123.67  8.1518784E-02
   7124.00  9.5438851E-02
   7124.33  1.1081749E-01
   7124.67  1.2513542E-01
   7125.00  1.3661154E-01
   7125.33  1.4441086E-01
   7125.67  1.4998563E-01
   7126.00  1.5541382E-01
   7126.33  1.6401116E-01
   7126.67  1.7672228E-01
   7127.00  1.9275181E-01
   7127.33  2.0995295E-01
   7127.67  2.2630915E-01
   7128.00  2.4170671E-01
   7128.33  2.5796221E-01
   7128.67  2.7739322E-01
   7129.00  3.0057800E-01
   7129.33  3.2471505E-01
   7129.67  3.4454803E-01
   7130.00  3.5765870E-01
   7130.33  3.6665818E-01
   7130.67  3.7827178E-01
   7131.00  3.9569996E-01
   7131.33  4.2010165E-01
   7131.67  4.4994512E-01
   7132.00  4.8416496E-01
   7132.33  5.2076464E-01
   7132.67  5.5699272E-01
   7133.00  5.9195614E-01
   7133.33  6.2677047E-01
   7133.67  6.6309069E-01
   7134.00  7.0054253E-01
   7134.33  7.3566648E-01
   7134.67  7.6444808E-01
   7135.00  7.8447278E-01
   7135.33  7.9454220E-01
   7135.67  7.9766690E-01
   7136.00  7.9550724E-01
   7136.33  7.8863414E-01
   7136.67  7.7821400E-01
   7137.00  7.6486885E-01
   7137.33  7.4928404E-01
   7137.67  7.3273315E-01
   7138.00  7.1602721E-01
   7138.33  6.9999705E-01
   7138.67  6.8512593E-01
   7139.00  6.7176698E-01
   7139.33  6.6035074E-01
   7139.67  6.5072021E-01
   7140.00  6.4286708E-01
   7140.33  6.3689248E-01
   7140.67  6.3242962E-01
   7141.00  6.2934591E-01
   7141.33  6.2765887E-01
   7141.67  6.2710634E-01
   7142.00  6.2762986E-01
   7142.33  6.2932009E-01
   7142.67  6.3200836E-01
   7143.00  6.3565577E-01
   7143.33  6.4036942E-01
   7143.67  6.4602768E-01
   7144.00  6.5258224E-01
   7144.33  6.5997122E-01
   7144.67  6.6781259E-01
   7145.00  6.7574236E-01
   7145.33  6.8318085E-01
   7145.67  6.8963347E-01
   7146.00  6.9469454E-01
   7146.33  6.9784178E-01
   7146.67  6.9919014E-01
   7147.00  6.9880837E-01
   7147.33  6.9670391E-01
   7147.67  6.9332653E-01
   7148.00  6.8890307E-01
   7148.33  6.8357519E-01
   7148.67  6.7765234E-01
   7149.00  6.7128884E-01
   7149.33  6.6460655E-01
   7149.67  6.5778096E-01
   7150.00  6.5092211E-01
   7150.33  6.4415705E-01
   7150.67  6.3757783E-01
   7151.00  6.3125737E-01
   7151.33  6.2528415E-01
   7151.67  6.1961025E-01
   7152.00  6.1418910E-01
   7152.33  6.0898611E-01
   7152.67  6.0392270E-01
   7153.00  5.9895723E-01
   7153.33  5.9406270E-01
   7153.67  5.8921258E-01
   7154.00  5.8439845E-01
   7154.33  5.7960881E-01
   7154.67  5.7480852E-01
   7155.00  5.6994880E-01
   7155.33  5.6493260E-01
   7155.67  5.5968772E-01
   7156.00  5.5414792E-01
   7156.33  5.4823013E-01
   7156.67  5.4199280E-01
   7157.00  5.3550069E-01
   7157.33  5.2886164E-01
   7157.67  5.2224751E-01
   7158.00  5.1579683E-01
   7158.33  5.0969098E-01
   7158.67  5.0399596E-01
   7159.00  4.9876257E-01
   7159.33  4.9406351E-01
   7159.67  4.8981104E-01
   7160.00  4.8595836E-01
   7160.33  4.8247878E-01
   7160.67  4.7926186E-01
   7161.00  4.7626155E-01
   7161.33  4.7346504E-01
   7161.67  4.7082988E-01
   7162.00  4.6835482E-01
   7162.33  4.6607725E-01
   7162.67  4.6400340E-01
   7163.00  4.6216288E-01
   7163.33  4.6062516E-01
   7163.67  4.5939055E-01
   7164.00  4.5848490E-01
   7164.33  4.5797736E-01
   7164.67  4.5784231E-01
   7165.00  4.5809027E-01
   7165.33  4.5877518E-01
   7165.67  4.5984614E-01
   7166.00  4.6129439E-01
   7166.33  4.6314563E-01
   7166.67  4.6532539E-01
   7167.00  4.6779921E-01
   7167.33  4.7054801E-01
   7167.67  4.7348375E-01
   7168.00  4.7655377E-01
   7168.33  4.7970649E-01
   7168.67  4.8287676E-01
   7169.00  4.8602250E-01
   7169.33  4.8909449E-01
   7169.67  4.9206872E-01
   7170.00  4.9492338E-01
   7170.33  4.9761878E-01
   7170.67  5.0014985E-01
   7171.00  5.0249255E-01
   7171.33  5.0457838E-01
   7171.67  5.0637161E-01
   7172.00  5.0779565E-01
