    FDMNES
    energy     <xanes>
   7097.00  5.1694098E-03
   7097.33  5.2922014E-03
   7097.67  5.4207129E-03
   7098.00  5.5553463E-03
   7098.33  5.6974514E-03
   7098.67  5.8467798E-03
   7099.00  6.0038866E-03
   7099.33  6.1705588E-03
   7099.67  6.3465523E-03
   7100.00  6.5326565E-03
   7100.33  6.7313058E-03
   7100.67  6.9422969E-03
   7101.00  7.1667911E-03
   7101.33  7.4082205E-03
   7101.67  7.6665030E-03
   7102.00  7.9434189E-03
   7102.33  8.2440119E-03
   7102.67  8.5685013E-03
   7103.00  8.9197556E-03
   7103.33  9.3055766E-03
   7103.67  9.7269042E-03
   7104.00  1.0188654E-02
   7104.33  1.0703697E-02
   7104.67  1.1274733E-02
   7105.00  1.1910870E-02
   7105.33  1.2635186E-02
   7105.67  1.3454956E-02
   7106.00  1.4388881E-02
   7106.33  1.5483201E-02
   7106.67  1.6758444E-02
   7107.00  1.8258786E-02
   7107.33  2.0092393E-02
   7107.67  2.2325221E-02
   7108.00  2.5084895E-02
   7108.33  2.8689674E-02
   7108.67  3.3407498E-02
   7109.00  3.9741030E-02
   7109.33  4.9036309E-02
   7109.67  6.2910640E-02
   7110.00  8.4558731E-02
   7110.33  1.2330439E-01
   7110.67  1.8907454E-01
   7111.00  2.8110374E-01
   7111.33  3.4816944E-01
   7111.67  3.5890488E-01
   7112.00  3.3911069E-01
   7112.33  3.0226539E-01
   7112.67  2.5371037E-01
   7113.00  2.0850858E-01
   7113.33  1.7919811E-01
   7113.67  1.6478012E-01
   7114.00  1.6460075E-01
   7114.33  1.8080477E-01
   7114.67  2.0995059E-01
   7115.00  2.4580329E-01
   7115.33  2.7706576E-01
   7115.67  2.9187244E-01
   7116.00  2.8090228E-01
   7116.33  2.4909072E-01
   7116.67  2.1622890E-01
   7117.00  1.9018946E-01
   7117.33  1.7331160E-01
   7117.67  1.6302748E-01
   7118.00  1.5774536E-01
   7118.33  1.5633213E-01
   7118.67  1.5744227E-01
   7119.00  1.6091659E-01
   7119.33  1.6649762E-01
   7119.67  1.7180263E-01
   7120.00  1.7468420E-01
   7120.33  1.7488487E-01
   7120.67  1.7467517E-01
   7121.00  1.7519370E-01
   7121.33  1.7740041E-01
   7121.67  1.8220230E-01
   7122.00  1.9042132E-01
   7122.33  2.0263656E-01
   7122.67  2.1810299E-01
   7123.00  2.3704447E-01
   7123.33  2.6116461E-01
   7123.67  2.9104164E-01
   7124.00  3.2632841E-01
   7124.33  3.6390992E-01
   7124.67  3.9810069E-01
   7125.00  4.2519263E-01
   7125.33  4.4237024E-01
   7125.67  4.5111611E-01
   7126.00  4.5309890E-01
   7126.33  4.5132485E-01
   7126.67  4.5022337E-01
   7127.00  4.5270561E-01
   7127.33  4.6169081E-01
   7127.67  4.7706642E-01
   7128.00  4.9790847E-01
   7128.33  5.2219660E-01
   7128.67  5.4692699E-01
   7129.00  5.7070270E-01
   7129.33  5.9239447E-01
   7129.67  6.1107329E-01
   7130.00  6.2563140E-01
   7130.33  6.3505917E-01
   7130.67  6.4081982E-01
   7131.00  6.4425171E-01
   7131.33  6.4655291E-01
   7131.67  6.4848824E-01
   7132.00  6.5013864E-01
   7132.33  6.5134947E-01
   7132.67  6.5218476E-01
   7133.00  6.5292658E-01
   7133.33  6.5429300E-01
   7133.67  6.5684745E-01
   7134.00  6.6058642E-01
   7134.33  6.6445518E-01
   7134.67  6.6668060E-01
   7135.00  6.6600098E-01
   7135.33  6.6138678E-01
   7135.67  6.5355789E-01
   7136.00  6.4318680E-01
   7136.33  6.3105237E-01
   7136.67  6.1831706E-01
   7137.00  6.0571338E-01
   7137.33  5.9406191E-01
   7137.67  5.8383988E-01
   7138.00  5.7545866E-01
   7138.33  5.6956115E-01
   7138.67  5.6607007E-01
   7139.00  5.6497198E-01
   7139.33  5.6627085E-01
   7139.67  5.6921563E-01
   7140.00  5.7330753E-01
   7140.33  5.7808615E-01
   7140.67  5.8309327E-01
   7141.00  5.8815582E-01
   7141.33  5.9322287E-01
   7141.67  5.9833453E-01
   7142.00  6.0354218E-01
   7142.33  6.0889481E-01
   7142.67  6.1436060E-01
   7143.00  6.1988917E-01
   7143.33  6.2539105E-01
   7143.67  6.3076807E-01
   7144.00  6.3592809E-01
   7144.33  6.4071483E-01
   7144.67  6.4503943E-01
   7145.00  6.4876918E-01
   7145.33  6.5161053E-01
   7145.67  6.5343409E-01
   7146.00  6.5405165E-01
   7146.33  6.5309665E-01
   7146.67  6.5059641E-01
   7147.00  6.4647874E-01
   7147.33  6.4054307E-01
   7147.67  6.3307885E-01
   7148.00  6.2422205E-01
   7148.33  6.1404363E-01
   7148.67  6.0295448E-01
   7149.00  5.9120875E-01
   7149.33  5.7906215E-01
   7149.67  5.6683860E-01
   7150.00  5.5475499E-01
   7150.33  5.4307587E-01
   7150.67  5.3194525E-01
   7151.00  5.2150266E-01
   7151.33  5.1198686E-01
   7151.67  5.0340337E-01
   7152.00  4.9582427E-01
   7152.33  4.8944158E-01
   7152.67  4.8415585E-01
   7153.00  4.7997610E-01
   7153.33  4.7702648E-01
   7153.67  4.7513476E-01
   7154.00  4.7425392E-01
   7154.33  4.7442785E-01
   7154.67  4.7544708E-01
   7155.00  4.7722002E-01
   7155.33  4.7970939E-01
   7155.67  4.8271175E-01
   7156.00  4.8611828E-01
   7156.33  4.8983794E-01
   7156.67  4.9371482E-01
   7157.00  4.9765109E-01
   7157.33  5.0153704E-01
   7157.67  5.0528636E-01
   7158.00  5.0883069E-01
   7158.33  5.1206918E-01
   7158.67  5.1498237E-01
   7159.00  5.1753450E-01
   7159.33  5.1964563E-01
   7159.67  5.2134379E-01
   7160.00  5.2261803E-01
   7160.33  5.2340846E-01
   7160.67  5.2376220E-01
   7161.00  5.2367106E-01
   7161.33  5.2308338E-01
   7161.67  5.2207023E-01
   7162.00  5.2065152E-01
   7162.33  5.1881407E-01
   7162.67  5.1664789E-01
   7163.00  5.1419563E-01
   7163.33  5.1148725E-01
   7163.67  5.0861851E-01
   7164.00  5.0565106E-01
   7164.33  5.0265514E-01
   7164.67  4.9970576E-01
   7165.00  4.9685963E-01
   7165.33  4.9419430E-01
   7165.67  4.9173650E-01
   7166.00  4.8951612E-01
   7166.33  4.8758590E-01
   7166.67  4.8591924E-01
   7167.00  4.8451100E-01
   7167.33  4.8337560E-01
   7167.67  4.8245730E-01
   7168.00  4.8172863E-01
   7168.33  4.8117426E-01
   7168.67  4.8073969E-01
   7169.00  4.8039158E-01
   7169.33  4.8009656E-01
   7169.67  4.7981953E-01
   7170.00  4.7954282E-01
   7170.33  4.7925089E-01
   7170.67  4.7893892E-01
   7171.00  4.7860737E-01
   7171.33  4.7826365E-01
   7171.67  4.7793102E-01
   7172.00  4.7764088E-01
