    FDMNES
    energy     <xanes>
   7097.00  4.6063271E-03
   7097.33  4.7028740E-03
   7097.67  4.8033813E-03
   7098.00  4.9081009E-03
   7098.33  5.0179227E-03
   7098.67  5.1326386E-03
   7099.00  5.2525887E-03
   7099.33  5.3789223E-03
   7099.67  5.5114235E-03
   7100.00  5.6505640E-03
   7100.33  5.7978675E-03
   7100.67  5.9531261E-03
   7101.00  6.1170156E-03
   7101.33  6.2916202E-03
   7101.67  6.4767758E-03
   7102.00  6.6734875E-03
   7102.33  6.8847162E-03
   7102.67  7.1104215E-03
   7103.00  7.3521680E-03
   7103.33  7.6143607E-03
   7103.67  7.8972663E-03
   7104.00  8.2034584E-03
   7104.33  8.5398806E-03
   7104.67  8.9075438E-03
   7105.00  9.3109876E-03
   7105.33  9.7619928E-03
   7105.67  1.0263447E-02
   7106.00  1.0824114E-02
   7106.33  1.1466020E-02
   7106.67  1.2197207E-02
   7107.00  1.3036793E-02
   7107.33  1.4031898E-02
   7107.67  1.5206890E-02
   7108.00  1.6611531E-02
   7108.33  1.8368917E-02
   7108.67  2.0568811E-02
   7109.00  2.3382107E-02
   7109.33  2.7254464E-02
   7109.67  3.2661096E-02
   7110.00  4.0527836E-02
   7110.33  5.3473458E-02
   7110.67  7.4142748E-02
   7111.00  1.0317751E-01
   7111.33  1.3595877E-01
   7111.67  1.7008493E-01
   7112.00  2.0241456E-01
   7112.33  2.4027825E-01
   7112.67  2.8589353E-01
   7113.00  3.0506464E-01
   7113.33  2.5789145E-01
   7113.67  1.9307564E-01
   7114.00  1.4768065E-01
   7114.33  1.2999106E-01
   7114.67  1.3105457E-01
   7115.00  1.4435902E-01
   7115.33  1.5323660E-01
   7115.67  1.4640234E-01
   7116.00  1.3017658E-01
   7116.33  1.1509692E-01
   7116.67  1.0465536E-01
   7117.00  9.8809757E-02
   7117.33  9.7107348E-02
   7117.67  9.8205239E-02
   7118.00  1.0136648E-01
   7118.33  1.0583689E-01
   7118.67  1.1087115E-01
   7119.00  1.1585186E-01
   7119.33  1.1933267E-01
   7119.67  1.2089171E-01
   7120.00  1.2108854E-01
   7120.33  1.2106610E-01
   7120.67  1.2176884E-01
   7121.00  1.2361169E-01
   7121.33  1.2709589E-01
   7121.67  1.3238000E-01
   7122.00  1.3970949E-01
   7122.33  1.4945231E-01
   7122.67  1.6135150E-01
   7123.00  1.7567396E-01
   7123.33  1.9353907E-01
   7123.67  2.1528067E-01
   7124.00  2.4095544E-01
   7124.33  2.6956924E-01
   7124.67  2.9807879E-01
   7125.00  3.2421037E-01
   7125.33  3.4608120E-01
   7125.67  3.6333308E-01
   7126.00  3.7533861E-01
   7126.33  3.8216575E-01
   7126.67  3.8705884E-01
   7127.00  3.9269692E-01
   7127.33  4.0171156E-01
   7127.67  4.1505109E-01
   7128.00  4.3341280E-01
   7128.33  4.5833466E-01
   7128.67  4.9025203E-01
   7129.00  5.3015360E-01
   7129.33  5.7891336E-01
   7129.67  6.3250326E-01
   7130.00  6.8621974E-01
   7130.33  7.3583363E-01
   7130.67  7.8394487E-01
   7131.00  8.3543290E-01
   7131.33  8.9409322E-01
   7131.67  9.5621226E-01
   7132.00  1.0158329E+00
   7132.33  1.0639914E+00
   7132.67  1.0957714E+00
   7133.00  1.1077288E+00
   7133.33  1.0964522E+00
   7133.67  1.0685083E+00
   7134.00  1.0301531E+00
   7134.33  9.8770269E-01
   7134.67  9.4545115E-01
   7135.00  9.0463930E-01
   7135.33  8.6591877E-01
   7135.67  8.2924189E-01
   7136.00  7.9477848E-01
   7136.33  7.6300779E-01
   7136.67  7.3375370E-01
   7137.00  7.0707267E-01
   7137.33  6.8330210E-01
   7137.67  6.6208775E-01
   7138.00  6.4337475E-01
   7138.33  6.2736285E-01
   7138.67  6.1361890E-01
   7139.00  6.0202657E-01
   7139.33  5.9270643E-01
   7139.67  5.8526059E-01
   7140.00  5.7953441E-01
   7140.33  5.7547422E-01
   7140.67  5.7257787E-01
   7141.00  5.7050865E-01
   7141.33  5.6885695E-01
   7141.67  5.6708276E-01
   7142.00  5.6476842E-01
   7142.33  5.6136443E-01
   7142.67  5.5668022E-01
   7143.00  5.5057581E-01
   7143.33  5.4287841E-01
   7143.67  5.3394305E-01
   7144.00  5.2403897E-01
   7144.33  5.1350338E-01
   7144.67  5.0285746E-01
   7145.00  4.9245694E-01
   7145.33  4.8269681E-01
   7145.67  4.7375902E-01
   7146.00  4.6581975E-01
   7146.33  4.5917572E-01
   7146.67  4.5377437E-01
   7147.00  4.4964806E-01
   7147.33  4.4694445E-01
   7147.67  4.4542876E-01
   7148.00  4.4499081E-01
   7148.33  4.4559509E-01
   7148.67  4.4697327E-01
   7149.00  4.4900428E-01
   7149.33  4.5162818E-01
   7149.67  4.5466540E-01
   7150.00  4.5801504E-01
   7150.33  4.6156045E-01
   7150.67  4.6513846E-01
   7151.00  4.6863174E-01
   7151.33  4.7187773E-01
   7151.67  4.7478374E-01
   7152.00  4.7727221E-01
   7152.33  4.7923247E-01
   7152.67  4.8071325E-01
   7153.00  4.8173643E-01
   7153.33  4.8230648E-01
   7153.67  4.8254779E-01
   7154.00  4.8252609E-01
   7154.33  4.8228940E-01
   7154.67  4.8193122E-01
   7155.00  4.8151114E-01
   7155.33  4.8110020E-01
   7155.67  4.8076734E-01
   7156.00  4.8057071E-01
   7156.33  4.8059775E-01
   7156.67  4.8087609E-01
   7157.00  4.8143886E-01
   7157.33  4.8234523E-01
   7157.67  4.8355705E-01
   7158.00  4.8505778E-01
   7158.33  4.8684230E-01
   7158.67  4.8882715E-01
   7159.00  4.9095890E-01
   7159.33  4.9317882E-01
   7159.67  4.9540591E-01
   7160.00  4.9757961E-01
   7160.33  4.9961625E-01
   7160.67  5.0146647E-01
   7161.00  5.0308200E-01
   7161.33  5.0437820E-01
   7161.67  5.0534708E-01
   7162.00  5.0595894E-01
   7162.33  5.0614135E-01
   7162.67  5.0592802E-01
   7163.00  5.0531727E-01
   7163.33  5.0427431E-01
   7163.67  5.0287547E-01
   7164.00  5.0115963E-01
   7164.33  4.9915879E-01
   7164.67  4.9698384E-01
   7165.00  4.9470874E-01
   7165.33  4.9241746E-01
   7165.67  4.9019309E-01
   7166.00  4.8809812E-01
   7166.33  4.8621680E-01
   7166.67  4.8456967E-01
   7167.00  4.8318023E-01
   7167.33  4.8209224E-01
   7167.67  4.8126644E-01
   7168.00  4.8068764E-01
   7168.33  4.8035760E-01
   7168.67  4.8021725E-01
   7169.00  4.8023673E-01
   7169.33  4.8039668E-01
   7169.67  4.8064943E-01
   7170.00  4.8097129E-01
   7170.33  4.8134507E-01
   7170.67  4.8174569E-01
   7171.00  4.8215772E-01
   7171.33  4.8256037E-01
   7171.67  4.8292710E-01
   7172.00  4.8322523E-01
