    FDMNES
    energy     <xanes>
   7097.00  5.2504045E-03
   7097.33  5.3802437E-03
   7097.67  5.5162556E-03
   7098.00  5.6588731E-03
   7098.33  5.8095501E-03
   7098.67  5.9680148E-03
   7099.00  6.1348609E-03
   7099.33  6.3120050E-03
   7099.67  6.4991731E-03
   7100.00  6.6972012E-03
   7100.33  6.9086819E-03
   7100.67  7.1333707E-03
   7101.00  7.3724818E-03
   7101.33  7.6296310E-03
   7101.67  7.9046735E-03
   7102.00  8.1994370E-03
   7102.33  8.5191532E-03
   7102.67  8.8639302E-03
   7103.00  9.2366420E-03
   7103.33  9.6452030E-03
   7103.67  1.0090321E-02
   7104.00  1.0576762E-02
   7104.33  1.1117180E-02
   7104.67  1.1713703E-02
   7105.00  1.2374790E-02
   7105.33  1.3122138E-02
   7105.67  1.3961416E-02
   7106.00  1.4908987E-02
   7106.33  1.6005690E-02
   7106.67  1.7266792E-02
   7107.00  1.8727919E-02
   7107.33  2.0476496E-02
   7107.67  2.2557806E-02
   7108.00  2.5063768E-02
   7108.33  2.8220950E-02
   7108.67  3.2192330E-02
   7109.00  3.7287213E-02
   7109.33  4.4306467E-02
   7109.67  5.4082444E-02
   7110.00  6.8227170E-02
   7110.33  9.1296203E-02
   7110.67  1.2829474E-01
   7111.00  1.8293301E-01
   7111.33  2.5388827E-01
   7111.67  3.3145596E-01
   7112.00  3.9873474E-01
   7112.33  4.4423721E-01
   7112.67  4.7891268E-01
   7113.00  5.0103879E-01
   7113.33  4.8572334E-01
   7113.67  4.3382806E-01
   7114.00  3.6744992E-01
   7114.33  3.1454571E-01
   7114.67  2.8351839E-01
   7115.00  2.7222599E-01
   7115.33  2.7113727E-01
   7115.67  2.6524315E-01
   7116.00  2.5018605E-01
   7116.33  2.3052610E-01
   7116.67  2.1233099E-01
   7117.00  1.9728546E-01
   7117.33  1.8536554E-01
   7117.67  1.7496853E-01
   7118.00  1.6534214E-01
   7118.33  1.5669361E-01
   7118.67  1.4936850E-01
   7119.00  1.4353272E-01
   7119.33  1.3941451E-01
   7119.67  1.3680787E-01
   7120.00  1.3551352E-01
   7120.33  1.3488423E-01
   7120.67  1.3386706E-01
   7121.00  1.3216091E-01
   7121.33  1.3046641E-01
   7121.67  1.2978602E-01
   7122.00  1.3051373E-01
   7122.33  1.3277452E-01
   7122.67  1.3624341E-01
   7123.00  1.4087109E-01
   7123.33  1.4685833E-01
   7123.67  1.5419318E-01
   7124.00  1.6304993E-01
   7124.33  1.7384742E-01
   7124.67  1.8650132E-01
   7125.00  2.0116111E-01
   7125.33  2.1845811E-01
   7125.67  2.3817681E-01
   7126.00  2.5967401E-01
   7126.33  2.8250615E-01
   7126.67  3.0764321E-01
   7127.00  3.3570569E-01
   7127.33  3.6565918E-01
   7127.67  3.9525222E-01
   7128.00  4.2362651E-01
   7128.33  4.5191316E-01
   7128.67  4.8311497E-01
   7129.00  5.1998045E-01
   7129.33  5.6487744E-01
   7129.67  6.1581379E-01
   7130.00  6.7094150E-01
   7130.33  7.2887700E-01
   7130.67  7.8758363E-01
   7131.00  8.4477165E-01
   7131.33  8.9663467E-01
   7131.67  9.4066677E-01
   7132.00  9.7428421E-01
   7132.33  9.9329956E-01
   7132.67  9.9827704E-01
   7133.00  9.8991800E-01
   7133.33  9.6915777E-01
   7133.67  9.4039531E-01
   7134.00  9.0600358E-01
   7134.33  8.6758212E-01
   7134.67  8.2723115E-01
   7135.00  7.8653429E-01
   7135.33  7.4751832E-01
   7135.67  7.1110948E-01
   7136.00  6.7746685E-01
   7136.33  6.4647605E-01
   7136.67  6.1731244E-01
   7137.00  5.8974964E-01
   7137.33  5.6419178E-01
   7137.67  5.4102297E-01
   7138.00  5.2091666E-01
   7138.33  5.0499332E-01
   7138.67  4.9303981E-01
   7139.00  4.8484367E-01
   7139.33  4.8009715E-01
   7139.67  4.7749055E-01
   7140.00  4.7629384E-01
   7140.33  4.7606591E-01
   7140.67  4.7651768E-01
   7141.00  4.7769447E-01
   7141.33  4.7981895E-01
   7141.67  4.8284001E-01
   7142.00  4.8670571E-01
   7142.33  4.9132313E-01
   7142.67  4.9634010E-01
   7143.00  5.0149696E-01
   7143.33  5.0648417E-01
   7143.67  5.1107280E-01
   7144.00  5.1510054E-01
   7144.33  5.1836280E-01
   7144.67  5.2090775E-01
   7145.00  5.2276509E-01
   7145.33  5.2392831E-01
   7145.67  5.2456245E-01
   7146.00  5.2474484E-01
   7146.33  5.2450532E-01
   7146.67  5.2394409E-01
   7147.00  5.2308873E-01
   7147.33  5.2192819E-01
   7147.67  5.2053002E-01
   7148.00  5.1894459E-01
   7148.33  5.1726296E-01
   7148.67  5.1565855E-01
   7149.00  5.1432178E-01
   7149.33  5.1358731E-01
   7149.67  5.1367887E-01
   7150.00  5.1484313E-01
   7150.33  5.1750366E-01
   7150.67  5.2169882E-01
   7151.00  5.2754697E-01
   7151.33  5.3530707E-01
   7151.67  5.4468777E-01
   7152.00  5.5550588E-01
   7152.33  5.6754729E-01
   7152.67  5.8019966E-01
   7153.00  5.9298875E-01
   7153.33  6.0529509E-01
   7153.67  6.1666363E-01
   7154.00  6.2675172E-01
   7154.33  6.3511078E-01
   7154.67  6.4183049E-01
   7155.00  6.4692613E-01
   7155.33  6.5030839E-01
   7155.67  6.5231871E-01
   7156.00  6.5310138E-01
   7156.33  6.5269105E-01
   7156.67  6.5137739E-01
   7157.00  6.4928486E-01
   7157.33  6.4646509E-01
   7157.67  6.4311192E-01
   7158.00  6.3930476E-01
   7158.33  6.3506867E-01
   7158.67  6.3050353E-01
   7159.00  6.2564126E-01
   7159.33  6.2047604E-01
   7159.67  6.1506216E-01
   7160.00  6.0941400E-01
   7160.33  6.0351797E-01
   7160.67  5.9741583E-01
   7161.00  5.9112509E-01
   7161.33  5.8465055E-01
   7161.67  5.7803970E-01
   7162.00  5.7131584E-01
   7162.33  5.6449353E-01
   7162.67  5.5760662E-01
   7163.00  5.5067365E-01
   7163.33  5.4371265E-01
   7163.67  5.3674566E-01
   7164.00  5.2978687E-01
   7164.33  5.2285458E-01
   7164.67  5.1596002E-01
   7165.00  5.0911494E-01
   7165.33  5.0234198E-01
   7165.67  4.9564935E-01
   7166.00  4.8905327E-01
   7166.33  4.8259069E-01
   7166.67  4.7627160E-01
   7167.00  4.7011959E-01
   7167.33  4.6419171E-01
   7167.67  4.5849950E-01
   7168.00  4.5307184E-01
   7168.33  4.4797549E-01
   7168.67  4.4320328E-01
   7169.00  4.3877976E-01
   7169.33  4.3477481E-01
   7169.67  4.3115779E-01
   7170.00  4.2793580E-01
   7170.33  4.2515811E-01
   7170.67  4.2276626E-01
   7171.00  4.2074541E-01
   7171.33  4.1911520E-01
   7171.67  4.1780446E-01
   7172.00  4.1678617E-01
