    FDMNES
    energy     <xanes>
   7097.00  5.2843552E-03
   7097.33  5.4125877E-03
   7097.67  5.5467484E-03
   7098.00  5.6872405E-03
   7098.33  5.8354386E-03
   7098.67  5.9910636E-03
   7099.00  6.1546634E-03
   7099.33  6.3280336E-03
   7099.67  6.5108861E-03
   7100.00  6.7039841E-03
   7100.33  6.9097316E-03
   7100.67  7.1278558E-03
   7101.00  7.3594518E-03
   7101.33  7.6078326E-03
   7101.67  7.8727956E-03
   7102.00  8.1559672E-03
   7102.33  8.4620738E-03
   7102.67  8.7911037E-03
   7103.00  9.1455745E-03
   7103.33  9.5325183E-03
   7103.67  9.9523857E-03
   7104.00  1.0409277E-02
   7104.33  1.0914212E-02
   7104.67  1.1468744E-02
   7105.00  1.2079986E-02
   7105.33  1.2766399E-02
   7105.67  1.3532242E-02
   7106.00  1.4390925E-02
   7106.33  1.5376206E-02
   7106.67  1.6499565E-02
   7107.00  1.7789278E-02
   7107.33  1.9315089E-02
   7107.67  2.1110490E-02
   7108.00  2.3245632E-02
   7108.33  2.5893421E-02
   7108.67  2.9170894E-02
   7109.00  3.3303067E-02
   7109.33  3.8868813E-02
   7109.67  4.6442578E-02
   7110.00  5.7137219E-02
   7110.33  7.4085043E-02
   7110.67  1.0079826E-01
   7111.00  1.4037033E-01
   7111.33  1.9180221E-01
   7111.67  2.4698756E-01
   7112.00  2.9690811E-01
   7112.33  3.4759407E-01
   7112.67  4.1491114E-01
   7113.00  4.8097235E-01
   7113.33  5.0511875E-01
   7113.67  4.9333917E-01
   7114.00  4.6644105E-01
   7114.33  4.3304661E-01
   7114.67  3.9015248E-01
   7115.00  3.4318268E-01
   7115.33  3.0498750E-01
   7115.67  2.7907834E-01
   7116.00  2.6366662E-01
   7116.33  2.5358247E-01
   7116.67  2.4183169E-01
   7117.00  2.2670124E-01
   7117.33  2.1072109E-01
   7117.67  1.9671225E-01
   7118.00  1.8529410E-01
   7118.33  1.7629750E-01
   7118.67  1.6880517E-01
   7119.00  1.6237319E-01
   7119.33  1.5667496E-01
   7119.67  1.5137125E-01
   7120.00  1.4646226E-01
   7120.33  1.4230342E-01
   7120.67  1.3919154E-01
   7121.00  1.3747330E-01
   7121.33  1.3773010E-01
   7121.67  1.3975159E-01
   7122.00  1.4323763E-01
   7122.33  1.4795858E-01
   7122.67  1.5369380E-01
   7123.00  1.6066440E-01
   7123.33  1.6964861E-01
   7123.67  1.8124756E-01
   7124.00  1.9634602E-01
   7124.33  2.1664819E-01
   7124.67  2.4251088E-01
   7125.00  2.7412870E-01
   7125.33  3.1039981E-01
   7125.67  3.4594004E-01
   7126.00  3.7549505E-01
   7126.33  3.9600428E-01
   7126.67  4.1170197E-01
   7127.00  4.2634905E-01
   7127.33  4.4291311E-01
   7127.67  4.6207602E-01
   7128.00  4.8370793E-01
   7128.33  5.0733708E-01
   7128.67  5.3169162E-01
   7129.00  5.5600127E-01
   7129.33  5.7995189E-01
   7129.67  6.0387220E-01
   7130.00  6.2823308E-01
   7130.33  6.5370736E-01
   7130.67  6.8052171E-01
   7131.00  7.0872916E-01
   7131.33  7.3829999E-01
   7131.67  7.6890633E-01
   7132.00  8.0067146E-01
   7132.33  8.3433160E-01
   7132.67  8.6994034E-01
   7133.00  9.0625509E-01
   7133.33  9.3779425E-01
   7133.67  9.5667711E-01
   7134.00  9.5614208E-01
   7134.33  9.3123578E-01
   7134.67  8.8936293E-01
   7135.00  8.3722391E-01
   7135.33  7.8145034E-01
   7135.67  7.2699786E-01
   7136.00  6.7588631E-01
   7136.33  6.2960166E-01
   7136.67  5.8781201E-01
   7137.00  5.5050432E-01
   7137.33  5.1823333E-01
   7137.67  4.9050255E-01
   7138.00  4.6738519E-01
   7138.33  4.4948093E-01
   7138.67  4.3609126E-01
   7139.00  4.2698005E-01
   7139.33  4.2221209E-01
   7139.67  4.2078200E-01
   7140.00  4.2220981E-01
   7140.33  4.2624058E-01
   7140.67  4.3209120E-01
   7141.00  4.3939219E-01
   7141.33  4.4791360E-01
   7141.67  4.5721375E-01
   7142.00  4.6706395E-01
   7142.33  4.7725828E-01
   7142.67  4.8752171E-01
   7143.00  4.9764730E-01
   7143.33  5.0733802E-01
   7143.67  5.1639076E-01
   7144.00  5.2459845E-01
   7144.33  5.3161903E-01
   7144.67  5.3743369E-01
   7145.00  5.4198091E-01
   7145.33  5.4513041E-01
   7145.67  5.4717133E-01
   7146.00  5.4829674E-01
   7146.33  5.4870999E-01
   7146.67  5.4878774E-01
   7147.00  5.4878152E-01
   7147.33  5.4899373E-01
   7147.67  5.4964239E-01
   7148.00  5.5089362E-01
   7148.33  5.5297512E-01
   7148.67  5.5585950E-01
   7149.00  5.5953917E-01
   7149.33  5.6402907E-01
   7149.67  5.6910883E-01
   7150.00  5.7462535E-01
   7150.33  5.8039493E-01
   7150.67  5.8616754E-01
   7151.00  5.9176198E-01
   7151.33  5.9694781E-01
   7151.67  6.0162588E-01
   7152.00  6.0571112E-01
   7152.33  6.0907075E-01
   7152.67  6.1177912E-01
   7153.00  6.1386077E-01
   7153.33  6.1529773E-01
   7153.67  6.1623125E-01
   7154.00  6.1672672E-01
   7154.33  6.1681568E-01
   7154.67  6.1661506E-01
   7155.00  6.1617907E-01
   7155.33  6.1553759E-01
   7155.67  6.1475467E-01
   7156.00  6.1385653E-01
   7156.33  6.1285204E-01
   7156.67  6.1176459E-01
   7157.00  6.1059831E-01
   7157.33  6.0934273E-01
   7157.67  6.0800240E-01
   7158.00  6.0656927E-01
   7158.33  6.0501731E-01
   7158.67  6.0334415E-01
   7159.00  6.0153506E-01
   7159.33  5.9955277E-01
   7159.67  5.9739833E-01
   7160.00  5.9505678E-01
   7160.33  5.9248749E-01
   7160.67  5.8970455E-01
   7161.00  5.8670269E-01
   7161.33  5.8345410E-01
   7161.67  5.7999268E-01
   7162.00  5.7632922E-01
   7162.33  5.7245692E-01
   7162.67  5.6841749E-01
   7163.00  5.6423030E-01
   7163.33  5.5990573E-01
   7163.67  5.5548311E-01
   7164.00  5.5098040E-01
   7164.33  5.4640516E-01
   7164.67  5.4177479E-01
   7165.00  5.3709360E-01
   7165.33  5.3235618E-01
   7165.67  5.2756522E-01
   7166.00  5.2271589E-01
   7166.33  5.1779365E-01
   7166.67  5.1279928E-01
   7167.00  5.0772657E-01
   7167.33  5.0256051E-01
   7167.67  4.9731198E-01
   7168.00  4.9198541E-01
   7168.33  4.8658255E-01
   7168.67  4.8113050E-01
   7169.00  4.7564891E-01
   7169.33  4.7016401E-01
   7169.67  4.6470968E-01
   7170.00  4.5932062E-01
   7170.33  4.5405870E-01
   7170.67  4.4896903E-01
   7171.00  4.4411751E-01
   7171.33  4.3965791E-01
   7171.67  4.3572468E-01
   7172.00  4.3253485E-01
