    FDMNES
    energy     <xanes>
   7097.00  4.9990762E-03
   7097.33  5.1168463E-03
   7097.67  5.2398980E-03
   7098.00  5.3685857E-03
   7098.33  5.5041267E-03
   7098.67  5.6462672E-03
   7099.00  5.7954898E-03
   7099.33  5.9533844E-03
   7099.67  6.1196917E-03
   7100.00  6.2950876E-03
   7100.33  6.4817046E-03
   7100.67  6.6793036E-03
   7101.00  6.8888617E-03
   7101.33  7.1133327E-03
   7101.67  7.3525546E-03
   7102.00  7.6079966E-03
   7102.33  7.8839112E-03
   7102.67  8.1803416E-03
   7103.00  8.4996033E-03
   7103.33  8.8481189E-03
   7103.67  9.2264323E-03
   7104.00  9.6384107E-03
   7104.33  1.0094357E-02
   7104.67  1.0596036E-02
   7105.00  1.1150402E-02
   7105.33  1.1775324E-02
   7105.67  1.2475693E-02
   7106.00  1.3265291E-02
   7106.33  1.4178517E-02
   7106.67  1.5229109E-02
   7107.00  1.6448257E-02
   7107.33  1.7912647E-02
   7107.67  1.9665337E-02
   7108.00  2.1791981E-02
   7108.33  2.4505587E-02
   7108.67  2.7974483E-02
   7109.00  3.2517046E-02
   7109.33  3.8977963E-02
   7109.67  4.8328858E-02
   7110.00  6.2481815E-02
   7110.33  8.6941195E-02
   7110.67  1.2723935E-01
   7111.00  1.8265318E-01
   7111.33  2.3080111E-01
   7111.67  2.6080969E-01
   7112.00  2.7572808E-01
   7112.33  2.7605259E-01
   7112.67  2.7249532E-01
   7113.00  2.7573729E-01
   7113.33  2.9235510E-01
   7113.67  3.1293818E-01
   7114.00  3.2383640E-01
   7114.33  3.0249845E-01
   7114.67  2.5127692E-01
   7115.00  1.9277897E-01
   7115.33  1.5010383E-01
   7115.67  1.2392365E-01
   7116.00  1.1058877E-01
   7116.33  1.0809736E-01
   7116.67  1.1429544E-01
   7117.00  1.2953207E-01
   7117.33  1.5387457E-01
   7117.67  1.7863827E-01
   7118.00  1.9280448E-01
   7118.33  1.9057565E-01
   7118.67  1.8172716E-01
   7119.00  1.7355784E-01
   7119.33  1.7051277E-01
   7119.67  1.7270364E-01
   7120.00  1.8013802E-01
   7120.33  1.9315598E-01
   7120.67  2.0987047E-01
   7121.00  2.2863304E-01
   7121.33  2.4837585E-01
   7121.67  2.6913725E-01
   7122.00  2.9177110E-01
   7122.33  3.1757121E-01
   7122.67  3.4670111E-01
   7123.00  3.8001626E-01
   7123.33  4.2082455E-01
   7123.67  4.7135250E-01
   7124.00  5.3217268E-01
   7124.33  5.9876196E-01
   7124.67  6.5884900E-01
   7125.00  7.0083557E-01
   7125.33  7.1191512E-01
   7125.67  6.9606984E-01
   7126.00  6.6283816E-01
   7126.33  6.2597599E-01
   7126.67  5.9498328E-01
   7127.00  5.7260624E-01
   7127.33  5.5939970E-01
   7127.67  5.5198968E-01
   7128.00  5.4807754E-01
   7128.33  5.4534003E-01
   7128.67  5.4169452E-01
   7129.00  5.3640622E-01
   7129.33  5.3009271E-01
   7129.67  5.2468045E-01
   7130.00  5.2149623E-01
   7130.33  5.2141901E-01
   7130.67  5.2383683E-01
   7131.00  5.2832004E-01
   7131.33  5.3454026E-01
   7131.67  5.4169885E-01
   7132.00  5.4916562E-01
   7132.33  5.5608271E-01
   7132.67  5.6175775E-01
   7133.00  5.6567865E-01
   7133.33  5.6735113E-01
   7133.67  5.6731047E-01
   7134.00  5.6612088E-01
   7134.33  5.6442402E-01
   7134.67  5.6284837E-01
   7135.00  5.6173548E-01
   7135.33  5.6127916E-01
   7135.67  5.6129222E-01
   7136.00  5.6165778E-01
   7136.33  5.6242467E-01
   7136.67  5.6372701E-01
   7137.00  5.6576413E-01
   7137.33  5.6873784E-01
   7137.67  5.7236568E-01
   7138.00  5.7628520E-01
   7138.33  5.7995513E-01
   7138.67  5.8298430E-01
   7139.00  5.8517166E-01
   7139.33  5.8631837E-01
   7139.67  5.8652021E-01
   7140.00  5.8575582E-01
   7140.33  5.8386586E-01
   7140.67  5.8095345E-01
   7141.00  5.7704937E-01
   7141.33  5.7218690E-01
   7141.67  5.6672458E-01
   7142.00  5.6094343E-01
   7142.33  5.5520838E-01
   7142.67  5.4986669E-01
   7143.00  5.4518831E-01
   7143.33  5.4154548E-01
   7143.67  5.3901081E-01
   7144.00  5.3769076E-01
   7144.33  5.3781085E-01
   7144.67  5.3921902E-01
   7145.00  5.4188120E-01
   7145.33  5.4586542E-01
   7145.67  5.5091186E-01
   7146.00  5.5689814E-01
   7146.33  5.6373944E-01
   7146.67  5.7110085E-01
   7147.00  5.7871673E-01
   7147.33  5.8619981E-01
   7147.67  5.9315614E-01
   7148.00  5.9926428E-01
   7148.33  6.0411487E-01
   7148.67  6.0767459E-01
   7149.00  6.0985491E-01
   7149.33  6.1044187E-01
   7149.67  6.0964238E-01
   7150.00  6.0752658E-01
   7150.33  6.0406534E-01
   7150.67  5.9955666E-01
   7151.00  5.9414036E-01
   7151.33  5.8788864E-01
   7151.67  5.8104953E-01
   7152.00  5.7374012E-01
   7152.33  5.6602765E-01
   7152.67  5.5804141E-01
   7153.00  5.4983253E-01
   7153.33  5.4141477E-01
   7153.67  5.3282925E-01
   7154.00  5.2408102E-01
   7154.33  5.1514788E-01
   7154.67  5.0604652E-01
   7155.00  4.9677662E-01
   7155.33  4.8732653E-01
   7155.67  4.7773983E-01
   7156.00  4.6804996E-01
   7156.33  4.5830347E-01
   7156.67  4.4857034E-01
   7157.00  4.3890866E-01
   7157.33  4.2940292E-01
   7157.67  4.2010199E-01
   7158.00  4.1106029E-01
   7158.33  4.0237541E-01
   7158.67  3.9406092E-01
   7159.00  3.8615880E-01
   7159.33  3.7877124E-01
   7159.67  3.7188015E-01
   7160.00  3.6551156E-01
   7160.33  3.5975262E-01
   7160.67  3.5454246E-01
   7161.00  3.4987909E-01
   7161.33  3.4582154E-01
   7161.67  3.4228748E-01
   7162.00  3.3925957E-01
   7162.33  3.3677636E-01
   7162.67  3.3475747E-01
   7163.00  3.3318956E-01
   7163.33  3.3211730E-01
   7163.67  3.3148051E-01
   7164.00  3.3127871E-01
   7164.33  3.3156952E-01
   7164.67  3.3230290E-01
   7165.00  3.3348237E-01
   7165.33  3.3516390E-01
   7165.67  3.3728513E-01
   7166.00  3.3983541E-01
   7166.33  3.4284879E-01
   7166.67  3.4625103E-01
   7167.00  3.5001827E-01
   7167.33  3.5415992E-01
   7167.67  3.5859781E-01
   7168.00  3.6329711E-01
   7168.33  3.6824108E-01
   7168.67  3.7335533E-01
   7169.00  3.7859663E-01
   7169.33  3.8392107E-01
   7169.67  3.8926307E-01
   7170.00  3.9457120E-01
   7170.33  3.9976909E-01
   7170.67  4.0479690E-01
   7171.00  4.0958073E-01
   7171.33  4.1396013E-01
   7171.67  4.1780119E-01
   7172.00  4.2089002E-01
