    FDMNES
    energy     <xanes>
   7097.00  5.1617200E-03
   7097.33  5.2808676E-03
   7097.67  5.4052883E-03
   7098.00  5.5353283E-03
   7098.33  5.6721903E-03
   7098.67  5.8156097E-03
   7099.00  5.9660534E-03
   7099.33  6.1250788E-03
   7099.67  6.2924085E-03
   7100.00  6.4686876E-03
   7100.33  6.6559815E-03
   7100.67  6.8540180E-03
   7101.00  7.0637141E-03
   7101.33  7.2878870E-03
   7101.67  7.5263108E-03
   7102.00  7.7803337E-03
   7102.33  8.0539293E-03
   7102.67  8.3470099E-03
   7103.00  8.6616391E-03
   7103.33  9.0036554E-03
   7103.67  9.3733159E-03
   7104.00  9.7739404E-03
   7104.33  1.0214556E-02
   7104.67  1.0696248E-02
   7105.00  1.1224706E-02
   7105.33  1.1814827E-02
   7105.67  1.2469754E-02
   7106.00  1.3200067E-02
   7106.33  1.4032604E-02
   7106.67  1.4976007E-02
   7107.00  1.6052342E-02
   7107.33  1.7316327E-02
   7107.67  1.8793520E-02
   7108.00  2.0538409E-02
   7108.33  2.2685928E-02
   7108.67  2.5327288E-02
   7109.00  2.8639545E-02
   7109.33  3.3082335E-02
   7109.67  3.9124255E-02
   7110.00  4.7683140E-02
   7110.33  6.1364224E-02
   7110.67  8.2938211E-02
   7111.00  1.1355317E-01
   7111.33  1.4568746E-01
   7111.67  1.7272037E-01
   7112.00  2.0145534E-01
   7112.33  2.4638070E-01
   7112.67  3.0005337E-01
   7113.00  3.3961575E-01
   7113.33  3.6230272E-01
   7113.67  4.0233117E-01
   7114.00  4.6675823E-01
   7114.33  5.1250918E-01
   7114.67  4.9905625E-01
   7115.00  4.3759577E-01
   7115.33  3.6854078E-01
   7115.67  3.1562035E-01
   7116.00  2.8131163E-01
   7116.33  2.6339180E-01
   7116.67  2.5342273E-01
   7117.00  2.4428017E-01
   7117.33  2.2818690E-01
   7117.67  2.0575323E-01
   7118.00  1.8219890E-01
   7118.33  1.6328361E-01
   7118.67  1.4977764E-01
   7119.00  1.4091597E-01
   7119.33  1.3561697E-01
   7119.67  1.3205560E-01
   7120.00  1.2932640E-01
   7120.33  1.2693462E-01
   7120.67  1.2476325E-01
   7121.00  1.2292005E-01
   7121.33  1.2166341E-01
   7121.67  1.2122561E-01
   7122.00  1.2199095E-01
   7122.33  1.2456206E-01
   7122.67  1.2883179E-01
   7123.00  1.3468951E-01
   7123.33  1.4225479E-01
   7123.67  1.5148041E-01
   7124.00  1.6264319E-01
   7124.33  1.7644939E-01
   7124.67  1.9297411E-01
   7125.00  2.1234351E-01
   7125.33  2.3459812E-01
   7125.67  2.5859600E-01
   7126.00  2.8336852E-01
   7126.33  3.0795083E-01
   7126.67  3.3204492E-01
   7127.00  3.5587633E-01
   7127.33  3.7988910E-01
   7127.67  4.0410262E-01
   7128.00  4.2803810E-01
   7128.33  4.5079494E-01
   7128.67  4.7212259E-01
   7129.00  4.9246229E-01
   7129.33  5.1337986E-01
   7129.67  5.3678411E-01
   7130.00  5.6417287E-01
   7130.33  5.9743338E-01
   7130.67  6.3636230E-01
   7131.00  6.8056829E-01
   7131.33  7.2914087E-01
   7131.67  7.7936033E-01
   7132.00  8.2898775E-01
   7132.33  8.7531307E-01
   7132.67  9.1721882E-01
   7133.00  9.5424572E-01
   7133.33  9.8582198E-01
   7133.67  1.0124624E+00
   7134.00  1.0334552E+00
   7134.33  1.0461442E+00
   7134.67  1.0492774E+00
   7135.00  1.0414120E+00
   7135.33  1.0207699E+00
   7135.67  9.9005221E-01
   7136.00  9.5134060E-01
   7136.33  9.0683884E-01
   7136.67  8.5985486E-01
   7137.00  8.1232919E-01
   7137.33  7.6629679E-01
   7137.67  7.2308761E-01
   7138.00  6.8370798E-01
   7138.33  6.4957229E-01
   7138.67  6.2053808E-01
   7139.00  5.9667482E-01
   7139.33  5.7836487E-01
   7139.67  5.6449883E-01
   7140.00  5.5452695E-01
   7140.33  5.4815403E-01
   7140.67  5.4431121E-01
   7141.00  5.4249021E-01
   7141.33  5.4238217E-01
   7141.67  5.4338800E-01
   7142.00  5.4521122E-01
   7142.33  5.4760393E-01
   7142.67  5.5019802E-01
   7143.00  5.5273522E-01
   7143.33  5.5489841E-01
   7143.67  5.5649775E-01
   7144.00  5.5737896E-01
   7144.33  5.5731496E-01
   7144.67  5.5635162E-01
   7145.00  5.5448499E-01
   7145.33  5.5164868E-01
   7145.67  5.4803012E-01
   7146.00  5.4371942E-01
   7146.33  5.3876562E-01
   7146.67  5.3336872E-01
   7147.00  5.2763986E-01
   7147.33  5.2167845E-01
   7147.67  5.1562746E-01
   7148.00  5.0957910E-01
   7148.33  5.0364207E-01
   7148.67  4.9788862E-01
   7149.00  4.9238360E-01
   7149.33  4.8723719E-01
   7149.67  4.8247712E-01
   7150.00  4.7816040E-01
   7150.33  4.7441809E-01
   7150.67  4.7125584E-01
   7151.00  4.6873335E-01
   7151.33  4.6700212E-01
   7151.67  4.6602443E-01
   7152.00  4.6582760E-01
   7152.33  4.6651815E-01
   7152.67  4.6797624E-01
   7153.00  4.7016026E-01
   7153.33  4.7307890E-01
   7153.67  4.7655556E-01
   7154.00  4.8049582E-01
   7154.33  4.8482421E-01
   7154.67  4.8937472E-01
   7155.00  4.9404157E-01
   7155.33  4.9870403E-01
   7155.67  5.0324834E-01
   7156.00  5.0758297E-01
   7156.33  5.1157227E-01
   7156.67  5.1516733E-01
   7157.00  5.1830364E-01
   7157.33  5.2085967E-01
   7157.67  5.2286513E-01
   7158.00  5.2430886E-01
   7158.33  5.2513065E-01
   7158.67  5.2543101E-01
   7159.00  5.2525288E-01
   7159.33  5.2461015E-01
   7159.67  5.2363462E-01
   7160.00  5.2240292E-01
   7160.33  5.2097959E-01
   7160.67  5.1946457E-01
   7161.00  5.1791958E-01
   7161.33  5.1641214E-01
   7161.67  5.1498820E-01
   7162.00  5.1367943E-01
   7162.33  5.1252888E-01
   7162.67  5.1153353E-01
   7163.00  5.1069827E-01
   7163.33  5.1004182E-01
   7163.67  5.0953487E-01
   7164.00  5.0915673E-01
   7164.33  5.0888597E-01
   7164.67  5.0868305E-01
   7165.00  5.0852574E-01
   7165.33  5.0838799E-01
   7165.67  5.0823728E-01
   7166.00  5.0804658E-01
   7166.33  5.0777565E-01
   7166.67  5.0740327E-01
   7167.00  5.0690439E-01
   7167.33  5.0623234E-01
   7167.67  5.0538257E-01
   7168.00  5.0433858E-01
   7168.33  5.0306033E-01
   7168.67  5.0156633E-01
   7169.00  4.9985672E-01
   7169.33  4.9791469E-01
   7169.67  4.9578534E-01
   7170.00  4.9349446E-01
   7170.33  4.9106840E-01
   7170.67  4.8857632E-01
   7171.00  4.8607920E-01
   7171.33  4.8368382E-01
   7171.67  4.8151998E-01
   7172.00  4.7975059E-01
