    FDMNES
    energy     <xanes>
   7097.00  4.9964259E-03
   7097.33  5.1090077E-03
   7097.67  5.2264548E-03
   7098.00  5.3490824E-03
   7098.33  5.4779927E-03
   7098.67  5.6129363E-03
   7099.00  5.7543379E-03
   7099.33  5.9036225E-03
   7099.67  6.0605287E-03
   7100.00  6.2256434E-03
   7100.33  6.4008543E-03
   7100.67  6.5859056E-03
   7101.00  6.7816329E-03
   7101.33  6.9906104E-03
   7101.67  7.2126278E-03
   7102.00  7.4489172E-03
   7102.33  7.7031148E-03
   7102.67  7.9751446E-03
   7103.00  8.2669025E-03
   7103.33  8.5837510E-03
   7103.67  8.9259502E-03
   7104.00  9.2965758E-03
   7104.33  9.7039746E-03
   7104.67  1.0149225E-02
   7105.00  1.0637659E-02
   7105.33  1.1183210E-02
   7105.67  1.1789010E-02
   7106.00  1.2465158E-02
   7106.33  1.3237195E-02
   7106.67  1.4113869E-02
   7107.00  1.5116783E-02
   7107.33  1.6299418E-02
   7107.67  1.7688307E-02
   7108.00  1.9338769E-02
   7108.33  2.1388095E-02
   7108.67  2.3934663E-02
   7109.00  2.7167751E-02
   7109.33  3.1583474E-02
   7109.67  3.7714611E-02
   7110.00  4.6607068E-02
   7110.33  6.1228989E-02
   7110.67  8.4458558E-02
   7111.00  1.1625865E-01
   7111.33  1.4808146E-01
   7111.67  1.7334571E-01
   7112.00  1.9630868E-01
   7112.33  2.2656250E-01
   7112.67  2.5832921E-01
   7113.00  2.9167279E-01
   7113.33  3.3526119E-01
   7113.67  3.7001891E-01
   7114.00  3.7554381E-01
   7114.33  3.5131763E-01
   7114.67  3.1561324E-01
   7115.00  2.8126884E-01
   7115.33  2.5666704E-01
   7115.67  2.4049396E-01
   7116.00  2.3063221E-01
   7116.33  2.2592545E-01
   7116.67  2.2349090E-01
   7117.00  2.1928752E-01
   7117.33  2.0899232E-01
   7117.67  1.9539911E-01
   7118.00  1.8255802E-01
   7118.33  1.7357391E-01
   7118.67  1.6820159E-01
   7119.00  1.6540795E-01
   7119.33  1.6329288E-01
   7119.67  1.6021199E-01
   7120.00  1.5612046E-01
   7120.33  1.5193623E-01
   7120.67  1.4857589E-01
   7121.00  1.4659915E-01
   7121.33  1.4687076E-01
   7121.67  1.4974947E-01
   7122.00  1.5556557E-01
   7122.33  1.6469603E-01
   7122.67  1.7655892E-01
   7123.00  1.9101086E-01
   7123.33  2.0818926E-01
   7123.67  2.2734036E-01
   7124.00  2.4769460E-01
   7124.33  2.6794543E-01
   7124.67  2.8665835E-01
   7125.00  3.0279322E-01
   7125.33  3.1535926E-01
   7125.67  3.2505984E-01
   7126.00  3.3288314E-01
   7126.33  3.4061506E-01
   7126.67  3.5041474E-01
   7127.00  3.6411794E-01
   7127.33  3.8425591E-01
   7127.67  4.1133365E-01
   7128.00  4.4592922E-01
   7128.33  4.8940392E-01
   7128.67  5.4083022E-01
   7129.00  5.9941392E-01
   7129.33  6.6243939E-01
   7129.67  7.2386735E-01
   7130.00  7.7954057E-01
   7130.33  8.2657858E-01
   7130.67  8.6597649E-01
   7131.00  8.9797388E-01
   7131.33  9.2153639E-01
   7131.67  9.3743330E-01
   7132.00  9.4600060E-01
   7132.33  9.4772944E-01
   7132.67  9.4516623E-01
   7133.00  9.3972857E-01
   7133.33  9.3222352E-01
   7133.67  9.2308528E-01
   7134.00  9.1189517E-01
   7134.33  8.9743250E-01
   7134.67  8.7932009E-01
   7135.00  8.5737364E-01
   7135.33  8.3155810E-01
   7135.67  8.0309574E-01
   7136.00  7.7273749E-01
   7136.33  7.4115088E-01
   7136.67  7.0918458E-01
   7137.00  6.7740477E-01
   7137.33  6.4655241E-01
   7137.67  6.1714012E-01
   7138.00  5.8964907E-01
   7138.33  5.6486197E-01
   7138.67  5.4286281E-01
   7139.00  5.2386747E-01
   7139.33  5.0833581E-01
   7139.67  4.9576254E-01
   7140.00  4.8591535E-01
   7140.33  4.7872633E-01
   7140.67  4.7350283E-01
   7141.00  4.6991638E-01
   7141.33  4.6778118E-01
   7141.67  4.6662947E-01
   7142.00  4.6622478E-01
   7142.33  4.6637738E-01
   7142.67  4.6680048E-01
   7143.00  4.6732866E-01
   7143.33  4.6780527E-01
   7143.67  4.6813806E-01
   7144.00  4.6828426E-01
   7144.33  4.6819503E-01
   7144.67  4.6788482E-01
   7145.00  4.6735872E-01
   7145.33  4.6661887E-01
   7145.67  4.6572905E-01
   7146.00  4.6473034E-01
   7146.33  4.6366922E-01
   7146.67  4.6261100E-01
   7147.00  4.6160927E-01
   7147.33  4.6074544E-01
   7147.67  4.6007312E-01
   7148.00  4.5965222E-01
   7148.33  4.5959186E-01
   7148.67  4.5991879E-01
   7149.00  4.6068663E-01
   7149.33  4.6200818E-01
   7149.67  4.6386044E-01
   7150.00  4.6627224E-01
   7150.33  4.6934022E-01
   7150.67  4.7299808E-01
   7151.00  4.7723390E-01
   7151.33  4.8207466E-01
   7151.67  4.8737723E-01
   7152.00  4.9304556E-01
   7152.33  4.9896206E-01
   7152.67  5.0492582E-01
   7153.00  5.1077633E-01
   7153.33  5.1629422E-01
   7153.67  5.2136006E-01
   7154.00  5.2587575E-01
   7154.33  5.2970475E-01
   7154.67  5.3292273E-01
   7155.00  5.3557061E-01
   7155.33  5.3767075E-01
   7155.67  5.3938907E-01
   7156.00  5.4082082E-01
   7156.33  5.4205005E-01
   7156.67  5.4319411E-01
   7157.00  5.4431999E-01
   7157.33  5.4549102E-01
   7157.67  5.4673939E-01
   7158.00  5.4808104E-01
   7158.33  5.4952966E-01
   7158.67  5.5105935E-01
   7159.00  5.5264713E-01
   7159.33  5.5425626E-01
   7159.67  5.5583467E-01
   7160.00  5.5733518E-01
   7160.33  5.5868444E-01
   7160.67  5.5984414E-01
   7161.00  5.6076997E-01
   7161.33  5.6137811E-01
   7161.67  5.6165979E-01
   7162.00  5.6158381E-01
   7162.33  5.6107492E-01
   7162.67  5.6016162E-01
   7163.00  5.5883489E-01
   7163.33  5.5704013E-01
   7163.67  5.5483605E-01
   7164.00  5.5224138E-01
   7164.33  5.4923743E-01
   7164.67  5.4589765E-01
   7165.00  5.4224996E-01
   7165.33  5.3829834E-01
   7165.67  5.3411866E-01
   7166.00  5.2974930E-01
   7166.33  5.2521925E-01
   7166.67  5.2059587E-01
   7167.00  5.1592339E-01
   7167.33  5.1125387E-01
   7167.67  5.0663880E-01
   7168.00  5.0212311E-01
   7168.33  4.9777736E-01
   7168.67  4.9363188E-01
   7169.00  4.8972502E-01
   7169.33  4.8612947E-01
   7169.67  4.8284128E-01
   7170.00  4.7988014E-01
   7170.33  4.7730145E-01
   7170.67  4.7506426E-01
   7171.00  4.7316124E-01
   7171.33  4.7161571E-01
   7171.67  4.7036994E-01
   7172.00  4.6940959E-01
