    FDMNES
    energy     <xanes>
   7097.00  4.9210411E-03
   7097.33  5.0391249E-03
   7097.67  5.1626209E-03
   7098.00  5.2918978E-03
   7098.33  5.4282125E-03
   7098.67  5.5713116E-03
   7099.00  5.7216978E-03
   7099.33  5.8810155E-03
   7099.67  6.0490050E-03
   7100.00  6.2263691E-03
   7100.33  6.4153145E-03
   7100.67  6.6155996E-03
   7101.00  6.8282365E-03
   7101.33  7.0562767E-03
   7101.67  7.2995500E-03
   7102.00  7.5595668E-03
   7102.33  7.8406999E-03
   7102.67  8.1429682E-03
   7103.00  8.4687240E-03
   7103.33  8.8245098E-03
   7103.67  9.2107991E-03
   7104.00  9.6314497E-03
   7104.33  1.0096789E-02
   7104.67  1.0608371E-02
   7105.00  1.1172946E-02
   7105.33  1.1807963E-02
   7105.67  1.2517643E-02
   7106.00  1.3314834E-02
   7106.33  1.4231782E-02
   7106.67  1.5279843E-02
   7107.00  1.6486416E-02
   7107.33  1.7918932E-02
   7107.67  1.9610624E-02
   7108.00  2.1630267E-02
   7108.33  2.4147197E-02
   7108.67  2.7277946E-02
   7109.00  3.1245207E-02
   7109.33  3.6621360E-02
   7109.67  4.3977105E-02
   7110.00  5.4415453E-02
   7110.33  7.1065976E-02
   7110.67  9.7760537E-02
   7111.00  1.3897158E-01
   7111.33  1.9419957E-01
   7111.67  2.4595619E-01
   7112.00  2.8471216E-01
   7112.33  3.3044193E-01
   7112.67  4.0211134E-01
   7113.00  4.8509691E-01
   7113.33  5.2013169E-01
   7113.67  4.7442370E-01
   7114.00  3.7397551E-01
   7114.33  2.8562699E-01
   7114.67  2.2741664E-01
   7115.00  1.9782590E-01
   7115.33  1.9467008E-01
   7115.67  2.0728958E-01
   7116.00  2.2326363E-01
   7116.33  2.3562930E-01
   7116.67  2.4317002E-01
   7117.00  2.2618917E-01
   7117.33  1.8605757E-01
   7117.67  1.5142587E-01
   7118.00  1.2881109E-01
   7118.33  1.1667827E-01
   7118.67  1.1014966E-01
   7119.00  1.0706884E-01
   7119.33  1.0650931E-01
   7119.67  1.0765612E-01
   7120.00  1.0991040E-01
   7120.33  1.1274070E-01
   7120.67  1.1605268E-01
   7121.00  1.2012545E-01
   7121.33  1.2501144E-01
   7121.67  1.3009904E-01
   7122.00  1.3516092E-01
   7122.33  1.4141151E-01
   7122.67  1.5124636E-01
   7123.00  1.6613901E-01
   7123.33  1.8648270E-01
   7123.67  2.1038867E-01
   7124.00  2.3657023E-01
   7124.33  2.6414481E-01
   7124.67  2.9300179E-01
   7125.00  3.2386932E-01
   7125.33  3.5760959E-01
   7125.67  3.9280187E-01
   7126.00  4.2666270E-01
   7126.33  4.5373446E-01
   7126.67  4.7070616E-01
   7127.00  4.7656190E-01
   7127.33  4.7254212E-01
   7127.67  4.6416888E-01
   7128.00  4.5491860E-01
   7128.33  4.4769463E-01
   7128.67  4.4383969E-01
   7129.00  4.4386392E-01
   7129.33  4.4764750E-01
   7129.67  4.5335360E-01
   7130.00  4.5973663E-01
   7130.33  4.6608588E-01
   7130.67  4.7274647E-01
   7131.00  4.8059776E-01
   7131.33  4.9116463E-01
   7131.67  5.0522660E-01
   7132.00  5.2339743E-01
   7132.33  5.4634867E-01
   7132.67  5.7301427E-01
   7133.00  6.0239744E-01
   7133.33  6.3286691E-01
   7133.67  6.6212357E-01
   7134.00  6.8835207E-01
   7134.33  7.0958851E-01
   7134.67  7.2600947E-01
   7135.00  7.3784426E-01
   7135.33  7.4485445E-01
   7135.67  7.4748467E-01
   7136.00  7.4538578E-01
   7136.33  7.3774055E-01
   7136.67  7.2578245E-01
   7137.00  7.1083974E-01
   7137.33  6.9506956E-01
   7137.67  6.8090101E-01
   7138.00  6.6980461E-01
   7138.33  6.6304700E-01
   7138.67  6.6010468E-01
   7139.00  6.6057813E-01
   7139.33  6.6424904E-01
   7139.67  6.7024890E-01
   7140.00  6.7822365E-01
   7140.33  6.8802272E-01
   7140.67  6.9907080E-01
   7141.00  7.1096772E-01
   7141.33  7.2314700E-01
   7141.67  7.3486898E-01
   7142.00  7.4551483E-01
   7142.33  7.5426338E-01
   7142.67  7.6092829E-01
   7143.00  7.6535957E-01
   7143.33  7.6728613E-01
   7143.67  7.6711814E-01
   7144.00  7.6502021E-01
   7144.33  7.6100369E-01
   7144.67  7.5553924E-01
   7145.00  7.4887821E-01
   7145.33  7.4123688E-01
   7145.67  7.3306510E-01
   7146.00  7.2464365E-01
   7146.33  7.1625803E-01
   7146.67  7.0811237E-01
   7147.00  7.0031727E-01
   7147.33  6.9297498E-01
   7147.67  6.8602078E-01
   7148.00  6.7940904E-01
   7148.33  6.7310405E-01
   7148.67  6.6700248E-01
   7149.00  6.6105633E-01
   7149.33  6.5524264E-01
   7149.67  6.4952988E-01
   7150.00  6.4392282E-01
   7150.33  6.3845305E-01
   7150.67  6.3311970E-01
   7151.00  6.2793658E-01
   7151.33  6.2294280E-01
   7151.67  6.1813486E-01
   7152.00  6.1352474E-01
   7152.33  6.0914559E-01
   7152.67  6.0497023E-01
   7153.00  6.0098965E-01
   7153.33  5.9720823E-01
   7153.67  5.9358179E-01
   7154.00  5.9008816E-01
   7154.33  5.8671340E-01
   7154.67  5.8342238E-01
   7155.00  5.8020359E-01
   7155.33  5.7706267E-01
   7155.67  5.7400137E-01
   7156.00  5.7103984E-01
   7156.33  5.6822951E-01
   7156.67  5.6559709E-01
   7157.00  5.6318431E-01
   7157.33  5.6107405E-01
   7157.67  5.5927707E-01
   7158.00  5.5782212E-01
   7158.33  5.5676923E-01
   7158.67  5.5606120E-01
   7159.00  5.5565717E-01
   7159.33  5.5549101E-01
   7159.67  5.5538827E-01
   7160.00  5.5517709E-01
   7160.33  5.5457162E-01
   7160.67  5.5335456E-01
   7161.00  5.5131568E-01
   7161.33  5.4813860E-01
   7161.67  5.4385275E-01
   7162.00  5.3846232E-01
   7162.33  5.3194081E-01
   7162.67  5.2458662E-01
   7163.00  5.1657786E-01
   7163.33  5.0806851E-01
   7163.67  4.9930205E-01
   7164.00  4.9041185E-01
   7164.33  4.8151729E-01
   7164.67  4.7270274E-01
   7165.00  4.6401505E-01
   7165.33  4.5550470E-01
   7165.67  4.4716480E-01
   7166.00  4.3899746E-01
   7166.33  4.3101873E-01
   7166.67  4.2319972E-01
   7167.00  4.1553635E-01
   7167.33  4.0804954E-01
   7167.67  4.0072947E-01
   7168.00  3.9359293E-01
   7168.33  3.8669566E-01
   7168.67  3.8004905E-01
   7169.00  3.7368994E-01
   7169.33  3.6770443E-01
   7169.67  3.6209937E-01
   7170.00  3.5691806E-01
   7170.33  3.5225660E-01
   7170.67  3.4808208E-01
   7171.00  3.4441379E-01
   7171.33  3.4133914E-01
   7171.67  3.3881212E-01
   7172.00  3.3684321E-01
