    FDMNES
    energy     <xanes>
   7097.00  5.9235682E-03
   7097.33  6.0870161E-03
   7097.67  6.2590216E-03
   7098.00  6.4402339E-03
   7098.33  6.6327524E-03
   7098.67  6.8362688E-03
   7099.00  7.0516921E-03
   7099.33  7.2818504E-03
   7099.67  7.5264593E-03
   7100.00  7.7868286E-03
   7100.33  8.0668789E-03
   7100.67  8.3664165E-03
   7101.00  8.6873933E-03
   7101.33  9.0354326E-03
   7101.67  9.4105769E-03
   7102.00  9.8158545E-03
   7102.33  1.0259667E-02
   7102.67  1.0742615E-02
   7103.00  1.1269633E-02
   7103.33  1.1853914E-02
   7103.67  1.2497370E-02
   7104.00  1.3208529E-02
   7104.33  1.4009459E-02
   7104.67  1.4905221E-02
   7105.00  1.5911739E-02
   7105.33  1.7069026E-02
   7105.67  1.8390283E-02
   7106.00  1.9908378E-02
   7106.33  2.1704162E-02
   7106.67  2.3814335E-02
   7107.00  2.6316780E-02
   7107.33  2.9401737E-02
   7107.67  3.3186350E-02
   7108.00  3.7896182E-02
   7108.33  4.4093457E-02
   7108.67  5.2254088E-02
   7109.00  6.3270459E-02
   7109.33  7.9536163E-02
   7109.67  1.0394692E-01
   7110.00  1.4224737E-01
   7110.33  2.1146253E-01
   7110.67  3.3123595E-01
   7111.00  4.9878808E-01
   7111.33  5.6492358E-01
   7111.67  5.1698457E-01
   7112.00  5.0229739E-01
   7112.33  5.5549400E-01
   7112.67  6.1687418E-01
   7113.00  6.4211408E-01
   7113.33  5.8726394E-01
   7113.67  4.7244408E-01
   7114.00  3.5855038E-01
   7114.33  2.8128537E-01
   7114.67  2.3485565E-01
   7115.00  2.1363098E-01
   7115.33  2.1302145E-01
   7115.67  2.2105246E-01
   7116.00  2.3196033E-01
   7116.33  2.4952114E-01
   7116.67  2.5532527E-01
   7117.00  2.2835959E-01
   7117.33  1.8538943E-01
   7117.67  1.5255115E-01
   7118.00  1.3283260E-01
   7118.33  1.2336240E-01
   7118.67  1.1866245E-01
   7119.00  1.1636308E-01
   7119.33  1.1605248E-01
   7119.67  1.1742261E-01
   7120.00  1.1996123E-01
   7120.33  1.2341137E-01
   7120.67  1.2782148E-01
   7121.00  1.3356833E-01
   7121.33  1.4096505E-01
   7121.67  1.4946246E-01
   7122.00  1.5850821E-01
   7122.33  1.6793401E-01
   7122.67  1.7895305E-01
   7123.00  1.9303483E-01
   7123.33  2.1088074E-01
   7123.67  2.3145025E-01
   7124.00  2.5469677E-01
   7124.33  2.8199628E-01
   7124.67  3.1434552E-01
   7125.00  3.5253128E-01
   7125.33  3.9593362E-01
   7125.67  4.3896068E-01
   7126.00  4.7460027E-01
   7126.33  4.9385086E-01
   7126.67  4.9753058E-01
   7127.00  4.9004058E-01
   7127.33  4.7783816E-01
   7127.67  4.6657909E-01
   7128.00  4.5850584E-01
   7128.33  4.5537630E-01
   7128.67  4.5693443E-01
   7129.00  4.6269981E-01
   7129.33  4.7183401E-01
   7129.67  4.8265175E-01
   7130.00  4.9453530E-01
   7130.33  5.0770980E-01
   7130.67  5.2261930E-01
   7131.00  5.3977986E-01
   7131.33  5.5978870E-01
   7131.67  5.8210518E-01
   7132.00  6.0600703E-01
   7132.33  6.3010152E-01
   7132.67  6.5269995E-01
   7133.00  6.7249633E-01
   7133.33  6.8765617E-01
   7133.67  6.9737521E-01
   7134.00  7.0100760E-01
   7134.33  6.9864987E-01
   7134.67  6.9271983E-01
   7135.00  6.8452504E-01
   7135.33  6.7476689E-01
   7135.67  6.6391110E-01
   7136.00  6.5191677E-01
   7136.33  6.3855712E-01
   7136.67  6.2429149E-01
   7137.00  6.1002880E-01
   7137.33  5.9791205E-01
   7137.67  5.8997595E-01
   7138.00  5.8779405E-01
   7138.33  5.9303120E-01
   7138.67  6.0451314E-01
   7139.00  6.2110310E-01
   7139.33  6.4112539E-01
   7139.67  6.6175557E-01
   7140.00  6.8106896E-01
   7140.33  6.9726014E-01
   7140.67  7.1032575E-01
   7141.00  7.2071454E-01
   7141.33  7.2916870E-01
   7141.67  7.3686496E-01
   7142.00  7.4436745E-01
   7142.33  7.5187485E-01
   7142.67  7.5909340E-01
   7143.00  7.6549440E-01
   7143.33  7.7018823E-01
   7143.67  7.7282121E-01
   7144.00  7.7317300E-01
   7144.33  7.7100727E-01
   7144.67  7.6689108E-01
   7145.00  7.6118215E-01
   7145.33  7.5419941E-01
   7145.67  7.4652999E-01
   7146.00  7.3851160E-01
   7146.33  7.3046055E-01
   7146.67  7.2260752E-01
   7147.00  7.1506415E-01
   7147.33  7.0790881E-01
   7147.67  7.0104926E-01
   7148.00  6.9439762E-01
   7148.33  6.8784299E-01
   7148.67  6.8127366E-01
   7149.00  6.7464779E-01
   7149.33  6.6797455E-01
   7149.67  6.6132566E-01
   7150.00  6.5477688E-01
   7150.33  6.4841799E-01
   7150.67  6.4224957E-01
   7151.00  6.3626114E-01
   7151.33  6.3044242E-01
   7151.67  6.2474118E-01
   7152.00  6.1913159E-01
   7152.33  6.1359804E-01
   7152.67  6.0811623E-01
   7153.00  6.0268006E-01
   7153.33  5.9730159E-01
   7153.67  5.9199593E-01
   7154.00  5.8679064E-01
   7154.33  5.8174543E-01
   7154.67  5.7689361E-01
   7155.00  5.7228280E-01
   7155.33  5.6800257E-01
   7155.67  5.6405894E-01
   7156.00  5.6047607E-01
   7156.33  5.5731215E-01
   7156.67  5.5451602E-01
   7157.00  5.5207352E-01
   7157.33  5.5000086E-01
   7157.67  5.4822650E-01
   7158.00  5.4672187E-01
   7158.33  5.4547888E-01
   7158.67  5.4442261E-01
   7159.00  5.4350043E-01
   7159.33  5.4263358E-01
   7159.67  5.4170201E-01
   7160.00  5.4058582E-01
   7160.33  5.3908443E-01
   7160.67  5.3708030E-01
   7161.00  5.3445087E-01
   7161.33  5.3099758E-01
   7161.67  5.2675612E-01
   7162.00  5.2172888E-01
   7162.33  5.1588572E-01
   7162.67  5.0942435E-01
   7163.00  5.0245931E-01
   7163.33  4.9508675E-01
   7163.67  4.8748652E-01
   7164.00  4.7976088E-01
   7164.33  4.7200570E-01
   7164.67  4.6429978E-01
   7165.00  4.5668942E-01
   7165.33  4.4922515E-01
   7165.67  4.4190972E-01
   7166.00  4.3475318E-01
   7166.33  4.2778640E-01
   7166.67  4.2100072E-01
   7167.00  4.1441202E-01
   7167.33  4.0807441E-01
   7167.67  4.0199438E-01
   7168.00  3.9620601E-01
   7168.33  3.9079243E-01
   7168.67  3.8575258E-01
   7169.00  3.8111832E-01
   7169.33  3.7697680E-01
   7169.67  3.7330066E-01
   7170.00  3.7010248E-01
   7170.33  3.6743587E-01
   7170.67  3.6522158E-01
   7171.00  3.6343571E-01
   7171.33  3.6208677E-01
   7171.67  3.6106566E-01
   7172.00  3.6030023E-01
