    FDMNES
    energy     <xanes>
   7097.00  5.0562410E-03
   7097.33  5.1831048E-03
   7097.67  5.3161814E-03
   7098.00  5.4559230E-03
   7098.33  5.6038217E-03
   7098.67  5.7596282E-03
   7099.00  5.9239705E-03
   7099.33  6.0988390E-03
   7099.67  6.2839935E-03
   7100.00  6.4803317E-03
   7100.33  6.6905843E-03
   7100.67  6.9145629E-03
   7101.00  7.1535937E-03
   7101.33  7.4115515E-03
   7101.67  7.6883922E-03
   7102.00  7.9861543E-03
   7102.33  8.3105629E-03
   7102.67  8.6619241E-03
   7103.00  9.0435259E-03
   7103.33  9.4642569E-03
   7103.67  9.9252476E-03
   7104.00  1.0432127E-02
   7104.33  1.0999579E-02
   7104.67  1.1630724E-02
   7105.00  1.2335953E-02
   7105.33  1.3141540E-02
   7105.67  1.4055722E-02
   7106.00  1.5099681E-02
   7106.33  1.6325721E-02
   7106.67  1.7756713E-02
   7107.00  1.9442088E-02
   7107.33  2.1502725E-02
   7107.67  2.4010846E-02
   7108.00  2.7106714E-02
   7108.33  3.1139108E-02
   7108.67  3.6395151E-02
   7109.00  4.3413444E-02
   7109.33  5.3627650E-02
   7109.67  6.8723661E-02
   7110.00  9.2018657E-02
   7110.33  1.3315122E-01
   7110.67  2.0261174E-01
   7111.00  3.0276298E-01
   7111.33  3.9645196E-01
   7111.67  4.2474786E-01
   7112.00  3.7960928E-01
   7112.33  3.3492014E-01
   7112.67  3.2448697E-01
   7113.00  3.3615877E-01
   7113.33  3.4125336E-01
   7113.67  3.2360415E-01
   7114.00  2.9280288E-01
   7114.33  2.6935604E-01
   7114.67  2.5861660E-01
   7115.00  2.5465582E-01
   7115.33  2.4969670E-01
   7115.67  2.4161455E-01
   7116.00  2.2974141E-01
   7116.33  2.1511975E-01
   7116.67  2.0146000E-01
   7117.00  1.9052046E-01
   7117.33  1.8218101E-01
   7117.67  1.7431752E-01
   7118.00  1.6571239E-01
   7118.33  1.5637899E-01
   7118.67  1.4751055E-01
   7119.00  1.3989271E-01
   7119.33  1.3385426E-01
   7119.67  1.2877142E-01
   7120.00  1.2439594E-01
   7120.33  1.2128810E-01
   7120.67  1.1972541E-01
   7121.00  1.1968611E-01
   7121.33  1.2125482E-01
   7121.67  1.2429072E-01
   7122.00  1.2897109E-01
   7122.33  1.3586681E-01
   7122.67  1.4478499E-01
   7123.00  1.5475873E-01
   7123.33  1.6272107E-01
   7123.67  1.6706886E-01
   7124.00  1.6944946E-01
   7124.33  1.7314352E-01
   7124.67  1.7968190E-01
   7125.00  1.8933417E-01
   7125.33  2.0206119E-01
   7125.67  2.1699431E-01
   7126.00  2.3366180E-01
   7126.33  2.5115684E-01
   7126.67  2.6822797E-01
   7127.00  2.8447892E-01
   7127.33  3.0034809E-01
   7127.67  3.1667153E-01
   7128.00  3.3364035E-01
   7128.33  3.5083677E-01
   7128.67  3.6772686E-01
   7129.00  3.8442601E-01
   7129.33  4.0192911E-01
   7129.67  4.2130621E-01
   7130.00  4.4324588E-01
   7130.33  4.6853039E-01
   7130.67  4.9715687E-01
   7131.00  5.2966694E-01
   7131.33  5.6762553E-01
   7131.67  6.1152468E-01
   7132.00  6.6208120E-01
   7132.33  7.2014870E-01
   7132.67  7.8336030E-01
   7133.00  8.4869592E-01
   7133.33  9.1016703E-01
   7133.67  9.6141687E-01
   7134.00  9.9704744E-01
   7134.33  1.0103303E+00
   7134.67  1.0025083E+00
   7135.00  9.7514201E-01
   7135.33  9.3073901E-01
   7135.67  8.7691589E-01
   7136.00  8.1840429E-01
   7136.33  7.5960244E-01
   7136.67  7.0356094E-01
   7137.00  6.5184842E-01
   7137.33  6.0608074E-01
   7137.67  5.6598046E-01
   7138.00  5.3165136E-01
   7138.33  5.0382768E-01
   7138.67  4.8173587E-01
   7139.00  4.6527742E-01
   7139.33  4.5490341E-01
   7139.67  4.4953367E-01
   7140.00  4.4863618E-01
   7140.33  4.5182550E-01
   7140.67  4.5767099E-01
   7141.00  4.6537891E-01
   7141.33  4.7442886E-01
   7141.67  4.8438293E-01
   7142.00  4.9525676E-01
   7142.33  5.0734270E-01
   7142.67  5.2062334E-01
   7143.00  5.3506622E-01
   7143.33  5.5057009E-01
   7143.67  5.6664037E-01
   7144.00  5.8288189E-01
   7144.33  5.9879401E-01
   7144.67  6.1402001E-01
   7145.00  6.2832018E-01
   7145.33  6.4141304E-01
   7145.67  6.5341140E-01
   7146.00  6.6436798E-01
   7146.33  6.7426595E-01
   7146.67  6.8332248E-01
   7147.00  6.9159458E-01
   7147.33  6.9900390E-01
   7147.67  7.0562014E-01
   7148.00  7.1140271E-01
   7148.33  7.1616878E-01
   7148.67  7.1993554E-01
   7149.00  7.2261426E-01
   7149.33  7.2394000E-01
   7149.67  7.2394794E-01
   7150.00  7.2256896E-01
   7150.33  7.1957998E-01
   7150.67  7.1515874E-01
   7151.00  7.0935108E-01
   7151.33  7.0209603E-01
   7151.67  6.9369818E-01
   7152.00  6.8431743E-01
   7152.33  6.7407398E-01
   7152.67  6.6329170E-01
   7153.00  6.5216092E-01
   7153.33  6.4086355E-01
   7153.67  6.2958781E-01
   7154.00  6.1845304E-01
   7154.33  6.0760006E-01
   7154.67  5.9708183E-01
   7155.00  5.8695647E-01
   7155.33  5.7733557E-01
   7155.67  5.6821113E-01
   7156.00  5.5962134E-01
   7156.33  5.5167763E-01
   7156.67  5.4434045E-01
   7157.00  5.3763055E-01
   7157.33  5.3164243E-01
   7157.67  5.2629881E-01
   7158.00  5.2159338E-01
   7158.33  5.1758729E-01
   7158.67  5.1417850E-01
   7159.00  5.1133983E-01
   7159.33  5.0909819E-01
   7159.67  5.0734743E-01
   7160.00  5.0605911E-01
   7160.33  5.0525923E-01
   7160.67  5.0486732E-01
   7161.00  5.0485883E-01
   7161.33  5.0524312E-01
   7161.67  5.0593167E-01
   7162.00  5.0687371E-01
   7162.33  5.0801747E-01
   7162.67  5.0925394E-01
   7163.00  5.1050329E-01
   7163.33  5.1166152E-01
   7163.67  5.1264860E-01
   7164.00  5.1339216E-01
   7164.33  5.1377349E-01
   7164.67  5.1375944E-01
   7165.00  5.1328954E-01
   7165.33  5.1222944E-01
   7165.67  5.1057879E-01
   7166.00  5.0828574E-01
   7166.33  5.0521245E-01
   7166.67  5.0141054E-01
   7167.00  4.9687064E-01
   7167.33  4.9152548E-01
   7167.67  4.8550919E-01
   7168.00  4.7887283E-01
   7168.33  4.7162838E-01
   7168.67  4.6394484E-01
   7169.00  4.5592285E-01
   7169.33  4.4766422E-01
   7169.67  4.3933317E-01
   7170.00  4.3105482E-01
   7170.33  4.2300438E-01
   7170.67  4.1530826E-01
   7171.00  4.0810152E-01
   7171.33  4.0164421E-01
   7171.67  3.9608260E-01
   7172.00  3.9166144E-01
