    FDMNES
    energy     <xanes>
   7097.00  4.6208495E-03
   7097.33  4.7211100E-03
   7097.67  4.8256027E-03
   7098.00  4.9346025E-03
   7098.33  5.0490703E-03
   7098.67  5.1687920E-03
   7099.00  5.2941406E-03
   7099.33  5.4263642E-03
   7099.67  5.5652426E-03
   7100.00  5.7112970E-03
   7100.33  5.8661923E-03
   7100.67  6.0297220E-03
   7101.00  6.2026378E-03
   7101.33  6.3872342E-03
   7101.67  6.5833616E-03
   7102.00  6.7921477E-03
   7102.33  7.0168813E-03
   7102.67  7.2575666E-03
   7103.00  7.5159770E-03
   7103.33  7.7970590E-03
   7103.67  8.1011947E-03
   7104.00  8.4313389E-03
   7104.33  8.7953950E-03
   7104.67  9.1946654E-03
   7105.00  9.6344476E-03
   7105.33  1.0128388E-02
   7105.67  1.0680140E-02
   7106.00  1.1300152E-02
   7106.33  1.2014547E-02
   7106.67  1.2833574E-02
   7107.00  1.3780711E-02
   7107.33  1.4913695E-02
   7107.67  1.6264400E-02
   7108.00  1.7896527E-02
   7108.33  1.9968239E-02
   7108.67  2.2602305E-02
   7109.00  2.6031082E-02
   7109.33  3.0868316E-02
   7109.67  3.7807772E-02
   7110.00  4.8211358E-02
   7110.33  6.5988747E-02
   7110.67  9.5107448E-02
   7111.00  1.3528103E-01
   7111.33  1.7137817E-01
   7111.67  2.0103751E-01
   7112.00  2.2640678E-01
   7112.33  2.3950064E-01
   7112.67  2.4433957E-01
   7113.00  2.4699082E-01
   7113.33  2.5314786E-01
   7113.67  2.4947165E-01
   7114.00  2.2494507E-01
   7114.33  1.8748135E-01
   7114.67  1.5330991E-01
   7115.00  1.2715477E-01
   7115.33  1.0944449E-01
   7115.67  9.7242202E-02
   7116.00  8.9155613E-02
   7116.33  8.4538372E-02
   7116.67  8.2486798E-02
   7117.00  8.2812822E-02
   7117.33  8.5655010E-02
   7117.67  9.0316403E-02
   7118.00  9.5949370E-02
   7118.33  1.0139633E-01
   7118.67  1.0648215E-01
   7119.00  1.1188019E-01
   7119.33  1.1857174E-01
   7119.67  1.2672391E-01
   7120.00  1.3610839E-01
   7120.33  1.4612683E-01
   7120.67  1.5607886E-01
   7121.00  1.6586020E-01
   7121.33  1.7591931E-01
   7121.67  1.8681928E-01
   7122.00  1.9894786E-01
   7122.33  2.1280531E-01
   7122.67  2.2845696E-01
   7123.00  2.4614798E-01
   7123.33  2.6659797E-01
   7123.67  2.8999192E-01
   7124.00  3.1662827E-01
   7124.33  3.4698259E-01
   7124.67  3.8042552E-01
   7125.00  4.1658589E-01
   7125.33  4.5433544E-01
   7125.67  4.8966069E-01
   7126.00  5.1726095E-01
   7126.33  5.3031958E-01
   7126.67  5.2931447E-01
   7127.00  5.1686053E-01
   7127.33  4.9840149E-01
   7127.67  4.8105449E-01
   7128.00  4.6834955E-01
   7128.33  4.6273541E-01
   7128.67  4.6385861E-01
   7129.00  4.7194727E-01
   7129.33  4.8806227E-01
   7129.67  5.1078497E-01
   7130.00  5.3877007E-01
   7130.33  5.7013260E-01
   7130.67  6.0240044E-01
   7131.00  6.3458793E-01
   7131.33  6.6665389E-01
   7131.67  6.9927953E-01
   7132.00  7.3307241E-01
   7132.33  7.6857655E-01
   7132.67  8.0546335E-01
   7133.00  8.4320008E-01
   7133.33  8.8051207E-01
   7133.67  9.1540114E-01
   7134.00  9.4552673E-01
   7134.33  9.6720621E-01
   7134.67  9.7984091E-01
   7135.00  9.8383186E-01
   7135.33  9.8055947E-01
   7135.67  9.7329143E-01
   7136.00  9.6303808E-01
   7136.33  9.4890635E-01
   7136.67  9.2998283E-01
   7137.00  9.0536525E-01
   7137.33  8.7437105E-01
   7137.67  8.3901251E-01
   7138.00  8.0109615E-01
   7138.33  7.6289364E-01
   7138.67  7.2647056E-01
   7139.00  6.9315996E-01
   7139.33  6.6450089E-01
   7139.67  6.4046237E-01
   7140.00  6.2107860E-01
   7140.33  6.0655370E-01
   7140.67  5.9572628E-01
   7141.00  5.8795498E-01
   7141.33  5.8277202E-01
   7141.67  5.7917123E-01
   7142.00  5.7657259E-01
   7142.33  5.7443081E-01
   7142.67  5.7221567E-01
   7143.00  5.6964503E-01
   7143.33  5.6650809E-01
   7143.67  5.6288177E-01
   7144.00  5.5884423E-01
   7144.33  5.5443201E-01
   7144.67  5.4968494E-01
   7145.00  5.4452103E-01
   7145.33  5.3870423E-01
   7145.67  5.3212697E-01
   7146.00  5.2466967E-01
   7146.33  5.1615914E-01
   7146.67  5.0676651E-01
   7147.00  4.9662576E-01
   7147.33  4.8591613E-01
   7147.67  4.7501160E-01
   7148.00  4.6419521E-01
   7148.33  4.5382477E-01
   7148.67  4.4412422E-01
   7149.00  4.3528524E-01
   7149.33  4.2756536E-01
   7149.67  4.2087016E-01
   7150.00  4.1515000E-01
   7150.33  4.1037920E-01
   7150.67  4.0627200E-01
   7151.00  4.0266010E-01
   7151.33  3.9939659E-01
   7151.67  3.9629145E-01
   7152.00  3.9325398E-01
   7152.33  3.9022752E-01
   7152.67  3.8719774E-01
   7153.00  3.8418017E-01
   7153.33  3.8121770E-01
   7153.67  3.7834948E-01
   7154.00  3.7561411E-01
   7154.33  3.7307238E-01
   7154.67  3.7073280E-01
   7155.00  3.6861274E-01
   7155.33  3.6675190E-01
   7155.67  3.6512355E-01
   7156.00  3.6372311E-01
   7156.33  3.6256423E-01
   7156.67  3.6159731E-01
   7157.00  3.6079411E-01
   7157.33  3.6012449E-01
   7157.67  3.5951535E-01
   7158.00  3.5890824E-01
   7158.33  3.5822372E-01
   7158.67  3.5740796E-01
   7159.00  3.5642374E-01
   7159.33  3.5523448E-01
   7159.67  3.5388452E-01
   7160.00  3.5241473E-01
   7160.33  3.5088191E-01
   7160.67  3.4936295E-01
   7161.00  3.4791264E-01
   7161.33  3.4659800E-01
   7161.67  3.4544163E-01
   7162.00  3.4446505E-01
   7162.33  3.4371044E-01
   7162.67  3.4316691E-01
   7163.00  3.4284445E-01
   7163.33  3.4278287E-01
   7163.67  3.4296498E-01
   7164.00  3.4340237E-01
   7164.33  3.4414490E-01
   7164.67  3.4517787E-01
   7165.00  3.4651984E-01
   7165.33  3.4823549E-01
   7165.67  3.5030759E-01
   7166.00  3.5275702E-01
   7166.33  3.5565662E-01
   7166.67  3.5897620E-01
   7167.00  3.6272970E-01
   7167.33  3.6698472E-01
   7167.67  3.7169131E-01
   7168.00  3.7684840E-01
   7168.33  3.8250063E-01
   7168.67  3.8857049E-01
   7169.00  3.9502975E-01
   7169.33  4.0187961E-01
   7169.67  4.0902311E-01
   7170.00  4.1640316E-01
   7170.33  4.2395593E-01
   7170.67  4.3155258E-01
   7171.00  4.3906384E-01
   7171.33  4.4622359E-01
   7171.67  4.5269225E-01
   7172.00  4.5799840E-01
