    FDMNES
    energy     <xanes>
   7097.00  4.4297736E-03
   7097.33  4.5238094E-03
   7097.67  4.6216773E-03
   7098.00  4.7236183E-03
   7098.33  4.8304897E-03
   7098.67  4.9420871E-03
   7099.00  5.0587363E-03
   7099.33  5.1815435E-03
   7099.67  5.3102978E-03
   7100.00  5.4454525E-03
   7100.33  5.5884753E-03
   7100.67  5.7391663E-03
   7101.00  5.8981789E-03
   7101.33  6.0675283E-03
   7101.67  6.2470651E-03
   7102.00  6.4377723E-03
   7102.33  6.6425359E-03
   7102.67  6.8613493E-03
   7103.00  7.0957698E-03
   7103.33  7.3501563E-03
   7103.67  7.6248617E-03
   7104.00  7.9225198E-03
   7104.33  8.2501758E-03
   7104.67  8.6090873E-03
   7105.00  9.0040955E-03
   7105.33  9.4476426E-03
   7105.67  9.9433913E-03
   7106.00  1.0501267E-02
   7106.33  1.1146023E-02
   7106.67  1.1888440E-02
   7107.00  1.2752136E-02
   7107.33  1.3795284E-02
   7107.67  1.5053690E-02
   7108.00  1.6597008E-02
   7108.33  1.8600106E-02
   7108.67  2.1214368E-02
   7109.00  2.4725440E-02
   7109.33  2.9908245E-02
   7109.67  3.7729889E-02
   7110.00  5.0113600E-02
   7110.33  7.2578546E-02
   7110.67  1.0938576E-01
   7111.00  1.5288944E-01
   7111.33  1.7148854E-01
   7111.67  1.6959712E-01
   7112.00  1.6126076E-01
   7112.33  1.5079612E-01
   7112.67  1.3734862E-01
   7113.00  1.2178258E-01
   7113.33  1.0671526E-01
   7113.67  9.5063008E-02
   7114.00  8.5845898E-02
   7114.33  7.6551086E-02
   7114.67  6.8696951E-02
   7115.00  6.4042082E-02
   7115.33  6.3205774E-02
   7115.67  6.5485571E-02
   7116.00  7.0902376E-02
   7116.33  8.0357454E-02
   7116.67  9.4278758E-02
   7117.00  1.1374085E-01
   7117.33  1.4138853E-01
   7117.67  1.7771830E-01
   7118.00  2.2159203E-01
   7118.33  2.6618430E-01
   7118.67  3.0008913E-01
   7119.00  3.1746702E-01
   7119.33  3.2013520E-01
   7119.67  3.1896541E-01
   7120.00  3.2045258E-01
   7120.33  3.2764631E-01
   7120.67  3.3769664E-01
   7121.00  3.4705193E-01
   7121.33  3.5182919E-01
   7121.67  3.5170800E-01
   7122.00  3.4782454E-01
   7122.33  3.4203773E-01
   7122.67  3.3631044E-01
   7123.00  3.3158126E-01
   7123.33  3.2850480E-01
   7123.67  3.2679873E-01
   7124.00  3.2619755E-01
   7124.33  3.2700713E-01
   7124.67  3.2995214E-01
   7125.00  3.3602833E-01
   7125.33  3.4692203E-01
   7125.67  3.6287520E-01
   7126.00  3.8334977E-01
   7126.33  4.0566144E-01
   7126.67  4.2573504E-01
   7127.00  4.4173875E-01
   7127.33  4.5377002E-01
   7127.67  4.6410186E-01
   7128.00  4.7408922E-01
   7128.33  4.8459820E-01
   7128.67  4.9553041E-01
   7129.00  5.0653672E-01
   7129.33  5.1760007E-01
   7129.67  5.2926050E-01
   7130.00  5.4197677E-01
   7130.33  5.5587369E-01
   7130.67  5.7012372E-01
   7131.00  5.8375856E-01
   7131.33  5.9538177E-01
   7131.67  6.0428527E-01
   7132.00  6.1002411E-01
   7132.33  6.1227183E-01
   7132.67  6.1206450E-01
   7133.00  6.1026576E-01
   7133.33  6.0803257E-01
   7133.67  6.0666089E-01
   7134.00  6.0702283E-01
   7134.33  6.0981282E-01
   7134.67  6.1430587E-01
   7135.00  6.1955382E-01
   7135.33  6.2431874E-01
   7135.67  6.2785493E-01
   7136.00  6.2990071E-01
   7136.33  6.3040093E-01
   7136.67  6.2993063E-01
   7137.00  6.2890926E-01
   7137.33  6.2772676E-01
   7137.67  6.2661238E-01
   7138.00  6.2556209E-01
   7138.33  6.2437556E-01
   7138.67  6.2277641E-01
   7139.00  6.2051399E-01
   7139.33  6.1726871E-01
   7139.67  6.1306138E-01
   7140.00  6.0789978E-01
   7140.33  6.0173733E-01
   7140.67  5.9477494E-01
   7141.00  5.8708883E-01
   7141.33  5.7868681E-01
   7141.67  5.6976556E-01
   7142.00  5.6045638E-01
   7142.33  5.5090831E-01
   7142.67  5.4133546E-01
   7143.00  5.3190387E-01
   7143.33  5.2285497E-01
   7143.67  5.1435246E-01
   7144.00  5.0657862E-01
   7144.33  4.9986521E-01
   7144.67  4.9430301E-01
   7145.00  4.9006037E-01
   7145.33  4.8749707E-01
   7145.67  4.8656059E-01
   7146.00  4.8732945E-01
   7146.33  4.9006131E-01
   7146.67  4.9450159E-01
   7147.00  5.0054587E-01
   7147.33  5.0814886E-01
   7147.67  5.1680573E-01
   7148.00  5.2614398E-01
   7148.33  5.3570328E-01
   7148.67  5.4499875E-01
   7149.00  5.5367988E-01
   7149.33  5.6128628E-01
   7149.67  5.6769608E-01
   7150.00  5.7279924E-01
   7150.33  5.7641855E-01
   7150.67  5.7881438E-01
   7151.00  5.8013225E-01
   7151.33  5.8047247E-01
   7151.67  5.8015952E-01
   7152.00  5.7937990E-01
   7152.33  5.7831483E-01
   7152.67  5.7718121E-01
   7153.00  5.7610717E-01
   7153.33  5.7522405E-01
   7153.67  5.7457611E-01
   7154.00  5.7418280E-01
   7154.33  5.7405342E-01
   7154.67  5.7409684E-01
   7155.00  5.7423568E-01
   7155.33  5.7435687E-01
   7155.67  5.7433987E-01
   7156.00  5.7408249E-01
   7156.33  5.7344047E-01
   7156.67  5.7238576E-01
   7157.00  5.7088882E-01
   7157.33  5.6890006E-01
   7157.67  5.6651327E-01
   7158.00  5.6377467E-01
   7158.33  5.6069607E-01
   7158.67  5.5734687E-01
   7159.00  5.5373629E-01
   7159.33  5.4982688E-01
   7159.67  5.4564323E-01
   7160.00  5.4118496E-01
   7160.33  5.3643614E-01
   7160.67  5.3146357E-01
   7161.00  5.2630556E-01
   7161.33  5.2099717E-01
   7161.67  5.1561218E-01
   7162.00  5.1019730E-01
   7162.33  5.0480198E-01
   7162.67  4.9946510E-01
   7163.00  4.9421796E-01
   7163.33  4.8910787E-01
   7163.67  4.8414832E-01
   7164.00  4.7936245E-01
   7164.33  4.7479931E-01
   7164.67  4.7045323E-01
   7165.00  4.6633376E-01
   7165.33  4.6246992E-01
   7165.67  4.5882302E-01
   7166.00  4.5537651E-01
   7166.33  4.5212514E-01
   7166.67  4.4901481E-01
   7167.00  4.4601621E-01
   7167.33  4.4310744E-01
   7167.67  4.4025258E-01
   7168.00  4.3743571E-01
   7168.33  4.3464945E-01
   7168.67  4.3188766E-01
   7169.00  4.2915395E-01
   7169.33  4.2646368E-01
   7169.67  4.2382885E-01
   7170.00  4.2126822E-01
   7170.33  4.1882072E-01
   7170.67  4.1650500E-01
   7171.00  4.1435236E-01
   7171.33  4.1243322E-01
   7171.67  4.1078157E-01
   7172.00  4.0946030E-01
