    FDMNES
    energy     <xanes>
   7097.00  5.5413645E-03
   7097.33  5.6868804E-03
   7097.67  5.8396148E-03
   7098.00  6.0000912E-03
   7098.33  6.1700396E-03
   7098.67  6.3491667E-03
   7099.00  6.5381976E-03
   7099.33  6.7394349E-03
   7099.67  6.9525929E-03
   7100.00  7.1787042E-03
   7100.33  7.4209189E-03
   7100.67  7.6790051E-03
   7101.00  7.9544811E-03
   7101.33  8.2517990E-03
   7101.67  8.5708804E-03
   7102.00  8.9140453E-03
   7102.33  9.2878350E-03
   7102.67  9.6925446E-03
   7103.00  1.0131885E-02
   7103.33  1.0615932E-02
   7103.67  1.1145855E-02
   7104.00  1.1727932E-02
   7104.33  1.2378614E-02
   7104.67  1.3101147E-02
   7105.00  1.3906929E-02
   7105.33  1.4824885E-02
   7105.67  1.5863476E-02
   7106.00  1.7045346E-02
   7106.33  1.8426564E-02
   7106.67  2.0029951E-02
   7107.00  2.1906353E-02
   7107.33  2.4179983E-02
   7107.67  2.6919508E-02
   7108.00  3.0260770E-02
   7108.33  3.4538526E-02
   7108.67  4.0005470E-02
   7109.00  4.7136108E-02
   7109.33  5.7163941E-02
   7109.67  7.1411048E-02
   7110.00  9.2435108E-02
   7110.33  1.2750834E-01
   7110.67  1.8489471E-01
   7111.00  2.7167886E-01
   7111.33  3.8866807E-01
   7111.67  5.0426767E-01
   7112.00  5.7977480E-01
   7112.33  6.2078362E-01
   7112.67  6.2882405E-01
   7113.00  5.9318020E-01
   7113.33  4.9776151E-01
   7113.67  3.8339519E-01
   7114.00  2.8763912E-01
   7114.33  2.2503022E-01
   7114.67  1.8406233E-01
   7115.00  1.5820103E-01
   7115.33  1.4173512E-01
   7115.67  1.2675779E-01
   7116.00  1.1159569E-01
   7116.33  9.8174039E-02
   7116.67  8.8038084E-02
   7117.00  8.2260173E-02
   7117.33  8.1124712E-02
   7117.67  8.3262400E-02
   7118.00  8.7641861E-02
   7118.33  9.2856810E-02
   7118.67  9.8322867E-02
   7119.00  1.0472727E-01
   7119.33  1.1325211E-01
   7119.67  1.2406265E-01
   7120.00  1.3694901E-01
   7120.33  1.5089755E-01
   7120.67  1.6396697E-01
   7121.00  1.7599287E-01
   7121.33  1.8952408E-01
   7121.67  2.0750465E-01
   7122.00  2.3197956E-01
   7122.33  2.6531178E-01
   7122.67  3.0610612E-01
   7123.00  3.5200373E-01
   7123.33  4.0055054E-01
   7123.67  4.5105231E-01
   7124.00  5.0329288E-01
   7124.33  5.5487943E-01
   7124.67  6.0231118E-01
   7125.00  6.4307241E-01
   7125.33  6.7459437E-01
   7125.67  6.9777663E-01
   7126.00  7.1367936E-01
   7126.33  7.2419342E-01
   7126.67  7.3278620E-01
   7127.00  7.4092630E-01
   7127.33  7.4756150E-01
   7127.67  7.4912558E-01
   7128.00  7.4169296E-01
   7128.33  7.2186253E-01
   7128.67  6.9408322E-01
   7129.00  6.6383194E-01
   7129.33  6.3605347E-01
   7129.67  6.1156991E-01
   7130.00  5.9088973E-01
   7130.33  5.7538438E-01
   7130.67  5.6440864E-01
   7131.00  5.5736071E-01
   7131.33  5.5393212E-01
   7131.67  5.5321148E-01
   7132.00  5.5488412E-01
   7132.33  5.5890028E-01
   7132.67  5.6463021E-01
   7133.00  5.7153137E-01
   7133.33  5.7841890E-01
   7133.67  5.8340655E-01
   7134.00  5.8466214E-01
   7134.33  5.8036379E-01
   7134.67  5.7211437E-01
   7135.00  5.6238579E-01
   7135.33  5.5455933E-01
   7135.67  5.5042892E-01
   7136.00  5.5050996E-01
   7136.33  5.5492070E-01
   7136.67  5.6228067E-01
   7137.00  5.7163120E-01
   7137.33  5.8192472E-01
   7137.67  5.9207533E-01
   7138.00  6.0157537E-01
   7138.33  6.1030184E-01
   7138.67  6.1874655E-01
   7139.00  6.2720682E-01
   7139.33  6.3545490E-01
   7139.67  6.4268755E-01
   7140.00  6.4805902E-01
   7140.33  6.5066796E-01
   7140.67  6.5078789E-01
   7141.00  6.4863058E-01
   7141.33  6.4422507E-01
   7141.67  6.3805842E-01
   7142.00  6.3033421E-01
   7142.33  6.2120908E-01
   7142.67  6.1125154E-01
   7143.00  6.0085910E-01
   7143.33  5.9047634E-01
   7143.67  5.8047019E-01
   7144.00  5.7107456E-01
   7144.33  5.6255889E-01
   7144.67  5.5489587E-01
   7145.00  5.4807616E-01
   7145.33  5.4212321E-01
   7145.67  5.3682716E-01
   7146.00  5.3207858E-01
   7146.33  5.2780889E-01
   7146.67  5.2386333E-01
   7147.00  5.2017430E-01
   7147.33  5.1670358E-01
   7147.67  5.1337318E-01
   7148.00  5.1013808E-01
   7148.33  5.0694733E-01
   7148.67  5.0373893E-01
   7149.00  5.0046931E-01
   7149.33  4.9709146E-01
   7149.67  4.9360756E-01
   7150.00  4.9003121E-01
   7150.33  4.8639323E-01
   7150.67  4.8275590E-01
   7151.00  4.7917366E-01
   7151.33  4.7571629E-01
   7151.67  4.7240917E-01
   7152.00  4.6926872E-01
   7152.33  4.6631013E-01
   7152.67  4.6348400E-01
   7153.00  4.6075175E-01
   7153.33  4.5806809E-01
   7153.67  4.5537998E-01
   7154.00  4.5265377E-01
   7154.33  4.4985472E-01
   7154.67  4.4697613E-01
   7155.00  4.4400971E-01
   7155.33  4.4093164E-01
   7155.67  4.3773641E-01
   7156.00  4.3440116E-01
   7156.33  4.3086769E-01
   7156.67  4.2711425E-01
   7157.00  4.2310080E-01
   7157.33  4.1874513E-01
   7157.67  4.1405146E-01
   7158.00  4.0900471E-01
   7158.33  4.0356426E-01
   7158.67  3.9780028E-01
   7159.00  3.9175105E-01
   7159.33  3.8545218E-01
   7159.67  3.7901593E-01
   7160.00  3.7252606E-01
   7160.33  3.6609247E-01
   7160.67  3.5981428E-01
   7161.00  3.5378150E-01
   7161.33  3.4813598E-01
   7161.67  3.4291896E-01
   7162.00  3.3818875E-01
   7162.33  3.3406209E-01
   7162.67  3.3050017E-01
   7163.00  3.2750910E-01
   7163.33  3.2514698E-01
   7163.67  3.2331778E-01
   7164.00  3.2199125E-01
   7164.33  3.2118620E-01
   7164.67  3.2080792E-01
   7165.00  3.2083083E-01
   7165.33  3.2128382E-01
   7165.67  3.2211360E-01
   7166.00  3.2332514E-01
   7166.33  3.2498113E-01
   7166.67  3.2704800E-01
   7167.00  3.2953664E-01
   7167.33  3.3250444E-01
   7167.67  3.3588820E-01
   7168.00  3.3966536E-01
   7168.33  3.4383613E-01
   7168.67  3.4829561E-01
   7169.00  3.5297919E-01
   7169.33  3.5781871E-01
   7169.67  3.6270437E-01
   7170.00  3.6755405E-01
   7170.33  3.7225697E-01
   7170.67  3.7673870E-01
   7171.00  3.8092251E-01
   7171.33  3.8466111E-01
   7171.67  3.8787457E-01
   7172.00  3.9041958E-01
