    FDMNES
    energy     <xanes>
   7097.00  3.7116436E-03
   7097.33  3.7774764E-03
   7097.67  3.8456300E-03
   7098.00  3.9162354E-03
   7098.33  3.9897865E-03
   7098.67  4.0661395E-03
   7099.00  4.1454669E-03
   7099.33  4.2283891E-03
   7099.67  4.3147522E-03
   7100.00  4.4047887E-03
   7100.33  4.4992965E-03
   7100.67  4.5981163E-03
   7101.00  4.7015711E-03
   7101.33  4.8107154E-03
   7101.67  4.9253965E-03
   7102.00  5.0460785E-03
   7102.33  5.1742029E-03
   7102.67  5.3096507E-03
   7103.00  5.4531166E-03
   7103.33  5.6066545E-03
   7103.67  5.7702408E-03
   7104.00  5.9449699E-03
   7104.33  6.1339233E-03
   7104.67  6.3373188E-03
   7105.00  6.5569938E-03
   7105.33  6.7978890E-03
   7105.67  7.0608321E-03
   7106.00  7.3491748E-03
   7106.33  7.6715726E-03
   7106.67  8.0304930E-03
   7107.00  8.4327889E-03
   7107.33  8.8956374E-03
   7107.67  9.4265268E-03
   7108.00  1.0042040E-02
   7108.33  1.0783430E-02
   7108.67  1.1677532E-02
   7109.00  1.2777214E-02
   7109.33  1.4219873E-02
   7109.67  1.6143561E-02
   7110.00  1.8820315E-02
   7110.33  2.3023459E-02
   7110.67  2.9542609E-02
   7111.00  3.8298356E-02
   7111.33  4.4771339E-02
   7111.67  5.0423299E-02
   7112.00  6.3028455E-02
   7112.33  9.0717214E-02
   7112.67  1.2788331E-01
   7113.00  1.5018576E-01
   7113.33  1.4670298E-01
   7113.67  1.2542485E-01
   7114.00  1.0341185E-01
   7114.33  1.0267547E-01
   7114.67  1.1708198E-01
   7115.00  1.2525290E-01
   7115.33  1.1026308E-01
   7115.67  9.9700632E-02
   7116.00  1.0541645E-01
   7116.33  1.2817161E-01
   7116.67  1.5414225E-01
   7117.00  1.6085116E-01
   7117.33  1.3306206E-01
   7117.67  1.0073877E-01
   7118.00  7.8337657E-02
   7118.33  6.6703593E-02
   7118.67  6.1241952E-02
   7119.00  5.9923686E-02
   7119.33  6.1299350E-02
   7119.67  6.3671690E-02
   7120.00  6.6254645E-02
   7120.33  6.8898977E-02
   7120.67  7.2215724E-02
   7121.00  7.6871915E-02
   7121.33  8.3216560E-02
   7121.67  9.0776437E-02
   7122.00  9.9430555E-02
   7122.33  1.0913772E-01
   7122.67  1.1936576E-01
   7123.00  1.3000982E-01
   7123.33  1.4149892E-01
   7123.67  1.5362377E-01
   7124.00  1.6557985E-01
   7124.33  1.7620075E-01
   7124.67  1.8530889E-01
   7125.00  1.9322579E-01
   7125.33  2.0054739E-01
   7125.67  2.0767136E-01
   7126.00  2.1473764E-01
   7126.33  2.2242223E-01
   7126.67  2.3142220E-01
   7127.00  2.4179329E-01
   7127.33  2.5281908E-01
   7127.67  2.6355442E-01
   7128.00  2.7384525E-01
   7128.33  2.8432474E-01
   7128.67  2.9594917E-01
   7129.00  3.0938141E-01
   7129.33  3.2498568E-01
   7129.67  3.4172897E-01
   7130.00  3.5837687E-01
   7130.33  3.7327592E-01
   7130.67  3.8581617E-01
   7131.00  3.9614906E-01
   7131.33  4.0515526E-01
   7131.67  4.1432535E-01
   7132.00  4.2459010E-01
   7132.33  4.3682670E-01
   7132.67  4.5127635E-01
   7133.00  4.6849225E-01
   7133.33  4.8978416E-01
   7133.67  5.1499825E-01
   7134.00  5.4316753E-01
   7134.33  5.7200693E-01
   7134.67  5.9911468E-01
   7135.00  6.2338640E-01
   7135.33  6.4423027E-01
   7135.67  6.6240581E-01
   7136.00  6.7827247E-01
   7136.33  6.9175745E-01
   7136.67  7.0296042E-01
   7137.00  7.1147519E-01
   7137.33  7.1628140E-01
   7137.67  7.1731614E-01
   7138.00  7.1449961E-01
   7138.33  7.0785440E-01
   7138.67  6.9885327E-01
   7139.00  6.8864968E-01
   7139.33  6.7829921E-01
   7139.67  6.6846864E-01
   7140.00  6.5944219E-01
   7140.33  6.5143551E-01
   7140.67  6.4433198E-01
   7141.00  6.3813880E-01
   7141.33  6.3302437E-01
   7141.67  6.2891454E-01
   7142.00  6.2583400E-01
   7142.33  6.2392020E-01
   7142.67  6.2298821E-01
   7143.00  6.2293771E-01
   7143.33  6.2370347E-01
   7143.67  6.2500975E-01
   7144.00  6.2668070E-01
   7144.33  6.2852203E-01
   7144.67  6.3030416E-01
   7145.00  6.3186848E-01
   7145.33  6.3302887E-01
   7145.67  6.3373706E-01
   7146.00  6.3395357E-01
   7146.33  6.3361934E-01
   7146.67  6.3284456E-01
   7147.00  6.3170003E-01
   7147.33  6.3025418E-01
   7147.67  6.2864872E-01
   7148.00  6.2697231E-01
   7148.33  6.2531233E-01
   7148.67  6.2371400E-01
   7149.00  6.2219181E-01
   7149.33  6.2076882E-01
   7149.67  6.1945067E-01
   7150.00  6.1825627E-01
   7150.33  6.1723078E-01
   7150.67  6.1638379E-01
   7151.00  6.1573754E-01
   7151.33  6.1533667E-01
   7151.67  6.1515156E-01
   7152.00  6.1515112E-01
   7152.33  6.1528676E-01
   7152.67  6.1546547E-01
   7153.00  6.1560438E-01
   7153.33  6.1557103E-01
   7153.67  6.1526346E-01
   7154.00  6.1458171E-01
   7154.33  6.1336786E-01
   7154.67  6.1161414E-01
   7155.00  6.0929635E-01
   7155.33  6.0635974E-01
   7155.67  6.0292965E-01
   7156.00  5.9908234E-01
   7156.33  5.9489178E-01
   7156.67  5.9052119E-01
   7157.00  5.8607581E-01
   7157.33  5.8166985E-01
   7157.67  5.7739025E-01
   7158.00  5.7329912E-01
   7158.33  5.6948051E-01
   7158.67  5.6594005E-01
   7159.00  5.6269595E-01
   7159.33  5.5979459E-01
   7159.67  5.5719581E-01
   7160.00  5.5489244E-01
   7160.33  5.5290726E-01
   7160.67  5.5118886E-01
   7161.00  5.4972055E-01
   7161.33  5.4850842E-01
   7161.67  5.4749958E-01
   7162.00  5.4666694E-01
   7162.33  5.4598457E-01
   7162.67  5.4538422E-01
   7163.00  5.4481709E-01
   7163.33  5.4422107E-01
   7163.67  5.4354285E-01
   7164.00  5.4274018E-01
   7164.33  5.4175570E-01
   7164.67  5.4058989E-01
   7165.00  5.3924264E-01
   7165.33  5.3771246E-01
   7165.67  5.3605433E-01
   7166.00  5.3430608E-01
   7166.33  5.3250913E-01
   7166.67  5.3071168E-01
   7167.00  5.2894293E-01
   7167.33  5.2723186E-01
   7167.67  5.2558162E-01
   7168.00  5.2399080E-01
   7168.33  5.2245509E-01
   7168.67  5.2095228E-01
   7169.00  5.1946750E-01
   7169.33  5.1798664E-01
   7169.67  5.1650175E-01
   7170.00  5.1501414E-01
   7170.33  5.1353645E-01
   7170.67  5.1208993E-01
   7171.00  5.1070215E-01
   7171.33  5.0942833E-01
   7171.67  5.0831315E-01
   7172.00  5.0741593E-01
