    FDMNES
    energy     <xanes>
   7097.00  4.2849689E-03
   7097.33  4.3727347E-03
   7097.67  4.4639299E-03
   7098.00  4.5587638E-03
   7098.33  4.6579932E-03
   7098.67  4.7614276E-03
   7099.00  4.8693489E-03
   7099.33  4.9827284E-03
   7099.67  5.1013685E-03
   7100.00  5.2256603E-03
   7100.33  5.3568859E-03
   7100.67  5.4948556E-03
   7101.00  5.6401314E-03
   7101.33  5.7944648E-03
   7101.67  5.9577077E-03
   7102.00  6.1307036E-03
   7102.33  6.3159492E-03
   7102.67  6.5134157E-03
   7103.00  6.7244364E-03
   7103.33  6.9527653E-03
   7103.67  7.1986765E-03
   7104.00  7.4644184E-03
   7104.33  7.7560316E-03
   7104.67  8.0745512E-03
   7105.00  8.4240954E-03
   7105.33  8.8152776E-03
   7105.67  9.2511488E-03
   7106.00  9.7401076E-03
   7106.33  1.0303132E-02
   7106.67  1.0949199E-02
   7107.00  1.1698141E-02
   7107.33  1.2598821E-02
   7107.67  1.3680870E-02
   7108.00  1.5002172E-02
   7108.33  1.6707904E-02
   7108.67  1.8922259E-02
   7109.00  2.1879871E-02
   7109.33  2.6216289E-02
   7109.67  3.2719298E-02
   7110.00  4.2953715E-02
   7110.33  6.1367149E-02
   7110.67  9.0995004E-02
   7111.00  1.2434135E-01
   7111.33  1.3871727E-01
   7111.67  1.4480224E-01
   7112.00  1.5127236E-01
   7112.33  1.5739232E-01
   7112.67  1.5149257E-01
   7113.00  1.3079861E-01
   7113.33  1.0830756E-01
   7113.67  9.2675048E-02
   7114.00  8.1195945E-02
   7114.33  7.0219214E-02
   7114.67  6.1575705E-02
   7115.00  5.6739689E-02
   7115.33  5.5564760E-02
   7115.67  5.6771543E-02
   7116.00  5.9907447E-02
   7116.33  6.4809628E-02
   7116.67  7.0811321E-02
   7117.00  7.7272162E-02
   7117.33  8.3574749E-02
   7117.67  9.0144181E-02
   7118.00  9.7794241E-02
   7118.33  1.0704369E-01
   7118.67  1.1747078E-01
   7119.00  1.2869435E-01
   7119.33  1.4032303E-01
   7119.67  1.5208026E-01
   7120.00  1.6398727E-01
   7120.33  1.7627469E-01
   7120.67  1.8911056E-01
   7121.00  2.0263810E-01
   7121.33  2.1720862E-01
   7121.67  2.3325619E-01
   7122.00  2.5155385E-01
   7122.33  2.7310868E-01
   7122.67  2.9678501E-01
   7123.00  3.2066876E-01
   7123.33  3.4296682E-01
   7123.67  3.6457648E-01
   7124.00  3.8763807E-01
   7124.33  4.1450160E-01
   7124.67  4.4438175E-01
   7125.00  4.7594080E-01
   7125.33  5.0747927E-01
   7125.67  5.3757596E-01
   7126.00  5.6497771E-01
   7126.33  5.8750228E-01
   7126.67  6.0507456E-01
   7127.00  6.1872134E-01
   7127.33  6.2981815E-01
   7127.67  6.3937104E-01
   7128.00  6.4767946E-01
   7128.33  6.5533986E-01
   7128.67  6.6273945E-01
   7129.00  6.6896983E-01
   7129.33  6.7111245E-01
   7129.67  6.6734714E-01
   7130.00  6.5776897E-01
   7130.33  6.4533715E-01
   7130.67  6.3522959E-01
   7131.00  6.3064209E-01
   7131.33  6.3322952E-01
   7131.67  6.4015084E-01
   7132.00  6.4862953E-01
   7132.33  6.5589499E-01
   7132.67  6.6097368E-01
   7133.00  6.6406986E-01
   7133.33  6.6610462E-01
   7133.67  6.6837232E-01
   7134.00  6.7136108E-01
   7134.33  6.7470233E-01
   7134.67  6.7735050E-01
   7135.00  6.7856450E-01
   7135.33  6.7780835E-01
   7135.67  6.7556660E-01
   7136.00  6.7235997E-01
   7136.33  6.6885184E-01
   7136.67  6.6567741E-01
   7137.00  6.6319397E-01
   7137.33  6.6171417E-01
   7137.67  6.6112575E-01
   7138.00  6.6132269E-01
   7138.33  6.6219119E-01
   7138.67  6.6343528E-01
   7139.00  6.6485521E-01
   7139.33  6.6620874E-01
   7139.67  6.6727545E-01
   7140.00  6.6787585E-01
   7140.33  6.6775440E-01
   7140.67  6.6686687E-01
   7141.00  6.6515385E-01
   7141.33  6.6249556E-01
   7141.67  6.5903186E-01
   7142.00  6.5482003E-01
   7142.33  6.4985811E-01
   7142.67  6.4431760E-01
   7143.00  6.3828691E-01
   7143.33  6.3181355E-01
   7143.67  6.2500751E-01
   7144.00  6.1790600E-01
   7144.33  6.1052103E-01
   7144.67  6.0293701E-01
   7145.00  5.9521028E-01
   7145.33  5.8741289E-01
   7145.67  5.7964823E-01
   7146.00  5.7200836E-01
   7146.33  5.6463622E-01
   7146.67  5.5761701E-01
   7147.00  5.5104621E-01
   7147.33  5.4509201E-01
   7147.67  5.3976498E-01
   7148.00  5.3511064E-01
   7148.33  5.3123651E-01
   7148.67  5.2803927E-01
   7149.00  5.2547552E-01
   7149.33  5.2353242E-01
   7149.67  5.2202688E-01
   7150.00  5.2083955E-01
   7150.33  5.1983309E-01
   7150.67  5.1881355E-01
   7151.00  5.1762257E-01
   7151.33  5.1602944E-01
   7151.67  5.1390417E-01
   7152.00  5.1111923E-01
   7152.33  5.0747040E-01
   7152.67  5.0300420E-01
   7153.00  4.9773173E-01
   7153.33  4.9161754E-01
   7153.67  4.8484354E-01
   7154.00  4.7750022E-01
   7154.33  4.6963525E-01
   7154.67  4.6139481E-01
   7155.00  4.5284359E-01
   7155.33  4.4401960E-01
   7155.67  4.3501994E-01
   7156.00  4.2590528E-01
   7156.33  4.1674814E-01
   7156.67  4.0763841E-01
   7157.00  3.9865404E-01
   7157.33  3.8991250E-01
   7157.67  3.8147045E-01
   7158.00  3.7338894E-01
   7158.33  3.6577224E-01
   7158.67  3.5860020E-01
   7159.00  3.5188476E-01
   7159.33  3.4568226E-01
   7159.67  3.3992459E-01
   7160.00  3.3459789E-01
   7160.33  3.2973702E-01
   7160.67  3.2527738E-01
   7161.00  3.2121414E-01
   7161.33  3.1759945E-01
   7161.67  3.1439325E-01
   7162.00  3.1160929E-01
   7162.33  3.0932424E-01
   7162.67  3.0750423E-01
   7163.00  3.0616265E-01
   7163.33  3.0537402E-01
   7163.67  3.0508701E-01
   7164.00  3.0530524E-01
   7164.33  3.0609065E-01
   7164.67  3.0737218E-01
   7165.00  3.0913726E-01
   7165.33  3.1142304E-01
   7165.67  3.1414492E-01
   7166.00  3.1727606E-01
   7166.33  3.2082929E-01
   7166.67  3.2472135E-01
   7167.00  3.2891899E-01
   7167.33  3.3341443E-01
   7167.67  3.3813305E-01
   7168.00  3.4303981E-01
   7168.33  3.4811415E-01
   7168.67  3.5329980E-01
   7169.00  3.5856564E-01
   7169.33  3.6388240E-01
   7169.67  3.6920983E-01
   7170.00  3.7451711E-01
   7170.33  3.7975693E-01
   7170.67  3.8488621E-01
   7171.00  3.8984348E-01
   7171.33  3.9447732E-01
   7171.67  3.9861619E-01
   7172.00  4.0199094E-01
