    FDMNES
    energy     <xanes>
   7097.00  4.3428644E-03
   7097.33  4.4287735E-03
   7097.67  4.5178301E-03
   7098.00  4.6102092E-03
   7098.33  4.7065761E-03
   7098.67  4.8067318E-03
   7099.00  4.9109050E-03
   7099.33  5.0199273E-03
   7099.67  5.1335843E-03
   7100.00  5.2521827E-03
   7100.33  5.3767861E-03
   7100.67  5.5071710E-03
   7101.00  5.6437613E-03
   7101.33  5.7879559E-03
   7101.67  5.9395384E-03
   7102.00  6.0991170E-03
   7102.33  6.2685979E-03
   7102.67  6.4478100E-03
   7103.00  6.6376670E-03
   7103.33  6.8408861E-03
   7103.67  7.0574322E-03
   7104.00  7.2887607E-03
   7104.33  7.5389777E-03
   7104.67  7.8084085E-03
   7105.00  8.0995513E-03
   7105.33  8.4191136E-03
   7105.67  8.7683751E-03
   7106.00  9.1520731E-03
   7106.33  9.5823938E-03
   7106.67  1.0063341E-02
   7107.00  1.0605209E-02
   7107.33  1.1233744E-02
   7107.67  1.1961940E-02
   7108.00  1.2817048E-02
   7108.33  1.3867235E-02
   7108.67  1.5163444E-02
   7109.00  1.6803690E-02
   7109.33  1.9047552E-02
   7109.67  2.2185660E-02
   7110.00  2.6790417E-02
   7110.33  3.4492266E-02
   7110.67  4.6805668E-02
   7111.00  6.3223184E-02
   7111.33  7.8643921E-02
   7111.67  9.1755737E-02
   7112.00  1.0247009E-01
   7112.33  1.1268590E-01
   7112.67  1.2230483E-01
   7113.00  1.2199020E-01
   7113.33  1.0934772E-01
   7113.67  9.4089195E-02
   7114.00  7.9523962E-02
   7114.33  6.9623201E-02
   7114.67  6.4706923E-02
   7115.00  6.4000211E-02
   7115.33  6.7042289E-02
   7115.67  7.2880826E-02
   7116.00  8.1017853E-02
   7116.33  9.0138607E-02
   7116.67  9.8828876E-02
   7117.00  1.0835072E-01
   7117.33  1.2041539E-01
   7117.67  1.3396899E-01
   7118.00  1.4777288E-01
   7118.33  1.6129014E-01
   7118.67  1.7534501E-01
   7119.00  1.9125626E-01
   7119.33  2.1143251E-01
   7119.67  2.3732649E-01
   7120.00  2.6983295E-01
   7120.33  3.0852798E-01
   7120.67  3.4891844E-01
   7121.00  3.8697516E-01
   7121.33  4.1854723E-01
   7121.67  4.4261158E-01
   7122.00  4.5875898E-01
   7122.33  4.6687059E-01
   7122.67  4.6975610E-01
   7123.00  4.6946691E-01
   7123.33  4.6810975E-01
   7123.67  4.6737806E-01
   7124.00  4.6776484E-01
   7124.33  4.6880752E-01
   7124.67  4.6932275E-01
   7125.00  4.6887677E-01
   7125.33  4.6841189E-01
   7125.67  4.6976873E-01
   7126.00  4.7405077E-01
   7126.33  4.8146545E-01
   7126.67  4.9016557E-01
   7127.00  4.9856378E-01
   7127.33  5.0534266E-01
   7127.67  5.1065883E-01
   7128.00  5.1499539E-01
   7128.33  5.1890434E-01
   7128.67  5.2306086E-01
   7129.00  5.2783945E-01
   7129.33  5.3279947E-01
   7129.67  5.3722833E-01
   7130.00  5.4173578E-01
   7130.33  5.4799440E-01
   7130.67  5.5614376E-01
   7131.00  5.6538018E-01
   7131.33  5.7440339E-01
   7131.67  5.8230956E-01
   7132.00  5.8880161E-01
   7132.33  5.9391767E-01
   7132.67  5.9837095E-01
   7133.00  6.0273886E-01
   7133.33  6.0763670E-01
   7133.67  6.1325836E-01
   7134.00  6.1955998E-01
   7134.33  6.2635001E-01
   7134.67  6.3318512E-01
   7135.00  6.3963561E-01
   7135.33  6.4508491E-01
   7135.67  6.4927039E-01
   7136.00  6.5197716E-01
   7136.33  6.5278909E-01
   7136.67  6.5174796E-01
   7137.00  6.4877501E-01
   7137.33  6.4366382E-01
   7137.67  6.3684216E-01
   7138.00  6.2858727E-01
   7138.33  6.1914857E-01
   7138.67  6.0902410E-01
   7139.00  5.9846883E-01
   7139.33  5.8764047E-01
   7139.67  5.7664726E-01
   7140.00  5.6550613E-01
   7140.33  5.5422675E-01
   7140.67  5.4291336E-01
   7141.00  5.3171754E-01
   7141.33  5.2094186E-01
   7141.67  5.1084247E-01
   7142.00  5.0167663E-01
   7142.33  4.9384681E-01
   7142.67  4.8738554E-01
   7143.00  4.8238592E-01
   7143.33  4.7907933E-01
   7143.67  4.7726239E-01
   7144.00  4.7688180E-01
   7144.33  4.7799686E-01
   7144.67  4.8029169E-01
   7145.00  4.8361865E-01
   7145.33  4.8790561E-01
   7145.67  4.9286290E-01
   7146.00  4.9833361E-01
   7146.33  5.0418658E-01
   7146.67  5.1022462E-01
   7147.00  5.1632969E-01
   7147.33  5.2237962E-01
   7147.67  5.2829233E-01
   7148.00  5.3401443E-01
   7148.33  5.3948927E-01
   7148.67  5.4475653E-01
   7149.00  5.4985853E-01
   7149.33  5.5487388E-01
   7149.67  5.5993770E-01
   7150.00  5.6518128E-01
   7150.33  5.7080936E-01
   7150.67  5.7691833E-01
   7151.00  5.8358320E-01
   7151.33  5.9088260E-01
   7151.67  5.9864662E-01
   7152.00  6.0669371E-01
   7152.33  6.1469413E-01
   7152.67  6.2222933E-01
   7153.00  6.2889391E-01
   7153.33  6.3405612E-01
   7153.67  6.3748607E-01
   7154.00  6.3894085E-01
   7154.33  6.3801928E-01
   7154.67  6.3501008E-01
   7155.00  6.3004989E-01
   7155.33  6.2318813E-01
   7155.67  6.1496363E-01
   7156.00  6.0567825E-01
   7156.33  5.9558722E-01
   7156.67  5.8509528E-01
   7157.00  5.7443865E-01
   7157.33  5.6385539E-01
   7157.67  5.5351822E-01
   7158.00  5.4354429E-01
   7158.33  5.3408842E-01
   7158.67  5.2515738E-01
   7159.00  5.1679027E-01
   7159.33  5.0908668E-01
   7159.67  5.0197374E-01
   7160.00  4.9544059E-01
   7160.33  4.8953728E-01
   7160.67  4.8416702E-01
   7161.00  4.7930337E-01
   7161.33  4.7497617E-01
   7161.67  4.7108949E-01
   7162.00  4.6760605E-01
   7162.33  4.6452617E-01
   7162.67  4.6175981E-01
   7163.00  4.5926677E-01
   7163.33  4.5702783E-01
   7163.67  4.5496907E-01
   7164.00  4.5305432E-01
   7164.33  4.5125933E-01
   7164.67  4.4953913E-01
   7165.00  4.4787279E-01
   7165.33  4.4624923E-01
   7165.67  4.4465707E-01
   7166.00  4.4309670E-01
   7166.33  4.4157549E-01
   7166.67  4.4009448E-01
   7167.00  4.3866267E-01
   7167.33  4.3729994E-01
   7167.67  4.3600988E-01
   7168.00  4.3480066E-01
   7168.33  4.3369043E-01
   7168.67  4.3267330E-01
   7169.00  4.3175231E-01
   7169.33  4.3094090E-01
   7169.67  4.3022606E-01
   7170.00  4.2960608E-01
   7170.33  4.2908851E-01
   7170.67  4.2865566E-01
   7171.00  4.2830043E-01
   7171.33  4.2802134E-01
   7171.67  4.2779788E-01
   7172.00  4.2761835E-01
