    FDMNES
    energy     <xanes>
   7097.00  4.0345941E-03
   7097.33  4.1107837E-03
   7097.67  4.1896750E-03
   7098.00  4.2714198E-03
   7098.33  4.3565931E-03
   7098.67  4.4450282E-03
   7099.00  4.5369270E-03
   7099.33  4.6330153E-03
   7099.67  4.7331179E-03
   7100.00  4.8375114E-03
   7100.33  4.9471377E-03
   7100.67  5.0618227E-03
   7101.00  5.1819593E-03
   7101.33  5.3088129E-03
   7101.67  5.4422327E-03
   7102.00  5.5828022E-03
   7102.33  5.7322961E-03
   7102.67  5.8906392E-03
   7103.00  6.0587456E-03
   7103.33  6.2392450E-03
   7103.67  6.4322603E-03
   7104.00  6.6393237E-03
   7104.33  6.8646138E-03
   7104.67  7.1087613E-03
   7105.00  7.3745601E-03
   7105.33  7.6692827E-03
   7105.67  7.9949161E-03
   7106.00  8.3571472E-03
   7106.33  8.7702598E-03
   7106.67  9.2402458E-03
   7107.00  9.7805289E-03
   7107.33  1.0424262E-02
   7107.67  1.1191405E-02
   7108.00  1.2121103E-02
   7108.33  1.3311540E-02
   7108.67  1.4846260E-02
   7109.00  1.6882953E-02
   7109.33  1.9847361E-02
   7109.67  2.4262126E-02
   7110.00  3.1164528E-02
   7110.33  4.3555512E-02
   7110.67  6.4140468E-02
   7111.00  9.0468542E-02
   7111.33  1.0590658E-01
   7111.67  1.0593464E-01
   7112.00  9.4004421E-02
   7112.33  8.1554602E-02
   7112.67  7.6993425E-02
   7113.00  8.0763550E-02
   7113.33  8.7688238E-02
   7113.67  8.7587544E-02
   7114.00  7.8465114E-02
   7114.33  6.5640033E-02
   7114.67  5.4351123E-02
   7115.00  4.6281136E-02
   7115.33  4.1730727E-02
   7115.67  3.9492412E-02
   7116.00  3.8895061E-02
   7116.33  3.9320215E-02
   7116.67  4.0016900E-02
   7117.00  4.0766223E-02
   7117.33  4.1652125E-02
   7117.67  4.2638704E-02
   7118.00  4.3647592E-02
   7118.33  4.4836665E-02
   7118.67  4.6470329E-02
   7119.00  4.8717516E-02
   7119.33  5.1784967E-02
   7119.67  5.5730420E-02
   7120.00  6.0745570E-02
   7120.33  6.7263508E-02
   7120.67  7.5423720E-02
   7121.00  8.5560475E-02
   7121.33  9.8503900E-02
   7121.67  1.1455266E-01
   7122.00  1.3414254E-01
   7122.33  1.5790429E-01
   7122.67  1.8518869E-01
   7123.00  2.1549249E-01
   7123.33  2.4763922E-01
   7123.67  2.7940376E-01
   7124.00  3.0943035E-01
   7124.33  3.3737472E-01
   7124.67  3.6493740E-01
   7125.00  3.9400063E-01
   7125.33  4.2709992E-01
   7125.67  4.6525006E-01
   7126.00  5.0883691E-01
   7126.33  5.5707151E-01
   7126.67  6.0549083E-01
   7127.00  6.4912026E-01
   7127.33  6.8214410E-01
   7127.67  7.0560174E-01
   7128.00  7.2321108E-01
   7128.33  7.4063743E-01
   7128.67  7.6163543E-01
   7129.00  7.8678860E-01
   7129.33  8.1402248E-01
   7129.67  8.3832483E-01
   7130.00  8.5589860E-01
   7130.33  8.6557062E-01
   7130.67  8.7148948E-01
   7131.00  8.7608957E-01
   7131.33  8.8029988E-01
   7131.67  8.8438379E-01
   7132.00  8.8880014E-01
   7132.33  8.9410306E-01
   7132.67  8.9954672E-01
   7133.00  9.0358062E-01
   7133.33  9.0385595E-01
   7133.67  8.9984694E-01
   7134.00  8.9166534E-01
   7134.33  8.7915183E-01
   7134.67  8.6241911E-01
   7135.00  8.4095749E-01
   7135.33  8.1520410E-01
   7135.67  7.8889163E-01
   7136.00  7.6509274E-01
   7136.33  7.4564606E-01
   7136.67  7.2923843E-01
   7137.00  7.1476123E-01
   7137.33  7.0147315E-01
   7137.67  6.8884051E-01
   7138.00  6.7673450E-01
   7138.33  6.6516304E-01
   7138.67  6.5404775E-01
   7139.00  6.4337325E-01
   7139.33  6.3316704E-01
   7139.67  6.2335730E-01
   7140.00  6.1393731E-01
   7140.33  6.0495947E-01
   7140.67  5.9638757E-01
   7141.00  5.8823739E-01
   7141.33  5.8058615E-01
   7141.67  5.7341710E-01
   7142.00  5.6678176E-01
   7142.33  5.6080372E-01
   7142.67  5.5545821E-01
   7143.00  5.5079699E-01
   7143.33  5.4698399E-01
   7143.67  5.4399459E-01
   7144.00  5.4187716E-01
   7144.33  5.4077044E-01
   7144.67  5.4053885E-01
   7145.00  5.4110943E-01
   7145.33  5.4240345E-01
   7145.67  5.4411111E-01
   7146.00  5.4600842E-01
   7146.33  5.4779463E-01
   7146.67  5.4915567E-01
   7147.00  5.4979941E-01
   7147.33  5.4928473E-01
   7147.67  5.4750865E-01
   7148.00  5.4437316E-01
   7148.33  5.3973648E-01
   7148.67  5.3392815E-01
   7149.00  5.2716540E-01
   7149.33  5.1965095E-01
   7149.67  5.1172439E-01
   7150.00  5.0354482E-01
   7150.33  4.9518867E-01
   7150.67  4.8667835E-01
   7151.00  4.7795945E-01
   7151.33  4.6889876E-01
   7151.67  4.5943932E-01
   7152.00  4.4952953E-01
   7152.33  4.3912129E-01
   7152.67  4.2834560E-01
   7153.00  4.1731302E-01
   7153.33  4.0618623E-01
   7153.67  3.9517583E-01
   7154.00  3.8445218E-01
   7154.33  3.7424758E-01
   7154.67  3.6464012E-01
   7155.00  3.5570984E-01
   7155.33  3.4759607E-01
   7155.67  3.4021130E-01
   7156.00  3.3352581E-01
   7156.33  3.2755168E-01
   7156.67  3.2211715E-01
   7157.00  3.1713132E-01
   7157.33  3.1253038E-01
   7157.67  3.0817923E-01
   7158.00  3.0402047E-01
   7158.33  3.0004285E-01
   7158.67  2.9624132E-01
   7159.00  2.9266419E-01
   7159.33  2.8943844E-01
   7159.67  2.8663240E-01
   7160.00  2.8433925E-01
   7160.33  2.8272938E-01
   7160.67  2.8179567E-01
   7161.00  2.8157097E-01
   7161.33  2.8215298E-01
   7161.67  2.8342721E-01
   7162.00  2.8535035E-01
   7162.33  2.8792937E-01
   7162.67  2.9101310E-01
   7163.00  2.9452577E-01
   7163.33  2.9842497E-01
   7163.67  3.0259248E-01
   7164.00  3.0697001E-01
   7164.33  3.1151638E-01
   7164.67  3.1616249E-01
   7165.00  3.2087350E-01
   7165.33  3.2562415E-01
   7165.67  3.3039195E-01
   7166.00  3.3516946E-01
   7166.33  3.3995610E-01
   7166.67  3.4474932E-01
   7167.00  3.4954447E-01
   7167.33  3.5434201E-01
   7167.67  3.5914445E-01
   7168.00  3.6395137E-01
   7168.33  3.6875915E-01
   7168.67  3.7356063E-01
   7169.00  3.7834682E-01
   7169.33  3.8310053E-01
   7169.67  3.8780793E-01
   7170.00  3.9245025E-01
   7170.33  3.9698803E-01
   7170.67  4.0139383E-01
   7171.00  4.0561864E-01
   7171.33  4.0953701E-01
   7171.67  4.1302076E-01
   7172.00  4.1586026E-01
