    FDMNES
    energy     <xanes>
   7097.00  4.4195175E-03
   7097.33  4.5156517E-03
   7097.67  4.6157829E-03
   7098.00  4.7201662E-03
   7098.33  4.8297014E-03
   7098.67  4.9441800E-03
   7099.00  5.0639469E-03
   7099.33  5.1901656E-03
   7099.67  5.3226205E-03
   7100.00  5.4617913E-03
   7100.33  5.6092238E-03
   7100.67  5.7647124E-03
   7101.00  5.9289468E-03
   7101.33  6.1040479E-03
   7101.67  6.2898594E-03
   7102.00  6.4874129E-03
   7102.33  6.6997356E-03
   7102.67  6.9268088E-03
   7103.00  7.1702506E-03
   7103.33  7.4345985E-03
   7103.67  7.7201747E-03
   7104.00  8.0296729E-03
   7104.33  8.3703244E-03
   7104.67  8.7432898E-03
   7105.00  9.1534003E-03
   7105.33  9.6131299E-03
   7105.67  1.0125795E-02
   7106.00  1.0700947E-02
   7106.33  1.1362494E-02
   7106.67  1.2119846E-02
   7107.00  1.2994560E-02
   7107.33  1.4039704E-02
   7107.67  1.5284800E-02
   7108.00  1.6788775E-02
   7108.33  1.8698098E-02
   7108.67  2.1127497E-02
   7109.00  2.4293994E-02
   7109.33  2.8771815E-02
   7109.67  3.5214890E-02
   7110.00  4.4908076E-02
   7110.33  6.1554656E-02
   7110.67  8.9023596E-02
   7111.00  1.2749048E-01
   7111.33  1.6128034E-01
   7111.67  1.8078534E-01
   7112.00  1.9728922E-01
   7112.33  2.2270082E-01
   7112.67  2.3828489E-01
   7113.00  2.3281265E-01
   7113.33  2.0674419E-01
   7113.67  1.7326268E-01
   7114.00  1.4267349E-01
   7114.33  1.2289398E-01
   7114.67  1.1268678E-01
   7115.00  1.0777510E-01
   7115.33  1.0066732E-01
   7115.67  9.1748551E-02
   7116.00  8.5171875E-02
   7116.33  8.2194247E-02
   7116.67  8.1575723E-02
   7117.00  8.3349414E-02
   7117.33  8.8534467E-02
   7117.67  9.7465537E-02
   7118.00  1.1068220E-01
   7118.33  1.2895648E-01
   7118.67  1.5053964E-01
   7119.00  1.7286513E-01
   7119.33  1.9149262E-01
   7119.67  2.0111902E-01
   7120.00  2.0021123E-01
   7120.33  1.9607933E-01
   7120.67  1.9645854E-01
   7121.00  2.0247003E-01
   7121.33  2.1363283E-01
   7121.67  2.2891987E-01
   7122.00  2.4861122E-01
   7122.33  2.7363937E-01
   7122.67  3.0307479E-01
   7123.00  3.3561433E-01
   7123.33  3.6830270E-01
   7123.67  3.9721463E-01
   7124.00  4.1955804E-01
   7124.33  4.3357781E-01
   7124.67  4.4218429E-01
   7125.00  4.4837106E-01
   7125.33  4.5604696E-01
   7125.67  4.6722242E-01
   7126.00  4.8126802E-01
   7126.33  4.9537424E-01
   7126.67  5.0695232E-01
   7127.00  5.1518352E-01
   7127.33  5.2003828E-01
   7127.67  5.2291662E-01
   7128.00  5.2494829E-01
   7128.33  5.2737910E-01
   7128.67  5.3082299E-01
   7129.00  5.3530532E-01
   7129.33  5.4052718E-01
   7129.67  5.4595158E-01
   7130.00  5.5130919E-01
   7130.33  5.5644932E-01
   7130.67  5.6146210E-01
   7131.00  5.6649152E-01
   7131.33  5.7174647E-01
   7131.67  5.7743253E-01
   7132.00  5.8381643E-01
   7132.33  5.9115687E-01
   7132.67  5.9885689E-01
   7133.00  6.0598587E-01
   7133.33  6.1145259E-01
   7133.67  6.1547230E-01
   7134.00  6.1882487E-01
   7134.33  6.2278796E-01
   7134.67  6.2812712E-01
   7135.00  6.3490354E-01
   7135.33  6.4263192E-01
   7135.67  6.5034395E-01
   7136.00  6.5739822E-01
   7136.33  6.6320654E-01
   7136.67  6.6778321E-01
   7137.00  6.7120645E-01
   7137.33  6.7354323E-01
   7137.67  6.7511262E-01
   7138.00  6.7605556E-01
   7138.33  6.7643101E-01
   7138.67  6.7641536E-01
   7139.00  6.7614097E-01
   7139.33  6.7580755E-01
   7139.67  6.7565143E-01
   7140.00  6.7584482E-01
   7140.33  6.7656009E-01
   7140.67  6.7771322E-01
   7141.00  6.7914957E-01
   7141.33  6.8053587E-01
   7141.67  6.8143923E-01
   7142.00  6.8146388E-01
   7142.33  6.8007374E-01
   7142.67  6.7722492E-01
   7143.00  6.7292818E-01
   7143.33  6.6726537E-01
   7143.67  6.6077575E-01
   7144.00  6.5382874E-01
   7144.33  6.4682865E-01
   7144.67  6.4014427E-01
   7145.00  6.3398633E-01
   7145.33  6.2855032E-01
   7145.67  6.2380194E-01
   7146.00  6.1974969E-01
   7146.33  6.1646069E-01
   7146.67  6.1380893E-01
   7147.00  6.1174206E-01
   7147.33  6.1023852E-01
   7147.67  6.0912168E-01
   7148.00  6.0826592E-01
   7148.33  6.0749964E-01
   7148.67  6.0659640E-01
   7149.00  6.0535016E-01
   7149.33  6.0344738E-01
   7149.67  6.0075380E-01
   7150.00  5.9714217E-01
   7150.33  5.9241870E-01
   7150.67  5.8672765E-01
   7151.00  5.8016034E-01
   7151.33  5.7279889E-01
   7151.67  5.6493802E-01
   7152.00  5.5675705E-01
   7152.33  5.4842850E-01
   7152.67  5.4012332E-01
   7153.00  5.3193253E-01
   7153.33  5.2393059E-01
   7153.67  5.1610745E-01
   7154.00  5.0844895E-01
   7154.33  5.0093747E-01
   7154.67  4.9351505E-01
   7155.00  4.8614732E-01
   7155.33  4.7880096E-01
   7155.67  4.7144408E-01
   7156.00  4.6405866E-01
   7156.33  4.5662802E-01
   7156.67  4.4915627E-01
   7157.00  4.4165186E-01
   7157.33  4.3413319E-01
   7157.67  4.2663304E-01
   7158.00  4.1918668E-01
   7158.33  4.1185451E-01
   7158.67  4.0467541E-01
   7159.00  3.9769428E-01
   7159.33  3.9099228E-01
   7159.67  3.8458484E-01
   7160.00  3.7850774E-01
   7160.33  3.7284082E-01
   7160.67  3.6756541E-01
   7161.00  3.6270180E-01
   7161.33  3.5832732E-01
   7161.67  3.5441151E-01
   7162.00  3.5097570E-01
   7162.33  3.4810735E-01
   7162.67  3.4576519E-01
   7163.00  3.4395948E-01
   7163.33  3.4275773E-01
   7163.67  3.4208324E-01
   7164.00  3.4191379E-01
   7164.33  3.4225974E-01
   7164.67  3.4299507E-01
   7165.00  3.4404626E-01
   7165.33  3.4534324E-01
   7165.67  3.4675673E-01
   7166.00  3.4820385E-01
   7166.33  3.4959752E-01
   7166.67  3.5088719E-01
   7167.00  3.5204752E-01
   7167.33  3.5305998E-01
   7167.67  3.5396413E-01
   7168.00  3.5479336E-01
   7168.33  3.5558905E-01
   7168.67  3.5639680E-01
   7169.00  3.5724399E-01
   7169.33  3.5815674E-01
   7169.67  3.5913292E-01
   7170.00  3.6016801E-01
   7170.33  3.6125532E-01
   7170.67  3.6237117E-01
   7171.00  3.6349600E-01
   7171.33  3.6459270E-01
   7171.67  3.6560211E-01
   7172.00  3.6643795E-01
