    FDMNES
    energy     <xanes>
   7097.00  4.9892754E-03
   7097.33  5.1046503E-03
   7097.67  5.2251640E-03
   7098.00  5.3511599E-03
   7098.33  5.4838198E-03
   7098.67  5.6228949E-03
   7099.00  5.7688516E-03
   7099.33  5.9232312E-03
   7099.67  6.0857777E-03
   7100.00  6.2571426E-03
   7100.33  6.4393880E-03
   7100.67  6.6322740E-03
   7101.00  6.8367389E-03
   7101.33  7.0556285E-03
   7101.67  7.2887702E-03
   7102.00  7.5375668E-03
   7102.33  7.8060943E-03
   7102.67  8.0943619E-03
   7103.00  8.4045626E-03
   7103.33  8.7428070E-03
   7103.67  9.1095474E-03
   7104.00  9.5084066E-03
   7104.33  9.9490838E-03
   7104.67  1.0433101E-02
   7105.00  1.0966877E-02
   7105.33  1.1566979E-02
   7105.67  1.2237632E-02
   7106.00  1.2991292E-02
   7106.33  1.3859174E-02
   7106.67  1.4852971E-02
   7107.00  1.6000090E-02
   7107.33  1.7368001E-02
   7107.67  1.8992403E-02
   7108.00  2.0945663E-02
   7108.33  2.3407125E-02
   7108.67  2.6510885E-02
   7109.00  3.0511926E-02
   7109.33  3.6079509E-02
   7109.67  4.3947305E-02
   7110.00  5.5551410E-02
   7110.33  7.4989992E-02
   7110.67  1.0648092E-01
   7111.00  1.5098154E-01
   7111.33  1.9807573E-01
   7111.67  2.3417766E-01
   7112.00  2.5857894E-01
   7112.33  2.8336206E-01
   7112.67  3.0651835E-01
   7113.00  3.3537127E-01
   7113.33  3.7231138E-01
   7113.67  3.7873381E-01
   7114.00  3.4358050E-01
   7114.33  2.9551339E-01
   7114.67  2.5098290E-01
   7115.00  2.1423400E-01
   7115.33  1.8768411E-01
   7115.67  1.6839181E-01
   7116.00  1.5429561E-01
   7116.33  1.4435259E-01
   7116.67  1.3858678E-01
   7117.00  1.3781286E-01
   7117.33  1.4162416E-01
   7117.67  1.4720043E-01
   7118.00  1.5331389E-01
   7118.33  1.6111955E-01
   7118.67  1.7222570E-01
   7119.00  1.8539534E-01
   7119.33  1.9402886E-01
   7119.67  1.9507288E-01
   7120.00  1.9205875E-01
   7120.33  1.9078757E-01
   7120.67  1.9295879E-01
   7121.00  1.9741026E-01
   7121.33  2.0159223E-01
   7121.67  2.0418027E-01
   7122.00  2.0602512E-01
   7122.33  2.0973906E-01
   7122.67  2.1695658E-01
   7123.00  2.2747211E-01
   7123.33  2.3875591E-01
   7123.67  2.4749163E-01
   7124.00  2.5280339E-01
   7124.33  2.5679731E-01
   7124.67  2.6356790E-01
   7125.00  2.7583591E-01
   7125.33  2.9557339E-01
   7125.67  3.2078555E-01
   7126.00  3.4985011E-01
   7126.33  3.8230834E-01
   7126.67  4.1767567E-01
   7127.00  4.5565863E-01
   7127.33  4.9564133E-01
   7127.67  5.3597259E-01
   7128.00  5.7460101E-01
   7128.33  6.0803089E-01
   7128.67  6.3609534E-01
   7129.00  6.6077033E-01
   7129.33  6.8429492E-01
   7129.67  7.0727681E-01
   7130.00  7.2970916E-01
   7130.33  7.5232622E-01
   7130.67  7.7573588E-01
   7131.00  7.9996893E-01
   7131.33  8.2535471E-01
   7131.67  8.5225312E-01
   7132.00  8.8043933E-01
   7132.33  9.0811985E-01
   7132.67  9.3240702E-01
   7133.00  9.5050631E-01
   7133.33  9.5860844E-01
   7133.67  9.5650638E-01
   7134.00  9.4440166E-01
   7134.33  9.2213622E-01
   7134.67  8.9147891E-01
   7135.00  8.5313067E-01
   7135.33  8.0868405E-01
   7135.67  7.6203108E-01
   7136.00  7.1576217E-01
   7136.33  6.7266652E-01
   7136.67  6.3394471E-01
   7137.00  6.0018580E-01
   7137.33  5.7206460E-01
   7137.67  5.4860582E-01
   7138.00  5.2937660E-01
   7138.33  5.1432384E-01
   7138.67  5.0251832E-01
   7139.00  4.9359611E-01
   7139.33  4.8743421E-01
   7139.67  4.8327548E-01
   7140.00  4.8076082E-01
   7140.33  4.7978351E-01
   7140.67  4.8012874E-01
   7141.00  4.8190740E-01
   7141.33  4.8547428E-01
   7141.67  4.9065892E-01
   7142.00  4.9729684E-01
   7142.33  5.0508612E-01
   7142.67  5.1324993E-01
   7143.00  5.2109536E-01
   7143.33  5.2755518E-01
   7143.67  5.3185075E-01
   7144.00  5.3329441E-01
   7144.33  5.3101059E-01
   7144.67  5.2550160E-01
   7145.00  5.1732018E-01
   7145.33  5.0732175E-01
   7145.67  4.9692941E-01
   7146.00  4.8709451E-01
   7146.33  4.7880127E-01
   7146.67  4.7230514E-01
   7147.00  4.6768119E-01
   7147.33  4.6496166E-01
   7147.67  4.6357760E-01
   7148.00  4.6317652E-01
   7148.33  4.6345120E-01
   7148.67  4.6403354E-01
   7149.00  4.6474985E-01
   7149.33  4.6545636E-01
   7149.67  4.6605411E-01
   7150.00  4.6648534E-01
   7150.33  4.6668835E-01
   7150.67  4.6668270E-01
   7151.00  4.6648096E-01
   7151.33  4.6608163E-01
   7151.67  4.6551715E-01
   7152.00  4.6477876E-01
   7152.33  4.6380630E-01
   7152.67  4.6257405E-01
   7153.00  4.6102876E-01
   7153.33  4.5905334E-01
   7153.67  4.5662522E-01
   7154.00  4.5368472E-01
   7154.33  4.5008864E-01
   7154.67  4.4583911E-01
   7155.00  4.4088077E-01
   7155.33  4.3507823E-01
   7155.67  4.2853462E-01
   7156.00  4.2131758E-01
   7156.33  4.1352044E-01
   7156.67  4.0544285E-01
   7157.00  3.9732588E-01
   7157.33  3.8948433E-01
   7157.67  3.8213826E-01
   7158.00  3.7545812E-01
   7158.33  3.6968366E-01
   7158.67  3.6479220E-01
   7159.00  3.6080833E-01
   7159.33  3.5783168E-01
   7159.67  3.5570460E-01
   7160.00  3.5437022E-01
   7160.33  3.5384180E-01
   7160.67  3.5395499E-01
   7161.00  3.5465484E-01
   7161.33  3.5595997E-01
   7161.67  3.5777261E-01
   7162.00  3.6007927E-01
   7162.33  3.6293277E-01
   7162.67  3.6626147E-01
   7163.00  3.7004892E-01
   7163.33  3.7432087E-01
   7163.67  3.7897888E-01
   7164.00  3.8396769E-01
   7164.33  3.8923568E-01
   7164.67  3.9465493E-01
   7165.00  4.0013793E-01
   7165.33  4.0558143E-01
   7165.67  4.1089914E-01
   7166.00  4.1602592E-01
   7166.33  4.2087720E-01
   7166.67  4.2545422E-01
   7167.00  4.2974971E-01
   7167.33  4.3373914E-01
   7167.67  4.3748084E-01
   7168.00  4.4100416E-01
   7168.33  4.4432767E-01
   7168.67  4.4751771E-01
   7169.00  4.5061190E-01
   7169.33  4.5364338E-01
   7169.67  4.5665106E-01
   7170.00  4.5965304E-01
   7170.33  4.6265699E-01
   7170.67  4.6565096E-01
   7171.00  4.6860411E-01
   7171.33  4.7142839E-01
   7171.67  4.7399681E-01
   7172.00  4.7612397E-01
