    FDMNES
    energy     <xanes>
   7097.00  5.1021262E-03
   7097.33  5.2233284E-03
   7097.67  5.3500867E-03
   7098.00  5.4827818E-03
   7098.33  5.6227071E-03
   7098.67  5.7696063E-03
   7099.00  5.9239993E-03
   7099.33  6.0875831E-03
   7099.67  6.2600973E-03
   7100.00  6.4422721E-03
   7100.33  6.6363930E-03
   7100.67  6.8422232E-03
   7101.00  7.0608208E-03
   7101.33  7.2953617E-03
   7101.67  7.5456941E-03
   7102.00  7.8134097E-03
   7102.33  8.1030916E-03
   7102.67  8.4148089E-03
   7103.00  8.7510673E-03
   7103.33  9.1187934E-03
   7103.67  9.5185889E-03
   7104.00  9.9546253E-03
   7104.33  1.0437997E-02
   7104.67  1.0970590E-02
   7105.00  1.1559862E-02
   7105.33  1.2224965E-02
   7105.67  1.2971047E-02
   7106.00  1.3812752E-02
   7106.33  1.4786644E-02
   7106.67  1.5906995E-02
   7107.00  1.7206541E-02
   7107.33  1.8765780E-02
   7107.67  2.0628910E-02
   7108.00  2.2884487E-02
   7108.33  2.5752579E-02
   7108.67  2.9404083E-02
   7109.00  3.4163337E-02
   7109.33  4.0889841E-02
   7109.67  5.0563850E-02
   7110.00  6.5116429E-02
   7110.33  9.0091679E-02
   7110.67  1.3088681E-01
   7111.00  1.8593922E-01
   7111.33  2.3077271E-01
   7111.67  2.5697120E-01
   7112.00  2.7500801E-01
   7112.33  2.9497119E-01
   7112.67  3.1984381E-01
   7113.00  3.4990927E-01
   7113.33  3.8653306E-01
   7113.67  4.1743741E-01
   7114.00  4.2461083E-01
   7114.33  3.9319880E-01
   7114.67  3.3994661E-01
   7115.00  2.8549890E-01
   7115.33  2.4441497E-01
   7115.67  2.1572247E-01
   7116.00  1.9596979E-01
   7116.33  1.8064373E-01
   7116.67  1.6523128E-01
   7117.00  1.4931475E-01
   7117.33  1.3563291E-01
   7117.67  1.2578969E-01
   7118.00  1.1991876E-01
   7118.33  1.1763259E-01
   7118.67  1.1735057E-01
   7119.00  1.1833742E-01
   7119.33  1.2079309E-01
   7119.67  1.2505773E-01
   7120.00  1.3096845E-01
   7120.33  1.3742206E-01
   7120.67  1.4290139E-01
   7121.00  1.4695856E-01
   7121.33  1.5107377E-01
   7121.67  1.5779113E-01
   7122.00  1.6878869E-01
   7122.33  1.8538085E-01
   7122.67  2.0562904E-01
   7123.00  2.2707691E-01
   7123.33  2.4708983E-01
   7123.67  2.6310312E-01
   7124.00  2.7390300E-01
   7124.33  2.8263472E-01
   7124.67  2.9399147E-01
   7125.00  3.0958699E-01
   7125.33  3.2979023E-01
   7125.67  3.5280573E-01
   7126.00  3.7711108E-01
   7126.33  4.0119969E-01
   7126.67  4.2431307E-01
   7127.00  4.4621172E-01
   7127.33  4.6656168E-01
   7127.67  4.8556657E-01
   7128.00  5.0402322E-01
   7128.33  5.2414857E-01
   7128.67  5.4751314E-01
   7129.00  5.7394722E-01
   7129.33  6.0137713E-01
   7129.67  6.2776403E-01
   7130.00  6.5381673E-01
   7130.33  6.8217198E-01
   7130.67  7.1165661E-01
   7131.00  7.3723054E-01
   7131.33  7.5129145E-01
   7131.67  7.5424336E-01
   7132.00  7.5042944E-01
   7132.33  7.4667047E-01
   7132.67  7.4729610E-01
   7133.00  7.5283082E-01
   7133.33  7.6146800E-01
   7133.67  7.6939524E-01
   7134.00  7.7350794E-01
   7134.33  7.7020597E-01
   7134.67  7.6007714E-01
   7135.00  7.4524123E-01
   7135.33  7.2887881E-01
   7135.67  7.1368359E-01
   7136.00  7.0066050E-01
   7136.33  6.9017062E-01
   7136.67  6.8138972E-01
   7137.00  6.7365950E-01
   7137.33  6.6620319E-01
   7137.67  6.5832690E-01
   7138.00  6.4973267E-01
   7138.33  6.4041845E-01
   7138.67  6.3096639E-01
   7139.00  6.2201835E-01
   7139.33  6.1450433E-01
   7139.67  6.0884141E-01
   7140.00  6.0526806E-01
   7140.33  6.0405185E-01
   7140.67  6.0473969E-01
   7141.00  6.0708226E-01
   7141.33  6.1090787E-01
   7141.67  6.1566879E-01
   7142.00  6.2096996E-01
   7142.33  6.2622818E-01
   7142.67  6.3074765E-01
   7143.00  6.3389189E-01
   7143.33  6.3476753E-01
   7143.67  6.3324958E-01
   7144.00  6.2930082E-01
   7144.33  6.2292716E-01
   7144.67  6.1490715E-01
   7145.00  6.0574911E-01
   7145.33  5.9593383E-01
   7145.67  5.8597330E-01
   7146.00  5.7613655E-01
   7146.33  5.6667470E-01
   7146.67  5.5767635E-01
   7147.00  5.4920694E-01
   7147.33  5.4139241E-01
   7147.67  5.3422185E-01
   7148.00  5.2775755E-01
   7148.33  5.2215780E-01
   7148.67  5.1736245E-01
   7149.00  5.1337969E-01
   7149.33  5.1029255E-01
   7149.67  5.0795956E-01
   7150.00  5.0632797E-01
   7150.33  5.0540085E-01
   7150.67  5.0501813E-01
   7151.00  5.0510904E-01
   7151.33  5.0564394E-01
   7151.67  5.0650191E-01
   7152.00  5.0762872E-01
   7152.33  5.0899630E-01
   7152.67  5.1053115E-01
   7153.00  5.1219760E-01
   7153.33  5.1396745E-01
   7153.67  5.1578806E-01
   7154.00  5.1762060E-01
   7154.33  5.1940852E-01
   7154.67  5.2109519E-01
   7155.00  5.2261814E-01
   7155.33  5.2386578E-01
   7155.67  5.2478391E-01
   7156.00  5.2530071E-01
   7156.33  5.2528097E-01
   7156.67  5.2472565E-01
   7157.00  5.2360369E-01
   7157.33  5.2183428E-01
   7157.67  5.1951215E-01
   7158.00  5.1668092E-01
   7158.33  5.1335930E-01
   7158.67  5.0969043E-01
   7159.00  5.0575531E-01
   7159.33  5.0162436E-01
   7159.67  4.9740351E-01
   7160.00  4.9315393E-01
   7160.33  4.8893640E-01
   7160.67  4.8478957E-01
   7161.00  4.8073462E-01
   7161.33  4.7679337E-01
   7161.67  4.7295186E-01
   7162.00  4.6920897E-01
   7162.33  4.6557085E-01
   7162.67  4.6201235E-01
   7163.00  4.5853257E-01
   7163.33  4.5516497E-01
   7163.67  4.5193059E-01
   7164.00  4.4886215E-01
   7164.33  4.4602367E-01
   7164.67  4.4342367E-01
   7165.00  4.4108438E-01
   7165.33  4.3905647E-01
   7165.67  4.3731141E-01
   7166.00  4.3584677E-01
   7166.33  4.3468452E-01
   7166.67  4.3377200E-01
   7167.00  4.3309101E-01
   7167.33  4.3264787E-01
   7167.67  4.3238852E-01
   7168.00  4.3228476E-01
   7168.33  4.3232200E-01
   7168.67  4.3245808E-01
   7169.00  4.3267343E-01
   7169.33  4.3295649E-01
   7169.67  4.3328473E-01
   7170.00  4.3364880E-01
   7170.33  4.3404495E-01
   7170.67  4.3446429E-01
   7171.00  4.3490129E-01
   7171.33  4.3534298E-01
   7171.67  4.3575834E-01
   7172.00  4.3610262E-01
