    FDMNES
    energy     <xanes>
   7097.00  3.9591855E-03
   7097.33  4.0319212E-03
   7097.67  4.1072032E-03
   7098.00  4.1851746E-03
   7098.33  4.2663776E-03
   7098.67  4.3506554E-03
   7099.00  4.4381988E-03
   7099.33  4.5296927E-03
   7099.67  4.6249730E-03
   7100.00  4.7243016E-03
   7100.33  4.8285685E-03
   7100.67  4.9376114E-03
   7101.00  5.0518031E-03
   7101.33  5.1723414E-03
   7101.67  5.2990873E-03
   7102.00  5.4325954E-03
   7102.33  5.5745494E-03
   7102.67  5.7248830E-03
   7103.00  5.8844670E-03
   7103.33  6.0558004E-03
   7103.67  6.2390074E-03
   7104.00  6.4355482E-03
   7104.33  6.6493988E-03
   7104.67  6.8811663E-03
   7105.00  7.1335116E-03
   7105.33  7.4133514E-03
   7105.67  7.7225727E-03
   7106.00  8.0665706E-03
   7106.33  8.4588825E-03
   7106.67  8.9051297E-03
   7107.00  9.4179360E-03
   7107.33  1.0028431E-02
   7107.67  1.0755036E-02
   7108.00  1.1633946E-02
   7108.33  1.2755607E-02
   7108.67  1.4195169E-02
   7109.00  1.6094205E-02
   7109.33  1.8831760E-02
   7109.67  2.2860748E-02
   7110.00  2.9074561E-02
   7110.33  4.0043170E-02
   7110.67  5.8161025E-02
   7111.00  8.2147849E-02
   7111.33  1.0157198E-01
   7111.67  1.1437022E-01
   7112.00  1.1817272E-01
   7112.33  1.0544446E-01
   7112.67  8.7559653E-02
   7113.00  7.1935152E-02
   7113.33  6.0677510E-02
   7113.67  5.3202755E-02
   7114.00  4.8519633E-02
   7114.33  4.5221356E-02
   7114.67  4.2291163E-02
   7115.00  3.9337699E-02
   7115.33  3.6604231E-02
   7115.67  3.4727029E-02
   7116.00  3.3948255E-02
   7116.33  3.4221180E-02
   7116.67  3.5285591E-02
   7117.00  3.7213162E-02
   7117.33  4.0269731E-02
   7117.67  4.4237878E-02
   7118.00  4.8662285E-02
   7118.33  5.2794946E-02
   7118.67  5.6594207E-02
   7119.00  6.0609103E-02
   7119.33  6.5581403E-02
   7119.67  7.1607087E-02
   7120.00  7.8594694E-02
   7120.33  8.6584569E-02
   7120.67  9.5554058E-02
   7121.00  1.0561578E-01
   7121.33  1.1694534E-01
   7121.67  1.2933526E-01
   7122.00  1.4276049E-01
   7122.33  1.5737444E-01
   7122.67  1.7310597E-01
   7123.00  1.9026652E-01
   7123.33  2.0923689E-01
   7123.67  2.2822413E-01
   7124.00  2.4555134E-01
   7124.33  2.6219661E-01
   7124.67  2.8102057E-01
   7125.00  3.0354360E-01
   7125.33  3.2882553E-01
   7125.67  3.5137291E-01
   7126.00  3.6738019E-01
   7126.33  3.7824340E-01
   7126.67  3.9116968E-01
   7127.00  4.1099632E-01
   7127.33  4.4109672E-01
   7127.67  4.7985814E-01
   7128.00  5.2564836E-01
   7128.33  5.7547255E-01
   7128.67  6.2392624E-01
   7129.00  6.6708056E-01
   7129.33  7.0250906E-01
   7129.67  7.3321439E-01
   7130.00  7.6214196E-01
   7130.33  7.9118466E-01
   7130.67  8.1995183E-01
   7131.00  8.4798185E-01
   7131.33  8.7665136E-01
   7131.67  9.0800726E-01
   7132.00  9.4187365E-01
   7132.33  9.7353516E-01
   7132.67  9.9597064E-01
   7133.00  1.0042250E+00
   7133.33  9.9588386E-01
   7133.67  9.7813719E-01
   7134.00  9.5766946E-01
   7134.33  9.4049485E-01
   7134.67  9.2704113E-01
   7135.00  9.1493724E-01
   7135.33  9.0045674E-01
   7135.67  8.8181188E-01
   7136.00  8.5894395E-01
   7136.33  8.3288222E-01
   7136.67  8.0582840E-01
   7137.00  7.7905163E-01
   7137.33  7.5356286E-01
   7137.67  7.2957651E-01
   7138.00  7.0717194E-01
   7138.33  6.8652463E-01
   7138.67  6.6738211E-01
   7139.00  6.4969695E-01
   7139.33  6.3360625E-01
   7139.67  6.1891395E-01
   7140.00  6.0561747E-01
   7140.33  5.9388987E-01
   7140.67  5.8354128E-01
   7141.00  5.7453715E-01
   7141.33  5.6696952E-01
   7141.67  5.6059668E-01
   7142.00  5.5535539E-01
   7142.33  5.5132590E-01
   7142.67  5.4832137E-01
   7143.00  5.4626559E-01
   7143.33  5.4508953E-01
   7143.67  5.4442709E-01
   7144.00  5.4399586E-01
   7144.33  5.4346511E-01
   7144.67  5.4260453E-01
   7145.00  5.4130219E-01
   7145.33  5.3948342E-01
   7145.67  5.3728271E-01
   7146.00  5.3480934E-01
   7146.33  5.3218565E-01
   7146.67  5.2955108E-01
   7147.00  5.2698884E-01
   7147.33  5.2459083E-01
   7147.67  5.2239562E-01
   7148.00  5.2044543E-01
   7148.33  5.1882352E-01
   7148.67  5.1753616E-01
   7149.00  5.1660931E-01
   7149.33  5.1609517E-01
   7149.67  5.1591716E-01
   7150.00  5.1601114E-01
   7150.33  5.1627104E-01
   7150.67  5.1650152E-01
   7151.00  5.1652051E-01
   7151.33  5.1606397E-01
   7151.67  5.1501733E-01
   7152.00  5.1328350E-01
   7152.33  5.1069672E-01
   7152.67  5.0732494E-01
   7153.00  5.0317395E-01
   7153.33  4.9817571E-01
   7153.67  4.9246303E-01
   7154.00  4.8607567E-01
   7154.33  4.7898614E-01
   7154.67  4.7132583E-01
   7155.00  4.6314183E-01
   7155.33  4.5442987E-01
   7155.67  4.4530219E-01
   7156.00  4.3580511E-01
   7156.33  4.2595659E-01
   7156.67  4.1586089E-01
   7157.00  4.0558396E-01
   7157.33  3.9520393E-01
   7157.67  3.8483565E-01
   7158.00  3.7457735E-01
   7158.33  3.6457810E-01
   7158.67  3.5493120E-01
   7159.00  3.4574113E-01
   7159.33  3.3720254E-01
   7159.67  3.2937113E-01
   7160.00  3.2236456E-01
   7160.33  3.1644583E-01
   7160.67  3.1162714E-01
   7161.00  3.0799386E-01
   7161.33  3.0574405E-01
   7161.67  3.0469863E-01
   7162.00  3.0478742E-01
   7162.33  3.0601715E-01
   7162.67  3.0811164E-01
   7163.00  3.1093382E-01
   7163.33  3.1439837E-01
   7163.67  3.1828424E-01
   7164.00  3.2248192E-01
   7164.33  3.2691837E-01
   7164.67  3.3148479E-01
   7165.00  3.3612023E-01
   7165.33  3.4076618E-01
   7165.67  3.4537486E-01
   7166.00  3.4991830E-01
   7166.33  3.5437146E-01
   7166.67  3.5875066E-01
   7167.00  3.6307944E-01
   7167.33  3.6740190E-01
   7167.67  3.7177537E-01
   7168.00  3.7625431E-01
   7168.33  3.8092411E-01
   7168.67  3.8581938E-01
   7169.00  3.9097389E-01
   7169.33  3.9643703E-01
   7169.67  4.0215630E-01
   7170.00  4.0808611E-01
   7170.33  4.1415283E-01
   7170.67  4.2021245E-01
   7171.00  4.2612142E-01
   7171.33  4.3162368E-01
   7171.67  4.3648256E-01
   7172.00  4.4039739E-01
