    FDMNES
    energy     <xanes>
   7097.00  5.1678011E-03
   7097.33  5.2884523E-03
   7097.67  5.4145360E-03
   7098.00  5.5464178E-03
   7098.33  5.6853512E-03
   7098.67  5.8310762E-03
   7099.00  5.9840898E-03
   7099.33  6.1460281E-03
   7099.67  6.3166236E-03
   7100.00  6.4965697E-03
   7100.33  6.6880569E-03
   7100.67  6.8908335E-03
   7101.00  7.1058974E-03
   7101.33  7.3362704E-03
   7101.67  7.5817699E-03
   7102.00  7.8438840E-03
   7102.33  8.1269350E-03
   7102.67  8.4309263E-03
   7103.00  8.7581753E-03
   7103.33  9.1151434E-03
   7103.67  9.5022849E-03
   7104.00  9.9234056E-03
   7104.33  1.0388709E-02
   7104.67  1.0899732E-02
   7105.00  1.1463156E-02
   7105.33  1.2096269E-02
   7105.67  1.2803305E-02
   7106.00  1.3597071E-02
   7106.33  1.4509720E-02
   7106.67  1.5552819E-02
   7107.00  1.6754030E-02
   7107.33  1.8181480E-02
   7107.67  1.9869766E-02
   7108.00  2.1889939E-02
   7108.33  2.4417608E-02
   7108.67  2.7578637E-02
   7109.00  3.1613309E-02
   7109.33  3.7146732E-02
   7109.67  4.4836566E-02
   7110.00  5.5965288E-02
   7110.33  7.4190483E-02
   7110.67  1.0356669E-01
   7111.00  1.4631398E-01
   7111.33  1.9239692E-01
   7111.67  2.3266619E-01
   7112.00  2.7884673E-01
   7112.33  3.2918011E-01
   7112.67  3.7213587E-01
   7113.00  4.0943627E-01
   7113.33  4.1892404E-01
   7113.67  4.0046239E-01
   7114.00  3.7028601E-01
   7114.33  3.3109183E-01
   7114.67  2.8998498E-01
   7115.00  2.5546048E-01
   7115.33  2.3299769E-01
   7115.67  2.2034158E-01
   7116.00  2.1518738E-01
   7116.33  2.1426144E-01
   7116.67  2.1114699E-01
   7117.00  2.0139559E-01
   7117.33  1.8609921E-01
   7117.67  1.7171748E-01
   7118.00  1.6103629E-01
   7118.33  1.5448231E-01
   7118.67  1.5015832E-01
   7119.00  1.4688030E-01
   7119.33  1.4384494E-01
   7119.67  1.4079775E-01
   7120.00  1.3785552E-01
   7120.33  1.3537695E-01
   7120.67  1.3374044E-01
   7121.00  1.3338536E-01
   7121.33  1.3506312E-01
   7121.67  1.3896692E-01
   7122.00  1.4526666E-01
   7122.33  1.5428799E-01
   7122.67  1.6576408E-01
   7123.00  1.7976935E-01
   7123.33  1.9649791E-01
   7123.67  2.1501023E-01
   7124.00  2.3425754E-01
   7124.33  2.5267587E-01
   7124.67  2.6932645E-01
   7125.00  2.8411812E-01
   7125.33  2.9758410E-01
   7125.67  3.1083948E-01
   7126.00  3.2466608E-01
   7126.33  3.3993890E-01
   7126.67  3.5680517E-01
   7127.00  3.7527925E-01
   7127.33  3.9604087E-01
   7127.67  4.2018899E-01
   7128.00  4.4920075E-01
   7128.33  4.8505865E-01
   7128.67  5.2734874E-01
   7129.00  5.7559980E-01
   7129.33  6.2861648E-01
   7129.67  6.8296306E-01
   7130.00  7.3593773E-01
   7130.33  7.8445810E-01
   7130.67  8.2787581E-01
   7131.00  8.6673771E-01
   7131.33  9.0218773E-01
   7131.67  9.3519078E-01
   7132.00  9.6490443E-01
   7132.33  9.8928708E-01
   7132.67  1.0079932E+00
   7133.00  1.0205436E+00
   7133.33  1.0253508E+00
   7133.67  1.0222221E+00
   7134.00  1.0103171E+00
   7134.33  9.8825399E-01
   7134.67  9.5812004E-01
   7135.00  9.2163091E-01
   7135.33  8.8078836E-01
   7135.67  8.3842722E-01
   7136.00  7.9612281E-01
   7136.33  7.5527895E-01
   7136.67  7.1647396E-01
   7137.00  6.8010247E-01
   7137.33  6.4683998E-01
   7137.67  6.1659933E-01
   7138.00  5.8956091E-01
   7138.33  5.6631493E-01
   7138.67  5.4652729E-01
   7139.00  5.3016594E-01
   7139.33  5.1744940E-01
   7139.67  5.0764799E-01
   7140.00  5.0041431E-01
   7140.33  4.9558567E-01
   7140.67  4.9248295E-01
   7141.00  4.9078563E-01
   7141.33  4.9029362E-01
   7141.67  4.9057374E-01
   7142.00  4.9139077E-01
   7142.33  4.9252873E-01
   7142.67  4.9372828E-01
   7143.00  4.9482558E-01
   7143.33  4.9563875E-01
   7143.67  4.9609801E-01
   7144.00  4.9614971E-01
   7144.33  4.9569595E-01
   7144.67  4.9477618E-01
   7145.00  4.9340284E-01
   7145.33  4.9156577E-01
   7145.67  4.8937913E-01
   7146.00  4.8690875E-01
   7146.33  4.8421570E-01
   7146.67  4.8141631E-01
   7147.00  4.7859138E-01
   7147.33  4.7584421E-01
   7147.67  4.7326022E-01
   7148.00  4.7091879E-01
   7148.33  4.6895176E-01
   7148.67  4.6740536E-01
   7149.00  4.6635145E-01
   7149.33  4.6593681E-01
   7149.67  4.6615660E-01
   7150.00  4.6705672E-01
   7150.33  4.6875982E-01
   7150.67  4.7118176E-01
   7151.00  4.7429936E-01
   7151.33  4.7812806E-01
   7151.67  4.8248591E-01
   7152.00  4.8725863E-01
   7152.33  4.9232620E-01
   7152.67  4.9749417E-01
   7153.00  5.0262606E-01
   7153.33  5.0755296E-01
   7153.67  5.1217386E-01
   7154.00  5.1640505E-01
   7154.33  5.2011990E-01
   7154.67  5.2333536E-01
   7155.00  5.2603716E-01
   7155.33  5.2816470E-01
   7155.67  5.2980224E-01
   7156.00  5.3098016E-01
   7156.33  5.3169109E-01
   7156.67  5.3203345E-01
   7157.00  5.3204869E-01
   7157.33  5.3175140E-01
   7157.67  5.3122494E-01
   7158.00  5.3050965E-01
   7158.33  5.2963250E-01
   7158.67  5.2865390E-01
   7159.00  5.2760767E-01
   7159.33  5.2652518E-01
   7159.67  5.2544161E-01
   7160.00  5.2438075E-01
   7160.33  5.2337258E-01
   7160.67  5.2243120E-01
   7161.00  5.2157020E-01
   7161.33  5.2081218E-01
   7161.67  5.2015095E-01
   7162.00  5.1958631E-01
   7162.33  5.1912508E-01
   7162.67  5.1874665E-01
   7163.00  5.1843936E-01
   7163.33  5.1818628E-01
   7163.67  5.1795096E-01
   7164.00  5.1771046E-01
   7164.33  5.1743442E-01
   7164.67  5.1709868E-01
   7165.00  5.1667864E-01
   7165.33  5.1612973E-01
   7165.67  5.1543713E-01
   7166.00  5.1457787E-01
   7166.33  5.1350464E-01
   7166.67  5.1222287E-01
   7167.00  5.1072174E-01
   7167.33  5.0896594E-01
   7167.67  5.0698288E-01
   7168.00  5.0477775E-01
   7168.33  5.0233849E-01
   7168.67  4.9971340E-01
   7169.00  4.9692710E-01
   7169.33  4.9399782E-01
   7169.67  4.9098213E-01
   7170.00  4.8791956E-01
   7170.33  4.8486020E-01
   7170.67  4.8185885E-01
   7171.00  4.7897018E-01
   7171.33  4.7630078E-01
   7171.67  4.7394702E-01
   7172.00  4.7204785E-01
