    FDMNES
    energy     <xanes>
   7097.00  5.2362163E-03
   7097.33  5.3621148E-03
   7097.67  5.4937646E-03
   7098.00  5.6315517E-03
   7098.33  5.7768009E-03
   7098.67  5.9292341E-03
   7099.00  6.0893732E-03
   7099.33  6.2589420E-03
   7099.67  6.4376502E-03
   7100.00  6.6262217E-03
   7100.33  6.8269528E-03
   7100.67  7.0395625E-03
   7101.00  7.2650833E-03
   7101.33  7.5066614E-03
   7101.67  7.7640729E-03
   7102.00  8.0388403E-03
   7102.33  8.3354213E-03
   7102.67  8.6537543E-03
   7103.00  8.9961770E-03
   7103.33  9.3692665E-03
   7103.67  9.7733605E-03
   7104.00  1.0212229E-02
   7104.33  1.0696080E-02
   7104.67  1.1226204E-02
   7105.00  1.1809075E-02
   7105.33  1.2461591E-02
   7105.67  1.3187399E-02
   7106.00  1.3998556E-02
   7106.33  1.4925583E-02
   7106.67  1.5978419E-02
   7107.00  1.7182247E-02
   7107.33  1.8599462E-02
   7107.67  2.0259447E-02
   7108.00  2.2224678E-02
   7108.33  2.4650106E-02
   7108.67  2.7642097E-02
   7109.00  3.1407627E-02
   7109.33  3.6488869E-02
   7109.67  4.3457931E-02
   7110.00  5.3443181E-02
   7110.33  6.9592872E-02
   7110.67  9.4252584E-02
   7111.00  1.2410494E-01
   7111.33  1.4674002E-01
   7111.67  1.7002691E-01
   7112.00  2.0783096E-01
   7112.33  2.7102308E-01
   7112.67  3.5770888E-01
   7113.00  4.6374190E-01
   7113.33  5.6774126E-01
   7113.67  6.2777218E-01
   7114.00  6.1459085E-01
   7114.33  5.3022659E-01
   7114.67  4.3413464E-01
   7115.00  3.5626391E-01
   7115.33  3.0532242E-01
   7115.67  2.7358997E-01
   7116.00  2.5650006E-01
   7116.33  2.4896007E-01
   7116.67  2.4147512E-01
   7117.00  2.2869605E-01
   7117.33  2.1154197E-01
   7117.67  1.9525520E-01
   7118.00  1.8200435E-01
   7118.33  1.7251015E-01
   7118.67  1.6566396E-01
   7119.00  1.6064096E-01
   7119.33  1.5662879E-01
   7119.67  1.5277660E-01
   7120.00  1.4864628E-01
   7120.33  1.4405738E-01
   7120.67  1.3950654E-01
   7121.00  1.3576328E-01
   7121.33  1.3376855E-01
   7121.67  1.3340962E-01
   7122.00  1.3445761E-01
   7122.33  1.3682838E-01
   7122.67  1.4031285E-01
   7123.00  1.4500297E-01
   7123.33  1.5130703E-01
   7123.67  1.5942697E-01
   7124.00  1.6983197E-01
   7124.33  1.8359234E-01
   7124.67  2.0113695E-01
   7125.00  2.2314971E-01
   7125.33  2.5075614E-01
   7125.67  2.8275710E-01
   7126.00  3.1695378E-01
   7126.33  3.4854908E-01
   7126.67  3.7390646E-01
   7127.00  3.9274790E-01
   7127.33  4.0770600E-01
   7127.67  4.2285279E-01
   7128.00  4.4013684E-01
   7128.33  4.6089004E-01
   7128.67  4.8499066E-01
   7129.00  5.1232819E-01
   7129.33  5.4277906E-01
   7129.67  5.7536134E-01
   7130.00  6.0935933E-01
   7130.33  6.4365419E-01
   7130.67  6.7681418E-01
   7131.00  7.0784214E-01
   7131.33  7.3625154E-01
   7131.67  7.6348454E-01
   7132.00  7.9115003E-01
   7132.33  8.2106115E-01
   7132.67  8.5342774E-01
   7133.00  8.8731255E-01
   7133.33  9.1919152E-01
   7133.67  9.4371873E-01
   7134.00  9.5585335E-01
   7134.33  9.5025477E-01
   7134.67  9.2940564E-01
   7135.00  8.9602253E-01
   7135.33  8.5317326E-01
   7135.67  8.0587885E-01
   7136.00  7.5695099E-01
   7136.33  7.0888544E-01
   7136.67  6.6313002E-01
   7137.00  6.2051623E-01
   7137.33  5.8216463E-01
   7137.67  5.4808569E-01
   7138.00  5.1862198E-01
   7138.33  4.9466914E-01
   7138.67  4.7570769E-01
   7139.00  4.6162843E-01
   7139.33  4.5265148E-01
   7139.67  4.4767780E-01
   7140.00  4.4617088E-01
   7140.33  4.4785384E-01
   7140.67  4.5180067E-01
   7141.00  4.5760130E-01
   7141.33  4.6507012E-01
   7141.67  4.7375542E-01
   7142.00  4.8349086E-01
   7142.33  4.9423366E-01
   7142.67  5.0572508E-01
   7143.00  5.1782383E-01
   7143.33  5.3038505E-01
   7143.67  5.4312364E-01
   7144.00  5.5581249E-01
   7144.33  5.6812402E-01
   7144.67  5.7980391E-01
   7145.00  5.9060071E-01
   7145.33  6.0009564E-01
   7145.67  6.0819638E-01
   7146.00  6.1474394E-01
   7146.33  6.1941119E-01
   7146.67  6.2236227E-01
   7147.00  6.2361399E-01
   7147.33  6.2305054E-01
   7147.67  6.2102597E-01
   7148.00  6.1771368E-01
   7148.33  6.1322140E-01
   7148.67  6.0794272E-01
   7149.00  6.0210544E-01
   7149.33  5.9592832E-01
   7149.67  5.8968341E-01
   7150.00  5.8354207E-01
   7150.33  5.7770268E-01
   7150.67  5.7226196E-01
   7151.00  5.6730516E-01
   7151.33  5.6297488E-01
   7151.67  5.5924995E-01
   7152.00  5.5615476E-01
   7152.33  5.5378099E-01
   7152.67  5.5204463E-01
   7153.00  5.5093230E-01
   7153.33  5.5049379E-01
   7153.67  5.5062072E-01
   7154.00  5.5127904E-01
   7154.33  5.5248424E-01
   7154.67  5.5412501E-01
   7155.00  5.5615513E-01
   7155.33  5.5856035E-01
   7155.67  5.6124103E-01
   7156.00  5.6414515E-01
   7156.33  5.6722849E-01
   7156.67  5.7040184E-01
   7157.00  5.7360053E-01
   7157.33  5.7673544E-01
   7157.67  5.7972386E-01
   7158.00  5.8248287E-01
   7158.33  5.8486909E-01
   7158.67  5.8682063E-01
   7159.00  5.8825357E-01
   7159.33  5.8900750E-01
   7159.67  5.8909415E-01
   7160.00  5.8848124E-01
   7160.33  5.8707359E-01
   7160.67  5.8498750E-01
   7161.00  5.8227324E-01
   7161.33  5.7894586E-01
   7161.67  5.7517231E-01
   7162.00  5.7104150E-01
   7162.33  5.6662530E-01
   7162.67  5.6204643E-01
   7163.00  5.5737092E-01
   7163.33  5.5266019E-01
   7163.67  5.4796534E-01
   7164.00  5.4331128E-01
   7164.33  5.3871780E-01
   7164.67  5.3417675E-01
   7165.00  5.2967853E-01
   7165.33  5.2520889E-01
   7165.67  5.2074278E-01
   7166.00  5.1625945E-01
   7166.33  5.1173021E-01
   7166.67  5.0713974E-01
   7167.00  5.0247195E-01
   7167.33  4.9769822E-01
   7167.67  4.9281953E-01
   7168.00  4.8783300E-01
   7168.33  4.8272929E-01
   7168.67  4.7753275E-01
   7169.00  4.7225973E-01
   7169.33  4.6693038E-01
   7169.67  4.6158610E-01
   7170.00  4.5626504E-01
   7170.33  4.5102893E-01
   7170.67  4.4593292E-01
   7171.00  4.4105071E-01
   7171.33  4.3654577E-01
   7171.67  4.3256656E-01
   7172.00  4.2933997E-01
