    FDMNES
    energy     <xanes>
   7097.00  4.3369383E-03
   7097.33  4.4218757E-03
   7097.67  4.5098615E-03
   7098.00  4.6010604E-03
   7098.33  4.6961089E-03
   7098.67  4.7948076E-03
   7099.00  4.8973705E-03
   7099.33  5.0045873E-03
   7099.67  5.1162425E-03
   7100.00  5.2326204E-03
   7100.33  5.3547233E-03
   7100.67  5.4823241E-03
   7101.00  5.6158124E-03
   7101.33  5.7564954E-03
   7101.67  5.9041479E-03
   7102.00  6.0593245E-03
   7102.33  6.2237899E-03
   7102.67  6.3973544E-03
   7103.00  6.5808447E-03
   7103.33  6.7767529E-03
   7103.67  6.9850053E-03
   7104.00  7.2069107E-03
   7104.33  7.4462045E-03
   7104.67  7.7031301E-03
   7105.00  7.9799293E-03
   7105.33  8.2826701E-03
   7105.67  8.6124567E-03
   7106.00  8.9735515E-03
   7106.33  9.3769774E-03
   7106.67  9.8263440E-03
   7107.00  1.0331009E-02
   7107.33  1.0914445E-02
   7107.67  1.1588697E-02
   7108.00  1.2378976E-02
   7108.33  1.3348507E-02
   7108.67  1.4545520E-02
   7109.00  1.6062540E-02
   7109.33  1.8144979E-02
   7109.67  2.1070337E-02
   7110.00  2.5385280E-02
   7110.33  3.2682294E-02
   7110.67  4.4832238E-02
   7111.00  6.2995590E-02
   7111.33  8.1744459E-02
   7111.67  8.9492685E-02
   7112.00  8.6277948E-02
   7112.33  8.1125618E-02
   7112.67  7.7107865E-02
   7113.00  7.2977498E-02
   7113.33  6.8240189E-02
   7113.67  6.4105017E-02
   7114.00  6.0946300E-02
   7114.33  5.9143720E-02
   7114.67  5.8782419E-02
   7115.00  5.9920719E-02
   7115.33  6.2726478E-02
   7115.67  6.7033833E-02
   7116.00  7.2926460E-02
   7116.33  8.0810518E-02
   7116.67  9.0758986E-02
   7117.00  1.0310653E-01
   7117.33  1.1870179E-01
   7117.67  1.3778973E-01
   7118.00  1.6095643E-01
   7118.33  1.8936386E-01
   7118.67  2.2246063E-01
   7119.00  2.5967927E-01
   7119.33  3.0079703E-01
   7119.67  3.4415190E-01
   7120.00  3.8630663E-01
   7120.33  4.2004450E-01
   7120.67  4.4221430E-01
   7121.00  4.5364367E-01
   7121.33  4.5734627E-01
   7121.67  4.5748450E-01
   7122.00  4.5563949E-01
   7122.33  4.5285695E-01
   7122.67  4.4996678E-01
   7123.00  4.4717410E-01
   7123.33  4.4447937E-01
   7123.67  4.4226297E-01
   7124.00  4.4146355E-01
   7124.33  4.4397852E-01
   7124.67  4.5085830E-01
   7125.00  4.6271275E-01
   7125.33  4.7986450E-01
   7125.67  5.0026385E-01
   7126.00  5.2165481E-01
   7126.33  5.4091080E-01
   7126.67  5.5647398E-01
   7127.00  5.6793283E-01
   7127.33  5.7495999E-01
   7127.67  5.7839732E-01
   7128.00  5.7862253E-01
   7128.33  5.7591414E-01
   7128.67  5.7139788E-01
   7129.00  5.6577946E-01
   7129.33  5.5957590E-01
   7129.67  5.5307734E-01
   7130.00  5.4628295E-01
   7130.33  5.3913809E-01
   7130.67  5.3183180E-01
   7131.00  5.2469305E-01
   7131.33  5.1841090E-01
   7131.67  5.1356887E-01
   7132.00  5.1062199E-01
   7132.33  5.0990144E-01
   7132.67  5.1061132E-01
   7133.00  5.1206462E-01
   7133.33  5.1395199E-01
   7133.67  5.1648666E-01
   7134.00  5.1998518E-01
   7134.33  5.2460715E-01
   7134.67  5.2989962E-01
   7135.00  5.3547192E-01
   7135.33  5.4089046E-01
   7135.67  5.4584368E-01
   7136.00  5.5012026E-01
   7136.33  5.5345401E-01
   7136.67  5.5588502E-01
   7137.00  5.5742819E-01
   7137.33  5.5806100E-01
   7137.67  5.5800924E-01
   7138.00  5.5739842E-01
   7138.33  5.5632184E-01
   7138.67  5.5495615E-01
   7139.00  5.5338344E-01
   7139.33  5.5165114E-01
   7139.67  5.4981649E-01
   7140.00  5.4790284E-01
   7140.33  5.4593194E-01
   7140.67  5.4394957E-01
   7141.00  5.4200187E-01
   7141.33  5.4016777E-01
   7141.67  5.3850924E-01
   7142.00  5.3709202E-01
   7142.33  5.3602998E-01
   7142.67  5.3535375E-01
   7143.00  5.3511415E-01
   7143.33  5.3539208E-01
   7143.67  5.3611415E-01
   7144.00  5.3726234E-01
   7144.33  5.3887520E-01
   7144.67  5.4089300E-01
   7145.00  5.4330951E-01
   7145.33  5.4616401E-01
   7145.67  5.4939241E-01
   7146.00  5.5297330E-01
   7146.33  5.5690703E-01
   7146.67  5.6109608E-01
   7147.00  5.6547191E-01
   7147.33  5.6994211E-01
   7147.67  5.7436984E-01
   7148.00  5.7863251E-01
   7148.33  5.8254082E-01
   7148.67  5.8598762E-01
   7149.00  5.8885849E-01
   7149.33  5.9095644E-01
   7149.67  5.9228754E-01
   7150.00  5.9281023E-01
   7150.33  5.9239870E-01
   7150.67  5.9116575E-01
   7151.00  5.8914601E-01
   7151.33  5.8632488E-01
   7151.67  5.8290727E-01
   7152.00  5.7902779E-01
   7152.33  5.7484385E-01
   7152.67  5.7060330E-01
   7153.00  5.6649159E-01
   7153.33  5.6274609E-01
   7153.67  5.5948362E-01
   7154.00  5.5679490E-01
   7154.33  5.5480756E-01
   7154.67  5.5344236E-01
   7155.00  5.5266754E-01
   7155.33  5.5248923E-01
   7155.67  5.5276687E-01
   7156.00  5.5343159E-01
   7156.33  5.5444152E-01
   7156.67  5.5568193E-01
   7157.00  5.5709120E-01
   7157.33  5.5861623E-01
   7157.67  5.6018472E-01
   7158.00  5.6174774E-01
   7158.33  5.6324182E-01
   7158.67  5.6462482E-01
   7159.00  5.6585928E-01
   7159.33  5.6688289E-01
   7159.67  5.6768407E-01
   7160.00  5.6823571E-01
   7160.33  5.6847489E-01
   7160.67  5.6841148E-01
   7161.00  5.6802604E-01
   7161.33  5.6725471E-01
   7161.67  5.6612111E-01
   7162.00  5.6461079E-01
   7162.33  5.6266297E-01
   7162.67  5.6031728E-01
   7163.00  5.5756853E-01
   7163.33  5.5436480E-01
   7163.67  5.5076168E-01
   7164.00  5.4676917E-01
   7164.33  5.4235869E-01
   7164.67  5.3760069E-01
   7165.00  5.3252111E-01
   7165.33  5.2712032E-01
   7165.67  5.2147558E-01
   7166.00  5.1562628E-01
   7166.33  5.0960132E-01
   7166.67  5.0346916E-01
   7167.00  4.9727121E-01
   7167.33  4.9105316E-01
   7167.67  4.8486539E-01
   7168.00  4.7874939E-01
   7168.33  4.7276781E-01
   7168.67  4.6695203E-01
   7169.00  4.6133921E-01
   7169.33  4.5599791E-01
   7169.67  4.5093120E-01
   7170.00  4.4616350E-01
   7170.33  4.4175858E-01
   7170.67  4.3769630E-01
   7171.00  4.3399563E-01
   7171.33  4.3074081E-01
   7171.67  4.2795094E-01
   7172.00  4.2571950E-01
