    FDMNES
    energy     <xanes>
   7097.00  5.0764890E-03
   7097.33  5.1927885E-03
   7097.67  5.3142164E-03
   7098.00  5.4411104E-03
   7098.33  5.5746413E-03
   7098.67  5.7145530E-03
   7099.00  5.8613018E-03
   7099.33  6.0164068E-03
   7099.67  6.1796011E-03
   7100.00  6.3515175E-03
   7100.33  6.5341758E-03
   7100.67  6.7273184E-03
   7101.00  6.9318491E-03
   7101.33  7.1505343E-03
   7101.67  7.3831701E-03
   7102.00  7.6310948E-03
   7102.33  7.8982342E-03
   7102.67  8.1845381E-03
   7103.00  8.4920755E-03
   7103.33  8.8266662E-03
   7103.67  9.1886420E-03
   7104.00  9.5813768E-03
   7104.33  1.0013985E-02
   7104.67  1.0487725E-02
   7105.00  1.1008485E-02
   7105.33  1.1591590E-02
   7105.67  1.2240629E-02
   7106.00  1.2966842E-02
   7106.33  1.3798560E-02
   7106.67  1.4745779E-02
   7107.00  1.5832748E-02
   7107.33  1.7119376E-02
   7107.67  1.8635984E-02
   7108.00  2.0445170E-02
   7108.33  2.2702063E-02
   7108.67  2.5518737E-02
   7109.00  2.9109591E-02
   7109.33  3.4034464E-02
   7109.67  4.0889920E-02
   7110.00  5.0841989E-02
   7110.33  6.7231390E-02
   7110.67  9.3825552E-02
   7111.00  1.3291250E-01
   7111.33  1.7607764E-01
   7111.67  2.1111389E-01
   7112.00  2.4078024E-01
   7112.33  2.6526580E-01
   7112.67  2.7767978E-01
   7113.00  2.8069166E-01
   7113.33  2.8727043E-01
   7113.67  3.0063603E-01
   7114.00  3.1360427E-01
   7114.33  3.1933977E-01
   7114.67  3.1968166E-01
   7115.00  3.1463580E-01
   7115.33  3.0386810E-01
   7115.67  2.9340470E-01
   7116.00  2.8751893E-01
   7116.33  2.8651121E-01
   7116.67  2.8759481E-01
   7117.00  2.9064891E-01
   7117.33  2.9239824E-01
   7117.67  2.8415605E-01
   7118.00  2.6272477E-01
   7118.33  2.3413085E-01
   7118.67  2.0735305E-01
   7119.00  1.8540200E-01
   7119.33  1.6929744E-01
   7119.67  1.5766858E-01
   7120.00  1.4983372E-01
   7120.33  1.4553852E-01
   7120.67  1.4387225E-01
   7121.00  1.4447871E-01
   7121.33  1.4741574E-01
   7121.67  1.5253271E-01
   7122.00  1.6004103E-01
   7122.33  1.7049243E-01
   7122.67  1.8378195E-01
   7123.00  1.9999964E-01
   7123.33  2.1921843E-01
   7123.67  2.4040727E-01
   7124.00  2.6275342E-01
   7124.33  2.8534260E-01
   7124.67  3.0734127E-01
   7125.00  3.2820605E-01
   7125.33  3.4748319E-01
   7125.67  3.6563971E-01
   7126.00  3.8334884E-01
   7126.33  4.0163123E-01
   7126.67  4.2097331E-01
   7127.00  4.4078628E-01
   7127.33  4.5847689E-01
   7127.67  4.7226081E-01
   7128.00  4.8302773E-01
   7128.33  4.9352539E-01
   7128.67  5.0488673E-01
   7129.00  5.1588600E-01
   7129.33  5.2407244E-01
   7129.67  5.2964001E-01
   7130.00  5.3450486E-01
   7130.33  5.4128200E-01
   7130.67  5.5064662E-01
   7131.00  5.6205999E-01
   7131.33  5.7411129E-01
   7131.67  5.8525158E-01
   7132.00  5.9491538E-01
   7132.33  6.0337451E-01
   7132.67  6.1181614E-01
   7133.00  6.2111446E-01
   7133.33  6.3204032E-01
   7133.67  6.4449025E-01
   7134.00  6.5823773E-01
   7134.33  6.7293721E-01
   7134.67  6.8784593E-01
   7135.00  7.0219573E-01
   7135.33  7.1460936E-01
   7135.67  7.2410489E-01
   7136.00  7.2995945E-01
   7136.33  7.3152372E-01
   7136.67  7.2987504E-01
   7137.00  7.2599542E-01
   7137.33  7.2114861E-01
   7137.67  7.1673796E-01
   7138.00  7.1363920E-01
   7138.33  7.1274448E-01
   7138.67  7.1401986E-01
   7139.00  7.1728431E-01
   7139.33  7.2206055E-01
   7139.67  7.2709001E-01
   7140.00  7.3116806E-01
   7140.33  7.3252504E-01
   7140.67  7.3030198E-01
   7141.00  7.2401857E-01
   7141.33  7.1335015E-01
   7141.67  6.9956747E-01
   7142.00  6.8358475E-01
   7142.33  6.6630085E-01
   7142.67  6.4869106E-01
   7143.00  6.3125167E-01
   7143.33  6.1440896E-01
   7143.67  5.9829422E-01
   7144.00  5.8300501E-01
   7144.33  5.6873543E-01
   7144.67  5.5544935E-01
   7145.00  5.4321983E-01
   7145.33  5.3227822E-01
   7145.67  5.2256117E-01
   7146.00  5.1411992E-01
   7146.33  5.0714552E-01
   7146.67  5.0145770E-01
   7147.00  4.9700258E-01
   7147.33  4.9383697E-01
   7147.67  4.9172196E-01
   7148.00  4.9056750E-01
   7148.33  4.9035990E-01
   7148.67  4.9085757E-01
   7149.00  4.9193046E-01
   7149.33  4.9346394E-01
   7149.67  4.9522825E-01
   7150.00  4.9706766E-01
   7150.33  4.9880615E-01
   7150.67  5.0032825E-01
   7151.00  5.0156278E-01
   7151.33  5.0243000E-01
   7151.67  5.0297627E-01
   7152.00  5.0323577E-01
   7152.33  5.0324316E-01
   7152.67  5.0310234E-01
   7153.00  5.0288126E-01
   7153.33  5.0265489E-01
   7153.67  5.0249072E-01
   7154.00  5.0243756E-01
   7154.33  5.0256150E-01
   7154.67  5.0287755E-01
   7155.00  5.0340588E-01
   7155.33  5.0418781E-01
   7155.67  5.0519862E-01
   7156.00  5.0643411E-01
   7156.33  5.0790784E-01
   7156.67  5.0957401E-01
   7157.00  5.1141248E-01
   7157.33  5.1341526E-01
   7157.67  5.1553607E-01
   7158.00  5.1775022E-01
   7158.33  5.2003740E-01
   7158.67  5.2236204E-01
   7159.00  5.2470158E-01
   7159.33  5.2702971E-01
   7159.67  5.2932317E-01
   7160.00  5.3156043E-01
   7160.33  5.3370514E-01
   7160.67  5.3573978E-01
   7161.00  5.3763871E-01
   7161.33  5.3935057E-01
   7161.67  5.4086344E-01
   7162.00  5.4214697E-01
   7162.33  5.4313416E-01
   7162.67  5.4383578E-01
   7163.00  5.4425026E-01
   7163.33  5.4434490E-01
   7163.67  5.4415548E-01
   7164.00  5.4368746E-01
   7164.33  5.4292270E-01
   7164.67  5.4191496E-01
   7165.00  5.4068294E-01
   7165.33  5.3922165E-01
   7165.67  5.3757494E-01
   7166.00  5.3575510E-01
   7166.33  5.3374970E-01
   7166.67  5.3158191E-01
   7167.00  5.2925378E-01
   7167.33  5.2675291E-01
   7167.67  5.2409982E-01
   7168.00  5.2129275E-01
   7168.33  5.1831661E-01
   7168.67  5.1520192E-01
   7169.00  5.1196525E-01
   7169.33  5.0861966E-01
   7169.67  5.0520871E-01
   7170.00  5.0176506E-01
   7170.33  4.9833487E-01
   7170.67  4.9496971E-01
   7171.00  4.9172513E-01
   7171.33  4.8871420E-01
   7171.67  4.8604611E-01
   7172.00  4.8388361E-01
