    FDMNES
    energy     <xanes>
   7097.00  4.2738895E-03
   7097.33  4.3642275E-03
   7097.67  4.4582709E-03
   7098.00  4.5562569E-03
   7098.33  4.6590221E-03
   7098.67  4.7663751E-03
   7099.00  4.8786387E-03
   7099.33  4.9968980E-03
   7099.67  5.1209577E-03
   7100.00  5.2512696E-03
   7100.33  5.3892818E-03
   7100.67  5.5348133E-03
   7101.00  5.6885189E-03
   7101.33  5.8523988E-03
   7101.67  6.0263271E-03
   7102.00  6.2112932E-03
   7102.33  6.4101780E-03
   7102.67  6.6230037E-03
   7103.00  6.8513421E-03
   7103.33  7.0995631E-03
   7103.67  7.3680534E-03
   7104.00  7.6594702E-03
   7104.33  7.9808886E-03
   7104.67  8.3335941E-03
   7105.00  8.7224472E-03
   7105.33  9.1599048E-03
   7105.67  9.6495948E-03
   7106.00  1.0201368E-02
   7106.33  1.0839748E-02
   7106.67  1.1575128E-02
   7107.00  1.2430468E-02
   7107.33  1.3462171E-02
   7107.67  1.4703691E-02
   7108.00  1.6220515E-02
   7108.33  1.8176107E-02
   7108.67  2.0706179E-02
   7109.00  2.4066592E-02
   7109.33  2.8943506E-02
   7109.67  3.6160548E-02
   7110.00  4.7345058E-02
   7110.33  6.7145417E-02
   7110.67  9.9414110E-02
   7111.00  1.3976807E-01
   7111.33  1.6845900E-01
   7111.67  1.8608232E-01
   7112.00  1.9290299E-01
   7112.33  1.9238985E-01
   7112.67  1.8980377E-01
   7113.00  1.7895512E-01
   7113.33  1.5722238E-01
   7113.67  1.3381078E-01
   7114.00  1.1456986E-01
   7114.33  1.0145298E-01
   7114.67  9.1120745E-02
   7115.00  8.2667780E-02
   7115.33  7.7285181E-02
   7115.67  7.3233166E-02
   7116.00  6.9493959E-02
   7116.33  6.7147667E-02
   7116.67  6.6911057E-02
   7117.00  6.8875409E-02
   7117.33  7.3135527E-02
   7117.67  7.9041472E-02
   7118.00  8.6047114E-02
   7118.33  9.3900236E-02
   7118.67  1.0273964E-01
   7119.00  1.1265359E-01
   7119.33  1.2315714E-01
   7119.67  1.3333633E-01
   7120.00  1.4284851E-01
   7120.33  1.5206785E-01
   7120.67  1.6203537E-01
   7121.00  1.7372072E-01
   7121.33  1.8845395E-01
   7121.67  2.0668749E-01
   7122.00  2.2889105E-01
   7122.33  2.5561865E-01
   7122.67  2.8544774E-01
   7123.00  3.1649473E-01
   7123.33  3.4521660E-01
   7123.67  3.6928386E-01
   7124.00  3.8879118E-01
   7124.33  4.0489904E-01
   7124.67  4.1816575E-01
   7125.00  4.2764976E-01
   7125.33  4.3282346E-01
   7125.67  4.3615529E-01
   7126.00  4.3948655E-01
   7126.33  4.4377820E-01
   7126.67  4.4888991E-01
   7127.00  4.5479597E-01
   7127.33  4.6181649E-01
   7127.67  4.6987587E-01
   7128.00  4.7857490E-01
   7128.33  4.8688697E-01
   7128.67  4.9379360E-01
   7129.00  4.9889226E-01
   7129.33  5.0238363E-01
   7129.67  5.0534829E-01
   7130.00  5.0857266E-01
   7130.33  5.1272089E-01
   7130.67  5.1767701E-01
   7131.00  5.2320597E-01
   7131.33  5.2976314E-01
   7131.67  5.3885766E-01
   7132.00  5.5245012E-01
   7132.33  5.7275940E-01
   7132.67  5.9868219E-01
   7133.00  6.2874832E-01
   7133.33  6.6139360E-01
   7133.67  6.9540739E-01
   7134.00  7.3069666E-01
   7134.33  7.6590004E-01
   7134.67  7.9646565E-01
   7135.00  8.1729775E-01
   7135.33  8.2282536E-01
   7135.67  8.1490230E-01
   7136.00  7.9657241E-01
   7136.33  7.7220112E-01
   7136.67  7.4704457E-01
   7137.00  7.2379758E-01
   7137.33  7.0455622E-01
   7137.67  6.8935891E-01
   7138.00  6.7806154E-01
   7138.33  6.7058731E-01
   7138.67  6.6584404E-01
   7139.00  6.6321573E-01
   7139.33  6.6218189E-01
   7139.67  6.6196068E-01
   7140.00  6.6214557E-01
   7140.33  6.6240662E-01
   7140.67  6.6251263E-01
   7141.00  6.6232836E-01
   7141.33  6.6167301E-01
   7141.67  6.6049240E-01
   7142.00  6.5872382E-01
   7142.33  6.5627411E-01
   7142.67  6.5327424E-01
   7143.00  6.4982717E-01
   7143.33  6.4606704E-01
   7143.67  6.4223018E-01
   7144.00  6.3850066E-01
   7144.33  6.3513002E-01
   7144.67  6.3227159E-01
   7145.00  6.3006500E-01
   7145.33  6.2872594E-01
   7145.67  6.2821907E-01
   7146.00  6.2854694E-01
   7146.33  6.2976365E-01
   7146.67  6.3167243E-01
   7147.00  6.3413339E-01
   7147.33  6.3696727E-01
   7147.67  6.3986888E-01
   7148.00  6.4259805E-01
   7148.33  6.4483153E-01
   7148.67  6.4639198E-01
   7149.00  6.4713414E-01
   7149.33  6.4685014E-01
   7149.67  6.4560574E-01
   7150.00  6.4336248E-01
   7150.33  6.3992715E-01
   7150.67  6.3534678E-01
   7151.00  6.2953552E-01
   7151.33  6.2223949E-01
   7151.67  6.1358482E-01
   7152.00  6.0360759E-01
   7152.33  5.9229580E-01
   7152.67  5.8002319E-01
   7153.00  5.6702936E-01
   7153.33  5.5355581E-01
   7153.67  5.3994059E-01
   7154.00  5.2641142E-01
   7154.33  5.1324002E-01
   7154.67  5.0056470E-01
   7155.00  4.8848920E-01
   7155.33  4.7716687E-01
   7155.67  4.6653973E-01
   7156.00  4.5660074E-01
   7156.33  4.4739649E-01
   7156.67  4.3879310E-01
   7157.00  4.3074098E-01
   7157.33  4.2324533E-01
   7157.67  4.1619397E-01
   7158.00  4.0955112E-01
   7158.33  4.0333104E-01
   7158.67  3.9746378E-01
   7159.00  3.9193693E-01
   7159.33  3.8678347E-01
   7159.67  3.8195743E-01
   7160.00  3.7745640E-01
   7160.33  3.7331687E-01
   7160.67  3.6949551E-01
   7161.00  3.6599041E-01
   7161.33  3.6283798E-01
   7161.67  3.5999541E-01
   7162.00  3.5745870E-01
   7162.33  3.5525869E-01
   7162.67  3.5335296E-01
   7163.00  3.5174403E-01
   7163.33  3.5048032E-01
   7163.67  3.4953798E-01
   7164.00  3.4893042E-01
   7164.33  3.4871382E-01
   7164.67  3.4885041E-01
   7165.00  3.4933621E-01
   7165.33  3.5019466E-01
   7165.67  3.5135107E-01
   7166.00  3.5276512E-01
   7166.33  3.5440267E-01
   7166.67  3.5617136E-01
   7167.00  3.5801124E-01
   7167.33  3.5985678E-01
   7167.67  3.6165018E-01
   7168.00  3.6335295E-01
   7168.33  3.6492070E-01
   7168.67  3.6635630E-01
   7169.00  3.6766166E-01
   7169.33  3.6883528E-01
   7169.67  3.6991264E-01
   7170.00  3.7091471E-01
   7170.33  3.7185950E-01
   7170.67  3.7277365E-01
   7171.00  3.7366688E-01
   7171.33  3.7452979E-01
   7171.67  3.7532742E-01
   7172.00  3.7599375E-01
