    FDMNES
    energy     <xanes>
   7097.00  4.1565629E-03
   7097.33  4.2376162E-03
   7097.67  4.3217743E-03
   7098.00  4.4092295E-03
   7098.33  4.5006720E-03
   7098.67  4.5959338E-03
   7099.00  4.6952763E-03
   7099.33  4.7995912E-03
   7099.67  4.9087077E-03
   7100.00  5.0229923E-03
   7100.33  5.1436325E-03
   7100.67  5.2704705E-03
   7101.00  5.4040399E-03
   7101.33  5.5459809E-03
   7101.67  5.6961853E-03
   7102.00  5.8554646E-03
   7102.33  6.0261885E-03
   7102.67  6.2083807E-03
   7103.00  6.4033438E-03
   7103.33  6.6146970E-03
   7103.67  6.8427896E-03
   7104.00  7.0898544E-03
   7104.33  7.3618184E-03
   7104.67  7.6598416E-03
   7105.00  7.9880815E-03
   7105.33  8.3571523E-03
   7105.67  8.7703555E-03
   7106.00  9.2363101E-03
   7106.33  9.7764064E-03
   7106.67  1.0400251E-02
   7107.00  1.1128514E-02
   7107.33  1.2011941E-02
   7107.67  1.3082184E-02
   7108.00  1.4400348E-02
   7108.33  1.6119497E-02
   7108.67  1.8372293E-02
   7109.00  2.1408211E-02
   7109.33  2.5902238E-02
   7109.67  3.2692327E-02
   7110.00  4.3441693E-02
   7110.33  6.2931720E-02
   7110.67  9.5056813E-02
   7111.00  1.3418788E-01
   7111.33  1.5373694E-01
   7111.67  1.5380982E-01
   7112.00  1.4605901E-01
   7112.33  1.3688067E-01
   7112.67  1.2502370E-01
   7113.00  1.1310155E-01
   7113.33  1.0389163E-01
   7113.67  9.3906044E-02
   7114.00  8.2777043E-02
   7114.33  7.1837052E-02
   7114.67  6.2028865E-02
   7115.00  5.4531307E-02
   7115.33  4.9882928E-02
   7115.67  4.7050477E-02
   7116.00  4.5381686E-02
   7116.33  4.4396839E-02
   7116.67  4.3695200E-02
   7117.00  4.3176202E-02
   7117.33  4.2884074E-02
   7117.67  4.2875673E-02
   7118.00  4.3253973E-02
   7118.33  4.4209096E-02
   7118.67  4.5738938E-02
   7119.00  4.7814565E-02
   7119.33  5.0402212E-02
   7119.67  5.3402453E-02
   7120.00  5.6892724E-02
   7120.33  6.1156094E-02
   7120.67  6.6296042E-02
   7121.00  7.2408752E-02
   7121.33  7.9724927E-02
   7121.67  8.8276287E-02
   7122.00  9.8239775E-02
   7122.33  1.1004656E-01
   7122.67  1.2384025E-01
   7123.00  1.4003257E-01
   7123.33  1.5940901E-01
   7123.67  1.8179982E-01
   7124.00  2.0704676E-01
   7124.33  2.3480494E-01
   7124.67  2.6380397E-01
   7125.00  2.9319762E-01
   7125.33  3.2271569E-01
   7125.67  3.5327456E-01
   7126.00  3.8643138E-01
   7126.33  4.2470644E-01
   7126.67  4.6842168E-01
   7127.00  5.1677493E-01
   7127.33  5.6804375E-01
   7127.67  6.2018372E-01
   7128.00  6.7253946E-01
   7128.33  7.2417517E-01
   7128.67  7.7199516E-01
   7129.00  8.1124378E-01
   7129.33  8.3639655E-01
   7129.67  8.4983310E-01
   7130.00  8.5434375E-01
   7130.33  8.5160293E-01
   7130.67  8.4383277E-01
   7131.00  8.3237944E-01
   7131.33  8.1930340E-01
   7131.67  8.0720733E-01
   7132.00  7.9765388E-01
   7132.33  7.9172093E-01
   7132.67  7.8836789E-01
   7133.00  7.8641243E-01
   7133.33  7.8473429E-01
   7133.67  7.8295210E-01
   7134.00  7.8110756E-01
   7134.33  7.7913821E-01
   7134.67  7.7706973E-01
   7135.00  7.7514910E-01
   7135.33  7.7374623E-01
   7135.67  7.7281428E-01
   7136.00  7.7206588E-01
   7136.33  7.7092607E-01
   7136.67  7.6901769E-01
   7137.00  7.6629426E-01
   7137.33  7.6300376E-01
   7137.67  7.5969374E-01
   7138.00  7.5674395E-01
   7138.33  7.5452890E-01
   7138.67  7.5307642E-01
   7139.00  7.5234603E-01
   7139.33  7.5222624E-01
   7139.67  7.5235814E-01
   7140.00  7.5243015E-01
   7140.33  7.5198700E-01
   7140.67  7.5070353E-01
   7141.00  7.4831405E-01
   7141.33  7.4447272E-01
   7141.67  7.3931839E-01
   7142.00  7.3295519E-01
   7142.33  7.2548501E-01
   7142.67  7.1730834E-01
   7143.00  7.0865965E-01
   7143.33  6.9973568E-01
   7143.67  6.9072266E-01
   7144.00  6.8169293E-01
   7144.33  6.7266719E-01
   7144.67  6.6361287E-01
   7145.00  6.5447653E-01
   7145.33  6.4516481E-01
   7145.67  6.3563070E-01
   7146.00  6.2583770E-01
   7146.33  6.1574053E-01
   7146.67  6.0538337E-01
   7147.00  5.9478383E-01
   7147.33  5.8395608E-01
   7147.67  5.7298922E-01
   7148.00  5.6195192E-01
   7148.33  5.5093245E-01
   7148.67  5.4001557E-01
   7149.00  5.2927222E-01
   7149.33  5.1880197E-01
   7149.67  5.0862801E-01
   7150.00  4.9878457E-01
   7150.33  4.8934108E-01
   7150.67  4.8026268E-01
   7151.00  4.7154607E-01
   7151.33  4.6321822E-01
   7151.67  4.5520964E-01
   7152.00  4.4749177E-01
   7152.33  4.4005924E-01
   7152.67  4.3284581E-01
   7153.00  4.2582858E-01
   7153.33  4.1901480E-01
   7153.67  4.1238065E-01
   7154.00  4.0593367E-01
   7154.33  3.9970734E-01
   7154.67  3.9368171E-01
   7155.00  3.8785491E-01
   7155.33  3.8223938E-01
   7155.67  3.7679206E-01
   7156.00  3.7148942E-01
   7156.33  3.6631532E-01
   7156.67  3.6123084E-01
   7157.00  3.5622150E-01
   7157.33  3.5128725E-01
   7157.67  3.4641964E-01
   7158.00  3.4162026E-01
   7158.33  3.3690390E-01
   7158.67  3.3227439E-01
   7159.00  3.2774796E-01
   7159.33  3.2336508E-01
   7159.67  3.1914239E-01
   7160.00  3.1511639E-01
   7160.33  3.1137073E-01
   7160.67  3.0793646E-01
   7161.00  3.0487274E-01
   7161.33  3.0230759E-01
   7161.67  3.0026098E-01
   7162.00  2.9879600E-01
   7162.33  2.9805944E-01
   7162.67  2.9802582E-01
   7163.00  2.9873088E-01
   7163.33  3.0029431E-01
   7163.67  3.0262649E-01
   7164.00  3.0571887E-01
   7164.33  3.0963831E-01
   7164.67  3.1425165E-01
   7165.00  3.1951120E-01
   7165.33  3.2542084E-01
   7165.67  3.3182755E-01
   7166.00  3.3865370E-01
   7166.33  3.4584269E-01
   7166.67  3.5325320E-01
   7167.00  3.6079781E-01
   7167.33  3.6838190E-01
   7167.67  3.7590789E-01
   7168.00  3.8330242E-01
   7168.33  3.9046471E-01
   7168.67  3.9735837E-01
   7169.00  4.0394014E-01
   7169.33  4.1012757E-01
   7169.67  4.1593712E-01
   7170.00  4.2135264E-01
   7170.33  4.2631090E-01
   7170.67  4.3085292E-01
   7171.00  4.3496662E-01
   7171.33  4.3856465E-01
   7171.67  4.4163534E-01
   7172.00  4.4408068E-01
