    FDMNES
    energy     <xanes>
   7097.00  5.4906280E-03
   7097.33  5.6341064E-03
   7097.67  5.7847010E-03
   7098.00  5.9429244E-03
   7098.33  6.1104746E-03
   7098.67  6.2870554E-03
   7099.00  6.4733724E-03
   7099.33  6.6716761E-03
   7099.67  6.8816713E-03
   7100.00  7.1043549E-03
   7100.33  7.3427872E-03
   7100.67  7.5967124E-03
   7101.00  7.8675823E-03
   7101.33  8.1596852E-03
   7101.67  8.4728889E-03
   7102.00  8.8093836E-03
   7102.33  9.1753978E-03
   7102.67  9.5711060E-03
   7103.00  9.9999553E-03
   7103.33  1.0471392E-02
   7103.67  1.0986307E-02
   7104.00  1.1550414E-02
   7104.33  1.2178822E-02
   7104.67  1.2874105E-02
   7105.00  1.3646360E-02
   7105.33  1.4521444E-02
   7105.67  1.5506059E-02
   7106.00  1.6619592E-02
   7106.33  1.7910389E-02
   7106.67  1.9396162E-02
   7107.00  2.1118556E-02
   7107.33  2.3179665E-02
   7107.67  2.5630853E-02
   7108.00  2.8577180E-02
   7108.33  3.2276800E-02
   7108.67  3.6908946E-02
   7109.00  4.2814752E-02
   7109.33  5.0870864E-02
   7109.67  6.1955326E-02
   7110.00  7.7761642E-02
   7110.33  1.0301676E-01
   7110.67  1.4267831E-01
   7111.00  2.0006520E-01
   7111.33  2.7542523E-01
   7111.67  3.7058877E-01
   7112.00  4.7852245E-01
   7112.33  5.7883907E-01
   7112.67  6.6967761E-01
   7113.00  7.5387290E-01
   7113.33  7.6317228E-01
   7113.67  6.5292792E-01
   7114.00  4.9302135E-01
   7114.33  3.6857039E-01
   7114.67  2.8557963E-01
   7115.00  2.3302389E-01
   7115.33  2.0215875E-01
   7115.67  1.8405674E-01
   7116.00  1.7566341E-01
   7116.33  1.7494703E-01
   7116.67  1.7625370E-01
   7117.00  1.7426029E-01
   7117.33  1.6626436E-01
   7117.67  1.5586926E-01
   7118.00  1.4588798E-01
   7118.33  1.3816950E-01
   7118.67  1.3259046E-01
   7119.00  1.2883691E-01
   7119.33  1.2687931E-01
   7119.67  1.2623297E-01
   7120.00  1.2674713E-01
   7120.33  1.2895875E-01
   7120.67  1.3251679E-01
   7121.00  1.3643969E-01
   7121.33  1.4000244E-01
   7121.67  1.4368569E-01
   7122.00  1.4774002E-01
   7122.33  1.5151096E-01
   7122.67  1.5561598E-01
   7123.00  1.6139341E-01
   7123.33  1.6981502E-01
   7123.67  1.8077711E-01
   7124.00  1.9429744E-01
   7124.33  2.1005231E-01
   7124.67  2.2616866E-01
   7125.00  2.4075426E-01
   7125.33  2.5232412E-01
   7125.67  2.6216378E-01
   7126.00  2.7187775E-01
   7126.33  2.8301047E-01
   7126.67  2.9599854E-01
   7127.00  3.1112682E-01
   7127.33  3.2936890E-01
   7127.67  3.5115175E-01
   7128.00  3.7655296E-01
   7128.33  4.0504563E-01
   7128.67  4.3528000E-01
   7129.00  4.6696197E-01
   7129.33  5.0060620E-01
   7129.67  5.3620355E-01
   7130.00  5.7331546E-01
   7130.33  6.1078694E-01
   7130.67  6.4693970E-01
   7131.00  6.7990843E-01
   7131.33  7.0691868E-01
   7131.67  7.2871005E-01
   7132.00  7.4746750E-01
   7132.33  7.6556161E-01
   7132.67  7.8339574E-01
   7133.00  7.9992644E-01
   7133.33  8.1376362E-01
   7133.67  8.2493733E-01
   7134.00  8.3260177E-01
   7134.33  8.3183253E-01
   7134.67  8.1847578E-01
   7135.00  7.9206639E-01
   7135.33  7.5667930E-01
   7135.67  7.1960275E-01
   7136.00  6.8444911E-01
   7136.33  6.5356393E-01
   7136.67  6.2664591E-01
   7137.00  6.0315062E-01
   7137.33  5.8260461E-01
   7137.67  5.6414603E-01
   7138.00  5.4767680E-01
   7138.33  5.3371412E-01
   7138.67  5.2242624E-01
   7139.00  5.1423853E-01
   7139.33  5.1003312E-01
   7139.67  5.0965986E-01
   7140.00  5.1318585E-01
   7140.33  5.2087359E-01
   7140.67  5.3174060E-01
   7141.00  5.4511231E-01
   7141.33  5.6020442E-01
   7141.67  5.7576323E-01
   7142.00  5.9092301E-01
   7142.33  6.0471410E-01
   7142.67  6.1677011E-01
   7143.00  6.2689994E-01
   7143.33  6.3488257E-01
   7143.67  6.4113625E-01
   7144.00  6.4587363E-01
   7144.33  6.4920103E-01
   7144.67  6.5152959E-01
   7145.00  6.5306415E-01
   7145.33  6.5395376E-01
   7145.67  6.5446695E-01
   7146.00  6.5474937E-01
   7146.33  6.5492877E-01
   7146.67  6.5512185E-01
   7147.00  6.5539260E-01
   7147.33  6.5580315E-01
   7147.67  6.5635881E-01
   7148.00  6.5705499E-01
   7148.33  6.5787102E-01
   7148.67  6.5874544E-01
   7149.00  6.5962595E-01
   7149.33  6.6042533E-01
   7149.67  6.6106379E-01
   7150.00  6.6146101E-01
   7150.33  6.6148206E-01
   7150.67  6.6108180E-01
   7151.00  6.6019259E-01
   7151.33  6.5867623E-01
   7151.67  6.5654828E-01
   7152.00  6.5377470E-01
   7152.33  6.5024681E-01
   7152.67  6.4604051E-01
   7153.00  6.4116448E-01
   7153.33  6.3557075E-01
   7153.67  6.2939872E-01
   7154.00  6.2272577E-01
   7154.33  6.1562710E-01
   7154.67  6.0830475E-01
   7155.00  6.0091210E-01
   7155.33  5.9365646E-01
   7155.67  5.8671435E-01
   7156.00  5.8023662E-01
   7156.33  5.7444456E-01
   7156.67  5.6936154E-01
   7157.00  5.6502765E-01
   7157.33  5.6152403E-01
   7157.67  5.5868939E-01
   7158.00  5.5642617E-01
   7158.33  5.5464084E-01
   7158.67  5.5311159E-01
   7159.00  5.5168610E-01
   7159.33  5.5017930E-01
   7159.67  5.4843442E-01
   7160.00  5.4632000E-01
   7160.33  5.4363076E-01
   7160.67  5.4031738E-01
   7161.00  5.3631635E-01
   7161.33  5.3150148E-01
   7161.67  5.2597192E-01
   7162.00  5.1977281E-01
   7162.33  5.1292608E-01
   7162.67  5.0563173E-01
   7163.00  4.9801613E-01
   7163.33  4.9021149E-01
   7163.67  4.8238636E-01
   7164.00  4.7465501E-01
   7164.33  4.6715463E-01
   7164.67  4.5994383E-01
   7165.00  4.5307307E-01
   7165.33  4.4662467E-01
   7165.67  4.4056490E-01
   7166.00  4.3489023E-01
   7166.33  4.2962752E-01
   7166.67  4.2470117E-01
   7167.00  4.2008153E-01
   7167.33  4.1576618E-01
   7167.67  4.1168576E-01
   7168.00  4.0781291E-01
   7168.33  4.0415005E-01
   7168.67  4.0066926E-01
   7169.00  3.9737596E-01
   7169.33  3.9430447E-01
   7169.67  3.9144166E-01
   7170.00  3.8879631E-01
   7170.33  3.8640284E-01
   7170.67  3.8423557E-01
   7171.00  3.8229457E-01
   7171.33  3.8061097E-01
   7171.67  3.7917215E-01
   7172.00  3.7800882E-01
