    FDMNES
    energy     <xanes>
   7097.00  3.7158730E-03
   7097.33  3.7784037E-03
   7097.67  3.8428646E-03
   7098.00  3.9093507E-03
   7098.33  3.9782505E-03
   7098.67  4.0494276E-03
   7099.00  4.1230053E-03
   7099.33  4.1994611E-03
   7099.67  4.2786497E-03
   7100.00  4.3607361E-03
   7100.33  4.4463226E-03
   7100.67  4.5352597E-03
   7101.00  4.6277769E-03
   7101.33  4.7246602E-03
   7101.67  4.8257677E-03
   7102.00  4.9314337E-03
   7102.33  5.0427302E-03
   7102.67  5.1595514E-03
   7103.00  5.2824139E-03
   7103.33  5.4128667E-03
   7103.67  5.5509093E-03
   7104.00  5.6974014E-03
   7104.33  5.8547580E-03
   7104.67  6.0232625E-03
   7105.00  6.2044854E-03
   7105.33  6.4025907E-03
   7105.67  6.6186474E-03
   7106.00  6.8558921E-03
   7106.33  7.1225365E-03
   7106.67  7.4220436E-03
   7107.00  7.7622412E-03
   7107.33  8.1625779E-03
   7107.67  8.6351526E-03
   7108.00  9.2036408E-03
   7108.33  9.9278254E-03
   7108.67  1.0860633E-02
   7109.00  1.2102069E-02
   7109.33  1.3924939E-02
   7109.67  1.6675739E-02
   7110.00  2.1046338E-02
   7110.33  2.9058543E-02
   7110.67  4.2554836E-02
   7111.00  5.9414224E-02
   7111.33  6.4090305E-02
   7111.67  5.5326689E-02
   7112.00  4.4872240E-02
   7112.33  3.7992304E-02
   7112.67  3.3252651E-02
   7113.00  2.9942176E-02
   7113.33  2.7113782E-02
   7113.67  2.5530414E-02
   7114.00  2.5521188E-02
   7114.33  2.5989107E-02
   7114.67  2.5432990E-02
   7115.00  2.4589801E-02
   7115.33  2.4478060E-02
   7115.67  2.4903270E-02
   7116.00  2.5630902E-02
   7116.33  2.6499583E-02
   7116.67  2.7411788E-02
   7117.00  2.8372100E-02
   7117.33  2.9497653E-02
   7117.67  3.0904932E-02
   7118.00  3.2670126E-02
   7118.33  3.4864580E-02
   7118.67  3.7425831E-02
   7119.00  4.0349937E-02
   7119.33  4.3749231E-02
   7119.67  4.7720219E-02
   7120.00  5.2446156E-02
   7120.33  5.8286176E-02
   7120.67  6.5195245E-02
   7121.00  7.2833913E-02
   7121.33  8.0503809E-02
   7121.67  8.8332382E-02
   7122.00  9.7329100E-02
   7122.33  1.0898798E-01
   7122.67  1.2373399E-01
   7123.00  1.4190072E-01
   7123.33  1.6411020E-01
   7123.67  1.8983861E-01
   7124.00  2.1882095E-01
   7124.33  2.5052662E-01
   7124.67  2.8284553E-01
   7125.00  3.1406872E-01
   7125.33  3.4323311E-01
   7125.67  3.7132716E-01
   7126.00  4.0004168E-01
   7126.33  4.3246339E-01
   7126.67  4.7026373E-01
   7127.00  5.1404942E-01
   7127.33  5.6344594E-01
   7127.67  6.1399979E-01
   7128.00  6.5998933E-01
   7128.33  6.9227736E-01
   7128.67  7.0751175E-01
   7129.00  7.0649668E-01
   7129.33  6.9429246E-01
   7129.67  6.7970635E-01
   7130.00  6.6701040E-01
   7130.33  6.5803764E-01
   7130.67  6.5134598E-01
   7131.00  6.4572170E-01
   7131.33  6.4069599E-01
   7131.67  6.3688910E-01
   7132.00  6.3539332E-01
   7132.33  6.3745179E-01
   7132.67  6.4281299E-01
   7133.00  6.5166704E-01
   7133.33  6.6534018E-01
   7133.67  6.8410347E-01
   7134.00  7.0805558E-01
   7134.33  7.3687822E-01
   7134.67  7.6794638E-01
   7135.00  7.9868039E-01
   7135.33  8.2583114E-01
   7135.67  8.4804878E-01
   7136.00  8.6478745E-01
   7136.33  8.7546284E-01
   7136.67  8.8121902E-01
   7137.00  8.8255901E-01
   7137.33  8.7959696E-01
   7137.67  8.7337371E-01
   7138.00  8.6434540E-01
   7138.33  8.5273024E-01
   7138.67  8.3929795E-01
   7139.00  8.2444529E-01
   7139.33  8.0849098E-01
   7139.67  7.9197317E-01
   7140.00  7.7522474E-01
   7140.33  7.5860421E-01
   7140.67  7.4235337E-01
   7141.00  7.2661010E-01
   7141.33  7.1155393E-01
   7141.67  6.9717122E-01
   7142.00  6.8348794E-01
   7142.33  6.7059497E-01
   7142.67  6.5838833E-01
   7143.00  6.4684713E-01
   7143.33  6.3602579E-01
   7143.67  6.2582280E-01
   7144.00  6.1622387E-01
   7144.33  6.0728602E-01
   7144.67  5.9891294E-01
   7145.00  5.9107366E-01
   7145.33  5.8377212E-01
   7145.67  5.7687158E-01
   7146.00  5.7029401E-01
   7146.33  5.6397387E-01
   7146.67  5.5780070E-01
   7147.00  5.5172639E-01
   7147.33  5.4574185E-01
   7147.67  5.3986042E-01
   7148.00  5.3412099E-01
   7148.33  5.2860189E-01
   7148.67  5.2335190E-01
   7149.00  5.1845007E-01
   7149.33  5.1405891E-01
   7149.67  5.1023289E-01
   7150.00  5.0706185E-01
   7150.33  5.0472701E-01
   7150.67  5.0319693E-01
   7151.00  5.0249486E-01
   7151.33  5.0270250E-01
   7151.67  5.0363405E-01
   7152.00  5.0515379E-01
   7152.33  5.0706245E-01
   7152.67  5.0897930E-01
   7153.00  5.1054883E-01
   7153.33  5.1121592E-01
   7153.67  5.1064638E-01
   7154.00  5.0854590E-01
   7154.33  5.0451580E-01
   7154.67  4.9879159E-01
   7155.00  4.9154652E-01
   7155.33  4.8296486E-01
   7155.67  4.7359819E-01
   7156.00  4.6379081E-01
   7156.33  4.5388182E-01
   7156.67  4.4415372E-01
   7157.00  4.3477339E-01
   7157.33  4.2592855E-01
   7157.67  4.1763342E-01
   7158.00  4.0992097E-01
   7158.33  4.0288245E-01
   7158.67  3.9644667E-01
   7159.00  3.9061239E-01
   7159.33  3.8545074E-01
   7159.67  3.8088311E-01
   7160.00  3.7690720E-01
   7160.33  3.7359581E-01
   7160.67  3.7087699E-01
   7161.00  3.6875676E-01
   7161.33  3.6732145E-01
   7161.67  3.6650214E-01
   7162.00  3.6629989E-01
   7162.33  3.6678246E-01
   7162.67  3.6785137E-01
   7163.00  3.6947674E-01
   7163.33  3.7167535E-01
   7163.67  3.7432435E-01
   7164.00  3.7736484E-01
   7164.33  3.8076108E-01
   7164.67  3.8439241E-01
   7165.00  3.8818491E-01
   7165.33  3.9206233E-01
   7165.67  3.9593549E-01
   7166.00  3.9974277E-01
   7166.33  4.0340702E-01
   7166.67  4.0689644E-01
   7167.00  4.1018153E-01
   7167.33  4.1321301E-01
   7167.67  4.1601304E-01
   7168.00  4.1858800E-01
   7168.33  4.2093125E-01
   7168.67  4.2309801E-01
   7169.00  4.2511987E-01
   7169.33  4.2702475E-01
   7169.67  4.2886650E-01
   7170.00  4.3067689E-01
   7170.33  4.3248525E-01
   7170.67  4.3430777E-01
   7171.00  4.3614095E-01
   7171.33  4.3794359E-01
   7171.67  4.3962107E-01
   7172.00  4.4103146E-01
