    FDMNES
    energy     <xanes>
   7097.00  4.9350833E-03
   7097.33  5.0511211E-03
   7097.67  5.1724297E-03
   7098.00  5.2993685E-03
   7098.33  5.4331624E-03
   7098.67  5.5735662E-03
   7099.00  5.7210713E-03
   7099.33  5.8772836E-03
   7099.67  6.0419547E-03
   7100.00  6.2157750E-03
   7100.33  6.4009071E-03
   7100.67  6.5971259E-03
   7101.00  6.8054326E-03
   7101.33  7.0288337E-03
   7101.67  7.2671862E-03
   7102.00  7.5219984E-03
   7102.33  7.7976128E-03
   7102.67  8.0940992E-03
   7103.00  8.4138363E-03
   7103.33  8.7633964E-03
   7103.67  9.1433616E-03
   7104.00  9.5577006E-03
   7104.33  1.0016959E-02
   7104.67  1.0522952E-02
   7105.00  1.1082789E-02
   7105.33  1.1714709E-02
   7105.67  1.2423649E-02
   7106.00  1.3223582E-02
   7106.33  1.4149354E-02
   7106.67  1.5214584E-02
   7107.00  1.6450435E-02
   7107.33  1.7933414E-02
   7107.67  1.9705215E-02
   7108.00  2.1849286E-02
   7108.33  2.4572257E-02
   7108.67  2.8031376E-02
   7109.00  3.2523961E-02
   7109.33  3.8829929E-02
   7109.67  4.7808508E-02
   7110.00  6.1137610E-02
   7110.33  8.3627848E-02
   7110.67  1.2055586E-01
   7111.00  1.7447392E-01
   7111.33  2.3456648E-01
   7111.67  2.8469490E-01
   7112.00  3.1784648E-01
   7112.33  3.1852579E-01
   7112.67  3.0506545E-01
   7113.00  3.0084984E-01
   7113.33  3.1628342E-01
   7113.67  3.3297164E-01
   7114.00  3.3145649E-01
   7114.33  3.1076869E-01
   7114.67  2.8875322E-01
   7115.00  2.7134017E-01
   7115.33  2.3343916E-01
   7115.67  1.7976223E-01
   7116.00  1.3548729E-01
   7116.33  1.0990816E-01
   7116.67  9.6138917E-02
   7117.00  9.0558041E-02
   7117.33  9.0976918E-02
   7117.67  9.4106610E-02
   7118.00  9.8753671E-02
   7118.33  1.0579725E-01
   7118.67  1.1442560E-01
   7119.00  1.2294368E-01
   7119.33  1.3078384E-01
   7119.67  1.3995582E-01
   7120.00  1.5257965E-01
   7120.33  1.7004712E-01
   7120.67  1.8995089E-01
   7121.00  2.0917726E-01
   7121.33  2.2447324E-01
   7121.67  2.3597430E-01
   7122.00  2.4475162E-01
   7122.33  2.5199795E-01
   7122.67  2.5886223E-01
   7123.00  2.6600255E-01
   7123.33  2.7454745E-01
   7123.67  2.8578231E-01
   7124.00  3.0095271E-01
   7124.33  3.2091695E-01
   7124.67  3.4371149E-01
   7125.00  3.6722732E-01
   7125.33  3.8947503E-01
   7125.67  4.1076018E-01
   7126.00  4.3275416E-01
   7126.33  4.5758079E-01
   7126.67  4.8431806E-01
   7127.00  5.1070263E-01
   7127.33  5.3377315E-01
   7127.67  5.5275054E-01
   7128.00  5.6758908E-01
   7128.33  5.7779231E-01
   7128.67  5.8387772E-01
   7129.00  5.8626436E-01
   7129.33  5.8570588E-01
   7129.67  5.8405329E-01
   7130.00  5.8290821E-01
   7130.33  5.8425352E-01
   7130.67  5.8814700E-01
   7131.00  5.9382332E-01
   7131.33  6.0127272E-01
   7131.67  6.1095835E-01
   7132.00  6.2304800E-01
   7132.33  6.3703129E-01
   7132.67  6.5104416E-01
   7133.00  6.6315402E-01
   7133.33  6.7108188E-01
   7133.67  6.7536616E-01
   7134.00  6.7757511E-01
   7134.33  6.7932029E-01
   7134.67  6.8094916E-01
   7135.00  6.8208868E-01
   7135.33  6.8221577E-01
   7135.67  6.8126062E-01
   7136.00  6.7922631E-01
   7136.33  6.7612515E-01
   7136.67  6.7229633E-01
   7137.00  6.6797516E-01
   7137.33  6.6344407E-01
   7137.67  6.5903925E-01
   7138.00  6.5500507E-01
   7138.33  6.5163175E-01
   7138.67  6.4896028E-01
   7139.00  6.4700032E-01
   7139.33  6.4575158E-01
   7139.67  6.4498517E-01
   7140.00  6.4454061E-01
   7140.33  6.4423460E-01
   7140.67  6.4385915E-01
   7141.00  6.4326239E-01
   7141.33  6.4223520E-01
   7141.67  6.4067774E-01
   7142.00  6.3847410E-01
   7142.33  6.3541148E-01
   7142.67  6.3149799E-01
   7143.00  6.2669223E-01
   7143.33  6.2088065E-01
   7143.67  6.1422760E-01
   7144.00  6.0683035E-01
   7144.33  5.9879835E-01
   7144.67  5.9044545E-01
   7145.00  5.8201618E-01
   7145.33  5.7383580E-01
   7145.67  5.6615604E-01
   7146.00  5.5918308E-01
   7146.33  5.5321917E-01
   7146.67  5.4828460E-01
   7147.00  5.4444215E-01
   7147.33  5.4182980E-01
   7147.67  5.4022624E-01
   7148.00  5.3949592E-01
   7148.33  5.3948154E-01
   7148.67  5.3978187E-01
   7149.00  5.4008693E-01
   7149.33  5.4002479E-01
   7149.67  5.3940040E-01
   7150.00  5.3811150E-01
   7150.33  5.3606181E-01
   7150.67  5.3339534E-01
   7151.00  5.3017902E-01
   7151.33  5.2641993E-01
   7151.67  5.2222614E-01
   7152.00  5.1762720E-01
   7152.33  5.1260883E-01
   7152.67  5.0725517E-01
   7153.00  5.0160639E-01
   7153.33  4.9569270E-01
   7153.67  4.8962221E-01
   7154.00  4.8347743E-01
   7154.33  4.7737219E-01
   7154.67  4.7142211E-01
   7155.00  4.6573235E-01
   7155.33  4.6046441E-01
   7155.67  4.5566690E-01
   7156.00  4.5139794E-01
   7156.33  4.4775724E-01
   7156.67  4.4466014E-01
   7157.00  4.4206068E-01
   7157.33  4.3992670E-01
   7157.67  4.3810293E-01
   7158.00  4.3649637E-01
   7158.33  4.3502119E-01
   7158.67  4.3358285E-01
   7159.00  4.3213487E-01
   7159.33  4.3064715E-01
   7159.67  4.2912644E-01
   7160.00  4.2759388E-01
   7160.33  4.2609465E-01
   7160.67  4.2466958E-01
   7161.00  4.2335473E-01
   7161.33  4.2220868E-01
   7161.67  4.2124966E-01
   7162.00  4.2050555E-01
   7162.33  4.2003296E-01
   7162.67  4.1982143E-01
   7163.00  4.1988220E-01
   7163.33  4.2025589E-01
   7163.67  4.2090485E-01
   7164.00  4.2181965E-01
   7164.33  4.2301178E-01
   7164.67  4.2442024E-01
   7165.00  4.2600991E-01
   7165.33  4.2774566E-01
   7165.67  4.2955152E-01
   7166.00  4.3137388E-01
   7166.33  4.3314254E-01
   7166.67  4.3479882E-01
   7167.00  4.3628928E-01
   7167.33  4.3753003E-01
   7167.67  4.3850354E-01
   7168.00  4.3918238E-01
   7168.33  4.3951160E-01
   7168.67  4.3953172E-01
   7169.00  4.3925757E-01
   7169.33  4.3868703E-01
   7169.67  4.3789526E-01
   7170.00  4.3692451E-01
   7170.33  4.3581176E-01
   7170.67  4.3462727E-01
   7171.00  4.3341898E-01
   7171.33  4.3225263E-01
   7171.67  4.3120075E-01
   7172.00  4.3034591E-01
