    FDMNES
    energy     <xanes>
   7097.00  5.1585346E-03
   7097.33  5.2843405E-03
   7097.67  5.4159056E-03
   7098.00  5.5536147E-03
   7098.33  5.6987907E-03
   7098.67  5.8511520E-03
   7099.00  6.0112174E-03
   7099.33  6.1807044E-03
   7099.67  6.3593173E-03
   7100.00  6.5477727E-03
   7100.33  6.7483525E-03
   7100.67  6.9607661E-03
   7101.00  7.1860312E-03
   7101.33  7.4272625E-03
   7101.67  7.6842182E-03
   7102.00  7.9583914E-03
   7102.33  8.2541723E-03
   7102.67  8.5714652E-03
   7103.00  8.9125455E-03
   7103.33  9.2838481E-03
   7103.67  9.6856384E-03
   7104.00  1.0121552E-02
   7104.33  1.0601486E-02
   7104.67  1.1126565E-02
   7105.00  1.1702952E-02
   7105.33  1.2346827E-02
   7105.67  1.3061409E-02
   7106.00  1.3857981E-02
   7106.33  1.4765226E-02
   7106.67  1.5791834E-02
   7107.00  1.6960748E-02
   7107.33  1.8328935E-02
   7107.67  1.9921324E-02
   7108.00  2.1792392E-02
   7108.33  2.4076682E-02
   7108.67  2.6859066E-02
   7109.00  3.0306183E-02
   7109.33  3.4845818E-02
   7109.67  4.0885846E-02
   7110.00  4.9222023E-02
   7110.33  6.2075902E-02
   7110.67  8.1716277E-02
   7111.00  1.0926821E-01
   7111.33  1.4162760E-01
   7111.67  1.7777243E-01
   7112.00  2.1758175E-01
   7112.33  2.6428249E-01
   7112.67  3.2340985E-01
   7113.00  3.9884816E-01
   7113.33  4.9214427E-01
   7113.67  5.9191648E-01
   7114.00  6.7536778E-01
   7114.33  6.6339121E-01
   7114.67  5.6224676E-01
   7115.00  4.4280999E-01
   7115.33  3.5560609E-01
   7115.67  2.9998112E-01
   7116.00  2.6976991E-01
   7116.33  2.5881287E-01
   7116.67  2.5363501E-01
   7117.00  2.4557182E-01
   7117.33  2.3250521E-01
   7117.67  2.1804928E-01
   7118.00  2.0387890E-01
   7118.33  1.9093547E-01
   7118.67  1.7931925E-01
   7119.00  1.6888815E-01
   7119.33  1.5964305E-01
   7119.67  1.5169441E-01
   7120.00  1.4516351E-01
   7120.33  1.4003129E-01
   7120.67  1.3629863E-01
   7121.00  1.3417596E-01
   7121.33  1.3352230E-01
   7121.67  1.3359070E-01
   7122.00  1.3407779E-01
   7122.33  1.3537692E-01
   7122.67  1.3821493E-01
   7123.00  1.4308261E-01
   7123.33  1.5036966E-01
   7123.67  1.5970927E-01
   7124.00  1.7090511E-01
   7124.33  1.8380322E-01
   7124.67  1.9797623E-01
   7125.00  2.1350632E-01
   7125.33  2.3096582E-01
   7125.67  2.5026379E-01
   7126.00  2.7083263E-01
   7126.33  2.9126645E-01
   7126.67  3.1012162E-01
   7127.00  3.2663263E-01
   7127.33  3.4063374E-01
   7127.67  3.5355163E-01
   7128.00  3.6675819E-01
   7128.33  3.8199900E-01
   7128.67  4.0022786E-01
   7129.00  4.2217805E-01
   7129.33  4.4925544E-01
   7129.67  4.8175037E-01
   7130.00  5.1998995E-01
   7130.33  5.6361440E-01
   7130.67  6.0967820E-01
   7131.00  6.5648105E-01
   7131.33  7.0453988E-01
   7131.67  7.5640663E-01
   7132.00  8.1430769E-01
   7132.33  8.7844438E-01
   7132.67  9.4207528E-01
   7133.00  9.9568305E-01
   7133.33  1.0251709E+00
   7133.67  1.0292591E+00
   7134.00  1.0129899E+00
   7134.33  9.8527133E-01
   7134.67  9.5457785E-01
   7135.00  9.2224748E-01
   7135.33  8.8585648E-01
   7135.67  8.4390180E-01
   7136.00  7.9647029E-01
   7136.33  7.4515492E-01
   7136.67  6.9331285E-01
   7137.00  6.4332954E-01
   7137.33  5.9784030E-01
   7137.67  5.5772180E-01
   7138.00  5.2364098E-01
   7138.33  4.9670353E-01
   7138.67  4.7603041E-01
   7139.00  4.6129056E-01
   7139.33  4.5252183E-01
   7139.67  4.4825380E-01
   7140.00  4.4772109E-01
   7140.33  4.5039576E-01
   7140.67  4.5512991E-01
   7141.00  4.6135990E-01
   7141.33  4.6869713E-01
   7141.67  4.7664039E-01
   7142.00  4.8493810E-01
   7142.33  4.9335099E-01
   7142.67  5.0162428E-01
   7143.00  5.0954688E-01
   7143.33  5.1680454E-01
   7143.67  5.2326429E-01
   7144.00  5.2880194E-01
   7144.33  5.3323785E-01
   7144.67  5.3673858E-01
   7145.00  5.3941388E-01
   7145.33  5.4137138E-01
   7145.67  5.4291016E-01
   7146.00  5.4422001E-01
   7146.33  5.4549937E-01
   7146.67  5.4691792E-01
   7147.00  5.4858419E-01
   7147.33  5.5063152E-01
   7147.67  5.5307918E-01
   7148.00  5.5595914E-01
   7148.33  5.5934037E-01
   7148.67  5.6315332E-01
   7149.00  5.6736345E-01
   7149.33  5.7194479E-01
   7149.67  5.7676287E-01
   7150.00  5.8171950E-01
   7150.33  5.8668458E-01
   7150.67  5.9151641E-01
   7151.00  5.9609634E-01
   7151.33  6.0025678E-01
   7151.67  6.0395180E-01
   7152.00  6.0713176E-01
   7152.33  6.0971295E-01
   7152.67  6.1178688E-01
   7153.00  6.1340256E-01
   7153.33  6.1459060E-01
   7153.67  6.1548655E-01
   7154.00  6.1616445E-01
   7154.33  6.1668300E-01
   7154.67  6.1712058E-01
   7155.00  6.1751454E-01
   7155.33  6.1788865E-01
   7155.67  6.1825351E-01
   7156.00  6.1860445E-01
   7156.33  6.1892134E-01
   7156.67  6.1918321E-01
   7157.00  6.1936440E-01
   7157.33  6.1941813E-01
   7157.67  6.1932516E-01
   7158.00  6.1905719E-01
   7158.33  6.1855580E-01
   7158.67  6.1781426E-01
   7159.00  6.1680357E-01
   7159.33  6.1545052E-01
   7159.67  6.1375731E-01
   7160.00  6.1168951E-01
   7160.33  6.0914727E-01
   7160.67  6.0613158E-01
   7161.00  6.0259683E-01
   7161.33  5.9841994E-01
   7161.67  5.9362749E-01
   7162.00  5.8819242E-01
   7162.33  5.8201676E-01
   7162.67  5.7518791E-01
   7163.00  5.6773174E-01
   7163.33  5.5963194E-01
   7163.67  5.5103874E-01
   7164.00  5.4203420E-01
   7164.33  5.3268536E-01
   7164.67  5.2313811E-01
   7165.00  5.1348194E-01
   7165.33  5.0381195E-01
   7165.67  4.9421758E-01
   7166.00  4.8476351E-01
   7166.33  4.7553341E-01
   7166.67  4.6654715E-01
   7167.00  4.5783461E-01
   7167.33  4.4945899E-01
   7167.67  4.4140130E-01
   7168.00  4.3367420E-01
   7168.33  4.2633301E-01
   7168.67  4.1934487E-01
   7169.00  4.1271957E-01
   7169.33  4.0651699E-01
   7169.67  4.0070255E-01
   7170.00  3.9528713E-01
   7170.33  3.9033686E-01
   7170.67  3.8581742E-01
   7171.00  3.8174796E-01
   7171.33  3.7822249E-01
   7171.67  3.7523882E-01
   7172.00  3.7286684E-01
