    FDMNES
    energy     <xanes>
   7097.00  4.1670689E-03
   7097.33  4.2509792E-03
   7097.67  4.3381927E-03
   7098.00  4.4289167E-03
   7098.33  4.5238898E-03
   7098.67  4.6229367E-03
   7099.00  4.7263390E-03
   7099.33  4.8350523E-03
   7099.67  4.9488977E-03
   7100.00  5.0682696E-03
   7100.33  5.1944408E-03
   7100.67  5.3272451E-03
   7101.00  5.4672546E-03
   7101.33  5.6162254E-03
   7101.67  5.7740406E-03
   7102.00  5.9415659E-03
   7102.33  6.1213302E-03
   7102.67  6.3133483E-03
   7103.00  6.5189990E-03
   7103.33  6.7421202E-03
   7103.67  6.9830513E-03
   7104.00  7.2441290E-03
   7104.33  7.5315754E-03
   7104.67  7.8465290E-03
   7105.00  8.1932735E-03
   7105.33  8.5827843E-03
   7105.67  9.0182777E-03
   7106.00  9.5084519E-03
   7106.33  1.0074951E-02
   7106.67  1.0726984E-02
   7107.00  1.1484846E-02
   7107.33  1.2398382E-02
   7107.67  1.3497215E-02
   7108.00  1.4839289E-02
   7108.33  1.6569279E-02
   7108.67  1.8807640E-02
   7109.00  2.1781685E-02
   7109.33  2.6102456E-02
   7109.67  3.2508497E-02
   7110.00  4.2460463E-02
   7110.33  6.0080922E-02
   7110.67  8.8131629E-02
   7111.00  1.1984606E-01
   7111.33  1.3725946E-01
   7111.67  1.5668622E-01
   7112.00  1.8575152E-01
   7112.33  2.0875548E-01
   7112.67  2.0595728E-01
   7113.00  1.7249233E-01
   7113.33  1.3209724E-01
   7113.67  1.0312450E-01
   7114.00  8.7604851E-02
   7114.33  8.4634508E-02
   7114.67  8.4431018E-02
   7115.00  7.5440774E-02
   7115.33  6.0062127E-02
   7115.67  4.8612652E-02
   7116.00  4.1734658E-02
   7116.33  3.8216933E-02
   7116.67  3.6505582E-02
   7117.00  3.5954222E-02
   7117.33  3.6138483E-02
   7117.67  3.6729329E-02
   7118.00  3.7640504E-02
   7118.33  3.8845679E-02
   7118.67  4.0304921E-02
   7119.00  4.2076338E-02
   7119.33  4.4364899E-02
   7119.67  4.7312183E-02
   7120.00  5.1093648E-02
   7120.33  5.6019251E-02
   7120.67  6.2102396E-02
   7121.00  6.9427833E-02
   7121.33  7.8273830E-02
   7121.67  8.8664115E-02
   7122.00  1.0082143E-01
   7122.33  1.1526485E-01
   7122.67  1.3203080E-01
   7123.00  1.5143519E-01
   7123.33  1.7429047E-01
   7123.67  2.0063179E-01
   7124.00  2.3066059E-01
   7124.33  2.6417335E-01
   7124.67  2.9873366E-01
   7125.00  3.3258591E-01
   7125.33  3.6659473E-01
   7125.67  4.0378057E-01
   7126.00  4.4488993E-01
   7126.33  4.8593954E-01
   7126.67  5.2001552E-01
   7127.00  5.4358419E-01
   7127.33  5.5697992E-01
   7127.67  5.6575523E-01
   7128.00  5.7456717E-01
   7128.33  5.9012369E-01
   7128.67  6.1666246E-01
   7129.00  6.5673628E-01
   7129.33  7.1253636E-01
   7129.67  7.7967093E-01
   7130.00  8.5314239E-01
   7130.33  9.2356490E-01
   7130.67  9.8037691E-01
   7131.00  1.0156776E+00
   7131.33  1.0219724E+00
   7131.67  1.0036252E+00
   7132.00  9.6478150E-01
   7132.33  9.1272200E-01
   7132.67  8.6064537E-01
   7133.00  8.1639262E-01
   7133.33  7.8295548E-01
   7133.67  7.5494761E-01
   7134.00  7.2917953E-01
   7134.33  7.0708882E-01
   7134.67  6.9250542E-01
   7135.00  6.8789913E-01
   7135.33  6.9348066E-01
   7135.67  7.0421426E-01
   7136.00  7.1643667E-01
   7136.33  7.2709123E-01
   7136.67  7.3531694E-01
   7137.00  7.4129380E-01
   7137.33  7.4554810E-01
   7137.67  7.4896181E-01
   7138.00  7.5187663E-01
   7138.33  7.5431316E-01
   7138.67  7.5614627E-01
   7139.00  7.5712240E-01
   7139.33  7.5678964E-01
   7139.67  7.5506360E-01
   7140.00  7.5186595E-01
   7140.33  7.4710923E-01
   7140.67  7.4122292E-01
   7141.00  7.3450377E-01
   7141.33  7.2722668E-01
   7141.67  7.1969406E-01
   7142.00  7.1199220E-01
   7142.33  7.0404063E-01
   7142.67  6.9572661E-01
   7143.00  6.8694948E-01
   7143.33  6.7763792E-01
   7143.67  6.6797466E-01
   7144.00  6.5813962E-01
   7144.33  6.4835589E-01
   7144.67  6.3877140E-01
   7145.00  6.2943590E-01
   7145.33  6.2033746E-01
   7145.67  6.1133631E-01
   7146.00  6.0230677E-01
   7146.33  5.9308453E-01
   7146.67  5.8358377E-01
   7147.00  5.7375637E-01
   7147.33  5.6355395E-01
   7147.67  5.5304984E-01
   7148.00  5.4229349E-01
   7148.33  5.3134054E-01
   7148.67  5.2030185E-01
   7149.00  5.0925271E-01
   7149.33  4.9828164E-01
   7149.67  4.8745225E-01
   7150.00  4.7682174E-01
   7150.33  4.6648375E-01
   7150.67  4.5646285E-01
   7151.00  4.4680609E-01
   7151.33  4.3761811E-01
   7151.67  4.2889630E-01
   7152.00  4.2067872E-01
   7152.33  4.1306530E-01
   7152.67  4.0600118E-01
   7153.00  3.9947234E-01
   7153.33  3.9348826E-01
   7153.67  3.8790792E-01
   7154.00  3.8264694E-01
   7154.33  3.7762724E-01
   7154.67  3.7272213E-01
   7155.00  3.6785150E-01
   7155.33  3.6291147E-01
   7155.67  3.5780927E-01
   7156.00  3.5245243E-01
   7156.33  3.4667912E-01
   7156.67  3.4042605E-01
   7157.00  3.3361799E-01
   7157.33  3.2614213E-01
   7157.67  3.1811095E-01
   7158.00  3.0961673E-01
   7158.33  3.0078636E-01
   7158.67  2.9186527E-01
   7159.00  2.8304993E-01
   7159.33  2.7461091E-01
   7159.67  2.6671871E-01
   7160.00  2.5953552E-01
   7160.33  2.5333189E-01
   7160.67  2.4812819E-01
   7161.00  2.4401296E-01
   7161.33  2.4121382E-01
   7161.67  2.3964449E-01
   7162.00  2.3933916E-01
   7162.33  2.4047134E-01
   7162.67  2.4286443E-01
   7163.00  2.4648013E-01
   7163.33  2.5138616E-01
   7163.67  2.5733817E-01
   7164.00  2.6422868E-01
   7164.33  2.7200348E-01
   7164.67  2.8038911E-01
   7165.00  2.8922658E-01
   7165.33  2.9836497E-01
   7165.67  3.0759675E-01
   7166.00  3.1678705E-01
   7166.33  3.2578083E-01
   7166.67  3.3449574E-01
   7167.00  3.4286538E-01
   7167.33  3.5078819E-01
   7167.67  3.5828564E-01
   7168.00  3.6534898E-01
   7168.33  3.7192916E-01
   7168.67  3.7809692E-01
   7169.00  3.8387422E-01
   7169.33  3.8924773E-01
   7169.67  3.9429555E-01
   7170.00  3.9904376E-01
   7170.33  4.0348176E-01
   7170.67  4.0765531E-01
   7171.00  4.1155745E-01
   7171.33  4.1510667E-01
   7171.67  4.1823394E-01
   7172.00  4.2078221E-01
