    FDMNES
    energy     <xanes>
   7097.00  4.6664651E-03
   7097.33  4.7717220E-03
   7097.67  4.8814666E-03
   7098.00  4.9959883E-03
   7098.33  5.1163020E-03
   7098.67  5.2421773E-03
   7099.00  5.3740054E-03
   7099.33  5.5131009E-03
   7099.67  5.6592254E-03
   7100.00  5.8129233E-03
   7100.33  5.9759429E-03
   7100.67  6.1480573E-03
   7101.00  6.3300494E-03
   7101.33  6.5243201E-03
   7101.67  6.7306985E-03
   7102.00  6.9503550E-03
   7102.33  7.1867196E-03
   7102.67  7.4397767E-03
   7103.00  7.7113632E-03
   7103.33  8.0066226E-03
   7103.67  8.3259277E-03
   7104.00  8.6723370E-03
   7104.33  9.0540559E-03
   7104.67  9.4724150E-03
   7105.00  9.9329093E-03
   7105.33  1.0449723E-02
   7105.67  1.1026668E-02
   7106.00  1.1674656E-02
   7106.33  1.2421007E-02
   7106.67  1.3276639E-02
   7107.00  1.4266431E-02
   7107.33  1.5451705E-02
   7107.67  1.6867384E-02
   7108.00  1.8582944E-02
   7108.33  2.0771950E-02
   7108.67  2.3575276E-02
   7109.00  2.7260331E-02
   7109.33  3.2544789E-02
   7109.67  4.0285709E-02
   7110.00  5.2181705E-02
   7110.33  7.3069768E-02
   7110.67  1.0664657E-01
   7111.00  1.4651356E-01
   7111.33  1.6709749E-01
   7111.67  1.7821513E-01
   7112.00  1.9703845E-01
   7112.33  2.2718701E-01
   7112.67  2.5024399E-01
   7113.00  2.5053494E-01
   7113.33  2.3529438E-01
   7113.67  2.2364313E-01
   7114.00  2.1658808E-01
   7114.33  2.0507298E-01
   7114.67  1.8612401E-01
   7115.00  1.6206162E-01
   7115.33  1.3714546E-01
   7115.67  1.1656255E-01
   7116.00  1.0241667E-01
   7116.33  9.5210265E-02
   7116.67  9.3258396E-02
   7117.00  9.6028072E-02
   7117.33  1.0343282E-01
   7117.67  1.1327763E-01
   7118.00  1.2252280E-01
   7118.33  1.2815014E-01
   7118.67  1.3253379E-01
   7119.00  1.3840796E-01
   7119.33  1.4647951E-01
   7119.67  1.5589709E-01
   7120.00  1.6744894E-01
   7120.33  1.8319161E-01
   7120.67  2.0285483E-01
   7121.00  2.2529722E-01
   7121.33  2.4936274E-01
   7121.67  2.7399971E-01
   7122.00  2.9869523E-01
   7122.33  3.2469649E-01
   7122.67  3.5512202E-01
   7123.00  3.9234800E-01
   7123.33  4.3755263E-01
   7123.67  4.8795774E-01
   7124.00  5.4094555E-01
   7124.33  5.9169706E-01
   7124.67  6.3466960E-01
   7125.00  6.6571248E-01
   7125.33  6.8179517E-01
   7125.67  6.8634607E-01
   7126.00  6.8092112E-01
   7126.33  6.6575116E-01
   7126.67  6.4503324E-01
   7127.00  6.2332928E-01
   7127.33  6.0655391E-01
   7127.67  5.9692852E-01
   7128.00  5.9412760E-01
   7128.33  5.9675783E-01
   7128.67  6.0210935E-01
   7129.00  6.0845214E-01
   7129.33  6.1316590E-01
   7129.67  6.1445165E-01
   7130.00  6.1236837E-01
   7130.33  6.0862515E-01
   7130.67  6.0516959E-01
   7131.00  6.0243234E-01
   7131.33  6.0017938E-01
   7131.67  5.9811473E-01
   7132.00  5.9642272E-01
   7132.33  5.9575664E-01
   7132.67  5.9636430E-01
   7133.00  5.9802429E-01
   7133.33  5.9988501E-01
   7133.67  6.0089139E-01
   7134.00  6.0058810E-01
   7134.33  5.9939732E-01
   7134.67  5.9886442E-01
   7135.00  6.0016539E-01
   7135.33  6.0404500E-01
   7135.67  6.0964800E-01
   7136.00  6.1602220E-01
   7136.33  6.2197138E-01
   7136.67  6.2667657E-01
   7137.00  6.2967988E-01
   7137.33  6.3039976E-01
   7137.67  6.2875836E-01
   7138.00  6.2435209E-01
   7138.33  6.1641652E-01
   7138.67  6.0566799E-01
   7139.00  5.9315252E-01
   7139.33  5.8037412E-01
   7139.67  5.6836980E-01
   7140.00  5.5733745E-01
   7140.33  5.4715675E-01
   7140.67  5.3755459E-01
   7141.00  5.2862960E-01
   7141.33  5.2085031E-01
   7141.67  5.1444810E-01
   7142.00  5.0961394E-01
   7142.33  5.0661221E-01
   7142.67  5.0517905E-01
   7143.00  5.0521398E-01
   7143.33  5.0674483E-01
   7143.67  5.0946167E-01
   7144.00  5.1324437E-01
   7144.33  5.1806291E-01
   7144.67  5.2365109E-01
   7145.00  5.2989362E-01
   7145.33  5.3672523E-01
   7145.67  5.4393154E-01
   7146.00  5.5136715E-01
   7146.33  5.5885359E-01
   7146.67  5.6618311E-01
   7147.00  5.7317428E-01
   7147.33  5.7953934E-01
   7147.67  5.8506474E-01
   7148.00  5.8941525E-01
   7148.33  5.9191956E-01
   7148.67  5.9234793E-01
   7149.00  5.9044846E-01
   7149.33  5.8586040E-01
   7149.67  5.7909249E-01
   7150.00  5.7050078E-01
   7150.33  5.6045201E-01
   7150.67  5.4967011E-01
   7151.00  5.3861157E-01
   7151.33  5.2776026E-01
   7151.67  5.1745249E-01
   7152.00  5.0790632E-01
   7152.33  4.9938626E-01
   7152.67  4.9183161E-01
   7153.00  4.8522538E-01
   7153.33  4.7959967E-01
   7153.67  4.7472223E-01
   7154.00  4.7046086E-01
   7154.33  4.6669746E-01
   7154.67  4.6319425E-01
   7155.00  4.5979462E-01
   7155.33  4.5631193E-01
   7155.67  4.5259011E-01
   7156.00  4.4850035E-01
   7156.33  4.4384685E-01
   7156.67  4.3858139E-01
   7157.00  4.3263147E-01
   7157.33  4.2585347E-01
   7157.67  4.1833008E-01
   7158.00  4.1009121E-01
   7158.33  4.0113987E-01
   7158.67  3.9168882E-01
   7159.00  3.8188872E-01
   7159.33  3.7192506E-01
   7159.67  3.6203122E-01
   7160.00  3.5238498E-01
   7160.33  3.4321933E-01
   7160.67  3.3462300E-01
   7161.00  3.2668970E-01
   7161.33  3.1958947E-01
   7161.67  3.1327787E-01
   7162.00  3.0778055E-01
   7162.33  3.0321155E-01
   7162.67  2.9945588E-01
   7163.00  2.9648568E-01
   7163.33  2.9434186E-01
   7163.67  2.9286744E-01
   7164.00  2.9200152E-01
   7164.33  2.9174596E-01
   7164.67  2.9198118E-01
   7165.00  2.9267651E-01
   7165.33  2.9386543E-01
   7165.67  2.9548235E-01
   7166.00  2.9752158E-01
   7166.33  3.0002754E-01
   7166.67  3.0293740E-01
   7167.00  3.0623843E-01
   7167.33  3.0995916E-01
   7167.67  3.1403207E-01
   7168.00  3.1843723E-01
   7168.33  3.2318798E-01
   7168.67  3.2821824E-01
   7169.00  3.3350108E-01
   7169.33  3.3902766E-01
   7169.67  3.4472857E-01
   7170.00  3.5056094E-01
   7170.33  3.5647403E-01
   7170.67  3.6238235E-01
   7171.00  3.6819569E-01
   7171.33  3.7371943E-01
   7171.67  3.7870420E-01
   7172.00  3.8278903E-01
