    FDMNES
    energy     <xanes>
   7097.00  4.2963474E-03
   7097.33  4.3909720E-03
   7097.67  4.4895292E-03
   7098.00  4.5922693E-03
   7098.33  4.7000773E-03
   7098.67  4.8127476E-03
   7099.00  4.9306195E-03
   7099.33  5.0548371E-03
   7099.67  5.1851885E-03
   7100.00  5.3221457E-03
   7100.33  5.4672294E-03
   7100.67  5.6202382E-03
   7101.00  5.7818515E-03
   7101.33  5.9541574E-03
   7101.67  6.1370043E-03
   7102.00  6.3314095E-03
   7102.33  6.5403571E-03
   7102.67  6.7638329E-03
   7103.00  7.0034358E-03
   7103.33  7.2636444E-03
   7103.67  7.5447856E-03
   7104.00  7.8495251E-03
   7104.33  8.1850121E-03
   7104.67  8.5524096E-03
   7105.00  8.9565060E-03
   7105.33  9.4096537E-03
   7105.67  9.9151610E-03
   7106.00  1.0482504E-02
   7106.33  1.1135385E-02
   7106.67  1.1883161E-02
   7107.00  1.2747218E-02
   7107.33  1.3780166E-02
   7107.67  1.5011262E-02
   7108.00  1.6498856E-02
   7108.33  1.8387897E-02
   7108.67  2.0791655E-02
   7109.00  2.3924367E-02
   7109.33  2.8352661E-02
   7109.67  3.4720709E-02
   7110.00  4.4292764E-02
   7110.33  6.0676305E-02
   7110.67  8.7284109E-02
   7111.00  1.2301639E-01
   7111.33  1.5495442E-01
   7111.67  1.8186735E-01
   7112.00  2.1016955E-01
   7112.33  2.4024423E-01
   7112.67  2.5726469E-01
   7113.00  2.4474239E-01
   7113.33  2.0530396E-01
   7113.67  1.6487869E-01
   7114.00  1.3334932E-01
   7114.33  1.1153013E-01
   7114.67  9.5417108E-02
   7115.00  8.3391449E-02
   7115.33  7.4692688E-02
   7115.67  6.8409347E-02
   7116.00  6.4332512E-02
   7116.33  6.2494164E-02
   7116.67  6.2504418E-02
   7117.00  6.4396293E-02
   7117.33  6.8671474E-02
   7117.67  7.5281555E-02
   7118.00  8.3692953E-02
   7118.33  9.1586193E-02
   7118.67  9.7593566E-02
   7119.00  1.0296451E-01
   7119.33  1.0949354E-01
   7119.67  1.1777523E-01
   7120.00  1.2834794E-01
   7120.33  1.4243878E-01
   7120.67  1.6015063E-01
   7121.00  1.8133842E-01
   7121.33  2.0544539E-01
   7121.67  2.3041719E-01
   7122.00  2.5509281E-01
   7122.33  2.8033427E-01
   7122.67  3.0875127E-01
   7123.00  3.4296754E-01
   7123.33  3.8628539E-01
   7123.67  4.3764920E-01
   7124.00  4.9391982E-01
   7124.33  5.4772913E-01
   7124.67  5.9193520E-01
   7125.00  6.2281583E-01
   7125.33  6.3691541E-01
   7125.67  6.3592065E-01
   7126.00  6.2199876E-01
   7126.33  6.0114546E-01
   7126.67  5.8198425E-01
   7127.00  5.6838427E-01
   7127.33  5.6102667E-01
   7127.67  5.5653113E-01
   7128.00  5.5308960E-01
   7128.33  5.5036442E-01
   7128.67  5.4870347E-01
   7129.00  5.4861477E-01
   7129.33  5.5128798E-01
   7129.67  5.5736844E-01
   7130.00  5.6711923E-01
   7130.33  5.8004385E-01
   7130.67  5.9398993E-01
   7131.00  6.0755511E-01
   7131.33  6.2019641E-01
   7131.67  6.3238306E-01
   7132.00  6.4397116E-01
   7132.33  6.5315775E-01
   7132.67  6.5751790E-01
   7133.00  6.5505364E-01
   7133.33  6.4481560E-01
   7133.67  6.3036955E-01
   7134.00  6.1505683E-01
   7134.33  6.0241294E-01
   7134.67  5.9378824E-01
   7135.00  5.8935045E-01
   7135.33  5.8871578E-01
   7135.67  5.9013398E-01
   7136.00  5.9249421E-01
   7136.33  5.9499774E-01
   7136.67  5.9755445E-01
   7137.00  6.0063040E-01
   7137.33  6.0515818E-01
   7137.67  6.1132620E-01
   7138.00  6.1854734E-01
   7138.33  6.2483322E-01
   7138.67  6.2795637E-01
   7139.00  6.2666966E-01
   7139.33  6.2054780E-01
   7139.67  6.1142841E-01
   7140.00  6.0068081E-01
   7140.33  5.8966106E-01
   7140.67  5.7941993E-01
   7141.00  5.7053604E-01
   7141.33  5.6360443E-01
   7141.67  5.5859061E-01
   7142.00  5.5549157E-01
   7142.33  5.5437139E-01
   7142.67  5.5483659E-01
   7143.00  5.5677405E-01
   7143.33  5.6027679E-01
   7143.67  5.6514435E-01
   7144.00  5.7139698E-01
   7144.33  5.7928228E-01
   7144.67  5.8870108E-01
   7145.00  5.9969644E-01
   7145.33  6.1241986E-01
   7145.67  6.2647939E-01
   7146.00  6.4153092E-01
   7146.33  6.5698933E-01
   7146.67  6.7195055E-01
   7147.00  6.8554762E-01
   7147.33  6.9644125E-01
   7147.67  7.0407192E-01
   7148.00  7.0801869E-01
   7148.33  7.0781821E-01
   7148.67  7.0441570E-01
   7149.00  6.9847495E-01
   7149.33  6.9062367E-01
   7149.67  6.8181342E-01
   7150.00  6.7253013E-01
   7150.33  6.6315226E-01
   7150.67  6.5393215E-01
   7151.00  6.4500412E-01
   7151.33  6.3653124E-01
   7151.67  6.2855030E-01
   7152.00  6.2112022E-01
   7152.33  6.1435421E-01
   7152.67  6.0817051E-01
   7153.00  6.0251406E-01
   7153.33  5.9730855E-01
   7153.67  5.9231376E-01
   7154.00  5.8732448E-01
   7154.33  5.8203558E-01
   7154.67  5.7619499E-01
   7155.00  5.6956368E-01
   7155.33  5.6175724E-01
   7155.67  5.5270123E-01
   7156.00  5.4227790E-01
   7156.33  5.3026134E-01
   7156.67  5.1689178E-01
   7157.00  5.0231818E-01
   7157.33  4.8670186E-01
   7157.67  4.7053201E-01
   7158.00  4.5417846E-01
   7158.33  4.3810755E-01
   7158.67  4.2267758E-01
   7159.00  4.0816011E-01
   7159.33  3.9491686E-01
   7159.67  3.8291277E-01
   7160.00  3.7215180E-01
   7160.33  3.6270256E-01
   7160.67  3.5428428E-01
   7161.00  3.4675331E-01
   7161.33  3.4001751E-01
   7161.67  3.3381179E-01
   7162.00  3.2799796E-01
   7162.33  3.2246764E-01
   7162.67  3.1707953E-01
   7163.00  3.1176928E-01
   7163.33  3.0650136E-01
   7163.67  3.0126956E-01
   7164.00  2.9610340E-01
   7164.33  2.9108117E-01
   7164.67  2.8626591E-01
   7165.00  2.8173563E-01
   7165.33  2.7763284E-01
   7165.67  2.7399288E-01
   7166.00  2.7086984E-01
   7166.33  2.6837406E-01
   7166.67  2.6645246E-01
   7167.00  2.6510107E-01
   7167.33  2.6436577E-01
   7167.67  2.6414263E-01
   7168.00  2.6439535E-01
   7168.33  2.6513207E-01
   7168.67  2.6625218E-01
   7169.00  2.6771608E-01
   7169.33  2.6951705E-01
   7169.67  2.7157574E-01
   7170.00  2.7385746E-01
   7170.33  2.7634424E-01
   7170.67  2.7896687E-01
   7171.00  2.8167280E-01
   7171.33  2.8436334E-01
   7171.67  2.8686354E-01
   7172.00  2.8893637E-01
