    FDMNES
    energy     <xanes>
   7097.00  5.0388101E-03
   7097.33  5.1545199E-03
   7097.67  5.2754058E-03
   7098.00  5.4018181E-03
   7098.33  5.5349549E-03
   7098.67  5.6745721E-03
   7099.00  5.8211476E-03
   7099.33  5.9762500E-03
   7099.67  6.1396308E-03
   7100.00  6.3119607E-03
   7100.33  6.4953480E-03
   7100.67  6.6895651E-03
   7101.00  6.8955830E-03
   7101.33  7.1163266E-03
   7101.67  7.3516449E-03
   7102.00  7.6029978E-03
   7102.33  7.8745987E-03
   7102.67  8.1664981E-03
   7103.00  8.4809913E-03
   7103.33  8.8244365E-03
   7103.67  9.1973680E-03
   7104.00  9.6036023E-03
   7104.33  1.0053304E-02
   7104.67  1.0548172E-02
   7105.00  1.1095015E-02
   7105.33  1.1711333E-02
   7105.67  1.2401768E-02
   7106.00  1.3179636E-02
   7106.33  1.4078203E-02
   7106.67  1.5110280E-02
   7107.00  1.6305430E-02
   7107.33  1.7736325E-02
   7107.67  1.9442246E-02
   7108.00  2.1502198E-02
   7108.33  2.4112140E-02
   7108.67  2.7421449E-02
   7109.00  3.1713726E-02
   7109.33  3.7736837E-02
   7109.67  4.6327465E-02
   7110.00  5.9129142E-02
   7110.33  8.0846168E-02
   7110.67  1.1613645E-01
   7111.00  1.6432551E-01
   7111.33  2.0623546E-01
   7111.67  2.3536125E-01
   7112.00  2.6322888E-01
   7112.33  3.0246495E-01
   7112.67  3.5290292E-01
   7113.00  3.9564579E-01
   7113.33  3.9670380E-01
   7113.67  3.6209239E-01
   7114.00  3.1523375E-01
   7114.33  2.7843385E-01
   7114.67  2.5404068E-01
   7115.00  2.3612764E-01
   7115.33  2.1622586E-01
   7115.67  1.9319907E-01
   7116.00  1.7046287E-01
   7116.33  1.5141565E-01
   7116.67  1.3633803E-01
   7117.00  1.2508299E-01
   7117.33  1.1771887E-01
   7117.67  1.1336002E-01
   7118.00  1.1163182E-01
   7118.33  1.1247259E-01
   7118.67  1.1529260E-01
   7119.00  1.1975298E-01
   7119.33  1.2540508E-01
   7119.67  1.3122388E-01
   7120.00  1.3567626E-01
   7120.33  1.3520050E-01
   7120.67  1.2990869E-01
   7121.00  1.2301346E-01
   7121.33  1.1741291E-01
   7121.67  1.1369210E-01
   7122.00  1.1206324E-01
   7122.33  1.1292318E-01
   7122.67  1.1600444E-01
   7123.00  1.2130839E-01
   7123.33  1.2918899E-01
   7123.67  1.3950987E-01
   7124.00  1.5244737E-01
   7124.33  1.6856216E-01
   7124.67  1.8755753E-01
   7125.00  2.0918227E-01
   7125.33  2.3323458E-01
   7125.67  2.5949106E-01
   7126.00  2.8842763E-01
   7126.33  3.2089561E-01
   7126.67  3.5689074E-01
   7127.00  3.9675662E-01
   7127.33  4.4123718E-01
   7127.67  4.8956433E-01
   7128.00  5.4084235E-01
   7128.33  5.9289044E-01
   7128.67  6.4204054E-01
   7129.00  6.8523778E-01
   7129.33  7.2014970E-01
   7129.67  7.4881537E-01
   7130.00  7.7294302E-01
   7130.33  7.9397989E-01
   7130.67  8.1391897E-01
   7131.00  8.3416685E-01
   7131.33  8.5620798E-01
   7131.67  8.8031214E-01
   7132.00  9.0612883E-01
   7132.33  9.3267929E-01
   7132.67  9.5851205E-01
   7133.00  9.8245950E-01
   7133.33  1.0028871E+00
   7133.67  1.0190424E+00
   7134.00  1.0300336E+00
   7134.33  1.0343404E+00
   7134.67  1.0324475E+00
   7135.00  1.0246667E+00
   7135.33  1.0113002E+00
   7135.67  9.9423775E-01
   7136.00  9.7459408E-01
   7136.33  9.5327200E-01
   7136.67  9.3119485E-01
   7137.00  9.0868900E-01
   7137.33  8.8576647E-01
   7137.67  8.6226524E-01
   7138.00  8.3787970E-01
   7138.33  8.1207218E-01
   7138.67  7.8474311E-01
   7139.00  7.5587923E-01
   7139.33  7.2563192E-01
   7139.67  6.9478758E-01
   7140.00  6.6410982E-01
   7140.33  6.3486750E-01
   7140.67  6.0814447E-01
   7141.00  5.8496535E-01
   7141.33  5.6674005E-01
   7141.67  5.5308323E-01
   7142.00  5.4345327E-01
   7142.33  5.3702731E-01
   7142.67  5.3225791E-01
   7143.00  5.2849093E-01
   7143.33  5.2556308E-01
   7143.67  5.2345756E-01
   7144.00  5.2229571E-01
   7144.33  5.2222187E-01
   7144.67  5.2291643E-01
   7145.00  5.2401311E-01
   7145.33  5.2487685E-01
   7145.67  5.2484629E-01
   7146.00  5.2340086E-01
   7146.33  5.1994891E-01
   7146.67  5.1467217E-01
   7147.00  5.0775402E-01
   7147.33  4.9940100E-01
   7147.67  4.9020833E-01
   7148.00  4.8054957E-01
   7148.33  4.7080097E-01
   7148.67  4.6128385E-01
   7149.00  4.5220194E-01
   7149.33  4.4379560E-01
   7149.67  4.3608387E-01
   7150.00  4.2909799E-01
   7150.33  4.2291642E-01
   7150.67  4.1740095E-01
   7151.00  4.1249011E-01
   7151.33  4.0816515E-01
   7151.67  4.0427409E-01
   7152.00  4.0074628E-01
   7152.33  3.9754399E-01
   7152.67  3.9456906E-01
   7153.00  3.9177884E-01
   7153.33  3.8915300E-01
   7153.67  3.8664530E-01
   7154.00  3.8423966E-01
   7154.33  3.8193632E-01
   7154.67  3.7971858E-01
   7155.00  3.7758606E-01
   7155.33  3.7555609E-01
   7155.67  3.7363022E-01
   7156.00  3.7182396E-01
   7156.33  3.7017622E-01
   7156.67  3.6869218E-01
   7157.00  3.6739104E-01
   7157.33  3.6631797E-01
   7157.67  3.6546300E-01
   7158.00  3.6483493E-01
   7158.33  3.6446794E-01
   7158.67  3.6433349E-01
   7159.00  3.6442926E-01
   7159.33  3.6477935E-01
   7159.67  3.6535205E-01
   7160.00  3.6614721E-01
   7160.33  3.6719851E-01
   7160.67  3.6848705E-01
   7161.00  3.7002547E-01
   7161.33  3.7187036E-01
   7161.67  3.7400422E-01
   7162.00  3.7643615E-01
   7162.33  3.7921157E-01
   7162.67  3.8228934E-01
   7163.00  3.8565486E-01
   7163.33  3.8931266E-01
   7163.67  3.9319777E-01
   7164.00  3.9727972E-01
   7164.33  4.0154016E-01
   7164.67  4.0591876E-01
   7165.00  4.1037897E-01
   7165.33  4.1488091E-01
   7165.67  4.1937410E-01
   7166.00  4.2381940E-01
   7166.33  4.2816227E-01
   7166.67  4.3237640E-01
   7167.00  4.3643649E-01
   7167.33  4.4030262E-01
   7167.67  4.4399013E-01
   7168.00  4.4750209E-01
   7168.33  4.5082986E-01
   7168.67  4.5401167E-01
   7169.00  4.5706444E-01
   7169.33  4.5999280E-01
   7169.67  4.6282429E-01
   7170.00  4.6556423E-01
   7170.33  4.6819677E-01
   7170.67  4.7072048E-01
   7171.00  4.7311438E-01
   7171.33  4.7531187E-01
   7171.67  4.7725249E-01
   7172.00  4.7883189E-01
