    FDMNES
    energy     <xanes>
   7097.00  5.0946572E-03
   7097.33  5.2176967E-03
   7097.67  5.3464764E-03
   7098.00  5.4813959E-03
   7098.33  5.6238028E-03
   7098.67  5.7734412E-03
   7099.00  5.9308596E-03
   7099.33  6.0978334E-03
   7099.67  6.2741057E-03
   7100.00  6.4604500E-03
   7100.33  6.6592686E-03
   7100.67  6.8703343E-03
   7101.00  7.0947727E-03
   7101.33  7.3359391E-03
   7101.67  7.5937032E-03
   7102.00  7.8697661E-03
   7102.33  8.1689945E-03
   7102.67  8.4915045E-03
   7103.00  8.8399852E-03
   7103.33  9.2218297E-03
   7103.67  9.6377403E-03
   7104.00  1.0092210E-02
   7104.33  1.0597137E-02
   7104.67  1.1154627E-02
   7105.00  1.1772732E-02
   7105.33  1.2472066E-02
   7105.67  1.3258272E-02
   7106.00  1.4147171E-02
   7106.33  1.5178176E-02
   7106.67  1.6366739E-02
   7107.00  1.7748123E-02
   7107.33  1.9408880E-02
   7107.67  2.1396257E-02
   7108.00  2.3804820E-02
   7108.33  2.6869013E-02
   7108.67  3.0768532E-02
   7109.00  3.5844089E-02
   7109.33  4.2994747E-02
   7109.67  5.3230439E-02
   7110.00  6.8534400E-02
   7110.33  9.4552637E-02
   7110.67  1.3652585E-01
   7111.00  1.9238966E-01
   7111.33  2.4091552E-01
   7111.67  2.7780524E-01
   7112.00  3.1660616E-01
   7112.33  3.7294504E-01
   7112.67  4.3536494E-01
   7113.00  4.8104773E-01
   7113.33  4.7619115E-01
   7113.67  4.3429484E-01
   7114.00  3.7744404E-01
   7114.33  3.1911466E-01
   7114.67  2.6563568E-01
   7115.00  2.2078075E-01
   7115.33  1.8739861E-01
   7115.67  1.6255052E-01
   7116.00  1.4391994E-01
   7116.33  1.3001602E-01
   7116.67  1.1977997E-01
   7117.00  1.1341273E-01
   7117.33  1.1119400E-01
   7117.67  1.1184551E-01
   7118.00  1.1420898E-01
   7118.33  1.1674416E-01
   7118.67  1.1878554E-01
   7119.00  1.2082906E-01
   7119.33  1.2303359E-01
   7119.67  1.2393423E-01
   7120.00  1.2253468E-01
   7120.33  1.1950455E-01
   7120.67  1.1669067E-01
   7121.00  1.1514174E-01
   7121.33  1.1564221E-01
   7121.67  1.1812579E-01
   7122.00  1.2268728E-01
   7122.33  1.2983896E-01
   7122.67  1.3972080E-01
   7123.00  1.5286340E-01
   7123.33  1.7040755E-01
   7123.67  1.9203536E-01
   7124.00  2.1683333E-01
   7124.33  2.4239036E-01
   7124.67  2.6660893E-01
   7125.00  2.9004325E-01
   7125.33  3.1477240E-01
   7125.67  3.4066162E-01
   7126.00  3.6555611E-01
   7126.33  3.8619211E-01
   7126.67  4.0258703E-01
   7127.00  4.1688540E-01
   7127.33  4.3358229E-01
   7127.67  4.5673985E-01
   7128.00  4.8924587E-01
   7128.33  5.3420338E-01
   7128.67  5.8980289E-01
   7129.00  6.5358427E-01
   7129.33  7.2054434E-01
   7129.67  7.8388876E-01
   7130.00  8.3934857E-01
   7130.33  8.8363514E-01
   7130.67  9.1804289E-01
   7131.00  9.4270454E-01
   7131.33  9.5592928E-01
   7131.67  9.5879187E-01
   7132.00  9.5207133E-01
   7132.33  9.3692366E-01
   7132.67  9.1699329E-01
   7133.00  8.9446527E-01
   7133.33  8.7113613E-01
   7133.67  8.4817900E-01
   7134.00  8.2601439E-01
   7134.33  8.0485278E-01
   7134.67  7.8438319E-01
   7135.00  7.6422546E-01
   7135.33  7.4372547E-01
   7135.67  7.2234651E-01
   7136.00  6.9982307E-01
   7136.33  6.7601789E-01
   7136.67  6.5130371E-01
   7137.00  6.2596044E-01
   7137.33  6.0032475E-01
   7137.67  5.7484931E-01
   7138.00  5.4995409E-01
   7138.33  5.2635632E-01
   7138.67  5.0456498E-01
   7139.00  4.8516210E-01
   7139.33  4.6915624E-01
   7139.67  4.5667253E-01
   7140.00  4.4795899E-01
   7140.33  4.4349168E-01
   7140.67  4.4250544E-01
   7141.00  4.4457711E-01
   7141.33  4.4943825E-01
   7141.67  4.5621004E-01
   7142.00  4.6445444E-01
   7142.33  4.7384585E-01
   7142.67  4.8383510E-01
   7143.00  4.9406300E-01
   7143.33  5.0409162E-01
   7143.67  5.1356176E-01
   7144.00  5.2221008E-01
   7144.33  5.2971239E-01
   7144.67  5.3612487E-01
   7145.00  5.4146947E-01
   7145.33  5.4570744E-01
   7145.67  5.4906879E-01
   7146.00  5.5164115E-01
   7146.33  5.5342284E-01
   7146.67  5.5457026E-01
   7147.00  5.5513256E-01
   7147.33  5.5510299E-01
   7147.67  5.5462182E-01
   7148.00  5.5376950E-01
   7148.33  5.5262714E-01
   7148.67  5.5135629E-01
   7149.00  5.5007369E-01
   7149.33  5.4892740E-01
   7149.67  5.4802134E-01
   7150.00  5.4743936E-01
   7150.33  5.4730105E-01
   7150.67  5.4759407E-01
   7151.00  5.4832295E-01
   7151.33  5.4951520E-01
   7151.67  5.5106827E-01
   7152.00  5.5292198E-01
   7152.33  5.5502194E-01
   7152.67  5.5725381E-01
   7153.00  5.5954403E-01
   7153.33  5.6181159E-01
   7153.67  5.6399178E-01
   7154.00  5.6603632E-01
   7154.33  5.6787910E-01
   7154.67  5.6951296E-01
   7155.00  5.7092249E-01
   7155.33  5.7206935E-01
   7155.67  5.7297985E-01
   7156.00  5.7365433E-01
   7156.33  5.7406479E-01
   7156.67  5.7424056E-01
   7157.00  5.7417865E-01
   7157.33  5.7383923E-01
   7157.67  5.7323660E-01
   7158.00  5.7234980E-01
   7158.33  5.7110621E-01
   7158.67  5.6950402E-01
   7159.00  5.6750221E-01
   7159.33  5.6499367E-01
   7159.67  5.6198578E-01
   7160.00  5.5844121E-01
   7160.33  5.5426033E-01
   7160.67  5.4950320E-01
   7161.00  5.4417431E-01
   7161.33  5.3824938E-01
   7161.67  5.3187245E-01
   7162.00  5.2512201E-01
   7162.33  5.1806306E-01
   7162.67  5.1083742E-01
   7163.00  5.0353992E-01
   7163.33  4.9627981E-01
   7163.67  4.8914751E-01
   7164.00  4.8221443E-01
   7164.33  4.7558256E-01
   7164.67  4.6927011E-01
   7165.00  4.6330930E-01
   7165.33  4.5777116E-01
   7165.67  4.5261817E-01
   7166.00  4.4784799E-01
   7166.33  4.4349594E-01
   7166.67  4.3949907E-01
   7167.00  4.3584054E-01
   7167.33  4.3253801E-01
   7167.67  4.2953040E-01
   7168.00  4.2680165E-01
   7168.33  4.2436532E-01
   7168.67  4.2216188E-01
   7169.00  4.2016800E-01
   7169.33  4.1838473E-01
   7169.67  4.1677182E-01
   7170.00  4.1531836E-01
   7170.33  4.1403045E-01
   7170.67  4.1287774E-01
   7171.00  4.1185140E-01
   7171.33  4.1096092E-01
   7171.67  4.1019531E-01
   7172.00  4.0956794E-01
