    FDMNES
    energy     <xanes>
   7097.00  4.9863638E-03
   7097.33  5.0985536E-03
   7097.67  5.2155397E-03
   7098.00  5.3376254E-03
   7098.33  5.4658841E-03
   7098.67  5.6000587E-03
   7099.00  5.7405533E-03
   7099.33  5.8887433E-03
   7099.67  6.0443536E-03
   7100.00  6.2079352E-03
   7100.33  6.3812892E-03
   7100.67  6.5641342E-03
   7101.00  6.7572414E-03
   7101.33  6.9630306E-03
   7101.67  7.1812416E-03
   7102.00  7.4129876E-03
   7102.33  7.6616207E-03
   7102.67  7.9269636E-03
   7103.00  8.2106837E-03
   7103.33  8.5175991E-03
   7103.67  8.8477533E-03
   7104.00  9.2037592E-03
   7104.33  9.5928655E-03
   7104.67  1.0015654E-02
   7105.00  1.0476457E-02
   7105.33  1.0986830E-02
   7105.67  1.1548670E-02
   7106.00  1.2169699E-02
   7106.33  1.2869807E-02
   7106.67  1.3654272E-02
   7107.00  1.4538290E-02
   7107.33  1.5559918E-02
   7107.67  1.6734153E-02
   7108.00  1.8095468E-02
   7108.33  1.9729059E-02
   7108.67  2.1683637E-02
   7109.00  2.4056885E-02
   7109.33  2.7095504E-02
   7109.67  3.1009266E-02
   7110.00  3.6203199E-02
   7110.33  4.3784744E-02
   7110.67  5.5003656E-02
   7111.00  7.1686974E-02
   7111.33  9.7327997E-02
   7111.67  1.3273538E-01
   7112.00  1.7309420E-01
   7112.33  2.0315375E-01
   7112.67  2.2451977E-01
   7113.00  2.4193774E-01
   7113.33  2.7142937E-01
   7113.67  3.2007058E-01
   7114.00  3.6454416E-01
   7114.33  3.8470655E-01
   7114.67  4.1528951E-01
   7115.00  4.7303414E-01
   7115.33  5.1806064E-01
   7115.67  5.0803451E-01
   7116.00  4.5503133E-01
   7116.33  3.8948906E-01
   7116.67  3.3356190E-01
   7117.00  2.9404966E-01
   7117.33  2.7261423E-01
   7117.67  2.6186243E-01
   7118.00  2.5328412E-01
   7118.33  2.3522420E-01
   7118.67  2.0794443E-01
   7119.00  1.7913939E-01
   7119.33  1.5670947E-01
   7119.67  1.4113999E-01
   7120.00  1.3119773E-01
   7120.33  1.2561427E-01
   7120.67  1.2256226E-01
   7121.00  1.2136296E-01
   7121.33  1.2168836E-01
   7121.67  1.2276614E-01
   7122.00  1.2413946E-01
   7122.33  1.2592379E-01
   7122.67  1.2853777E-01
   7123.00  1.3221613E-01
   7123.33  1.3663899E-01
   7123.67  1.4063574E-01
   7124.00  1.4376991E-01
   7124.33  1.4675321E-01
   7124.67  1.5083300E-01
   7125.00  1.5695233E-01
   7125.33  1.6630202E-01
   7125.67  1.7905912E-01
   7126.00  1.9547816E-01
   7126.33  2.1622607E-01
   7126.67  2.4103027E-01
   7127.00  2.7005347E-01
   7127.33  3.0368286E-01
   7127.67  3.4054073E-01
   7128.00  3.7912600E-01
   7128.33  4.1704415E-01
   7128.67  4.5233105E-01
   7129.00  4.8414626E-01
   7129.33  5.1235843E-01
   7129.67  5.3864187E-01
   7130.00  5.6432179E-01
   7130.33  5.9066737E-01
   7130.67  6.1812500E-01
   7131.00  6.4654368E-01
   7131.33  6.7534891E-01
   7131.67  7.0391675E-01
   7132.00  7.3205636E-01
   7132.33  7.5985105E-01
   7132.67  7.8748626E-01
   7133.00  8.1477262E-01
   7133.33  8.4063883E-01
   7133.67  8.6367151E-01
   7134.00  8.8242468E-01
   7134.33  8.9506387E-01
   7134.67  9.0200807E-01
   7135.00  9.0363946E-01
   7135.33  9.0012054E-01
   7135.67  8.9272573E-01
   7136.00  8.8193998E-01
   7136.33  8.6780084E-01
   7136.67  8.5097603E-01
   7137.00  8.3171347E-01
   7137.33  8.1008872E-01
   7137.67  7.8673737E-01
   7138.00  7.6199726E-01
   7138.33  7.3616305E-01
   7138.67  7.0983652E-01
   7139.00  6.8353012E-01
   7139.33  6.5808240E-01
   7139.67  6.3424057E-01
   7140.00  6.1269116E-01
   7140.33  5.9438855E-01
   7140.67  5.7925483E-01
   7141.00  5.6730139E-01
   7141.33  5.5874475E-01
   7141.67  5.5297114E-01
   7142.00  5.4977404E-01
   7142.33  5.4920293E-01
   7142.67  5.5074275E-01
   7143.00  5.5424536E-01
   7143.33  5.5979269E-01
   7143.67  5.6697610E-01
   7144.00  5.7554280E-01
   7144.33  5.8510579E-01
   7144.67  5.9477388E-01
   7145.00  6.0366558E-01
   7145.33  6.1042779E-01
   7145.67  6.1438420E-01
   7146.00  6.1514895E-01
   7146.33  6.1243846E-01
   7146.67  6.0722550E-01
   7147.00  6.0022754E-01
   7147.33  5.9214859E-01
   7147.67  5.8375271E-01
   7148.00  5.7540857E-01
   7148.33  5.6739331E-01
   7148.67  5.5976339E-01
   7149.00  5.5252437E-01
   7149.33  5.4568017E-01
   7149.67  5.3913060E-01
   7150.00  5.3283388E-01
   7150.33  5.2679127E-01
   7150.67  5.2097921E-01
   7151.00  5.1543008E-01
   7151.33  5.1025483E-01
   7151.67  5.0551064E-01
   7152.00  5.0129923E-01
   7152.33  4.9783115E-01
   7152.67  4.9514963E-01
   7153.00  4.9335021E-01
   7153.33  4.9263759E-01
   7153.67  4.9293665E-01
   7154.00  4.9425125E-01
   7154.33  4.9666290E-01
   7154.67  4.9996055E-01
   7155.00  5.0403223E-01
   7155.33  5.0878934E-01
   7155.67  5.1396104E-01
   7156.00  5.1936657E-01
   7156.33  5.2480068E-01
   7156.67  5.3006834E-01
   7157.00  5.3502630E-01
   7157.33  5.3948426E-01
   7157.67  5.4340122E-01
   7158.00  5.4672517E-01
   7158.33  5.4935186E-01
   7158.67  5.5136313E-01
   7159.00  5.5278220E-01
   7159.33  5.5358356E-01
   7159.67  5.5388923E-01
   7160.00  5.5374817E-01
   7160.33  5.5316746E-01
   7160.67  5.5224700E-01
   7161.00  5.5102481E-01
   7161.33  5.4950505E-01
   7161.67  5.4775158E-01
   7162.00  5.4578723E-01
   7162.33  5.4361508E-01
   7162.67  5.4128496E-01
   7163.00  5.3881799E-01
   7163.33  5.3622399E-01
   7163.67  5.3354186E-01
   7164.00  5.3079342E-01
   7164.33  5.2799880E-01
   7164.67  5.2518767E-01
   7165.00  5.2237791E-01
   7165.33  5.1957915E-01
   7165.67  5.1678886E-01
   7166.00  5.1400864E-01
   7166.33  5.1123920E-01
   7166.67  5.0847312E-01
   7167.00  5.0570104E-01
   7167.33  5.0290500E-01
   7167.67  5.0006982E-01
   7168.00  4.9718012E-01
   7168.33  4.9421031E-01
   7168.67  4.9115624E-01
   7169.00  4.8801213E-01
   7169.33  4.8476866E-01
   7169.67  4.8144842E-01
   7170.00  4.7806938E-01
   7170.33  4.7465975E-01
   7170.67  4.7126878E-01
   7171.00  4.6795212E-01
   7171.33  4.6482781E-01
   7171.67  4.6202855E-01
   7172.00  4.5973949E-01
