    FDMNES
    energy     <xanes>
   7097.00  5.2233708E-03
   7097.33  5.3451225E-03
   7097.67  5.4722960E-03
   7098.00  5.6052487E-03
   7098.33  5.7452188E-03
   7098.67  5.8919356E-03
   7099.00  6.0458811E-03
   7099.33  6.2086599E-03
   7099.67  6.3799884E-03
   7100.00  6.5605328E-03
   7100.33  6.7524225E-03
   7100.67  6.9553798E-03
   7101.00  7.1703520E-03
   7101.33  7.4002457E-03
   7101.67  7.6448319E-03
   7102.00  7.9055038E-03
   7102.33  8.1863641E-03
   7102.67  8.4873276E-03
   7103.00  8.8105279E-03
   7103.33  9.1619971E-03
   7103.67  9.5420073E-03
   7104.00  9.9539921E-03
   7104.33  1.0407281E-02
   7104.67  1.0903005E-02
   7105.00  1.1447043E-02
   7105.33  1.2054791E-02
   7105.67  1.2729493E-02
   7106.00  1.3482070E-02
   7106.33  1.4340206E-02
   7106.67  1.5312754E-02
   7107.00  1.6422370E-02
   7107.33  1.7725183E-02
   7107.67  1.9247013E-02
   7108.00  2.1043068E-02
   7108.33  2.3249646E-02
   7108.67  2.5956312E-02
   7109.00  2.9336801E-02
   7109.33  3.3837445E-02
   7109.67  3.9892869E-02
   7110.00  4.8346281E-02
   7110.33  6.1566542E-02
   7110.67  8.2214725E-02
   7111.00  1.1280883E-01
   7111.33  1.5317318E-01
   7111.67  1.9661398E-01
   7112.00  2.3796455E-01
   7112.33  2.7911359E-01
   7112.67  3.1773907E-01
   7113.00  3.4658669E-01
   7113.33  3.7082178E-01
   7113.67  4.0519691E-01
   7114.00  4.5320433E-01
   7114.33  4.8919537E-01
   7114.67  4.7910687E-01
   7115.00  4.2726002E-01
   7115.33  3.6488769E-01
   7115.67  3.1484706E-01
   7116.00  2.8157713E-01
   7116.33  2.6390392E-01
   7116.67  2.5227520E-01
   7117.00  2.3766771E-01
   7117.33  2.1416286E-01
   7117.67  1.8905874E-01
   7118.00  1.6915570E-01
   7118.33  1.5790089E-01
   7118.67  1.5269299E-01
   7119.00  1.5079000E-01
   7119.33  1.4957369E-01
   7119.67  1.4810970E-01
   7120.00  1.4651676E-01
   7120.33  1.4522020E-01
   7120.67  1.4469706E-01
   7121.00  1.4547782E-01
   7121.33  1.4856017E-01
   7121.67  1.5394770E-01
   7122.00  1.6107021E-01
   7122.33  1.6914843E-01
   7122.67  1.7826114E-01
   7123.00  1.8928286E-01
   7123.33  2.0264900E-01
   7123.67  2.1645790E-01
   7124.00  2.2888039E-01
   7124.33  2.3948439E-01
   7124.67  2.5046388E-01
   7125.00  2.6351219E-01
   7125.33  2.7954694E-01
   7125.67  2.9812897E-01
   7126.00  3.1954725E-01
   7126.33  3.4517611E-01
   7126.67  3.7524534E-01
   7127.00  4.0922219E-01
   7127.33  4.4449722E-01
   7127.67  4.7685634E-01
   7128.00  5.0428801E-01
   7128.33  5.2794346E-01
   7128.67  5.5185097E-01
   7129.00  5.7832584E-01
   7129.33  6.0880730E-01
   7129.67  6.4251163E-01
   7130.00  6.7860692E-01
   7130.33  7.1568297E-01
   7130.67  7.5118656E-01
   7131.00  7.8226682E-01
   7131.33  8.0448067E-01
   7131.67  8.1656026E-01
   7132.00  8.1848309E-01
   7132.33  8.1158484E-01
   7132.67  8.0045565E-01
   7133.00  7.8798246E-01
   7133.33  7.7648640E-01
   7133.67  7.6664053E-01
   7134.00  7.5822095E-01
   7134.33  7.5058736E-01
   7134.67  7.4296551E-01
   7135.00  7.3502436E-01
   7135.33  7.2661107E-01
   7135.67  7.1778602E-01
   7136.00  7.0844178E-01
   7136.33  6.9804048E-01
   7136.67  6.8605866E-01
   7137.00  6.7205095E-01
   7137.33  6.5576129E-01
   7137.67  6.3816794E-01
   7138.00  6.2033659E-01
   7138.33  6.0377610E-01
   7138.67  5.8947998E-01
   7139.00  5.7808976E-01
   7139.33  5.7038072E-01
   7139.67  5.6598990E-01
   7140.00  5.6477216E-01
   7140.33  5.6675305E-01
   7140.67  5.7110686E-01
   7141.00  5.7733649E-01
   7141.33  5.8492182E-01
   7141.67  5.9296028E-01
   7142.00  6.0075857E-01
   7142.33  6.0735785E-01
   7142.67  6.1215351E-01
   7143.00  6.1470441E-01
   7143.33  6.1451431E-01
   7143.67  6.1202480E-01
   7144.00  6.0752470E-01
   7144.33  6.0121524E-01
   7144.67  5.9367797E-01
   7145.00  5.8519480E-01
   7145.33  5.7596731E-01
   7145.67  5.6633568E-01
   7146.00  5.5651150E-01
   7146.33  5.4673801E-01
   7146.67  5.3723083E-01
   7147.00  5.2815879E-01
   7147.33  5.1976002E-01
   7147.67  5.1208335E-01
   7148.00  5.0520414E-01
   7148.33  4.9928555E-01
   7148.67  4.9425207E-01
   7149.00  4.9011702E-01
   7149.33  4.8699652E-01
   7149.67  4.8477070E-01
   7150.00  4.8342615E-01
   7150.33  4.8304492E-01
   7150.67  4.8348334E-01
   7151.00  4.8469737E-01
   7151.33  4.8670471E-01
   7151.67  4.8933694E-01
   7152.00  4.9252195E-01
   7152.33  4.9622914E-01
   7152.67  5.0031004E-01
   7153.00  5.0468841E-01
   7153.33  5.0930606E-01
   7153.67  5.1405709E-01
   7154.00  5.1887892E-01
   7154.33  5.2370680E-01
   7154.67  5.2848192E-01
   7155.00  5.3315930E-01
   7155.33  5.3767385E-01
   7155.67  5.4200081E-01
   7156.00  5.4610418E-01
   7156.33  5.4990933E-01
   7156.67  5.5341240E-01
   7157.00  5.5658721E-01
   7157.33  5.5936684E-01
   7157.67  5.6178015E-01
   7158.00  5.6382001E-01
   7158.33  5.6543716E-01
   7158.67  5.6668140E-01
   7159.00  5.6755814E-01
   7159.33  5.6803101E-01
   7159.67  5.6815406E-01
   7160.00  5.6793532E-01
   7160.33  5.6734593E-01
   7160.67  5.6644164E-01
   7161.00  5.6523253E-01
   7161.33  5.6369321E-01
   7161.67  5.6187360E-01
   7162.00  5.5978674E-01
   7162.33  5.5741842E-01
   7162.67  5.5481976E-01
   7163.00  5.5201044E-01
   7163.33  5.4899338E-01
   7163.67  5.4582171E-01
   7164.00  5.4252253E-01
   7164.33  5.3911415E-01
   7164.67  5.3564097E-01
   7165.00  5.3213254E-01
   7165.33  5.2862145E-01
   7165.67  5.2513847E-01
   7166.00  5.2170778E-01
   7166.33  5.1836253E-01
   7166.67  5.1510965E-01
   7167.00  5.1195755E-01
   7167.33  5.0892306E-01
   7167.67  5.0599039E-01
   7168.00  5.0315171E-01
   7168.33  5.0040220E-01
   7168.67  4.9771433E-01
   7169.00  4.9507424E-01
   7169.33  4.9247186E-01
   7169.67  4.8988447E-01
   7170.00  4.8729973E-01
   7170.33  4.8471592E-01
   7170.67  4.8214651E-01
   7171.00  4.7962002E-01
   7171.33  4.7721406E-01
   7171.67  4.7503434E-01
   7172.00  4.7323467E-01
