    FDMNES
    energy     <xanes>
   7097.00  4.1606452E-03
   7097.33  4.2367723E-03
   7097.67  4.3154306E-03
   7098.00  4.3967480E-03
   7098.33  4.4812385E-03
   7098.67  4.5687259E-03
   7099.00  4.6593746E-03
   7099.33  4.7538153E-03
   7099.67  4.8518573E-03
   7100.00  4.9537174E-03
   7100.33  5.0601865E-03
   7100.67  5.1710632E-03
   7101.00  5.2866429E-03
   7101.33  5.4079456E-03
   7101.67  5.5347696E-03
   7102.00  5.6675333E-03
   7102.33  5.8076012E-03
   7102.67  5.9547967E-03
   7103.00  6.1097433E-03
   7103.33  6.2743541E-03
   7103.67  6.4485414E-03
   7104.00  6.6332949E-03
   7104.33  6.8314716E-03
   7104.67  7.0432319E-03
   7105.00  7.2702816E-03
   7105.33  7.5172678E-03
   7105.67  7.7850295E-03
   7106.00  8.0768440E-03
   7106.33  8.4012060E-03
   7106.67  8.7609451E-03
   7107.00  9.1633471E-03
   7107.33  9.6266965E-03
   7107.67  1.0160560E-02
   7108.00  1.0784823E-02
   7108.33  1.1549372E-02
   7108.67  1.2492799E-02
   7109.00  1.3688914E-02
   7109.33  1.5333690E-02
   7109.67  1.7650489E-02
   7110.00  2.1079283E-02
   7110.33  2.6902729E-02
   7110.67  3.6607873E-02
   7111.00  5.0838226E-02
   7111.33  6.4479281E-02
   7111.67  7.2578837E-02
   7112.00  7.3928849E-02
   7112.33  6.7361458E-02
   7112.67  6.0133164E-02
   7113.00  5.5128665E-02
   7113.33  5.2753504E-02
   7113.67  5.0879608E-02
   7114.00  4.7677902E-02
   7114.33  4.4023143E-02
   7114.67  4.1487006E-02
   7115.00  4.0236130E-02
   7115.33  4.0191944E-02
   7115.67  4.1002453E-02
   7116.00  4.2548335E-02
   7116.33  4.4920596E-02
   7116.67  4.8096453E-02
   7117.00  5.2043172E-02
   7117.33  5.6362650E-02
   7117.67  6.0358715E-02
   7118.00  6.4108754E-02
   7118.33  6.8067937E-02
   7118.67  7.2239469E-02
   7119.00  7.6955619E-02
   7119.33  8.3151020E-02
   7119.67  9.1230647E-02
   7120.00  1.0157847E-01
   7120.33  1.1519921E-01
   7120.67  1.3277165E-01
   7121.00  1.5559524E-01
   7121.33  1.8669174E-01
   7121.67  2.2780324E-01
   7122.00  2.8087809E-01
   7122.33  3.4594337E-01
   7122.67  4.1181116E-01
   7123.00  4.6355040E-01
   7123.33  4.8428502E-01
   7123.67  4.8684245E-01
   7124.00  4.9351201E-01
   7124.33  5.1698595E-01
   7124.67  5.5124374E-01
   7125.00  5.9273677E-01
   7125.33  6.3937536E-01
   7125.67  6.8632048E-01
   7126.00  7.2853160E-01
   7126.33  7.6104593E-01
   7126.67  7.8594891E-01
   7127.00  8.0593781E-01
   7127.33  8.2202044E-01
   7127.67  8.3359196E-01
   7128.00  8.3897519E-01
   7128.33  8.3578354E-01
   7128.67  8.2455179E-01
   7129.00  8.0574706E-01
   7129.33  7.8015487E-01
   7129.67  7.5107488E-01
   7130.00  7.2116781E-01
   7130.33  6.9368542E-01
   7130.67  6.7086673E-01
   7131.00  6.5457973E-01
   7131.33  6.4763428E-01
   7131.67  6.4947219E-01
   7132.00  6.5868352E-01
   7132.33  6.7208679E-01
   7132.67  6.8479099E-01
   7133.00  6.9369913E-01
   7133.33  6.9638246E-01
   7133.67  6.9388482E-01
   7134.00  6.8759229E-01
   7134.33  6.7917218E-01
   7134.67  6.7036149E-01
   7135.00  6.6191838E-01
   7135.33  6.5429965E-01
   7135.67  6.4743883E-01
   7136.00  6.4124251E-01
   7136.33  6.3567757E-01
   7136.67  6.3064749E-01
   7137.00  6.2616998E-01
   7137.33  6.2228252E-01
   7137.67  6.1877143E-01
   7138.00  6.1542989E-01
   7138.33  6.1204046E-01
   7138.67  6.0847965E-01
   7139.00  6.0463951E-01
   7139.33  6.0035166E-01
   7139.67  5.9554830E-01
   7140.00  5.9011934E-01
   7140.33  5.8384913E-01
   7140.67  5.7674901E-01
   7141.00  5.6879824E-01
   7141.33  5.5992363E-01
   7141.67  5.5028873E-01
   7142.00  5.3993580E-01
   7142.33  5.2880032E-01
   7142.67  5.1701081E-01
   7143.00  5.0468240E-01
   7143.33  4.9205668E-01
   7143.67  4.7955868E-01
   7144.00  4.6755687E-01
   7144.33  4.5653685E-01
   7144.67  4.4663806E-01
   7145.00  4.3795469E-01
   7145.33  4.3063779E-01
   7145.67  4.2446937E-01
   7146.00  4.1937971E-01
   7146.33  4.1542824E-01
   7146.67  4.1244817E-01
   7147.00  4.1042402E-01
   7147.33  4.0946507E-01
   7147.67  4.0943533E-01
   7148.00  4.1029857E-01
   7148.33  4.1207716E-01
   7148.67  4.1454677E-01
   7149.00  4.1757311E-01
   7149.33  4.2102992E-01
   7149.67  4.2469870E-01
   7150.00  4.2845150E-01
   7150.33  4.3216444E-01
   7150.67  4.3575193E-01
   7151.00  4.3915355E-01
   7151.33  4.4227424E-01
   7151.67  4.4506901E-01
   7152.00  4.4744615E-01
   7152.33  4.4918568E-01
   7152.67  4.5016430E-01
   7153.00  4.5019308E-01
   7153.33  4.4892095E-01
   7153.67  4.4633811E-01
   7154.00  4.4235874E-01
   7154.33  4.3677894E-01
   7154.67  4.2985012E-01
   7155.00  4.2170665E-01
   7155.33  4.1244314E-01
   7155.67  4.0244492E-01
   7156.00  3.9194821E-01
   7156.33  3.8119007E-01
   7156.67  3.7043728E-01
   7157.00  3.5986471E-01
   7157.33  3.4968593E-01
   7157.67  3.3999376E-01
   7158.00  3.3088152E-01
   7158.33  3.2251593E-01
   7158.67  3.1487646E-01
   7159.00  3.0800284E-01
   7159.33  3.0202653E-01
   7159.67  2.9686587E-01
   7160.00  2.9252674E-01
   7160.33  2.8910776E-01
   7160.67  2.8649354E-01
   7161.00  2.8466757E-01
   7161.33  2.8370258E-01
   7161.67  2.8347768E-01
   7162.00  2.8397279E-01
   7162.33  2.8525660E-01
   7162.67  2.8722738E-01
   7163.00  2.8987640E-01
   7163.33  2.9328029E-01
   7163.67  2.9734957E-01
   7164.00  3.0207911E-01
   7164.33  3.0754232E-01
   7164.67  3.1364640E-01
   7165.00  3.2037913E-01
   7165.33  3.2779860E-01
   7165.67  3.3580398E-01
   7166.00  3.4436731E-01
   7166.33  3.5351020E-01
   7166.67  3.6311229E-01
   7167.00  3.7311396E-01
   7167.33  3.8347090E-01
   7167.67  3.9404370E-01
   7168.00  4.0473417E-01
   7168.33  4.1541475E-01
   7168.67  4.2595020E-01
   7169.00  4.3621964E-01
   7169.33  4.4603507E-01
   7169.67  4.5532062E-01
   7170.00  4.6398226E-01
   7170.33  4.7184197E-01
   7170.67  4.7892508E-01
   7171.00  4.8519794E-01
   7171.33  4.9052533E-01
   7171.67  4.9496179E-01
   7172.00  4.9843658E-01
