    FDMNES
    energy     <xanes>
   7097.00  3.9494503E-03
   7097.33  4.0218101E-03
   7097.67  4.0968671E-03
   7098.00  4.1747847E-03
   7098.33  4.2561563E-03
   7098.67  4.3408305E-03
   7099.00  4.4290277E-03
   7099.33  4.5215092E-03
   7099.67  4.6181188E-03
   7100.00  4.7191629E-03
   7100.33  4.8256467E-03
   7100.67  4.9374214E-03
   7101.00  5.0549284E-03
   7101.33  5.1795430E-03
   7101.67  5.3111513E-03
   7102.00  5.4504179E-03
   7102.33  5.5993085E-03
   7102.67  5.7578073E-03
   7103.00  5.9269702E-03
   7103.33  6.1097645E-03
   7103.67  6.3064231E-03
   7104.00  6.5187383E-03
   7104.33  6.7515128E-03
   7104.67  7.0056066E-03
   7105.00  7.2843293E-03
   7105.33  7.5961895E-03
   7105.67  7.9437180E-03
   7106.00  8.3337353E-03
   7106.33  8.7832467E-03
   7106.67  9.2997318E-03
   7107.00  9.8995019E-03
   7107.33  1.0622707E-02
   7107.67  1.1494210E-02
   7108.00  1.2562228E-02
   7108.33  1.3947666E-02
   7108.67  1.5755073E-02
   7109.00  1.8181102E-02
   7109.33  2.1757104E-02
   7109.67  2.7139837E-02
   7110.00  3.5633560E-02
   7110.33  5.1054175E-02
   7110.67  7.7253432E-02
   7111.00  1.1248714E-01
   7111.33  1.3245337E-01
   7111.67  1.2557934E-01
   7112.00  1.0203365E-01
   7112.33  7.8985337E-02
   7112.67  6.6597641E-02
   7113.00  6.5901432E-02
   7113.33  7.2913889E-02
   7113.67  7.4830171E-02
   7114.00  6.7172206E-02
   7114.33  5.7724332E-02
   7114.67  5.3977125E-02
   7115.00  5.6439170E-02
   7115.33  6.3771666E-02
   7115.67  7.0373220E-02
   7116.00  7.2016790E-02
   7116.33  7.0736092E-02
   7116.67  7.1404297E-02
   7117.00  7.5279125E-02
   7117.33  8.2165655E-02
   7117.67  9.0690897E-02
   7118.00  9.9942477E-02
   7118.33  1.0908807E-01
   7118.67  1.1785838E-01
   7119.00  1.2571932E-01
   7119.33  1.3067846E-01
   7119.67  1.3344002E-01
   7120.00  1.3633835E-01
   7120.33  1.4112893E-01
   7120.67  1.4798496E-01
   7121.00  1.5698493E-01
   7121.33  1.6843419E-01
   7121.67  1.8192668E-01
   7122.00  1.9694632E-01
   7122.33  2.1251120E-01
   7122.67  2.2773468E-01
   7123.00  2.4227217E-01
   7123.33  2.5560440E-01
   7123.67  2.6774290E-01
   7124.00  2.7926537E-01
   7124.33  2.9146777E-01
   7124.67  3.0520419E-01
   7125.00  3.2050323E-01
   7125.33  3.3692664E-01
   7125.67  3.5401768E-01
   7126.00  3.7171700E-01
   7126.33  3.8936325E-01
   7126.67  4.0548388E-01
   7127.00  4.1911765E-01
   7127.33  4.3038068E-01
   7127.67  4.4095710E-01
   7128.00  4.5185623E-01
   7128.33  4.6352677E-01
   7128.67  4.7535412E-01
   7129.00  4.8620132E-01
   7129.33  4.9388985E-01
   7129.67  4.9729069E-01
   7130.00  4.9618273E-01
   7130.33  4.9121900E-01
   7130.67  4.8461388E-01
   7131.00  4.7787945E-01
   7131.33  4.7252786E-01
   7131.67  4.6866237E-01
   7132.00  4.6496924E-01
   7132.33  4.5874956E-01
   7132.67  4.4934015E-01
   7133.00  4.3772393E-01
   7133.33  4.2575096E-01
   7133.67  4.1487203E-01
   7134.00  4.0565982E-01
   7134.33  3.9849661E-01
   7134.67  3.9303120E-01
   7135.00  3.8905746E-01
   7135.33  3.8646060E-01
   7135.67  3.8485063E-01
   7136.00  3.8404819E-01
   7136.33  3.8395586E-01
   7136.67  3.8436437E-01
   7137.00  3.8519883E-01
   7137.33  3.8644979E-01
   7137.67  3.8803519E-01
   7138.00  3.8993661E-01
   7138.33  3.9219450E-01
   7138.67  3.9477368E-01
   7139.00  3.9768036E-01
   7139.33  4.0109705E-01
   7139.67  4.0517574E-01
   7140.00  4.1005818E-01
   7140.33  4.1593170E-01
   7140.67  4.2265226E-01
   7141.00  4.3010428E-01
   7141.33  4.3816386E-01
   7141.67  4.4657356E-01
   7142.00  4.5520193E-01
   7142.33  4.6396387E-01
   7142.67  4.7280232E-01
   7143.00  4.8171716E-01
   7143.33  4.9074585E-01
   7143.67  4.9991332E-01
   7144.00  5.0925723E-01
   7144.33  5.1884195E-01
   7144.67  5.2864797E-01
   7145.00  5.3868294E-01
   7145.33  5.4901086E-01
   7145.67  5.5962538E-01
   7146.00  5.7053355E-01
   7146.33  5.8175743E-01
   7146.67  5.9322279E-01
   7147.00  6.0487337E-01
   7147.33  6.1662956E-01
   7147.67  6.2836300E-01
   7148.00  6.3995922E-01
   7148.33  6.5124637E-01
   7148.67  6.6213008E-01
   7149.00  6.7251347E-01
   7149.33  6.8222445E-01
   7149.67  6.9125552E-01
   7150.00  6.9954843E-01
   7150.33  7.0695040E-01
   7150.67  7.1351870E-01
   7151.00  7.1922476E-01
   7151.33  7.2393283E-01
   7151.67  7.2773821E-01
   7152.00  7.3063492E-01
   7152.33  7.3251081E-01
   7152.67  7.3348706E-01
   7153.00  7.3357280E-01
   7153.33  7.3266991E-01
   7153.67  7.3090203E-01
   7154.00  7.2828550E-01
   7154.33  7.2474888E-01
   7154.67  7.2044631E-01
   7155.00  7.1544453E-01
   7155.33  7.0977481E-01
   7155.67  7.0364346E-01
   7156.00  6.9717828E-01
   7156.33  6.9051080E-01
   7156.67  6.8381238E-01
   7157.00  6.7720321E-01
   7157.33  6.7083874E-01
   7157.67  6.6479693E-01
   7158.00  6.5914457E-01
   7158.33  6.5398782E-01
   7158.67  6.4929757E-01
   7159.00  6.4508004E-01
   7159.33  6.4138633E-01
   7159.67  6.3813985E-01
   7160.00  6.3531800E-01
   7160.33  6.3293689E-01
   7160.67  6.3091020E-01
   7161.00  6.2920393E-01
   7161.33  6.2781214E-01
   7161.67  6.2665817E-01
   7162.00  6.2570498E-01
   7162.33  6.2492758E-01
   7162.67  6.2426137E-01
   7163.00  6.2366657E-01
   7163.33  6.2309828E-01
   7163.67  6.2250479E-01
   7164.00  6.2184453E-01
   7164.33  6.2105757E-01
   7164.67  6.2011789E-01
   7165.00  6.1899770E-01
   7165.33  6.1764853E-01
   7165.67  6.1608360E-01
   7166.00  6.1430093E-01
   7166.33  6.1228116E-01
   7166.67  6.1006607E-01
   7167.00  6.0767378E-01
   7167.33  6.0510943E-01
   7167.67  6.0241757E-01
   7168.00  5.9961950E-01
   7168.33  5.9672729E-01
   7168.67  5.9377043E-01
   7169.00  5.9076226E-01
   7169.33  5.8770993E-01
   7169.67  5.8462782E-01
   7170.00  5.8152363E-01
   7170.33  5.7840750E-01
   7170.67  5.7530099E-01
   7171.00  5.7223630E-01
   7171.33  5.6930079E-01
   7171.67  5.6662607E-01
   7172.00  5.6441123E-01
