    FDMNES
    energy     <xanes>
   7097.00  4.5761592E-03
   7097.33  4.6759321E-03
   7097.67  4.7798536E-03
   7098.00  4.8881857E-03
   7098.33  5.0018576E-03
   7098.67  5.1206490E-03
   7099.00  5.2449126E-03
   7099.33  5.3758460E-03
   7099.67  5.5132194E-03
   7100.00  5.6575213E-03
   7100.33  5.8103359E-03
   7100.67  5.9714406E-03
   7101.00  6.1415346E-03
   7101.33  6.3227814E-03
   7101.67  6.5150041E-03
   7102.00  6.7192434E-03
   7102.33  6.9385728E-03
   7102.67  7.1729481E-03
   7103.00  7.4239958E-03
   7103.33  7.6963019E-03
   7103.67  7.9901586E-03
   7104.00  8.3082677E-03
   7104.33  8.6579136E-03
   7104.67  9.0402288E-03
   7105.00  9.4600618E-03
   7105.33  9.9299710E-03
   7105.67  1.0453281E-02
   7106.00  1.1039627E-02
   7106.33  1.1713181E-02
   7106.67  1.2483573E-02
   7107.00  1.3372818E-02
   7107.33  1.4435217E-02
   7107.67  1.5701692E-02
   7108.00  1.7233739E-02
   7108.33  1.9184815E-02
   7108.67  2.1678757E-02
   7109.00  2.4949836E-02
   7109.33  2.9622894E-02
   7109.67  3.6430809E-02
   7110.00  4.6819235E-02
   7110.33  6.4961948E-02
   7110.67  9.5013806E-02
   7111.00  1.3607165E-01
   7111.33  1.6991746E-01
   7111.67  1.8617953E-01
   7112.00  1.8884011E-01
   7112.33  1.8418562E-01
   7112.67  1.7654678E-01
   7113.00  1.6650627E-01
   7113.33  1.5351674E-01
   7113.67  1.3547629E-01
   7114.00  1.1758926E-01
   7114.33  1.0641156E-01
   7114.67  1.0091794E-01
   7115.00  1.0144920E-01
   7115.33  1.0933826E-01
   7115.67  1.2132405E-01
   7116.00  1.3346951E-01
   7116.33  1.4461037E-01
   7116.67  1.5785085E-01
   7117.00  1.7595504E-01
   7117.33  2.0086497E-01
   7117.67  2.3034022E-01
   7118.00  2.6137793E-01
   7118.33  2.8851123E-01
   7118.67  3.0761587E-01
   7119.00  3.1757688E-01
   7119.33  3.1957984E-01
   7119.67  3.1779254E-01
   7120.00  3.1440502E-01
   7120.33  3.1109942E-01
   7120.67  3.0915847E-01
   7121.00  3.0946325E-01
   7121.33  3.1309613E-01
   7121.67  3.1983890E-01
   7122.00  3.2887921E-01
   7122.33  3.3800567E-01
   7122.67  3.4447197E-01
   7123.00  3.4674605E-01
   7123.33  3.4538653E-01
   7123.67  3.4452347E-01
   7124.00  3.4700965E-01
   7124.33  3.5403952E-01
   7124.67  3.6378488E-01
   7125.00  3.7487765E-01
   7125.33  3.8670798E-01
   7125.67  3.9982101E-01
   7126.00  4.1545608E-01
   7126.33  4.3491190E-01
   7126.67  4.5656493E-01
   7127.00  4.7790681E-01
   7127.33  4.9604197E-01
   7127.67  5.1077407E-01
   7128.00  5.2293020E-01
   7128.33  5.3350245E-01
   7128.67  5.4287065E-01
   7129.00  5.5028228E-01
   7129.33  5.5418273E-01
   7129.67  5.5413331E-01
   7130.00  5.4985684E-01
   7130.33  5.4138667E-01
   7130.67  5.3082864E-01
   7131.00  5.2014910E-01
   7131.33  5.1151235E-01
   7131.67  5.0553621E-01
   7132.00  5.0209122E-01
   7132.33  5.0069581E-01
   7132.67  5.0028274E-01
   7133.00  5.0036335E-01
   7133.33  5.0093163E-01
   7133.67  5.0236310E-01
   7134.00  5.0526002E-01
   7134.33  5.1047018E-01
   7134.67  5.1771228E-01
   7135.00  5.2637867E-01
   7135.33  5.3527308E-01
   7135.67  5.4292119E-01
   7136.00  5.4839392E-01
   7136.33  5.5138199E-01
   7136.67  5.5332980E-01
   7137.00  5.5565129E-01
   7137.33  5.5986078E-01
   7137.67  5.6627923E-01
   7138.00  5.7476087E-01
   7138.33  5.8484440E-01
   7138.67  5.9548103E-01
   7139.00  6.0592234E-01
   7139.33  6.1530828E-01
   7139.67  6.2317905E-01
   7140.00  6.2914923E-01
   7140.33  6.3262015E-01
   7140.67  6.3375626E-01
   7141.00  6.3269301E-01
   7141.33  6.2965118E-01
   7141.67  6.2550254E-01
   7142.00  6.2085611E-01
   7142.33  6.1635982E-01
   7142.67  6.1245686E-01
   7143.00  6.0938340E-01
   7143.33  6.0738200E-01
   7143.67  6.0637346E-01
   7144.00  6.0637142E-01
   7144.33  6.0748468E-01
   7144.67  6.0950183E-01
   7145.00  6.1225508E-01
   7145.33  6.1548040E-01
   7145.67  6.1868734E-01
   7146.00  6.2143663E-01
   7146.33  6.2308730E-01
   7146.67  6.2330971E-01
   7147.00  6.2183058E-01
   7147.33  6.1828758E-01
   7147.67  6.1297330E-01
   7148.00  6.0606474E-01
   7148.33  5.9770368E-01
   7148.67  5.8840094E-01
   7149.00  5.7845274E-01
   7149.33  5.6813043E-01
   7149.67  5.5774636E-01
   7150.00  5.4750514E-01
   7150.33  5.3766641E-01
   7150.67  5.2837586E-01
   7151.00  5.1976681E-01
   7151.33  5.1202919E-01
   7151.67  5.0509040E-01
   7152.00  4.9893863E-01
   7152.33  4.9363082E-01
   7152.67  4.8901949E-01
   7153.00  4.8505493E-01
   7153.33  4.8175913E-01
   7153.67  4.7901760E-01
   7154.00  4.7680710E-01
   7154.33  4.7517595E-01
   7154.67  4.7405171E-01
   7155.00  4.7342994E-01
   7155.33  4.7336547E-01
   7155.67  4.7378363E-01
   7156.00  4.7466667E-01
   7156.33  4.7603828E-01
   7156.67  4.7780323E-01
   7157.00  4.7991709E-01
   7157.33  4.8235123E-01
   7157.67  4.8499852E-01
   7158.00  4.8779239E-01
   7158.33  4.9065472E-01
   7158.67  4.9348403E-01
   7159.00  4.9619630E-01
   7159.33  4.9867356E-01
   7159.67  5.0085753E-01
   7160.00  5.0268349E-01
   7160.33  5.0403809E-01
   7160.67  5.0493219E-01
   7161.00  5.0535292E-01
   7161.33  5.0525594E-01
   7161.67  5.0473605E-01
   7162.00  5.0383741E-01
   7162.33  5.0257557E-01
   7162.67  5.0104441E-01
   7163.00  4.9928556E-01
   7163.33  4.9731349E-01
   7163.67  4.9517890E-01
   7164.00  4.9289960E-01
   7164.33  4.9046491E-01
   7164.67  4.8787839E-01
   7165.00  4.8511303E-01
   7165.33  4.8209713E-01
   7165.67  4.7881171E-01
   7166.00  4.7522393E-01
   7166.33  4.7127574E-01
   7166.67  4.6702193E-01
   7167.00  4.6250594E-01
   7167.33  4.5779029E-01
   7167.67  4.5301045E-01
   7168.00  4.4827600E-01
   7168.33  4.4373585E-01
   7168.67  4.3948195E-01
   7169.00  4.3559163E-01
   7169.33  4.3217682E-01
   7169.67  4.2920850E-01
   7170.00  4.2668130E-01
   7170.33  4.2461478E-01
   7170.67  4.2290716E-01
   7171.00  4.2150842E-01
   7171.33  4.2039436E-01
   7171.67  4.1949083E-01
   7172.00  4.1877752E-01
