    FDMNES
    energy     <xanes>
   7097.00  5.1395335E-03
   7097.33  5.2620887E-03
   7097.67  5.3901954E-03
   7098.00  5.5242253E-03
   7098.33  5.6654561E-03
   7098.67  5.8136190E-03
   7099.00  5.9692178E-03
   7099.33  6.1339164E-03
   7099.67  6.3074363E-03
   7100.00  6.4904783E-03
   7100.33  6.6852638E-03
   7100.67  6.8915272E-03
   7101.00  7.1102733E-03
   7101.33  7.3445568E-03
   7101.67  7.5941767E-03
   7102.00  7.8606257E-03
   7102.33  8.1482576E-03
   7102.67  8.4570504E-03
   7103.00  8.7893205E-03
   7103.33  9.1515516E-03
   7103.67  9.5441619E-03
   7104.00  9.9709444E-03
   7104.33  1.0442102E-02
   7104.67  1.0959119E-02
   7105.00  1.1528644E-02
   7105.33  1.2167922E-02
   7105.67  1.2881116E-02
   7106.00  1.3680980E-02
   7106.33  1.4599583E-02
   7106.67  1.5648461E-02
   7107.00  1.6855275E-02
   7107.33  1.8288271E-02
   7107.67  1.9982436E-02
   7108.00  2.2009572E-02
   7108.33  2.4547514E-02
   7108.67  2.7725702E-02
   7109.00  3.1791065E-02
   7109.33  3.7388018E-02
   7109.67  4.5203991E-02
   7110.00  5.6579602E-02
   7110.33  7.5345303E-02
   7110.67  1.0582900E-01
   7111.00  1.5139427E-01
   7111.33  2.0860965E-01
   7111.67  2.5387833E-01
   7112.00  2.6886372E-01
   7112.33  2.7801718E-01
   7112.67  2.9955200E-01
   7113.00  3.1030630E-01
   7113.33  3.0694815E-01
   7113.67  3.1616567E-01
   7114.00  3.3743089E-01
   7114.33  3.4813338E-01
   7114.67  3.4363058E-01
   7115.00  3.4129613E-01
   7115.33  3.5307473E-01
   7115.67  3.6560990E-01
   7116.00  3.6582937E-01
   7116.33  3.4975058E-01
   7116.67  3.2594613E-01
   7117.00  2.9975826E-01
   7117.33  2.7426564E-01
   7117.67  2.5090763E-01
   7118.00  2.3097484E-01
   7118.33  2.1523970E-01
   7118.67  2.0230874E-01
   7119.00  1.9127549E-01
   7119.33  1.8191770E-01
   7119.67  1.7429594E-01
   7120.00  1.6864069E-01
   7120.33  1.6505748E-01
   7120.67  1.6303002E-01
   7121.00  1.6250264E-01
   7121.33  1.6396955E-01
   7121.67  1.6768428E-01
   7122.00  1.7404546E-01
   7122.33  1.8386498E-01
   7122.67  1.9729079E-01
   7123.00  2.1492161E-01
   7123.33  2.3806958E-01
   7123.67  2.6621504E-01
   7124.00  2.9805158E-01
   7124.33  3.2927299E-01
   7124.67  3.5343962E-01
   7125.00  3.6613356E-01
   7125.33  3.6624992E-01
   7125.67  3.6054465E-01
   7126.00  3.5417538E-01
   7126.33  3.5139105E-01
   7126.67  3.5316619E-01
   7127.00  3.5936286E-01
   7127.33  3.6958193E-01
   7127.67  3.8252864E-01
   7128.00  3.9788325E-01
   7128.33  4.1625622E-01
   7128.67  4.3811465E-01
   7129.00  4.6421445E-01
   7129.33  4.9552143E-01
   7129.67  5.3099510E-01
   7130.00  5.6940329E-01
   7130.33  6.0847793E-01
   7130.67  6.4549491E-01
   7131.00  6.7866546E-01
   7131.33  7.0647828E-01
   7131.67  7.2984940E-01
   7132.00  7.4963245E-01
   7132.33  7.6654314E-01
   7132.67  7.8149626E-01
   7133.00  7.9449497E-01
   7133.33  8.0476686E-01
   7133.67  8.1195570E-01
   7134.00  8.1552947E-01
   7134.33  8.1425068E-01
   7134.67  8.0766520E-01
   7135.00  7.9481032E-01
   7135.33  7.7401294E-01
   7135.67  7.4606997E-01
   7136.00  7.1156269E-01
   7136.33  6.7128909E-01
   7136.67  6.2805011E-01
   7137.00  5.8406534E-01
   7137.33  5.4217181E-01
   7137.67  5.0431496E-01
   7138.00  4.7177820E-01
   7138.33  4.4609687E-01
   7138.67  4.2660119E-01
   7139.00  4.1293539E-01
   7139.33  4.0497703E-01
   7139.67  4.0113843E-01
   7140.00  4.0057643E-01
   7140.33  4.0269916E-01
   7140.67  4.0648444E-01
   7141.00  4.1145976E-01
   7141.33  4.1733203E-01
   7141.67  4.2374635E-01
   7142.00  4.3056483E-01
   7142.33  4.3772871E-01
   7142.67  4.4514441E-01
   7143.00  4.5278216E-01
   7143.33  4.6064202E-01
   7143.67  4.6868159E-01
   7144.00  4.7689101E-01
   7144.33  4.8528733E-01
   7144.67  4.9385916E-01
   7145.00  5.0262754E-01
   7145.33  5.1165804E-01
   7145.67  5.2096200E-01
   7146.00  5.3057036E-01
   7146.33  5.4055061E-01
   7146.67  5.5087213E-01
   7147.00  5.6152899E-01
   7147.33  5.7253546E-01
   7147.67  5.8380843E-01
   7148.00  5.9529337E-01
   7148.33  6.0691792E-01
   7148.67  6.1855515E-01
   7149.00  6.3010244E-01
   7149.33  6.4140312E-01
   7149.67  6.5234289E-01
   7150.00  6.6279332E-01
   7150.33  6.7252415E-01
   7150.67  6.8147267E-01
   7151.00  6.8952543E-01
   7151.33  6.9643602E-01
   7151.67  7.0223298E-01
   7152.00  7.0685587E-01
   7152.33  7.1011627E-01
   7152.67  7.1216622E-01
   7153.00  7.1303595E-01
   7153.33  7.1265357E-01
   7153.67  7.1125552E-01
   7154.00  7.0894526E-01
   7154.33  7.0576418E-01
   7154.67  7.0195841E-01
   7155.00  6.9765825E-01
   7155.33  6.9296717E-01
   7155.67  6.8806402E-01
   7156.00  6.8305122E-01
   7156.33  6.7802580E-01
   7156.67  6.7306264E-01
   7157.00  6.6820479E-01
   7157.33  6.6349669E-01
   7157.67  6.5892797E-01
   7158.00  6.5448929E-01
   7158.33  6.5016904E-01
   7158.67  6.4591924E-01
   7159.00  6.4170523E-01
   7159.33  6.3748217E-01
   7159.67  6.3320526E-01
   7160.00  6.2883430E-01
   7160.33  6.2430359E-01
   7160.67  6.1958268E-01
   7161.00  6.1463131E-01
   7161.33  6.0937035E-01
   7161.67  6.0379399E-01
   7162.00  5.9787356E-01
   7162.33  5.9153888E-01
   7162.67  5.8482555E-01
   7163.00  5.7773907E-01
   7163.33  5.7025922E-01
   7163.67  5.6246962E-01
   7164.00  5.5441665E-01
   7164.33  5.4613908E-01
   7164.67  5.3773260E-01
   7165.00  5.2926200E-01
   7165.33  5.2080420E-01
   7165.67  5.1242901E-01
   7166.00  5.0419294E-01
   7166.33  4.9617880E-01
   7166.67  4.8840850E-01
   7167.00  4.8091134E-01
   7167.33  4.7374751E-01
   7167.67  4.6689370E-01
   7168.00  4.6035491E-01
   7168.33  4.5416793E-01
   7168.67  4.4828547E-01
   7169.00  4.4269695E-01
   7169.33  4.3741962E-01
   7169.67  4.3240168E-01
   7170.00  4.2763233E-01
   7170.33  4.2313558E-01
   7170.67  4.1888617E-01
   7171.00  4.1490354E-01
   7171.33  4.1128199E-01
   7171.67  4.0809507E-01
   7172.00  4.0549596E-01
