    FDMNES
    energy     <xanes>
   7097.00  3.7613041E-03
   7097.33  3.8322031E-03
   7097.67  3.9057524E-03
   7098.00  3.9821116E-03
   7098.33  4.0618622E-03
   7098.67  4.1448541E-03
   7099.00  4.2313017E-03
   7099.33  4.3219487E-03
   7099.67  4.4166387E-03
   7100.00  4.5156677E-03
   7100.33  4.6200130E-03
   7100.67  4.7295214E-03
   7101.00  4.8446154E-03
   7101.33  4.9666211E-03
   7101.67  5.0954110E-03
   7102.00  5.2316119E-03
   7102.33  5.3770954E-03
   7102.67  5.5318099E-03
   7103.00  5.6967302E-03
   7103.33  5.8746276E-03
   7103.67  6.0656428E-03
   7104.00  6.2713815E-03
   7104.33  6.4962026E-03
   7104.67  6.7407190E-03
   7105.00  7.0077749E-03
   7105.33  7.3047760E-03
   7105.67  7.6335403E-03
   7106.00  7.9996022E-03
   7106.33  8.4168934E-03
   7106.67  8.8905867E-03
   7107.00  9.4329124E-03
   7107.33  1.0074041E-02
   7107.67  1.0829962E-02
   7108.00  1.1733114E-02
   7108.33  1.2863917E-02
   7108.67  1.4282557E-02
   7109.00  1.6103289E-02
   7109.33  1.8625328E-02
   7109.67  2.2174501E-02
   7110.00  2.7386010E-02
   7110.33  3.6063984E-02
   7110.67  5.0067179E-02
   7111.00  7.0060433E-02
   7111.33  9.4512191E-02
   7111.67  1.1957946E-01
   7112.00  1.3300481E-01
   7112.33  1.3495250E-01
   7112.67  1.4020515E-01
   7113.00  1.4211387E-01
   7113.33  1.2862361E-01
   7113.67  1.1247436E-01
   7114.00  1.0681324E-01
   7114.33  1.0892530E-01
   7114.67  9.4806356E-02
   7115.00  7.3823872E-02
   7115.33  6.2935791E-02
   7115.67  6.0462177E-02
   7116.00  6.5051149E-02
   7116.33  7.8544115E-02
   7116.67  1.0096130E-01
   7117.00  1.2558500E-01
   7117.33  1.2974249E-01
   7117.67  1.1345957E-01
   7118.00  9.2869580E-02
   7118.33  7.8700859E-02
   7118.67  6.9919842E-02
   7119.00  6.5345826E-02
   7119.33  6.4645779E-02
   7119.67  6.6522892E-02
   7120.00  6.9677438E-02
   7120.33  7.2809288E-02
   7120.67  7.6354271E-02
   7121.00  8.1271689E-02
   7121.33  8.8567299E-02
   7121.67  9.8455764E-02
   7122.00  1.1150166E-01
   7122.33  1.2939509E-01
   7122.67  1.5161359E-01
   7123.00  1.7474515E-01
   7123.33  1.8922630E-01
   7123.67  1.9116774E-01
   7124.00  1.8513782E-01
   7124.33  1.7828362E-01
   7124.67  1.7384184E-01
   7125.00  1.7252773E-01
   7125.33  1.7510457E-01
   7125.67  1.8130517E-01
   7126.00  1.9122328E-01
   7126.33  2.0519332E-01
   7126.67  2.2181168E-01
   7127.00  2.3913930E-01
   7127.33  2.5379292E-01
   7127.67  2.6427563E-01
   7128.00  2.7117231E-01
   7128.33  2.7613500E-01
   7128.67  2.8104375E-01
   7129.00  2.8681323E-01
   7129.33  2.9406173E-01
   7129.67  3.0246711E-01
   7130.00  3.1150915E-01
   7130.33  3.2036166E-01
   7130.67  3.2837568E-01
   7131.00  3.3532894E-01
   7131.33  3.4134397E-01
   7131.67  3.4707484E-01
   7132.00  3.5303556E-01
   7132.33  3.5984349E-01
   7132.67  3.6786918E-01
   7133.00  3.7753001E-01
   7133.33  3.8974249E-01
   7133.67  4.0493164E-01
   7134.00  4.2355366E-01
   7134.33  4.4649412E-01
   7134.67  4.7365074E-01
   7135.00  5.0539636E-01
   7135.33  5.4293171E-01
   7135.67  5.8630138E-01
   7136.00  6.3615039E-01
   7136.33  6.9408738E-01
   7136.67  7.5971511E-01
   7137.00  8.3313778E-01
   7137.33  9.1478786E-01
   7137.67  1.0023500E+00
   7138.00  1.0936800E+00
   7138.33  1.1850110E+00
   7138.67  1.2712135E+00
   7139.00  1.3470511E+00
   7139.33  1.4041631E+00
   7139.67  1.4394610E+00
   7140.00  1.4504808E+00
   7140.33  1.4343878E+00
   7140.67  1.3974226E+00
   7141.00  1.3441161E+00
   7141.33  1.2791908E+00
   7141.67  1.2094052E+00
   7142.00  1.1384632E+00
   7142.33  1.0696527E+00
   7142.67  1.0045898E+00
   7143.00  9.4412351E-01
   7143.33  8.8936384E-01
   7143.67  8.3983461E-01
   7144.00  7.9546873E-01
   7144.33  7.5670540E-01
   7144.67  7.2253755E-01
   7145.00  6.9249288E-01
   7145.33  6.6644086E-01
   7145.67  6.4340200E-01
   7146.00  6.2295132E-01
   7146.33  6.0490655E-01
   7146.67  5.8860175E-01
   7147.00  5.7373726E-01
   7147.33  5.6015144E-01
   7147.67  5.4745079E-01
   7148.00  5.3546501E-01
   7148.33  5.2411950E-01
   7148.67  5.1325174E-01
   7149.00  5.0282270E-01
   7149.33  4.9287674E-01
   7149.67  4.8337953E-01
   7150.00  4.7436274E-01
   7150.33  4.6593623E-01
   7150.67  4.5807868E-01
   7151.00  4.5082384E-01
   7151.33  4.4428133E-01
   7151.67  4.3839150E-01
   7152.00  4.3316189E-01
   7152.33  4.2867146E-01
   7152.67  4.2482382E-01
   7153.00  4.2160067E-01
   7153.33  4.1904980E-01
   7153.67  4.1706510E-01
   7154.00  4.1561743E-01
   7154.33  4.1473337E-01
   7154.67  4.1431223E-01
   7155.00  4.1431952E-01
   7155.33  4.1476059E-01
   7155.67  4.1554107E-01
   7156.00  4.1661829E-01
   7156.33  4.1796962E-01
   7156.67  4.1950856E-01
   7157.00  4.2118545E-01
   7157.33  4.2295205E-01
   7157.67  4.2474144E-01
   7158.00  4.2650716E-01
   7158.33  4.2819078E-01
   7158.67  4.2975932E-01
   7159.00  4.3118345E-01
   7159.33  4.3241620E-01
   7159.67  4.3346234E-01
   7160.00  4.3431517E-01
   7160.33  4.3494984E-01
   7160.67  4.3539630E-01
   7161.00  4.3566410E-01
   7161.33  4.3574835E-01
   7161.67  4.3568822E-01
   7162.00  4.3550138E-01
   7162.33  4.3519630E-01
   7162.67  4.3480759E-01
   7163.00  4.3435286E-01
   7163.33  4.3384494E-01
   7163.67  4.3330551E-01
   7164.00  4.3274563E-01
   7164.33  4.3217337E-01
   7164.67  4.3159527E-01
   7165.00  4.3101281E-01
   7165.33  4.3042401E-01
   7165.67  4.2982510E-01
   7166.00  4.2921010E-01
   7166.33  4.2856763E-01
   7166.67  4.2789173E-01
   7167.00  4.2717431E-01
   7167.33  4.2640000E-01
   7167.67  4.2556753E-01
   7168.00  4.2467207E-01
   7168.33  4.2370158E-01
   7168.67  4.2266270E-01
   7169.00  4.2155582E-01
   7169.33  4.2037594E-01
   7169.67  4.1913720E-01
   7170.00  4.1784725E-01
   7170.33  4.1651329E-01
   7170.67  4.1515735E-01
   7171.00  4.1380119E-01
   7171.33  4.1249080E-01
   7171.67  4.1129270E-01
   7172.00  4.1029873E-01
