    FDMNES
    energy     <xanes>
   7097.00  5.1591744E-03
   7097.33  5.2786764E-03
   7097.67  5.4034115E-03
   7098.00  5.5337223E-03
   7098.33  5.6708008E-03
   7098.67  5.8143845E-03
   7099.00  5.9649375E-03
   7099.33  6.1240076E-03
   7099.67  6.2913240E-03
   7100.00  6.4675332E-03
   7100.33  6.6546992E-03
   7100.67  6.8525658E-03
   7101.00  7.0620639E-03
   7101.33  7.2860349E-03
   7101.67  7.5242905E-03
   7102.00  7.7782242E-03
   7102.33  8.0519037E-03
   7102.67  8.3453281E-03
   7103.00  8.6606863E-03
   7103.33  9.0040902E-03
   7103.67  9.3760045E-03
   7104.00  9.7800768E-03
   7104.33  1.0226073E-02
   7104.67  1.0715603E-02
   7105.00  1.1255223E-02
   7105.33  1.1861828E-02
   7105.67  1.2539984E-02
   7106.00  1.3302694E-02
   7106.33  1.4182477E-02
   7106.67  1.5192292E-02
   7107.00  1.6361647E-02
   7107.33  1.7763158E-02
   7107.67  1.9437692E-02
   7108.00  2.1466539E-02
   7108.33  2.4051902E-02
   7108.67  2.7353850E-02
   7109.00  3.1674855E-02
   7109.33  3.7816699E-02
   7109.67  4.6699767E-02
   7110.00  6.0132513E-02
   7110.33  8.3319596E-02
   7110.67  1.2158878E-01
   7111.00  1.7501611E-01
   7111.33  2.2527499E-01
   7111.67  2.5674604E-01
   7112.00  2.6846189E-01
   7112.33  2.7502276E-01
   7112.67  2.8114745E-01
   7113.00  2.8124225E-01
   7113.33  2.5640760E-01
   7113.67  2.1460315E-01
   7114.00  1.7369441E-01
   7114.33  1.4489602E-01
   7114.67  1.2642289E-01
   7115.00  1.1584240E-01
   7115.33  1.1152633E-01
   7115.67  1.1143719E-01
   7116.00  1.1504052E-01
   7116.33  1.2264512E-01
   7116.67  1.3407115E-01
   7117.00  1.4980129E-01
   7117.33  1.7109123E-01
   7117.67  1.9734121E-01
   7118.00  2.2742717E-01
   7118.33  2.5980510E-01
   7118.67  2.9373329E-01
   7119.00  3.2927211E-01
   7119.33  3.6510982E-01
   7119.67  3.9789705E-01
   7120.00  4.2388900E-01
   7120.33  4.3882825E-01
   7120.67  4.4484884E-01
   7121.00  4.4565461E-01
   7121.33  4.4609016E-01
   7121.67  4.4909651E-01
   7122.00  4.5574492E-01
   7122.33  4.6604400E-01
   7122.67  4.7555370E-01
   7123.00  4.8043630E-01
   7123.33  4.8032091E-01
   7123.67  4.7928724E-01
   7124.00  4.8005933E-01
   7124.33  4.8481898E-01
   7124.67  4.9353122E-01
   7125.00  5.0556595E-01
   7125.33  5.1953654E-01
   7125.67  5.3372581E-01
   7126.00  5.4759325E-01
   7126.33  5.6067791E-01
   7126.67  5.7222047E-01
   7127.00  5.8155083E-01
   7127.33  5.8857963E-01
   7127.67  5.9479649E-01
   7128.00  6.0145161E-01
   7128.33  6.0899157E-01
   7128.67  6.1597772E-01
   7129.00  6.2099029E-01
   7129.33  6.2355020E-01
   7129.67  6.2534768E-01
   7130.00  6.2789650E-01
   7130.33  6.3236489E-01
   7130.67  6.3808689E-01
   7131.00  6.4356878E-01
   7131.33  6.4610081E-01
   7131.67  6.4421073E-01
   7132.00  6.3773327E-01
   7132.33  6.2773477E-01
   7132.67  6.1689907E-01
   7133.00  6.0707314E-01
   7133.33  6.0005164E-01
   7133.67  5.9610306E-01
   7134.00  5.9498847E-01
   7134.33  5.9585846E-01
   7134.67  5.9679634E-01
   7135.00  5.9619173E-01
   7135.33  5.9217258E-01
   7135.67  5.8461369E-01
   7136.00  5.7398461E-01
   7136.33  5.6124535E-01
   7136.67  5.4800339E-01
   7137.00  5.3528291E-01
   7137.33  5.2412392E-01
   7137.67  5.1484774E-01
   7138.00  5.0759442E-01
   7138.33  5.0246298E-01
   7138.67  4.9882201E-01
   7139.00  4.9620287E-01
   7139.33  4.9407903E-01
   7139.67  4.9189203E-01
   7140.00  4.8934075E-01
   7140.33  4.8619891E-01
   7140.67  4.8257454E-01
   7141.00  4.7864199E-01
   7141.33  4.7471848E-01
   7141.67  4.7118023E-01
   7142.00  4.6834501E-01
   7142.33  4.6662588E-01
   7142.67  4.6601995E-01
   7143.00  4.6644900E-01
   7143.33  4.6770768E-01
   7143.67  4.6925980E-01
   7144.00  4.7068977E-01
   7144.33  4.7151653E-01
   7144.67  4.7155839E-01
   7145.00  4.7076213E-01
   7145.33  4.6913518E-01
   7145.67  4.6698290E-01
   7146.00  4.6452660E-01
   7146.33  4.6201001E-01
   7146.67  4.5964399E-01
   7147.00  4.5754777E-01
   7147.33  4.5582799E-01
   7147.67  4.5443246E-01
   7148.00  4.5330534E-01
   7148.33  4.5237391E-01
   7148.67  4.5152040E-01
   7149.00  4.5068164E-01
   7149.33  4.4981739E-01
   7149.67  4.4893383E-01
   7150.00  4.4806012E-01
   7150.33  4.4725573E-01
   7150.67  4.4657228E-01
   7151.00  4.4606126E-01
   7151.33  4.4580869E-01
   7151.67  4.4583946E-01
   7152.00  4.4619691E-01
   7152.33  4.4697405E-01
   7152.67  4.4816330E-01
   7153.00  4.4978971E-01
   7153.33  4.5192832E-01
   7153.67  4.5452702E-01
   7154.00  4.5757840E-01
   7154.33  4.6111392E-01
   7154.67  4.6504080E-01
   7155.00  4.6931089E-01
   7155.33  4.7388615E-01
   7155.67  4.7864585E-01
   7156.00  4.8350610E-01
   7156.33  4.8836338E-01
   7156.67  4.9311409E-01
   7157.00  4.9767097E-01
   7157.33  5.0190167E-01
   7157.67  5.0575691E-01
   7158.00  5.0917405E-01
   7158.33  5.1203091E-01
   7158.67  5.1434717E-01
   7159.00  5.1610396E-01
   7159.33  5.1723092E-01
   7159.67  5.1781846E-01
   7160.00  5.1789642E-01
   7160.33  5.1745183E-01
   7160.67  5.1659987E-01
   7161.00  5.1539357E-01
   7161.33  5.1385779E-01
   7161.67  5.1208791E-01
   7162.00  5.1013039E-01
   7162.33  5.0801709E-01
   7162.67  5.0581031E-01
   7163.00  5.0354591E-01
   7163.33  5.0125999E-01
   7163.67  4.9898991E-01
   7164.00  4.9676195E-01
   7164.33  4.9460978E-01
   7164.67  4.9254416E-01
   7165.00  4.9057602E-01
   7165.33  4.8872320E-01
   7165.67  4.8697051E-01
   7166.00  4.8531106E-01
   7166.33  4.8374226E-01
   7166.67  4.8223897E-01
   7167.00  4.8078899E-01
   7167.33  4.7938656E-01
   7167.67  4.7801987E-01
   7168.00  4.7668682E-01
   7168.33  4.7539208E-01
   7168.67  4.7413378E-01
   7169.00  4.7291484E-01
   7169.33  4.7174392E-01
   7169.67  4.7061801E-01
   7170.00  4.6953848E-01
   7170.33  4.6851317E-01
   7170.67  4.6753962E-01
   7171.00  4.6662361E-01
   7171.33  4.6578708E-01
   7171.67  4.6504878E-01
   7172.00  4.6444716E-01
