    FDMNES
    energy     <xanes>
   7097.00  4.3288123E-03
   7097.33  4.4195389E-03
   7097.67  4.5139660E-03
   7098.00  4.6123299E-03
   7098.33  4.7154647E-03
   7098.67  4.8231786E-03
   7099.00  4.9357930E-03
   7099.33  5.0543893E-03
   7099.67  5.1787718E-03
   7100.00  5.3093902E-03
   7100.33  5.4476876E-03
   7100.67  5.5934821E-03
   7101.00  5.7474256E-03
   7101.33  5.9115109E-03
   7101.67  6.0856113E-03
   7102.00  6.2707115E-03
   7102.33  6.4696812E-03
   7102.67  6.6825413E-03
   7103.00  6.9108564E-03
   7103.33  7.1589786E-03
   7103.67  7.4272911E-03
   7104.00  7.7184390E-03
   7104.33  8.0394653E-03
   7104.67  8.3916454E-03
   7105.00  8.7798126E-03
   7105.33  9.2163545E-03
   7105.67  9.7048613E-03
   7106.00  1.0255104E-02
   7106.33  1.0891402E-02
   7106.67  1.1623982E-02
   7107.00  1.2475483E-02
   7107.33  1.3501474E-02
   7107.67  1.4734479E-02
   7108.00  1.6238245E-02
   7108.33  1.8171342E-02
   7108.67  2.0662610E-02
   7109.00  2.3954159E-02
   7109.33  2.8688905E-02
   7109.67  3.5614783E-02
   7110.00  4.6201205E-02
   7110.33  6.4711127E-02
   7110.67  9.5821093E-02
   7111.00  1.4075429E-01
   7111.33  1.8269211E-01
   7111.67  2.0183671E-01
   7112.00  2.0179657E-01
   7112.33  1.9711082E-01
   7112.67  1.8645734E-01
   7113.00  1.6573311E-01
   7113.33  1.4184770E-01
   7113.67  1.2252464E-01
   7114.00  1.0889393E-01
   7114.33  9.6575387E-02
   7114.67  8.3552713E-02
   7115.00  7.3360980E-02
   7115.33  6.7856000E-02
   7115.67  6.4807836E-02
   7116.00  6.2624719E-02
   7116.33  6.1101527E-02
   7116.67  6.0888683E-02
   7117.00  6.2252894E-02
   7117.33  6.5258046E-02
   7117.67  6.9377712E-02
   7118.00  7.4232812E-02
   7118.33  7.9729073E-02
   7118.67  8.6097629E-02
   7119.00  9.3710358E-02
   7119.33  1.0308775E-01
   7119.67  1.1419731E-01
   7120.00  1.2710852E-01
   7120.33  1.4216533E-01
   7120.67  1.5925869E-01
   7121.00  1.7847964E-01
   7121.33  2.0018324E-01
   7121.67  2.2413495E-01
   7122.00  2.5025565E-01
   7122.33  2.7830619E-01
   7122.67  3.0718676E-01
   7123.00  3.3608996E-01
   7123.33  3.6428539E-01
   7123.67  3.9147636E-01
   7124.00  4.1748619E-01
   7124.33  4.4102761E-01
   7124.67  4.5937848E-01
   7125.00  4.7027525E-01
   7125.33  4.7414406E-01
   7125.67  4.7536607E-01
   7126.00  4.7600935E-01
   7126.33  4.7650143E-01
   7126.67  4.7699290E-01
   7127.00  4.7825495E-01
   7127.33  4.8131912E-01
   7127.67  4.8606223E-01
   7128.00  4.9208213E-01
   7128.33  4.9882502E-01
   7128.67  5.0564105E-01
   7129.00  5.1221663E-01
   7129.33  5.1849743E-01
   7129.67  5.2467226E-01
   7130.00  5.3069697E-01
   7130.33  5.3639111E-01
   7130.67  5.4209611E-01
   7131.00  5.4870122E-01
   7131.33  5.5814641E-01
   7131.67  5.7177326E-01
   7132.00  5.9037511E-01
   7132.33  6.1407783E-01
   7132.67  6.4037267E-01
   7133.00  6.6696248E-01
   7133.33  6.9129919E-01
   7133.67  7.1243063E-01
   7134.00  7.3008923E-01
   7134.33  7.4422940E-01
   7134.67  7.5615591E-01
   7135.00  7.6625840E-01
   7135.33  7.7306008E-01
   7135.67  7.7515975E-01
   7136.00  7.7198953E-01
   7136.33  7.6389291E-01
   7136.67  7.5318756E-01
   7137.00  7.4136849E-01
   7137.33  7.2968956E-01
   7137.67  7.1874471E-01
   7138.00  7.0864896E-01
   7138.33  6.9934133E-01
   7138.67  6.9049040E-01
   7139.00  6.8192612E-01
   7139.33  6.7356875E-01
   7139.67  6.6538712E-01
   7140.00  6.5742241E-01
   7140.33  6.4977741E-01
   7140.67  6.4247908E-01
   7141.00  6.3556778E-01
   7141.33  6.2912519E-01
   7141.67  6.2311487E-01
   7142.00  6.1754452E-01
   7142.33  6.1247842E-01
   7142.67  6.0787404E-01
   7143.00  6.0375092E-01
   7143.33  6.0020759E-01
   7143.67  5.9722617E-01
   7144.00  5.9485484E-01
   7144.33  5.9323641E-01
   7144.67  5.9233730E-01
   7145.00  5.9218929E-01
   7145.33  5.9292092E-01
   7145.67  5.9445529E-01
   7146.00  5.9679236E-01
   7146.33  5.9999093E-01
   7146.67  6.0385867E-01
   7147.00  6.0825891E-01
   7147.33  6.1300854E-01
   7147.67  6.1778211E-01
   7148.00  6.2229505E-01
   7148.33  6.2612404E-01
   7148.67  6.2901953E-01
   7149.00  6.3074903E-01
   7149.33  6.3095806E-01
   7149.67  6.2974261E-01
   7150.00  6.2712824E-01
   7150.33  6.2306934E-01
   7150.67  6.1791471E-01
   7151.00  6.1185327E-01
   7151.33  6.0501157E-01
   7151.67  5.9766006E-01
   7152.00  5.8992451E-01
   7152.33  5.8187825E-01
   7152.67  5.7362386E-01
   7153.00  5.6519021E-01
   7153.33  5.5656225E-01
   7153.67  5.4775251E-01
   7154.00  5.3874959E-01
   7154.33  5.2951334E-01
   7154.67  5.2006743E-01
   7155.00  5.1042233E-01
   7155.33  5.0057763E-01
   7155.67  4.9059221E-01
   7156.00  4.8050969E-01
   7156.33  4.7038550E-01
   7156.67  4.6028987E-01
   7157.00  4.5028065E-01
   7157.33  4.4044211E-01
   7157.67  4.3081722E-01
   7158.00  4.2145731E-01
   7158.33  4.1246096E-01
   7158.67  4.0384660E-01
   7159.00  3.9566689E-01
   7159.33  3.8804726E-01
   7159.67  3.8098977E-01
   7160.00  3.7454790E-01
   7160.33  3.6885935E-01
   7160.67  3.6388055E-01
   7161.00  3.5963150E-01
   7161.33  3.5620761E-01
   7161.67  3.5350058E-01
   7162.00  3.5148225E-01
   7162.33  3.5018663E-01
   7162.67  3.4947232E-01
   7163.00  3.4927622E-01
   7163.33  3.4958313E-01
   7163.67  3.5027064E-01
   7164.00  3.5128250E-01
   7164.33  3.5258844E-01
   7164.67  3.5409772E-01
   7165.00  3.5576618E-01
   7165.33  3.5756640E-01
   7165.67  3.5945328E-01
   7166.00  3.6140975E-01
   7166.33  3.6343322E-01
   7166.67  3.6551483E-01
   7167.00  3.6765761E-01
   7167.33  3.6987458E-01
   7167.67  3.7216035E-01
   7168.00  3.7451444E-01
   7168.33  3.7694044E-01
   7168.67  3.7942073E-01
   7169.00  3.8194243E-01
   7169.33  3.8448960E-01
   7169.67  3.8703722E-01
   7170.00  3.8956359E-01
   7170.33  3.9203548E-01
   7170.67  3.9442783E-01
   7171.00  3.9670705E-01
   7171.33  3.9879727E-01
   7171.67  4.0063242E-01
   7172.00  4.0210738E-01
