    FDMNES
    energy     <xanes>
   7097.00  4.6961879E-03
   7097.33  4.8014417E-03
   7097.67  4.9112203E-03
   7098.00  5.0258200E-03
   7098.33  5.1462719E-03
   7098.67  5.2723497E-03
   7099.00  5.4044558E-03
   7099.33  5.5439307E-03
   7099.67  5.6905420E-03
   7100.00  5.8448515E-03
   7100.33  6.0086495E-03
   7100.67  6.1817178E-03
   7101.00  6.3648667E-03
   7101.33  6.5605644E-03
   7101.67  6.7686535E-03
   7102.00  6.9903483E-03
   7102.33  7.2291859E-03
   7102.67  7.4851723E-03
   7103.00  7.7602136E-03
   7103.33  8.0596247E-03
   7103.67  8.3838105E-03
   7104.00  8.7359377E-03
   7104.33  9.1244785E-03
   7104.67  9.5508041E-03
   7105.00  1.0020565E-02
   7105.33  1.0548323E-02
   7105.67  1.1137896E-02
   7106.00  1.1800340E-02
   7106.33  1.2563305E-02
   7106.67  1.3437379E-02
   7107.00  1.4447066E-02
   7107.33  1.5652588E-02
   7107.67  1.7086202E-02
   7108.00  1.8812815E-02
   7108.33  2.0992870E-02
   7108.67  2.3746054E-02
   7109.00  2.7298611E-02
   7109.33  3.2240028E-02
   7109.67  3.9202762E-02
   7110.00  4.9415984E-02
   7110.33  6.6413810E-02
   7110.67  9.4484979E-02
   7111.00  1.3770962E-01
   7111.33  1.9041785E-01
   7111.67  2.3249456E-01
   7112.00  2.5973136E-01
   7112.33  2.8044682E-01
   7112.67  2.8715363E-01
   7113.00  2.7622504E-01
   7113.33  2.5670844E-01
   7113.67  2.3414102E-01
   7114.00  2.2015483E-01
   7114.33  2.0686615E-01
   7114.67  1.8223988E-01
   7115.00  1.5299233E-01
   7115.33  1.2696426E-01
   7115.67  1.0679395E-01
   7116.00  9.3295296E-02
   7116.33  8.6104304E-02
   7116.67  8.3097457E-02
   7117.00  8.3410115E-02
   7117.33  8.6517299E-02
   7117.67  9.0811093E-02
   7118.00  9.4775713E-02
   7118.33  9.8006735E-02
   7118.67  1.0228614E-01
   7119.00  1.0867245E-01
   7119.33  1.1749858E-01
   7119.67  1.2807451E-01
   7120.00  1.3999620E-01
   7120.33  1.5294871E-01
   7120.67  1.6647379E-01
   7121.00  1.8038574E-01
   7121.33  1.9468819E-01
   7121.67  2.0951544E-01
   7122.00  2.2517717E-01
   7122.33  2.4226029E-01
   7122.67  2.6086079E-01
   7123.00  2.8079579E-01
   7123.33  3.0125512E-01
   7123.67  3.2091608E-01
   7124.00  3.3916612E-01
   7124.33  3.5677669E-01
   7124.67  3.7612317E-01
   7125.00  3.9921851E-01
   7125.33  4.2784511E-01
   7125.67  4.6122535E-01
   7126.00  4.9859715E-01
   7126.33  5.3884849E-01
   7126.67  5.7956905E-01
   7127.00  6.1856540E-01
   7127.33  6.5282003E-01
   7127.67  6.8117525E-01
   7128.00  7.0314230E-01
   7128.33  7.1845080E-01
   7128.67  7.2895593E-01
   7129.00  7.3566871E-01
   7129.33  7.3920431E-01
   7129.67  7.4070230E-01
   7130.00  7.4077022E-01
   7130.33  7.3990471E-01
   7130.67  7.3861970E-01
   7131.00  7.3716545E-01
   7131.33  7.3593673E-01
   7131.67  7.3546938E-01
   7132.00  7.3623025E-01
   7132.33  7.3841931E-01
   7132.67  7.4109715E-01
   7133.00  7.4315994E-01
   7133.33  7.4318766E-01
   7133.67  7.4073948E-01
   7134.00  7.3572480E-01
   7134.33  7.2815807E-01
   7134.67  7.1884944E-01
   7135.00  7.0830759E-01
   7135.33  6.9701911E-01
   7135.67  6.8556772E-01
   7136.00  6.7431289E-01
   7136.33  6.6363780E-01
   7136.67  6.5368266E-01
   7137.00  6.4455123E-01
   7137.33  6.3640624E-01
   7137.67  6.2912529E-01
   7138.00  6.2265347E-01
   7138.33  6.1697868E-01
   7138.67  6.1189153E-01
   7139.00  6.0728754E-01
   7139.33  6.0310519E-01
   7139.67  5.9921485E-01
   7140.00  5.9557121E-01
   7140.33  5.9218060E-01
   7140.67  5.8902408E-01
   7141.00  5.8612983E-01
   7141.33  5.8358418E-01
   7141.67  5.8140009E-01
   7142.00  5.7961481E-01
   7142.33  5.7830833E-01
   7142.67  5.7743646E-01
   7143.00  5.7699026E-01
   7143.33  5.7698977E-01
   7143.67  5.7734448E-01
   7144.00  5.7799818E-01
   7144.33  5.7888237E-01
   7144.67  5.7986659E-01
   7145.00  5.8086127E-01
   7145.33  5.8175689E-01
   7145.67  5.8247630E-01
   7146.00  5.8295504E-01
   7146.33  5.8309566E-01
   7146.67  5.8289236E-01
   7147.00  5.8231990E-01
   7147.33  5.8130688E-01
   7147.67  5.7987481E-01
   7148.00  5.7800660E-01
   7148.33  5.7564288E-01
   7148.67  5.7283853E-01
   7149.00  5.6959292E-01
   7149.33  5.6584855E-01
   7149.67  5.6165799E-01
   7150.00  5.5701904E-01
   7150.33  5.5187226E-01
   7150.67  5.4627014E-01
   7151.00  5.4020906E-01
   7151.33  5.3362686E-01
   7151.67  5.2657831E-01
   7152.00  5.1906307E-01
   7152.33  5.1102814E-01
   7152.67  5.0254544E-01
   7153.00  4.9363751E-01
   7153.33  4.8429682E-01
   7153.67  4.7463065E-01
   7154.00  4.6470543E-01
   7154.33  4.5459291E-01
   7154.67  4.4441803E-01
   7155.00  4.3427476E-01
   7155.33  4.2428843E-01
   7155.67  4.1454120E-01
   7156.00  4.0510767E-01
   7156.33  3.9610868E-01
   7156.67  3.8755651E-01
   7157.00  3.7948989E-01
   7157.33  3.7199919E-01
   7157.67  3.6503165E-01
   7158.00  3.5858855E-01
   7158.33  3.5272948E-01
   7158.67  3.4738016E-01
   7159.00  3.4253118E-01
   7159.33  3.3823182E-01
   7159.67  3.3440932E-01
   7160.00  3.3105451E-01
   7160.33  3.2821382E-01
   7160.67  3.2581989E-01
   7161.00  3.2386517E-01
   7161.33  3.2239510E-01
   7161.67  3.2134685E-01
   7162.00  3.2071313E-01
   7162.33  3.2053156E-01
   7162.67  3.2073152E-01
   7163.00  3.2129985E-01
   7163.33  3.2227050E-01
   7163.67  3.2358561E-01
   7164.00  3.2523029E-01
   7164.33  3.2722197E-01
   7164.67  3.2949740E-01
   7165.00  3.3203348E-01
   7165.33  3.3483105E-01
   7165.67  3.3783200E-01
   7166.00  3.4101150E-01
   7166.33  3.4436070E-01
   7166.67  3.4783497E-01
   7167.00  3.5141363E-01
   7167.33  3.5508375E-01
   7167.67  3.5881179E-01
   7168.00  3.6257974E-01
   7168.33  3.6637379E-01
   7168.67  3.7017624E-01
   7169.00  3.7397477E-01
   7169.33  3.7775313E-01
   7169.67  3.8149931E-01
   7170.00  3.8519979E-01
   7170.33  3.8882730E-01
   7170.67  3.9236260E-01
   7171.00  3.9576911E-01
   7171.33  3.9894801E-01
   7171.67  4.0178720E-01
   7172.00  4.0410513E-01
