    FDMNES
    energy     <xanes>
   7097.00  5.3267184E-03
   7097.33  5.4547178E-03
   7097.67  5.5886618E-03
   7098.00  5.7289605E-03
   7098.33  5.8770028E-03
   7098.67  6.0325179E-03
   7099.00  6.1960667E-03
   7099.33  6.3694733E-03
   7099.67  6.5524627E-03
   7100.00  6.7458223E-03
   7100.33  6.9520108E-03
   7100.67  7.1707783E-03
   7101.00  7.4032652E-03
   7101.33  7.6528888E-03
   7101.67  7.9194892E-03
   7102.00  8.2047797E-03
   7102.33  8.5136893E-03
   7102.67  8.8462912E-03
   7103.00  9.2052765E-03
   7103.33  9.5980826E-03
   7103.67  1.0025342E-02
   7104.00  1.0491519E-02
   7104.33  1.1008487E-02
   7104.67  1.1578221E-02
   7105.00  1.2208651E-02
   7105.33  1.2920165E-02
   7105.67  1.3718104E-02
   7106.00  1.4617897E-02
   7106.33  1.5658099E-02
   7106.67  1.6853333E-02
   7107.00  1.8237574E-02
   7107.33  1.9894326E-02
   7107.67  2.1867945E-02
   7108.00  2.4248047E-02
   7108.33  2.7256466E-02
   7108.67  3.1058787E-02
   7109.00  3.5969407E-02
   7109.33  4.2812047E-02
   7109.67  5.2484907E-02
   7110.00  6.6743567E-02
   7110.33  9.0596928E-02
   7110.67  1.2926619E-01
   7111.00  1.8403195E-01
   7111.33  2.4214118E-01
   7111.67  2.9646641E-01
   7112.00  3.4254408E-01
   7112.33  3.6747382E-01
   7112.67  3.8184281E-01
   7113.00  3.9743450E-01
   7113.33  4.1103910E-01
   7113.67  4.0704004E-01
   7114.00  3.8296912E-01
   7114.33  3.5099141E-01
   7114.67  3.2193290E-01
   7115.00  2.9791998E-01
   7115.33  2.8127985E-01
   7115.67  2.7288909E-01
   7116.00  2.7218648E-01
   7116.33  2.7378613E-01
   7116.67  2.6747991E-01
   7117.00  2.4821591E-01
   7117.33  2.2022553E-01
   7117.67  1.9377288E-01
   7118.00  1.7288567E-01
   7118.33  1.5855776E-01
   7118.67  1.4823186E-01
   7119.00  1.4012020E-01
   7119.33  1.3334251E-01
   7119.67  1.2788082E-01
   7120.00  1.2394854E-01
   7120.33  1.2163651E-01
   7120.67  1.2055363E-01
   7121.00  1.2067364E-01
   7121.33  1.2231450E-01
   7121.67  1.2532746E-01
   7122.00  1.2953657E-01
   7122.33  1.3493813E-01
   7122.67  1.4152409E-01
   7123.00  1.4955059E-01
   7123.33  1.5959859E-01
   7123.67  1.7177780E-01
   7124.00  1.8629496E-01
   7124.33  2.0356627E-01
   7124.67  2.2338014E-01
   7125.00  2.4598958E-01
   7125.33  2.7224766E-01
   7125.67  3.0178841E-01
   7126.00  3.3366910E-01
   7126.33  3.6523856E-01
   7126.67  3.9351785E-01
   7127.00  4.1749692E-01
   7127.33  4.3795901E-01
   7127.67  4.5726476E-01
   7128.00  4.7650842E-01
   7128.33  4.9606940E-01
   7128.67  5.1579525E-01
   7129.00  5.3585932E-01
   7129.33  5.5724644E-01
   7129.67  5.8087968E-01
   7130.00  6.0742650E-01
   7130.33  6.3749922E-01
   7130.67  6.7035540E-01
   7131.00  7.0538010E-01
   7131.33  7.4174664E-01
   7131.67  7.7801546E-01
   7132.00  8.1285303E-01
   7132.33  8.4446890E-01
   7132.67  8.7261965E-01
   7133.00  8.9782154E-01
   7133.33  9.2130369E-01
   7133.67  9.4434133E-01
   7134.00  9.6654312E-01
   7134.33  9.8480434E-01
   7134.67  9.9501996E-01
   7135.00  9.9319074E-01
   7135.33  9.7494750E-01
   7135.67  9.4309437E-01
   7136.00  9.0083483E-01
   7136.33  8.5222068E-01
   7136.67  8.0224819E-01
   7137.00  7.5363666E-01
   7137.33  7.0886028E-01
   7137.67  6.6863305E-01
   7138.00  6.3345196E-01
   7138.33  6.0419329E-01
   7138.67  5.8014937E-01
   7139.00  5.6111702E-01
   7139.33  5.4728100E-01
   7139.67  5.3754901E-01
   7140.00  5.3143263E-01
   7140.33  5.2872916E-01
   7140.67  5.2849175E-01
   7141.00  5.3026416E-01
   7141.33  5.3376400E-01
   7141.67  5.3840446E-01
   7142.00  5.4390973E-01
   7142.33  5.5007576E-01
   7142.67  5.5655247E-01
   7143.00  5.6307427E-01
   7143.33  5.6926018E-01
   7143.67  5.7479620E-01
   7144.00  5.7940506E-01
   7144.33  5.8267489E-01
   7144.67  5.8457584E-01
   7145.00  5.8502678E-01
   7145.33  5.8382847E-01
   7145.67  5.8122233E-01
   7146.00  5.7730746E-01
   7146.33  5.7208340E-01
   7146.67  5.6584013E-01
   7147.00  5.5870609E-01
   7147.33  5.5075552E-01
   7147.67  5.4225922E-01
   7148.00  5.3338407E-01
   7148.33  5.2431815E-01
   7148.67  5.1530601E-01
   7149.00  5.0654894E-01
   7149.33  4.9834901E-01
   7149.67  4.9087071E-01
   7150.00  4.8428548E-01
   7150.33  4.7888899E-01
   7150.67  4.7466235E-01
   7151.00  4.7165581E-01
   7151.33  4.7002259E-01
   7151.67  4.6955024E-01
   7152.00  4.7014399E-01
   7152.33  4.7176532E-01
   7152.67  4.7411250E-01
   7153.00  4.7700585E-01
   7153.33  4.8026588E-01
   7153.67  4.8363237E-01
   7154.00  4.8692700E-01
   7154.33  4.8992966E-01
   7154.67  4.9251794E-01
   7155.00  4.9459377E-01
   7155.33  4.9601476E-01
   7155.67  4.9683087E-01
   7156.00  4.9705621E-01
   7156.33  4.9667144E-01
   7156.67  4.9581788E-01
   7157.00  4.9457122E-01
   7157.33  4.9298958E-01
   7157.67  4.9120981E-01
   7158.00  4.8931762E-01
   7158.33  4.8739938E-01
   7158.67  4.8553568E-01
   7159.00  4.8378602E-01
   7159.33  4.8223306E-01
   7159.67  4.8090603E-01
   7160.00  4.7984106E-01
   7160.33  4.7910885E-01
   7160.67  4.7869786E-01
   7161.00  4.7862370E-01
   7161.33  4.7894158E-01
   7161.67  4.7961292E-01
   7162.00  4.8063642E-01
   7162.33  4.8204338E-01
   7162.67  4.8376270E-01
   7163.00  4.8576245E-01
   7163.33  4.8803882E-01
   7163.67  4.9052229E-01
   7164.00  4.9317289E-01
   7164.33  4.9595149E-01
   7164.67  4.9878406E-01
   7165.00  5.0161482E-01
   7165.33  5.0436621E-01
   7165.67  5.0697437E-01
   7166.00  5.0937433E-01
   7166.33  5.1145382E-01
   7166.67  5.1317299E-01
   7167.00  5.1446983E-01
   7167.33  5.1521807E-01
   7167.67  5.1542585E-01
   7168.00  5.1506176E-01
   7168.33  5.1403557E-01
   7168.67  5.1242854E-01
   7169.00  5.1026955E-01
   7169.33  5.0756317E-01
   7169.67  5.0446425E-01
   7170.00  5.0106243E-01
   7170.33  4.9744862E-01
   7170.67  4.9377244E-01
   7171.00  4.9015092E-01
   7171.33  4.8676329E-01
   7171.67  4.8377398E-01
   7172.00  4.8137888E-01
