    FDMNES
    energy     <xanes>
   7097.00  4.1791777E-03
   7097.33  4.2589590E-03
   7097.67  4.3416578E-03
   7098.00  4.4274450E-03
   7098.33  4.5169526E-03
   7098.67  4.6100098E-03
   7099.00  4.7068460E-03
   7099.33  4.8082670E-03
   7099.67  4.9140958E-03
   7100.00  5.0246501E-03
   7100.33  5.1409880E-03
   7100.67  5.2629385E-03
   7101.00  5.3909585E-03
   7101.33  5.5264881E-03
   7101.67  5.6693915E-03
   7102.00  5.8203557E-03
   7102.33  5.9814304E-03
   7102.67  6.1525810E-03
   7103.00  6.3348985E-03
   7103.33  6.5314684E-03
   7103.67  6.7425135E-03
   7104.00  6.9698874E-03
   7104.33  7.2185743E-03
   7104.67  7.4894478E-03
   7105.00  7.7859318E-03
   7105.33  8.1168456E-03
   7105.67  8.4847887E-03
   7106.00  8.8968112E-03
   7106.33  9.3704992E-03
   7106.67  9.9135295E-03
   7107.00  1.0542690E-02
   7107.33  1.1299275E-02
   7107.67  1.2208591E-02
   7108.00  1.3319769E-02
   7108.33  1.4755730E-02
   7108.67  1.6621304E-02
   7109.00  1.9113473E-02
   7109.33  2.2762152E-02
   7109.67  2.8213163E-02
   7110.00  3.6744436E-02
   7110.33  5.2061065E-02
   7110.67  7.7716881E-02
   7111.00  1.1167361E-01
   7111.33  1.3358834E-01
   7111.67  1.3835707E-01
   7112.00  1.3649280E-01
   7112.33  1.2532371E-01
   7112.67  1.0334499E-01
   7113.00  8.1216578E-02
   7113.33  6.5905260E-02
   7113.67  5.5415344E-02
   7114.00  4.7998258E-02
   7114.33  4.2321758E-02
   7114.67  3.7820190E-02
   7115.00  3.4676864E-02
   7115.33  3.2858154E-02
   7115.67  3.1982532E-02
   7116.00  3.1919193E-02
   7116.33  3.2661650E-02
   7116.67  3.4074801E-02
   7117.00  3.6155782E-02
   7117.33  3.9016458E-02
   7117.67  4.2607989E-02
   7118.00  4.6970250E-02
   7118.33  5.2269603E-02
   7118.67  5.8420644E-02
   7119.00  6.5280144E-02
   7119.33  7.2465793E-02
   7119.67  7.9496942E-02
   7120.00  8.6248482E-02
   7120.33  9.2940169E-02
   7120.67  1.0000909E-01
   7121.00  1.0780247E-01
   7121.33  1.1667704E-01
   7121.67  1.2653995E-01
   7122.00  1.3733846E-01
   7122.33  1.4926501E-01
   7122.67  1.6258075E-01
   7123.00  1.7791695E-01
   7123.33  1.9668809E-01
   7123.67  2.1973159E-01
   7124.00  2.4810796E-01
   7124.33  2.8368084E-01
   7124.67  3.2618728E-01
   7125.00  3.7527108E-01
   7125.33  4.2972151E-01
   7125.67  4.8582334E-01
   7126.00  5.4079783E-01
   7126.33  5.9209906E-01
   7126.67  6.3910052E-01
   7127.00  6.8144039E-01
   7127.33  7.1984737E-01
   7127.67  7.5900081E-01
   7128.00  8.0353006E-01
   7128.33  8.5661554E-01
   7128.67  9.1376712E-01
   7129.00  9.6861253E-01
   7129.33  1.0128599E+00
   7129.67  1.0441284E+00
   7130.00  1.0621244E+00
   7130.33  1.0665547E+00
   7130.67  1.0613013E+00
   7131.00  1.0490013E+00
   7131.33  1.0303398E+00
   7131.67  1.0031181E+00
   7132.00  9.6278957E-01
   7132.33  9.0578823E-01
   7132.67  8.3976503E-01
   7133.00  7.7359553E-01
   7133.33  7.1826121E-01
   7133.67  6.7884740E-01
   7134.00  6.5753528E-01
   7134.33  6.5511595E-01
   7134.67  6.6342994E-01
   7135.00  6.7399041E-01
   7135.33  6.7660084E-01
   7135.67  6.6897203E-01
   7136.00  6.5359835E-01
   7136.33  6.3487252E-01
   7136.67  6.1666439E-01
   7137.00  6.0043260E-01
   7137.33  5.8700545E-01
   7137.67  5.7597730E-01
   7138.00  5.6710244E-01
   7138.33  5.6030732E-01
   7138.67  5.5510125E-01
   7139.00  5.5130963E-01
   7139.33  5.4893505E-01
   7139.67  5.4770928E-01
   7140.00  5.4756345E-01
   7140.33  5.4855177E-01
   7140.67  5.5046673E-01
   7141.00  5.5322169E-01
   7141.33  5.5677924E-01
   7141.67  5.6089417E-01
   7142.00  5.6541037E-01
   7142.33  5.7014102E-01
   7142.67  5.7481322E-01
   7143.00  5.7920885E-01
   7143.33  5.8301893E-01
   7143.67  5.8607201E-01
   7144.00  5.8819270E-01
   7144.33  5.8907685E-01
   7144.67  5.8873944E-01
   7145.00  5.8711681E-01
   7145.33  5.8402346E-01
   7145.67  5.7965569E-01
   7146.00  5.7408248E-01
   7146.33  5.6729123E-01
   7146.67  5.5956895E-01
   7147.00  5.5104430E-01
   7147.33  5.4177499E-01
   7147.67  5.3198394E-01
   7148.00  5.2179025E-01
   7148.33  5.1129102E-01
   7148.67  5.0063886E-01
   7149.00  4.8992398E-01
   7149.33  4.7923898E-01
   7149.67  4.6865281E-01
   7150.00  4.5821485E-01
   7150.33  4.4799148E-01
   7150.67  4.3798683E-01
   7151.00  4.2821520E-01
   7151.33  4.1871258E-01
   7151.67  4.0944582E-01
   7152.00  4.0040838E-01
   7152.33  3.9162769E-01
   7152.67  3.8308017E-01
   7153.00  3.7476424E-01
   7153.33  3.6671045E-01
   7153.67  3.5890440E-01
   7154.00  3.5137125E-01
   7154.33  3.4419371E-01
   7154.67  3.3739125E-01
   7155.00  3.3102786E-01
   7155.33  3.2525400E-01
   7155.67  3.2009406E-01
   7156.00  3.1562527E-01
   7156.33  3.1203057E-01
   7156.67  3.0929119E-01
   7157.00  3.0746694E-01
   7157.33  3.0673983E-01
   7157.67  3.0703719E-01
   7158.00  3.0839261E-01
   7158.33  3.1097235E-01
   7158.67  3.1466165E-01
   7159.00  3.1947065E-01
   7159.33  3.2553915E-01
   7159.67  3.3270935E-01
   7160.00  3.4094745E-01
   7160.33  3.5031293E-01
   7160.67  3.6058078E-01
   7161.00  3.7163568E-01
   7161.33  3.8338701E-01
   7161.67  3.9555414E-01
   7162.00  4.0793333E-01
   7162.33  4.2023813E-01
   7162.67  4.3216825E-01
   7163.00  4.4349680E-01
   7163.33  4.5391720E-01
   7163.67  4.6335749E-01
   7164.00  4.7169928E-01
   7164.33  4.7870287E-01
   7164.67  4.8447748E-01
   7165.00  4.8902747E-01
   7165.33  4.9224936E-01
   7165.67  4.9436608E-01
   7166.00  4.9545983E-01
   7166.33  4.9553253E-01
   7166.67  4.9482787E-01
   7167.00  4.9346305E-01
   7167.33  4.9151111E-01
   7167.67  4.8917380E-01
   7168.00  4.8656350E-01
   7168.33  4.8378274E-01
   7168.67  4.8095809E-01
   7169.00  4.7816833E-01
   7169.33  4.7550191E-01
   7169.67  4.7300178E-01
   7170.00  4.7070287E-01
   7170.33  4.6866011E-01
   7170.67  4.6685886E-01
   7171.00  4.6530342E-01
   7171.33  4.6402503E-01
   7171.67  4.6299502E-01
   7172.00  4.6221832E-01
