    FDMNES
    energy     <xanes>
   7097.00  4.9612741E-03
   7097.33  5.0754837E-03
   7097.67  5.1947492E-03
   7098.00  5.3194058E-03
   7098.33  5.4506112E-03
   7098.67  5.5881162E-03
   7099.00  5.7323743E-03
   7099.33  5.8848904E-03
   7099.67  6.0454058E-03
   7100.00  6.2145507E-03
   7100.33  6.3943304E-03
   7100.67  6.5844970E-03
   7101.00  6.7859527E-03
   7101.33  7.0014501E-03
   7101.67  7.2307975E-03
   7102.00  7.4753335E-03
   7102.33  7.7389736E-03
   7102.67  8.0216838E-03
   7103.00  8.3255378E-03
   7103.33  8.6563539E-03
   7103.67  9.0144866E-03
   7104.00  9.4033242E-03
   7104.33  9.8320002E-03
   7104.67  1.0301808E-02
   7105.00  1.0818674E-02
   7105.33  1.1397988E-02
   7105.67  1.2043408E-02
   7106.00  1.2766266E-02
   7106.33  1.3595094E-02
   7106.67  1.4540060E-02
   7107.00  1.5625695E-02
   7107.33  1.6912602E-02
   7107.67  1.8431786E-02
   7108.00  2.0247096E-02
   7108.33  2.2517086E-02
   7108.67  2.5358342E-02
   7109.00  2.8994251E-02
   7109.33  3.4012659E-02
   7109.67  4.1058394E-02
   7110.00  5.1399752E-02
   7110.33  6.8661307E-02
   7110.67  9.6452873E-02
   7111.00  1.3467732E-01
   7111.33  1.7061011E-01
   7111.67  1.9525817E-01
   7112.00  2.0899674E-01
   7112.33  2.2599599E-01
   7112.67  2.5957342E-01
   7113.00  3.0819102E-01
   7113.33  3.6586215E-01
   7113.67  4.1172390E-01
   7114.00  4.1845144E-01
   7114.33  3.8762947E-01
   7114.67  3.4497908E-01
   7115.00  3.1193646E-01
   7115.33  3.0441198E-01
   7115.67  3.0618786E-01
   7116.00  2.9170026E-01
   7116.33  2.5148275E-01
   7116.67  2.0955648E-01
   7117.00  1.7741651E-01
   7117.33  1.5754875E-01
   7117.67  1.4556649E-01
   7118.00  1.3897086E-01
   7118.33  1.3568489E-01
   7118.67  1.3327732E-01
   7119.00  1.3080648E-01
   7119.33  1.2831306E-01
   7119.67  1.2635376E-01
   7120.00  1.2523811E-01
   7120.33  1.2492536E-01
   7120.67  1.2515911E-01
   7121.00  1.2618211E-01
   7121.33  1.2845488E-01
   7121.67  1.3184973E-01
   7122.00  1.3643446E-01
   7122.33  1.4281457E-01
   7122.67  1.5142706E-01
   7123.00  1.6288219E-01
   7123.33  1.7820807E-01
   7123.67  1.9707047E-01
   7124.00  2.1895753E-01
   7124.33  2.4294187E-01
   7124.67  2.6721264E-01
   7125.00  2.9022229E-01
   7125.33  3.1006015E-01
   7125.67  3.2647597E-01
   7126.00  3.3991964E-01
   7126.33  3.5146285E-01
   7126.67  3.6306634E-01
   7127.00  3.7639701E-01
   7127.33  3.9380683E-01
   7127.67  4.1634104E-01
   7128.00  4.4448664E-01
   7128.33  4.7801383E-01
   7128.67  5.1403984E-01
   7129.00  5.4991257E-01
   7129.33  5.8249410E-01
   7129.67  6.1072672E-01
   7130.00  6.3464321E-01
   7130.33  6.5504928E-01
   7130.67  6.7415733E-01
   7131.00  6.9353401E-01
   7131.33  7.1479493E-01
   7131.67  7.3831373E-01
   7132.00  7.6374029E-01
   7132.33  7.8979562E-01
   7132.67  8.1442784E-01
   7133.00  8.3588077E-01
   7133.33  8.5198053E-01
   7133.67  8.6258460E-01
   7134.00  8.6769873E-01
   7134.33  8.6684877E-01
   7134.67  8.6040983E-01
   7135.00  8.4780403E-01
   7135.33  8.2792310E-01
   7135.67  8.0223123E-01
   7136.00  7.7208493E-01
   7136.33  7.3935951E-01
   7136.67  7.0660173E-01
   7137.00  6.7545692E-01
   7137.33  6.4768205E-01
   7137.67  6.2374420E-01
   7138.00  6.0397910E-01
   7138.33  5.8887664E-01
   7138.67  5.7748935E-01
   7139.00  5.6921639E-01
   7139.33  5.6355523E-01
   7139.67  5.5951959E-01
   7140.00  5.5668184E-01
   7140.33  5.5485022E-01
   7140.67  5.5375076E-01
   7141.00  5.5330015E-01
   7141.33  5.5349566E-01
   7141.67  5.5419986E-01
   7142.00  5.5536312E-01
   7142.33  5.5699172E-01
   7142.67  5.5900433E-01
   7143.00  5.6138061E-01
   7143.33  5.6411839E-01
   7143.67  5.6712169E-01
   7144.00  5.7034903E-01
   7144.33  5.7378114E-01
   7144.67  5.7735268E-01
   7145.00  5.8102325E-01
   7145.33  5.8474602E-01
   7145.67  5.8845678E-01
   7146.00  5.9210164E-01
   7146.33  5.9559891E-01
   7146.67  5.9889859E-01
   7147.00  6.0194355E-01
   7147.33  6.0462754E-01
   7147.67  6.0692471E-01
   7148.00  6.0877864E-01
   7148.33  6.1006107E-01
   7148.67  6.1077354E-01
   7149.00  6.1086759E-01
   7149.33  6.1021339E-01
   7149.67  6.0886404E-01
   7150.00  6.0681322E-01
   7150.33  6.0400074E-01
   7150.67  6.0057693E-01
   7151.00  5.9663196E-01
   7151.33  5.9226308E-01
   7151.67  5.8769262E-01
   7152.00  5.8307802E-01
   7152.33  5.7861607E-01
   7152.67  5.7445262E-01
   7153.00  5.7070321E-01
   7153.33  5.6752897E-01
   7153.67  5.6491740E-01
   7154.00  5.6287464E-01
   7154.33  5.6143265E-01
   7154.67  5.6044990E-01
   7155.00  5.5983437E-01
   7155.33  5.5948305E-01
   7155.67  5.5921800E-01
   7156.00  5.5890686E-01
   7156.33  5.5837385E-01
   7156.67  5.5750450E-01
   7157.00  5.5619518E-01
   7157.33  5.5428152E-01
   7157.67  5.5176254E-01
   7158.00  5.4860512E-01
   7158.33  5.4472061E-01
   7158.67  5.4021556E-01
   7159.00  5.3513830E-01
   7159.33  5.2950973E-01
   7159.67  5.2349291E-01
   7160.00  5.1718980E-01
   7160.33  5.1071543E-01
   7160.67  5.0422929E-01
   7161.00  4.9784480E-01
   7161.33  4.9170449E-01
   7161.67  4.8587749E-01
   7162.00  4.8042964E-01
   7162.33  4.7547035E-01
   7162.67  4.7097597E-01
   7163.00  4.6695130E-01
   7163.33  4.6344044E-01
   7163.67  4.6036217E-01
   7164.00  4.5768636E-01
   7164.33  4.5541383E-01
   7164.67  4.5345050E-01
   7165.00  4.5175276E-01
   7165.33  4.5029829E-01
   7165.67  4.4901411E-01
   7166.00  4.4786387E-01
   7166.33  4.4682155E-01
   7166.67  4.4584286E-01
   7167.00  4.4490442E-01
   7167.33  4.4398567E-01
   7167.67  4.4306674E-01
   7168.00  4.4213668E-01
   7168.33  4.4118694E-01
   7168.67  4.4021829E-01
   7169.00  4.3922976E-01
   7169.33  4.3822033E-01
   7169.67  4.3719810E-01
   7170.00  4.3617154E-01
   7170.33  4.3515529E-01
   7170.67  4.3416611E-01
   7171.00  4.3322357E-01
   7171.33  4.3236537E-01
   7171.67  4.3161774E-01
   7172.00  4.3101454E-01
