    FDMNES
    energy     <xanes>
   7097.00  4.9555827E-03
   7097.33  5.0702518E-03
   7097.67  5.1900263E-03
   7098.00  5.3152465E-03
   7098.33  5.4470856E-03
   7098.67  5.5852948E-03
   7099.00  5.7303362E-03
   7099.33  5.8837371E-03
   7099.67  6.0452409E-03
   7100.00  6.2154908E-03
   7100.33  6.3965270E-03
   7100.67  6.5881059E-03
   7101.00  6.7911511E-03
   7101.33  7.0084707E-03
   7101.67  7.2398824E-03
   7102.00  7.4867614E-03
   7102.33  7.7531148E-03
   7102.67  8.0389295E-03
   7103.00  8.3463438E-03
   7103.33  8.6813362E-03
   7103.67  9.0443073E-03
   7104.00  9.4387670E-03
   7104.33  9.8741465E-03
   7104.67  1.0351847E-02
   7105.00  1.0878040E-02
   7105.33  1.1468717E-02
   7105.67  1.2127805E-02
   7106.00  1.2867192E-02
   7106.33  1.3716758E-02
   7106.67  1.4687426E-02
   7107.00  1.5805187E-02
   7107.33  1.7134183E-02
   7107.67  1.8707979E-02
   7108.00  2.0595155E-02
   7108.33  2.2966221E-02
   7108.67  2.5949380E-02
   7109.00  2.9789880E-02
   7109.33  3.5136700E-02
   7109.67  4.2718768E-02
   7110.00  5.3974538E-02
   7110.33  7.3009564E-02
   7110.67  1.0356120E-01
   7111.00  1.4337593E-01
   7111.33  1.7286850E-01
   7111.67  1.8994402E-01
   7112.00  2.1190453E-01
   7112.33  2.5386357E-01
   7112.67  3.0370267E-01
   7113.00  3.4601329E-01
   7113.33  3.7608035E-01
   7113.67  3.9206441E-01
   7114.00  3.8384462E-01
   7114.33  3.4985729E-01
   7114.67  3.1491854E-01
   7115.00  2.9632929E-01
   7115.33  2.9651986E-01
   7115.67  2.9372918E-01
   7116.00  2.7136922E-01
   7116.33  2.3380386E-01
   7116.67  1.9953482E-01
   7117.00  1.7484516E-01
   7117.33  1.6030272E-01
   7117.67  1.5169490E-01
   7118.00  1.4643374E-01
   7118.33  1.4192935E-01
   7118.67  1.3668331E-01
   7119.00  1.3121390E-01
   7119.33  1.2704812E-01
   7119.67  1.2466923E-01
   7120.00  1.2370627E-01
   7120.33  1.2342528E-01
   7120.67  1.2346687E-01
   7121.00  1.2400137E-01
   7121.33  1.2532083E-01
   7121.67  1.2749625E-01
   7122.00  1.3085836E-01
   7122.33  1.3627793E-01
   7122.67  1.4411270E-01
   7123.00  1.5471934E-01
   7123.33  1.6879335E-01
   7123.67  1.8614561E-01
   7124.00  2.0682789E-01
   7124.33  2.3105360E-01
   7124.67  2.5774158E-01
   7125.00  2.8568541E-01
   7125.33  3.1266745E-01
   7125.67  3.3646076E-01
   7126.00  3.5560988E-01
   7126.33  3.6945737E-01
   7126.67  3.8058222E-01
   7127.00  3.9159876E-01
   7127.33  4.0577407E-01
   7127.67  4.2486009E-01
   7128.00  4.4966814E-01
   7128.33  4.8030322E-01
   7128.67  5.1430327E-01
   7129.00  5.4991809E-01
   7129.33  5.8555399E-01
   7129.67  6.1978338E-01
   7130.00  6.5132817E-01
   7130.33  6.7837448E-01
   7130.67  7.0079363E-01
   7131.00  7.1907576E-01
   7131.33  7.3474430E-01
   7131.67  7.5040366E-01
   7132.00  7.6762790E-01
   7132.33  7.8753318E-01
   7132.67  8.0945066E-01
   7133.00  8.3216772E-01
   7133.33  8.5316374E-01
   7133.67  8.6965574E-01
   7134.00  8.7915733E-01
   7134.33  8.7857950E-01
   7134.67  8.6835513E-01
   7135.00  8.4873178E-01
   7135.33  8.1996034E-01
   7135.67  7.8551109E-01
   7136.00  7.4813057E-01
   7136.33  7.1097726E-01
   7136.67  6.7644309E-01
   7137.00  6.4587232E-01
   7137.33  6.2071243E-01
   7137.67  6.0069207E-01
   7138.00  5.8581776E-01
   7138.33  5.7639477E-01
   7138.67  5.7115858E-01
   7139.00  5.6927625E-01
   7139.33  5.6985915E-01
   7139.67  5.7147525E-01
   7140.00  5.7330651E-01
   7140.33  5.7468824E-01
   7140.67  5.7544226E-01
   7141.00  5.7562134E-01
   7141.33  5.7540810E-01
   7141.67  5.7512771E-01
   7142.00  5.7499952E-01
   7142.33  5.7525996E-01
   7142.67  5.7598440E-01
   7143.00  5.7721968E-01
   7143.33  5.7902219E-01
   7143.67  5.8125634E-01
   7144.00  5.8382806E-01
   7144.33  5.8664609E-01
   7144.67  5.8956261E-01
   7145.00  5.9247519E-01
   7145.33  5.9525468E-01
   7145.67  5.9781160E-01
   7146.00  6.0006822E-01
   7146.33  6.0190477E-01
   7146.67  6.0331603E-01
   7147.00  6.0427487E-01
   7147.33  6.0471053E-01
   7147.67  6.0468623E-01
   7148.00  6.0421778E-01
   7148.33  6.0328147E-01
   7148.67  6.0196522E-01
   7149.00  6.0030542E-01
   7149.33  5.9831306E-01
   7149.67  5.9607052E-01
   7150.00  5.9361573E-01
   7150.33  5.9097511E-01
   7150.67  5.8821853E-01
   7151.00  5.8539189E-01
   7151.33  5.8255440E-01
   7151.67  5.7976371E-01
   7152.00  5.7706262E-01
   7152.33  5.7451512E-01
   7152.67  5.7214640E-01
   7153.00  5.6998704E-01
   7153.33  5.6809316E-01
   7153.67  5.6644935E-01
   7154.00  5.6505615E-01
   7154.33  5.6392922E-01
   7154.67  5.6300779E-01
   7155.00  5.6225023E-01
   7155.33  5.6160456E-01
   7155.67  5.6097976E-01
   7156.00  5.6029976E-01
   7156.33  5.5945123E-01
   7156.67  5.5835735E-01
   7157.00  5.5694018E-01
   7157.33  5.5506814E-01
   7157.67  5.5272605E-01
   7158.00  5.4987308E-01
   7158.33  5.4641632E-01
   7158.67  5.4242404E-01
   7159.00  5.3791829E-01
   7159.33  5.3288753E-01
   7159.67  5.2746452E-01
   7160.00  5.2173383E-01
   7160.33  5.1578315E-01
   7160.67  5.0975453E-01
   7161.00  5.0374788E-01
   7161.33  4.9788485E-01
   7161.67  4.9223674E-01
   7162.00  4.8686206E-01
   7162.33  4.8184508E-01
   7162.67  4.7716029E-01
   7163.00  4.7280180E-01
   7163.33  4.6879304E-01
   7163.67  4.6507193E-01
   7164.00  4.6161355E-01
   7164.33  4.5841636E-01
   7164.67  4.5542316E-01
   7165.00  4.5261347E-01
   7165.33  4.4998924E-01
   7165.67  4.4751617E-01
   7166.00  4.4518505E-01
   7166.33  4.4300342E-01
   7166.67  4.4094643E-01
   7167.00  4.3900658E-01
   7167.33  4.3718709E-01
   7167.67  4.3546373E-01
   7168.00  4.3382841E-01
   7168.33  4.3228513E-01
   7168.67  4.3081721E-01
   7169.00  4.2941805E-01
   7169.33  4.2808942E-01
   7169.67  4.2682135E-01
   7170.00  4.2561529E-01
   7170.33  4.2448443E-01
   7170.67  4.2342922E-01
   7171.00  4.2246056E-01
   7171.33  4.2160802E-01
   7171.67  4.2088009E-01
   7172.00  4.2029632E-01
