    FDMNES
    energy     <xanes>
   7097.00  5.4589935E-03
   7097.33  5.5984111E-03
   7097.67  5.7445645E-03
   7098.00  5.8979239E-03
   7098.33  6.0600711E-03
   7098.67  6.2307038E-03
   7099.00  6.4104628E-03
   7099.33  6.6014237E-03
   7099.67  6.8032754E-03
   7100.00  7.0169123E-03
   7100.33  7.2451239E-03
   7100.67  7.4876185E-03
   7101.00  7.7456799E-03
   7101.33  8.0231631E-03
   7101.67  8.3198579E-03
   7102.00  8.6376687E-03
   7102.33  8.9821017E-03
   7102.67  9.3531631E-03
   7103.00  9.7537907E-03
   7103.33  1.0192167E-02
   7103.67  1.0668813E-02
   7104.00  1.1188479E-02
   7104.33  1.1763929E-02
   7104.67  1.2396887E-02
   7105.00  1.3095498E-02
   7105.33  1.3880915E-02
   7105.67  1.4757750E-02
   7106.00  1.5741047E-02
   7106.33  1.6868738E-02
   7106.67  1.8152848E-02
   7107.00  1.9624050E-02
   7107.33  2.1358017E-02
   7107.67  2.3388105E-02
   7108.00  2.5786227E-02
   7108.33  2.8728592E-02
   7108.67  3.2322636E-02
   7109.00  3.6777715E-02
   7109.33  4.2621270E-02
   7109.67  5.0316677E-02
   7110.00  6.0750636E-02
   7110.33  7.6314271E-02
   7110.67  9.9295393E-02
   7111.00  1.3139521E-01
   7111.33  1.7513041E-01
   7111.67  2.4161381E-01
   7112.00  3.5005880E-01
   7112.33  5.1320951E-01
   7112.67  6.5924660E-01
   7113.00  7.1812484E-01
   7113.33  7.1360886E-01
   7113.67  6.6527525E-01
   7114.00  5.7420123E-01
   7114.33  4.8397086E-01
   7114.67  4.1222695E-01
   7115.00  3.5158284E-01
   7115.33  3.0169182E-01
   7115.67  2.6635559E-01
   7116.00  2.4660225E-01
   7116.33  2.4120542E-01
   7116.67  2.4311875E-01
   7117.00  2.4689231E-01
   7117.33  2.4787173E-01
   7117.67  2.4499685E-01
   7118.00  2.3738096E-01
   7118.33  2.2448754E-01
   7118.67  2.0994975E-01
   7119.00  1.9664030E-01
   7119.33  1.8612751E-01
   7119.67  1.7725640E-01
   7120.00  1.6892195E-01
   7120.33  1.6104207E-01
   7120.67  1.5467456E-01
   7121.00  1.5082439E-01
   7121.33  1.5000074E-01
   7121.67  1.5111149E-01
   7122.00  1.5332578E-01
   7122.33  1.5633642E-01
   7122.67  1.6055758E-01
   7123.00  1.6670570E-01
   7123.33  1.7555826E-01
   7123.67  1.8659693E-01
   7124.00  1.9907713E-01
   7124.33  2.1158721E-01
   7124.67  2.2248290E-01
   7125.00  2.3094310E-01
   7125.33  2.3743388E-01
   7125.67  2.4415486E-01
   7126.00  2.5265628E-01
   7126.33  2.6385955E-01
   7126.67  2.7672530E-01
   7127.00  2.9004905E-01
   7127.33  3.0263320E-01
   7127.67  3.1444384E-01
   7128.00  3.2613660E-01
   7128.33  3.3893431E-01
   7128.67  3.5381539E-01
   7129.00  3.7156954E-01
   7129.33  3.9320902E-01
   7129.67  4.1845141E-01
   7130.00  4.4708474E-01
   7130.33  4.7880640E-01
   7130.67  5.1231257E-01
   7131.00  5.4678580E-01
   7131.33  5.8158510E-01
   7131.67  6.1630346E-01
   7132.00  6.5078815E-01
   7132.33  6.8480751E-01
   7132.67  7.1773846E-01
   7133.00  7.4816751E-01
   7133.33  7.7282981E-01
   7133.67  7.8947014E-01
   7134.00  7.9618877E-01
   7134.33  7.9051772E-01
   7134.67  7.7377826E-01
   7135.00  7.4662582E-01
   7135.33  7.0974629E-01
   7135.67  6.6714024E-01
   7136.00  6.2184022E-01
   7136.33  5.7724115E-01
   7136.67  5.3576524E-01
   7137.00  4.9880103E-01
   7137.33  4.6791265E-01
   7137.67  4.4273021E-01
   7138.00  4.2317205E-01
   7138.33  4.0951434E-01
   7138.67  4.0054110E-01
   7139.00  3.9571636E-01
   7139.33  3.9485358E-01
   7139.67  3.9691167E-01
   7140.00  4.0140668E-01
   7140.33  4.0806247E-01
   7140.67  4.1618845E-01
   7141.00  4.2546178E-01
   7141.33  4.3569698E-01
   7141.67  4.4658767E-01
   7142.00  4.5803190E-01
   7142.33  4.7003403E-01
   7142.67  4.8250506E-01
   7143.00  4.9542401E-01
   7143.33  5.0880677E-01
   7143.67  5.2254116E-01
   7144.00  5.3654987E-01
   7144.33  5.5073406E-01
   7144.67  5.6493266E-01
   7145.00  5.7901691E-01
   7145.33  5.9281594E-01
   7145.67  6.0625263E-01
   7146.00  6.1927170E-01
   7146.33  6.3181241E-01
   7146.67  6.4397928E-01
   7147.00  6.5585030E-01
   7147.33  6.6750651E-01
   7147.67  6.7905897E-01
   7148.00  6.9054423E-01
   7148.33  7.0193368E-01
   7148.67  7.1314896E-01
   7149.00  7.2405927E-01
   7149.33  7.3440069E-01
   7149.67  7.4400391E-01
   7150.00  7.5266040E-01
   7150.33  7.6001149E-01
   7150.67  7.6604284E-01
   7151.00  7.7065901E-01
   7151.33  7.7361732E-01
   7151.67  7.7510740E-01
   7152.00  7.7518128E-01
   7152.33  7.7377415E-01
   7152.67  7.7117992E-01
   7153.00  7.6752554E-01
   7153.33  7.6285249E-01
   7153.67  7.5742501E-01
   7154.00  7.5136409E-01
   7154.33  7.4473249E-01
   7154.67  7.3770280E-01
   7155.00  7.3035642E-01
   7155.33  7.2274516E-01
   7155.67  7.1496690E-01
   7156.00  7.0707266E-01
   7156.33  6.9910630E-01
   7156.67  6.9112004E-01
   7157.00  6.8314633E-01
   7157.33  6.7522283E-01
   7157.67  6.6737089E-01
   7158.00  6.5960935E-01
   7158.33  6.5196777E-01
   7158.67  6.4444616E-01
   7159.00  6.3705745E-01
   7159.33  6.2983550E-01
   7159.67  6.2277459E-01
   7160.00  6.1588347E-01
   7160.33  6.0919277E-01
   7160.67  6.0268774E-01
   7161.00  5.9637396E-01
   7161.33  5.9027813E-01
   7161.67  5.8437161E-01
   7162.00  5.7864474E-01
   7162.33  5.7310347E-01
   7162.67  5.6771102E-01
   7163.00  5.6245171E-01
   7163.33  5.5731939E-01
   7163.67  5.5227924E-01
   7164.00  5.4731523E-01
   7164.33  5.4241951E-01
   7164.67  5.3757331E-01
   7165.00  5.3277038E-01
   7165.33  5.2801053E-01
   7165.67  5.2328415E-01
   7166.00  5.1858501E-01
   7166.33  5.1390245E-01
   7166.67  5.0921281E-01
   7167.00  5.0449084E-01
   7167.33  4.9969702E-01
   7167.67  4.9480561E-01
   7168.00  4.8978464E-01
   7168.33  4.8457257E-01
   7168.67  4.7915293E-01
   7169.00  4.7349963E-01
   7169.33  4.6756076E-01
   7169.67  4.6136414E-01
   7170.00  4.5492418E-01
   7170.33  4.4825849E-01
   7170.67  4.4147106E-01
   7171.00  4.3467176E-01
   7171.33  4.2809730E-01
   7171.67  4.2209076E-01
   7172.00  4.1711602E-01
