    FDMNES
    energy     <xanes>
   7097.00  5.5198850E-03
   7097.33  5.6708736E-03
   7097.67  5.8297680E-03
   7098.00  5.9971711E-03
   7098.33  6.1750275E-03
   7098.67  6.3630569E-03
   7099.00  6.5621048E-03
   7099.33  6.7747950E-03
   7099.67  7.0008710E-03
   7100.00  7.2415526E-03
   7100.33  7.5004830E-03
   7100.67  7.7774923E-03
   7101.00  8.0744003E-03
   7101.33  8.3964392E-03
   7101.67  8.7436611E-03
   7102.00  9.1188903E-03
   7102.33  9.5299502E-03
   7102.67  9.9774131E-03
   7103.00  1.0465875E-02
   7103.33  1.1007621E-02
   7103.67  1.1604425E-02
   7104.00  1.2264214E-02
   7104.33  1.3007481E-02
   7104.67  1.3838868E-02
   7105.00  1.4773074E-02
   7105.33  1.5847027E-02
   7105.67  1.7072639E-02
   7106.00  1.8479869E-02
   7106.33  2.0142374E-02
   7106.67  2.2092498E-02
   7107.00  2.4399606E-02
   7107.33  2.7232691E-02
   7107.67  3.0691195E-02
   7108.00  3.4967869E-02
   7108.33  4.0539077E-02
   7108.67  4.7784740E-02
   7109.00  5.7414468E-02
   7109.33  7.1293155E-02
   7109.67  9.1522307E-02
   7110.00  1.2219392E-01
   7110.33  1.7505240E-01
   7110.67  2.6302935E-01
   7111.00  3.9226184E-01
   7111.33  5.4022282E-01
   7111.67  6.7812431E-01
   7112.00  7.7599487E-01
   7112.33  7.6808059E-01
   7112.67  6.5261774E-01
   7113.00  4.9508024E-01
   7113.33  3.6983703E-01
   7113.67  2.8294843E-01
   7114.00  2.2463293E-01
   7114.33  1.8666540E-01
   7114.67  1.6022806E-01
   7115.00  1.4192452E-01
   7115.33  1.2984122E-01
   7115.67  1.2145265E-01
   7116.00  1.1551182E-01
   7116.33  1.1109739E-01
   7116.67  1.0733944E-01
   7117.00  1.0416513E-01
   7117.33  1.0199063E-01
   7117.67  1.0084946E-01
   7118.00  1.0061964E-01
   7118.33  1.0114257E-01
   7118.67  1.0209280E-01
   7119.00  1.0326468E-01
   7119.33  1.0449299E-01
   7119.67  1.0571665E-01
   7120.00  1.0698156E-01
   7120.33  1.0888805E-01
   7120.67  1.1247750E-01
   7121.00  1.1852171E-01
   7121.33  1.2759073E-01
   7121.67  1.3913268E-01
   7122.00  1.5287492E-01
   7122.33  1.6898634E-01
   7122.67  1.8763132E-01
   7123.00  2.0950903E-01
   7123.33  2.3573704E-01
   7123.67  2.6556412E-01
   7124.00  2.9760384E-01
   7124.33  3.2886036E-01
   7124.67  3.5594541E-01
   7125.00  3.7640981E-01
   7125.33  3.8815454E-01
   7125.67  3.9307158E-01
   7126.00  3.9303638E-01
   7126.33  3.9024198E-01
   7126.67  3.8701432E-01
   7127.00  3.8450788E-01
   7127.33  3.8382859E-01
   7127.67  3.8536461E-01
   7128.00  3.8945775E-01
   7128.33  3.9674661E-01
   7128.67  4.0703198E-01
   7129.00  4.2034005E-01
   7129.33  4.3693836E-01
   7129.67  4.5620468E-01
   7130.00  4.7780095E-01
   7130.33  5.0153275E-01
   7130.67  5.2690442E-01
   7131.00  5.5401723E-01
   7131.33  5.8369123E-01
   7131.67  6.1632006E-01
   7132.00  6.5216440E-01
   7132.33  6.9092204E-01
   7132.67  7.3023312E-01
   7133.00  7.6715862E-01
   7133.33  7.9658228E-01
   7133.67  8.1545449E-01
   7134.00  8.2198187E-01
   7134.33  8.1502409E-01
   7134.67  7.9848334E-01
   7135.00  7.7515891E-01
   7135.33  7.4788874E-01
   7135.67  7.1998493E-01
   7136.00  6.9342897E-01
   7136.33  6.7018651E-01
   7136.67  6.5063563E-01
   7137.00  6.3479442E-01
   7137.33  6.2263050E-01
   7137.67  6.1317673E-01
   7138.00  6.0610951E-01
   7138.33  6.0161163E-01
   7138.67  5.9947522E-01
   7139.00  5.9975531E-01
   7139.33  6.0264903E-01
   7139.67  6.0755669E-01
   7140.00  6.1406228E-01
   7140.33  6.2169484E-01
   7140.67  6.2970232E-01
   7141.00  6.3759003E-01
   7141.33  6.4481292E-01
   7141.67  6.5111543E-01
   7142.00  6.5633116E-01
   7142.33  6.6024015E-01
   7142.67  6.6301064E-01
   7143.00  6.6471329E-01
   7143.33  6.6534187E-01
   7143.67  6.6513919E-01
   7144.00  6.6420737E-01
   7144.33  6.6257657E-01
   7144.67  6.6041926E-01
   7145.00  6.5780858E-01
   7145.33  6.5477795E-01
   7145.67  6.5145368E-01
   7146.00  6.4790704E-01
   7146.33  6.4420940E-01
   7146.67  6.4047088E-01
   7147.00  6.3677342E-01
   7147.33  6.3322467E-01
   7147.67  6.2988152E-01
   7148.00  6.2678654E-01
   7148.33  6.2401693E-01
   7148.67  6.2156952E-01
   7149.00  6.1945270E-01
   7149.33  6.1769915E-01
   7149.67  6.1624811E-01
   7150.00  6.1507277E-01
   7150.33  6.1416220E-01
   7150.67  6.1343992E-01
   7151.00  6.1286234E-01
   7151.33  6.1238864E-01
   7151.67  6.1195630E-01
   7152.00  6.1152432E-01
   7152.33  6.1104448E-01
   7152.67  6.1048589E-01
   7153.00  6.0982334E-01
   7153.33  6.0901940E-01
   7153.67  6.0807673E-01
   7154.00  6.0699030E-01
   7154.33  6.0574275E-01
   7154.67  6.0435870E-01
   7155.00  6.0284740E-01
   7155.33  6.0120689E-01
   7155.67  5.9946408E-01
   7156.00  5.9762821E-01
   7156.33  5.9569449E-01
   7156.67  5.9367068E-01
   7157.00  5.9154063E-01
   7157.33  5.8925807E-01
   7157.67  5.8680680E-01
   7158.00  5.8414954E-01
   7158.33  5.8119934E-01
   7158.67  5.7792683E-01
   7159.00  5.7427639E-01
   7159.33  5.7013161E-01
   7159.67  5.6549773E-01
   7160.00  5.6034529E-01
   7160.33  5.5459190E-01
   7160.67  5.4831197E-01
   7161.00  5.4153086E-01
   7161.33  5.3424021E-01
   7161.67  5.2655999E-01
   7162.00  5.1855138E-01
   7162.33  5.1025504E-01
   7162.67  5.0177272E-01
   7163.00  4.9315940E-01
   7163.33  4.8446124E-01
   7163.67  4.7573413E-01
   7164.00  4.6701136E-01
   7164.33  4.5832824E-01
   7164.67  4.4970453E-01
   7165.00  4.4115853E-01
   7165.33  4.3272361E-01
   7165.67  4.2440990E-01
   7166.00  4.1624293E-01
   7166.33  4.0828595E-01
   7166.67  4.0055052E-01
   7167.00  3.9306463E-01
   7167.33  3.8590174E-01
   7167.67  3.7906713E-01
   7168.00  3.7259690E-01
   7168.33  3.6658254E-01
   7168.67  3.6101163E-01
   7169.00  3.5591293E-01
   7169.33  3.5137412E-01
   7169.67  3.4734897E-01
   7170.00  3.4384382E-01
   7170.33  3.4092112E-01
   7170.67  3.3850193E-01
   7171.00  3.3656276E-01
   7171.33  3.3511423E-01
   7171.67  3.3403220E-01
   7172.00  3.3322939E-01
