    FDMNES
    energy     <xanes>
   7097.00  4.2756171E-03
   7097.33  4.3642447E-03
   7097.67  4.4565146E-03
   7098.00  4.5526644E-03
   7098.33  4.6535238E-03
   7098.67  4.7589116E-03
   7099.00  4.8691534E-03
   7099.33  4.9853329E-03
   7099.67  5.1072686E-03
   7100.00  5.2354209E-03
   7100.33  5.3712485E-03
   7100.67  5.5145910E-03
   7101.00  5.6661235E-03
   7101.33  5.8278827E-03
   7101.67  5.9997771E-03
   7102.00  6.1828408E-03
   7102.33  6.3800470E-03
   7102.67  6.5914818E-03
   7103.00  6.8188153E-03
   7103.33  7.0666342E-03
   7103.67  7.3354569E-03
   7104.00  7.6281644E-03
   7104.33  7.9523394E-03
   7104.67  8.3095734E-03
   7105.00  8.7052650E-03
   7105.33  9.1531194E-03
   7105.67  9.6575666E-03
   7106.00  1.0229878E-02
   7106.33  1.0897938E-02
   7106.67  1.1674574E-02
   7107.00  1.2587049E-02
   7107.33  1.3702222E-02
   7107.67  1.5062518E-02
   7108.00  1.6749403E-02
   7108.33  1.8967129E-02
   7108.67  2.1895062E-02
   7109.00  2.5870167E-02
   7109.33  3.1806330E-02
   7109.67  4.0848692E-02
   7110.00  5.5274885E-02
   7110.33  8.1690507E-02
   7110.67  1.2589847E-01
   7111.00  1.8104482E-01
   7111.33  2.0334722E-01
   7111.67  1.8754881E-01
   7112.00  1.6189783E-01
   7112.33  1.4715558E-01
   7112.67  1.4061223E-01
   7113.00  1.3668872E-01
   7113.33  1.2972061E-01
   7113.67  1.1471240E-01
   7114.00  9.6836146E-02
   7114.33  8.8520157E-02
   7114.67  8.8245296E-02
   7115.00  8.6370484E-02
   7115.33  7.6505092E-02
   7115.67  6.6490794E-02
   7116.00  5.9889410E-02
   7116.33  5.7084263E-02
   7116.67  5.6695824E-02
   7117.00  5.7948317E-02
   7117.33  6.0242271E-02
   7117.67  6.3113731E-02
   7118.00  6.6576570E-02
   7118.33  7.0974822E-02
   7118.67  7.6735624E-02
   7119.00  8.4600066E-02
   7119.33  9.5786337E-02
   7119.67  1.1016445E-01
   7120.00  1.2699342E-01
   7120.33  1.4424370E-01
   7120.67  1.5951968E-01
   7121.00  1.7178273E-01
   7121.33  1.8106898E-01
   7121.67  1.8930789E-01
   7122.00  1.9840702E-01
   7122.33  2.1071746E-01
   7122.67  2.2639902E-01
   7123.00  2.4399883E-01
   7123.33  2.6021021E-01
   7123.67  2.7245366E-01
   7124.00  2.7942003E-01
   7124.33  2.8240317E-01
   7124.67  2.8713051E-01
   7125.00  2.9741882E-01
   7125.33  3.1553352E-01
   7125.67  3.3894051E-01
   7126.00  3.6484769E-01
   7126.33  3.9068749E-01
   7126.67  4.1546619E-01
   7127.00  4.3874078E-01
   7127.33  4.5900292E-01
   7127.67  4.7523245E-01
   7128.00  4.8805284E-01
   7128.33  5.0176621E-01
   7128.67  5.2188761E-01
   7129.00  5.5122830E-01
   7129.33  5.8907778E-01
   7129.67  6.2794258E-01
   7130.00  6.6134953E-01
   7130.33  6.8375418E-01
   7130.67  6.9688657E-01
   7131.00  7.0399402E-01
   7131.33  7.0939704E-01
   7131.67  7.1657668E-01
   7132.00  7.2696416E-01
   7132.33  7.4135472E-01
   7132.67  7.5844640E-01
   7133.00  7.7665862E-01
   7133.33  7.9345730E-01
   7133.67  8.0702905E-01
   7134.00  8.1678966E-01
   7134.33  8.2207403E-01
   7134.67  8.2245192E-01
   7135.00  8.1717792E-01
   7135.33  8.0603885E-01
   7135.67  7.9138205E-01
   7136.00  7.7498462E-01
   7136.33  7.5875621E-01
   7136.67  7.4416289E-01
   7137.00  7.3204014E-01
   7137.33  7.2313231E-01
   7137.67  7.1689101E-01
   7138.00  7.1280111E-01
   7138.33  7.1018157E-01
   7138.67  7.0793868E-01
   7139.00  7.0533956E-01
   7139.33  7.0161265E-01
   7139.67  6.9654017E-01
   7140.00  6.9007730E-01
   7140.33  6.8226114E-01
   7140.67  6.7360925E-01
   7141.00  6.6451789E-01
   7141.33  6.5547678E-01
   7141.67  6.4692031E-01
   7142.00  6.3914514E-01
   7142.33  6.3248011E-01
   7142.67  6.2682335E-01
   7143.00  6.2203613E-01
   7143.33  6.1785918E-01
   7143.67  6.1377923E-01
   7144.00  6.0939446E-01
   7144.33  6.0422287E-01
   7144.67  5.9809506E-01
   7145.00  5.9093190E-01
   7145.33  5.8270207E-01
   7145.67  5.7378237E-01
   7146.00  5.6449363E-01
   7146.33  5.5527354E-01
   7146.67  5.4654393E-01
   7147.00  5.3863269E-01
   7147.33  5.3198166E-01
   7147.67  5.2664686E-01
   7148.00  5.2270605E-01
   7148.33  5.2032695E-01
   7148.67  5.1923803E-01
   7149.00  5.1928999E-01
   7149.33  5.2035577E-01
   7149.67  5.2202197E-01
   7150.00  5.2400260E-01
   7150.33  5.2596139E-01
   7150.67  5.2757271E-01
   7151.00  5.2856753E-01
   7151.33  5.2855473E-01
   7151.67  5.2741959E-01
   7152.00  5.2502387E-01
   7152.33  5.2111940E-01
   7152.67  5.1588113E-01
   7153.00  5.0938016E-01
   7153.33  5.0163000E-01
   7153.67  4.9298502E-01
   7154.00  4.8366642E-01
   7154.33  4.7390233E-01
   7154.67  4.6401626E-01
   7155.00  4.5422278E-01
   7155.33  4.4477028E-01
   7155.67  4.3577783E-01
   7156.00  4.2733378E-01
   7156.33  4.1956466E-01
   7156.67  4.1240081E-01
   7157.00  4.0581939E-01
   7157.33  3.9983875E-01
   7157.67  3.9433072E-01
   7158.00  3.8923939E-01
   7158.33  3.8454158E-01
   7158.67  3.8013015E-01
   7159.00  3.7596118E-01
   7159.33  3.7202002E-01
   7159.67  3.6825341E-01
   7160.00  3.6464857E-01
   7160.33  3.6122390E-01
   7160.67  3.5797077E-01
   7161.00  3.5490823E-01
   7161.33  3.5209221E-01
   7161.67  3.4952713E-01
   7162.00  3.4724210E-01
   7162.33  3.4530915E-01
   7162.67  3.4371714E-01
   7163.00  3.4248408E-01
   7163.33  3.4166797E-01
   7163.67  3.4122413E-01
   7164.00  3.4114741E-01
   7164.33  3.4147153E-01
   7164.67  3.4213960E-01
   7165.00  3.4314368E-01
   7165.33  3.4452453E-01
   7165.67  3.4624797E-01
   7166.00  3.4832587E-01
   7166.33  3.5082167E-01
   7166.67  3.5370474E-01
   7167.00  3.5698380E-01
   7167.33  3.6071021E-01
   7167.67  3.6482504E-01
   7168.00  3.6931098E-01
   7168.33  3.7418013E-01
   7168.67  3.7934956E-01
   7169.00  3.8477849E-01
   7169.33  3.9044069E-01
   7169.67  3.9625396E-01
   7170.00  4.0216645E-01
   7170.33  4.0811574E-01
   7170.67  4.1401800E-01
   7171.00  4.1978379E-01
   7171.33  4.2522106E-01
   7171.67  4.3010175E-01
   7172.00  4.3408975E-01
