    FDMNES
    energy     <xanes>
   7097.00  5.0665940E-03
   7097.33  5.1836187E-03
   7097.67  5.3059330E-03
   7098.00  5.4338987E-03
   7098.33  5.5687469E-03
   7098.67  5.7102337E-03
   7099.00  5.8588548E-03
   7099.33  6.0162273E-03
   7099.67  6.1821057E-03
   7100.00  6.3571886E-03
   7100.33  6.5436592E-03
   7100.67  6.7412989E-03
   7101.00  6.9511250E-03
   7101.33  7.1761829E-03
   7101.67  7.4163444E-03
   7102.00  7.6731504E-03
   7102.33  7.9510208E-03
   7102.67  8.2500590E-03
   7103.00  8.5727127E-03
   7103.33  8.9257169E-03
   7103.67  9.3097337E-03
   7104.00  9.7288870E-03
   7104.33  1.0194089E-02
   7104.67  1.0707359E-02
   7105.00  1.1276188E-02
   7105.33  1.1919713E-02
   7105.67  1.2643451E-02
   7106.00  1.3462418E-02
   7106.33  1.4413962E-02
   7106.67  1.5513584E-02
   7107.00  1.6795800E-02
   7107.33  1.8345386E-02
   7107.67  2.0211591E-02
   7108.00  2.2491467E-02
   7108.33  2.5427249E-02
   7108.67  2.9217660E-02
   7109.00  3.4239088E-02
   7109.33  4.1503330E-02
   7109.67  5.2228012E-02
   7110.00  6.8823914E-02
   7110.33  9.8053497E-02
   7110.67  1.4393980E-01
   7111.00  1.9338396E-01
   7111.33  2.1768179E-01
   7111.67  2.5144417E-01
   7112.00  3.0545705E-01
   7112.33  3.4461941E-01
   7112.67  3.6296821E-01
   7113.00  3.5962151E-01
   7113.33  2.9803565E-01
   7113.67  2.3175497E-01
   7114.00  1.9264017E-01
   7114.33  1.7624554E-01
   7114.67  1.6625190E-01
   7115.00  1.6306815E-01
   7115.33  1.7373431E-01
   7115.67  1.9661589E-01
   7116.00  2.2481393E-01
   7116.33  2.4108032E-01
   7116.67  2.3713829E-01
   7117.00  2.1933815E-01
   7117.33  1.9989345E-01
   7117.67  1.8512920E-01
   7118.00  1.7559858E-01
   7118.33  1.7028838E-01
   7118.67  1.6658677E-01
   7119.00  1.6288454E-01
   7119.33  1.5875789E-01
   7119.67  1.5505892E-01
   7120.00  1.5237033E-01
   7120.33  1.5095208E-01
   7120.67  1.5051000E-01
   7121.00  1.5115672E-01
   7121.33  1.5362690E-01
   7121.67  1.5826526E-01
   7122.00  1.6531736E-01
   7122.33  1.7509844E-01
   7122.67  1.8701719E-01
   7123.00  2.0053366E-01
   7123.33  2.1512930E-01
   7123.67  2.3090302E-01
   7124.00  2.4883360E-01
   7124.33  2.6943043E-01
   7124.67  2.9045722E-01
   7125.00  3.0953233E-01
   7125.33  3.2423217E-01
   7125.67  3.3498901E-01
   7126.00  3.4315082E-01
   7126.33  3.5085720E-01
   7126.67  3.5993145E-01
   7127.00  3.7097543E-01
   7127.33  3.8403911E-01
   7127.67  3.9935212E-01
   7128.00  4.1891150E-01
   7128.33  4.4700805E-01
   7128.67  4.8526316E-01
   7129.00  5.3478677E-01
   7129.33  5.9705689E-01
   7129.67  6.6886999E-01
   7130.00  7.4641840E-01
   7130.33  8.2188671E-01
   7130.67  8.8606090E-01
   7131.00  9.3214593E-01
   7131.33  9.5446897E-01
   7131.67  9.5847320E-01
   7132.00  9.4930158E-01
   7132.33  9.3225007E-01
   7132.67  9.1290890E-01
   7133.00  8.9389146E-01
   7133.33  8.7699107E-01
   7133.67  8.6219327E-01
   7134.00  8.4888951E-01
   7134.33  8.3588740E-01
   7134.67  8.2182535E-01
   7135.00  8.0578896E-01
   7135.33  7.8686100E-01
   7135.67  7.6530333E-01
   7136.00  7.4142721E-01
   7136.33  7.1567550E-01
   7136.67  6.8908295E-01
   7137.00  6.6240949E-01
   7137.33  6.3661829E-01
   7137.67  6.1239880E-01
   7138.00  5.9033086E-01
   7138.33  5.7126887E-01
   7138.67  5.5518012E-01
   7139.00  5.4211092E-01
   7139.33  5.3221183E-01
   7139.67  5.2471477E-01
   7140.00  5.1918110E-01
   7140.33  5.1529939E-01
   7140.67  5.1248115E-01
   7141.00  5.1046286E-01
   7141.33  5.0907172E-01
   7141.67  5.0800916E-01
   7142.00  5.0705068E-01
   7142.33  5.0586555E-01
   7142.67  5.0415067E-01
   7143.00  5.0164477E-01
   7143.33  4.9800296E-01
   7143.67  4.9328412E-01
   7144.00  4.8757270E-01
   7144.33  4.8102426E-01
   7144.67  4.7409503E-01
   7145.00  4.6714360E-01
   7145.33  4.6064056E-01
   7145.67  4.5489003E-01
   7146.00  4.5011572E-01
   7146.33  4.4663010E-01
   7146.67  4.4436740E-01
   7147.00  4.4333189E-01
   7147.33  4.4363273E-01
   7147.67  4.4505254E-01
   7148.00  4.4750320E-01
   7148.33  4.5098655E-01
   7148.67  4.5528053E-01
   7149.00  4.6029675E-01
   7149.33  4.6601375E-01
   7149.67  4.7227503E-01
   7150.00  4.7903059E-01
   7150.33  4.8628443E-01
   7150.67  4.9392674E-01
   7151.00  5.0189972E-01
   7151.33  5.1014148E-01
   7151.67  5.1849250E-01
   7152.00  5.2680632E-01
   7152.33  5.3484566E-01
   7152.67  5.4241200E-01
   7153.00  5.4931208E-01
   7153.33  5.5524796E-01
   7153.67  5.6020001E-01
   7154.00  5.6412352E-01
   7154.33  5.6691725E-01
   7154.67  5.6880059E-01
   7155.00  5.6989274E-01
   7155.33  5.7027634E-01
   7155.67  5.7019432E-01
   7156.00  5.6977693E-01
   7156.33  5.6912799E-01
   7156.67  5.6837326E-01
   7157.00  5.6757543E-01
   7157.33  5.6678458E-01
   7157.67  5.6602631E-01
   7158.00  5.6530742E-01
   7158.33  5.6462436E-01
   7158.67  5.6395270E-01
   7159.00  5.6326762E-01
   7159.33  5.6252885E-01
   7159.67  5.6170568E-01
   7160.00  5.6077021E-01
   7160.33  5.5968315E-01
   7160.67  5.5843913E-01
   7161.00  5.5701886E-01
   7161.33  5.5538244E-01
   7161.67  5.5354615E-01
   7162.00  5.5150948E-01
   7162.33  5.4925383E-01
   7162.67  5.4681562E-01
   7163.00  5.4420965E-01
   7163.33  5.4143941E-01
   7163.67  5.3854912E-01
   7164.00  5.3556371E-01
   7164.33  5.3250699E-01
   7164.67  5.2942028E-01
   7165.00  5.2633256E-01
   7165.33  5.2328170E-01
   7165.67  5.2029597E-01
   7166.00  5.1740013E-01
   7166.33  5.1463231E-01
   7166.67  5.1199587E-01
   7167.00  5.0949920E-01
   7167.33  5.0716006E-01
   7167.67  5.0495210E-01
   7168.00  5.0286212E-01
   7168.33  5.0088485E-01
   7168.67  4.9899446E-01
   7169.00  4.9717783E-01
   7169.33  4.9542269E-01
   7169.67  4.9370850E-01
   7170.00  4.9202951E-01
   7170.33  4.9038987E-01
   7170.67  4.8879336E-01
   7171.00  4.8725589E-01
   7171.33  4.8582302E-01
   7171.67  4.8454430E-01
   7172.00  4.8349678E-01
