    FDMNES
    energy     <xanes>
   7097.00  5.4032996E-03
   7097.33  5.5455783E-03
   7097.67  5.6949883E-03
   7098.00  5.8520484E-03
   7098.33  6.0184693E-03
   7098.67  6.1939615E-03
   7099.00  6.3792413E-03
   7099.33  6.5765827E-03
   7099.67  6.7857005E-03
   7100.00  7.0076104E-03
   7100.33  7.2454155E-03
   7100.67  7.4988763E-03
   7101.00  7.7694782E-03
   7101.33  8.0615882E-03
   7101.67  8.3751028E-03
   7102.00  8.7122747E-03
   7102.33  9.0794792E-03
   7102.67  9.4769471E-03
   7103.00  9.9082460E-03
   7103.33  1.0383108E-02
   7103.67  1.0902542E-02
   7104.00  1.1472508E-02
   7104.33  1.2108702E-02
   7104.67  1.2813969E-02
   7105.00  1.3598950E-02
   7105.33  1.4490790E-02
   7105.67  1.5496880E-02
   7106.00  1.6637926E-02
   7106.33  1.7965394E-02
   7106.67  1.9498971E-02
   7107.00  2.1283909E-02
   7107.33  2.3430972E-02
   7107.67  2.5998098E-02
   7108.00  2.9102110E-02
   7108.33  3.3030355E-02
   7108.67  3.7989366E-02
   7109.00  4.4369754E-02
   7109.33  5.3179375E-02
   7109.67  6.5455051E-02
   7110.00  8.3198368E-02
   7110.33  1.1207337E-01
   7110.67  1.5862494E-01
   7111.00  2.2896653E-01
   7111.33  3.2163233E-01
   7111.67  4.2348777E-01
   7112.00  5.2035804E-01
   7112.33  5.9358020E-01
   7112.67  6.4789280E-01
   7113.00  6.7304123E-01
   7113.33  6.3534595E-01
   7113.67  5.4771633E-01
   7114.00  4.4198509E-01
   7114.33  3.4957080E-01
   7114.67  2.7895358E-01
   7115.00  2.2875640E-01
   7115.33  1.9618632E-01
   7115.67  1.7524385E-01
   7116.00  1.6355071E-01
   7116.33  1.5988233E-01
   7116.67  1.6093600E-01
   7117.00  1.6399223E-01
   7117.33  1.6603707E-01
   7117.67  1.6612957E-01
   7118.00  1.6445928E-01
   7118.33  1.6149049E-01
   7118.67  1.5867507E-01
   7119.00  1.5668794E-01
   7119.33  1.5516260E-01
   7119.67  1.5363716E-01
   7120.00  1.5243001E-01
   7120.33  1.5256368E-01
   7120.67  1.5458242E-01
   7121.00  1.5850737E-01
   7121.33  1.6409158E-01
   7121.67  1.7100033E-01
   7122.00  1.7963183E-01
   7122.33  1.9089350E-01
   7122.67  2.0457297E-01
   7123.00  2.1991610E-01
   7123.33  2.3482426E-01
   7123.67  2.4675179E-01
   7124.00  2.5457226E-01
   7124.33  2.5903748E-01
   7124.67  2.6327268E-01
   7125.00  2.6943069E-01
   7125.33  2.7887461E-01
   7125.67  2.9063648E-01
   7126.00  3.0392264E-01
   7126.33  3.1862214E-01
   7126.67  3.3443355E-01
   7127.00  3.5065411E-01
   7127.33  3.6585868E-01
   7127.67  3.7935090E-01
   7128.00  3.9122849E-01
   7128.33  4.0185730E-01
   7128.67  4.1228656E-01
   7129.00  4.2390936E-01
   7129.33  4.3888697E-01
   7129.67  4.5758763E-01
   7130.00  4.7920333E-01
   7130.33  5.0141808E-01
   7130.67  5.2140780E-01
   7131.00  5.3778098E-01
   7131.33  5.5046568E-01
   7131.67  5.6158992E-01
   7132.00  5.7269335E-01
   7132.33  5.8496841E-01
   7132.67  5.9813316E-01
   7133.00  6.1107634E-01
   7133.33  6.2179600E-01
   7133.67  6.2919847E-01
   7134.00  6.3270197E-01
   7134.33  6.3157679E-01
   7134.67  6.2675008E-01
   7135.00  6.1921260E-01
   7135.33  6.1002209E-01
   7135.67  5.9978867E-01
   7136.00  5.8813949E-01
   7136.33  5.7414726E-01
   7136.67  5.5782529E-01
   7137.00  5.3954347E-01
   7137.33  5.2016290E-01
   7137.67  5.0106442E-01
   7138.00  4.8334009E-01
   7138.33  4.6841461E-01
   7138.67  4.5678407E-01
   7139.00  4.4883374E-01
   7139.33  4.4514680E-01
   7139.67  4.4508673E-01
   7140.00  4.4837270E-01
   7140.33  4.5492824E-01
   7140.67  4.6385985E-01
   7141.00  4.7467649E-01
   7141.33  4.8700072E-01
   7141.67  5.0021536E-01
   7142.00  5.1402909E-01
   7142.33  5.2822731E-01
   7142.67  5.4255067E-01
   7143.00  5.5682588E-01
   7143.33  5.7085159E-01
   7143.67  5.8454121E-01
   7144.00  5.9785759E-01
   7144.33  6.1077726E-01
   7144.67  6.2340480E-01
   7145.00  6.3579717E-01
   7145.33  6.4797769E-01
   7145.67  6.5997689E-01
   7146.00  6.7176200E-01
   7146.33  6.8321660E-01
   7146.67  6.9426586E-01
   7147.00  7.0480592E-01
   7147.33  7.1465994E-01
   7147.67  7.2384323E-01
   7148.00  7.3232802E-01
   7148.33  7.4000649E-01
   7148.67  7.4694265E-01
   7149.00  7.5309353E-01
   7149.33  7.5828068E-01
   7149.67  7.6252826E-01
   7150.00  7.6576550E-01
   7150.33  7.6780684E-01
   7150.67  7.6877895E-01
   7151.00  7.6871428E-01
   7151.33  7.6756535E-01
   7151.67  7.6554781E-01
   7152.00  7.6274930E-01
   7152.33  7.5918509E-01
   7152.67  7.5503570E-01
   7153.00  7.5037976E-01
   7153.33  7.4525272E-01
   7153.67  7.3978850E-01
   7154.00  7.3404710E-01
   7154.33  7.2805414E-01
   7154.67  7.2187459E-01
   7155.00  7.1552551E-01
   7155.33  7.0898724E-01
   7155.67  7.0226653E-01
   7156.00  6.9534444E-01
   7156.33  6.8816838E-01
   7156.67  6.8074432E-01
   7157.00  6.7305816E-01
   7157.33  6.6506693E-01
   7157.67  6.5680375E-01
   7158.00  6.4827356E-01
   7158.33  6.3945499E-01
   7158.67  6.3039658E-01
   7159.00  6.2111797E-01
   7159.33  6.1162534E-01
   7159.67  6.0198006E-01
   7160.00  5.9222047E-01
   7160.33  5.8239030E-01
   7160.67  5.7255541E-01
   7161.00  5.6276881E-01
   7161.33  5.5310936E-01
   7161.67  5.4362875E-01
   7162.00  5.3438075E-01
   7162.33  5.2545612E-01
   7162.67  5.1686106E-01
   7163.00  5.0861830E-01
   7163.33  5.0077888E-01
   7163.67  4.9328139E-01
   7164.00  4.8609501E-01
   7164.33  4.7920009E-01
   7164.67  4.7250197E-01
   7165.00  4.6594636E-01
   7165.33  4.5948862E-01
   7165.67  4.5307897E-01
   7166.00  4.4670107E-01
   7166.33  4.4036209E-01
   7166.67  4.3409071E-01
   7167.00  4.2793209E-01
   7167.33  4.2196716E-01
   7167.67  4.1623488E-01
   7168.00  4.1078028E-01
   7168.33  4.0568051E-01
   7168.67  4.0091618E-01
   7169.00  3.9648996E-01
   7169.33  3.9242992E-01
   7169.67  3.8867132E-01
   7170.00  3.8518965E-01
   7170.33  3.8198830E-01
   7170.67  3.7901498E-01
   7171.00  3.7626307E-01
   7171.33  3.7377899E-01
   7171.67  3.7159363E-01
   7172.00  3.6979974E-01
