    FDMNES
    energy     <xanes>
   7097.00  5.1525462E-03
   7097.33  5.2749466E-03
   7097.67  5.4030352E-03
   7098.00  5.5372090E-03
   7098.33  5.6788049E-03
   7098.67  5.8275709E-03
   7099.00  5.9840528E-03
   7099.33  6.1500144E-03
   7099.67  6.3252042E-03
   7100.00  6.5103937E-03
   7100.33  6.7079743E-03
   7100.67  6.9177270E-03
   7101.00  7.1407785E-03
   7101.33  7.3804778E-03
   7101.67  7.6367097E-03
   7102.00  7.9111842E-03
   7102.33  8.2087788E-03
   7102.67  8.5296397E-03
   7103.00  8.8764867E-03
   7103.33  9.2567732E-03
   7103.67  9.6712686E-03
   7104.00  1.0124558E-02
   7104.33  1.0628736E-02
   7104.67  1.1186078E-02
   7105.00  1.1804900E-02
   7105.33  1.2506418E-02
   7105.67  1.3296754E-02
   7106.00  1.4192526E-02
   7106.33  1.5235020E-02
   7106.67  1.6441251E-02
   7107.00  1.7849147E-02
   7107.33  1.9551750E-02
   7107.67  2.1602353E-02
   7108.00  2.4106129E-02
   7108.33  2.7324706E-02
   7108.67  3.1468021E-02
   7109.00  3.6932658E-02
   7109.33  4.4774791E-02
   7109.67  5.6228345E-02
   7110.00  7.3728978E-02
   7110.33  1.0429492E-01
   7110.67  1.5461930E-01
   7111.00  2.2079572E-01
   7111.33  2.6253122E-01
   7111.67  2.8042645E-01
   7112.00  3.1326824E-01
   7112.33  3.8104361E-01
   7112.67  4.3991828E-01
   7113.00  4.1842005E-01
   7113.33  3.2294522E-01
   7113.67  2.4389899E-01
   7114.00  1.9998738E-01
   7114.33  1.8973480E-01
   7114.67  2.0406617E-01
   7115.00  2.3832391E-01
   7115.33  2.7809140E-01
   7115.67  3.0042843E-01
   7116.00  2.9581382E-01
   7116.33  2.6826515E-01
   7116.67  2.3567684E-01
   7117.00  2.0694879E-01
   7117.33  1.8550983E-01
   7117.67  1.6915968E-01
   7118.00  1.5643174E-01
   7118.33  1.4703564E-01
   7118.67  1.4018111E-01
   7119.00  1.3507557E-01
   7119.33  1.3084468E-01
   7119.67  1.2682455E-01
   7120.00  1.2292346E-01
   7120.33  1.1941085E-01
   7120.67  1.1663264E-01
   7121.00  1.1495739E-01
   7121.33  1.1500282E-01
   7121.67  1.1687155E-01
   7122.00  1.2058354E-01
   7122.33  1.2617213E-01
   7122.67  1.3329669E-01
   7123.00  1.4204112E-01
   7123.33  1.5298599E-01
   7123.67  1.6638897E-01
   7124.00  1.8276340E-01
   7124.33  2.0316960E-01
   7124.67  2.2754247E-01
   7125.00  2.5576339E-01
   7125.33  2.8732628E-01
   7125.67  3.2013325E-01
   7126.00  3.5205628E-01
   7126.33  3.7962357E-01
   7126.67  4.0070017E-01
   7127.00  4.1451003E-01
   7127.33  4.2196824E-01
   7127.67  4.2734591E-01
   7128.00  4.3400748E-01
   7128.33  4.4562541E-01
   7128.67  4.6354056E-01
   7129.00  4.8852176E-01
   7129.33  5.2157866E-01
   7129.67  5.6130824E-01
   7130.00  6.0689961E-01
   7130.33  6.5748057E-01
   7130.67  7.1037745E-01
   7131.00  7.6315886E-01
   7131.33  8.1193559E-01
   7131.67  8.5335495E-01
   7132.00  8.8446232E-01
   7132.33  9.0191004E-01
   7132.67  9.0826865E-01
   7133.00  9.0678640E-01
   7133.33  9.0232037E-01
   7133.67  8.9962621E-01
   7134.00  9.0013963E-01
   7134.33  9.0238795E-01
   7134.67  9.0251317E-01
   7135.00  8.9740242E-01
   7135.33  8.8352007E-01
   7135.67  8.6091491E-01
   7136.00  8.3030011E-01
   7136.33  7.9326919E-01
   7136.67  7.5361052E-01
   7137.00  7.1388419E-01
   7137.33  6.7676284E-01
   7137.67  6.4354621E-01
   7138.00  6.1500116E-01
   7138.33  5.9206097E-01
   7138.67  5.7392737E-01
   7139.00  5.6018796E-01
   7139.33  5.5067551E-01
   7139.67  5.4424586E-01
   7140.00  5.4036858E-01
   7140.33  5.3877382E-01
   7140.67  5.3877686E-01
   7141.00  5.4005615E-01
   7141.33  5.4237053E-01
   7141.67  5.4523468E-01
   7142.00  5.4830179E-01
   7142.33  5.5110038E-01
   7142.67  5.5319791E-01
   7143.00  5.5421326E-01
   7143.33  5.5359290E-01
   7143.67  5.5128409E-01
   7144.00  5.4723309E-01
   7144.33  5.4136679E-01
   7144.67  5.3420764E-01
   7145.00  5.2615034E-01
   7145.33  5.1768586E-01
   7145.67  5.0940333E-01
   7146.00  5.0172613E-01
   7146.33  4.9519202E-01
   7146.67  4.8992975E-01
   7147.00  4.8598807E-01
   7147.33  4.8344177E-01
   7147.67  4.8197977E-01
   7148.00  4.8143550E-01
   7148.33  4.8170322E-01
   7148.67  4.8253135E-01
   7149.00  4.8382100E-01
   7149.33  4.8555553E-01
   7149.67  4.8766562E-01
   7150.00  4.9015904E-01
   7150.33  4.9310225E-01
   7150.67  4.9645478E-01
   7151.00  5.0021652E-01
   7151.33  5.0441783E-01
   7151.67  5.0896719E-01
   7152.00  5.1380901E-01
   7152.33  5.1888688E-01
   7152.67  5.2407952E-01
   7153.00  5.2930069E-01
   7153.33  5.3444174E-01
   7153.67  5.3941813E-01
   7154.00  5.4415799E-01
   7154.33  5.4855140E-01
   7154.67  5.5258173E-01
   7155.00  5.5621822E-01
   7155.33  5.5939462E-01
   7155.67  5.6216716E-01
   7156.00  5.6455366E-01
   7156.33  5.6654285E-01
   7156.67  5.6821982E-01
   7157.00  5.6962178E-01
   7157.33  5.7076084E-01
   7157.67  5.7170158E-01
   7158.00  5.7246721E-01
   7158.33  5.7305542E-01
   7158.67  5.7349225E-01
   7159.00  5.7377493E-01
   7159.33  5.7387192E-01
   7159.67  5.7378712E-01
   7160.00  5.7350516E-01
   7160.33  5.7298533E-01
   7160.67  5.7223890E-01
   7161.00  5.7125196E-01
   7161.33  5.6998106E-01
   7161.67  5.6844693E-01
   7162.00  5.6663444E-01
   7162.33  5.6449544E-01
   7162.67  5.6207165E-01
   7163.00  5.5937556E-01
   7163.33  5.5639457E-01
   7163.67  5.5318424E-01
   7164.00  5.4976916E-01
   7164.33  5.4615984E-01
   7164.67  5.4241158E-01
   7165.00  5.3855437E-01
   7165.33  5.3461396E-01
   7165.67  5.3063291E-01
   7166.00  5.2663801E-01
   7166.33  5.2265837E-01
   7166.67  5.1871357E-01
   7167.00  5.1481681E-01
   7167.33  5.1098512E-01
   7167.67  5.0721730E-01
   7168.00  5.0351974E-01
   7168.33  4.9990770E-01
   7168.67  4.9637171E-01
   7169.00  4.9291191E-01
   7169.33  4.8954023E-01
   7169.67  4.8625234E-01
   7170.00  4.8305637E-01
   7170.33  4.7997997E-01
   7170.67  4.7703136E-01
   7171.00  4.7423792E-01
   7171.33  4.7167828E-01
   7171.67  4.6942098E-01
   7172.00  4.6758688E-01
