    FDMNES
    energy     <xanes>
   7097.00  4.0839775E-03
   7097.33  4.1646260E-03
   7097.67  4.2483482E-03
   7098.00  4.3353317E-03
   7098.33  4.4262547E-03
   7098.67  4.5209469E-03
   7099.00  4.6196617E-03
   7099.33  4.7232716E-03
   7099.67  4.8316017E-03
   7100.00  4.9450058E-03
   7100.33  5.0646394E-03
   7100.67  5.1903376E-03
   7101.00  5.3226122E-03
   7101.33  5.4630499E-03
   7101.67  5.6115287E-03
   7102.00  5.7688220E-03
   7102.33  5.9372063E-03
   7102.67  6.1166775E-03
   7103.00  6.3084682E-03
   7103.33  6.5160271E-03
   7103.67  6.7396446E-03
   7104.00  6.9814157E-03
   7104.33  7.2469367E-03
   7104.67  7.5372302E-03
   7105.00  7.8561610E-03
   7105.33  8.2136423E-03
   7105.67  8.6126223E-03
   7106.00  9.0610226E-03
   7106.33  9.5785591E-03
   7106.67  1.0173795E-02
   7107.00  1.0865451E-02
   7107.33  1.1699516E-02
   7107.67  1.2703884E-02
   7108.00  1.3932799E-02
   7108.33  1.5521794E-02
   7108.67  1.7585310E-02
   7109.00  2.0338564E-02
   7109.33  2.4359731E-02
   7109.67  3.0349287E-02
   7110.00  3.9692182E-02
   7110.33  5.6375180E-02
   7110.67  8.3964451E-02
   7111.00  1.1942501E-01
   7111.33  1.4320599E-01
   7111.67  1.5391251E-01
   7112.00  1.5647232E-01
   7112.33  1.4911871E-01
   7112.67  1.3129463E-01
   7113.00  1.0965045E-01
   7113.33  9.4977949E-02
   7113.67  8.6449131E-02
   7114.00  7.8533557E-02
   7114.33  6.8738533E-02
   7114.67  5.8138791E-02
   7115.00  4.8866455E-02
   7115.33  4.3327074E-02
   7115.67  4.0435895E-02
   7116.00  3.9301700E-02
   7116.33  3.9314111E-02
   7116.67  3.9941933E-02
   7117.00  4.1095455E-02
   7117.33  4.2888036E-02
   7117.67  4.5323654E-02
   7118.00  4.8492461E-02
   7118.33  5.2598949E-02
   7118.67  5.7502236E-02
   7119.00  6.2949668E-02
   7119.33  6.8362500E-02
   7119.67  7.3100953E-02
   7120.00  7.6905782E-02
   7120.33  8.0000653E-02
   7120.67  8.3201086E-02
   7121.00  8.7164807E-02
   7121.33  9.2682883E-02
   7121.67  1.0010357E-01
   7122.00  1.0992426E-01
   7122.33  1.2331467E-01
   7122.67  1.4086865E-01
   7123.00  1.6344350E-01
   7123.33  1.9216246E-01
   7123.67  2.2524597E-01
   7124.00  2.6018322E-01
   7124.33  2.9354711E-01
   7124.67  3.2434223E-01
   7125.00  3.5294491E-01
   7125.33  3.7889989E-01
   7125.67  4.0306709E-01
   7126.00  4.2777950E-01
   7126.33  4.5453444E-01
   7126.67  4.7964006E-01
   7127.00  4.9937608E-01
   7127.33  5.1591829E-01
   7127.67  5.3755733E-01
   7128.00  5.6871817E-01
   7128.33  6.1188744E-01
   7128.67  6.6517361E-01
   7129.00  7.2729945E-01
   7129.33  7.9554597E-01
   7129.67  8.6305720E-01
   7130.00  9.2287794E-01
   7130.33  9.6563378E-01
   7130.67  9.8988012E-01
   7131.00  9.9741940E-01
   7131.33  9.9258184E-01
   7131.67  9.8259362E-01
   7132.00  9.7059053E-01
   7132.33  9.5778298E-01
   7132.67  9.4410648E-01
   7133.00  9.2906349E-01
   7133.33  9.1200290E-01
   7133.67  8.9347540E-01
   7134.00  8.7437604E-01
   7134.33  8.5550369E-01
   7134.67  8.3664766E-01
   7135.00  8.1728248E-01
   7135.33  7.9708400E-01
   7135.67  7.7643480E-01
   7136.00  7.5568107E-01
   7136.33  7.3512041E-01
   7136.67  7.1492163E-01
   7137.00  6.9524426E-01
   7137.33  6.7636285E-01
   7137.67  6.5835531E-01
   7138.00  6.4134412E-01
   7138.33  6.2559727E-01
   7138.67  6.1109782E-01
   7139.00  5.9795136E-01
   7139.33  5.8645254E-01
   7139.67  5.7649850E-01
   7140.00  5.6811456E-01
   7140.33  5.6146118E-01
   7140.67  5.5626929E-01
   7141.00  5.5245780E-01
   7141.33  5.5009083E-01
   7141.67  5.4891994E-01
   7142.00  5.4887778E-01
   7142.33  5.5001843E-01
   7142.67  5.5212169E-01
   7143.00  5.5509595E-01
   7143.33  5.5890727E-01
   7143.67  5.6330380E-01
   7144.00  5.6812534E-01
   7144.33  5.7319661E-01
   7144.67  5.7827825E-01
   7145.00  5.8318913E-01
   7145.33  5.8768010E-01
   7145.67  5.9160295E-01
   7146.00  5.9480074E-01
   7146.33  5.9702646E-01
   7146.67  5.9829746E-01
   7147.00  5.9856923E-01
   7147.33  5.9770462E-01
   7147.67  5.9585517E-01
   7148.00  5.9305939E-01
   7148.33  5.8926259E-01
   7148.67  5.8463966E-01
   7149.00  5.7924550E-01
   7149.33  5.7304869E-01
   7149.67  5.6618596E-01
   7150.00  5.5868962E-01
   7150.33  5.5051617E-01
   7150.67  5.4177090E-01
   7151.00  5.3247983E-01
   7151.33  5.2260991E-01
   7151.67  5.1225949E-01
   7152.00  5.0146104E-01
   7152.33  4.9020431E-01
   7152.67  4.7858483E-01
   7153.00  4.6664917E-01
   7153.33  4.5442904E-01
   7153.67  4.4202660E-01
   7154.00  4.2951242E-01
   7154.33  4.1697942E-01
   7154.67  4.0453806E-01
   7155.00  3.9229102E-01
   7155.33  3.8040862E-01
   7155.67  3.6898799E-01
   7156.00  3.5814737E-01
   7156.33  3.4810734E-01
   7156.67  3.3890090E-01
   7157.00  3.3062228E-01
   7157.33  3.2349187E-01
   7157.67  3.1745281E-01
   7158.00  3.1254464E-01
   7158.33  3.0892753E-01
   7158.67  3.0644075E-01
   7159.00  3.0504255E-01
   7159.33  3.0478341E-01
   7159.67  3.0543902E-01
   7160.00  3.0691563E-01
   7160.33  3.0918739E-01
   7160.67  3.1204993E-01
   7161.00  3.1540851E-01
   7161.33  3.1921510E-01
   7161.67  3.2333182E-01
   7162.00  3.2768549E-01
   7162.33  3.3221084E-01
   7162.67  3.3680717E-01
   7163.00  3.4140402E-01
   7163.33  3.4591950E-01
   7163.67  3.5029647E-01
   7164.00  3.5448134E-01
   7164.33  3.5839001E-01
   7164.67  3.6201134E-01
   7165.00  3.6531915E-01
   7165.33  3.6825253E-01
   7165.67  3.7084544E-01
   7166.00  3.7310054E-01
   7166.33  3.7499028E-01
   7166.67  3.7657729E-01
   7167.00  3.7788794E-01
   7167.33  3.7893363E-01
   7167.67  3.7979375E-01
   7168.00  3.8051631E-01
   7168.33  3.8115149E-01
   7168.67  3.8177097E-01
   7169.00  3.8242775E-01
   7169.33  3.8319298E-01
   7169.67  3.8410749E-01
   7170.00  3.8520877E-01
   7170.33  3.8655396E-01
   7170.67  3.8812490E-01
   7171.00  3.8990397E-01
   7171.33  3.9183868E-01
   7171.67  3.9375180E-01
   7172.00  3.9541472E-01
