    FDMNES
    energy     <xanes>
   7097.00  4.7379903E-03
   7097.33  4.8464838E-03
   7097.67  4.9597966E-03
   7098.00  5.0782529E-03
   7098.33  5.2029646E-03
   7098.67  5.3337016E-03
   7099.00  5.4709054E-03
   7099.33  5.6160292E-03
   7099.67  5.7688378E-03
   7100.00  5.9299494E-03
   7100.33  6.1013136E-03
   7100.67  6.2827127E-03
   7101.00  6.4750398E-03
   7101.33  6.6809930E-03
   7101.67  6.9004222E-03
   7102.00  7.1346664E-03
   7102.33  7.3876021E-03
   7102.67  7.6592579E-03
   7103.00  7.9517328E-03
   7103.33  8.2708564E-03
   7103.67  8.6170888E-03
   7104.00  8.9939058E-03
   7104.33  9.4105875E-03
   7104.67  9.8686301E-03
   7105.00  1.0374201E-02
   7105.33  1.0943190E-02
   7105.67  1.1579695E-02
   7106.00  1.2295694E-02
   7106.33  1.3121149E-02
   7106.67  1.4067320E-02
   7107.00  1.5160506E-02
   7107.33  1.6465371E-02
   7107.67  1.8015995E-02
   7108.00  1.9881406E-02
   7108.33  2.2232343E-02
   7108.67  2.5195094E-02
   7109.00  2.9009430E-02
   7109.33  3.4301608E-02
   7109.67  4.1746201E-02
   7110.00  5.2659166E-02
   7110.33  7.0808797E-02
   7110.67  1.0042151E-01
   7111.00  1.4402211E-01
   7111.33  1.9410692E-01
   7111.67  2.3532377E-01
   7112.00  2.5625395E-01
   7112.33  2.7225080E-01
   7112.67  2.9766925E-01
   7113.00  3.2610818E-01
   7113.33  3.6115359E-01
   7113.67  3.8037742E-01
   7114.00  3.5119076E-01
   7114.33  2.8802376E-01
   7114.67  2.2396321E-01
   7115.00  1.7523991E-01
   7115.33  1.5369386E-01
   7115.67  1.5107656E-01
   7116.00  1.5529108E-01
   7116.33  1.5724519E-01
   7116.67  1.6436305E-01
   7117.00  1.7453845E-01
   7117.33  1.7274520E-01
   7117.67  1.5776661E-01
   7118.00  1.3850074E-01
   7118.33  1.2231643E-01
   7118.67  1.1046837E-01
   7119.00  1.0250546E-01
   7119.33  9.7053434E-02
   7119.67  9.2437190E-02
   7120.00  8.8411534E-02
   7120.33  8.5789226E-02
   7120.67  8.5111433E-02
   7121.00  8.6620585E-02
   7121.33  9.0651202E-02
   7121.67  9.6924517E-02
   7122.00  1.0544462E-01
   7122.33  1.1657555E-01
   7122.67  1.3034692E-01
   7123.00  1.4726072E-01
   7123.33  1.6831864E-01
   7123.67  1.9328105E-01
   7124.00  2.2203375E-01
   7124.33  2.5428949E-01
   7124.67  2.8789021E-01
   7125.00  3.1981146E-01
   7125.33  3.4459913E-01
   7125.67  3.6076503E-01
   7126.00  3.7018733E-01
   7126.33  3.7671738E-01
   7126.67  3.8337896E-01
   7127.00  3.9021509E-01
   7127.33  3.9512747E-01
   7127.67  3.9654249E-01
   7128.00  3.9487594E-01
   7128.33  3.9291102E-01
   7128.67  3.9376307E-01
   7129.00  3.9908715E-01
   7129.33  4.1050601E-01
   7129.67  4.2775858E-01
   7130.00  4.5089784E-01
   7130.33  4.8029995E-01
   7130.67  5.1466392E-01
   7131.00  5.5343449E-01
   7131.33  5.9666199E-01
   7131.67  6.4367207E-01
   7132.00  6.9433339E-01
   7132.33  7.4849156E-01
   7132.67  8.0434760E-01
   7133.00  8.5978820E-01
   7133.33  9.1090187E-01
   7133.67  9.5421753E-01
   7134.00  9.8672364E-01
   7134.33  1.0051934E+00
   7134.67  1.0127338E+00
   7135.00  1.0129026E+00
   7135.33  1.0096085E+00
   7135.67  1.0056344E+00
   7136.00  1.0013160E+00
   7136.33  9.9563672E-01
   7136.67  9.8743975E-01
   7137.00  9.7583855E-01
   7137.33  9.5999199E-01
   7137.67  9.4077012E-01
   7138.00  9.1898342E-01
   7138.33  8.9566772E-01
   7138.67  8.7220269E-01
   7139.00  8.4947017E-01
   7139.33  8.2838954E-01
   7139.67  8.0915220E-01
   7140.00  7.9181455E-01
   7140.33  7.7641310E-01
   7140.67  7.6234736E-01
   7141.00  7.4917236E-01
   7141.33  7.3635432E-01
   7141.67  7.2331625E-01
   7142.00  7.0969553E-01
   7142.33  6.9513103E-01
   7142.67  6.7966287E-01
   7143.00  6.6336943E-01
   7143.33  6.4637058E-01
   7143.67  6.2900349E-01
   7144.00  6.1150299E-01
   7144.33  5.9414433E-01
   7144.67  5.7714203E-01
   7145.00  5.6066786E-01
   7145.33  5.4498849E-01
   7145.67  5.3018880E-01
   7146.00  5.1640121E-01
   7146.33  5.0387440E-01
   7146.67  4.9253121E-01
   7147.00  4.8240094E-01
   7147.33  4.7363642E-01
   7147.67  4.6604227E-01
   7148.00  4.5954078E-01
   7148.33  4.5411114E-01
   7148.67  4.4947012E-01
   7149.00  4.4547412E-01
   7149.33  4.4202801E-01
   7149.67  4.3895034E-01
   7150.00  4.3617193E-01
   7150.33  4.3367784E-01
   7150.67  4.3140198E-01
   7151.00  4.2929779E-01
   7151.33  4.2730128E-01
   7151.67  4.2530280E-01
   7152.00  4.2320578E-01
   7152.33  4.2086982E-01
   7152.67  4.1822862E-01
   7153.00  4.1523671E-01
   7153.33  4.1184944E-01
   7153.67  4.0816774E-01
   7154.00  4.0428112E-01
   7154.33  4.0031686E-01
   7154.67  3.9642430E-01
   7155.00  3.9271472E-01
   7155.33  3.8933720E-01
   7155.67  3.8634094E-01
   7156.00  3.8377785E-01
   7156.33  3.8174412E-01
   7156.67  3.8019752E-01
   7157.00  3.7913828E-01
   7157.33  3.7861104E-01
   7157.67  3.7852701E-01
   7158.00  3.7884886E-01
   7158.33  3.7956221E-01
   7158.67  3.8054992E-01
   7159.00  3.8173647E-01
   7159.33  3.8303389E-01
   7159.67  3.8432113E-01
   7160.00  3.8550386E-01
   7160.33  3.8645439E-01
   7160.67  3.8711516E-01
   7161.00  3.8743538E-01
   7161.33  3.8735094E-01
   7161.67  3.8694663E-01
   7162.00  3.8629464E-01
   7162.33  3.8549209E-01
   7162.67  3.8468993E-01
   7163.00  3.8400209E-01
   7163.33  3.8356602E-01
   7163.67  3.8342336E-01
   7164.00  3.8359802E-01
   7164.33  3.8410999E-01
   7164.67  3.8486337E-01
   7165.00  3.8579352E-01
   7165.33  3.8683050E-01
   7165.67  3.8788416E-01
   7166.00  3.8889963E-01
   7166.33  3.8982494E-01
   7166.67  3.9065462E-01
   7167.00  3.9139542E-01
   7167.33  3.9206706E-01
   7167.67  3.9271919E-01
   7168.00  3.9339318E-01
   7168.33  3.9414599E-01
   7168.67  3.9501210E-01
   7169.00  3.9602169E-01
   7169.33  3.9722083E-01
   7169.67  3.9860153E-01
   7170.00  4.0016527E-01
   7170.33  4.0192367E-01
   7170.67  4.0382958E-01
   7171.00  4.0584320E-01
   7171.33  4.0788687E-01
   7171.67  4.0981227E-01
   7172.00  4.1143141E-01
