    FDMNES
    energy     <xanes>
   7097.00  4.7476719E-03
   7097.33  4.8643746E-03
   7097.67  4.9866520E-03
   7098.00  5.1148975E-03
   7098.33  5.2504284E-03
   7098.67  5.3930024E-03
   7099.00  5.5431595E-03
   7099.33  5.7026383E-03
   7099.67  5.8711950E-03
   7100.00  6.0495909E-03
   7100.33  6.2401804E-03
   7100.67  6.4427474E-03
   7101.00  6.6583976E-03
   7101.33  6.8904182E-03
   7101.67  7.1386840E-03
   7102.00  7.4048601E-03
   7102.33  7.6937057E-03
   7102.67  8.0053258E-03
   7103.00  8.3423383E-03
   7103.33  8.7119444E-03
   7103.67  9.1147932E-03
   7104.00  9.5552242E-03
   7104.33  1.0044747E-02
   7104.67  1.0585300E-02
   7105.00  1.1184571E-02
   7105.33  1.1862288E-02
   7105.67  1.2623588E-02
   7106.00  1.3483330E-02
   7106.33  1.4478599E-02
   7106.67  1.5623221E-02
   7107.00  1.6949511E-02
   7107.33  1.8536797E-02
   7107.67  2.0426140E-02
   7108.00  2.2700994E-02
   7108.33  2.5567256E-02
   7108.67  2.9173649E-02
   7109.00  3.3802885E-02
   7109.33  4.0189346E-02
   7109.67  4.9104992E-02
   7110.00  6.2050775E-02
   7110.33  8.3287316E-02
   7110.67  1.1745541E-01
   7111.00  1.6728064E-01
   7111.33  2.2657502E-01
   7111.67  2.8602503E-01
   7112.00  3.3932000E-01
   7112.33  3.7360943E-01
   7112.67  3.9593032E-01
   7113.00  4.2848424E-01
   7113.33  4.8219096E-01
   7113.67  5.2569491E-01
   7114.00  5.1147115E-01
   7114.33  4.1423555E-01
   7114.67  3.0718720E-01
   7115.00  2.2951915E-01
   7115.33  1.8733250E-01
   7115.67  1.6675380E-01
   7116.00  1.5889861E-01
   7116.33  1.5451223E-01
   7116.67  1.5038445E-01
   7117.00  1.4595601E-01
   7117.33  1.4137738E-01
   7117.67  1.3741931E-01
   7118.00  1.3314156E-01
   7118.33  1.2681239E-01
   7118.67  1.1949821E-01
   7119.00  1.1331158E-01
   7119.33  1.1003970E-01
   7119.67  1.0928294E-01
   7120.00  1.1039777E-01
   7120.33  1.1334793E-01
   7120.67  1.1743284E-01
   7121.00  1.2141731E-01
   7121.33  1.2421391E-01
   7121.67  1.2601399E-01
   7122.00  1.2720945E-01
   7122.33  1.2822229E-01
   7122.67  1.2931977E-01
   7123.00  1.3088918E-01
   7123.33  1.3378660E-01
   7123.67  1.3835909E-01
   7124.00  1.4487890E-01
   7124.33  1.5436296E-01
   7124.67  1.6744474E-01
   7125.00  1.8472394E-01
   7125.33  2.0713214E-01
   7125.67  2.3403185E-01
   7126.00  2.6510089E-01
   7126.33  3.0074097E-01
   7126.67  3.3956518E-01
   7127.00  3.7822550E-01
   7127.33  4.0887414E-01
   7127.67  4.2864153E-01
   7128.00  4.4082104E-01
   7128.33  4.5161453E-01
   7128.67  4.6414410E-01
   7129.00  4.7776266E-01
   7129.33  4.8951367E-01
   7129.67  4.9669845E-01
   7130.00  4.9848081E-01
   7130.33  4.9595527E-01
   7130.67  4.9227397E-01
   7131.00  4.8919070E-01
   7131.33  4.8802792E-01
   7131.67  4.8924654E-01
   7132.00  4.9322040E-01
   7132.33  5.0009508E-01
   7132.67  5.0840709E-01
   7133.00  5.1654726E-01
   7133.33  5.2238383E-01
   7133.67  5.2530902E-01
   7134.00  5.2582052E-01
   7134.33  5.2534339E-01
   7134.67  5.2528476E-01
   7135.00  5.2569471E-01
   7135.33  5.2537762E-01
   7135.67  5.2321539E-01
   7136.00  5.1889159E-01
   7136.33  5.1261348E-01
   7136.67  5.0540055E-01
   7137.00  4.9783752E-01
   7137.33  4.9011743E-01
   7137.67  4.8207473E-01
   7138.00  4.7356738E-01
   7138.33  4.6463749E-01
   7138.67  4.5566535E-01
   7139.00  4.4710405E-01
   7139.33  4.3989274E-01
   7139.67  4.3492214E-01
   7140.00  4.3306592E-01
   7140.33  4.3541397E-01
   7140.67  4.4154749E-01
   7141.00  4.5119538E-01
   7141.33  4.6435182E-01
   7141.67  4.8022556E-01
   7142.00  4.9834954E-01
   7142.33  5.1805095E-01
   7142.67  5.3806081E-01
   7143.00  5.5751367E-01
   7143.33  5.7564511E-01
   7143.67  5.9240262E-01
   7144.00  6.0775935E-01
   7144.33  6.2145175E-01
   7144.67  6.3353288E-01
   7145.00  6.4396215E-01
   7145.33  6.5274414E-01
   7145.67  6.6054754E-01
   7146.00  6.6793906E-01
   7146.33  6.7553396E-01
   7146.67  6.8356070E-01
   7147.00  6.9184568E-01
   7147.33  6.9976947E-01
   7147.67  7.0665371E-01
   7148.00  7.1200935E-01
   7148.33  7.1537150E-01
   7148.67  7.1707771E-01
   7149.00  7.1744162E-01
   7149.33  7.1686700E-01
   7149.67  7.1600558E-01
   7150.00  7.1527831E-01
   7150.33  7.1511233E-01
   7150.67  7.1562499E-01
   7151.00  7.1680626E-01
   7151.33  7.1853304E-01
   7151.67  7.2043739E-01
   7152.00  7.2222538E-01
   7152.33  7.2355375E-01
   7152.67  7.2429877E-01
   7153.00  7.2442893E-01
   7153.33  7.2397424E-01
   7153.67  7.2319609E-01
   7154.00  7.2229736E-01
   7154.33  7.2150674E-01
   7154.67  7.2095666E-01
   7155.00  7.2069074E-01
   7155.33  7.2069751E-01
   7155.67  7.2082956E-01
   7156.00  7.2095758E-01
   7156.33  7.2092544E-01
   7156.67  7.2066589E-01
   7157.00  7.2015439E-01
   7157.33  7.1933576E-01
   7157.67  7.1818351E-01
   7158.00  7.1657622E-01
   7158.33  7.1418336E-01
   7158.67  7.1075533E-01
   7159.00  7.0597358E-01
   7159.33  6.9930109E-01
   7159.67  6.9074365E-01
   7160.00  6.8026520E-01
   7160.33  6.6777580E-01
   7160.67  6.5379411E-01
   7161.00  6.3865911E-01
   7161.33  6.2272053E-01
   7161.67  6.0650071E-01
   7162.00  5.9033061E-01
   7162.33  5.7456309E-01
   7162.67  5.5936370E-01
   7163.00  5.4483285E-01
   7163.33  5.3109079E-01
   7163.67  5.1801353E-01
   7164.00  5.0553712E-01
   7164.33  4.9364140E-01
   7164.67  4.8219449E-01
   7165.00  4.7116832E-01
   7165.33  4.6062273E-01
   7165.67  4.5054548E-01
   7166.00  4.4099046E-01
   7166.33  4.3209871E-01
   7166.67  4.2385137E-01
   7167.00  4.1627727E-01
   7167.33  4.0947039E-01
   7167.67  4.0332768E-01
   7168.00  3.9781680E-01
   7168.33  3.9296296E-01
   7168.67  3.8864406E-01
   7169.00  3.8482163E-01
   7169.33  3.8151483E-01
   7169.67  3.7863662E-01
   7170.00  3.7616689E-01
   7170.33  3.7413274E-01
   7170.67  3.7246222E-01
   7171.00  3.7113013E-01
   7171.33  3.7013388E-01
   7171.67  3.6937819E-01
   7172.00  3.6879532E-01
