    FDMNES
    energy     <xanes>
   7097.00  4.4453600E-03
   7097.33  4.5465290E-03
   7097.67  4.6523184E-03
   7098.00  4.7630572E-03
   7098.33  4.8798435E-03
   7098.67  5.0024838E-03
   7099.00  5.1314363E-03
   7099.33  5.2681640E-03
   7099.67  5.4124830E-03
   7100.00  5.5650510E-03
   7100.33  5.7278778E-03
   7100.67  5.9008227E-03
   7101.00  6.0848642E-03
   7101.33  6.2828642E-03
   7101.67  6.4947998E-03
   7102.00  6.7221888E-03
   7102.33  6.9692865E-03
   7102.67  7.2363530E-03
   7103.00  7.5258644E-03
   7103.33  7.8444885E-03
   7103.67  8.1931520E-03
   7104.00  8.5761501E-03
   7104.33  9.0046340E-03
   7104.67  9.4811418E-03
   7105.00  1.0013723E-02
   7105.33  1.0622635E-02
   7105.67  1.1314579E-02
   7106.00  1.2106230E-02
   7106.33  1.3038615E-02
   7106.67  1.4130411E-02
   7107.00  1.5421181E-02
   7107.33  1.7007469E-02
   7107.67  1.8948587E-02
   7108.00  2.1358530E-02
   7108.33  2.4520683E-02
   7108.67  2.8672304E-02
   7109.00  3.4256839E-02
   7109.33  4.2456179E-02
   7109.67  5.4672630E-02
   7110.00  7.3664483E-02
   7110.33  1.0743286E-01
   7110.67  1.6439317E-01
   7111.00  2.4438426E-01
   7111.33  3.0992746E-01
   7111.67  3.3895411E-01
   7112.00  3.5635109E-01
   7112.33  3.5083255E-01
   7112.67  2.9361656E-01
   7113.00  2.2124567E-01
   7113.33  1.6866617E-01
   7113.67  1.3094033E-01
   7114.00  1.0475063E-01
   7114.33  8.9240994E-02
   7114.67  7.9803200E-02
   7115.00  7.2373087E-02
   7115.33  6.4345695E-02
   7115.67  5.7595923E-02
   7116.00  5.3173093E-02
   7116.33  4.9892602E-02
   7116.67  4.6212208E-02
   7117.00  4.2542041E-02
   7117.33  3.9977567E-02
   7117.67  3.8634013E-02
   7118.00  3.8410533E-02
   7118.33  3.9343890E-02
   7118.67  4.1305946E-02
   7119.00  4.4282287E-02
   7119.33  4.8130907E-02
   7119.67  5.2519495E-02
   7120.00  5.7937714E-02
   7120.33  6.6086867E-02
   7120.67  7.8297096E-02
   7121.00  9.5764925E-02
   7121.33  1.1813615E-01
   7121.67  1.3745863E-01
   7122.00  1.4511829E-01
   7122.33  1.4106627E-01
   7122.67  1.3651344E-01
   7123.00  1.3627472E-01
   7123.33  1.4215362E-01
   7123.67  1.5266174E-01
   7124.00  1.6686207E-01
   7124.33  1.8483852E-01
   7124.67  2.0523404E-01
   7125.00  2.2604758E-01
   7125.33  2.4494334E-01
   7125.67  2.6243609E-01
   7126.00  2.8098689E-01
   7126.33  3.0322344E-01
   7126.67  3.2800009E-01
   7127.00  3.5352668E-01
   7127.33  3.7867673E-01
   7127.67  4.0450159E-01
   7128.00  4.3248150E-01
   7128.33  4.6304543E-01
   7128.67  4.9458668E-01
   7129.00  5.2676934E-01
   7129.33  5.6007500E-01
   7129.67  5.9282179E-01
   7130.00  6.2224787E-01
   7130.33  6.4624838E-01
   7130.67  6.6780941E-01
   7131.00  6.9019267E-01
   7131.33  7.1498222E-01
   7131.67  7.3990018E-01
   7132.00  7.6222298E-01
   7132.33  7.7920977E-01
   7132.67  7.9168570E-01
   7133.00  8.0198789E-01
   7133.33  8.1497642E-01
   7133.67  8.3570789E-01
   7134.00  8.6872393E-01
   7134.33  9.2091248E-01
   7134.67  9.9229046E-01
   7135.00  1.0782584E+00
   7135.33  1.1581210E+00
   7135.67  1.2003613E+00
   7136.00  1.1869509E+00
   7136.33  1.1223556E+00
   7136.67  1.0409695E+00
   7137.00  9.6226680E-01
   7137.33  8.9782843E-01
   7137.67  8.4739648E-01
   7138.00  8.0935661E-01
   7138.33  7.8239538E-01
   7138.67  7.6294160E-01
   7139.00  7.4933417E-01
   7139.33  7.4053928E-01
   7139.67  7.3476045E-01
   7140.00  7.3109399E-01
   7140.33  7.2878615E-01
   7140.67  7.2691434E-01
   7141.00  7.2492583E-01
   7141.33  7.2224199E-01
   7141.67  7.1860779E-01
   7142.00  7.1387967E-01
   7142.33  7.0792150E-01
   7142.67  7.0103318E-01
   7143.00  6.9344297E-01
   7143.33  6.8541071E-01
   7143.67  6.7726266E-01
   7144.00  6.6914156E-01
   7144.33  6.6103660E-01
   7144.67  6.5273568E-01
   7145.00  6.4397578E-01
   7145.33  6.3444721E-01
   7145.67  6.2426308E-01
   7146.00  6.1367017E-01
   7146.33  6.0309424E-01
   7146.67  5.9293651E-01
   7147.00  5.8343931E-01
   7147.33  5.7484005E-01
   7147.67  5.6704800E-01
   7148.00  5.6000178E-01
   7148.33  5.5366519E-01
   7148.67  5.4782756E-01
   7149.00  5.4237425E-01
   7149.33  5.3720386E-01
   7149.67  5.3215261E-01
   7150.00  5.2710449E-01
   7150.33  5.2189957E-01
   7150.67  5.1640221E-01
   7151.00  5.1047329E-01
   7151.33  5.0387086E-01
   7151.67  4.9650333E-01
   7152.00  4.8823501E-01
   7152.33  4.7879630E-01
   7152.67  4.6821578E-01
   7153.00  4.5645352E-01
   7153.33  4.4338468E-01
   7153.67  4.2926112E-01
   7154.00  4.1424292E-01
   7154.33  3.9850315E-01
   7154.67  3.8244225E-01
   7155.00  3.6638236E-01
   7155.33  3.5077145E-01
   7155.67  3.3593750E-01
   7156.00  3.2215366E-01
   7156.33  3.0982663E-01
   7156.67  2.9896503E-01
   7157.00  2.8965496E-01
   7157.33  2.8212536E-01
   7157.67  2.7614831E-01
   7158.00  2.7166195E-01
   7158.33  2.6873889E-01
   7158.67  2.6708464E-01
   7159.00  2.6658697E-01
   7159.33  2.6723785E-01
   7159.67  2.6877199E-01
   7160.00  2.7107072E-01
   7160.33  2.7407240E-01
   7160.67  2.7755833E-01
   7161.00  2.8141150E-01
   7161.33  2.8553204E-01
   7161.67  2.8976858E-01
   7162.00  2.9402495E-01
   7162.33  2.9819345E-01
   7162.67  3.0220491E-01
   7163.00  3.0600791E-01
   7163.33  3.0953224E-01
   7163.67  3.1279280E-01
   7164.00  3.1579448E-01
   7164.33  3.1853302E-01
   7164.67  3.2107693E-01
   7165.00  3.2346827E-01
   7165.33  3.2574948E-01
   7165.67  3.2798606E-01
   7166.00  3.3021911E-01
   7166.33  3.3249246E-01
   7166.67  3.3483058E-01
   7167.00  3.3725032E-01
   7167.33  3.3977548E-01
   7167.67  3.4240117E-01
   7168.00  3.4513073E-01
   7168.33  3.4798047E-01
   7168.67  3.5094070E-01
   7169.00  3.5401532E-01
   7169.33  3.5722346E-01
   7169.67  3.6055154E-01
   7170.00  3.6399541E-01
   7170.33  3.6755185E-01
   7170.67  3.7117333E-01
   7171.00  3.7480548E-01
   7171.33  3.7832456E-01
   7171.67  3.8154354E-01
   7172.00  3.8420656E-01
