    FDMNES
    energy     <xanes>
   7097.00  4.5422915E-03
   7097.33  4.6493215E-03
   7097.67  4.7614485E-03
   7098.00  4.8790491E-03
   7098.33  5.0033581E-03
   7098.67  5.1341814E-03
   7099.00  5.2720486E-03
   7099.33  5.4186220E-03
   7099.67  5.5737257E-03
   7100.00  5.7381282E-03
   7100.33  5.9141395E-03
   7100.67  6.1016463E-03
   7101.00  6.3018053E-03
   7101.33  6.5179491E-03
   7101.67  6.7501244E-03
   7102.00  7.0001499E-03
   7102.33  7.2730548E-03
   7102.67  7.5692635E-03
   7103.00  7.8917894E-03
   7103.33  8.2486505E-03
   7103.67  8.6411589E-03
   7104.00  9.0746409E-03
   7104.33  9.5627829E-03
   7104.67  1.0109067E-02
   7105.00  1.0723705E-02
   7105.33  1.1432195E-02
   7105.67  1.2243736E-02
   7106.00  1.3180109E-02
   7106.33  1.4294655E-02
   7106.67  1.5613544E-02
   7107.00  1.7190507E-02
   7107.33  1.9156744E-02
   7107.67  2.1598714E-02
   7108.00  2.4680154E-02
   7108.33  2.8811790E-02
   7108.67  3.4363264E-02
   7109.00  4.2027695E-02
   7109.33  5.3695221E-02
   7109.67  7.1780775E-02
   7110.00  1.0109021E-01
   7110.33  1.5528643E-01
   7110.67  2.4290982E-01
   7111.00  3.3592932E-01
   7111.33  3.5625253E-01
   7111.67  3.6004864E-01
   7112.00  3.7915448E-01
   7112.33  3.4976223E-01
   7112.67  2.6902380E-01
   7113.00  1.9380131E-01
   7113.33  1.4299475E-01
   7113.67  1.0996457E-01
   7114.00  9.0040160E-02
   7114.33  7.9771037E-02
   7114.67  7.3882801E-02
   7115.00  6.7709043E-02
   7115.33  6.0185750E-02
   7115.67  5.4192742E-02
   7116.00  4.9889529E-02
   7116.33  4.6254749E-02
   7116.67  4.2827979E-02
   7117.00  3.9983162E-02
   7117.33  3.8236762E-02
   7117.67  3.7519539E-02
   7118.00  3.7777279E-02
   7118.33  3.9118339E-02
   7118.67  4.1472423E-02
   7119.00  4.4819799E-02
   7119.33  4.9025517E-02
   7119.67  5.4076704E-02
   7120.00  6.0899086E-02
   7120.33  7.1680959E-02
   7120.67  8.7940921E-02
   7121.00  1.1064765E-01
   7121.33  1.3563204E-01
   7121.67  1.4918761E-01
   7122.00  1.4598474E-01
   7122.33  1.3615672E-01
   7122.67  1.3077003E-01
   7123.00  1.3290641E-01
   7123.33  1.4373152E-01
   7123.67  1.6119153E-01
   7124.00  1.8356806E-01
   7124.33  2.0747599E-01
   7124.67  2.2777963E-01
   7125.00  2.4088456E-01
   7125.33  2.4594524E-01
   7125.67  2.4900505E-01
   7126.00  2.5526687E-01
   7126.33  2.6856430E-01
   7126.67  2.8724764E-01
   7127.00  3.0876689E-01
   7127.33  3.3085847E-01
   7127.67  3.5373388E-01
   7128.00  3.7887055E-01
   7128.33  4.0720336E-01
   7128.67  4.3765394E-01
   7129.00  4.7034509E-01
   7129.33  5.0703485E-01
   7129.67  5.4761087E-01
   7130.00  5.9042205E-01
   7130.33  6.3191256E-01
   7130.67  6.7047058E-01
   7131.00  7.0770409E-01
   7131.33  7.4555368E-01
   7131.67  7.7973741E-01
   7132.00  8.0107780E-01
   7132.33  8.0100529E-01
   7132.67  7.9103588E-01
   7133.00  7.8347728E-01
   7133.33  7.8748993E-01
   7133.67  8.0443600E-01
   7134.00  8.3615519E-01
   7134.33  8.8903392E-01
   7134.67  9.6714680E-01
   7135.00  1.0747852E+00
   7135.33  1.2024080E+00
   7135.67  1.2951186E+00
   7136.00  1.2942850E+00
   7136.33  1.1906507E+00
   7136.67  1.0619153E+00
   7137.00  9.4817541E-01
   7137.33  8.6441558E-01
   7137.67  8.0322540E-01
   7138.00  7.5924933E-01
   7138.33  7.2907628E-01
   7138.67  7.0786977E-01
   7139.00  6.9379693E-01
   7139.33  6.8621647E-01
   7139.67  6.8359278E-01
   7140.00  6.8550504E-01
   7140.33  6.9216025E-01
   7140.67  7.0274024E-01
   7141.00  7.1688356E-01
   7141.33  7.3423360E-01
   7141.67  7.5322854E-01
   7142.00  7.7229828E-01
   7142.33  7.8868683E-01
   7142.67  7.9991541E-01
   7143.00  8.0389624E-01
   7143.33  7.9823553E-01
   7143.67  7.8433771E-01
   7144.00  7.6370935E-01
   7144.33  7.3836400E-01
   7144.67  7.1141755E-01
   7145.00  6.8468627E-01
   7145.33  6.5981570E-01
   7145.67  6.3736061E-01
   7146.00  6.1756278E-01
   7146.33  6.0072189E-01
   7146.67  5.8628984E-01
   7147.00  5.7400814E-01
   7147.33  5.6378176E-01
   7147.67  5.5507153E-01
   7148.00  5.4763412E-01
   7148.33  5.4133805E-01
   7148.67  5.3582198E-01
   7149.00  5.3090839E-01
   7149.33  5.2647315E-01
   7149.67  5.2229398E-01
   7150.00  5.1821689E-01
   7150.33  5.1403770E-01
   7150.67  5.0956075E-01
   7151.00  5.0459716E-01
   7151.33  4.9882769E-01
   7151.67  4.9211454E-01
   7152.00  4.8427740E-01
   7152.33  4.7497808E-01
   7152.67  4.6426985E-01
   7153.00  4.5213113E-01
   7153.33  4.3844107E-01
   7153.67  4.2351516E-01
   7154.00  4.0755352E-01
   7154.33  3.9078000E-01
   7154.67  3.7369302E-01
   7155.00  3.5670256E-01
   7155.33  3.4032007E-01
   7155.67  3.2486056E-01
   7156.00  3.1060446E-01
   7156.33  2.9798910E-01
   7156.67  2.8700330E-01
   7157.00  2.7773031E-01
   7157.33  2.7042286E-01
   7157.67  2.6484511E-01
   7158.00  2.6095211E-01
   7158.33  2.5887105E-01
   7158.67  2.5831477E-01
   7159.00  2.5920508E-01
   7159.33  2.6161313E-01
   7159.67  2.6525852E-01
   7160.00  2.7002360E-01
   7160.33  2.7585002E-01
   7160.67  2.8239765E-01
   7161.00  2.8944319E-01
   7161.33  2.9672813E-01
   7161.67  3.0393899E-01
   7162.00  3.1085321E-01
   7162.33  3.1720583E-01
   7162.67  3.2292923E-01
   7163.00  3.2796867E-01
   7163.33  3.3223254E-01
   7163.67  3.3585106E-01
   7164.00  3.3889005E-01
   7164.33  3.4138641E-01
   7164.67  3.4350738E-01
   7165.00  3.4534322E-01
   7165.33  3.4696441E-01
   7165.67  3.4847326E-01
   7166.00  3.4992399E-01
   7166.33  3.5136331E-01
   7166.67  3.5282382E-01
   7167.00  3.5432101E-01
   7167.33  3.5586981E-01
   7167.67  3.5746686E-01
   7168.00  3.5911083E-01
   7168.33  3.6080400E-01
   7168.67  3.6253733E-01
   7169.00  3.6430858E-01
   7169.33  3.6612140E-01
   7169.67  3.6797107E-01
   7170.00  3.6985689E-01
   7170.33  3.7177928E-01
   7170.67  3.7372359E-01
   7171.00  3.7566968E-01
   7171.33  3.7756220E-01
   7171.67  3.7930539E-01
   7172.00  3.8075846E-01
