    FDMNES
    energy     <xanes>
   7097.00  4.8049612E-03
   7097.33  4.9122788E-03
   7097.67  5.0242111E-03
   7098.00  5.1410592E-03
   7098.33  5.2638726E-03
   7098.67  5.3924190E-03
   7099.00  5.5271068E-03
   7099.33  5.6692990E-03
   7099.67  5.8187564E-03
   7100.00  5.9760487E-03
   7100.33  6.1429941E-03
   7100.67  6.3193676E-03
   7101.00  6.5059900E-03
   7101.33  6.7053664E-03
   7101.67  6.9173330E-03
   7102.00  7.1431202E-03
   7102.33  7.3863176E-03
   7102.67  7.6469287E-03
   7103.00  7.9268882E-03
   7103.33  8.2315948E-03
   7103.67  8.5614653E-03
   7104.00  8.9197259E-03
   7104.33  9.3150078E-03
   7104.67  9.7487403E-03
   7105.00  1.0226719E-02
   7105.33  1.0763875E-02
   7105.67  1.1364237E-02
   7106.00  1.2039280E-02
   7106.33  1.2817688E-02
   7106.67  1.3710830E-02
   7107.00  1.4744636E-02
   7107.33  1.5982876E-02
   7107.67  1.7461134E-02
   7108.00  1.9250299E-02
   7108.33  2.1526487E-02
   7108.67  2.4427688E-02
   7109.00  2.8214742E-02
   7109.33  3.3577514E-02
   7109.67  4.1300735E-02
   7110.00  5.2923615E-02
   7110.33  7.2840731E-02
   7110.67  1.0527339E-01
   7111.00  1.4929799E-01
   7111.33  1.9076022E-01
   7111.67  2.2754360E-01
   7112.00  2.6386680E-01
   7112.33  2.8773800E-01
   7112.67  2.7831407E-01
   7113.00  2.4242605E-01
   7113.33  2.0941912E-01
   7113.67  1.8257627E-01
   7114.00  1.5559970E-01
   7114.33  1.3237520E-01
   7114.67  1.1527771E-01
   7115.00  1.0363146E-01
   7115.33  9.7259351E-02
   7115.67  9.5653200E-02
   7116.00  9.9066416E-02
   7116.33  1.0829764E-01
   7116.67  1.2212727E-01
   7117.00  1.3866749E-01
   7117.33  1.5496980E-01
   7117.67  1.7165470E-01
   7118.00  1.9093741E-01
   7118.33  2.1336365E-01
   7118.67  2.3681240E-01
   7119.00  2.5873248E-01
   7119.33  2.7415702E-01
   7119.67  2.8098122E-01
   7120.00  2.8025540E-01
   7120.33  2.7645720E-01
   7120.67  2.7480768E-01
   7121.00  2.7666663E-01
   7121.33  2.8126554E-01
   7121.67  2.8711312E-01
   7122.00  2.9423538E-01
   7122.33  3.0366435E-01
   7122.67  3.1554923E-01
   7123.00  3.2942574E-01
   7123.33  3.4452272E-01
   7123.67  3.6097000E-01
   7124.00  3.8084614E-01
   7124.33  4.0833149E-01
   7124.67  4.4306761E-01
   7125.00  4.8112736E-01
   7125.33  5.1470715E-01
   7125.67  5.3871179E-01
   7126.00  5.5218303E-01
   7126.33  5.5780416E-01
   7126.67  5.6282052E-01
   7127.00  5.7206119E-01
   7127.33  5.8743020E-01
   7127.67  6.0485200E-01
   7128.00  6.1997759E-01
   7128.33  6.2787966E-01
   7128.67  6.2786201E-01
   7129.00  6.2084993E-01
   7129.33  6.0885128E-01
   7129.67  5.9507873E-01
   7130.00  5.8116188E-01
   7130.33  5.6855310E-01
   7130.67  5.5843167E-01
   7131.00  5.5194547E-01
   7131.33  5.5027286E-01
   7131.67  5.5249438E-01
   7132.00  5.5782383E-01
   7132.33  5.6570974E-01
   7132.67  5.7536574E-01
   7133.00  5.8642879E-01
   7133.33  5.9821088E-01
   7133.67  6.0946569E-01
   7134.00  6.1924605E-01
   7134.33  6.2677687E-01
   7134.67  6.3252278E-01
   7135.00  6.3701462E-01
   7135.33  6.4061982E-01
   7135.67  6.4333094E-01
   7136.00  6.4464358E-01
   7136.33  6.4364115E-01
   7136.67  6.4027043E-01
   7137.00  6.3466134E-01
   7137.33  6.2704596E-01
   7137.67  6.1820583E-01
   7138.00  6.0861254E-01
   7138.33  5.9875999E-01
   7138.67  5.8915048E-01
   7139.00  5.8011018E-01
   7139.33  5.7197664E-01
   7139.67  5.6471774E-01
   7140.00  5.5827677E-01
   7140.33  5.5257767E-01
   7140.67  5.4732718E-01
   7141.00  5.4233455E-01
   7141.33  5.3739685E-01
   7141.67  5.3232442E-01
   7142.00  5.2698301E-01
   7142.33  5.2120391E-01
   7142.67  5.1498225E-01
   7143.00  5.0834943E-01
   7143.33  5.0139544E-01
   7143.67  4.9434503E-01
   7144.00  4.8738251E-01
   7144.33  4.8074289E-01
   7144.67  4.7453629E-01
   7145.00  4.6883218E-01
   7145.33  4.6371862E-01
   7145.67  4.5911590E-01
   7146.00  4.5501211E-01
   7146.33  4.5149189E-01
   7146.67  4.4856414E-01
   7147.00  4.4633164E-01
   7147.33  4.4503881E-01
   7147.67  4.4469866E-01
   7148.00  4.4535770E-01
   7148.33  4.4710383E-01
   7148.67  4.4968585E-01
   7149.00  4.5292287E-01
   7149.33  4.5661365E-01
   7149.67  4.6045298E-01
   7150.00  4.6424463E-01
   7150.33  4.6777956E-01
   7150.67  4.7096898E-01
   7151.00  4.7376906E-01
   7151.33  4.7614926E-01
   7151.67  4.7822551E-01
   7152.00  4.8007601E-01
   7152.33  4.8177465E-01
   7152.67  4.8342185E-01
   7153.00  4.8508302E-01
   7153.33  4.8683381E-01
   7153.67  4.8871646E-01
   7154.00  4.9076406E-01
   7154.33  4.9302496E-01
   7154.67  4.9548441E-01
   7155.00  4.9813645E-01
   7155.33  5.0097909E-01
   7155.67  5.0394975E-01
   7156.00  5.0699798E-01
   7156.33  5.1004843E-01
   7156.67  5.1300661E-01
   7157.00  5.1577607E-01
   7157.33  5.1818787E-01
   7157.67  5.2013630E-01
   7158.00  5.2148848E-01
   7158.33  5.2200433E-01
   7158.67  5.2166004E-01
   7159.00  5.2039542E-01
   7159.33  5.1807224E-01
   7159.67  5.1484480E-01
   7160.00  5.1079451E-01
   7160.33  5.0598509E-01
   7160.67  5.0069494E-01
   7161.00  4.9511195E-01
   7161.33  4.8944879E-01
   7161.67  4.8392292E-01
   7162.00  4.7869266E-01
   7162.33  4.7396462E-01
   7162.67  4.6979087E-01
   7163.00  4.6622748E-01
   7163.33  4.6337773E-01
   7163.67  4.6114585E-01
   7164.00  4.5949184E-01
   7164.33  4.5841041E-01
   7164.67  4.5775237E-01
   7165.00  4.5743795E-01
   7165.33  4.5740600E-01
   7165.67  4.5753990E-01
   7166.00  4.5777649E-01
   7166.33  4.5806167E-01
   7166.67  4.5834686E-01
   7167.00  4.5860804E-01
   7167.33  4.5882647E-01
   7167.67  4.5900606E-01
   7168.00  4.5915527E-01
   7168.33  4.5929090E-01
   7168.67  4.5943863E-01
   7169.00  4.5962099E-01
   7169.33  4.5987086E-01
   7169.67  4.6020207E-01
   7170.00  4.6062703E-01
   7170.33  4.6116139E-01
   7170.67  4.6178097E-01
   7171.00  4.6246216E-01
   7171.33  4.6316390E-01
   7171.67  4.6382039E-01
   7172.00  4.6436282E-01
