    FDMNES
    energy     <xanes>
   7097.00  4.7924510E-03
   7097.33  4.9005251E-03
   7097.67  5.0132203E-03
   7098.00  5.1308340E-03
   7098.33  5.2544107E-03
   7098.67  5.3837120E-03
   7099.00  5.5191399E-03
   7099.33  5.6620455E-03
   7099.67  5.8121812E-03
   7100.00  5.9701050E-03
   7100.33  6.1376109E-03
   7100.67  6.3144612E-03
   7101.00  6.5014557E-03
   7101.33  6.7010528E-03
   7101.67  6.9130679E-03
   7102.00  7.1386926E-03
   7102.33  7.3814267E-03
   7102.67  7.6412367E-03
   7103.00  7.9199825E-03
   7103.33  8.2228880E-03
   7103.67  8.5502955E-03
   7104.00  8.9052796E-03
   7104.33  9.2961151E-03
   7104.67  9.7240636E-03
   7105.00  1.0194589E-02
   7105.33  1.0721836E-02
   7105.67  1.1309406E-02
   7106.00  1.1967958E-02
   7106.33  1.2724230E-02
   7106.67  1.3588310E-02
   7107.00  1.4583773E-02
   7107.33  1.5768635E-02
   7107.67  1.7173725E-02
   7108.00  1.8861301E-02
   7108.33  2.0985261E-02
   7108.67  2.3659657E-02
   7109.00  2.7100211E-02
   7109.33  3.1868110E-02
   7109.67  3.8560870E-02
   7110.00  4.8335409E-02
   7110.33  6.4455477E-02
   7110.67  9.0350770E-02
   7111.00  1.2792115E-01
   7111.33  1.7742001E-01
   7111.67  2.4180613E-01
   7112.00  3.0753132E-01
   7112.33  3.2389886E-01
   7112.67  2.9081040E-01
   7113.00  2.3412067E-01
   7113.33  1.8317219E-01
   7113.67  1.4687485E-01
   7114.00  1.1989452E-01
   7114.33  1.0005308E-01
   7114.67  8.6936690E-02
   7115.00  7.9621953E-02
   7115.33  7.7345444E-02
   7115.67  7.8751466E-02
   7116.00  8.3452380E-02
   7116.33  9.1268764E-02
   7116.67  1.0118765E-01
   7117.00  1.1312316E-01
   7117.33  1.2807272E-01
   7117.67  1.4703884E-01
   7118.00  1.7263855E-01
   7118.33  2.1031520E-01
   7118.67  2.5988631E-01
   7119.00  3.1624530E-01
   7119.33  3.6689364E-01
   7119.67  4.0502656E-01
   7120.00  4.3250225E-01
   7120.33  4.5174203E-01
   7120.67  4.6224658E-01
   7121.00  4.6288307E-01
   7121.33  4.5575961E-01
   7121.67  4.4703296E-01
   7122.00  4.4065374E-01
   7122.33  4.3969282E-01
   7122.67  4.4327533E-01
   7123.00  4.4918513E-01
   7123.33  4.5332171E-01
   7123.67  4.5278422E-01
   7124.00  4.4757893E-01
   7124.33  4.4061892E-01
   7124.67  4.3561303E-01
   7125.00  4.3405867E-01
   7125.33  4.3657244E-01
   7125.67  4.4268097E-01
   7126.00  4.5270815E-01
   7126.33  4.6679310E-01
   7126.67  4.8243082E-01
   7127.00  4.9637774E-01
   7127.33  5.0397753E-01
   7127.67  5.0506941E-01
   7128.00  5.0201585E-01
   7128.33  4.9832628E-01
   7128.67  4.9636306E-01
   7129.00  4.9680938E-01
   7129.33  4.9984852E-01
   7129.67  5.0492701E-01
   7130.00  5.1172900E-01
   7130.33  5.1903782E-01
   7130.67  5.2471604E-01
   7131.00  5.2741159E-01
   7131.33  5.2650556E-01
   7131.67  5.2332396E-01
   7132.00  5.1898218E-01
   7132.33  5.1464112E-01
   7132.67  5.1117626E-01
   7133.00  5.0921543E-01
   7133.33  5.0964764E-01
   7133.67  5.1229183E-01
   7134.00  5.1654425E-01
   7134.33  5.2140580E-01
   7134.67  5.2596923E-01
   7135.00  5.2997871E-01
   7135.33  5.3367793E-01
   7135.67  5.3774759E-01
   7136.00  5.4275723E-01
   7136.33  5.4932087E-01
   7136.67  5.5737785E-01
   7137.00  5.6676478E-01
   7137.33  5.7713386E-01
   7137.67  5.8766695E-01
   7138.00  5.9758971E-01
   7138.33  6.0569812E-01
   7138.67  6.1127076E-01
   7139.00  6.1378229E-01
   7139.33  6.1277243E-01
   7139.67  6.0924105E-01
   7140.00  6.0415602E-01
   7140.33  5.9884062E-01
   7140.67  5.9454784E-01
   7141.00  5.9201276E-01
   7141.33  5.9186474E-01
   7141.67  5.9370739E-01
   7142.00  5.9714165E-01
   7142.33  6.0164417E-01
   7142.67  6.0641449E-01
   7143.00  6.1092383E-01
   7143.33  6.1457320E-01
   7143.67  6.1708187E-01
   7144.00  6.1822193E-01
   7144.33  6.1763990E-01
   7144.67  6.1547053E-01
   7145.00  6.1174169E-01
   7145.33  6.0638125E-01
   7145.67  5.9975377E-01
   7146.00  5.9207473E-01
   7146.33  5.8357011E-01
   7146.67  5.7470736E-01
   7147.00  5.6583680E-01
   7147.33  5.5740912E-01
   7147.67  5.4971995E-01
   7148.00  5.4299007E-01
   7148.33  5.3750650E-01
   7148.67  5.3315908E-01
   7149.00  5.2988361E-01
   7149.33  5.2763708E-01
   7149.67  5.2608827E-01
   7150.00  5.2502176E-01
   7150.33  5.2419804E-01
   7150.67  5.2333054E-01
   7151.00  5.2222416E-01
   7151.33  5.2065833E-01
   7151.67  5.1859689E-01
   7152.00  5.1603733E-01
   7152.33  5.1299695E-01
   7152.67  5.0965750E-01
   7153.00  5.0615782E-01
   7153.33  5.0266530E-01
   7153.67  4.9932508E-01
   7154.00  4.9623430E-01
   7154.33  4.9350860E-01
   7154.67  4.9114271E-01
   7155.00  4.8913953E-01
   7155.33  4.8752077E-01
   7155.67  4.8620570E-01
   7156.00  4.8515384E-01
   7156.33  4.8434061E-01
   7156.67  4.8368899E-01
   7157.00  4.8315788E-01
   7157.33  4.8271145E-01
   7157.67  4.8229597E-01
   7158.00  4.8187339E-01
   7158.33  4.8139455E-01
   7158.67  4.8082379E-01
   7159.00  4.8012084E-01
   7159.33  4.7921242E-01
   7159.67  4.7807924E-01
   7160.00  4.7669171E-01
   7160.33  4.7498741E-01
   7160.67  4.7298695E-01
   7161.00  4.7068858E-01
   7161.33  4.6806516E-01
   7161.67  4.6517508E-01
   7162.00  4.6204828E-01
   7162.33  4.5870610E-01
   7162.67  4.5522574E-01
   7163.00  4.5165693E-01
   7163.33  4.4805624E-01
   7163.67  4.4448248E-01
   7164.00  4.4097635E-01
   7164.33  4.3760188E-01
   7164.67  4.3439157E-01
   7165.00  4.3137883E-01
   7165.33  4.2862180E-01
   7165.67  4.2611199E-01
   7166.00  4.2385884E-01
   7166.33  4.2189695E-01
   7166.67  4.2018746E-01
   7167.00  4.1871791E-01
   7167.33  4.1749548E-01
   7167.67  4.1647027E-01
   7168.00  4.1562325E-01
   7168.33  4.1495396E-01
   7168.67  4.1442652E-01
   7169.00  4.1403092E-01
   7169.33  4.1377489E-01
   7169.67  4.1363923E-01
   7170.00  4.1362335E-01
   7170.33  4.1374248E-01
   7170.67  4.1397897E-01
   7171.00  4.1432431E-01
   7171.33  4.1476394E-01
   7171.67  4.1523138E-01
   7172.00  4.1564531E-01
