    FDMNES
    energy     <xanes>
   7097.00  4.3688667E-03
   7097.33  4.4492587E-03
   7097.67  4.5323384E-03
   7098.00  4.6182420E-03
   7098.33  4.7075156E-03
   7098.67  4.7999723E-03
   7099.00  4.8957869E-03
   7099.33  4.9956291E-03
   7099.67  5.0992963E-03
   7100.00  5.2070183E-03
   7100.33  5.3196342E-03
   7100.67  5.4369287E-03
   7101.00  5.5592138E-03
   7101.33  5.6875689E-03
   7101.67  5.8217760E-03
   7102.00  5.9622741E-03
   7102.33  6.1105001E-03
   7102.67  6.2662574E-03
   7103.00  6.4301931E-03
   7103.33  6.6043056E-03
   7103.67  6.7884778E-03
   7104.00  6.9837211E-03
   7104.33  7.1929792E-03
   7104.67  7.4163576E-03
   7105.00  7.6555590E-03
   7105.33  7.9152647E-03
   7105.67  8.1961772E-03
   7106.00  8.5014552E-03
   7106.33  8.8393554E-03
   7106.67  9.2122651E-03
   7107.00  9.6268552E-03
   7107.33  1.0099940E-02
   7107.67  1.0639282E-02
   7108.00  1.1261784E-02
   7108.33  1.2009620E-02
   7108.67  1.2911849E-02
   7109.00  1.4024855E-02
   7109.33  1.5495171E-02
   7109.67  1.7473191E-02
   7110.00  2.0251726E-02
   7110.33  2.4664609E-02
   7110.67  3.1685626E-02
   7111.00  4.2182753E-02
   7111.33  5.4815295E-02
   7111.67  6.7274534E-02
   7112.00  8.3824800E-02
   7112.33  1.0147829E-01
   7112.67  1.0296213E-01
   7113.00  8.9568661E-02
   7113.33  7.7514557E-02
   7113.67  7.2592934E-02
   7114.00  6.8946566E-02
   7114.33  5.8454719E-02
   7114.67  4.7966210E-02
   7115.00  4.1087507E-02
   7115.33  3.7648246E-02
   7115.67  3.6128311E-02
   7116.00  3.5916271E-02
   7116.33  3.6749230E-02
   7116.67  3.8341365E-02
   7117.00  4.0641282E-02
   7117.33  4.3741742E-02
   7117.67  4.7607979E-02
   7118.00  5.2335177E-02
   7118.33  5.8234598E-02
   7118.67  6.5428291E-02
   7119.00  7.4191417E-02
   7119.33  8.5146108E-02
   7119.67  9.8379901E-02
   7120.00  1.1390027E-01
   7120.33  1.3117183E-01
   7120.67  1.4869517E-01
   7121.00  1.6607199E-01
   7121.33  1.8486961E-01
   7121.67  2.0721126E-01
   7122.00  2.3463320E-01
   7122.33  2.6897182E-01
   7122.67  3.0993241E-01
   7123.00  3.5744215E-01
   7123.33  4.1131684E-01
   7123.67  4.6880965E-01
   7124.00  5.2733778E-01
   7124.33  5.8409298E-01
   7124.67  6.3957025E-01
   7125.00  6.9626939E-01
   7125.33  7.5468678E-01
   7125.67  8.0831431E-01
   7126.00  8.5026079E-01
   7126.33  8.7955426E-01
   7126.67  9.0423862E-01
   7127.00  9.2661801E-01
   7127.33  9.4377913E-01
   7127.67  9.5219939E-01
   7128.00  9.5026600E-01
   7128.33  9.4003495E-01
   7128.67  9.2645305E-01
   7129.00  9.0999548E-01
   7129.33  8.8938187E-01
   7129.67  8.6553239E-01
   7130.00  8.4014135E-01
   7130.33  8.1594534E-01
   7130.67  7.9470963E-01
   7131.00  7.7622489E-01
   7131.33  7.5701634E-01
   7131.67  7.3309817E-01
   7132.00  7.0525863E-01
   7132.33  6.7788019E-01
   7132.67  6.5295870E-01
   7133.00  6.3063855E-01
   7133.33  6.1180688E-01
   7133.67  5.9760122E-01
   7134.00  5.8991738E-01
   7134.33  5.9160010E-01
   7134.67  6.0106829E-01
   7135.00  6.1500026E-01
   7135.33  6.2785718E-01
   7135.67  6.3637780E-01
   7136.00  6.4050881E-01
   7136.33  6.4173566E-01
   7136.67  6.4232627E-01
   7137.00  6.4331504E-01
   7137.33  6.4514399E-01
   7137.67  6.4735586E-01
   7138.00  6.4930528E-01
   7138.33  6.5004169E-01
   7138.67  6.4911448E-01
   7139.00  6.4633443E-01
   7139.33  6.4161145E-01
   7139.67  6.3553420E-01
   7140.00  6.2849764E-01
   7140.33  6.2084456E-01
   7140.67  6.1295269E-01
   7141.00  6.0500356E-01
   7141.33  5.9712806E-01
   7141.67  5.8936290E-01
   7142.00  5.8170035E-01
   7142.33  5.7410210E-01
   7142.67  5.6649329E-01
   7143.00  5.5880958E-01
   7143.33  5.5096050E-01
   7143.67  5.4290500E-01
   7144.00  5.3460680E-01
   7144.33  5.2600664E-01
   7144.67  5.1713268E-01
   7145.00  5.0799905E-01
   7145.33  4.9861612E-01
   7145.67  4.8907068E-01
   7146.00  4.7942601E-01
   7146.33  4.6975955E-01
   7146.67  4.6015145E-01
   7147.00  4.5066047E-01
   7147.33  4.4136087E-01
   7147.67  4.3226546E-01
   7148.00  4.2338960E-01
   7148.33  4.1476705E-01
   7148.67  4.0636868E-01
   7149.00  3.9819208E-01
   7149.33  3.9026180E-01
   7149.67  3.8254954E-01
   7150.00  3.7505583E-01
   7150.33  3.6780700E-01
   7150.67  3.6077202E-01
   7151.00  3.5394385E-01
   7151.33  3.4733174E-01
   7151.67  3.4089140E-01
   7152.00  3.3460449E-01
   7152.33  3.2846961E-01
   7152.67  3.2246012E-01
   7153.00  3.1657811E-01
   7153.33  3.1085932E-01
   7153.67  3.0532207E-01
   7154.00  3.0001333E-01
   7154.33  2.9504105E-01
   7154.67  2.9044879E-01
   7155.00  2.8630829E-01
   7155.33  2.8276744E-01
   7155.67  2.7983208E-01
   7156.00  2.7754982E-01
   7156.33  2.7603324E-01
   7156.67  2.7518512E-01
   7157.00  2.7496025E-01
   7157.33  2.7533682E-01
   7157.67  2.7613250E-01
   7158.00  2.7725118E-01
   7158.33  2.7865070E-01
   7158.67  2.8027569E-01
   7159.00  2.8214280E-01
   7159.33  2.8434272E-01
   7159.67  2.8691334E-01
   7160.00  2.8992455E-01
   7160.33  2.9352222E-01
   7160.67  2.9771780E-01
   7161.00  3.0257265E-01
   7161.33  3.0823970E-01
   7161.67  3.1467920E-01
   7162.00  3.2192798E-01
   7162.33  3.3012534E-01
   7162.67  3.3918425E-01
   7163.00  3.4910218E-01
   7163.33  3.5995185E-01
   7163.67  3.7156145E-01
   7164.00  3.8383890E-01
   7164.33  3.9670437E-01
   7164.67  4.0991135E-01
   7165.00  4.2328334E-01
   7165.33  4.3659756E-01
   7165.67  4.4964670E-01
   7166.00  4.6225939E-01
   7166.33  4.7418308E-01
   7166.67  4.8534733E-01
   7167.00  4.9564983E-01
   7167.33  5.0488133E-01
   7167.67  5.1310007E-01
   7168.00  5.2027538E-01
   7168.33  5.2626356E-01
   7168.67  5.3120822E-01
   7169.00  5.3513635E-01
   7169.33  5.3797692E-01
   7169.67  5.3991901E-01
   7170.00  5.4103467E-01
   7170.33  5.4133115E-01
   7170.67  5.4101409E-01
   7171.00  5.4019941E-01
   7171.33  5.3901941E-01
   7171.67  5.3775331E-01
   7172.00  5.3666211E-01
