    FDMNES
    energy     <xanes>
   7097.00  4.7804885E-03
   7097.33  4.8826920E-03
   7097.67  4.9891305E-03
   7098.00  5.1000711E-03
   7098.33  5.2164611E-03
   7098.67  5.3380741E-03
   7099.00  5.4652681E-03
   7099.33  5.5992613E-03
   7099.67  5.7398152E-03
   7100.00  5.8874230E-03
   7100.33  6.0436894E-03
   7100.67  6.2083782E-03
   7101.00  6.3821891E-03
   7101.33  6.5672990E-03
   7101.67  6.7635068E-03
   7102.00  6.9718408E-03
   7102.33  7.1953613E-03
   7102.67  7.4339756E-03
   7103.00  7.6892622E-03
   7103.33  7.9657154E-03
   7103.67  8.2635182E-03
   7104.00  8.5852277E-03
   7104.33  8.9378169E-03
   7104.67  9.3221465E-03
   7105.00  9.7426503E-03
   7105.33  1.0210946E-02
   7105.67  1.0729610E-02
   7106.00  1.1307053E-02
   7106.33  1.1964580E-02
   7106.67  1.2709492E-02
   7107.00  1.3559853E-02
   7107.33  1.4560436E-02
   7107.67  1.5733625E-02
   7108.00  1.7126029E-02
   7108.33  1.8853488E-02
   7108.67  2.0999913E-02
   7109.00  2.3726634E-02
   7109.33  2.7457469E-02
   7109.67  3.2652260E-02
   7110.00  4.0215175E-02
   7110.33  5.2731562E-02
   7110.67  7.2837028E-02
   7111.00  1.0071171E-01
   7111.33  1.2674595E-01
   7111.67  1.4435411E-01
   7112.00  1.5939002E-01
   7112.33  1.8558323E-01
   7112.67  2.1892180E-01
   7113.00  2.4864892E-01
   7113.33  2.6965325E-01
   7113.67  2.7404992E-01
   7114.00  2.6279014E-01
   7114.33  2.4613448E-01
   7114.67  2.3362361E-01
   7115.00  2.2653223E-01
   7115.33  2.2395182E-01
   7115.67  2.2705571E-01
   7116.00  2.3286770E-01
   7116.33  2.3169026E-01
   7116.67  2.2143949E-01
   7117.00  2.0422819E-01
   7117.33  1.8540787E-01
   7117.67  1.7097160E-01
   7118.00  1.6262364E-01
   7118.33  1.5978197E-01
   7118.67  1.5903478E-01
   7119.00  1.5820994E-01
   7119.33  1.5625718E-01
   7119.67  1.5305974E-01
   7120.00  1.4854046E-01
   7120.33  1.4382128E-01
   7120.67  1.4030355E-01
   7121.00  1.3844741E-01
   7121.33  1.3873866E-01
   7121.67  1.4128396E-01
   7122.00  1.4636454E-01
   7122.33  1.5456344E-01
   7122.67  1.6569218E-01
   7123.00  1.7981329E-01
   7123.33  1.9722394E-01
   7123.67  2.1728192E-01
   7124.00  2.3940455E-01
   7124.33  2.6225701E-01
   7124.67  2.8365285E-01
   7125.00  3.0187012E-01
   7125.33  3.1544704E-01
   7125.67  3.2534703E-01
   7126.00  3.3277827E-01
   7126.33  3.3969049E-01
   7126.67  3.4811640E-01
   7127.00  3.5892237E-01
   7127.33  3.7181344E-01
   7127.67  3.8518747E-01
   7128.00  3.9851747E-01
   7128.33  4.1277576E-01
   7128.67  4.2953519E-01
   7129.00  4.5002917E-01
   7129.33  4.7568820E-01
   7129.67  5.0623002E-01
   7130.00  5.4161947E-01
   7130.33  5.8234340E-01
   7130.67  6.2797517E-01
   7131.00  6.7914744E-01
   7131.33  7.3790519E-01
   7131.67  8.0435752E-01
   7132.00  8.7850336E-01
   7132.33  9.5955114E-01
   7132.67  1.0427002E+00
   7133.00  1.1220185E+00
   7133.33  1.1866926E+00
   7133.67  1.2291940E+00
   7134.00  1.2442855E+00
   7134.33  1.2273997E+00
   7134.67  1.1863557E+00
   7135.00  1.1276007E+00
   7135.33  1.0584658E+00
   7135.67  9.8747966E-01
   7136.00  9.1905971E-01
   7136.33  8.5676452E-01
   7136.67  8.0098345E-01
   7137.00  7.5173165E-01
   7137.33  7.0917877E-01
   7137.67  6.7168276E-01
   7138.00  6.3839419E-01
   7138.33  6.0878874E-01
   7138.67  5.8169492E-01
   7139.00  5.5664709E-01
   7139.33  5.3354962E-01
   7139.67  5.1209689E-01
   7140.00  4.9234622E-01
   7140.33  4.7465884E-01
   7140.67  4.5891493E-01
   7141.00  4.4516431E-01
   7141.33  4.3366475E-01
   7141.67  4.2412593E-01
   7142.00  4.1648733E-01
   7142.33  4.1089057E-01
   7142.67  4.0701581E-01
   7143.00  4.0477383E-01
   7143.33  4.0422226E-01
   7143.67  4.0500031E-01
   7144.00  4.0692362E-01
   7144.33  4.0985992E-01
   7144.67  4.1344114E-01
   7145.00  4.1745681E-01
   7145.33  4.2171390E-01
   7145.67  4.2600148E-01
   7146.00  4.3019333E-01
   7146.33  4.3415626E-01
   7146.67  4.3785268E-01
   7147.00  4.4126626E-01
   7147.33  4.4439198E-01
   7147.67  4.4733426E-01
   7148.00  4.5017755E-01
   7148.33  4.5302968E-01
   7148.67  4.5599163E-01
   7149.00  4.5913475E-01
   7149.33  4.6254168E-01
   7149.67  4.6620776E-01
   7150.00  4.7013453E-01
   7150.33  4.7433147E-01
   7150.67  4.7873070E-01
   7151.00  4.8329502E-01
   7151.33  4.8799450E-01
   7151.67  4.9276866E-01
   7152.00  4.9757785E-01
   7152.33  5.0237094E-01
   7152.67  5.0709152E-01
   7153.00  5.1167767E-01
   7153.33  5.1601108E-01
   7153.67  5.2000901E-01
   7154.00  5.2356241E-01
   7154.33  5.2646392E-01
   7154.67  5.2865541E-01
   7155.00  5.3003989E-01
   7155.33  5.3042540E-01
   7155.67  5.2989002E-01
   7156.00  5.2845074E-01
   7156.33  5.2607686E-01
   7156.67  5.2299646E-01
   7157.00  5.1934849E-01
   7157.33  5.1527116E-01
   7157.67  5.1100843E-01
   7158.00  5.0672504E-01
   7158.33  5.0261581E-01
   7158.67  4.9881015E-01
   7159.00  4.9540934E-01
   7159.33  4.9255839E-01
   7159.67  4.9024304E-01
   7160.00  4.8847518E-01
   7160.33  4.8730606E-01
   7160.67  4.8662948E-01
   7161.00  4.8639946E-01
   7161.33  4.8660122E-01
   7161.67  4.8711664E-01
   7162.00  4.8788690E-01
   7162.33  4.8887487E-01
   7162.67  4.9000672E-01
   7163.00  4.9125040E-01
   7163.33  4.9258318E-01
   7163.67  4.9397212E-01
   7164.00  4.9540650E-01
   7164.33  4.9688437E-01
   7164.67  4.9839723E-01
   7165.00  4.9994211E-01
   7165.33  5.0151707E-01
   7165.67  5.0310957E-01
   7166.00  5.0470729E-01
   7166.33  5.0628833E-01
   7166.67  5.0782979E-01
   7167.00  5.0930789E-01
   7167.33  5.1068175E-01
   7167.67  5.1193390E-01
   7168.00  5.1304211E-01
   7168.33  5.1396026E-01
   7168.67  5.1468732E-01
   7169.00  5.1520999E-01
   7169.33  5.1549157E-01
   7169.67  5.1555512E-01
   7170.00  5.1540317E-01
   7170.33  5.1502100E-01
   7170.67  5.1445557E-01
   7171.00  5.1373655E-01
   7171.33  5.1290695E-01
   7171.67  5.1207229E-01
   7172.00  5.1135024E-01
