    FDMNES
    energy     <xanes>
   7097.00  5.1660026E-03
   7097.33  5.2908793E-03
   7097.67  5.4214505E-03
   7098.00  5.5581016E-03
   7098.33  5.7021498E-03
   7098.67  5.8533256E-03
   7099.00  6.0121536E-03
   7099.33  6.1803562E-03
   7099.67  6.3576575E-03
   7100.00  6.5447915E-03
   7100.33  6.7440695E-03
   7100.67  6.9552358E-03
   7101.00  7.1793500E-03
   7101.33  7.4196108E-03
   7101.67  7.6758418E-03
   7102.00  7.9496305E-03
   7102.33  8.2455713E-03
   7102.67  8.5636981E-03
   7103.00  8.9064972E-03
   7103.33  9.2808749E-03
   7103.67  9.6873726E-03
   7104.00  1.0130104E-02
   7104.33  1.0620054E-02
   7104.67  1.1158983E-02
   7105.00  1.1754181E-02
   7105.33  1.2424431E-02
   7105.67  1.3174553E-02
   7106.00  1.4018671E-02
   7106.33  1.4992135E-02
   7106.67  1.6108145E-02
   7107.00  1.7397621E-02
   7107.33  1.8936594E-02
   7107.67  2.0764865E-02
   7108.00  2.2963230E-02
   7108.33  2.5731524E-02
   7108.67  2.9216837E-02
   7109.00  3.3699017E-02
   7109.33  3.9910041E-02
   7109.67  4.8640542E-02
   7110.00  6.1434426E-02
   7110.33  8.2637747E-02
   7110.67  1.1617665E-01
   7111.00  1.6047863E-01
   7111.33  2.0411739E-01
   7111.67  2.6311486E-01
   7112.00  3.3986340E-01
   7112.33  3.9161874E-01
   7112.67  4.3056682E-01
   7113.00  4.6335115E-01
   7113.33  4.5260132E-01
   7113.67  3.9140769E-01
   7114.00  3.0421245E-01
   7114.33  2.3109024E-01
   7114.67  1.8335573E-01
   7115.00  1.5911305E-01
   7115.33  1.5719284E-01
   7115.67  1.6384525E-01
   7116.00  1.7234060E-01
   7116.33  1.8437398E-01
   7116.67  1.8468040E-01
   7117.00  1.6583612E-01
   7117.33  1.4293383E-01
   7117.67  1.2774242E-01
   7118.00  1.2117482E-01
   7118.33  1.2202079E-01
   7118.67  1.2626637E-01
   7119.00  1.3197794E-01
   7119.33  1.3928782E-01
   7119.67  1.4562590E-01
   7120.00  1.4839144E-01
   7120.33  1.4793133E-01
   7120.67  1.4803837E-01
   7121.00  1.5177018E-01
   7121.33  1.6200763E-01
   7121.67  1.7925268E-01
   7122.00  2.0456773E-01
   7122.33  2.4002713E-01
   7122.67  2.8372519E-01
   7123.00  3.3280669E-01
   7123.33  3.8342199E-01
   7123.67  4.3348032E-01
   7124.00  4.8166054E-01
   7124.33  5.2267286E-01
   7124.67  5.5224291E-01
   7125.00  5.6953697E-01
   7125.33  5.7730087E-01
   7125.67  5.8228498E-01
   7126.00  5.8847087E-01
   7126.33  5.9905919E-01
   7126.67  6.1455606E-01
   7127.00  6.3492480E-01
   7127.33  6.6002344E-01
   7127.67  6.8773229E-01
   7128.00  7.1552680E-01
   7128.33  7.3929299E-01
   7128.67  7.5689576E-01
   7129.00  7.6812762E-01
   7129.33  7.7407984E-01
   7129.67  7.7766983E-01
   7130.00  7.8078306E-01
   7130.33  7.8531593E-01
   7130.67  7.9225201E-01
   7131.00  8.0192750E-01
   7131.33  8.1356568E-01
   7131.67  8.2383545E-01
   7132.00  8.2870351E-01
   7132.33  8.2257346E-01
   7132.67  8.0501734E-01
   7133.00  7.7770613E-01
   7133.33  7.4459155E-01
   7133.67  7.1148323E-01
   7134.00  6.8171768E-01
   7134.33  6.5799029E-01
   7134.67  6.4010088E-01
   7135.00  6.2778735E-01
   7135.33  6.2107695E-01
   7135.67  6.1863969E-01
   7136.00  6.1981062E-01
   7136.33  6.2407456E-01
   7136.67  6.3011792E-01
   7137.00  6.3699797E-01
   7137.33  6.4341094E-01
   7137.67  6.4805318E-01
   7138.00  6.4986433E-01
   7138.33  6.4762909E-01
   7138.67  6.4173649E-01
   7139.00  6.3258241E-01
   7139.33  6.2052618E-01
   7139.67  6.0665323E-01
   7140.00  5.9157948E-01
   7140.33  5.7581757E-01
   7140.67  5.5993069E-01
   7141.00  5.4426692E-01
   7141.33  5.2920955E-01
   7141.67  5.1490596E-01
   7142.00  5.0146069E-01
   7142.33  4.8902267E-01
   7142.67  4.7744528E-01
   7143.00  4.6666002E-01
   7143.33  4.5664678E-01
   7143.67  4.4720427E-01
   7144.00  4.3824007E-01
   7144.33  4.2972232E-01
   7144.67  4.2157080E-01
   7145.00  4.1381372E-01
   7145.33  4.0660866E-01
   7145.67  4.0003938E-01
   7146.00  3.9424071E-01
   7146.33  3.8945121E-01
   7146.67  3.8561898E-01
   7147.00  3.8273377E-01
   7147.33  3.8083489E-01
   7147.67  3.7971205E-01
   7148.00  3.7928281E-01
   7148.33  3.7955829E-01
   7148.67  3.8043106E-01
   7149.00  3.8189660E-01
   7149.33  3.8401577E-01
   7149.67  3.8667537E-01
   7150.00  3.8981586E-01
   7150.33  3.9337911E-01
   7150.67  3.9717520E-01
   7151.00  4.0106259E-01
   7151.33  4.0486536E-01
   7151.67  4.0844482E-01
   7152.00  4.1169978E-01
   7152.33  4.1449775E-01
   7152.67  4.1684331E-01
   7153.00  4.1871865E-01
   7153.33  4.2006480E-01
   7153.67  4.2095723E-01
   7154.00  4.2141860E-01
   7154.33  4.2142900E-01
   7154.67  4.2107032E-01
   7155.00  4.2037271E-01
   7155.33  4.1933613E-01
   7155.67  4.1803812E-01
   7156.00  4.1651566E-01
   7156.33  4.1479272E-01
   7156.67  4.1293952E-01
   7157.00  4.1099609E-01
   7157.33  4.0899762E-01
   7157.67  4.0698434E-01
   7158.00  4.0498052E-01
   7158.33  4.0301379E-01
   7158.67  4.0109987E-01
   7159.00  3.9925390E-01
   7159.33  3.9750261E-01
   7159.67  3.9585022E-01
   7160.00  3.9430792E-01
   7160.33  3.9290117E-01
   7160.67  3.9162238E-01
   7161.00  3.9047533E-01
   7161.33  3.8947755E-01
   7161.67  3.8861074E-01
   7162.00  3.8787241E-01
   7162.33  3.8727685E-01
   7162.67  3.8680879E-01
   7163.00  3.8647050E-01
   7163.33  3.8628205E-01
   7163.67  3.8623061E-01
   7164.00  3.8631913E-01
   7164.33  3.8656688E-01
   7164.67  3.8695550E-01
   7165.00  3.8748150E-01
   7165.33  3.8815324E-01
   7165.67  3.8894303E-01
   7166.00  3.8983866E-01
   7166.33  3.9083500E-01
   7166.67  3.9190364E-01
   7167.00  3.9303064E-01
   7167.33  3.9420781E-01
   7167.67  3.9541902E-01
   7168.00  3.9665804E-01
   7168.33  3.9792464E-01
   7168.67  3.9921705E-01
   7169.00  4.0053948E-01
   7169.33  4.0190377E-01
   7169.67  4.0331298E-01
   7170.00  4.0477223E-01
   7170.33  4.0628981E-01
   7170.67  4.0785309E-01
   7171.00  4.0944534E-01
   7171.33  4.1101969E-01
   7171.67  4.1248471E-01
   7172.00  4.1371183E-01
