    FDMNES
    energy     <xanes>
   7097.00  4.7434497E-03
   7097.33  4.8467204E-03
   7097.67  4.9543638E-03
   7098.00  5.0666619E-03
   7098.33  5.1846037E-03
   7098.67  5.3079638E-03
   7099.00  5.4371230E-03
   7099.33  5.5733598E-03
   7099.67  5.7164393E-03
   7100.00  5.8668883E-03
   7100.33  6.0264020E-03
   7100.67  6.1947519E-03
   7101.00  6.3726898E-03
   7101.33  6.5625305E-03
   7101.67  6.7640891E-03
   7102.00  6.9784770E-03
   7102.33  7.2089705E-03
   7102.67  7.4555101E-03
   7103.00  7.7198114E-03
   7103.33  8.0067179E-03
   7103.67  8.3164818E-03
   7104.00  8.6518944E-03
   7104.33  9.0205168E-03
   7104.67  9.4233544E-03
   7105.00  9.8652613E-03
   7105.33  1.0358893E-02
   7105.67  1.0907138E-02
   7106.00  1.1519205E-02
   7106.33  1.2218333E-02
   7106.67  1.3012530E-02
   7107.00  1.3921463E-02
   7107.33  1.4993747E-02
   7107.67  1.6253401E-02
   7108.00  1.7750426E-02
   7108.33  1.9608575E-02
   7108.67  2.1915172E-02
   7109.00  2.4837823E-02
   7109.33  2.8812600E-02
   7109.67  3.4295229E-02
   7110.00  4.2176419E-02
   7110.33  5.5010227E-02
   7110.67  7.5763425E-02
   7111.00  1.0659451E-01
   7111.33  1.4029926E-01
   7111.67  1.6208569E-01
   7112.00  1.7548148E-01
   7112.33  2.0464559E-01
   7112.67  2.5521785E-01
   7113.00  3.1354285E-01
   7113.33  3.6715232E-01
   7113.67  3.8595179E-01
   7114.00  3.4381930E-01
   7114.33  2.6446915E-01
   7114.67  1.9826930E-01
   7115.00  1.6006548E-01
   7115.33  1.4961410E-01
   7115.67  1.5781571E-01
   7116.00  1.7822056E-01
   7116.33  1.9674717E-01
   7116.67  2.0187886E-01
   7117.00  1.9370214E-01
   7117.33  1.7741188E-01
   7117.67  1.6086321E-01
   7118.00  1.4794820E-01
   7118.33  1.4057456E-01
   7118.67  1.3724960E-01
   7119.00  1.3643679E-01
   7119.33  1.3680565E-01
   7119.67  1.3782751E-01
   7120.00  1.3935576E-01
   7120.33  1.3979981E-01
   7120.67  1.3657989E-01
   7121.00  1.2991507E-01
   7121.33  1.2381506E-01
   7121.67  1.2065281E-01
   7122.00  1.2054494E-01
   7122.33  1.2333480E-01
   7122.67  1.2834780E-01
   7123.00  1.3553938E-01
   7123.33  1.4548198E-01
   7123.67  1.5836052E-01
   7124.00  1.7450982E-01
   7124.33  1.9429151E-01
   7124.67  2.1663455E-01
   7125.00  2.4048399E-01
   7125.33  2.6418984E-01
   7125.67  2.8605602E-01
   7126.00  3.0495316E-01
   7126.33  3.1970529E-01
   7126.67  3.3071744E-01
   7127.00  3.3864969E-01
   7127.33  3.4483399E-01
   7127.67  3.5110137E-01
   7128.00  3.5844387E-01
   7128.33  3.6768181E-01
   7128.67  3.7890886E-01
   7129.00  3.9235951E-01
   7129.33  4.0875648E-01
   7129.67  4.2848097E-01
   7130.00  4.5248685E-01
   7130.33  4.8262583E-01
   7130.67  5.1879095E-01
   7131.00  5.6080489E-01
   7131.33  6.0894050E-01
   7131.67  6.6278676E-01
   7132.00  7.2340950E-01
   7132.33  7.9344765E-01
   7132.67  8.7241523E-01
   7133.00  9.5883547E-01
   7133.33  1.0481545E+00
   7133.67  1.1318157E+00
   7134.00  1.2012758E+00
   7134.33  1.2452426E+00
   7134.67  1.2630183E+00
   7135.00  1.2560743E+00
   7135.33  1.2267487E+00
   7135.67  1.1833922E+00
   7136.00  1.1310291E+00
   7136.33  1.0745067E+00
   7136.67  1.0183733E+00
   7137.00  9.6489782E-01
   7137.33  9.1597549E-01
   7137.67  8.7158891E-01
   7138.00  8.3176134E-01
   7138.33  7.9683646E-01
   7138.67  7.6599408E-01
   7139.00  7.3901370E-01
   7139.33  7.1609596E-01
   7139.67  6.9650377E-01
   7140.00  6.7993214E-01
   7140.33  6.6624845E-01
   7140.67  6.5457072E-01
   7141.00  6.4435019E-01
   7141.33  6.3501129E-01
   7141.67  6.2581418E-01
   7142.00  6.1629112E-01
   7142.33  6.0596003E-01
   7142.67  5.9471816E-01
   7143.00  5.8256348E-01
   7143.33  5.6956184E-01
   7143.67  5.5609425E-01
   7144.00  5.4246410E-01
   7144.33  5.2905185E-01
   7144.67  5.1610504E-01
   7145.00  5.0376180E-01
   7145.33  4.9220448E-01
   7145.67  4.8139785E-01
   7146.00  4.7136255E-01
   7146.33  4.6220626E-01
   7146.67  4.5384137E-01
   7147.00  4.4628286E-01
   7147.33  4.3965446E-01
   7147.67  4.3386681E-01
   7148.00  4.2892487E-01
   7148.33  4.2492435E-01
   7148.67  4.2171405E-01
   7149.00  4.1922498E-01
   7149.33  4.1745064E-01
   7149.67  4.1623561E-01
   7150.00  4.1552549E-01
   7150.33  4.1532408E-01
   7150.67  4.1553154E-01
   7151.00  4.1611678E-01
   7151.33  4.1708985E-01
   7151.67  4.1837530E-01
   7152.00  4.1994393E-01
   7152.33  4.2179384E-01
   7152.67  4.2386580E-01
   7153.00  4.2613964E-01
   7153.33  4.2861840E-01
   7153.67  4.3126328E-01
   7154.00  4.3406278E-01
   7154.33  4.3702264E-01
   7154.67  4.4011282E-01
   7155.00  4.4332158E-01
   7155.33  4.4664597E-01
   7155.67  4.5005412E-01
   7156.00  4.5352650E-01
   7156.33  4.5704112E-01
   7156.67  4.6056228E-01
   7157.00  4.6406060E-01
   7157.33  4.6749362E-01
   7157.67  4.7083516E-01
   7158.00  4.7406031E-01
   7158.33  4.7712996E-01
   7158.67  4.8004883E-01
   7159.00  4.8281396E-01
   7159.33  4.8541197E-01
   7159.67  4.8787322E-01
   7160.00  4.9021107E-01
   7160.33  4.9243037E-01
   7160.67  4.9456225E-01
   7161.00  4.9662007E-01
   7161.33  4.9860894E-01
   7161.67  5.0054768E-01
   7162.00  5.0244037E-01
   7162.33  5.0426916E-01
   7162.67  5.0601644E-01
   7163.00  5.0765584E-01
   7163.33  5.0913291E-01
   7163.67  5.1042266E-01
   7164.00  5.1148485E-01
   7164.33  5.1223742E-01
   7164.67  5.1266996E-01
   7165.00  5.1274942E-01
   7165.33  5.1239883E-01
   7165.67  5.1165065E-01
   7166.00  5.1050504E-01
   7166.33  5.0893018E-01
   7166.67  5.0700580E-01
   7167.00  5.0477106E-01
   7167.33  5.0224892E-01
   7167.67  4.9953078E-01
   7168.00  4.9666799E-01
   7168.33  4.9370882E-01
   7168.67  4.9072328E-01
   7169.00  4.8775619E-01
   7169.33  4.8485388E-01
   7169.67  4.8203876E-01
   7170.00  4.7933224E-01
   7170.33  4.7677285E-01
   7170.67  4.7436583E-01
   7171.00  4.7213267E-01
   7171.33  4.7013584E-01
   7171.67  4.6841062E-01
   7172.00  4.6703344E-01
