    FDMNES
    energy     <xanes>
   7097.00  4.7174951E-03
   7097.33  4.8213430E-03
   7097.67  4.9295658E-03
   7098.00  5.0424427E-03
   7098.33  5.1609574E-03
   7098.67  5.2848802E-03
   7099.00  5.4145862E-03
   7099.33  5.5513435E-03
   7099.67  5.6949110E-03
   7100.00  5.8458059E-03
   7100.33  6.0057033E-03
   7100.67  6.1743656E-03
   7101.00  6.3525278E-03
   7101.33  6.5424675E-03
   7101.67  6.7439847E-03
   7102.00  6.9581611E-03
   7102.33  7.1882035E-03
   7102.67  7.4340258E-03
   7103.00  7.6972873E-03
   7103.33  7.9826999E-03
   7103.67  8.2904625E-03
   7104.00  8.6232554E-03
   7104.33  8.9883768E-03
   7104.67  9.3867152E-03
   7105.00  9.8228869E-03
   7105.33  1.0308984E-02
   7105.67  1.0847606E-02
   7106.00  1.1447396E-02
   7106.33  1.2130256E-02
   7106.67  1.2903360E-02
   7107.00  1.3784840E-02
   7107.33  1.4819587E-02
   7107.67  1.6028770E-02
   7108.00  1.7457221E-02
   7108.33  1.9215672E-02
   7108.67  2.1378618E-02
   7109.00  2.4089893E-02
   7109.33  2.7720142E-02
   7109.67  3.2637846E-02
   7110.00  3.9559196E-02
   7110.33  5.0519588E-02
   7110.67  6.7955881E-02
   7111.00  9.4404622E-02
   7111.33  1.2689293E-01
   7111.67  1.5496216E-01
   7112.00  1.8099462E-01
   7112.33  2.0648140E-01
   7112.67  2.4381356E-01
   7113.00  3.0523378E-01
   7113.33  3.6262258E-01
   7113.67  3.8338544E-01
   7114.00  3.6632453E-01
   7114.33  3.2995325E-01
   7114.67  2.7581978E-01
   7115.00  2.1371934E-01
   7115.33  1.6851484E-01
   7115.67  1.4652815E-01
   7116.00  1.4234788E-01
   7116.33  1.3905948E-01
   7116.67  1.3261051E-01
   7117.00  1.3346890E-01
   7117.33  1.4106490E-01
   7117.67  1.4291094E-01
   7118.00  1.3529602E-01
   7118.33  1.2470524E-01
   7118.67  1.1696651E-01
   7119.00  1.1220550E-01
   7119.33  1.0891558E-01
   7119.67  1.0694619E-01
   7120.00  1.0687344E-01
   7120.33  1.0830015E-01
   7120.67  1.1014111E-01
   7121.00  1.1296157E-01
   7121.33  1.1882755E-01
   7121.67  1.2855475E-01
   7122.00  1.4214511E-01
   7122.33  1.5849486E-01
   7122.67  1.7476499E-01
   7123.00  1.8954024E-01
   7123.33  2.0371187E-01
   7123.67  2.1966974E-01
   7124.00  2.3856849E-01
   7124.33  2.6032232E-01
   7124.67  2.8258478E-01
   7125.00  3.0295889E-01
   7125.33  3.1921179E-01
   7125.67  3.3294473E-01
   7126.00  3.4699933E-01
   7126.33  3.6382148E-01
   7126.67  3.8215695E-01
   7127.00  3.9976890E-01
   7127.33  4.1458648E-01
   7127.67  4.2710326E-01
   7128.00  4.3877880E-01
   7128.33  4.5246435E-01
   7128.67  4.7001886E-01
   7129.00  4.9213184E-01
   7129.33  5.1965410E-01
   7129.67  5.5216226E-01
   7130.00  5.8932657E-01
   7130.33  6.2959365E-01
   7130.67  6.6927018E-01
   7131.00  7.0632309E-01
   7131.33  7.4243453E-01
   7131.67  7.8312902E-01
   7132.00  8.3258508E-01
   7132.33  8.9385123E-01
   7132.67  9.6363901E-01
   7133.00  1.0376510E+00
   7133.33  1.1087739E+00
   7133.67  1.1703599E+00
   7134.00  1.2173797E+00
   7134.33  1.2436653E+00
   7134.67  1.2506252E+00
   7135.00  1.2401661E+00
   7135.33  1.2151845E+00
   7135.67  1.1821482E+00
   7136.00  1.1437735E+00
   7136.33  1.1006600E+00
   7136.67  1.0538548E+00
   7137.00  1.0045041E+00
   7137.33  9.5472774E-01
   7137.67  9.0674222E-01
   7138.00  8.6180896E-01
   7138.33  8.2102294E-01
   7138.67  7.8391521E-01
   7139.00  7.5020142E-01
   7139.33  7.1979524E-01
   7139.67  6.9186861E-01
   7140.00  6.6607418E-01
   7140.33  6.4231016E-01
   7140.67  6.2011225E-01
   7141.00  5.9934080E-01
   7141.33  5.8005445E-01
   7141.67  5.6202296E-01
   7142.00  5.4520871E-01
   7142.33  5.2971896E-01
   7142.67  5.1535955E-01
   7143.00  5.0207723E-01
   7143.33  4.8991080E-01
   7143.67  4.7862608E-01
   7144.00  4.6810901E-01
   7144.33  4.5829077E-01
   7144.67  4.4895345E-01
   7145.00  4.3999585E-01
   7145.33  4.3137212E-01
   7145.67  4.2300922E-01
   7146.00  4.1491562E-01
   7146.33  4.0717972E-01
   7146.67  3.9983835E-01
   7147.00  3.9296469E-01
   7147.33  3.8670023E-01
   7147.67  3.8102195E-01
   7148.00  3.7593703E-01
   7148.33  3.7148792E-01
   7148.67  3.6754837E-01
   7149.00  3.6406566E-01
   7149.33  3.6104595E-01
   7149.67  3.5842497E-01
   7150.00  3.5622427E-01
   7150.33  3.5455546E-01
   7150.67  3.5341741E-01
   7151.00  3.5284249E-01
   7151.33  3.5289759E-01
   7151.67  3.5345936E-01
   7152.00  3.5444651E-01
   7152.33  3.5577014E-01
   7152.67  3.5724656E-01
   7153.00  3.5875459E-01
   7153.33  3.6016695E-01
   7153.67  3.6141019E-01
   7154.00  3.6243985E-01
   7154.33  3.6320345E-01
   7154.67  3.6373075E-01
   7155.00  3.6403245E-01
   7155.33  3.6409901E-01
   7155.67  3.6397761E-01
   7156.00  3.6369067E-01
   7156.33  3.6323887E-01
   7156.67  3.6265587E-01
   7157.00  3.6195911E-01
   7157.33  3.6116762E-01
   7157.67  3.6033401E-01
   7158.00  3.5950475E-01
   7158.33  3.5875200E-01
   7158.67  3.5813561E-01
   7159.00  3.5771358E-01
   7159.33  3.5757899E-01
   7159.67  3.5774834E-01
   7160.00  3.5824974E-01
   7160.33  3.5914230E-01
   7160.67  3.6038075E-01
   7161.00  3.6195154E-01
   7161.33  3.6386591E-01
   7161.67  3.6605071E-01
   7162.00  3.6847273E-01
   7162.33  3.7111823E-01
   7162.67  3.7392728E-01
   7163.00  3.7687039E-01
   7163.33  3.7992638E-01
   7163.67  3.8305672E-01
   7164.00  3.8624311E-01
   7164.33  3.8946974E-01
   7164.67  3.9271144E-01
   7165.00  3.9594974E-01
   7165.33  3.9915926E-01
   7165.67  4.0232031E-01
   7166.00  4.0541296E-01
   7166.33  4.0840397E-01
   7166.67  4.1128516E-01
   7167.00  4.1404257E-01
   7167.33  4.1664806E-01
   7167.67  4.1911384E-01
   7168.00  4.2144124E-01
   7168.33  4.2362082E-01
   7168.67  4.2567962E-01
   7169.00  4.2762818E-01
   7169.33  4.2946729E-01
   7169.67  4.3122135E-01
   7170.00  4.3289916E-01
   7170.33  4.3449907E-01
   7170.67  4.3603147E-01
   7171.00  4.3749141E-01
   7171.33  4.3884746E-01
   7171.67  4.4006266E-01
   7172.00  4.4106568E-01
