    FDMNES
    energy     <xanes>
   7097.00  4.4297569E-03
   7097.33  4.5320563E-03
   7097.67  4.6391460E-03
   7098.00  4.7513765E-03
   7098.33  4.8699028E-03
   7098.67  4.9945382E-03
   7099.00  5.1257752E-03
   7099.33  5.2651659E-03
   7099.67  5.4125398E-03
   7100.00  5.5686109E-03
   7100.33  5.7355322E-03
   7100.67  5.9131909E-03
   7101.00  6.1026610E-03
   7101.33  6.3070443E-03
   7101.67  6.5263758E-03
   7102.00  6.7623435E-03
   7102.33  7.0196235E-03
   7102.67  7.2986010E-03
   7103.00  7.6020729E-03
   7103.33  7.9374896E-03
   7103.67  8.3060612E-03
   7104.00  8.7127326E-03
   7104.33  9.1702199E-03
   7104.67  9.6817522E-03
   7105.00  1.0256817E-02
   7105.33  1.0919113E-02
   7105.67  1.1677194E-02
   7106.00  1.2551315E-02
   7106.33  1.3591088E-02
   7106.67  1.4820878E-02
   7107.00  1.6290693E-02
   7107.33  1.8122615E-02
   7107.67  2.0397096E-02
   7108.00  2.3266390E-02
   7108.33  2.7112064E-02
   7108.67  3.2276321E-02
   7109.00  3.9399579E-02
   7109.33  5.0222450E-02
   7109.67  6.6950749E-02
   7110.00  9.3975014E-02
   7110.33  1.4405973E-01
   7110.67  2.2837529E-01
   7111.00  3.3168747E-01
   7111.33  3.5970962E-01
   7111.67  3.2697127E-01
   7112.00  2.9986212E-01
   7112.33  2.7612911E-01
   7112.67  2.3611049E-01
   7113.00  1.8641881E-01
   7113.33  1.4212674E-01
   7113.67  1.0932864E-01
   7114.00  8.8146199E-02
   7114.33  7.6719506E-02
   7114.67  7.0953467E-02
   7115.00  6.6852582E-02
   7115.33  6.0545643E-02
   7115.67  5.5167258E-02
   7116.00  5.1985575E-02
   7116.33  4.8940688E-02
   7116.67  4.5191707E-02
   7117.00  4.1895137E-02
   7117.33  4.0037493E-02
   7117.67  3.9428033E-02
   7118.00  3.9872784E-02
   7118.33  4.1292531E-02
   7118.67  4.3442903E-02
   7119.00  4.6232989E-02
   7119.33  4.9725040E-02
   7119.67  5.4087528E-02
   7120.00  5.9773191E-02
   7120.33  6.7689733E-02
   7120.67  7.8384158E-02
   7121.00  9.2638745E-02
   7121.33  1.1057734E-01
   7121.67  1.2708768E-01
   7122.00  1.3583322E-01
   7122.33  1.3501739E-01
   7122.67  1.3104711E-01
   7123.00  1.2791645E-01
   7123.33  1.2908376E-01
   7123.67  1.3546632E-01
   7124.00  1.4740695E-01
   7124.33  1.6574360E-01
   7124.67  1.9001475E-01
   7125.00  2.2058811E-01
   7125.33  2.5832436E-01
   7125.67  3.0011379E-01
   7126.00  3.4013367E-01
   7126.33  3.6870510E-01
   7126.67  3.8479442E-01
   7127.00  3.9081377E-01
   7127.33  3.8781322E-01
   7127.67  3.8017276E-01
   7128.00  3.7318371E-01
   7128.33  3.7254844E-01
   7128.67  3.7978323E-01
   7129.00  3.9529525E-01
   7129.33  4.1940751E-01
   7129.67  4.5004588E-01
   7130.00  4.8638669E-01
   7130.33  5.2859177E-01
   7130.67  5.7622614E-01
   7131.00  6.3012983E-01
   7131.33  6.9242004E-01
   7131.67  7.6047018E-01
   7132.00  8.2505176E-01
   7132.33  8.6171053E-01
   7132.67  8.6369485E-01
   7133.00  8.4689566E-01
   7133.33  8.3642750E-01
   7133.67  8.4252266E-01
   7134.00  8.6675471E-01
   7134.33  9.1209170E-01
   7134.67  9.7835104E-01
   7135.00  1.0671629E+00
   7135.33  1.1743052E+00
   7135.67  1.2686979E+00
   7136.00  1.3068974E+00
   7136.33  1.2496836E+00
   7136.67  1.1382930E+00
   7137.00  1.0162179E+00
   7137.33  9.1371124E-01
   7137.67  8.3363979E-01
   7138.00  7.7291016E-01
   7138.33  7.2849404E-01
   7138.67  6.9465893E-01
   7139.00  6.6903185E-01
   7139.33  6.5054223E-01
   7139.67  6.3721774E-01
   7140.00  6.2841786E-01
   7140.33  6.2418608E-01
   7140.67  6.2374620E-01
   7141.00  6.2695521E-01
   7141.33  6.3411208E-01
   7141.67  6.4458608E-01
   7142.00  6.5809993E-01
   7142.33  6.7441302E-01
   7142.67  6.9230481E-01
   7143.00  7.1066447E-01
   7143.33  7.2774571E-01
   7143.67  7.4193834E-01
   7144.00  7.5182307E-01
   7144.33  7.5548404E-01
   7144.67  7.5315019E-01
   7145.00  7.4512059E-01
   7145.33  7.3183474E-01
   7145.67  7.1531507E-01
   7146.00  6.9685688E-01
   7146.33  6.7771881E-01
   7146.67  6.5899101E-01
   7147.00  6.4126487E-01
   7147.33  6.2512154E-01
   7147.67  6.1055270E-01
   7148.00  5.9755762E-01
   7148.33  5.8620909E-01
   7148.67  5.7613631E-01
   7149.00  5.6714063E-01
   7149.33  5.5907695E-01
   7149.67  5.5158338E-01
   7150.00  5.4443241E-01
   7150.33  5.3737168E-01
   7150.67  5.3014072E-01
   7151.00  5.2253846E-01
   7151.33  5.1428036E-01
   7151.67  5.0525996E-01
   7152.00  4.9535360E-01
   7152.33  4.8433631E-01
   7152.67  4.7227059E-01
   7153.00  4.5914144E-01
   7153.33  4.4486049E-01
   7153.67  4.2966752E-01
   7154.00  4.1372679E-01
   7154.33  3.9726072E-01
   7154.67  3.8066286E-01
   7155.00  3.6423462E-01
   7155.33  3.4838411E-01
   7155.67  3.3336398E-01
   7156.00  3.1940794E-01
   7156.33  3.0688362E-01
   7156.67  2.9576405E-01
   7157.00  2.8610280E-01
   7157.33  2.7808220E-01
   7157.67  2.7146684E-01
   7158.00  2.6618191E-01
   7158.33  2.6227265E-01
   7158.67  2.5946899E-01
   7159.00  2.5767037E-01
   7159.33  2.5687751E-01
   7159.67  2.5687918E-01
   7160.00  2.5760088E-01
   7160.33  2.5904670E-01
   7160.67  2.6107107E-01
   7161.00  2.6362884E-01
   7161.33  2.6674044E-01
   7161.67  2.7031355E-01
   7162.00  2.7433066E-01
   7162.33  2.7883201E-01
   7162.67  2.8374713E-01
   7163.00  2.8904908E-01
   7163.33  2.9471863E-01
   7163.67  3.0061036E-01
   7164.00  3.0659423E-01
   7164.33  3.1246900E-01
   7164.67  3.1804338E-01
   7165.00  3.2315924E-01
   7165.33  3.2760849E-01
   7165.67  3.3140515E-01
   7166.00  3.3456001E-01
   7166.33  3.3707609E-01
   7166.67  3.3914308E-01
   7167.00  3.4088041E-01
   7167.33  3.4240685E-01
   7167.67  3.4387801E-01
   7168.00  3.4539318E-01
   7168.33  3.4706620E-01
   7168.67  3.4895320E-01
   7169.00  3.5109952E-01
   7169.33  3.5357489E-01
   7169.67  3.5635446E-01
   7170.00  3.5942950E-01
   7170.33  3.6279955E-01
   7170.67  3.6637151E-01
   7171.00  3.7006574E-01
   7171.33  3.7373417E-01
   7171.67  3.7713709E-01
   7172.00  3.7997243E-01
