    FDMNES
    energy     <xanes>
   7097.00  5.3062727E-03
   7097.33  5.4376207E-03
   7097.67  5.5751000E-03
   7098.00  5.7191324E-03
   7098.33  5.8711480E-03
   7098.67  6.0308657E-03
   7099.00  6.1988615E-03
   7099.33  6.3770120E-03
   7099.67  6.5650312E-03
   7100.00  6.7637271E-03
   7100.33  6.9756269E-03
   7100.67  7.2004692E-03
   7101.00  7.4394236E-03
   7101.33  7.6959990E-03
   7101.67  7.9700249E-03
   7102.00  8.2632565E-03
   7102.33  8.5807493E-03
   7102.67  8.9225691E-03
   7103.00  9.2914689E-03
   7103.33  9.6950668E-03
   7103.67  1.0133994E-02
   7104.00  1.0612808E-02
   7104.33  1.1143647E-02
   7104.67  1.1728492E-02
   7105.00  1.2375418E-02
   7105.33  1.3105192E-02
   7105.67  1.3923167E-02
   7106.00  1.4844962E-02
   7106.33  1.5909624E-02
   7106.67  1.7131699E-02
   7107.00  1.8545255E-02
   7107.33  2.0234010E-02
   7107.67  2.2241502E-02
   7108.00  2.4656207E-02
   7108.33  2.7696707E-02
   7108.67  3.1522360E-02
   7109.00  3.6436341E-02
   7109.33  4.3229289E-02
   7109.67  5.2744979E-02
   7110.00  6.6628338E-02
   7110.33  8.9520708E-02
   7110.67  1.2593188E-01
   7111.00  1.7616088E-01
   7111.33  2.3033364E-01
   7111.67  2.8776074E-01
   7112.00  3.5298943E-01
   7112.33  4.2033634E-01
   7112.67  4.7947051E-01
   7113.00  5.2480453E-01
   7113.33  5.3120396E-01
   7113.67  4.8583998E-01
   7114.00  4.0575730E-01
   7114.33  3.2352611E-01
   7114.67  2.5665887E-01
   7115.00  2.0746846E-01
   7115.33  1.7470623E-01
   7115.67  1.5241711E-01
   7116.00  1.3769869E-01
   7116.33  1.2845626E-01
   7116.67  1.2214424E-01
   7117.00  1.1810489E-01
   7117.33  1.1676287E-01
   7117.67  1.1802005E-01
   7118.00  1.2166471E-01
   7118.33  1.2694673E-01
   7118.67  1.3227614E-01
   7119.00  1.3689458E-01
   7119.33  1.4112368E-01
   7119.67  1.4601783E-01
   7120.00  1.5207677E-01
   7120.33  1.5916696E-01
   7120.67  1.6637586E-01
   7121.00  1.7350787E-01
   7121.33  1.8194818E-01
   7121.67  1.9380140E-01
   7122.00  2.1106044E-01
   7122.33  2.3633100E-01
   7122.67  2.6889451E-01
   7123.00  3.0686124E-01
   7123.33  3.4627439E-01
   7123.67  3.8384213E-01
   7124.00  4.1943907E-01
   7124.33  4.5438602E-01
   7124.67  4.8967549E-01
   7125.00  5.2519175E-01
   7125.33  5.5976632E-01
   7125.67  5.9180983E-01
   7126.00  6.1990323E-01
   7126.33  6.4263534E-01
   7126.67  6.6076875E-01
   7127.00  6.7439017E-01
   7127.33  6.8197320E-01
   7127.67  6.8310253E-01
   7128.00  6.7792628E-01
   7128.33  6.6807192E-01
   7128.67  6.5767167E-01
   7129.00  6.4987955E-01
   7129.33  6.4808697E-01
   7129.67  6.5302431E-01
   7130.00  6.6492964E-01
   7130.33  6.8402706E-01
   7130.67  7.0820538E-01
   7131.00  7.3577821E-01
   7131.33  7.6422304E-01
   7131.67  7.9034068E-01
   7132.00  8.1158276E-01
   7132.33  8.2511200E-01
   7132.67  8.3134735E-01
   7133.00  8.3090198E-01
   7133.33  8.2414118E-01
   7133.67  8.1258471E-01
   7134.00  7.9669142E-01
   7134.33  7.7667355E-01
   7134.67  7.5422026E-01
   7135.00  7.3085710E-01
   7135.33  7.0867562E-01
   7135.67  6.8921668E-01
   7136.00  6.7339852E-01
   7136.33  6.6204671E-01
   7136.67  6.5426044E-01
   7137.00  6.4926528E-01
   7137.33  6.4609812E-01
   7137.67  6.4336242E-01
   7138.00  6.4019991E-01
   7138.33  6.3579461E-01
   7138.67  6.2996775E-01
   7139.00  6.2265827E-01
   7139.33  6.1367001E-01
   7139.67  6.0313004E-01
   7140.00  5.9095423E-01
   7140.33  5.7690685E-01
   7140.67  5.6138006E-01
   7141.00  5.4475603E-01
   7141.33  5.2763389E-01
   7141.67  5.1080806E-01
   7142.00  4.9486219E-01
   7142.33  4.8049772E-01
   7142.67  4.6786879E-01
   7143.00  4.5712177E-01
   7143.33  4.4854964E-01
   7143.67  4.4186844E-01
   7144.00  4.3698853E-01
   7144.33  4.3396709E-01
   7144.67  4.3241375E-01
   7145.00  4.3215118E-01
   7145.33  4.3308964E-01
   7145.67  4.3486174E-01
   7146.00  4.3726650E-01
   7146.33  4.4013087E-01
   7146.67  4.4319937E-01
   7147.00  4.4631747E-01
   7147.33  4.4931985E-01
   7147.67  4.5209666E-01
   7148.00  4.5456440E-01
   7148.33  4.5659949E-01
   7148.67  4.5819303E-01
   7149.00  4.5930654E-01
   7149.33  4.5983606E-01
   7149.67  4.5980953E-01
   7150.00  4.5919541E-01
   7150.33  4.5787668E-01
   7150.67  4.5588953E-01
   7151.00  4.5319565E-01
   7151.33  4.4965788E-01
   7151.67  4.4533643E-01
   7152.00  4.4021923E-01
   7152.33  4.3422531E-01
   7152.67  4.2751176E-01
   7153.00  4.2016891E-01
   7153.33  4.1228473E-01
   7153.67  4.0410295E-01
   7154.00  3.9579648E-01
   7154.33  3.8757568E-01
   7154.67  3.7961355E-01
   7155.00  3.7204097E-01
   7155.33  3.6503585E-01
   7155.67  3.5861009E-01
   7156.00  3.5279933E-01
   7156.33  3.4769488E-01
   7156.67  3.4320566E-01
   7157.00  3.3930520E-01
   7157.33  3.3602006E-01
   7157.67  3.3323437E-01
   7158.00  3.3090631E-01
   7158.33  3.2904192E-01
   7158.67  3.2755137E-01
   7159.00  3.2640883E-01
   7159.33  3.2563337E-01
   7159.67  3.2517087E-01
   7160.00  3.2501572E-01
   7160.33  3.2520550E-01
   7160.67  3.2570443E-01
   7161.00  3.2651476E-01
   7161.33  3.2767710E-01
   7161.67  3.2914775E-01
   7162.00  3.3091605E-01
   7162.33  3.3300606E-01
   7162.67  3.3536942E-01
   7163.00  3.3798977E-01
   7163.33  3.4086783E-01
   7163.67  3.4394452E-01
   7164.00  3.4719367E-01
   7164.33  3.5060075E-01
   7164.67  3.5411462E-01
   7165.00  3.5770567E-01
   7165.33  3.6134629E-01
   7165.67  3.6500129E-01
   7166.00  3.6864838E-01
   7166.33  3.7226181E-01
   7166.67  3.7582743E-01
   7167.00  3.7933321E-01
   7167.33  3.8276035E-01
   7167.67  3.8611115E-01
   7168.00  3.8938246E-01
   7168.33  3.9256308E-01
   7168.67  3.9566433E-01
   7169.00  3.9868844E-01
   7169.33  4.0162948E-01
   7169.67  4.0449967E-01
   7170.00  4.0730010E-01
   7170.33  4.1001964E-01
   7170.67  4.1265797E-01
   7171.00  4.1519623E-01
   7171.33  4.1756941E-01
   7171.67  4.1969894E-01
   7172.00  4.2145015E-01
