    FDMNES
    energy     <xanes>
   7097.00  5.2586175E-03
   7097.33  5.3868023E-03
   7097.67  5.5209269E-03
   7098.00  5.6613983E-03
   7098.33  5.8095994E-03
   7098.67  5.9652556E-03
   7099.00  6.1289224E-03
   7099.33  6.3024124E-03
   7099.67  6.4854459E-03
   7100.00  6.6788013E-03
   7100.33  6.8849177E-03
   7100.67  7.1035386E-03
   7101.00  7.3357904E-03
   7101.33  7.5850578E-03
   7101.67  7.8511723E-03
   7102.00  8.1358257E-03
   7102.33  8.4438957E-03
   7102.67  8.7754455E-03
   7103.00  9.1331355E-03
   7103.33  9.5243290E-03
   7103.67  9.9496536E-03
   7104.00  1.0413538E-02
   7104.33  1.0927774E-02
   7104.67  1.1494364E-02
   7105.00  1.2121243E-02
   7105.33  1.2828813E-02
   7105.67  1.3622611E-02
   7106.00  1.4518333E-02
   7106.33  1.5555203E-02
   7106.67  1.6748877E-02
   7107.00  1.8135017E-02
   7107.33  1.9801529E-02
   7107.67  2.1798513E-02
   7108.00  2.4225845E-02
   7108.33  2.7333792E-02
   7108.67  3.1328144E-02
   7109.00  3.6601627E-02
   7109.33  4.4218727E-02
   7109.67  5.5486840E-02
   7110.00  7.3013715E-02
   7110.33  1.0411102E-01
   7110.67  1.5235696E-01
   7111.00  1.9893634E-01
   7111.33  2.0110770E-01
   7111.67  2.0350228E-01
   7112.00  2.3450442E-01
   7112.33  2.8605141E-01
   7112.67  3.5800144E-01
   7113.00  4.6519338E-01
   7113.33  5.3558046E-01
   7113.67  4.8721166E-01
   7114.00  3.7145193E-01
   7114.33  2.7688001E-01
   7114.67  2.1878406E-01
   7115.00  1.8948739E-01
   7115.33  1.8377991E-01
   7115.67  1.9698249E-01
   7116.00  2.3127999E-01
   7116.33  2.9121904E-01
   7116.67  3.5540175E-01
   7117.00  3.9059969E-01
   7117.33  3.9409664E-01
   7117.67  3.8842327E-01
   7118.00  3.6047115E-01
   7118.33  3.0461246E-01
   7118.67  2.4949505E-01
   7119.00  2.0819001E-01
   7119.33  1.8287938E-01
   7119.67  1.6760982E-01
   7120.00  1.5903944E-01
   7120.33  1.5484448E-01
   7120.67  1.5254466E-01
   7121.00  1.5155623E-01
   7121.33  1.5323905E-01
   7121.67  1.5874655E-01
   7122.00  1.6833040E-01
   7122.33  1.8110347E-01
   7122.67  1.9480180E-01
   7123.00  2.0825492E-01
   7123.33  2.2092366E-01
   7123.67  2.3292592E-01
   7124.00  2.4426238E-01
   7124.33  2.5496798E-01
   7124.67  2.6553624E-01
   7125.00  2.7648648E-01
   7125.33  2.8857345E-01
   7125.67  3.0219310E-01
   7126.00  3.1746963E-01
   7126.33  3.3413714E-01
   7126.67  3.5153812E-01
   7127.00  3.6948749E-01
   7127.33  3.8773249E-01
   7127.67  4.0569869E-01
   7128.00  4.2292193E-01
   7128.33  4.3910092E-01
   7128.67  4.5496720E-01
   7129.00  4.7156213E-01
   7129.33  4.8987359E-01
   7129.67  5.0900174E-01
   7130.00  5.2730437E-01
   7130.33  5.4341072E-01
   7130.67  5.5805343E-01
   7131.00  5.7170163E-01
   7131.33  5.8422251E-01
   7131.67  5.9564603E-01
   7132.00  6.0598687E-01
   7132.33  6.1539524E-01
   7132.67  6.2472373E-01
   7133.00  6.3503261E-01
   7133.33  6.4810055E-01
   7133.67  6.6489545E-01
   7134.00  6.8591486E-01
   7134.33  7.1092425E-01
   7134.67  7.3720143E-01
   7135.00  7.6190590E-01
   7135.33  7.8127470E-01
   7135.67  7.9404964E-01
   7136.00  8.0001348E-01
   7136.33  7.9924291E-01
   7136.67  7.9354213E-01
   7137.00  7.8356730E-01
   7137.33  7.6941426E-01
   7137.67  7.5214753E-01
   7138.00  7.3249932E-01
   7138.33  7.1150926E-01
   7138.67  6.9076086E-01
   7139.00  6.7149672E-01
   7139.33  6.5529913E-01
   7139.67  6.4270608E-01
   7140.00  6.3414009E-01
   7140.33  6.3023321E-01
   7140.67  6.3021178E-01
   7141.00  6.3359973E-01
   7141.33  6.3992809E-01
   7141.67  6.4789415E-01
   7142.00  6.5659732E-01
   7142.33  6.6499831E-01
   7142.67  6.7229600E-01
   7143.00  6.7798745E-01
   7143.33  6.8153563E-01
   7143.67  6.8316545E-01
   7144.00  6.8304149E-01
   7144.33  6.8130007E-01
   7144.67  6.7849057E-01
   7145.00  6.7492242E-01
   7145.33  6.7085310E-01
   7145.67  6.6658134E-01
   7146.00  6.6225670E-01
   7146.33  6.5799956E-01
   7146.67  6.5386257E-01
   7147.00  6.4986689E-01
   7147.33  6.4603330E-01
   7147.67  6.4233522E-01
   7148.00  6.3876156E-01
   7148.33  6.3531259E-01
   7148.67  6.3196414E-01
   7149.00  6.2871201E-01
   7149.33  6.2556912E-01
   7149.67  6.2253078E-01
   7150.00  6.1960879E-01
   7150.33  6.1683877E-01
   7150.67  6.1422558E-01
   7151.00  6.1178779E-01
   7151.33  6.0956703E-01
   7151.67  6.0754827E-01
   7152.00  6.0573016E-01
   7152.33  6.0412066E-01
   7152.67  6.0266787E-01
   7153.00  6.0134101E-01
   7153.33  6.0010015E-01
   7153.67  5.9887229E-01
   7154.00  5.9760174E-01
   7154.33  5.9621332E-01
   7154.67  5.9466417E-01
   7155.00  5.9291290E-01
   7155.33  5.9088994E-01
   7155.67  5.8860046E-01
   7156.00  5.8603535E-01
   7156.33  5.8315929E-01
   7156.67  5.8001361E-01
   7157.00  5.7660963E-01
   7157.33  5.7293506E-01
   7157.67  5.6904039E-01
   7158.00  5.6494367E-01
   7158.33  5.6064271E-01
   7158.67  5.5617983E-01
   7159.00  5.5157090E-01
   7159.33  5.4681599E-01
   7159.67  5.4194484E-01
   7160.00  5.3696714E-01
   7160.33  5.3188030E-01
   7160.67  5.2670522E-01
   7161.00  5.2144967E-01
   7161.33  5.1611433E-01
   7161.67  5.1071889E-01
   7162.00  5.0527574E-01
   7162.33  4.9979954E-01
   7162.67  4.9431495E-01
   7163.00  4.8884318E-01
   7163.33  4.8341801E-01
   7163.67  4.7806471E-01
   7164.00  4.7280886E-01
   7164.33  4.6769489E-01
   7164.67  4.6273320E-01
   7165.00  4.5794387E-01
   7165.33  4.5336849E-01
   7165.67  4.4899073E-01
   7166.00  4.4480839E-01
   7166.33  4.4083237E-01
   7166.67  4.3701946E-01
   7167.00  4.3334751E-01
   7167.33  4.2980194E-01
   7167.67  4.2634005E-01
   7168.00  4.2293685E-01
   7168.33  4.1957065E-01
   7168.67  4.1622097E-01
   7169.00  4.1288028E-01
   7169.33  4.0954705E-01
   7169.67  4.0622563E-01
   7170.00  4.0292661E-01
   7170.33  3.9967538E-01
   7170.67  3.9649887E-01
   7171.00  3.9343880E-01
   7171.33  3.9059297E-01
   7171.67  3.8805922E-01
   7172.00  3.8598577E-01
