    FDMNES
    energy     <xanes>
   7097.00  5.5066139E-03
   7097.33  5.6458545E-03
   7097.67  5.7918179E-03
   7098.00  5.9449806E-03
   7098.33  6.1069349E-03
   7098.67  6.2773919E-03
   7099.00  6.4570069E-03
   7099.33  6.6478847E-03
   7099.67  6.8497367E-03
   7100.00  7.0634888E-03
   7100.33  7.2919976E-03
   7100.67  7.5350116E-03
   7101.00  7.7938802E-03
   7101.33  8.0726036E-03
   7101.67  8.3710486E-03
   7102.00  8.6912559E-03
   7102.33  9.0390403E-03
   7102.67  9.4145657E-03
   7103.00  9.8210590E-03
   7103.33  1.0267367E-02
   7103.67  1.0754356E-02
   7104.00  1.1287415E-02
   7104.33  1.1880789E-02
   7104.67  1.2537016E-02
   7105.00  1.3265736E-02
   7105.33  1.4091601E-02
   7105.67  1.5021325E-02
   7106.00  1.6073762E-02
   7106.33  1.7295827E-02
   7106.67  1.8705649E-02
   7107.00  2.0344772E-02
   7107.33  2.2314954E-02
   7107.67  2.4670208E-02
   7108.00  2.7518991E-02
   7108.33  3.1128236E-02
   7108.67  3.5692230E-02
   7109.00  4.1577043E-02
   7109.33  4.9726016E-02
   7109.67  6.1109583E-02
   7110.00  7.7593393E-02
   7110.33  1.0449840E-01
   7110.67  1.4874697E-01
   7111.00  2.2044538E-01
   7111.33  3.3032107E-01
   7111.67  4.4706395E-01
   7112.00  5.0042886E-01
   7112.33  4.9414626E-01
   7112.67  4.6660475E-01
   7113.00  4.0810568E-01
   7113.33  3.5584396E-01
   7113.67  3.5134030E-01
   7114.00  3.7051221E-01
   7114.33  3.4263630E-01
   7114.67  2.8256669E-01
   7115.00  2.3520677E-01
   7115.33  2.1982675E-01
   7115.67  2.3200870E-01
   7116.00  2.7097841E-01
   7116.33  3.2673538E-01
   7116.67  3.5975832E-01
   7117.00  3.5383844E-01
   7117.33  3.3702566E-01
   7117.67  3.1927427E-01
   7118.00  2.8722134E-01
   7118.33  2.4483948E-01
   7118.67  2.0866270E-01
   7119.00  1.8297311E-01
   7119.33  1.6708154E-01
   7119.67  1.5594505E-01
   7120.00  1.4669393E-01
   7120.33  1.3921969E-01
   7120.67  1.3448826E-01
   7121.00  1.3235403E-01
   7121.33  1.3193796E-01
   7121.67  1.3261934E-01
   7122.00  1.3481292E-01
   7122.33  1.4017633E-01
   7122.67  1.4980718E-01
   7123.00  1.6410148E-01
   7123.33  1.8288023E-01
   7123.67  2.0439236E-01
   7124.00  2.2743158E-01
   7124.33  2.5038133E-01
   7124.67  2.7144138E-01
   7125.00  2.8922339E-01
   7125.33  3.0249513E-01
   7125.67  3.1243124E-01
   7126.00  3.2051128E-01
   7126.33  3.2857113E-01
   7126.67  3.3779587E-01
   7127.00  3.4862027E-01
   7127.33  3.6140148E-01
   7127.67  3.7580196E-01
   7128.00  3.9160205E-01
   7128.33  4.0877914E-01
   7128.67  4.2715958E-01
   7129.00  4.4657959E-01
   7129.33  4.6614959E-01
   7129.67  4.8470145E-01
   7130.00  5.0243323E-01
   7130.33  5.2134771E-01
   7130.67  5.4294434E-01
   7131.00  5.6733915E-01
   7131.33  5.9324621E-01
   7131.67  6.1782554E-01
   7132.00  6.3880707E-01
   7132.33  6.5437852E-01
   7132.67  6.6602000E-01
   7133.00  6.7564152E-01
   7133.33  6.8555686E-01
   7133.67  6.9750471E-01
   7134.00  7.1289933E-01
   7134.33  7.3357218E-01
   7134.67  7.5812870E-01
   7135.00  7.8371663E-01
   7135.33  8.0548182E-01
   7135.67  8.2042745E-01
   7136.00  8.2749664E-01
   7136.33  8.2647292E-01
   7136.67  8.1985212E-01
   7137.00  8.0913371E-01
   7137.33  7.9575454E-01
   7137.67  7.8168260E-01
   7138.00  7.6821912E-01
   7138.33  7.5674677E-01
   7138.67  7.4760031E-01
   7139.00  7.4067289E-01
   7139.33  7.3541264E-01
   7139.67  7.3053351E-01
   7140.00  7.2514340E-01
   7140.33  7.1849915E-01
   7140.67  7.1075459E-01
   7141.00  7.0231897E-01
   7141.33  6.9384804E-01
   7141.67  6.8593331E-01
   7142.00  6.7889825E-01
   7142.33  6.7301058E-01
   7142.67  6.6808300E-01
   7143.00  6.6397017E-01
   7143.33  6.6054311E-01
   7143.67  6.5753653E-01
   7144.00  6.5482490E-01
   7144.33  6.5233590E-01
   7144.67  6.4999435E-01
   7145.00  6.4778443E-01
   7145.33  6.4572280E-01
   7145.67  6.4380126E-01
   7146.00  6.4202547E-01
   7146.33  6.4041043E-01
   7146.67  6.3891913E-01
   7147.00  6.3751838E-01
   7147.33  6.3615064E-01
   7147.67  6.3472778E-01
   7148.00  6.3316363E-01
   7148.33  6.3132128E-01
   7148.67  6.2913383E-01
   7149.00  6.2653543E-01
   7149.33  6.2342365E-01
   7149.67  6.1984943E-01
   7150.00  6.1583876E-01
   7150.33  6.1140633E-01
   7150.67  6.0668570E-01
   7151.00  6.0176388E-01
   7151.33  5.9673630E-01
   7151.67  5.9172171E-01
   7152.00  5.8680866E-01
   7152.33  5.8211783E-01
   7152.67  5.7771127E-01
   7153.00  5.7365574E-01
   7153.33  5.7007152E-01
   7153.67  5.6696296E-01
   7154.00  5.6436711E-01
   7154.33  5.6237802E-01
   7154.67  5.6093676E-01
   7155.00  5.6003553E-01
   7155.33  5.5970994E-01
   7155.67  5.5984168E-01
   7156.00  5.6035962E-01
   7156.33  5.6119138E-01
   7156.67  5.6217550E-01
   7157.00  5.6318903E-01
   7157.33  5.6406143E-01
   7157.67  5.6465056E-01
   7158.00  5.6482723E-01
   7158.33  5.6439088E-01
   7158.67  5.6330614E-01
   7159.00  5.6151240E-01
   7159.33  5.5888050E-01
   7159.67  5.5550287E-01
   7160.00  5.5140442E-01
   7160.33  5.4655591E-01
   7160.67  5.4111615E-01
   7161.00  5.3516268E-01
   7161.33  5.2874367E-01
   7161.67  5.2201699E-01
   7162.00  5.1507736E-01
   7162.33  5.0802309E-01
   7162.67  5.0097694E-01
   7163.00  4.9403130E-01
   7163.33  4.8730534E-01
   7163.67  4.8085103E-01
   7164.00  4.7471869E-01
   7164.33  4.6899358E-01
   7164.67  4.6364919E-01
   7165.00  4.5868522E-01
   7165.33  4.5413206E-01
   7165.67  4.4991593E-01
   7166.00  4.4600549E-01
   7166.33  4.4239388E-01
   7166.67  4.3900727E-01
   7167.00  4.3581256E-01
   7167.33  4.3279514E-01
   7167.67  4.2990789E-01
   7168.00  4.2713343E-01
   7168.33  4.2446949E-01
   7168.67  4.2189504E-01
   7169.00  4.1940734E-01
   7169.33  4.1701933E-01
   7169.67  4.1472690E-01
   7170.00  4.1253945E-01
   7170.33  4.1048758E-01
   7170.67  4.0857664E-01
   7171.00  4.0682376E-01
   7171.33  4.0527731E-01
   7171.67  4.0395289E-01
   7172.00  4.0288947E-01
