    FDMNES
    energy     <xanes>
   7097.00  4.7965116E-03
   7097.33  4.9086069E-03
   7097.67  5.0257470E-03
   7098.00  5.1482729E-03
   7098.33  5.2773525E-03
   7098.67  5.4127473E-03
   7099.00  5.5549229E-03
   7099.33  5.7054074E-03
   7099.67  5.8639579E-03
   7100.00  6.0312272E-03
   7100.33  6.2092683E-03
   7100.67  6.3978583E-03
   7101.00  6.5979420E-03
   7101.33  6.8123662E-03
   7101.67  7.0409822E-03
   7102.00  7.2852099E-03
   7102.33  7.5491493E-03
   7102.67  7.8328473E-03
   7103.00  8.1385367E-03
   7103.33  8.4724038E-03
   7103.67  8.8349672E-03
   7104.00  9.2299407E-03
   7104.33  9.6672168E-03
   7104.67  1.0148451E-02
   7105.00  1.0680273E-02
   7105.33  1.1279725E-02
   7105.67  1.1951335E-02
   7106.00  1.2708079E-02
   7106.33  1.3582365E-02
   7106.67  1.4586678E-02
   7107.00  1.5749803E-02
   7107.33  1.7142449E-02
   7107.67  1.8802674E-02
   7108.00  2.0806961E-02
   7108.33  2.3344551E-02
   7108.67  2.6557749E-02
   7109.00  3.0715908E-02
   7109.33  3.6523869E-02
   7109.67  4.4749631E-02
   7110.00  5.6890332E-02
   7110.33  7.7211121E-02
   7110.67  1.1020301E-01
   7111.00  1.5735150E-01
   7111.33  2.0941251E-01
   7111.67  2.6244430E-01
   7112.00  3.1777607E-01
   7112.33  3.5400906E-01
   7112.67  3.5208968E-01
   7113.00  3.1609057E-01
   7113.33  2.6726903E-01
   7113.67  2.2539850E-01
   7114.00  1.9459693E-01
   7114.33  1.7571257E-01
   7114.67  1.6738788E-01
   7115.00  1.7116688E-01
   7115.33  1.9159854E-01
   7115.67  2.2439028E-01
   7116.00  2.5616014E-01
   7116.33  2.7310835E-01
   7116.67  2.7807702E-01
   7117.00  2.6144688E-01
   7117.33  2.2156132E-01
   7117.67  1.8204630E-01
   7118.00  1.5287436E-01
   7118.33  1.3578685E-01
   7118.67  1.2690344E-01
   7119.00  1.2436551E-01
   7119.33  1.2672283E-01
   7119.67  1.3082150E-01
   7120.00  1.3410515E-01
   7120.33  1.3568011E-01
   7120.67  1.3860989E-01
   7121.00  1.4579161E-01
   7121.33  1.5900711E-01
   7121.67  1.7424049E-01
   7122.00  1.8966118E-01
   7122.33  2.0724125E-01
   7122.67  2.2522763E-01
   7123.00  2.4138227E-01
   7123.33  2.5724969E-01
   7123.67  2.7563691E-01
   7124.00  2.9651941E-01
   7124.33  3.1721663E-01
   7124.67  3.3523705E-01
   7125.00  3.5049842E-01
   7125.33  3.6455241E-01
   7125.67  3.7929082E-01
   7126.00  3.9546989E-01
   7126.33  4.1301716E-01
   7126.67  4.3069241E-01
   7127.00  4.4726169E-01
   7127.33  4.6080748E-01
   7127.67  4.7049306E-01
   7128.00  4.7626040E-01
   7128.33  4.7835482E-01
   7128.67  4.7752581E-01
   7129.00  4.7404929E-01
   7129.33  4.7004000E-01
   7129.67  4.6992471E-01
   7130.00  4.7713312E-01
   7130.33  4.9420420E-01
   7130.67  5.1811530E-01
   7131.00  5.4502628E-01
   7131.33  5.6987915E-01
   7131.67  5.8997562E-01
   7132.00  6.0451843E-01
   7132.33  6.1292572E-01
   7132.67  6.1700379E-01
   7133.00  6.1866582E-01
   7133.33  6.2052445E-01
   7133.67  6.2462304E-01
   7134.00  6.3198763E-01
   7134.33  6.4310053E-01
   7134.67  6.5616590E-01
   7135.00  6.6914452E-01
   7135.33  6.7957878E-01
   7135.67  6.8696035E-01
   7136.00  6.9177092E-01
   7136.33  6.9483103E-01
   7136.67  6.9698564E-01
   7137.00  6.9826448E-01
   7137.33  6.9810728E-01
   7137.67  6.9618222E-01
   7138.00  6.9226553E-01
   7138.33  6.8625837E-01
   7138.67  6.7893901E-01
   7139.00  6.7100816E-01
   7139.33  6.6342765E-01
   7139.67  6.5701453E-01
   7140.00  6.5231051E-01
   7140.33  6.4987335E-01
   7140.67  6.4937384E-01
   7141.00  6.5043810E-01
   7141.33  6.5244268E-01
   7141.67  6.5440556E-01
   7142.00  6.5562879E-01
   7142.33  6.5538673E-01
   7142.67  6.5363949E-01
   7143.00  6.5048518E-01
   7143.33  6.4612849E-01
   7143.67  6.4116318E-01
   7144.00  6.3599472E-01
   7144.33  6.3105497E-01
   7144.67  6.2660518E-01
   7145.00  6.2278296E-01
   7145.33  6.1972555E-01
   7145.67  6.1732851E-01
   7146.00  6.1555682E-01
   7146.33  6.1445116E-01
   7146.67  6.1391171E-01
   7147.00  6.1390552E-01
   7147.33  6.1442588E-01
   7147.67  6.1533226E-01
   7148.00  6.1656401E-01
   7148.33  6.1811935E-01
   7148.67  6.1995238E-01
   7149.00  6.2206276E-01
   7149.33  6.2447298E-01
   7149.67  6.2710300E-01
   7150.00  6.2987128E-01
   7150.33  6.3263723E-01
   7150.67  6.3522833E-01
   7151.00  6.3748455E-01
   7151.33  6.3915182E-01
   7151.67  6.4011138E-01
   7152.00  6.4021317E-01
   7152.33  6.3917148E-01
   7152.67  6.3698035E-01
   7153.00  6.3355629E-01
   7153.33  6.2869329E-01
   7153.67  6.2256726E-01
   7154.00  6.1524111E-01
   7154.33  6.0670253E-01
   7154.67  5.9724892E-01
   7155.00  5.8704441E-01
   7155.33  5.7623131E-01
   7155.67  5.6509338E-01
   7156.00  5.5381347E-01
   7156.33  5.4260313E-01
   7156.67  5.3164490E-01
   7157.00  5.2108795E-01
   7157.33  5.1115196E-01
   7157.67  5.0188686E-01
   7158.00  4.9336471E-01
   7158.33  4.8572942E-01
   7158.67  4.7888686E-01
   7159.00  4.7281091E-01
   7159.33  4.6753044E-01
   7159.67  4.6287432E-01
   7160.00  4.5875988E-01
   7160.33  4.5514246E-01
   7160.67  4.5187268E-01
   7161.00  4.4888002E-01
   7161.33  4.4612581E-01
   7161.67  4.4354042E-01
   7162.00  4.4110086E-01
   7162.33  4.3880658E-01
   7162.67  4.3664136E-01
   7163.00  4.3461483E-01
   7163.33  4.3275578E-01
   7163.67  4.3104883E-01
   7164.00  4.2948777E-01
   7164.33  4.2806798E-01
   7164.67  4.2673921E-01
   7165.00  4.2546232E-01
   7165.33  4.2418168E-01
   7165.67  4.2283431E-01
   7166.00  4.2136270E-01
   7166.33  4.1967638E-01
   7166.67  4.1773881E-01
   7167.00  4.1551045E-01
   7167.33  4.1293160E-01
   7167.67  4.1005534E-01
   7168.00  4.0691587E-01
   7168.33  4.0355297E-01
   7168.67  4.0008623E-01
   7169.00  3.9661158E-01
   7169.33  3.9325420E-01
   7169.67  3.9010185E-01
   7170.00  3.8722642E-01
   7170.33  3.8473400E-01
   7170.67  3.8262264E-01
   7171.00  3.8090813E-01
   7171.33  3.7963222E-01
   7171.67  3.7870333E-01
   7172.00  3.7804828E-01
