    FDMNES
    energy     <xanes>
   7097.00  4.0495905E-03
   7097.33  4.1259133E-03
   7097.67  4.2049754E-03
   7098.00  4.2869336E-03
   7098.33  4.3723756E-03
   7098.67  4.4611362E-03
   7099.00  4.5534246E-03
   7099.33  4.6499857E-03
   7099.67  4.7506464E-03
   7100.00  4.8556946E-03
   7100.33  4.9661008E-03
   7100.67  5.0816945E-03
   7101.00  5.2028858E-03
   7101.33  5.3309839E-03
   7101.67  5.4658441E-03
   7102.00  5.6080764E-03
   7102.33  5.7595242E-03
   7102.67  5.9201220E-03
   7103.00  6.0908265E-03
   7103.33  6.2743751E-03
   7103.67  6.4709083E-03
   7104.00  6.6820260E-03
   7104.33  6.9120776E-03
   7104.67  7.1617234E-03
   7105.00  7.4338643E-03
   7105.33  7.7360386E-03
   7105.67  8.0702716E-03
   7106.00  8.4424008E-03
   7106.33  8.8670745E-03
   7106.67  9.3502582E-03
   7107.00  9.9054540E-03
   7107.33  1.0565938E-02
   7107.67  1.1350974E-02
   7108.00  1.2298598E-02
   7108.33  1.3503584E-02
   7108.67  1.5042785E-02
   7109.00  1.7060900E-02
   7109.33  1.9942471E-02
   7109.67  2.4135122E-02
   7110.00  3.0518213E-02
   7110.33  4.1633990E-02
   7110.67  6.0177195E-02
   7111.00  8.6516671E-02
   7111.33  1.1141688E-01
   7111.67  1.2653246E-01
   7112.00  1.3260551E-01
   7112.33  1.2668183E-01
   7112.67  1.0948067E-01
   7113.00  8.9464255E-02
   7113.33  7.3784435E-02
   7113.67  6.2771976E-02
   7114.00  5.5041501E-02
   7114.33  4.9054341E-02
   7114.67  4.3794134E-02
   7115.00  3.9795693E-02
   7115.33  3.7839584E-02
   7115.67  3.7374707E-02
   7116.00  3.7938401E-02
   7116.33  3.9117566E-02
   7116.67  4.0596868E-02
   7117.00  4.2468118E-02
   7117.33  4.5155461E-02
   7117.67  4.8897391E-02
   7118.00  5.3836965E-02
   7118.33  5.9989564E-02
   7118.67  6.6709402E-02
   7119.00  7.3318935E-02
   7119.33  7.8980317E-02
   7119.67  8.3458557E-02
   7120.00  8.6901684E-02
   7120.33  8.9984433E-02
   7120.67  9.3773476E-02
   7121.00  9.9101513E-02
   7121.33  1.0703880E-01
   7121.67  1.1789773E-01
   7122.00  1.3210129E-01
   7122.33  1.5055965E-01
   7122.67  1.7316770E-01
   7123.00  2.0000911E-01
   7123.33  2.3026317E-01
   7123.67  2.5926168E-01
   7124.00  2.8228503E-01
   7124.33  2.9767140E-01
   7124.67  3.1154303E-01
   7125.00  3.2882121E-01
   7125.33  3.5158386E-01
   7125.67  3.7658072E-01
   7126.00  4.0102808E-01
   7126.33  4.2429067E-01
   7126.67  4.4920883E-01
   7127.00  4.7889032E-01
   7127.33  5.1625976E-01
   7127.67  5.5995823E-01
   7128.00  6.0807287E-01
   7128.33  6.5790647E-01
   7128.67  7.0647678E-01
   7129.00  7.5197589E-01
   7129.33  7.9283112E-01
   7129.67  8.2945308E-01
   7130.00  8.6184752E-01
   7130.33  8.8841606E-01
   7130.67  9.0770861E-01
   7131.00  9.1823745E-01
   7131.33  9.1948018E-01
   7131.67  9.1544077E-01
   7132.00  9.0931121E-01
   7132.33  9.0399289E-01
   7132.67  9.0063286E-01
   7133.00  8.9927528E-01
   7133.33  8.9935827E-01
   7133.67  8.9946184E-01
   7134.00  8.9845550E-01
   7134.33  8.9550139E-01
   7134.67  8.9121954E-01
   7135.00  8.8599209E-01
   7135.33  8.7916119E-01
   7135.67  8.6980610E-01
   7136.00  8.5719981E-01
   7136.33  8.4075914E-01
   7136.67  8.2142278E-01
   7137.00  7.9993317E-01
   7137.33  7.7707535E-01
   7137.67  7.5383744E-01
   7138.00  7.3079694E-01
   7138.33  7.0854633E-01
   7138.67  6.8734607E-01
   7139.00  6.6739411E-01
   7139.33  6.4900227E-01
   7139.67  6.3206219E-01
   7140.00  6.1658821E-01
   7140.33  6.0274449E-01
   7140.67  5.9030990E-01
   7141.00  5.7923917E-01
   7141.33  5.6963894E-01
   7141.67  5.6129610E-01
   7142.00  5.5415739E-01
   7142.33  5.4827656E-01
   7142.67  5.4341204E-01
   7143.00  5.3946071E-01
   7143.33  5.3637208E-01
   7143.67  5.3387411E-01
   7144.00  5.3179615E-01
   7144.33  5.2995541E-01
   7144.67  5.2812592E-01
   7145.00  5.2616275E-01
   7145.33  5.2391599E-01
   7145.67  5.2136479E-01
   7146.00  5.1851655E-01
   7146.33  5.1539699E-01
   7146.67  5.1212007E-01
   7147.00  5.0875972E-01
   7147.33  5.0538220E-01
   7147.67  5.0202949E-01
   7148.00  4.9871432E-01
   7148.33  4.9543683E-01
   7148.67  4.9217871E-01
   7149.00  4.8892865E-01
   7149.33  4.8568438E-01
   7149.67  4.8245752E-01
   7150.00  4.7927102E-01
   7150.33  4.7617240E-01
   7150.67  4.7319417E-01
   7151.00  4.7036990E-01
   7151.33  4.6774750E-01
   7151.67  4.6530543E-01
   7152.00  4.6301749E-01
   7152.33  4.6082560E-01
   7152.67  4.5859746E-01
   7153.00  4.5618525E-01
   7153.33  4.5334830E-01
   7153.67  4.4993283E-01
   7154.00  4.4576977E-01
   7154.33  4.4057195E-01
   7154.67  4.3433149E-01
   7155.00  4.2699554E-01
   7155.33  4.1843452E-01
   7155.67  4.0886475E-01
   7156.00  3.9840881E-01
   7156.33  3.8717119E-01
   7156.67  3.7546488E-01
   7157.00  3.6349812E-01
   7157.33  3.5151406E-01
   7157.67  3.3975505E-01
   7158.00  3.2841672E-01
   7158.33  3.1777853E-01
   7158.67  3.0792895E-01
   7159.00  2.9898226E-01
   7159.33  2.9116869E-01
   7159.67  2.8444249E-01
   7160.00  2.7885967E-01
   7160.33  2.7462909E-01
   7160.67  2.7165472E-01
   7161.00  2.6997554E-01
   7161.33  2.6978203E-01
   7161.67  2.7089640E-01
   7162.00  2.7326749E-01
   7162.33  2.7693470E-01
   7162.67  2.8161927E-01
   7163.00  2.8718710E-01
   7163.33  2.9354850E-01
   7163.67  3.0043445E-01
   7164.00  3.0769757E-01
   7164.33  3.1520531E-01
   7164.67  3.2278722E-01
   7165.00  3.3033558E-01
   7165.33  3.3772732E-01
   7165.67  3.4489640E-01
   7166.00  3.5178946E-01
   7166.33  3.5832662E-01
   7166.67  3.6452840E-01
   7167.00  3.7039516E-01
   7167.33  3.7590937E-01
   7167.67  3.8115179E-01
   7168.00  3.8616938E-01
   7168.33  3.9100358E-01
   7168.67  3.9573726E-01
   7169.00  4.0041875E-01
   7169.33  4.0509201E-01
   7169.67  4.0978542E-01
   7170.00  4.1450527E-01
   7170.33  4.1923680E-01
   7170.67  4.2393279E-01
   7171.00  4.2852361E-01
   7171.33  4.3284821E-01
   7171.67  4.3672100E-01
   7172.00  4.3988523E-01
