    FDMNES
    energy     <xanes>
   7097.00  5.0597457E-03
   7097.33  5.1872222E-03
   7097.67  5.3209297E-03
   7098.00  5.4613209E-03
   7098.33  5.6098911E-03
   7098.67  5.7663888E-03
   7099.00  5.9314425E-03
   7099.33  6.1070450E-03
   7099.67  6.2929533E-03
   7100.00  6.4900641E-03
   7100.33  6.7011085E-03
   7100.67  6.9258929E-03
   7101.00  7.1657388E-03
   7101.33  7.4245139E-03
   7101.67  7.7021626E-03
   7102.00  8.0007090E-03
   7102.33  8.3258487E-03
   7102.67  8.6778588E-03
   7103.00  9.0599853E-03
   7103.33  9.4810225E-03
   7103.67  9.9420230E-03
   7104.00  1.0448492E-02
   7104.33  1.1014827E-02
   7104.67  1.1643921E-02
   7105.00  1.2345788E-02
   7105.33  1.3145814E-02
   7105.67  1.4051506E-02
   7106.00  1.5082814E-02
   7106.33  1.6289075E-02
   7106.67  1.7690530E-02
   7107.00  1.9332082E-02
   7107.33  2.1323384E-02
   7107.67  2.3725437E-02
   7108.00  2.6658680E-02
   7108.33  3.0420097E-02
   7108.67  3.5235559E-02
   7109.00  4.1529415E-02
   7109.33  5.0408395E-02
   7109.67  6.3073652E-02
   7110.00  8.1856282E-02
   7110.33  1.1337308E-01
   7110.67  1.6462557E-01
   7111.00  2.3866282E-01
   7111.33  3.2573648E-01
   7111.67  4.1776966E-01
   7112.00  5.1514330E-01
   7112.33  6.0484517E-01
   7112.67  6.2199894E-01
   7113.00  5.2974027E-01
   7113.33  4.0244634E-01
   7113.67  3.0001127E-01
   7114.00  2.2397766E-01
   7114.33  1.7345668E-01
   7114.67  1.3964153E-01
   7115.00  1.1675812E-01
   7115.33  1.0221811E-01
   7115.67  9.4051431E-02
   7116.00  9.1220926E-02
   7116.33  9.0845776E-02
   7116.67  8.9271896E-02
   7117.00  8.6703870E-02
   7117.33  8.5099734E-02
   7117.67  8.5408830E-02
   7118.00  8.7932227E-02
   7118.33  9.2820349E-02
   7118.67  9.9128072E-02
   7119.00  1.0568431E-01
   7119.33  1.1041353E-01
   7119.67  1.1220571E-01
   7120.00  1.1131266E-01
   7120.33  1.0916586E-01
   7120.67  1.0776944E-01
   7121.00  1.0820360E-01
   7121.33  1.1127362E-01
   7121.67  1.1690251E-01
   7122.00  1.2532843E-01
   7122.33  1.3737146E-01
   7122.67  1.5317275E-01
   7123.00  1.7323291E-01
   7123.33  1.9860494E-01
   7123.67  2.2877201E-01
   7124.00  2.6333129E-01
   7124.33  3.0193652E-01
   7124.67  3.4273939E-01
   7125.00  3.8294964E-01
   7125.33  4.1745011E-01
   7125.67  4.4379209E-01
   7126.00  4.6121828E-01
   7126.33  4.6909481E-01
   7126.67  4.7001147E-01
   7127.00  4.6615478E-01
   7127.33  4.6032376E-01
   7127.67  4.5548496E-01
   7128.00  4.5317932E-01
   7128.33  4.5448243E-01
   7128.67  4.5901923E-01
   7129.00  4.6661052E-01
   7129.33  4.7711405E-01
   7129.67  4.8960971E-01
   7130.00  5.0374591E-01
   7130.33  5.1963540E-01
   7130.67  5.3718911E-01
   7131.00  5.5648222E-01
   7131.33  5.7776054E-01
   7131.67  6.0073478E-01
   7132.00  6.2506859E-01
   7132.33  6.4962829E-01
   7132.67  6.7231837E-01
   7133.00  6.9124338E-01
   7133.33  7.0468326E-01
   7133.67  7.1379655E-01
   7134.00  7.1964866E-01
   7134.33  7.2236983E-01
   7134.67  7.2220323E-01
   7135.00  7.1992253E-01
   7135.33  7.1724743E-01
   7135.67  7.1558306E-01
   7136.00  7.1542006E-01
   7136.33  7.1687386E-01
   7136.67  7.1911771E-01
   7137.00  7.2116570E-01
   7137.33  7.2137865E-01
   7137.67  7.1876687E-01
   7138.00  7.1300429E-01
   7138.33  7.0445512E-01
   7138.67  6.9493413E-01
   7139.00  6.8593588E-01
   7139.33  6.7920493E-01
   7139.67  6.7547033E-01
   7140.00  6.7512019E-01
   7140.33  6.7850642E-01
   7140.67  6.8458527E-01
   7141.00  6.9234346E-01
   7141.33  7.0010766E-01
   7141.67  7.0598014E-01
   7142.00  7.0858949E-01
   7142.33  7.0666723E-01
   7142.67  7.0104555E-01
   7143.00  6.9268101E-01
   7143.33  6.8281404E-01
   7143.67  6.7288980E-01
   7144.00  6.6371643E-01
   7144.33  6.5603687E-01
   7144.67  6.4992852E-01
   7145.00  6.4539843E-01
   7145.33  6.4251502E-01
   7145.67  6.4092968E-01
   7146.00  6.4047896E-01
   7146.33  6.4106689E-01
   7146.67  6.4235828E-01
   7147.00  6.4416446E-01
   7147.33  6.4630441E-01
   7147.67  6.4852888E-01
   7148.00  6.5066140E-01
   7148.33  6.5245956E-01
   7148.67  6.5375240E-01
   7149.00  6.5436395E-01
   7149.33  6.5399063E-01
   7149.67  6.5257648E-01
   7150.00  6.5002348E-01
   7150.33  6.4614939E-01
   7150.67  6.4116856E-01
   7151.00  6.3522219E-01
   7151.33  6.2845889E-01
   7151.67  6.2125027E-01
   7152.00  6.1383671E-01
   7152.33  6.0646832E-01
   7152.67  5.9932119E-01
   7153.00  5.9248861E-01
   7153.33  5.8605487E-01
   7153.67  5.7995115E-01
   7154.00  5.7411407E-01
   7154.33  5.6846645E-01
   7154.67  5.6288768E-01
   7155.00  5.5730542E-01
   7155.33  5.5165107E-01
   7155.67  5.4589793E-01
   7156.00  5.4003137E-01
   7156.33  5.3402589E-01
   7156.67  5.2788713E-01
   7157.00  5.2160511E-01
   7157.33  5.1514951E-01
   7157.67  5.0853587E-01
   7158.00  5.0177260E-01
   7158.33  4.9487264E-01
   7158.67  4.8790076E-01
   7159.00  4.8091433E-01
   7159.33  4.7399738E-01
   7159.67  4.6722108E-01
   7160.00  4.6065058E-01
   7160.33  4.5438676E-01
   7160.67  4.4844676E-01
   7161.00  4.4285826E-01
   7161.33  4.3767688E-01
   7161.67  4.3284499E-01
   7162.00  4.2833511E-01
   7162.33  4.2412445E-01
   7162.67  4.2010906E-01
   7163.00  4.1623050E-01
   7163.33  4.1243853E-01
   7163.67  4.0868004E-01
   7164.00  4.0493087E-01
   7164.33  4.0117670E-01
   7164.67  3.9742005E-01
   7165.00  3.9367459E-01
   7165.33  3.8997144E-01
   7165.67  3.8633948E-01
   7166.00  3.8281077E-01
   7166.33  3.7944026E-01
   7166.67  3.7624367E-01
   7167.00  3.7324453E-01
   7167.33  3.7049121E-01
   7167.67  3.6797136E-01
   7168.00  3.6568986E-01
   7168.33  3.6367035E-01
   7168.67  3.6187578E-01
   7169.00  3.6029871E-01
   7169.33  3.5895583E-01
   7169.67  3.5781287E-01
   7170.00  3.5686453E-01
   7170.33  3.5613060E-01
   7170.67  3.5558397E-01
   7171.00  3.5521921E-01
   7171.33  3.5503928E-01
   7171.67  3.5497952E-01
   7172.00  3.5497079E-01
