    FDMNES
    energy     <xanes>
   7097.00  4.6606713E-03
   7097.33  4.7628988E-03
   7097.67  4.8696149E-03
   7098.00  4.9811299E-03
   7098.33  5.0984955E-03
   7098.67  5.2215121E-03
   7099.00  5.3506107E-03
   7099.33  5.4871856E-03
   7099.67  5.6310450E-03
   7100.00  5.7828074E-03
   7100.33  5.9443806E-03
   7100.67  6.1156147E-03
   7101.00  6.2974306E-03
   7101.33  6.4925416E-03
   7101.67  6.7009132E-03
   7102.00  6.9239816E-03
   7102.33  7.1657880E-03
   7102.67  7.4265825E-03
   7103.00  7.7087301E-03
   7103.33  8.0186055E-03
   7103.67  8.3571423E-03
   7104.00  8.7285081E-03
   7104.33  9.1435081E-03
   7104.67  9.6047736E-03
   7105.00  1.0120306E-02
   7105.33  1.0710192E-02
   7105.67  1.1381610E-02
   7106.00  1.2151742E-02
   7106.33  1.3062813E-02
   7106.67  1.4135746E-02
   7107.00  1.5413544E-02
   7107.33  1.7001548E-02
   7107.67  1.8970722E-02
   7108.00  2.1455380E-02
   7108.33  2.4794305E-02
   7108.67  2.9301323E-02
   7109.00  3.5566814E-02
   7109.33  4.5216995E-02
   7109.67  6.0390019E-02
   7110.00  8.5364398E-02
   7110.33  1.3228966E-01
   7110.67  2.0762069E-01
   7111.00  2.8058837E-01
   7111.33  2.7144217E-01
   7111.67  2.2829048E-01
   7112.00  1.9842440E-01
   7112.33  1.8230614E-01
   7112.67  1.6659195E-01
   7113.00  1.5482980E-01
   7113.33  1.4487725E-01
   7113.67  1.3447047E-01
   7114.00  1.2166206E-01
   7114.33  1.0584941E-01
   7114.67  8.9878495E-02
   7115.00  7.6003766E-02
   7115.33  6.5545500E-02
   7115.67  5.7455161E-02
   7116.00  5.1276264E-02
   7116.33  4.6942236E-02
   7116.67  4.3963076E-02
   7117.00  4.2113439E-02
   7117.33  4.1321086E-02
   7117.67  4.1356715E-02
   7118.00  4.2181001E-02
   7118.33  4.3909718E-02
   7118.67  4.6527837E-02
   7119.00  5.0182101E-02
   7119.33  5.5323959E-02
   7119.67  6.2201204E-02
   7120.00  7.1205750E-02
   7120.33  8.2688790E-02
   7120.67  9.5031013E-02
   7121.00  1.0600076E-01
   7121.33  1.1526476E-01
   7121.67  1.2671214E-01
   7122.00  1.4327042E-01
   7122.33  1.6723816E-01
   7122.67  1.9802184E-01
   7123.00  2.3517967E-01
   7123.33  2.7796775E-01
   7123.67  3.2319513E-01
   7124.00  3.6818335E-01
   7124.33  4.1005708E-01
   7124.67  4.4736398E-01
   7125.00  4.7841255E-01
   7125.33  5.0223037E-01
   7125.67  5.2779389E-01
   7126.00  5.6673640E-01
   7126.33  6.2746647E-01
   7126.67  7.0147079E-01
   7127.00  7.7760563E-01
   7127.33  8.3825047E-01
   7127.67  8.7225380E-01
   7128.00  8.7918525E-01
   7128.33  8.6777184E-01
   7128.67  8.5079464E-01
   7129.00  8.3290609E-01
   7129.33  8.1684195E-01
   7129.67  8.0435188E-01
   7130.00  7.9682947E-01
   7130.33  7.9572410E-01
   7130.67  7.9995869E-01
   7131.00  8.0836875E-01
   7131.33  8.1862604E-01
   7131.67  8.2665745E-01
   7132.00  8.2862367E-01
   7132.33  8.1987685E-01
   7132.67  8.0106837E-01
   7133.00  7.7465145E-01
   7133.33  7.4555500E-01
   7133.67  7.1948777E-01
   7134.00  6.9945601E-01
   7134.33  6.8718971E-01
   7134.67  6.8064767E-01
   7135.00  6.7821556E-01
   7135.33  6.7846418E-01
   7135.67  6.7983272E-01
   7136.00  6.8160758E-01
   7136.33  6.8329644E-01
   7136.67  6.8471513E-01
   7137.00  6.8584122E-01
   7137.33  6.8663012E-01
   7137.67  6.8696843E-01
   7138.00  6.8653581E-01
   7138.33  6.8461509E-01
   7138.67  6.8079709E-01
   7139.00  6.7476418E-01
   7139.33  6.6621403E-01
   7139.67  6.5574414E-01
   7140.00  6.4379144E-01
   7140.33  6.3079227E-01
   7140.67  6.1735724E-01
   7141.00  6.0382666E-01
   7141.33  5.9051562E-01
   7141.67  5.7758825E-01
   7142.00  5.6514026E-01
   7142.33  5.5329142E-01
   7142.67  5.4198401E-01
   7143.00  5.3120190E-01
   7143.33  5.2096874E-01
   7143.67  5.1117433E-01
   7144.00  5.0177171E-01
   7144.33  4.9274457E-01
   7144.67  4.8399169E-01
   7145.00  4.7546102E-01
   7145.33  4.6711131E-01
   7145.67  4.5886401E-01
   7146.00  4.5067341E-01
   7146.33  4.4249272E-01
   7146.67  4.3428076E-01
   7147.00  4.2601074E-01
   7147.33  4.1764607E-01
   7147.67  4.0917218E-01
   7148.00  4.0056937E-01
   7148.33  3.9179947E-01
   7148.67  3.8287212E-01
   7149.00  3.7379341E-01
   7149.33  3.6457357E-01
   7149.67  3.5528059E-01
   7150.00  3.4598515E-01
   7150.33  3.3682251E-01
   7150.67  3.2795614E-01
   7151.00  3.1956666E-01
   7151.33  3.1195370E-01
   7151.67  3.0524421E-01
   7152.00  2.9961348E-01
   7152.33  2.9538982E-01
   7152.67  2.9252101E-01
   7153.00  2.9101620E-01
   7153.33  2.9093326E-01
   7153.67  2.9190858E-01
   7154.00  2.9371735E-01
   7154.33  2.9617360E-01
   7154.67  2.9900527E-01
   7155.00  3.0210567E-01
   7155.33  3.0544081E-01
   7155.67  3.0896677E-01
   7156.00  3.1267542E-01
   7156.33  3.1654706E-01
   7156.67  3.2046851E-01
   7157.00  3.2430642E-01
   7157.33  3.2781906E-01
   7157.67  3.3080987E-01
   7158.00  3.3308768E-01
   7158.33  3.3436946E-01
   7158.67  3.3468384E-01
   7159.00  3.3405126E-01
   7159.33  3.3250505E-01
   7159.67  3.3038697E-01
   7160.00  3.2796627E-01
   7160.33  3.2560393E-01
   7160.67  3.2365518E-01
   7161.00  3.2241080E-01
   7161.33  3.2228984E-01
   7161.67  3.2339846E-01
   7162.00  3.2587922E-01
   7162.33  3.3002142E-01
   7162.67  3.3568577E-01
   7163.00  3.4287014E-01
   7163.33  3.5171254E-01
   7163.67  3.6193249E-01
   7164.00  3.7341178E-01
   7164.33  3.8611305E-01
   7164.67  3.9968209E-01
   7165.00  4.1388968E-01
   7165.33  4.2845619E-01
   7165.67  4.4296459E-01
   7166.00  4.5704919E-01
   7166.33  4.7014301E-01
   7166.67  4.8190020E-01
   7167.00  4.9196451E-01
   7167.33  4.9975842E-01
   7167.67  5.0535737E-01
   7168.00  5.0875946E-01
   7168.33  5.0990019E-01
   7168.67  5.0940153E-01
   7169.00  5.0769041E-01
   7169.33  5.0524606E-01
   7169.67  5.0270513E-01
   7170.00  5.0048560E-01
   7170.33  4.9904428E-01
   7170.67  4.9850680E-01
   7171.00  4.9891432E-01
   7171.33  5.0023966E-01
   7171.67  5.0203652E-01
   7172.00  5.0384160E-01
