    FDMNES
    energy     <xanes>
   7097.00  4.4978483E-03
   7097.33  4.5922027E-03
   7097.67  4.6904590E-03
   7098.00  4.7928713E-03
   7098.33  4.9003273E-03
   7098.67  5.0126315E-03
   7099.00  5.1301314E-03
   7099.33  5.2539846E-03
   7099.67  5.3839943E-03
   7100.00  5.5206500E-03
   7100.33  5.6655069E-03
   7100.67  5.8183882E-03
   7101.00  5.9800094E-03
   7101.33  6.1525348E-03
   7101.67  6.3358566E-03
   7102.00  6.5310653E-03
   7102.33  6.7413069E-03
   7102.67  6.9666520E-03
   7103.00  7.2088508E-03
   7103.33  7.4727271E-03
   7103.67  7.7587851E-03
   7104.00  8.0700185E-03
   7104.33  8.4143350E-03
   7104.67  8.7933069E-03
   7105.00  9.2124807E-03
   7105.33  9.6859812E-03
   7105.67  1.0218174E-02
   7106.00  1.0820462E-02
   7106.33  1.1521114E-02
   7106.67  1.2332627E-02
   7107.00  1.3282019E-02
   7107.33  1.4435555E-02
   7107.67  1.5833795E-02
   7108.00  1.7555337E-02
   7108.33  1.9796670E-02
   7108.67  2.2725115E-02
   7109.00  2.6655614E-02
   7109.33  3.2437525E-02
   7109.67  4.1112321E-02
   7110.00  5.4742982E-02
   7110.33  7.9204177E-02
   7110.67  1.1885370E-01
   7111.00  1.6554215E-01
   7111.33  1.9066956E-01
   7111.67  2.0506308E-01
   7112.00  2.2230822E-01
   7112.33  2.2093394E-01
   7112.67  1.9890985E-01
   7113.00  1.7681882E-01
   7113.33  1.6170022E-01
   7113.67  1.4803848E-01
   7114.00  1.2923916E-01
   7114.33  1.0600951E-01
   7114.67  8.5513968E-02
   7115.00  6.9830712E-02
   7115.33  5.9061081E-02
   7115.67  5.1336874E-02
   7116.00  4.6014873E-02
   7116.33  4.2702546E-02
   7116.67  4.0662967E-02
   7117.00  3.9642120E-02
   7117.33  3.9585065E-02
   7117.67  4.0288082E-02
   7118.00  4.1711419E-02
   7118.33  4.3944520E-02
   7118.67  4.6944658E-02
   7119.00  5.0802716E-02
   7119.33  5.5843086E-02
   7119.67  6.2238081E-02
   7120.00  7.0295577E-02
   7120.33  8.0319685E-02
   7120.67  9.1113263E-02
   7121.00  1.0108762E-01
   7121.33  1.1028177E-01
   7121.67  1.2186367E-01
   7122.00  1.3832001E-01
   7122.33  1.6181896E-01
   7122.67  1.9176380E-01
   7123.00  2.2741334E-01
   7123.33  2.6700528E-01
   7123.67  3.0688037E-01
   7124.00  3.4507602E-01
   7124.33  3.8180846E-01
   7124.67  4.1868555E-01
   7125.00  4.5415721E-01
   7125.33  4.8370461E-01
   7125.67  5.1295370E-01
   7126.00  5.5404785E-01
   7126.33  6.1739201E-01
   7126.67  6.9376847E-01
   7127.00  7.6859587E-01
   7127.33  8.2166976E-01
   7127.67  8.4777430E-01
   7128.00  8.5249210E-01
   7128.33  8.4728275E-01
   7128.67  8.4192883E-01
   7129.00  8.3878013E-01
   7129.33  8.3730534E-01
   7129.67  8.3548406E-01
   7130.00  8.3216875E-01
   7130.33  8.2709426E-01
   7130.67  8.2149585E-01
   7131.00  8.1623660E-01
   7131.33  8.1117844E-01
   7131.67  8.0482852E-01
   7132.00  7.9577384E-01
   7132.33  7.8301976E-01
   7132.67  7.6781230E-01
   7133.00  7.5159657E-01
   7133.33  7.3640562E-01
   7133.67  7.2375716E-01
   7134.00  7.1447059E-01
   7134.33  7.0906477E-01
   7134.67  7.0638583E-01
   7135.00  7.0547924E-01
   7135.33  7.0537561E-01
   7135.67  7.0525731E-01
   7136.00  7.0481716E-01
   7136.33  7.0395130E-01
   7136.67  7.0283407E-01
   7137.00  7.0158549E-01
   7137.33  7.0018924E-01
   7137.67  6.9841981E-01
   7138.00  6.9588674E-01
   7138.33  6.9189551E-01
   7138.67  6.8618760E-01
   7139.00  6.7861087E-01
   7139.33  6.6905299E-01
   7139.67  6.5806448E-01
   7140.00  6.4600505E-01
   7140.33  6.3320452E-01
   7140.67  6.2009791E-01
   7141.00  6.0692645E-01
   7141.33  5.9392322E-01
   7141.67  5.8122114E-01
   7142.00  5.6890508E-01
   7142.33  5.5708069E-01
   7142.67  5.4570329E-01
   7143.00  5.3476012E-01
   7143.33  5.2427770E-01
   7143.67  5.1418548E-01
   7144.00  5.0447919E-01
   7144.33  4.9521667E-01
   7144.67  4.8636279E-01
   7145.00  4.7792194E-01
   7145.33  4.6992231E-01
   7145.67  4.6225755E-01
   7146.00  4.5484944E-01
   7146.33  4.4759742E-01
   7146.67  4.4035339E-01
   7147.00  4.3301032E-01
   7147.33  4.2544087E-01
   7147.67  4.1760219E-01
   7148.00  4.0946034E-01
   7148.33  4.0095732E-01
   7148.67  3.9214024E-01
   7149.00  3.8303494E-01
   7149.33  3.7366345E-01
   7149.67  3.6413067E-01
   7150.00  3.5452318E-01
   7150.33  3.4499184E-01
   7150.67  3.3572303E-01
   7151.00  3.2690447E-01
   7151.33  3.1884639E-01
   7151.67  3.1169002E-01
   7152.00  3.0561718E-01
   7152.33  3.0095650E-01
   7152.67  2.9764877E-01
   7153.00  2.9569700E-01
   7153.33  2.9515337E-01
   7153.67  2.9565214E-01
   7154.00  2.9695972E-01
   7154.33  2.9886128E-01
   7154.67  3.0105669E-01
   7155.00  3.0341172E-01
   7155.33  3.0586482E-01
   7155.67  3.0840022E-01
   7156.00  3.1103592E-01
   7156.33  3.1379743E-01
   7156.67  3.1664259E-01
   7157.00  3.1950005E-01
   7157.33  3.2221568E-01
   7157.67  3.2462417E-01
   7158.00  3.2655965E-01
   7158.33  3.2777348E-01
   7158.67  3.2824333E-01
   7159.00  3.2795784E-01
   7159.33  3.2692251E-01
   7159.67  3.2541120E-01
   7160.00  3.2364939E-01
   7160.33  3.2194700E-01
   7160.67  3.2060981E-01
   7161.00  3.1988956E-01
   7161.33  3.2015145E-01
   7161.67  3.2149114E-01
   7162.00  3.2404051E-01
   7162.33  3.2807200E-01
   7162.67  3.3348312E-01
   7163.00  3.4029253E-01
   7163.33  3.4865344E-01
   7163.67  3.5833292E-01
   7164.00  3.6925136E-01
   7164.33  3.8141553E-01
   7164.67  3.9449945E-01
   7165.00  4.0829173E-01
   7165.33  4.2253867E-01
   7165.67  4.3682349E-01
   7166.00  4.5078623E-01
   7166.33  4.6387512E-01
   7166.67  4.7572645E-01
   7167.00  4.8597254E-01
   7167.33  4.9402399E-01
   7167.67  4.9992067E-01
   7168.00  5.0363366E-01
   7168.33  5.0506404E-01
   7168.67  5.0480847E-01
   7169.00  5.0327678E-01
   7169.33  5.0092791E-01
   7169.67  4.9840588E-01
   7170.00  4.9613364E-01
   7170.33  4.9457278E-01
   7170.67  4.9387427E-01
   7171.00  4.9409767E-01
   7171.33  4.9523860E-01
   7171.67  4.9687284E-01
   7172.00  4.9855162E-01
