    FDMNES
    energy     <xanes>
   7097.00  4.6969463E-03
   7097.33  4.8015743E-03
   7097.67  4.9106566E-03
   7098.00  5.0244812E-03
   7098.33  5.1440574E-03
   7098.67  5.2691577E-03
   7099.00  5.4001721E-03
   7099.33  5.5384089E-03
   7099.67  5.6836330E-03
   7100.00  5.8363880E-03
   7100.33  5.9984153E-03
   7100.67  6.1694923E-03
   7101.00  6.3504011E-03
   7101.33  6.5435364E-03
   7101.67  6.7487328E-03
   7102.00  6.9671613E-03
   7102.33  7.2022474E-03
   7102.67  7.4539841E-03
   7103.00  7.7242120E-03
   7103.33  8.0180780E-03
   7103.67  8.3359696E-03
   7104.00  8.6809594E-03
   7104.33  9.0612790E-03
   7104.67  9.4782928E-03
   7105.00  9.9375408E-03
   7105.33  1.0453307E-02
   7105.67  1.1029500E-02
   7106.00  1.1677184E-02
   7106.33  1.2424038E-02
   7106.67  1.3281321E-02
   7107.00  1.4274490E-02
   7107.33  1.5466300E-02
   7107.67  1.6893181E-02
   7108.00  1.8627278E-02
   7108.33  2.0849277E-02
   7108.67  2.3708978E-02
   7109.00  2.7490842E-02
   7109.33  3.2963142E-02
   7109.67  4.1063420E-02
   7110.00  5.3655814E-02
   7110.33  7.6034409E-02
   7110.67  1.1177997E-01
   7111.00  1.5154301E-01
   7111.33  1.6521056E-01
   7111.67  1.6996654E-01
   7112.00  1.8458406E-01
   7112.33  2.0890288E-01
   7112.67  2.2949029E-01
   7113.00  2.3816031E-01
   7113.33  2.4704096E-01
   7113.67  2.5532874E-01
   7114.00  2.3687685E-01
   7114.33  1.9110453E-01
   7114.67  1.5058935E-01
   7115.00  1.2351202E-01
   7115.33  1.0880135E-01
   7115.67  1.0151654E-01
   7116.00  9.9838244E-02
   7116.33  1.0345394E-01
   7116.67  1.1164939E-01
   7117.00  1.2442367E-01
   7117.33  1.4125742E-01
   7117.67  1.5893870E-01
   7118.00  1.7494285E-01
   7118.33  1.8744273E-01
   7118.67  1.9688715E-01
   7119.00  2.0463014E-01
   7119.33  2.1278018E-01
   7119.67  2.2188056E-01
   7120.00  2.3111112E-01
   7120.33  2.4098428E-01
   7120.67  2.5273791E-01
   7121.00  2.6636764E-01
   7121.33  2.8113679E-01
   7121.67  2.9696581E-01
   7122.00  3.1482347E-01
   7122.33  3.3572369E-01
   7122.67  3.5862865E-01
   7123.00  3.8215698E-01
   7123.33  4.0482700E-01
   7123.67  4.2633847E-01
   7124.00  4.4694280E-01
   7124.33  4.6675586E-01
   7124.67  4.8551289E-01
   7125.00  5.0251843E-01
   7125.33  5.1645276E-01
   7125.67  5.2685953E-01
   7126.00  5.3351804E-01
   7126.33  5.3648392E-01
   7126.67  5.3717740E-01
   7127.00  5.3655453E-01
   7127.33  5.3538355E-01
   7127.67  5.3413288E-01
   7128.00  5.3289490E-01
   7128.33  5.3153205E-01
   7128.67  5.2967591E-01
   7129.00  5.2679193E-01
   7129.33  5.2204362E-01
   7129.67  5.1547106E-01
   7130.00  5.0752119E-01
   7130.33  4.9913451E-01
   7130.67  4.9138785E-01
   7131.00  4.8491645E-01
   7131.33  4.8027357E-01
   7131.67  4.7726656E-01
   7132.00  4.7576235E-01
   7132.33  4.7575701E-01
   7132.67  4.7698149E-01
   7133.00  4.7940518E-01
   7133.33  4.8315147E-01
   7133.67  4.8800207E-01
   7134.00  4.9384461E-01
   7134.33  5.0064794E-01
   7134.67  5.0825644E-01
   7135.00  5.1674894E-01
   7135.33  5.2643486E-01
   7135.67  5.3729012E-01
   7136.00  5.4924554E-01
   7136.33  5.6211885E-01
   7136.67  5.7538564E-01
   7137.00  5.8865432E-01
   7137.33  6.0146089E-01
   7137.67  6.1353661E-01
   7138.00  6.2469117E-01
   7138.33  6.3465190E-01
   7138.67  6.4346248E-01
   7139.00  6.5106131E-01
   7139.33  6.5722807E-01
   7139.67  6.6208663E-01
   7140.00  6.6564062E-01
   7140.33  6.6777784E-01
   7140.67  6.6872863E-01
   7141.00  6.6856324E-01
   7141.33  6.6724026E-01
   7141.67  6.6497053E-01
   7142.00  6.6178924E-01
   7142.33  6.5761219E-01
   7142.67  6.5263781E-01
   7143.00  6.4700919E-01
   7143.33  6.4090631E-01
   7143.67  6.3466344E-01
   7144.00  6.2854174E-01
   7144.33  6.2289858E-01
   7144.67  6.1796480E-01
   7145.00  6.1395552E-01
   7145.33  6.1121824E-01
   7145.67  6.0976118E-01
   7146.00  6.0966192E-01
   7146.33  6.1111831E-01
   7146.67  6.1390703E-01
   7147.00  6.1792305E-01
   7147.33  6.2310469E-01
   7147.67  6.2906804E-01
   7148.00  6.3555989E-01
   7148.33  6.4229977E-01
   7148.67  6.4896570E-01
   7149.00  6.5533449E-01
   7149.33  6.6113752E-01
   7149.67  6.6630069E-01
   7150.00  6.7075899E-01
   7150.33  6.7439311E-01
   7150.67  6.7729818E-01
   7151.00  6.7948543E-01
   7151.33  6.8087184E-01
   7151.67  6.8153158E-01
   7152.00  6.8142974E-01
   7152.33  6.8039965E-01
   7152.67  6.7846776E-01
   7153.00  6.7557054E-01
   7153.33  6.7152509E-01
   7153.67  6.6643778E-01
   7154.00  6.6032459E-01
   7154.33  6.5312362E-01
   7154.67  6.4505134E-01
   7155.00  6.3620918E-01
   7155.33  6.2664309E-01
   7155.67  6.1655753E-01
   7156.00  6.0605137E-01
   7156.33  5.9518861E-01
   7156.67  5.8410059E-01
   7157.00  5.7285591E-01
   7157.33  5.6151258E-01
   7157.67  5.5014401E-01
   7158.00  5.3880283E-01
   7158.33  5.2756214E-01
   7158.67  5.1647125E-01
   7159.00  5.0558075E-01
   7159.33  4.9497993E-01
   7159.67  4.8469034E-01
   7160.00  4.7475429E-01
   7160.33  4.6526416E-01
   7160.67  4.5620676E-01
   7161.00  4.4760933E-01
   7161.33  4.3955907E-01
   7161.67  4.3201653E-01
   7162.00  4.2499669E-01
   7162.33  4.1857884E-01
   7162.67  4.1270176E-01
   7163.00  4.0736519E-01
   7163.33  4.0262947E-01
   7163.67  3.9841466E-01
   7164.00  3.9470340E-01
   7164.33  3.9152735E-01
   7164.67  3.8879317E-01
   7165.00  3.8646872E-01
   7165.33  3.8456064E-01
   7165.67  3.8298213E-01
   7166.00  3.8169841E-01
   7166.33  3.8070248E-01
   7166.67  3.7992682E-01
   7167.00  3.7934458E-01
   7167.33  3.7895027E-01
   7167.67  3.7870225E-01
   7168.00  3.7858694E-01
   7168.33  3.7860867E-01
   7168.67  3.7874618E-01
   7169.00  3.7899747E-01
   7169.33  3.7937695E-01
   7169.67  3.7987154E-01
   7170.00  3.8048121E-01
   7170.33  3.8121654E-01
   7170.67  3.8205361E-01
   7171.00  3.8297446E-01
   7171.33  3.8394302E-01
   7171.67  3.8487258E-01
   7172.00  3.8565235E-01
