    FDMNES
    energy     <xanes>
   7097.00  5.0225565E-03
   7097.33  5.1373594E-03
   7097.67  5.2573489E-03
   7098.00  5.3828803E-03
   7098.33  5.5151611E-03
   7098.67  5.6539522E-03
   7099.00  5.7997397E-03
   7099.33  5.9541092E-03
   7099.67  6.1168189E-03
   7100.00  6.2885527E-03
   7100.33  6.4714485E-03
   7100.67  6.6652886E-03
   7101.00  6.8710658E-03
   7101.33  7.0917558E-03
   7101.67  7.3272236E-03
   7102.00  7.5789660E-03
   7102.33  7.8512854E-03
   7102.67  8.1442593E-03
   7103.00  8.4602494E-03
   7103.33  8.8057722E-03
   7103.67  9.1814141E-03
   7104.00  9.5911150E-03
   7104.33  1.0045335E-02
   7104.67  1.0545882E-02
   7105.00  1.1099812E-02
   7105.33  1.1725209E-02
   7105.67  1.2426973E-02
   7106.00  1.3218954E-02
   7106.33  1.4135692E-02
   7106.67  1.5190674E-02
   7107.00  1.6414775E-02
   7107.33  1.7883827E-02
   7107.67  1.9639193E-02
   7108.00  2.1763734E-02
   7108.33  2.4462900E-02
   7108.67  2.7894106E-02
   7109.00  3.2355663E-02
   7109.33  3.8633901E-02
   7109.67  4.7609140E-02
   7110.00  6.1009053E-02
   7110.33  8.3788144E-02
   7110.67  1.2100664E-01
   7111.00  1.7277229E-01
   7111.33  2.2052292E-01
   7111.67  2.5334901E-01
   7112.00  2.7748041E-01
   7112.33  3.0250123E-01
   7112.67  3.3639573E-01
   7113.00  3.8106614E-01
   7113.33  4.1072818E-01
   7113.67  3.9637820E-01
   7114.00  3.4491945E-01
   7114.33  2.8567723E-01
   7114.67  2.3795288E-01
   7115.00  2.0475579E-01
   7115.33  1.8516007E-01
   7115.67  1.7374164E-01
   7116.00  1.6699491E-01
   7116.33  1.6072259E-01
   7116.67  1.5136911E-01
   7117.00  1.3874806E-01
   7117.33  1.2599239E-01
   7117.67  1.1592098E-01
   7118.00  1.0919992E-01
   7118.33  1.0591356E-01
   7118.67  1.0504537E-01
   7119.00  1.0587014E-01
   7119.33  1.0746780E-01
   7119.67  1.0895287E-01
   7120.00  1.1005049E-01
   7120.33  1.1079457E-01
   7120.67  1.1155132E-01
   7121.00  1.1274672E-01
   7121.33  1.1508926E-01
   7121.67  1.1904798E-01
   7122.00  1.2510861E-01
   7122.33  1.3395559E-01
   7122.67  1.4512091E-01
   7123.00  1.5787471E-01
   7123.33  1.7112703E-01
   7123.67  1.8434991E-01
   7124.00  1.9809768E-01
   7124.33  2.1387221E-01
   7124.67  2.3253426E-01
   7125.00  2.5434077E-01
   7125.33  2.7873767E-01
   7125.67  3.0350853E-01
   7126.00  3.2679563E-01
   7126.33  3.4673111E-01
   7126.67  3.6317884E-01
   7127.00  3.7652103E-01
   7127.33  3.8784944E-01
   7127.67  3.9897266E-01
   7128.00  4.1076965E-01
   7128.33  4.2358634E-01
   7128.67  4.3734131E-01
   7129.00  4.5259543E-01
   7129.33  4.7115707E-01
   7129.67  4.9454230E-01
   7130.00  5.2434689E-01
   7130.33  5.6287926E-01
   7130.67  6.0938051E-01
   7131.00  6.6261832E-01
   7131.33  7.1962428E-01
   7131.67  7.7550654E-01
   7132.00  8.2740408E-01
   7132.33  8.7429234E-01
   7132.67  9.1853116E-01
   7133.00  9.6125063E-01
   7133.33  1.0003246E+00
   7133.67  1.0310708E+00
   7134.00  1.0488403E+00
   7134.33  1.0496974E+00
   7134.67  1.0375057E+00
   7135.00  1.0152818E+00
   7135.33  9.8547628E-01
   7135.67  9.5170377E-01
   7136.00  9.1594471E-01
   7136.33  8.7994374E-01
   7136.67  8.4493136E-01
   7137.00  8.1158758E-01
   7137.33  7.8071509E-01
   7137.67  7.5239651E-01
   7138.00  7.2685391E-01
   7138.33  7.0463707E-01
   7138.67  6.8547008E-01
   7139.00  6.6935227E-01
   7139.33  6.5653775E-01
   7139.67  6.4642480E-01
   7140.00  6.3872978E-01
   7140.33  6.3331092E-01
   7140.67  6.2948740E-01
   7141.00  6.2688477E-01
   7141.33  6.2516278E-01
   7141.67  6.2378634E-01
   7142.00  6.2238859E-01
   7142.33  6.2051331E-01
   7142.67  6.1785846E-01
   7143.00  6.1417789E-01
   7143.33  6.0912205E-01
   7143.67  6.0275944E-01
   7144.00  5.9511048E-01
   7144.33  5.8615060E-01
   7144.67  5.7622855E-01
   7145.00  5.6556054E-01
   7145.33  5.5435785E-01
   7145.67  5.4294499E-01
   7146.00  5.3153059E-01
   7146.33  5.2035297E-01
   7146.67  5.0956390E-01
   7147.00  4.9929270E-01
   7147.33  4.8974785E-01
   7147.67  4.8095471E-01
   7148.00  4.7298821E-01
   7148.33  4.6602453E-01
   7148.67  4.5997913E-01
   7149.00  4.5483034E-01
   7149.33  4.5061138E-01
   7149.67  4.4712158E-01
   7150.00  4.4426421E-01
   7150.33  4.4198579E-01
   7150.67  4.4011278E-01
   7151.00  4.3856837E-01
   7151.33  4.3732215E-01
   7151.67  4.3630570E-01
   7152.00  4.3550868E-01
   7152.33  4.3496444E-01
   7152.67  4.3466031E-01
   7153.00  4.3460765E-01
   7153.33  4.3483591E-01
   7153.67  4.3529057E-01
   7154.00  4.3593326E-01
   7154.33  4.3671428E-01
   7154.67  4.3753623E-01
   7155.00  4.3832107E-01
   7155.33  4.3896140E-01
   7155.67  4.3939095E-01
   7156.00  4.3955279E-01
   7156.33  4.3936361E-01
   7156.67  4.3884668E-01
   7157.00  4.3801401E-01
   7157.33  4.3687638E-01
   7157.67  4.3554350E-01
   7158.00  4.3410075E-01
   7158.33  4.3266297E-01
   7158.67  4.3134924E-01
   7159.00  4.3025772E-01
   7159.33  4.2952871E-01
   7159.67  4.2919959E-01
   7160.00  4.2931604E-01
   7160.33  4.2996617E-01
   7160.67  4.3109543E-01
   7161.00  4.3269118E-01
   7161.33  4.3477884E-01
   7161.67  4.3726090E-01
   7162.00  4.4008707E-01
   7162.33  4.4321895E-01
   7162.67  4.4654107E-01
   7163.00  4.4998808E-01
   7163.33  4.5349809E-01
   7163.67  4.5699721E-01
   7164.00  4.6043133E-01
   7164.33  4.6373000E-01
   7164.67  4.6686485E-01
   7165.00  4.6981097E-01
   7165.33  4.7253081E-01
   7165.67  4.7505587E-01
   7166.00  4.7740638E-01
   7166.33  4.7960288E-01
   7166.67  4.8170836E-01
   7167.00  4.8376488E-01
   7167.33  4.8582044E-01
   7167.67  4.8791685E-01
   7168.00  4.9008231E-01
   7168.33  4.9235167E-01
   7168.67  4.9471907E-01
   7169.00  4.9717548E-01
   7169.33  4.9970825E-01
   7169.67  5.0227838E-01
   7170.00  5.0485348E-01
   7170.33  5.0738591E-01
   7170.67  5.0983296E-01
   7171.00  5.1214943E-01
   7171.33  5.1424879E-01
   7171.67  5.1607199E-01
   7172.00  5.1753080E-01
