    FDMNES
    energy     <xanes>
   7097.00  4.9785260E-03
   7097.33  5.0912887E-03
   7097.67  5.2090697E-03
   7098.00  5.3322067E-03
   7098.33  5.4618586E-03
   7098.67  5.5977857E-03
   7099.00  5.7404482E-03
   7099.33  5.8913598E-03
   7099.67  6.0502751E-03
   7100.00  6.2178376E-03
   7100.33  6.3960765E-03
   7100.67  6.5847635E-03
   7101.00  6.7848263E-03
   7101.33  6.9990699E-03
   7101.67  7.2273335E-03
   7102.00  7.4710046E-03
   7102.33  7.7341054E-03
   7102.67  8.0166544E-03
   7103.00  8.3208194E-03
   7103.33  8.6526316E-03
   7103.67  9.0125423E-03
   7104.00  9.4041256E-03
   7104.33  9.8369420E-03
   7104.67  1.0312480E-02
   7105.00  1.0837042E-02
   7105.33  1.1426903E-02
   7105.67  1.2086139E-02
   7106.00  1.2826896E-02
   7106.33  1.3679608E-02
   7106.67  1.4655422E-02
   7107.00  1.5780723E-02
   7107.33  1.7120441E-02
   7107.67  1.8708006E-02
   7108.00  2.0611679E-02
   7108.33  2.3000150E-02
   7108.67  2.5995506E-02
   7109.00  2.9830174E-02
   7109.33  3.5108820E-02
   7109.67  4.2469933E-02
   7110.00  5.3157233E-02
   7110.33  7.0733749E-02
   7110.67  9.9370849E-02
   7111.00  1.4244425E-01
   7111.33  1.9289054E-01
   7111.67  2.3276729E-01
   7112.00  2.6005561E-01
   7112.33  2.8425119E-01
   7112.67  3.0960628E-01
   7113.00  3.4337117E-01
   7113.33  3.8844463E-01
   7113.67  4.1536120E-01
   7114.00  4.0142335E-01
   7114.33  3.4875622E-01
   7114.67  2.8855713E-01
   7115.00  2.3826135E-01
   7115.33  2.0486784E-01
   7115.67  1.8370938E-01
   7116.00  1.7098153E-01
   7116.33  1.6304409E-01
   7116.67  1.5555269E-01
   7117.00  1.4588525E-01
   7117.33  1.3386307E-01
   7117.67  1.2267206E-01
   7118.00  1.1420814E-01
   7118.33  1.0929119E-01
   7118.67  1.0705676E-01
   7119.00  1.0692694E-01
   7119.33  1.0821916E-01
   7119.67  1.0979899E-01
   7120.00  1.1096846E-01
   7120.33  1.1132426E-01
   7120.67  1.1124068E-01
   7121.00  1.1123814E-01
   7121.33  1.1202891E-01
   7121.67  1.1407324E-01
   7122.00  1.1783819E-01
   7122.33  1.2418316E-01
   7122.67  1.3329210E-01
   7123.00  1.4528335E-01
   7123.33  1.6000979E-01
   7123.67  1.7608908E-01
   7124.00  1.9248792E-01
   7124.33  2.0867511E-01
   7124.67  2.2535842E-01
   7125.00  2.4371578E-01
   7125.33  2.6503505E-01
   7125.67  2.8868562E-01
   7126.00  3.1342743E-01
   7126.33  3.3728639E-01
   7126.67  3.5880588E-01
   7127.00  3.7727281E-01
   7127.33  3.9243288E-01
   7127.67  4.0570952E-01
   7128.00  4.1822082E-01
   7128.33  4.3092577E-01
   7128.67  4.4442618E-01
   7129.00  4.5928209E-01
   7129.33  4.7671665E-01
   7129.67  4.9773905E-01
   7130.00  5.2349960E-01
   7130.33  5.5563862E-01
   7130.67  5.9352379E-01
   7131.00  6.3638220E-01
   7131.33  6.8299440E-01
   7131.67  7.3109763E-01
   7132.00  7.7940270E-01
   7132.33  8.2693344E-01
   7132.67  8.7340112E-01
   7133.00  9.1850939E-01
   7133.33  9.6096003E-01
   7133.67  9.9876207E-01
   7134.00  1.0291034E+00
   7134.33  1.0477586E+00
   7134.67  1.0546817E+00
   7135.00  1.0498551E+00
   7135.33  1.0326925E+00
   7135.67  1.0063524E+00
   7136.00  9.7320070E-01
   7136.33  9.3592766E-01
   7136.67  8.9779211E-01
   7137.00  8.6056314E-01
   7137.33  8.2580675E-01
   7137.67  7.9390044E-01
   7138.00  7.6507480E-01
   7138.33  7.3977778E-01
   7138.67  7.1755937E-01
   7139.00  6.9833034E-01
   7139.33  6.8231721E-01
   7139.67  6.6899401E-01
   7140.00  6.5816740E-01
   7140.33  6.4983009E-01
   7140.67  6.4336299E-01
   7141.00  6.3842521E-01
   7141.33  6.3470995E-01
   7141.67  6.3161466E-01
   7142.00  6.2874442E-01
   7142.33  6.2564949E-01
   7142.67  6.2199470E-01
   7143.00  6.1753831E-01
   7143.33  6.1196268E-01
   7143.67  6.0529763E-01
   7144.00  5.9753849E-01
   7144.33  5.8863116E-01
   7144.67  5.7884651E-01
   7145.00  5.6834854E-01
   7145.33  5.5729517E-01
   7145.67  5.4598155E-01
   7146.00  5.3460911E-01
   7146.33  5.2342563E-01
   7146.67  5.1260578E-01
   7147.00  5.0226591E-01
   7147.33  4.9256968E-01
   7147.67  4.8352154E-01
   7148.00  4.7517607E-01
   7148.33  4.6767435E-01
   7148.67  4.6095221E-01
   7149.00  4.5502000E-01
   7149.33  4.4996870E-01
   7149.67  4.4567054E-01
   7150.00  4.4208239E-01
   7150.33  4.3922694E-01
   7150.67  4.3695928E-01
   7151.00  4.3522311E-01
   7151.33  4.3401420E-01
   7151.67  4.3321850E-01
   7152.00  4.3279641E-01
   7152.33  4.3275075E-01
   7152.67  4.3300275E-01
   7153.00  4.3351847E-01
   7153.33  4.3427997E-01
   7153.67  4.3520508E-01
   7154.00  4.3623282E-01
   7154.33  4.3727768E-01
   7154.67  4.3824119E-01
   7155.00  4.3904234E-01
   7155.33  4.3956794E-01
   7155.67  4.3978770E-01
   7156.00  4.3967196E-01
   7156.33  4.3917279E-01
   7156.67  4.3835895E-01
   7157.00  4.3727625E-01
   7157.33  4.3597669E-01
   7157.67  4.3457871E-01
   7158.00  4.3317201E-01
   7158.33  4.3187638E-01
   7158.67  4.3078285E-01
   7159.00  4.2997148E-01
   7159.33  4.2956474E-01
   7159.67  4.2957376E-01
   7160.00  4.3002721E-01
   7160.33  4.3099213E-01
   7160.67  4.3239824E-01
   7161.00  4.3421703E-01
   7161.33  4.3644403E-01
   7161.67  4.3897018E-01
   7162.00  4.4173415E-01
   7162.33  4.4468540E-01
   7162.67  4.4773341E-01
   7163.00  4.5081606E-01
   7163.33  4.5385213E-01
   7163.67  4.5678715E-01
   7164.00  4.5959405E-01
   7164.33  4.6224091E-01
   7164.67  4.6474434E-01
   7165.00  4.6711226E-01
   7165.33  4.6934692E-01
   7165.67  4.7148548E-01
   7166.00  4.7354911E-01
   7166.33  4.7555580E-01
   7166.67  4.7753266E-01
   7167.00  4.7949360E-01
   7167.33  4.8145008E-01
   7167.67  4.8341003E-01
   7168.00  4.8537601E-01
   7168.33  4.8734756E-01
   7168.67  4.8932009E-01
   7169.00  4.9128967E-01
   7169.33  4.9325166E-01
   7169.67  4.9519883E-01
   7170.00  4.9711983E-01
   7170.33  4.9899307E-01
   7170.67  5.0080330E-01
   7171.00  5.0252717E-01
   7171.33  5.0410952E-01
   7171.67  5.0550272E-01
   7172.00  5.0663124E-01
