    FDMNES
    energy     <xanes>
   7097.00  4.9290810E-03
   7097.33  5.0467572E-03
   7097.67  5.1698215E-03
   7098.00  5.2986441E-03
   7098.33  5.4344812E-03
   7098.67  5.5770863E-03
   7099.00  5.7269663E-03
   7099.33  5.8857729E-03
   7099.67  6.0532579E-03
   7100.00  6.2301362E-03
   7100.33  6.4186387E-03
   7100.67  6.6185453E-03
   7101.00  6.8308971E-03
   7101.33  7.0588081E-03
   7101.67  7.3021502E-03
   7102.00  7.5625009E-03
   7102.33  7.8443805E-03
   7102.67  8.1478978E-03
   7103.00  8.4755573E-03
   7103.33  8.8342461E-03
   7103.67  9.2246411E-03
   7104.00  9.6509565E-03
   7104.33  1.0124339E-02
   7104.67  1.0646840E-02
   7105.00  1.1226088E-02
   7105.33  1.1881583E-02
   7105.67  1.2618875E-02
   7106.00  1.3453170E-02
   7106.33  1.4422273E-02
   7106.67  1.5541589E-02
   7107.00  1.6845633E-02
   7107.33  1.8419039E-02
   7107.67  2.0309629E-02
   7108.00  2.2612003E-02
   7108.33  2.5560849E-02
   7108.67  2.9340790E-02
   7109.00  3.4299941E-02
   7109.33  4.1358105E-02
   7109.67  5.1560953E-02
   7110.00  6.6958622E-02
   7110.33  9.3430534E-02
   7110.67  1.3693530E-01
   7111.00  1.9749004E-01
   7111.33  2.5508990E-01
   7111.67  2.9895995E-01
   7112.00  3.3388613E-01
   7112.33  3.5413764E-01
   7112.67  3.5073426E-01
   7113.00  3.3517925E-01
   7113.33  3.1951734E-01
   7113.67  2.9200521E-01
   7114.00  2.4949191E-01
   7114.33  2.0763518E-01
   7114.67  1.7601536E-01
   7115.00  1.5448338E-01
   7115.33  1.3947112E-01
   7115.67  1.2602332E-01
   7116.00  1.1429136E-01
   7116.33  1.0695381E-01
   7116.67  1.0396706E-01
   7117.00  1.0492192E-01
   7117.33  1.0997733E-01
   7117.67  1.1790951E-01
   7118.00  1.2698011E-01
   7118.33  1.3401026E-01
   7118.67  1.3775798E-01
   7119.00  1.4048192E-01
   7119.33  1.4625799E-01
   7119.67  1.5567336E-01
   7120.00  1.6839158E-01
   7120.33  1.8511046E-01
   7120.67  2.0536141E-01
   7121.00  2.2843511E-01
   7121.33  2.5375451E-01
   7121.67  2.8090290E-01
   7122.00  3.1009392E-01
   7122.33  3.4215288E-01
   7122.67  3.7712326E-01
   7123.00  4.1429515E-01
   7123.33  4.5154630E-01
   7123.67  4.8707201E-01
   7124.00  5.2077538E-01
   7124.33  5.5241455E-01
   7124.67  5.7961204E-01
   7125.00  5.9864799E-01
   7125.33  6.0565270E-01
   7125.67  6.0288780E-01
   7126.00  5.9272400E-01
   7126.33  5.7730281E-01
   7126.67  5.5922522E-01
   7127.00  5.3992965E-01
   7127.33  5.2116353E-01
   7127.67  5.0402796E-01
   7128.00  4.8860572E-01
   7128.33  4.7450022E-01
   7128.67  4.6152701E-01
   7129.00  4.5056119E-01
   7129.33  4.4348227E-01
   7129.67  4.4064910E-01
   7130.00  4.4183784E-01
   7130.33  4.4646678E-01
   7130.67  4.5303497E-01
   7131.00  4.6075621E-01
   7131.33  4.6892142E-01
   7131.67  4.7674467E-01
   7132.00  4.8370468E-01
   7132.33  4.8943490E-01
   7132.67  4.9433947E-01
   7133.00  4.9890825E-01
   7133.33  5.0355299E-01
   7133.67  5.0803831E-01
   7134.00  5.1170210E-01
   7134.33  5.1364858E-01
   7134.67  5.1421752E-01
   7135.00  5.1434432E-01
   7135.33  5.1539555E-01
   7135.67  5.1793960E-01
   7136.00  5.2197627E-01
   7136.33  5.2728382E-01
   7136.67  5.3327917E-01
   7137.00  5.3964236E-01
   7137.33  5.4614066E-01
   7137.67  5.5269028E-01
   7138.00  5.5937330E-01
   7138.33  5.6642053E-01
   7138.67  5.7399278E-01
   7139.00  5.8220956E-01
   7139.33  5.9116590E-01
   7139.67  6.0061124E-01
   7140.00  6.1026553E-01
   7140.33  6.1971671E-01
   7140.67  6.2868096E-01
   7141.00  6.3708039E-01
   7141.33  6.4504533E-01
   7141.67  6.5299820E-01
   7142.00  6.6128062E-01
   7142.33  6.7023506E-01
   7142.67  6.7981865E-01
   7143.00  6.8985491E-01
   7143.33  6.9996237E-01
   7143.67  7.0964446E-01
   7144.00  7.1847945E-01
   7144.33  7.2586526E-01
   7144.67  7.3158440E-01
   7145.00  7.3535883E-01
   7145.33  7.3666384E-01
   7145.67  7.3565309E-01
   7146.00  7.3236993E-01
   7146.33  7.2680596E-01
   7146.67  7.1964961E-01
   7147.00  7.1138934E-01
   7147.33  7.0257163E-01
   7147.67  6.9378166E-01
   7148.00  6.8533940E-01
   7148.33  6.7751556E-01
   7148.67  6.7030233E-01
   7149.00  6.6368446E-01
   7149.33  6.5767401E-01
   7149.67  6.5213672E-01
   7150.00  6.4701670E-01
   7150.33  6.4229224E-01
   7150.67  6.3784675E-01
   7151.00  6.3360760E-01
   7151.33  6.2948841E-01
   7151.67  6.2536347E-01
   7152.00  6.2113249E-01
   7152.33  6.1665428E-01
   7152.67  6.1185261E-01
   7153.00  6.0664998E-01
   7153.33  6.0091100E-01
   7153.67  5.9463440E-01
   7154.00  5.8777844E-01
   7154.33  5.8022719E-01
   7154.67  5.7203186E-01
   7155.00  5.6318388E-01
   7155.33  5.5361449E-01
   7155.67  5.4344477E-01
   7156.00  5.3273628E-01
   7156.33  5.2153759E-01
   7156.67  5.1003885E-01
   7157.00  4.9837585E-01
   7157.33  4.8671761E-01
   7157.67  4.7523100E-01
   7158.00  4.6404892E-01
   7158.33  4.5335836E-01
   7158.67  4.4320634E-01
   7159.00  4.3365423E-01
   7159.33  4.2482366E-01
   7159.67  4.1664689E-01
   7160.00  4.0911703E-01
   7160.33  4.0228710E-01
   7160.67  3.9604300E-01
   7161.00  3.9035031E-01
   7161.33  3.8523059E-01
   7161.67  3.8057968E-01
   7162.00  3.7636570E-01
   7162.33  3.7260558E-01
   7162.67  3.6921993E-01
   7163.00  3.6618741E-01
   7163.33  3.6352739E-01
   7163.67  3.6117941E-01
   7164.00  3.5913020E-01
   7164.33  3.5740376E-01
   7164.67  3.5595548E-01
   7165.00  3.5477903E-01
   7165.33  3.5389982E-01
   7165.67  3.5327610E-01
   7166.00  3.5289992E-01
   7166.33  3.5279300E-01
   7166.67  3.5291903E-01
   7167.00  3.5327401E-01
   7167.33  3.5388348E-01
   7167.67  3.5471780E-01
   7168.00  3.5577545E-01
   7168.33  3.5707937E-01
   7168.67  3.5859211E-01
   7169.00  3.6029874E-01
   7169.33  3.6219531E-01
   7169.67  3.6422822E-01
   7170.00  3.6636475E-01
   7170.33  3.6857034E-01
   7170.67  3.7079053E-01
   7171.00  3.7297890E-01
   7171.33  3.7505120E-01
   7171.67  3.7690893E-01
   7172.00  3.7841508E-01
