    FDMNES
    energy     <xanes>
   7097.00  4.6501421E-03
   7097.33  4.7525010E-03
   7097.67  4.8592203E-03
   7098.00  4.9705855E-03
   7098.33  5.0875912E-03
   7098.67  5.2100203E-03
   7099.00  5.3382621E-03
   7099.33  5.4736119E-03
   7099.67  5.6158487E-03
   7100.00  5.7655184E-03
   7100.33  5.9243562E-03
   7100.67  6.0921590E-03
   7101.00  6.2697188E-03
   7101.33  6.4594391E-03
   7101.67  6.6611840E-03
   7102.00  6.8761500E-03
   7102.33  7.1078052E-03
   7102.67  7.3561910E-03
   7103.00  7.6232057E-03
   7103.33  7.9141113E-03
   7103.67  8.2293814E-03
   7104.00  8.5722141E-03
   7104.33  8.9511114E-03
   7104.67  9.3676026E-03
   7105.00  9.8274991E-03
   7105.33  1.0345688E-02
   7105.67  1.0926413E-02
   7106.00  1.1581319E-02
   7106.33  1.2339393E-02
   7106.67  1.3212557E-02
   7107.00  1.4227438E-02
   7107.33  1.5449341E-02
   7107.67  1.6915522E-02
   7108.00  1.8699406E-02
   7108.33  2.0983006E-02
   7108.67  2.3909804E-02
   7109.00  2.7749206E-02
   7109.33  3.3209623E-02
   7109.67  4.1086176E-02
   7110.00  5.2930347E-02
   7110.33  7.3251700E-02
   7110.67  1.0764235E-01
   7111.00  1.6141228E-01
   7111.33  2.2625525E-01
   7111.67  2.6071112E-01
   7112.00  2.4776949E-01
   7112.33  2.2732232E-01
   7112.67  2.2040809E-01
   7113.00  2.2057963E-01
   7113.33  2.1519186E-01
   7113.67  1.9704288E-01
   7114.00  1.6427988E-01
   7114.33  1.2889324E-01
   7114.67  1.0251746E-01
   7115.00  8.5488033E-02
   7115.33  7.5619284E-02
   7115.67  6.9928419E-02
   7116.00  6.7320766E-02
   7116.33  6.7278630E-02
   7116.67  6.8966192E-02
   7117.00  7.1936527E-02
   7117.33  7.5812157E-02
   7117.67  8.0401113E-02
   7118.00  8.6077546E-02
   7118.33  9.3659364E-02
   7118.67  1.0332174E-01
   7119.00  1.1518540E-01
   7119.33  1.2956626E-01
   7119.67  1.4621364E-01
   7120.00  1.6518154E-01
   7120.33  1.8689297E-01
   7120.67  2.1125379E-01
   7121.00  2.3852420E-01
   7121.33  2.6921948E-01
   7121.67  3.0222287E-01
   7122.00  3.3589530E-01
   7122.33  3.6774784E-01
   7122.67  3.9663571E-01
   7123.00  4.2242756E-01
   7123.33  4.4497788E-01
   7123.67  4.6460129E-01
   7124.00  4.8115711E-01
   7124.33  4.9435293E-01
   7124.67  5.0498292E-01
   7125.00  5.1335768E-01
   7125.33  5.1860053E-01
   7125.67  5.1971854E-01
   7126.00  5.1612322E-01
   7126.33  5.0848854E-01
   7126.67  4.9994085E-01
   7127.00  4.9308696E-01
   7127.33  4.9093399E-01
   7127.67  4.9432441E-01
   7128.00  5.0301389E-01
   7128.33  5.1509581E-01
   7128.67  5.2679306E-01
   7129.00  5.3588643E-01
   7129.33  5.4145105E-01
   7129.67  5.4501489E-01
   7130.00  5.4781853E-01
   7130.33  5.5086558E-01
   7130.67  5.5452911E-01
   7131.00  5.5886631E-01
   7131.33  5.6399129E-01
   7131.67  5.7016413E-01
   7132.00  5.7813966E-01
   7132.33  5.8941735E-01
   7132.67  6.0432644E-01
   7133.00  6.2282410E-01
   7133.33  6.4480883E-01
   7133.67  6.6916081E-01
   7134.00  6.9485222E-01
   7134.33  7.2018421E-01
   7134.67  7.4361847E-01
   7135.00  7.6428519E-01
   7135.33  7.8136522E-01
   7135.67  7.9511386E-01
   7136.00  8.0538783E-01
   7136.33  8.1161224E-01
   7136.67  8.1433075E-01
   7137.00  8.1379867E-01
   7137.33  8.1004315E-01
   7137.67  8.0379232E-01
   7138.00  7.9531671E-01
   7138.33  7.8462467E-01
   7138.67  7.7216436E-01
   7139.00  7.5809435E-01
   7139.33  7.4245559E-01
   7139.67  7.2572156E-01
   7140.00  7.0824259E-01
   7140.33  6.9050257E-01
   7140.67  6.7310978E-01
   7141.00  6.5655303E-01
   7141.33  6.4147097E-01
   7141.67  6.2800577E-01
   7142.00  6.1626202E-01
   7142.33  6.0640294E-01
   7142.67  5.9805912E-01
   7143.00  5.9105127E-01
   7143.33  5.8525639E-01
   7143.67  5.8027786E-01
   7144.00  5.7592452E-01
   7144.33  5.7207123E-01
   7144.67  5.6851290E-01
   7145.00  5.6513431E-01
   7145.33  5.6181289E-01
   7145.67  5.5841543E-01
   7146.00  5.5483537E-01
   7146.33  5.5091856E-01
   7146.67  5.4660268E-01
   7147.00  5.4182363E-01
   7147.33  5.3647506E-01
   7147.67  5.3061391E-01
   7148.00  5.2426180E-01
   7148.33  5.1741216E-01
   7148.67  5.1018550E-01
   7149.00  5.0264394E-01
   7149.33  4.9483040E-01
   7149.67  4.8684704E-01
   7150.00  4.7875465E-01
   7150.33  4.7061893E-01
   7150.67  4.6251878E-01
   7151.00  4.5452377E-01
   7151.33  4.4674579E-01
   7151.67  4.3925394E-01
   7152.00  4.3213043E-01
   7152.33  4.2552557E-01
   7152.67  4.1946376E-01
   7153.00  4.1400058E-01
   7153.33  4.0925342E-01
   7153.67  4.0514406E-01
   7154.00  4.0164638E-01
   7154.33  3.9877991E-01
   7154.67  3.9640823E-01
   7155.00  3.9446356E-01
   7155.33  3.9290442E-01
   7155.67  3.9160935E-01
   7156.00  3.9052107E-01
   7156.33  3.8960683E-01
   7156.67  3.8881102E-01
   7157.00  3.8811413E-01
   7157.33  3.8751603E-01
   7157.67  3.8700437E-01
   7158.00  3.8658322E-01
   7158.33  3.8627308E-01
   7158.67  3.8606968E-01
   7159.00  3.8597794E-01
   7159.33  3.8601566E-01
   7159.67  3.8616778E-01
   7160.00  3.8642970E-01
   7160.33  3.8680342E-01
   7160.67  3.8725994E-01
   7161.00  3.8778033E-01
   7161.33  3.8834167E-01
   7161.67  3.8890915E-01
   7162.00  3.8945794E-01
   7162.33  3.8995589E-01
   7162.67  3.9038812E-01
   7163.00  3.9074322E-01
   7163.33  3.9100537E-01
   7163.67  3.9118942E-01
   7164.00  3.9130799E-01
   7164.33  3.9138059E-01
   7164.67  3.9144572E-01
   7165.00  3.9153733E-01
   7165.33  3.9170784E-01
   7165.67  3.9199341E-01
   7166.00  3.9243068E-01
   7166.33  3.9308005E-01
   7166.67  3.9394516E-01
   7167.00  3.9504019E-01
   7167.33  3.9639973E-01
   7167.67  3.9798836E-01
   7168.00  3.9979333E-01
   7168.33  4.0181742E-01
   7168.67  4.0400975E-01
   7169.00  4.0634569E-01
   7169.33  4.0881075E-01
   7169.67  4.1136212E-01
   7170.00  4.1397527E-01
   7170.33  4.1662405E-01
   7170.67  4.1926893E-01
   7171.00  4.2186932E-01
   7171.33  4.2433858E-01
   7171.67  4.2656655E-01
   7172.00  4.2839321E-01
