    FDMNES
    energy     <xanes>
   7097.00  4.9263585E-03
   7097.33  5.0437423E-03
   7097.67  5.1665652E-03
   7098.00  5.2952044E-03
   7098.33  5.4309350E-03
   7098.67  5.5735126E-03
   7099.00  5.7234549E-03
   7099.33  5.8824404E-03
   7099.67  6.0502234E-03
   7100.00  6.2275336E-03
   7100.33  6.4166402E-03
   7100.67  6.6173250E-03
   7101.00  6.8306494E-03
   7101.33  7.0597802E-03
   7101.67  7.3045899E-03
   7102.00  7.5666815E-03
   7102.33  7.8506451E-03
   7102.67  8.1565844E-03
   7103.00  8.4870321E-03
   7103.33  8.8489563E-03
   7103.67  9.2430112E-03
   7104.00  9.6734263E-03
   7104.33  1.0151407E-02
   7104.67  1.0678924E-02
   7105.00  1.1263553E-02
   7105.33  1.1924687E-02
   7105.67  1.2667607E-02
   7106.00  1.3507167E-02
   7106.33  1.4480367E-02
   7106.67  1.5601605E-02
   7107.00  1.6903822E-02
   7107.33  1.8467800E-02
   7107.67  2.0337034E-02
   7108.00  2.2598700E-02
   7108.33  2.5468075E-02
   7108.67  2.9105823E-02
   7109.00  3.3815385E-02
   7109.33  4.0387241E-02
   7109.67  4.9669411E-02
   7110.00  6.3307541E-02
   7110.33  8.5975544E-02
   7110.67  1.2278079E-01
   7111.00  1.7706775E-01
   7111.33  2.4728806E-01
   7111.67  3.2442499E-01
   7112.00  3.7971008E-01
   7112.33  3.8573702E-01
   7112.67  3.6369404E-01
   7113.00  3.2310005E-01
   7113.33  2.8971102E-01
   7113.67  2.8607243E-01
   7114.00  3.0246305E-01
   7114.33  2.9828452E-01
   7114.67  2.6495677E-01
   7115.00  2.2878919E-01
   7115.33  2.1362237E-01
   7115.67  2.1686923E-01
   7116.00  2.2507607E-01
   7116.33  2.1842596E-01
   7116.67  1.9966000E-01
   7117.00  1.7878189E-01
   7117.33  1.6287046E-01
   7117.67  1.5252878E-01
   7118.00  1.4669249E-01
   7118.33  1.4343661E-01
   7118.67  1.4069522E-01
   7119.00  1.3799304E-01
   7119.33  1.3570281E-01
   7119.67  1.3453176E-01
   7120.00  1.3486352E-01
   7120.33  1.3589401E-01
   7120.67  1.3579838E-01
   7121.00  1.3429408E-01
   7121.33  1.3306802E-01
   7121.67  1.3375082E-01
   7122.00  1.3683162E-01
   7122.33  1.4253722E-01
   7122.67  1.5042272E-01
   7123.00  1.6047056E-01
   7123.33  1.7296062E-01
   7123.67  1.8731013E-01
   7124.00  2.0292629E-01
   7124.33  2.1944860E-01
   7124.67  2.3713052E-01
   7125.00  2.5658675E-01
   7125.33  2.7812308E-01
   7125.67  3.0030185E-01
   7126.00  3.2111588E-01
   7126.33  3.3773003E-01
   7126.67  3.5033746E-01
   7127.00  3.6111189E-01
   7127.33  3.7366363E-01
   7127.67  3.8970277E-01
   7128.00  4.0938936E-01
   7128.33  4.3270334E-01
   7128.67  4.5893031E-01
   7129.00  4.8785847E-01
   7129.33  5.1890257E-01
   7129.67  5.4999967E-01
   7130.00  5.7923194E-01
   7130.33  6.0462555E-01
   7130.67  6.2635452E-01
   7131.00  6.4496793E-01
   7131.33  6.6108390E-01
   7131.67  6.7573437E-01
   7132.00  6.8935049E-01
   7132.33  7.0211368E-01
   7132.67  7.1417991E-01
   7133.00  7.2541313E-01
   7133.33  7.3524033E-01
   7133.67  7.4317068E-01
   7134.00  7.4862007E-01
   7134.33  7.5071046E-01
   7134.67  7.4947036E-01
   7135.00  7.4466244E-01
   7135.33  7.3580621E-01
   7135.67  7.2370649E-01
   7136.00  7.0888145E-01
   7136.33  6.9178082E-01
   7136.67  6.7340797E-01
   7137.00  6.5445010E-01
   7137.33  6.3579590E-01
   7137.67  6.1827299E-01
   7138.00  6.0254423E-01
   7138.33  5.8948221E-01
   7138.67  5.7908679E-01
   7139.00  5.7139657E-01
   7139.33  5.6661684E-01
   7139.67  5.6421653E-01
   7140.00  5.6398125E-01
   7140.33  5.6585643E-01
   7140.67  5.6926125E-01
   7141.00  5.7384721E-01
   7141.33  5.7926158E-01
   7141.67  5.8498039E-01
   7142.00  5.9069560E-01
   7142.33  5.9613812E-01
   7142.67  6.0124325E-01
   7143.00  6.0603274E-01
   7143.33  6.1059833E-01
   7143.67  6.1514571E-01
   7144.00  6.1985461E-01
   7144.33  6.2497623E-01
   7144.67  6.3062672E-01
   7145.00  6.3687996E-01
   7145.33  6.4380085E-01
   7145.67  6.5120940E-01
   7146.00  6.5894495E-01
   7146.33  6.6675775E-01
   7146.67  6.7432708E-01
   7147.00  6.8136702E-01
   7147.33  6.8744975E-01
   7147.67  6.9240364E-01
   7148.00  6.9604421E-01
   7148.33  6.9805257E-01
   7148.67  6.9855935E-01
   7149.00  6.9758558E-01
   7149.33  6.9504254E-01
   7149.67  6.9123696E-01
   7150.00  6.8630845E-01
   7150.33  6.8032216E-01
   7150.67  6.7357396E-01
   7151.00  6.6620212E-01
   7151.33  6.5829473E-01
   7151.67  6.5003665E-01
   7152.00  6.4151582E-01
   7152.33  6.3279597E-01
   7152.67  6.2397054E-01
   7153.00  6.1508997E-01
   7153.33  6.0620236E-01
   7153.67  5.9734749E-01
   7154.00  5.8855244E-01
   7154.33  5.7985439E-01
   7154.67  5.7126637E-01
   7155.00  5.6280808E-01
   7155.33  5.5452125E-01
   7155.67  5.4641217E-01
   7156.00  5.3850643E-01
   7156.33  5.3086801E-01
   7156.67  5.2350706E-01
   7157.00  5.1646316E-01
   7157.33  5.0983454E-01
   7157.67  5.0363227E-01
   7158.00  4.9790713E-01
   7158.33  4.9278188E-01
   7158.67  4.8823785E-01
   7159.00  4.8430551E-01
   7159.33  4.8108107E-01
   7159.67  4.7848043E-01
   7160.00  4.7647952E-01
   7160.33  4.7509761E-01
   7160.67  4.7419620E-01
   7161.00  4.7370375E-01
   7161.33  4.7356975E-01
   7161.67  4.7366052E-01
   7162.00  4.7389438E-01
   7162.33  4.7418066E-01
   7162.67  4.7441151E-01
   7163.00  4.7449498E-01
   7163.33  4.7430553E-01
   7163.67  4.7379815E-01
   7164.00  4.7292689E-01
   7164.33  4.7161476E-01
   7164.67  4.6991075E-01
   7165.00  4.6783586E-01
   7165.33  4.6539359E-01
   7165.67  4.6268207E-01
   7166.00  4.5975439E-01
   7166.33  4.5665186E-01
   7166.67  4.5344836E-01
   7167.00  4.5018234E-01
   7167.33  4.4688523E-01
   7167.67  4.4359043E-01
   7168.00  4.4032042E-01
   7168.33  4.3709447E-01
   7168.67  4.3391444E-01
   7169.00  4.3078305E-01
   7169.33  4.2770877E-01
   7169.67  4.2468874E-01
   7170.00  4.2172858E-01
   7170.33  4.1884938E-01
   7170.67  4.1606481E-01
   7171.00  4.1340692E-01
   7171.33  4.1095939E-01
   7171.67  4.0879855E-01
   7172.00  4.0704350E-01
