    FDMNES
    energy     <xanes>
   7097.00  4.4672946E-03
   7097.33  4.5640980E-03
   7097.67  4.6649905E-03
   7098.00  4.7702414E-03
   7098.33  4.8807858E-03
   7098.67  4.9964228E-03
   7099.00  5.1175208E-03
   7099.33  5.2453015E-03
   7099.67  5.3795626E-03
   7100.00  5.5208238E-03
   7100.33  5.6707284E-03
   7100.67  5.8290956E-03
   7101.00  5.9966842E-03
   7101.33  6.1757837E-03
   7101.67  6.3662855E-03
   7102.00  6.5693454E-03
   7102.33  6.7882917E-03
   7102.67  7.0232025E-03
   7103.00  7.2759294E-03
   7103.33  7.5515719E-03
   7103.67  7.8506603E-03
   7104.00  8.1763529E-03
   7104.33  8.5369930E-03
   7104.67  8.9342204E-03
   7105.00  9.3738637E-03
   7105.33  9.8707715E-03
   7105.67  1.0429471E-02
   7106.00  1.1061878E-02
   7106.33  1.1797535E-02
   7106.67  1.2649313E-02
   7107.00  1.3645198E-02
   7107.33  1.4853790E-02
   7107.67  1.6316389E-02
   7108.00  1.8113255E-02
   7108.33  2.0444439E-02
   7108.67  2.3476709E-02
   7109.00  2.7523228E-02
   7109.33  3.3421161E-02
   7109.67  4.2169373E-02
   7110.00  5.5740652E-02
   7110.33  7.9901178E-02
   7110.67  1.2090363E-01
   7111.00  1.7840628E-01
   7111.33  2.1836756E-01
   7111.67  2.2433494E-01
   7112.00  2.1482308E-01
   7112.33  2.0387129E-01
   7112.67  1.9798877E-01
   7113.00  2.0143078E-01
   7113.33  2.0435278E-01
   7113.67  1.8734269E-01
   7114.00  1.5051731E-01
   7114.33  1.1435490E-01
   7114.67  8.8268147E-02
   7115.00  7.1133357E-02
   7115.33  6.1107749E-02
   7115.67  5.5359559E-02
   7116.00  5.2726206E-02
   7116.33  5.2656099E-02
   7116.67  5.4317362E-02
   7117.00  5.7294957E-02
   7117.33  6.1199564E-02
   7117.67  6.5526743E-02
   7118.00  7.0109313E-02
   7118.33  7.4968085E-02
   7118.67  8.0143327E-02
   7119.00  8.5754521E-02
   7119.33  9.2147322E-02
   7119.67  9.9495182E-02
   7120.00  1.0785689E-01
   7120.33  1.1721392E-01
   7120.67  1.2735872E-01
   7121.00  1.3842230E-01
   7121.33  1.5094792E-01
   7121.67  1.6521732E-01
   7122.00  1.8154207E-01
   7122.33  2.0037883E-01
   7122.67  2.2129248E-01
   7123.00  2.4398094E-01
   7123.33  2.6896405E-01
   7123.67  2.9715730E-01
   7124.00  3.2907939E-01
   7124.33  3.6295542E-01
   7124.67  3.9443858E-01
   7125.00  4.2202992E-01
   7125.33  4.4869166E-01
   7125.67  4.7825371E-01
   7126.00  5.1073668E-01
   7126.33  5.4199666E-01
   7126.67  5.6684775E-01
   7127.00  5.8310873E-01
   7127.33  5.9211931E-01
   7127.67  5.9981846E-01
   7128.00  6.1035668E-01
   7128.33  6.2715831E-01
   7128.67  6.5009657E-01
   7129.00  6.7879580E-01
   7129.33  7.1243346E-01
   7129.67  7.4705167E-01
   7130.00  7.7852947E-01
   7130.33  8.0265939E-01
   7130.67  8.2031018E-01
   7131.00  8.3361162E-01
   7131.33  8.4522971E-01
   7131.67  8.5733081E-01
   7132.00  8.7063468E-01
   7132.33  8.8427687E-01
   7132.67  8.9424229E-01
   7133.00  8.9493748E-01
   7133.33  8.7936779E-01
   7133.67  8.5020153E-01
   7134.00  8.1338214E-01
   7134.33  7.7802137E-01
   7134.67  7.5004369E-01
   7135.00  7.3044641E-01
   7135.33  7.1776608E-01
   7135.67  7.0817721E-01
   7136.00  6.9963737E-01
   7136.33  6.9063959E-01
   7136.67  6.8063869E-01
   7137.00  6.6965084E-01
   7137.33  6.5799755E-01
   7137.67  6.4630596E-01
   7138.00  6.3502512E-01
   7138.33  6.2465214E-01
   7138.67  6.1531857E-01
   7139.00  6.0710135E-01
   7139.33  6.0010974E-01
   7139.67  5.9409353E-01
   7140.00  5.8891371E-01
   7140.33  5.8446471E-01
   7140.67  5.8047518E-01
   7141.00  5.7680160E-01
   7141.33  5.7336426E-01
   7141.67  5.7011231E-01
   7142.00  5.6707218E-01
   7142.33  5.6436076E-01
   7142.67  5.6205176E-01
   7143.00  5.6023093E-01
   7143.33  5.5901720E-01
   7143.67  5.5831757E-01
   7144.00  5.5804323E-01
   7144.33  5.5805604E-01
   7144.67  5.5810858E-01
   7145.00  5.5800596E-01
   7145.33  5.5749537E-01
   7145.67  5.5646180E-01
   7146.00  5.5482185E-01
   7146.33  5.5247029E-01
   7146.67  5.4951723E-01
   7147.00  5.4601702E-01
   7147.33  5.4199578E-01
   7147.67  5.3760894E-01
   7148.00  5.3294464E-01
   7148.33  5.2808222E-01
   7148.67  5.2313770E-01
   7149.00  5.1818299E-01
   7149.33  5.1329887E-01
   7149.67  5.0853314E-01
   7150.00  5.0391393E-01
   7150.33  4.9946542E-01
   7150.67  4.9514030E-01
   7151.00  4.9088627E-01
   7151.33  4.8660932E-01
   7151.67  4.8219521E-01
   7152.00  4.7753259E-01
   7152.33  4.7244439E-01
   7152.67  4.6686117E-01
   7153.00  4.6070265E-01
   7153.33  4.5382711E-01
   7153.67  4.4628540E-01
   7154.00  4.3809299E-01
   7154.33  4.2925061E-01
   7154.67  4.1994848E-01
   7155.00  4.1031431E-01
   7155.33  4.0049677E-01
   7155.67  3.9070311E-01
   7156.00  3.8109953E-01
   7156.33  3.7191777E-01
   7156.67  3.6327492E-01
   7157.00  3.5528813E-01
   7157.33  3.4815239E-01
   7157.67  3.4182818E-01
   7158.00  3.3632647E-01
   7158.33  3.3172290E-01
   7158.67  3.2786375E-01
   7159.00  3.2468901E-01
   7159.33  3.2220140E-01
   7159.67  3.2025886E-01
   7160.00  3.1881810E-01
   7160.33  3.1790448E-01
   7160.67  3.1744229E-01
   7161.00  3.1742545E-01
   7161.33  3.1790514E-01
   7161.67  3.1882003E-01
   7162.00  3.2015985E-01
   7162.33  3.2195462E-01
   7162.67  3.2411864E-01
   7163.00  3.2660392E-01
   7163.33  3.2937314E-01
   7163.67  3.3233476E-01
   7164.00  3.3544537E-01
   7164.33  3.3867021E-01
   7164.67  3.4195642E-01
   7165.00  3.4527593E-01
   7165.33  3.4860494E-01
   7165.67  3.5192566E-01
   7166.00  3.5522949E-01
   7166.33  3.5850973E-01
   7166.67  3.6176973E-01
   7167.00  3.6501237E-01
   7167.33  3.6824090E-01
   7167.67  3.7146213E-01
   7168.00  3.7468049E-01
   7168.33  3.7790117E-01
   7168.67  3.8112786E-01
   7169.00  3.8436254E-01
   7169.33  3.8760665E-01
   7169.67  3.9085677E-01
   7170.00  3.9410762E-01
   7170.33  3.9734601E-01
   7170.67  4.0055102E-01
   7171.00  4.0368820E-01
   7171.33  4.0666505E-01
   7171.67  4.0935673E-01
   7172.00  4.1157348E-01
