    FDMNES
    energy     <xanes>
   7097.00  5.1867621E-03
   7097.33  5.3215851E-03
   7097.67  5.4631195E-03
   7098.00  5.6118609E-03
   7098.33  5.7694340E-03
   7098.67  5.9355803E-03
   7099.00  6.1109928E-03
   7099.33  6.2978503E-03
   7099.67  6.4959118E-03
   7100.00  6.7061749E-03
   7100.33  6.9316509E-03
   7100.67  7.1721682E-03
   7101.00  7.4292148E-03
   7101.33  7.7071023E-03
   7101.67  8.0058435E-03
   7102.00  8.3277527E-03
   7102.33  8.6792723E-03
   7102.67  9.0608554E-03
   7103.00  9.4762876E-03
   7103.33  9.9357114E-03
   7103.67  1.0440615E-02
   7104.00  1.0997586E-02
   7104.33  1.1623668E-02
   7104.67  1.2322856E-02
   7105.00  1.3107549E-02
   7105.33  1.4008867E-02
   7105.67  1.5037315E-02
   7106.00  1.6218715E-02
   7106.33  1.7616504E-02
   7106.67  1.9260028E-02
   7107.00  2.1210989E-02
   7107.33  2.3619926E-02
   7107.67  2.6580573E-02
   7108.00  3.0272419E-02
   7108.33  3.5142062E-02
   7108.67  4.1567630E-02
   7109.00  5.0255189E-02
   7109.33  6.3090116E-02
   7109.67  8.2326718E-02
   7110.00  1.1239924E-01
   7110.33  1.6615208E-01
   7110.67  2.5686504E-01
   7111.00  3.8427322E-01
   7111.33  4.9982089E-01
   7111.67  5.5670975E-01
   7112.00  5.3358647E-01
   7112.33  4.4246670E-01
   7112.67  3.4254298E-01
   7113.00  2.6077594E-01
   7113.33  2.0487171E-01
   7113.67  1.6638491E-01
   7114.00  1.4017592E-01
   7114.33  1.2293986E-01
   7114.67  1.1092849E-01
   7115.00  1.0284845E-01
   7115.33  9.8273703E-02
   7115.67  9.5778098E-02
   7116.00  9.4597903E-02
   7116.33  9.5025372E-02
   7116.67  9.7518035E-02
   7117.00  1.0249297E-01
   7117.33  1.1055654E-01
   7117.67  1.2131630E-01
   7118.00  1.3420269E-01
   7118.33  1.4759333E-01
   7118.67  1.5935450E-01
   7119.00  1.6885743E-01
   7119.33  1.7701399E-01
   7119.67  1.8569174E-01
   7120.00  1.9628976E-01
   7120.33  2.1064838E-01
   7120.67  2.2918482E-01
   7121.00  2.5180216E-01
   7121.33  2.7784311E-01
   7121.67  3.0550032E-01
   7122.00  3.3396519E-01
   7122.33  3.6344422E-01
   7122.67  3.9450284E-01
   7123.00  4.2726166E-01
   7123.33  4.6071495E-01
   7123.67  4.9275896E-01
   7124.00  5.2175305E-01
   7124.33  5.4604309E-01
   7124.67  5.6566860E-01
   7125.00  5.8021080E-01
   7125.33  5.8805142E-01
   7125.67  5.8915410E-01
   7126.00  5.8361934E-01
   7126.33  5.7188932E-01
   7126.67  5.5640803E-01
   7127.00  5.3884543E-01
   7127.33  5.2110703E-01
   7127.67  5.0488536E-01
   7128.00  4.9121909E-01
   7128.33  4.8117999E-01
   7128.67  4.7454989E-01
   7129.00  4.7122600E-01
   7129.33  4.7128903E-01
   7129.67  4.7395998E-01
   7130.00  4.7883960E-01
   7130.33  4.8562324E-01
   7130.67  4.9353912E-01
   7131.00  5.0209258E-01
   7131.33  5.1074986E-01
   7131.67  5.1904426E-01
   7132.00  5.2668922E-01
   7132.33  5.3338044E-01
   7132.67  5.3917185E-01
   7133.00  5.4412763E-01
   7133.33  5.4832762E-01
   7133.67  5.5202861E-01
   7134.00  5.5529567E-01
   7134.33  5.5796666E-01
   7134.67  5.5986656E-01
   7135.00  5.6080672E-01
   7135.33  5.6067878E-01
   7135.67  5.5996563E-01
   7136.00  5.5920661E-01
   7136.33  5.5918620E-01
   7136.67  5.6041570E-01
   7137.00  5.6323519E-01
   7137.33  5.6805528E-01
   7137.67  5.7465264E-01
   7138.00  5.8290903E-01
   7138.33  5.9274078E-01
   7138.67  6.0357084E-01
   7139.00  6.1499768E-01
   7139.33  6.2656468E-01
   7139.67  6.3777279E-01
   7140.00  6.4821528E-01
   7140.33  6.5731759E-01
   7140.67  6.6489672E-01
   7141.00  6.7076989E-01
   7141.33  6.7463801E-01
   7141.67  6.7678977E-01
   7142.00  6.7737069E-01
   7142.33  6.7643955E-01
   7142.67  6.7441753E-01
   7143.00  6.7152309E-01
   7143.33  6.6791058E-01
   7143.67  6.6385796E-01
   7144.00  6.5950240E-01
   7144.33  6.5494388E-01
   7144.67  6.5029082E-01
   7145.00  6.4559028E-01
   7145.33  6.4086554E-01
   7145.67  6.3611716E-01
   7146.00  6.3132363E-01
   7146.33  6.2642921E-01
   7146.67  6.2138895E-01
   7147.00  6.1615614E-01
   7147.33  6.1066155E-01
   7147.67  6.0492020E-01
   7148.00  5.9894568E-01
   7148.33  5.9275938E-01
   7148.67  5.8645508E-01
   7149.00  5.8010569E-01
   7149.33  5.7380535E-01
   7149.67  5.6763081E-01
   7150.00  5.6164056E-01
   7150.33  5.5591331E-01
   7150.67  5.5044959E-01
   7151.00  5.4526049E-01
   7151.33  5.4037736E-01
   7151.67  5.3574944E-01
   7152.00  5.3135396E-01
   7152.33  5.2718164E-01
   7152.67  5.2316686E-01
   7153.00  5.1926994E-01
   7153.33  5.1544751E-01
   7153.67  5.1163346E-01
   7154.00  5.0777265E-01
   7154.33  5.0378033E-01
   7154.67  4.9959858E-01
   7155.00  4.9516762E-01
   7155.33  4.9038777E-01
   7155.67  4.8525265E-01
   7156.00  4.7974094E-01
   7156.33  4.7380644E-01
   7156.67  4.6752196E-01
   7157.00  4.6092336E-01
   7157.33  4.5403190E-01
   7157.67  4.4694102E-01
   7158.00  4.3970808E-01
   7158.33  4.3239407E-01
   7158.67  4.2507820E-01
   7159.00  4.1781773E-01
   7159.33  4.1068430E-01
   7159.67  4.0370873E-01
   7160.00  3.9692138E-01
   7160.33  3.9037634E-01
   7160.67  3.8406625E-01
   7161.00  3.7800301E-01
   7161.33  3.7222750E-01
   7161.67  3.6671357E-01
   7162.00  3.6146562E-01
   7162.33  3.5652116E-01
   7162.67  3.5184774E-01
   7163.00  3.4744786E-01
   7163.33  3.4336178E-01
   7163.67  3.3956068E-01
   7164.00  3.3605058E-01
   7164.33  3.3287597E-01
   7164.67  3.3000627E-01
   7165.00  3.2744702E-01
   7165.33  3.2524345E-01
   7165.67  3.2335995E-01
   7166.00  3.2179795E-01
   7166.33  3.2059764E-01
   7166.67  3.1971750E-01
   7167.00  3.1915499E-01
   7167.33  3.1894414E-01
   7167.67  3.1903901E-01
   7168.00  3.1943270E-01
   7168.33  3.2015226E-01
   7168.67  3.2115076E-01
   7169.00  3.2241719E-01
   7169.33  3.2396689E-01
   7169.67  3.2574761E-01
   7170.00  3.2773777E-01
   7170.33  3.2992859E-01
   7170.67  3.3225569E-01
   7171.00  3.3466726E-01
   7171.33  3.3706729E-01
   7171.67  3.3929398E-01
   7172.00  3.4113870E-01
