    FDMNES
    energy     <xanes>
   7097.00  4.1015079E-03
   7097.33  4.1772793E-03
   7097.67  4.2556489E-03
   7098.00  4.3367566E-03
   7098.33  4.4211449E-03
   7098.67  4.5086451E-03
   7099.00  4.5994409E-03
   7099.33  4.6942101E-03
   7099.67  4.7927737E-03
   7100.00  4.8953809E-03
   7100.33  5.0029010E-03
   7100.67  5.1151524E-03
   7101.00  5.2324853E-03
   7101.33  5.3560535E-03
   7101.67  5.4856912E-03
   7102.00  5.6219133E-03
   7102.33  5.7663179E-03
   7102.67  5.9187996E-03
   7103.00  6.0801584E-03
   7103.33  6.2527343E-03
   7103.67  6.4365881E-03
   7104.00  6.6330529E-03
   7104.33  6.8458107E-03
   7104.67  7.0753579E-03
   7105.00  7.3241208E-03
   7105.33  7.5984672E-03
   7105.67  7.9000751E-03
   7106.00  8.2338936E-03
   7106.33  8.6124121E-03
   7106.67  9.0408361E-03
   7107.00  9.5309178E-03
   7107.33  1.0111749E-02
   7107.67  1.0800926E-02
   7108.00  1.1632970E-02
   7108.33  1.2694518E-02
   7108.67  1.4059520E-02
   7109.00  1.5867233E-02
   7109.33  1.8492605E-02
   7109.67  2.2393171E-02
   7110.00  2.8476704E-02
   7110.33  3.9436743E-02
   7110.67  5.8470522E-02
   7111.00  8.6229181E-02
   7111.33  1.0321845E-01
   7111.67  9.4504012E-02
   7112.00  7.7007453E-02
   7112.33  6.5453265E-02
   7112.67  5.7426459E-02
   7113.00  4.9918102E-02
   7113.33  4.3695054E-02
   7113.67  3.9779701E-02
   7114.00  3.7328020E-02
   7114.33  3.5264506E-02
   7114.67  3.3951954E-02
   7115.00  3.3577969E-02
   7115.33  3.4063123E-02
   7115.67  3.5224701E-02
   7116.00  3.7055877E-02
   7116.33  3.9630278E-02
   7116.67  4.2834325E-02
   7117.00  4.6605781E-02
   7117.33  5.0871450E-02
   7117.67  5.5462049E-02
   7118.00  6.0429868E-02
   7118.33  6.6219411E-02
   7118.67  7.3290316E-02
   7119.00  8.2060976E-02
   7119.33  9.2907677E-02
   7119.67  1.0509087E-01
   7120.00  1.1757810E-01
   7120.33  1.2899926E-01
   7120.67  1.3941068E-01
   7121.00  1.4990085E-01
   7121.33  1.6187011E-01
   7121.67  1.7520162E-01
   7122.00  1.8907258E-01
   7122.33  2.0221266E-01
   7122.67  2.1426053E-01
   7123.00  2.2629460E-01
   7123.33  2.4186101E-01
   7123.67  2.6446044E-01
   7124.00  2.9683935E-01
   7124.33  3.4235669E-01
   7124.67  4.0006191E-01
   7125.00  4.6922553E-01
   7125.33  5.4822976E-01
   7125.67  6.3090195E-01
   7126.00  7.1137734E-01
   7126.33  7.8150012E-01
   7126.67  8.3719560E-01
   7127.00  8.7619481E-01
   7127.33  8.9589778E-01
   7127.67  8.9972769E-01
   7128.00  8.9013151E-01
   7128.33  8.7032186E-01
   7128.67  8.4653853E-01
   7129.00  8.2277443E-01
   7129.33  8.0267766E-01
   7129.67  7.8731371E-01
   7130.00  7.7685818E-01
   7130.33  7.7128781E-01
   7130.67  7.6894621E-01
   7131.00  7.6857418E-01
   7131.33  7.6859802E-01
   7131.67  7.6753368E-01
   7132.00  7.6457912E-01
   7132.33  7.5921091E-01
   7132.67  7.5205205E-01
   7133.00  7.4364880E-01
   7133.33  7.3455371E-01
   7133.67  7.2530312E-01
   7134.00  7.1612115E-01
   7134.33  7.0711494E-01
   7134.67  6.9821098E-01
   7135.00  6.8928693E-01
   7135.33  6.8013081E-01
   7135.67  6.7058620E-01
   7136.00  6.6053917E-01
   7136.33  6.4987072E-01
   7136.67  6.3869780E-01
   7137.00  6.2711724E-01
   7137.33  6.1522438E-01
   7137.67  6.0317758E-01
   7138.00  5.9106503E-01
   7138.33  5.7895498E-01
   7138.67  5.6687830E-01
   7139.00  5.5484071E-01
   7139.33  5.4284152E-01
   7139.67  5.3087395E-01
   7140.00  5.1894795E-01
   7140.33  5.0711008E-01
   7140.67  4.9543234E-01
   7141.00  4.8404064E-01
   7141.33  4.7323980E-01
   7141.67  4.6332706E-01
   7142.00  4.5471464E-01
   7142.33  4.4819140E-01
   7142.67  4.4406722E-01
   7143.00  4.4269032E-01
   7143.33  4.4457217E-01
   7143.67  4.4915321E-01
   7144.00  4.5598676E-01
   7144.33  4.6449710E-01
   7144.67  4.7362102E-01
   7145.00  4.8263308E-01
   7145.33  4.9070266E-01
   7145.67  4.9741288E-01
   7146.00  5.0252664E-01
   7146.33  5.0574691E-01
   7146.67  5.0733463E-01
   7147.00  5.0740491E-01
   7147.33  5.0597301E-01
   7147.67  5.0341124E-01
   7148.00  4.9989854E-01
   7148.33  4.9554209E-01
   7148.67  4.9062327E-01
   7149.00  4.8529142E-01
   7149.33  4.7967619E-01
   7149.67  4.7395824E-01
   7150.00  4.6825870E-01
   7150.33  4.6273266E-01
   7150.67  4.5748961E-01
   7151.00  4.5263332E-01
   7151.33  4.4833608E-01
   7151.67  4.4463214E-01
   7152.00  4.4158920E-01
   7152.33  4.3935441E-01
   7152.67  4.3787426E-01
   7153.00  4.3716401E-01
   7153.33  4.3731937E-01
   7153.67  4.3822469E-01
   7154.00  4.3984844E-01
   7154.33  4.4222008E-01
   7154.67  4.4518442E-01
   7155.00  4.4866482E-01
   7155.33  4.5260789E-01
   7155.67  4.5684444E-01
   7156.00  4.6126714E-01
   7156.33  4.6575775E-01
   7156.67  4.7019024E-01
   7157.00  4.7447519E-01
   7157.33  4.7849838E-01
   7157.67  4.8222284E-01
   7158.00  4.8560706E-01
   7158.33  4.8857772E-01
   7158.67  4.9117355E-01
   7159.00  4.9339991E-01
   7159.33  4.9522799E-01
   7159.67  4.9672336E-01
   7160.00  4.9790565E-01
   7160.33  4.9876102E-01
   7160.67  4.9934683E-01
   7161.00  4.9967897E-01
   7161.33  4.9974332E-01
   7161.67  4.9958328E-01
   7162.00  4.9920976E-01
   7162.33  4.9860940E-01
   7162.67  4.9781820E-01
   7163.00  4.9684539E-01
   7163.33  4.9568129E-01
   7163.67  4.9435966E-01
   7164.00  4.9289144E-01
   7164.33  4.9127223E-01
   7164.67  4.8953107E-01
   7165.00  4.8767881E-01
   7165.33  4.8571762E-01
   7165.67  4.8367411E-01
   7166.00  4.8155841E-01
   7166.33  4.7937855E-01
   7166.67  4.7716103E-01
   7167.00  4.7491871E-01
   7167.33  4.7266309E-01
   7167.67  4.7040915E-01
   7168.00  4.6816854E-01
   7168.33  4.6595860E-01
   7168.67  4.6379117E-01
   7169.00  4.6168012E-01
   7169.33  4.5964632E-01
   7169.67  4.5768645E-01
   7170.00  4.5580668E-01
   7170.33  4.5403508E-01
   7170.67  4.5238400E-01
   7171.00  4.5087184E-01
   7171.33  4.4954064E-01
   7171.67  4.4840443E-01
   7172.00  4.4750261E-01
