    FDMNES
    energy     <xanes>
   7097.00  4.5946077E-03
   7097.33  4.6951734E-03
   7097.67  4.7999796E-03
   7098.00  4.9093032E-03
   7098.33  5.0241093E-03
   7098.67  5.1441859E-03
   7099.00  5.2699101E-03
   7099.33  5.4025397E-03
   7099.67  5.5418594E-03
   7100.00  5.6883997E-03
   7100.33  5.8438467E-03
   7100.67  6.0080046E-03
   7101.00  6.1816454E-03
   7101.33  6.3671094E-03
   7101.67  6.5642707E-03
   7102.00  6.7743006E-03
   7102.33  7.0005878E-03
   7102.67  7.2431892E-03
   7103.00  7.5039745E-03
   7103.33  7.7881129E-03
   7103.67  8.0961074E-03
   7104.00  8.4311343E-03
   7104.33  8.8016114E-03
   7104.67  9.2091383E-03
   7105.00  9.6595513E-03
   7105.33  1.0167756E-02
   7105.67  1.0738202E-02
   7106.00  1.1382762E-02
   7106.33  1.2130920E-02
   7106.67  1.2995326E-02
   7107.00  1.4003692E-02
   7107.33  1.5223973E-02
   7107.67  1.6696540E-02
   7108.00  1.8500122E-02
   7108.33  2.0830666E-02
   7108.67  2.3849265E-02
   7109.00  2.7858306E-02
   7109.33  3.3662548E-02
   7109.67  4.2207082E-02
   7110.00  5.5349816E-02
   7110.33  7.8469391E-02
   7110.67  1.1725738E-01
   7111.00  1.7242034E-01
   7111.33  2.2355535E-01
   7111.67  2.4915762E-01
   7112.00  2.5040883E-01
   7112.33  2.2713412E-01
   7112.67  1.9376533E-01
   7113.00  1.6080694E-01
   7113.33  1.3530504E-01
   7113.67  1.2160367E-01
   7114.00  1.1926476E-01
   7114.33  1.2603275E-01
   7114.67  1.3239119E-01
   7115.00  1.2959499E-01
   7115.33  1.1533617E-01
   7115.67  9.8765539E-02
   7116.00  8.4519086E-02
   7116.33  7.4473299E-02
   7116.67  6.8073787E-02
   7117.00  6.4593964E-02
   7117.33  6.3301946E-02
   7117.67  6.3325154E-02
   7118.00  6.4460197E-02
   7118.33  6.6814415E-02
   7118.67  7.0296960E-02
   7119.00  7.4987013E-02
   7119.33  8.1216929E-02
   7119.67  8.9055700E-02
   7120.00  9.8776958E-02
   7120.33  1.1108576E-01
   7120.67  1.2623875E-01
   7121.00  1.4481134E-01
   7121.33  1.6811365E-01
   7121.67  1.9647008E-01
   7122.00  2.3057119E-01
   7122.33  2.7166141E-01
   7122.67  3.1836634E-01
   7123.00  3.6861629E-01
   7123.33  4.1782675E-01
   7123.67  4.6069181E-01
   7124.00  4.9372904E-01
   7124.33  5.1476996E-01
   7124.67  5.2825732E-01
   7125.00  5.3945175E-01
   7125.33  5.5542200E-01
   7125.67  5.7817655E-01
   7126.00  6.0406410E-01
   7126.33  6.2504243E-01
   7126.67  6.3955003E-01
   7127.00  6.5175576E-01
   7127.33  6.6778324E-01
   7127.67  6.8899119E-01
   7128.00  7.1294386E-01
   7128.33  7.3306406E-01
   7128.67  7.4400604E-01
   7129.00  7.4459274E-01
   7129.33  7.3746298E-01
   7129.67  7.2877718E-01
   7130.00  7.2193959E-01
   7130.33  7.1914271E-01
   7130.67  7.1983724E-01
   7131.00  7.2311842E-01
   7131.33  7.2777023E-01
   7131.67  7.3234918E-01
   7132.00  7.3597595E-01
   7132.33  7.3777517E-01
   7132.67  7.3773155E-01
   7133.00  7.3605844E-01
   7133.33  7.3323341E-01
   7133.67  7.3008360E-01
   7134.00  7.2713903E-01
   7134.33  7.2500673E-01
   7134.67  7.2378080E-01
   7135.00  7.2317750E-01
   7135.33  7.2249230E-01
   7135.67  7.2099500E-01
   7136.00  7.1821615E-01
   7136.33  7.1369081E-01
   7136.67  7.0760278E-01
   7137.00  7.0007009E-01
   7137.33  6.9112787E-01
   7137.67  6.8113389E-01
   7138.00  6.7026239E-01
   7138.33  6.5864802E-01
   7138.67  6.4661669E-01
   7139.00  6.3439891E-01
   7139.33  6.2229279E-01
   7139.67  6.1057636E-01
   7140.00  5.9948658E-01
   7140.33  5.8936840E-01
   7140.67  5.8028689E-01
   7141.00  5.7233010E-01
   7141.33  5.6568575E-01
   7141.67  5.6021713E-01
   7142.00  5.5590721E-01
   7142.33  5.5285234E-01
   7142.67  5.5086816E-01
   7143.00  5.4991637E-01
   7143.33  5.5006889E-01
   7143.67  5.5113892E-01
   7144.00  5.5305657E-01
   7144.33  5.5581266E-01
   7144.67  5.5918765E-01
   7145.00  5.6305377E-01
   7145.33  5.6728096E-01
   7145.67  5.7163761E-01
   7146.00  5.7594322E-01
   7146.33  5.7993460E-01
   7146.67  5.8340407E-01
   7147.00  5.8613938E-01
   7147.33  5.8777783E-01
   7147.67  5.8822190E-01
   7148.00  5.8731305E-01
   7148.33  5.8472816E-01
   7148.67  5.8057865E-01
   7149.00  5.7485660E-01
   7149.33  5.6743033E-01
   7149.67  5.5861061E-01
   7150.00  5.4854160E-01
   7150.33  5.3729021E-01
   7150.67  5.2520249E-01
   7151.00  5.1246454E-01
   7151.33  4.9922875E-01
   7151.67  4.8574227E-01
   7152.00  4.7215762E-01
   7152.33  4.5863817E-01
   7152.67  4.4530179E-01
   7153.00  4.3223546E-01
   7153.33  4.1956242E-01
   7153.67  4.0729723E-01
   7154.00  3.9547491E-01
   7154.33  3.8417729E-01
   7154.67  3.7335347E-01
   7155.00  3.6300134E-01
   7155.33  3.5316873E-01
   7155.67  3.4378320E-01
   7156.00  3.3483091E-01
   7156.33  3.2634618E-01
   7156.67  3.1825933E-01
   7157.00  3.1055753E-01
   7157.33  3.0327660E-01
   7157.67  2.9636501E-01
   7158.00  2.8982512E-01
   7158.33  2.8371491E-01
   7158.67  2.7800413E-01
   7159.00  2.7271430E-01
   7159.33  2.6793797E-01
   7159.67  2.6366644E-01
   7160.00  2.5995147E-01
   7160.33  2.5694150E-01
   7160.67  2.5463557E-01
   7161.00  2.5310148E-01
   7161.33  2.5251859E-01
   7161.67  2.5284003E-01
   7162.00  2.5409455E-01
   7162.33  2.5640031E-01
   7162.67  2.5961070E-01
   7163.00  2.6367204E-01
   7163.33  2.6857425E-01
   7163.67  2.7408495E-01
   7164.00  2.8007019E-01
   7164.33  2.8642042E-01
   7164.67  2.9295812E-01
   7165.00  2.9957850E-01
   7165.33  3.0617903E-01
   7165.67  3.1268837E-01
   7166.00  3.1906486E-01
   7166.33  3.2526303E-01
   7166.67  3.3129679E-01
   7167.00  3.3717217E-01
   7167.33  3.4288709E-01
   7167.67  3.4848023E-01
   7168.00  3.5397062E-01
   7168.33  3.5936910E-01
   7168.67  3.6470516E-01
   7169.00  3.6999281E-01
   7169.33  3.7523934E-01
   7169.67  3.8045462E-01
   7170.00  3.8563628E-01
   7170.33  3.9076483E-01
   7170.67  3.9581443E-01
   7171.00  4.0073398E-01
   7171.33  4.0538193E-01
   7171.67  4.0957405E-01
   7172.00  4.1302444E-01
