    FDMNES
    energy     <xanes>
   7097.00  5.3218341E-03
   7097.33  5.4561240E-03
   7097.67  5.5968321E-03
   7098.00  5.7444105E-03
   7098.33  5.9003746E-03
   7098.67  6.0644447E-03
   7099.00  6.2372425E-03
   7099.33  6.4207693E-03
   7099.67  6.6147458E-03
   7100.00  6.8200505E-03
   7100.33  7.0393981E-03
   7100.67  7.2725456E-03
   7101.00  7.5207740E-03
   7101.33  7.7878852E-03
   7101.67  8.0737507E-03
   7102.00  8.3803110E-03
   7102.33  8.7130975E-03
   7102.67  9.0722708E-03
   7103.00  9.4609076E-03
   7103.33  9.8874413E-03
   7103.67  1.0352720E-02
   7104.00  1.0861906E-02
   7104.33  1.1428634E-02
   7104.67  1.2055405E-02
   7105.00  1.2751529E-02
   7105.33  1.3540782E-02
   7105.67  1.4429871E-02
   7106.00  1.5437254E-02
   7106.33  1.6608855E-02
   7106.67  1.7963222E-02
   7107.00  1.9542125E-02
   7107.33  2.1448123E-02
   7107.67  2.3739107E-02
   7108.00  2.6530030E-02
   7108.33  3.0107106E-02
   7108.67  3.4698677E-02
   7109.00  4.0737820E-02
   7109.33  4.9381156E-02
   7109.67  6.1987300E-02
   7110.00  8.1246718E-02
   7110.33  1.1487899E-01
   7110.67  1.6958665E-01
   7111.00  2.3798213E-01
   7111.33  2.7303883E-01
   7111.67  2.8173603E-01
   7112.00  3.0293683E-01
   7112.33  3.5985779E-01
   7112.67  4.4811910E-01
   7113.00  5.3204625E-01
   7113.33  5.6536872E-01
   7113.67  5.5828525E-01
   7114.00  5.0445653E-01
   7114.33  4.1264226E-01
   7114.67  3.2605528E-01
   7115.00  2.5934773E-01
   7115.33  2.1372257E-01
   7115.67  1.8165460E-01
   7116.00  1.5937905E-01
   7116.33  1.4479725E-01
   7116.67  1.3526922E-01
   7117.00  1.2964635E-01
   7117.33  1.2659846E-01
   7117.67  1.2380913E-01
   7118.00  1.2008514E-01
   7118.33  1.1543986E-01
   7118.67  1.1106730E-01
   7119.00  1.0776209E-01
   7119.33  1.0606036E-01
   7119.67  1.0577775E-01
   7120.00  1.0682011E-01
   7120.33  1.0922513E-01
   7120.67  1.1279090E-01
   7121.00  1.1758354E-01
   7121.33  1.2399451E-01
   7121.67  1.3214100E-01
   7122.00  1.4230619E-01
   7122.33  1.5511826E-01
   7122.67  1.7056479E-01
   7123.00  1.8875328E-01
   7123.33  2.0978242E-01
   7123.67  2.3248091E-01
   7124.00  2.5543805E-01
   7124.33  2.7636211E-01
   7124.67  2.9428217E-01
   7125.00  3.0988299E-01
   7125.33  3.2582950E-01
   7125.67  3.4520439E-01
   7126.00  3.6998263E-01
   7126.33  4.0211285E-01
   7126.67  4.4067759E-01
   7127.00  4.8461691E-01
   7127.33  5.3193997E-01
   7127.67  5.7887411E-01
   7128.00  6.2236458E-01
   7128.33  6.5885556E-01
   7128.67  6.8765521E-01
   7129.00  7.0878053E-01
   7129.33  7.2263971E-01
   7129.67  7.3193159E-01
   7130.00  7.3854877E-01
   7130.33  7.4477403E-01
   7130.67  7.5281757E-01
   7131.00  7.6413526E-01
   7131.33  7.8013943E-01
   7131.67  8.0007735E-01
   7132.00  8.2288079E-01
   7132.33  8.4687753E-01
   7132.67  8.7017501E-01
   7133.00  8.9163646E-01
   7133.33  9.1012726E-01
   7133.67  9.2571652E-01
   7134.00  9.3858284E-01
   7134.33  9.4889466E-01
   7134.67  9.5716739E-01
   7135.00  9.6305633E-01
   7135.33  9.6503409E-01
   7135.67  9.6216746E-01
   7136.00  9.5363126E-01
   7136.33  9.3863414E-01
   7136.67  9.1877546E-01
   7137.00  8.9531149E-01
   7137.33  8.6960460E-01
   7137.67  8.4330321E-01
   7138.00  8.1729104E-01
   7138.33  7.9234327E-01
   7138.67  7.6868760E-01
   7139.00  7.4645949E-01
   7139.33  7.2589785E-01
   7139.67  7.0681704E-01
   7140.00  6.8920084E-01
   7140.33  6.7321931E-01
   7140.67  6.5867321E-01
   7141.00  6.4550285E-01
   7141.33  6.3375017E-01
   7141.67  6.2309949E-01
   7142.00  6.1337783E-01
   7142.33  6.0443499E-01
   7142.67  5.9594276E-01
   7143.00  5.8770232E-01
   7143.33  5.7949295E-01
   7143.67  5.7111383E-01
   7144.00  5.6243698E-01
   7144.33  5.5332976E-01
   7144.67  5.4383031E-01
   7145.00  5.3398491E-01
   7145.33  5.2386162E-01
   7145.67  5.1361531E-01
   7146.00  5.0335479E-01
   7146.33  4.9320512E-01
   7146.67  4.8324212E-01
   7147.00  4.7351884E-01
   7147.33  4.6410564E-01
   7147.67  4.5498073E-01
   7148.00  4.4614114E-01
   7148.33  4.3760589E-01
   7148.67  4.2931996E-01
   7149.00  4.2126331E-01
   7149.33  4.1343620E-01
   7149.67  4.0579002E-01
   7150.00  3.9831137E-01
   7150.33  3.9101423E-01
   7150.67  3.8388338E-01
   7151.00  3.7693180E-01
   7151.33  3.7020806E-01
   7151.67  3.6371637E-01
   7152.00  3.5748461E-01
   7152.33  3.5158029E-01
   7152.67  3.4599334E-01
   7153.00  3.4074053E-01
   7153.33  3.3587488E-01
   7153.67  3.3135264E-01
   7154.00  3.2716536E-01
   7154.33  3.2333390E-01
   7154.67  3.1979230E-01
   7155.00  3.1651389E-01
   7155.33  3.1349362E-01
   7155.67  3.1066841E-01
   7156.00  3.0801031E-01
   7156.33  3.0550767E-01
   7156.67  3.0311834E-01
   7157.00  3.0082439E-01
   7157.33  2.9862091E-01
   7157.67  2.9649124E-01
   7158.00  2.9443690E-01
   7158.33  2.9247841E-01
   7158.67  2.9062310E-01
   7159.00  2.8889235E-01
   7159.33  2.8733677E-01
   7159.67  2.8597327E-01
   7160.00  2.8483577E-01
   7160.33  2.8399764E-01
   7160.67  2.8346351E-01
   7161.00  2.8326297E-01
   7161.33  2.8347163E-01
   7161.67  2.8406662E-01
   7162.00  2.8505543E-01
   7162.33  2.8648164E-01
   7162.67  2.8828917E-01
   7163.00  2.9046847E-01
   7163.33  2.9304351E-01
   7163.67  2.9593985E-01
   7164.00  2.9912755E-01
   7164.33  3.0260400E-01
   7164.67  3.0630088E-01
   7165.00  3.1018607E-01
   7165.33  3.1424206E-01
   7165.67  3.1841569E-01
   7166.00  3.2267963E-01
   7166.33  3.2701281E-01
   7166.67  3.3138213E-01
   7167.00  3.3576820E-01
   7167.33  3.4015155E-01
   7167.67  3.4451636E-01
   7168.00  3.4885032E-01
   7168.33  3.5313528E-01
   7168.67  3.5736558E-01
   7169.00  3.6153253E-01
   7169.33  3.6561730E-01
   7169.67  3.6961867E-01
   7170.00  3.7352639E-01
   7170.33  3.7731158E-01
   7170.67  3.8096466E-01
   7171.00  3.8445306E-01
   7171.33  3.8768041E-01
   7171.67  3.9054781E-01
   7172.00  3.9288582E-01
