    FDMNES
    energy     <xanes>
   7097.00  4.5230882E-03
   7097.33  4.6154454E-03
   7097.67  4.7114361E-03
   7098.00  4.8112820E-03
   7098.33  4.9157843E-03
   7098.67  5.0247400E-03
   7099.00  5.1384465E-03
   7099.33  5.2579295E-03
   7099.67  5.3829769E-03
   7100.00  5.5139985E-03
   7100.33  5.6523433E-03
   7100.67  5.7978030E-03
   7101.00  5.9509624E-03
   7101.33  6.1136530E-03
   7101.67  6.2857026E-03
   7102.00  6.4679793E-03
   7102.33  6.6630710E-03
   7102.67  6.8709134E-03
   7103.00  7.0928603E-03
   7103.33  7.3327554E-03
   7103.67  7.5908109E-03
   7104.00  7.8692713E-03
   7104.33  8.1742187E-03
   7104.67  8.5065585E-03
   7105.00  8.8703136E-03
   7105.33  9.2759377E-03
   7105.67  9.7261491E-03
   7106.00  1.0228937E-02
   7106.33  1.0804383E-02
   7106.67  1.1460431E-02
   7107.00  1.2215343E-02
   7107.33  1.3114215E-02
   7107.67  1.4182729E-02
   7108.00  1.5472058E-02
   7108.33  1.7110099E-02
   7108.67  1.9200698E-02
   7109.00  2.1940701E-02
   7109.33  2.5857182E-02
   7109.67  3.1575671E-02
   7110.00  4.0334443E-02
   7110.33  5.5712952E-02
   7110.67  8.1130215E-02
   7111.00  1.1470641E-01
   7111.33  1.3709184E-01
   7111.67  1.4291308E-01
   7112.00  1.4193807E-01
   7112.33  1.4145404E-01
   7112.67  1.4184802E-01
   7113.00  1.4584947E-01
   7113.33  1.5731166E-01
   7113.67  1.6868886E-01
   7114.00  1.7155866E-01
   7114.33  1.5857406E-01
   7114.67  1.3673779E-01
   7115.00  1.1434581E-01
   7115.33  9.6261351E-02
   7115.67  8.3466859E-02
   7116.00  7.5795070E-02
   7116.33  7.2869661E-02
   7116.67  7.3347052E-02
   7117.00  7.6648797E-02
   7117.33  8.2569147E-02
   7117.67  9.1069866E-02
   7118.00  1.0268301E-01
   7118.33  1.1825410E-01
   7118.67  1.3630035E-01
   7119.00  1.5381978E-01
   7119.33  1.6758409E-01
   7119.67  1.7895498E-01
   7120.00  1.9023431E-01
   7120.33  2.0379752E-01
   7120.67  2.2004097E-01
   7121.00  2.3814540E-01
   7121.33  2.5613519E-01
   7121.67  2.7223138E-01
   7122.00  2.8579789E-01
   7122.33  2.9728386E-01
   7122.67  3.0888589E-01
   7123.00  3.2246267E-01
   7123.33  3.3906175E-01
   7123.67  3.5685906E-01
   7124.00  3.7448215E-01
   7124.33  3.9192707E-01
   7124.67  4.1011991E-01
   7125.00  4.2996963E-01
   7125.33  4.5279524E-01
   7125.67  4.7860653E-01
   7126.00  5.0632483E-01
   7126.33  5.3241086E-01
   7126.67  5.5326599E-01
   7127.00  5.6775941E-01
   7127.33  5.7675023E-01
   7127.67  5.8293084E-01
   7128.00  5.8751171E-01
   7128.33  5.9138525E-01
   7128.67  5.9527222E-01
   7129.00  5.9921301E-01
   7129.33  6.0270716E-01
   7129.67  6.0572221E-01
   7130.00  6.0882701E-01
   7130.33  6.1269866E-01
   7130.67  6.1709427E-01
   7131.00  6.2161452E-01
   7131.33  6.2636749E-01
   7131.67  6.3229835E-01
   7132.00  6.4059599E-01
   7132.33  6.5278842E-01
   7132.67  6.6877871E-01
   7133.00  6.8819802E-01
   7133.33  7.1024657E-01
   7133.67  7.3276074E-01
   7134.00  7.5341115E-01
   7134.33  7.6850153E-01
   7134.67  7.7636623E-01
   7135.00  7.7631817E-01
   7135.33  7.6812210E-01
   7135.67  7.5464897E-01
   7136.00  7.3813236E-01
   7136.33  7.2087197E-01
   7136.67  7.0454535E-01
   7137.00  6.8986620E-01
   7137.33  6.7740758E-01
   7137.67  6.6698203E-01
   7138.00  6.5857084E-01
   7138.33  6.5238283E-01
   7138.67  6.4809973E-01
   7139.00  6.4558391E-01
   7139.33  6.4469205E-01
   7139.67  6.4470506E-01
   7140.00  6.4501727E-01
   7140.33  6.4482394E-01
   7140.67  6.4356985E-01
   7141.00  6.4096194E-01
   7141.33  6.3679490E-01
   7141.67  6.3147223E-01
   7142.00  6.2531074E-01
   7142.33  6.1865988E-01
   7142.67  6.1193541E-01
   7143.00  6.0537574E-01
   7143.33  5.9920243E-01
   7143.67  5.9345181E-01
   7144.00  5.8812870E-01
   7144.33  5.8323597E-01
   7144.67  5.7864672E-01
   7145.00  5.7427688E-01
   7145.33  5.7003235E-01
   7145.67  5.6578569E-01
   7146.00  5.6143814E-01
   7146.33  5.5685677E-01
   7146.67  5.5197978E-01
   7147.00  5.4675296E-01
   7147.33  5.4109577E-01
   7147.67  5.3505626E-01
   7148.00  5.2865130E-01
   7148.33  5.2188010E-01
   7148.67  5.1484598E-01
   7149.00  5.0759282E-01
   7149.33  5.0013297E-01
   7149.67  4.9252733E-01
   7150.00  4.8481361E-01
   7150.33  4.7703308E-01
   7150.67  4.6924811E-01
   7151.00  4.6151130E-01
   7151.33  4.5390237E-01
   7151.67  4.4647450E-01
   7152.00  4.3928419E-01
   7152.33  4.3242783E-01
   7152.67  4.2591823E-01
   7153.00  4.1979351E-01
   7153.33  4.1414457E-01
   7153.67  4.0894373E-01
   7154.00  4.0420694E-01
   7154.33  4.0001219E-01
   7154.67  3.9631777E-01
   7155.00  3.9313962E-01
   7155.33  3.9055904E-01
   7155.67  3.8851593E-01
   7156.00  3.8700530E-01
   7156.33  3.8607084E-01
   7156.67  3.8561400E-01
   7157.00  3.8559686E-01
   7157.33  3.8601711E-01
   7157.67  3.8677173E-01
   7158.00  3.8781254E-01
   7158.33  3.8910965E-01
   7158.67  3.9057626E-01
   7159.00  3.9216667E-01
   7159.33  3.9385053E-01
   7159.67  3.9559325E-01
   7160.00  3.9738617E-01
   7160.33  3.9923485E-01
   7160.67  4.0113785E-01
   7161.00  4.0309990E-01
   7161.33  4.0513096E-01
   7161.67  4.0722154E-01
   7162.00  4.0936733E-01
   7162.33  4.1156857E-01
   7162.67  4.1381495E-01
   7163.00  4.1610533E-01
   7163.33  4.1844749E-01
   7163.67  4.2084114E-01
   7164.00  4.2329316E-01
   7164.33  4.2582151E-01
   7164.67  4.2842676E-01
   7165.00  4.3111580E-01
   7165.33  4.3390673E-01
   7165.67  4.3679149E-01
   7166.00  4.3977067E-01
   7166.33  4.4285201E-01
   7166.67  4.4601469E-01
   7167.00  4.4924724E-01
   7167.33  4.5254028E-01
   7167.67  4.5586822E-01
   7168.00  4.5921300E-01
   7168.33  4.6255128E-01
   7168.67  4.6585922E-01
   7169.00  4.6911466E-01
   7169.33  4.7228140E-01
   7169.67  4.7534219E-01
   7170.00  4.7827280E-01
   7170.33  4.8102404E-01
   7170.67  4.8358463E-01
   7171.00  4.8592485E-01
   7171.33  4.8797167E-01
   7171.67  4.8970536E-01
   7172.00  4.9107291E-01
