    FDMNES
    energy     <xanes>
   7097.00  4.2772279E-03
   7097.33  4.3657939E-03
   7097.67  4.4580059E-03
   7098.00  4.5541049E-03
   7098.33  4.6549273E-03
   7098.67  4.7602967E-03
   7099.00  4.8705457E-03
   7099.33  4.9867723E-03
   7099.67  5.1088033E-03
   7100.00  5.2371126E-03
   7100.33  5.3731887E-03
   7100.67  5.5168857E-03
   7101.00  5.6689050E-03
   7101.33  5.8313429E-03
   7101.67  6.0041352E-03
   7102.00  6.1883677E-03
   7102.33  6.3871333E-03
   7102.67  6.6005718E-03
   7103.00  6.8304586E-03
   7103.33  7.0816244E-03
   7103.67  7.3547020E-03
   7104.00  7.6527942E-03
   7104.33  7.9840021E-03
   7104.67  8.3501780E-03
   7105.00  8.7572182E-03
   7105.33  9.2199945E-03
   7105.67  9.7435898E-03
   7106.00  1.0340489E-02
   7106.33  1.1041437E-02
   7106.67  1.1861101E-02
   7107.00  1.2830066E-02
   7107.33  1.4023161E-02
   7107.67  1.5488867E-02
   7108.00  1.7319465E-02
   7108.33  1.9746038E-02
   7108.67  2.2973123E-02
   7109.00  2.7383426E-02
   7109.33  3.4012788E-02
   7109.67  4.4156416E-02
   7110.00  6.0386686E-02
   7110.33  9.0226121E-02
   7110.67  1.4102735E-01
   7111.00  2.0732428E-01
   7111.33  2.3584981E-01
   7111.67  2.2651139E-01
   7112.00  2.0820864E-01
   7112.33  1.6459458E-01
   7112.67  1.2031856E-01
   7113.00  9.2234695E-02
   7113.33  7.7781520E-02
   7113.67  6.9989690E-02
   7114.00  6.5996059E-02
   7114.33  5.9919607E-02
   7114.67  5.0680377E-02
   7115.00  4.2856535E-02
   7115.33  3.8509519E-02
   7115.67  3.6260079E-02
   7116.00  3.5356999E-02
   7116.33  3.5406360E-02
   7116.67  3.5996306E-02
   7117.00  3.6939687E-02
   7117.33  3.8173467E-02
   7117.67  3.9684923E-02
   7118.00  4.1500204E-02
   7118.33  4.3658881E-02
   7118.67  4.6141780E-02
   7119.00  4.9033115E-02
   7119.33  5.2608305E-02
   7119.67  5.7070574E-02
   7120.00  6.2705156E-02
   7120.33  7.0114361E-02
   7120.67  7.9617149E-02
   7121.00  9.1744100E-02
   7121.33  1.0752880E-01
   7121.67  1.2685168E-01
   7122.00  1.4904190E-01
   7122.33  1.7157060E-01
   7122.67  1.9151591E-01
   7123.00  2.0878423E-01
   7123.33  2.2597489E-01
   7123.67  2.4570944E-01
   7124.00  2.6891473E-01
   7124.33  2.9516225E-01
   7124.67  3.2219444E-01
   7125.00  3.4887136E-01
   7125.33  3.7434460E-01
   7125.67  3.9749448E-01
   7126.00  4.1774137E-01
   7126.33  4.3705977E-01
   7126.67  4.5968849E-01
   7127.00  4.8809224E-01
   7127.33  5.2309891E-01
   7127.67  5.6373887E-01
   7128.00  6.1141463E-01
   7128.33  6.6900795E-01
   7128.67  7.3445166E-01
   7129.00  8.0380261E-01
   7129.33  8.6925500E-01
   7129.67  9.2296361E-01
   7130.00  9.5899335E-01
   7130.33  9.7122281E-01
   7130.67  9.6394182E-01
   7131.00  9.4245551E-01
   7131.33  9.1414261E-01
   7131.67  8.8635668E-01
   7132.00  8.6175932E-01
   7132.33  8.4078197E-01
   7132.67  8.2172987E-01
   7133.00  8.0385382E-01
   7133.33  7.8751146E-01
   7133.67  7.7337661E-01
   7134.00  7.6182826E-01
   7134.33  7.5284003E-01
   7134.67  7.4569012E-01
   7135.00  7.4020637E-01
   7135.33  7.3638767E-01
   7135.67  7.3362046E-01
   7136.00  7.3124494E-01
   7136.33  7.2803957E-01
   7136.67  7.2277542E-01
   7137.00  7.1461181E-01
   7137.33  7.0327931E-01
   7137.67  6.9052788E-01
   7138.00  6.7802291E-01
   7138.33  6.6742863E-01
   7138.67  6.5897001E-01
   7139.00  6.5237712E-01
   7139.33  6.4724874E-01
   7139.67  6.4298745E-01
   7140.00  6.3945449E-01
   7140.33  6.3681955E-01
   7140.67  6.3517121E-01
   7141.00  6.3466599E-01
   7141.33  6.3556011E-01
   7141.67  6.3767972E-01
   7142.00  6.4091298E-01
   7142.33  6.4514587E-01
   7142.67  6.4996813E-01
   7143.00  6.5508886E-01
   7143.33  6.6015292E-01
   7143.67  6.6483957E-01
   7144.00  6.6890152E-01
   7144.33  6.7198269E-01
   7144.67  6.7398059E-01
   7145.00  6.7473540E-01
   7145.33  6.7391893E-01
   7145.67  6.7158163E-01
   7146.00  6.6761844E-01
   7146.33  6.6169281E-01
   7146.67  6.5393998E-01
   7147.00  6.4434794E-01
   7147.33  6.3278467E-01
   7147.67  6.1968209E-01
   7148.00  6.0531693E-01
   7148.33  5.8998089E-01
   7148.67  5.7421544E-01
   7149.00  5.5837662E-01
   7149.33  5.4284981E-01
   7149.67  5.2785408E-01
   7150.00  5.1352221E-01
   7150.33  5.0000635E-01
   7150.67  4.8719925E-01
   7151.00  4.7504399E-01
   7151.33  4.6350932E-01
   7151.67  4.5241882E-01
   7152.00  4.4170082E-01
   7152.33  4.3133883E-01
   7152.67  4.2126112E-01
   7153.00  4.1146647E-01
   7153.33  4.0201946E-01
   7153.67  3.9292873E-01
   7154.00  3.8423473E-01
   7154.33  3.7602115E-01
   7154.67  3.6825027E-01
   7155.00  3.6092986E-01
   7155.33  3.5411020E-01
   7155.67  3.4770806E-01
   7156.00  3.4169184E-01
   7156.33  3.3606564E-01
   7156.67  3.3074733E-01
   7157.00  3.2570567E-01
   7157.33  3.2093732E-01
   7157.67  3.1638204E-01
   7158.00  3.1201776E-01
   7158.33  3.0784354E-01
   7158.67  3.0382029E-01
   7159.00  2.9993583E-01
   7159.33  2.9619547E-01
   7159.67  2.9257763E-01
   7160.00  2.8908300E-01
   7160.33  2.8573668E-01
   7160.67  2.8254039E-01
   7161.00  2.7951592E-01
   7161.33  2.7672064E-01
   7161.67  2.7417106E-01
   7162.00  2.7191187E-01
   7162.33  2.7004647E-01
   7162.67  2.6859162E-01
   7163.00  2.6759614E-01
   7163.33  2.6718372E-01
   7163.67  2.6734508E-01
   7164.00  2.6812029E-01
   7164.33  2.6962752E-01
   7164.67  2.7180987E-01
   7165.00  2.7467752E-01
   7165.33  2.7831585E-01
   7165.67  2.8262630E-01
   7166.00  2.8758814E-01
   7166.33  2.9324435E-01
   7166.67  2.9947299E-01
   7167.00  3.0622745E-01
   7167.33  3.1350297E-01
   7167.67  3.2117090E-01
   7168.00  3.2916550E-01
   7168.33  3.3743869E-01
   7168.67  3.4588110E-01
   7169.00  3.5442809E-01
   7169.33  3.6301449E-01
   7169.67  3.7157186E-01
   7170.00  3.8004690E-01
   7170.33  3.8835835E-01
   7170.67  3.9645096E-01
   7171.00  4.0423746E-01
   7171.33  4.1149095E-01
   7171.67  4.1796139E-01
   7172.00  4.2324071E-01
