    FDMNES
    energy     <xanes>
   7097.00  5.1572938E-03
   7097.33  5.2808287E-03
   7097.67  5.4100100E-03
   7098.00  5.5452182E-03
   7098.33  5.6877569E-03
   7098.67  5.8373553E-03
   7099.00  5.9945291E-03
   7099.33  6.1609769E-03
   7099.67  6.3364174E-03
   7100.00  6.5215671E-03
   7100.33  6.7186929E-03
   7100.67  6.9275248E-03
   7101.00  7.1490872E-03
   7101.33  7.3864930E-03
   7101.67  7.6395320E-03
   7102.00  7.9097188E-03
   7102.33  8.2014747E-03
   7102.67  8.5147568E-03
   7103.00  8.8518968E-03
   7103.33  9.2194362E-03
   7103.67  9.6177393E-03
   7104.00  1.0050576E-02
   7104.33  1.0528128E-02
   7104.67  1.1051725E-02
   7105.00  1.1627850E-02
   7105.33  1.2273401E-02
   7105.67  1.2992068E-02
   7106.00  1.3795933E-02
   7106.33  1.4715507E-02
   7106.67  1.5760719E-02
   7107.00  1.6956647E-02
   7107.33  1.8365287E-02
   7107.67  2.0015288E-02
   7108.00  2.1967632E-02
   7108.33  2.4372626E-02
   7108.67  2.7328768E-02
   7109.00  3.1026920E-02
   7109.33  3.5956891E-02
   7109.67  4.2593956E-02
   7110.00  5.1860457E-02
   7110.33  6.6339936E-02
   7110.67  8.8827981E-02
   7111.00  1.2142891E-01
   7111.33  1.6136082E-01
   7111.67  2.0357178E-01
   7112.00  2.5499058E-01
   7112.33  3.2081132E-01
   7112.67  3.8052542E-01
   7113.00  4.4251064E-01
   7113.33  5.2143204E-01
   7113.67  5.8092002E-01
   7114.00  5.6587802E-01
   7114.33  4.6981428E-01
   7114.67  3.7181035E-01
   7115.00  3.0329317E-01
   7115.33  2.6968335E-01
   7115.67  2.5708305E-01
   7116.00  2.5267204E-01
   7116.33  2.4265820E-01
   7116.67  2.2702620E-01
   7117.00  2.1130648E-01
   7117.33  1.9910559E-01
   7117.67  1.8851157E-01
   7118.00  1.7826046E-01
   7118.33  1.6907335E-01
   7118.67  1.6116034E-01
   7119.00  1.5414506E-01
   7119.33  1.4755765E-01
   7119.67  1.4114613E-01
   7120.00  1.3512150E-01
   7120.33  1.3016693E-01
   7120.67  1.2676800E-01
   7121.00  1.2516597E-01
   7121.33  1.2529706E-01
   7121.67  1.2646813E-01
   7122.00  1.2841293E-01
   7122.33  1.3113459E-01
   7122.67  1.3459127E-01
   7123.00  1.3891377E-01
   7123.33  1.4451054E-01
   7123.67  1.5159549E-01
   7124.00  1.6052828E-01
   7124.33  1.7200660E-01
   7124.67  1.8596593E-01
   7125.00  2.0254538E-01
   7125.33  2.2260080E-01
   7125.67  2.4611300E-01
   7126.00  2.7249462E-01
   7126.33  2.9934868E-01
   7126.67  3.2345075E-01
   7127.00  3.4391386E-01
   7127.33  3.6238947E-01
   7127.67  3.8126070E-01
   7128.00  4.0128115E-01
   7128.33  4.2351802E-01
   7128.67  4.4928436E-01
   7129.00  4.7980125E-01
   7129.33  5.1635138E-01
   7129.67  5.5800725E-01
   7130.00  6.0406342E-01
   7130.33  6.5431470E-01
   7130.67  7.0859491E-01
   7131.00  7.6743002E-01
   7131.33  8.2981173E-01
   7131.67  8.9123507E-01
   7132.00  9.4791734E-01
   7132.33  9.9574890E-01
   7132.67  1.0331367E+00
   7133.00  1.0575092E+00
   7133.33  1.0641758E+00
   7133.67  1.0545679E+00
   7134.00  1.0306136E+00
   7134.33  9.9454971E-01
   7134.67  9.5077586E-01
   7135.00  9.0118442E-01
   7135.33  8.4755097E-01
   7135.67  7.9286456E-01
   7136.00  7.3913191E-01
   7136.33  6.8835683E-01
   7136.67  6.4120555E-01
   7137.00  5.9818989E-01
   7137.33  5.6025884E-01
   7137.67  5.2707224E-01
   7138.00  4.9869169E-01
   7138.33  4.7560025E-01
   7138.67  4.5693469E-01
   7139.00  4.4237121E-01
   7139.33  4.3195825E-01
   7139.67  4.2482328E-01
   7140.00  4.2062451E-01
   7140.33  4.1930826E-01
   7140.67  4.2021594E-01
   7141.00  4.2309127E-01
   7141.33  4.2789617E-01
   7141.67  4.3421470E-01
   7142.00  4.4190778E-01
   7142.33  4.5099001E-01
   7142.67  4.6116868E-01
   7143.00  4.7231028E-01
   7143.33  4.8432973E-01
   7143.67  4.9691699E-01
   7144.00  5.0987056E-01
   7144.33  5.2295591E-01
   7144.67  5.3589746E-01
   7145.00  5.4846270E-01
   7145.33  5.6029083E-01
   7145.67  5.7117944E-01
   7146.00  5.8088603E-01
   7146.33  5.8897599E-01
   7146.67  5.9544112E-01
   7147.00  6.0018992E-01
   7147.33  6.0298071E-01
   7147.67  6.0409723E-01
   7148.00  6.0366804E-01
   7148.33  6.0175472E-01
   7148.67  5.9881627E-01
   7149.00  5.9513024E-01
   7149.33  5.9096628E-01
   7149.67  5.8668137E-01
   7150.00  5.8250586E-01
   7150.33  5.7870720E-01
   7150.67  5.7541983E-01
   7151.00  5.7275341E-01
   7151.33  5.7087517E-01
   7151.67  5.6973779E-01
   7152.00  5.6934416E-01
   7152.33  5.6974765E-01
   7152.67  5.7079229E-01
   7153.00  5.7240027E-01
   7153.33  5.7452063E-01
   7153.67  5.7697717E-01
   7154.00  5.7966410E-01
   7154.33  5.8247418E-01
   7154.67  5.8528101E-01
   7155.00  5.8799953E-01
   7155.33  5.9052784E-01
   7155.67  5.9282737E-01
   7156.00  5.9486312E-01
   7156.33  5.9657518E-01
   7156.67  5.9799072E-01
   7157.00  5.9911145E-01
   7157.33  5.9991116E-01
   7157.67  6.0043940E-01
   7158.00  6.0070881E-01
   7158.33  6.0070117E-01
   7158.67  6.0045482E-01
   7159.00  5.9997029E-01
   7159.33  5.9920872E-01
   7159.67  5.9818454E-01
   7160.00  5.9687730E-01
   7160.33  5.9521590E-01
   7160.67  5.9320293E-01
   7161.00  5.9080613E-01
   7161.33  5.8793435E-01
   7161.67  5.8460647E-01
   7162.00  5.8080185E-01
   7162.33  5.7644326E-01
   7162.67  5.7159144E-01
   7163.00  5.6626643E-01
   7163.33  5.6045917E-01
   7163.67  5.5428557E-01
   7164.00  5.4781048E-01
   7164.33  5.4108891E-01
   7164.67  5.3423182E-01
   7165.00  5.2730754E-01
   7165.33  5.2038661E-01
   7165.67  5.1352650E-01
   7166.00  5.0676637E-01
   7166.33  5.0015514E-01
   7166.67  4.9369682E-01
   7167.00  4.8740233E-01
   7167.33  4.8129992E-01
   7167.67  4.7537228E-01
   7168.00  4.6962441E-01
   7168.33  4.6408850E-01
   7168.67  4.5875253E-01
   7169.00  4.5362896E-01
   7169.33  4.4875953E-01
   7169.67  4.4412958E-01
   7170.00  4.3975451E-01
   7170.33  4.3568963E-01
   7170.67  4.3192357E-01
   7171.00  4.2848059E-01
   7171.33  4.2544740E-01
   7171.67  4.2284841E-01
   7172.00  4.2076955E-01
