    FDMNES
    energy     <xanes>
   7097.00  4.2583674E-03
   7097.33  4.3405684E-03
   7097.67  4.4257150E-03
   7098.00  4.5139686E-03
   7098.33  4.6059476E-03
   7098.67  4.7014630E-03
   7099.00  4.8007254E-03
   7099.33  4.9045064E-03
   7099.67  5.0126026E-03
   7100.00  5.1252965E-03
   7100.33  5.2435737E-03
   7100.67  5.3672229E-03
   7101.00  5.4966354E-03
   7101.33  5.6331076E-03
   7101.67  5.7764366E-03
   7102.00  5.9271864E-03
   7102.33  6.0871274E-03
   7102.67  6.2561044E-03
   7103.00  6.4349719E-03
   7103.33  6.6262681E-03
   7103.67  6.8299800E-03
   7104.00  7.0474879E-03
   7104.33  7.2826723E-03
   7104.67  7.5359007E-03
   7105.00  7.8095963E-03
   7105.33  8.1102276E-03
   7105.67  8.4391974E-03
   7106.00  8.8012556E-03
   7106.33  9.2085532E-03
   7106.67  9.6655623E-03
   7107.00  1.0183119E-02
   7107.33  1.0788267E-02
   7107.67  1.1496169E-02
   7108.00  1.2337561E-02
   7108.33  1.3389827E-02
   7108.67  1.4716681E-02
   7109.00  1.6439697E-02
   7109.33  1.8887293E-02
   7109.67  2.2458573E-02
   7110.00  2.7946599E-02
   7110.33  3.7621599E-02
   7110.67  5.3282391E-02
   7111.00  7.2227748E-02
   7111.33  8.3488412E-02
   7111.67  8.8682490E-02
   7112.00  8.7777582E-02
   7112.33  8.1468229E-02
   7112.67  7.5286940E-02
   7113.00  6.8613147E-02
   7113.33  6.1674568E-02
   7113.67  5.6700727E-02
   7114.00  5.4145352E-02
   7114.33  5.3842901E-02
   7114.67  5.5101097E-02
   7115.00  5.7730444E-02
   7115.33  6.1803127E-02
   7115.67  6.7137453E-02
   7116.00  7.3759554E-02
   7116.33  8.1910839E-02
   7116.67  9.1506072E-02
   7117.00  1.0259603E-01
   7117.33  1.1534983E-01
   7117.67  1.2956973E-01
   7118.00  1.4541800E-01
   7118.33  1.6335464E-01
   7118.67  1.8297494E-01
   7119.00  2.0393942E-01
   7119.33  2.2654598E-01
   7119.67  2.5103888E-01
   7120.00  2.7726635E-01
   7120.33  3.0441454E-01
   7120.67  3.3096064E-01
   7121.00  3.5567358E-01
   7121.33  3.7745107E-01
   7121.67  3.9677939E-01
   7122.00  4.1416406E-01
   7122.33  4.2957185E-01
   7122.67  4.4244019E-01
   7123.00  4.5155296E-01
   7123.33  4.5534517E-01
   7123.67  4.5498972E-01
   7124.00  4.5232625E-01
   7124.33  4.5018624E-01
   7124.67  4.5082473E-01
   7125.00  4.5540251E-01
   7125.33  4.6495290E-01
   7125.67  4.7855790E-01
   7126.00  4.9523998E-01
   7126.33  5.1352595E-01
   7126.67  5.3163557E-01
   7127.00  5.4855113E-01
   7127.33  5.6296631E-01
   7127.67  5.7418060E-01
   7128.00  5.8184800E-01
   7128.33  5.8602983E-01
   7128.67  5.8783580E-01
   7129.00  5.8778470E-01
   7129.33  5.8636519E-01
   7129.67  5.8428832E-01
   7130.00  5.8177243E-01
   7130.33  5.7880418E-01
   7130.67  5.7544105E-01
   7131.00  5.7167630E-01
   7131.33  5.6738387E-01
   7131.67  5.6254687E-01
   7132.00  5.5717488E-01
   7132.33  5.5137932E-01
   7132.67  5.4554257E-01
   7133.00  5.4004430E-01
   7133.33  5.3533344E-01
   7133.67  5.3146620E-01
   7134.00  5.2845376E-01
   7134.33  5.2641562E-01
   7134.67  5.2525243E-01
   7135.00  5.2489904E-01
   7135.33  5.2524035E-01
   7135.67  5.2597086E-01
   7136.00  5.2692873E-01
   7136.33  5.2795833E-01
   7136.67  5.2887995E-01
   7137.00  5.2954062E-01
   7137.33  5.2973466E-01
   7137.67  5.2941908E-01
   7138.00  5.2857604E-01
   7138.33  5.2720659E-01
   7138.67  5.2550235E-01
   7139.00  5.2361558E-01
   7139.33  5.2173923E-01
   7139.67  5.2005191E-01
   7140.00  5.1868223E-01
   7140.33  5.1779297E-01
   7140.67  5.1739373E-01
   7141.00  5.1750365E-01
   7141.33  5.1817179E-01
   7141.67  5.1929186E-01
   7142.00  5.2080654E-01
   7142.33  5.2267266E-01
   7142.67  5.2476029E-01
   7143.00  5.2699187E-01
   7143.33  5.2929644E-01
   7143.67  5.3160763E-01
   7144.00  5.3388341E-01
   7144.33  5.3606027E-01
   7144.67  5.3811339E-01
   7145.00  5.4003769E-01
   7145.33  5.4184245E-01
   7145.67  5.4358774E-01
   7146.00  5.4532710E-01
   7146.33  5.4713843E-01
   7146.67  5.4908300E-01
   7147.00  5.5121348E-01
   7147.33  5.5360705E-01
   7147.67  5.5626388E-01
   7148.00  5.5919234E-01
   7148.33  5.6241565E-01
   7148.67  5.6587277E-01
   7149.00  5.6952652E-01
   7149.33  5.7333883E-01
   7149.67  5.7722593E-01
   7150.00  5.8112590E-01
   7150.33  5.8495567E-01
   7150.67  5.8864654E-01
   7151.00  5.9213697E-01
   7151.33  5.9533116E-01
   7151.67  5.9820912E-01
   7152.00  6.0073700E-01
   7152.33  6.0284551E-01
   7152.67  6.0457708E-01
   7153.00  6.0594094E-01
   7153.33  6.0690937E-01
   7153.67  6.0754632E-01
   7154.00  6.0787823E-01
   7154.33  6.0790488E-01
   7154.67  6.0768995E-01
   7155.00  6.0725433E-01
   7155.33  6.0659207E-01
   7155.67  6.0574338E-01
   7156.00  6.0471864E-01
   7156.33  6.0350646E-01
   7156.67  6.0213408E-01
   7157.00  6.0060472E-01
   7157.33  5.9889965E-01
   7157.67  5.9703119E-01
   7158.00  5.9498522E-01
   7158.33  5.9271764E-01
   7158.67  5.9023244E-01
   7159.00  5.8751035E-01
   7159.33  5.8449732E-01
   7159.67  5.8120980E-01
   7160.00  5.7764165E-01
   7160.33  5.7376035E-01
   7160.67  5.6961458E-01
   7161.00  5.6522715E-01
   7161.33  5.6061154E-01
   7161.67  5.5584229E-01
   7162.00  5.5096818E-01
   7162.33  5.4604459E-01
   7162.67  5.4113470E-01
   7163.00  5.3628191E-01
   7163.33  5.3153927E-01
   7163.67  5.2692306E-01
   7164.00  5.2244845E-01
   7164.33  5.1814223E-01
   7164.67  5.1398480E-01
   7165.00  5.0996977E-01
   7165.33  5.0610007E-01
   7165.67  5.0234179E-01
   7166.00  4.9867818E-01
   7166.33  4.9509910E-01
   7166.67  4.9157713E-01
   7167.00  4.8809873E-01
   7167.33  4.8465324E-01
   7167.67  4.8122507E-01
   7168.00  4.7780767E-01
   7168.33  4.7439924E-01
   7168.67  4.7100140E-01
   7169.00  4.6762065E-01
   7169.33  4.6427210E-01
   7169.67  4.6096692E-01
   7170.00  4.5772048E-01
   7170.33  4.5456496E-01
   7170.67  4.5151899E-01
   7171.00  4.4861648E-01
   7171.33  4.4594382E-01
   7171.67  4.4357937E-01
   7172.00  4.4165335E-01
