    FDMNES
    energy     <xanes>
   7097.00  5.2388224E-03
   7097.33  5.3696880E-03
   7097.67  5.5066949E-03
   7098.00  5.6502621E-03
   7098.33  5.8018158E-03
   7098.67  5.9610681E-03
   7099.00  6.1285875E-03
   7099.33  6.3062361E-03
   7099.67  6.4937149E-03
   7100.00  6.6918144E-03
   7100.33  6.9030242E-03
   7100.67  7.1270582E-03
   7101.00  7.3650467E-03
   7101.33  7.6204133E-03
   7101.67  7.8929378E-03
   7102.00  8.1842917E-03
   7102.33  8.4993419E-03
   7102.67  8.8380523E-03
   7103.00  9.2029950E-03
   7103.33  9.6013749E-03
   7103.67  1.0033603E-02
   7104.00  1.0503837E-02
   7104.33  1.1023292E-02
   7104.67  1.1593441E-02
   7105.00  1.2221433E-02
   7105.33  1.2925881E-02
   7105.67  1.3710867E-02
   7106.00  1.4589711E-02
   7106.33  1.5596063E-02
   7106.67  1.6740913E-02
   7107.00  1.8051991E-02
   7107.33  1.9597859E-02
   7107.67  2.1410458E-02
   7108.00  2.3557645E-02
   7108.33  2.6206877E-02
   7108.67  2.9469218E-02
   7109.00  3.3559632E-02
   7109.33  3.9030927E-02
   7109.67  4.6425888E-02
   7110.00  5.6800597E-02
   7110.33  7.3182231E-02
   7110.67  9.9516758E-02
   7111.00  1.4098521E-01
   7111.33  1.9051923E-01
   7111.67  2.2142047E-01
   7112.00  2.5213305E-01
   7112.33  3.0721417E-01
   7112.67  3.7804914E-01
   7113.00  4.5315728E-01
   7113.33  4.9719260E-01
   7113.67  5.2926370E-01
   7114.00  5.8751784E-01
   7114.33  6.5366773E-01
   7114.67  6.4585559E-01
   7115.00  5.5339741E-01
   7115.33  4.4083010E-01
   7115.67  3.5361161E-01
   7116.00  2.9645185E-01
   7116.33  2.6584327E-01
   7116.67  2.4952203E-01
   7117.00  2.3689309E-01
   7117.33  2.1585413E-01
   7117.67  1.9003061E-01
   7118.00  1.6698977E-01
   7118.33  1.4896154E-01
   7118.67  1.3467575E-01
   7119.00  1.2469797E-01
   7119.33  1.2019751E-01
   7119.67  1.2004882E-01
   7120.00  1.2303605E-01
   7120.33  1.2791483E-01
   7120.67  1.3335590E-01
   7121.00  1.3854798E-01
   7121.33  1.4284104E-01
   7121.67  1.4711625E-01
   7122.00  1.5243666E-01
   7122.33  1.5945730E-01
   7122.67  1.6769927E-01
   7123.00  1.7679304E-01
   7123.33  1.8612578E-01
   7123.67  1.9468009E-01
   7124.00  2.0219998E-01
   7124.33  2.0995430E-01
   7124.67  2.1987430E-01
   7125.00  2.3299287E-01
   7125.33  2.4958589E-01
   7125.67  2.6792074E-01
   7126.00  2.8641440E-01
   7126.33  3.0379189E-01
   7126.67  3.2037338E-01
   7127.00  3.3686352E-01
   7127.33  3.5377444E-01
   7127.67  3.7089759E-01
   7128.00  3.8799646E-01
   7128.33  4.0533757E-01
   7128.67  4.2374874E-01
   7129.00  4.4400303E-01
   7129.33  4.6650550E-01
   7129.67  4.8994372E-01
   7130.00  5.1259375E-01
   7130.33  5.3184835E-01
   7130.67  5.4661925E-01
   7131.00  5.5690867E-01
   7131.33  5.6391539E-01
   7131.67  5.7060774E-01
   7132.00  5.7932260E-01
   7132.33  5.9280369E-01
   7132.67  6.1177774E-01
   7133.00  6.3631432E-01
   7133.33  6.6559624E-01
   7133.67  6.9613351E-01
   7134.00  7.2440222E-01
   7134.33  7.4543230E-01
   7134.67  7.5727114E-01
   7135.00  7.5939286E-01
   7135.33  7.5190645E-01
   7135.67  7.3783680E-01
   7136.00  7.1872012E-01
   7136.33  6.9543002E-01
   7136.67  6.6949379E-01
   7137.00  6.4186431E-01
   7137.33  6.1379807E-01
   7137.67  5.8680250E-01
   7138.00  5.6214163E-01
   7138.33  5.4156655E-01
   7138.67  5.2555954E-01
   7139.00  5.1457364E-01
   7139.33  5.0941157E-01
   7139.67  5.0929009E-01
   7140.00  5.1396400E-01
   7140.33  5.2364091E-01
   7140.67  5.3734922E-01
   7141.00  5.5461886E-01
   7141.33  5.7503003E-01
   7141.67  5.9719996E-01
   7142.00  6.2009048E-01
   7142.33  6.4240919E-01
   7142.67  6.6314193E-01
   7143.00  6.8158093E-01
   7143.33  6.9684429E-01
   7143.67  7.0906453E-01
   7144.00  7.1830698E-01
   7144.33  7.2459708E-01
   7144.67  7.2877039E-01
   7145.00  7.3124626E-01
   7145.33  7.3225702E-01
   7145.67  7.3229515E-01
   7146.00  7.3164482E-01
   7146.33  7.3062161E-01
   7146.67  7.2961715E-01
   7147.00  7.2888050E-01
   7147.33  7.2864859E-01
   7147.67  7.2888345E-01
   7148.00  7.2944146E-01
   7148.33  7.2997301E-01
   7148.67  7.2997452E-01
   7149.00  7.2894323E-01
   7149.33  7.2612914E-01
   7149.67  7.2135632E-01
   7150.00  7.1454504E-01
   7150.33  7.0571261E-01
   7150.67  6.9563736E-01
   7151.00  6.8493083E-01
   7151.33  6.7429324E-01
   7151.67  6.6423742E-01
   7152.00  6.5501351E-01
   7152.33  6.4680981E-01
   7152.67  6.3942342E-01
   7153.00  6.3271457E-01
   7153.33  6.2658188E-01
   7153.67  6.2083350E-01
   7154.00  6.1539832E-01
   7154.33  6.1026015E-01
   7154.67  6.0535321E-01
   7155.00  6.0064849E-01
   7155.33  5.9612132E-01
   7155.67  5.9169572E-01
   7156.00  5.8731874E-01
   7156.33  5.8293225E-01
   7156.67  5.7849825E-01
   7157.00  5.7400527E-01
   7157.33  5.6946219E-01
   7157.67  5.6491502E-01
   7158.00  5.6041325E-01
   7158.33  5.5603490E-01
   7158.67  5.5182719E-01
   7159.00  5.4783193E-01
   7159.33  5.4410937E-01
   7159.67  5.4064224E-01
   7160.00  5.3742995E-01
   7160.33  5.3448889E-01
   7160.67  5.3176516E-01
   7161.00  5.2923376E-01
   7161.33  5.2688323E-01
   7161.67  5.2466000E-01
   7162.00  5.2253034E-01
   7162.33  5.2044737E-01
   7162.67  5.1833916E-01
   7163.00  5.1613282E-01
   7163.33  5.1369764E-01
   7163.67  5.1093825E-01
   7164.00  5.0774375E-01
   7164.33  5.0392041E-01
   7164.67  4.9943829E-01
   7165.00  4.9424205E-01
   7165.33  4.8821886E-01
   7165.67  4.8149017E-01
   7166.00  4.7411892E-01
   7166.33  4.6614689E-01
   7166.67  4.5777649E-01
   7167.00  4.4913546E-01
   7167.33  4.4035852E-01
   7167.67  4.3160328E-01
   7168.00  4.2298141E-01
   7168.33  4.1463607E-01
   7168.67  4.0662857E-01
   7169.00  3.9902325E-01
   7169.33  3.9193649E-01
   7169.67  3.8534963E-01
   7170.00  3.7928204E-01
   7170.33  3.7381389E-01
   7170.67  3.6889247E-01
   7171.00  3.6452792E-01
   7171.33  3.6080117E-01
   7171.67  3.5767290E-01
   7172.00  3.5519744E-01
