    FDMNES
    energy     <xanes>
   7097.00  5.4140556E-03
   7097.33  5.5516889E-03
   7097.67  5.6960023E-03
   7098.00  5.8474702E-03
   7098.33  6.0076760E-03
   7098.67  6.1763330E-03
   7099.00  6.3540933E-03
   7099.33  6.5430490E-03
   7099.67  6.7429126E-03
   7100.00  6.9546032E-03
   7100.33  7.1809575E-03
   7100.67  7.4217218E-03
   7101.00  7.6782319E-03
   7101.33  7.9544517E-03
   7101.67  8.2502377E-03
   7102.00  8.5676014E-03
   7102.33  8.9122846E-03
   7102.67  9.2844209E-03
   7103.00  9.6871707E-03
   7103.33  1.0129221E-02
   7103.67  1.0611357E-02
   7104.00  1.1138808E-02
   7104.33  1.1725443E-02
   7104.67  1.2373576E-02
   7105.00  1.3092443E-02
   7105.33  1.3905737E-02
   7105.67  1.4819540E-02
   7106.00  1.5851577E-02
   7106.33  1.7046095E-02
   7106.67  1.8419240E-02
   7107.00  2.0009085E-02
   7107.33  2.1909015E-02
   7107.67  2.4165939E-02
   7108.00  2.6875879E-02
   7108.33  3.0274757E-02
   7108.67  3.4525936E-02
   7109.00  3.9940073E-02
   7109.33  4.7313556E-02
   7109.67  5.7436656E-02
   7110.00  7.1830703E-02
   7110.33  9.4790688E-02
   7110.67  1.3154120E-01
   7111.00  1.8852150E-01
   7111.33  2.6733832E-01
   7111.67  3.4673530E-01
   7112.00  4.1679373E-01
   7112.33  5.0394546E-01
   7112.67  6.1144956E-01
   7113.00  6.8765837E-01
   7113.33  6.5452868E-01
   7113.67  5.5048564E-01
   7114.00  4.3616759E-01
   7114.33  3.4924986E-01
   7114.67  2.8811573E-01
   7115.00  2.4669727E-01
   7115.33  2.2058553E-01
   7115.67  2.0440903E-01
   7116.00  1.9631153E-01
   7116.33  1.9493245E-01
   7116.67  1.9526516E-01
   7117.00  1.9190400E-01
   7117.33  1.8133485E-01
   7117.67  1.6779881E-01
   7118.00  1.5492571E-01
   7118.33  1.4478498E-01
   7118.67  1.3686681E-01
   7119.00  1.3059241E-01
   7119.33  1.2578634E-01
   7119.67  1.2222390E-01
   7120.00  1.1985534E-01
   7120.33  1.1872115E-01
   7120.67  1.1866084E-01
   7121.00  1.1974993E-01
   7121.33  1.2211410E-01
   7121.67  1.2536268E-01
   7122.00  1.2924654E-01
   7122.33  1.3365482E-01
   7122.67  1.3848726E-01
   7123.00  1.4376996E-01
   7123.33  1.4967003E-01
   7123.67  1.5632945E-01
   7124.00  1.6402407E-01
   7124.33  1.7321383E-01
   7124.67  1.8379216E-01
   7125.00  1.9568387E-01
   7125.33  2.0914304E-01
   7125.67  2.2428893E-01
   7126.00  2.4135790E-01
   7126.33  2.6068667E-01
   7126.67  2.8181663E-01
   7127.00  3.0436725E-01
   7127.33  3.2799382E-01
   7127.67  3.5237063E-01
   7128.00  3.7775789E-01
   7128.33  4.0559401E-01
   7128.67  4.3776578E-01
   7129.00  4.7653993E-01
   7129.33  5.2506644E-01
   7129.67  5.8233214E-01
   7130.00  6.4604834E-01
   7130.33  7.1186244E-01
   7130.67  7.7582372E-01
   7131.00  8.3705455E-01
   7131.33  8.9548555E-01
   7131.67  9.5064802E-01
   7132.00  1.0005101E+00
   7132.33  1.0406157E+00
   7132.67  1.0684511E+00
   7133.00  1.0815482E+00
   7133.33  1.0767253E+00
   7133.67  1.0569792E+00
   7134.00  1.0245623E+00
   7134.33  9.8164897E-01
   7134.67  9.3270657E-01
   7135.00  8.8017236E-01
   7135.33  8.2615161E-01
   7135.67  7.7255322E-01
   7136.00  7.2057824E-01
   7136.33  6.7176867E-01
   7136.67  6.2681466E-01
   7137.00  5.8650239E-01
   7137.33  5.5226062E-01
   7137.67  5.2394008E-01
   7138.00  5.0176238E-01
   7138.33  4.8643211E-01
   7138.67  4.7678203E-01
   7139.00  4.7221277E-01
   7139.33  4.7234233E-01
   7139.67  4.7565309E-01
   7140.00  4.8132192E-01
   7140.33  4.8870791E-01
   7140.67  4.9697103E-01
   7141.00  5.0570211E-01
   7141.33  5.1458628E-01
   7141.67  5.2338801E-01
   7142.00  5.3197406E-01
   7142.33  5.4017008E-01
   7142.67  5.4788656E-01
   7143.00  5.5499715E-01
   7143.33  5.6124602E-01
   7143.67  5.6656875E-01
   7144.00  5.7084451E-01
   7144.33  5.7383075E-01
   7144.67  5.7563330E-01
   7145.00  5.7627605E-01
   7145.33  5.7571634E-01
   7145.67  5.7423443E-01
   7146.00  5.7198688E-01
   7146.33  5.6910429E-01
   7146.67  5.6586187E-01
   7147.00  5.6242210E-01
   7147.33  5.5893541E-01
   7147.67  5.5553266E-01
   7148.00  5.5230781E-01
   7148.33  5.4938972E-01
   7148.67  5.4682715E-01
   7149.00  5.4468458E-01
   7149.33  5.4308224E-01
   7149.67  5.4200584E-01
   7150.00  5.4148570E-01
   7150.33  5.4161823E-01
   7150.67  5.4233986E-01
   7151.00  5.4364408E-01
   7151.33  5.4557381E-01
   7151.67  5.4801158E-01
   7152.00  5.5090017E-01
   7152.33  5.5420367E-01
   7152.67  5.5778310E-01
   7153.00  5.6155524E-01
   7153.33  5.6543815E-01
   7153.67  5.6933489E-01
   7154.00  5.7318410E-01
   7154.33  5.7691593E-01
   7154.67  5.8050108E-01
   7155.00  5.8391117E-01
   7155.33  5.8708993E-01
   7155.67  5.9003138E-01
   7156.00  5.9270659E-01
   7156.33  5.9504148E-01
   7156.67  5.9703560E-01
   7157.00  5.9865645E-01
   7157.33  5.9981903E-01
   7157.67  6.0054717E-01
   7158.00  6.0082436E-01
   7158.33  6.0058096E-01
   7158.67  5.9986934E-01
   7159.00  5.9868852E-01
   7159.33  5.9698244E-01
   7159.67  5.9481516E-01
   7160.00  5.9219219E-01
   7160.33  5.8906269E-01
   7160.67  5.8548776E-01
   7161.00  5.8146702E-01
   7161.33  5.7694413E-01
   7161.67  5.7198554E-01
   7162.00  5.6660628E-01
   7162.33  5.6077866E-01
   7162.67  5.5458117E-01
   7163.00  5.4804428E-01
   7163.33  5.4117200E-01
   7163.67  5.3404799E-01
   7164.00  5.2671540E-01
   7164.33  5.1920672E-01
   7164.67  5.1159280E-01
   7165.00  5.0391647E-01
   7165.33  4.9622460E-01
   7165.67  4.8856570E-01
   7166.00  4.8097902E-01
   7166.33  4.7352389E-01
   7166.67  4.6622870E-01
   7167.00  4.5912923E-01
   7167.33  4.5229715E-01
   7167.67  4.4574797E-01
   7168.00  4.3952169E-01
   7168.33  4.3370284E-01
   7168.67  4.2827805E-01
   7169.00  4.2327070E-01
   7169.33  4.1875653E-01
   7169.67  4.1469358E-01
   7170.00  4.1108653E-01
   7170.33  4.0798944E-01
   7170.67  4.0533393E-01
   7171.00  4.0310275E-01
   7171.33  4.0131782E-01
   7171.67  3.9989498E-01
   7172.00  3.9879747E-01
