    FDMNES
    energy     <xanes>
   7097.00  4.4746961E-03
   7097.33  4.5728360E-03
   7097.67  4.6752161E-03
   7098.00  4.7821192E-03
   7098.33  4.8945208E-03
   7098.67  5.0122165E-03
   7099.00  5.1355930E-03
   7099.33  5.2659257E-03
   7099.67  5.4030076E-03
   7100.00  5.5473821E-03
   7100.33  5.7007633E-03
   7100.67  5.8629632E-03
   7101.00  6.0347709E-03
   7101.33  6.2185668E-03
   7101.67  6.4142295E-03
   7102.00  6.6229504E-03
   7102.33  6.8481681E-03
   7102.67  7.0899338E-03
   7103.00  7.3501319E-03
   7103.33  7.6339736E-03
   7103.67  7.9419255E-03
   7104.00  8.2771432E-03
   7104.33  8.6480099E-03
   7104.67  9.0559930E-03
   7105.00  9.5067691E-03
   7105.33  1.0014891E-02
   7105.67  1.0584359E-02
   7106.00  1.1226382E-02
   7106.33  1.1968891E-02
   7106.67  1.2822935E-02
   7107.00  1.3813634E-02
   7107.33  1.5002616E-02
   7107.67  1.6423773E-02
   7108.00  1.8144698E-02
   7108.33  2.0332785E-02
   7108.67  2.3116375E-02
   7109.00  2.6738004E-02
   7109.33  3.1835266E-02
   7109.67  3.9117047E-02
   7110.00  4.9969840E-02
   7110.33  6.8352586E-02
   7110.67  9.8295675E-02
   7111.00  1.4028112E-01
   7111.33  1.8266221E-01
   7111.67  2.1661606E-01
   7112.00  2.4619380E-01
   7112.33  2.7880039E-01
   7112.67  3.0661653E-01
   7113.00  3.1941094E-01
   7113.33  3.0391576E-01
   7113.67  2.6466580E-01
   7114.00  2.1335537E-01
   7114.33  1.6525932E-01
   7114.67  1.2767965E-01
   7115.00  1.0183873E-01
   7115.33  8.7022180E-02
   7115.67  7.8553205E-02
   7116.00  7.4032109E-02
   7116.33  7.2989615E-02
   7116.67  7.4112873E-02
   7117.00  7.6462011E-02
   7117.33  7.9412883E-02
   7117.67  8.1856395E-02
   7118.00  8.2583888E-02
   7118.33  8.0956301E-02
   7118.67  7.8773615E-02
   7119.00  7.7590415E-02
   7119.33  7.8160476E-02
   7119.67  7.9725922E-02
   7120.00  8.1608310E-02
   7120.33  8.3809044E-02
   7120.67  8.6842197E-02
   7121.00  9.1129026E-02
   7121.33  9.7567467E-02
   7121.67  1.0697548E-01
   7122.00  1.2050840E-01
   7122.33  1.4032143E-01
   7122.67  1.6553820E-01
   7123.00  1.9052896E-01
   7123.33  2.0346353E-01
   7123.67  2.0868986E-01
   7124.00  2.1483764E-01
   7124.33  2.2649990E-01
   7124.67  2.4310439E-01
   7125.00  2.6374498E-01
   7125.33  2.8712073E-01
   7125.67  3.1204502E-01
   7126.00  3.3945635E-01
   7126.33  3.7212606E-01
   7126.67  4.0944957E-01
   7127.00  4.4790196E-01
   7127.33  4.8258812E-01
   7127.67  5.1392216E-01
   7128.00  5.4386480E-01
   7128.33  5.7331617E-01
   7128.67  6.0244392E-01
   7129.00  6.3204962E-01
   7129.33  6.6383252E-01
   7129.67  6.9691247E-01
   7130.00  7.2685915E-01
   7130.33  7.4614608E-01
   7130.67  7.5412648E-01
   7131.00  7.5194606E-01
   7131.33  7.4284019E-01
   7131.67  7.3244258E-01
   7132.00  7.2329766E-01
   7132.33  7.1660703E-01
   7132.67  7.1270813E-01
   7133.00  7.1200030E-01
   7133.33  7.1459280E-01
   7133.67  7.2011801E-01
   7134.00  7.2927185E-01
   7134.33  7.4343970E-01
   7134.67  7.6135053E-01
   7135.00  7.8201507E-01
   7135.33  8.0506515E-01
   7135.67  8.2749645E-01
   7136.00  8.4574438E-01
   7136.33  8.5580669E-01
   7136.67  8.5800109E-01
   7137.00  8.5367166E-01
   7137.33  8.4474878E-01
   7137.67  8.3395367E-01
   7138.00  8.2263331E-01
   7138.33  8.1182436E-01
   7138.67  8.0196604E-01
   7139.00  7.9317350E-01
   7139.33  7.8536939E-01
   7139.67  7.7794185E-01
   7140.00  7.7023784E-01
   7140.33  7.6114209E-01
   7140.67  7.4978245E-01
   7141.00  7.3545884E-01
   7141.33  7.1755533E-01
   7141.67  6.9712551E-01
   7142.00  6.7537660E-01
   7142.33  6.5408781E-01
   7142.67  6.3469199E-01
   7143.00  6.1795505E-01
   7143.33  6.0447407E-01
   7143.67  5.9355785E-01
   7144.00  5.8463575E-01
   7144.33  5.7703403E-01
   7144.67  5.6976951E-01
   7145.00  5.6221461E-01
   7145.33  5.5373957E-01
   7145.67  5.4421563E-01
   7146.00  5.3369439E-01
   7146.33  5.2238157E-01
   7146.67  5.1080183E-01
   7147.00  4.9934866E-01
   7147.33  4.8847359E-01
   7147.67  4.7837345E-01
   7148.00  4.6916421E-01
   7148.33  4.6099180E-01
   7148.67  4.5368895E-01
   7149.00  4.4716969E-01
   7149.33  4.4140595E-01
   7149.67  4.3619454E-01
   7150.00  4.3142502E-01
   7150.33  4.2699351E-01
   7150.67  4.2270903E-01
   7151.00  4.1843801E-01
   7151.33  4.1402438E-01
   7151.67  4.0938772E-01
   7152.00  4.0450380E-01
   7152.33  3.9940009E-01
   7152.67  3.9422295E-01
   7153.00  3.8911343E-01
   7153.33  3.8428281E-01
   7153.67  3.7986940E-01
   7154.00  3.7599027E-01
   7154.33  3.7281390E-01
   7154.67  3.7030302E-01
   7155.00  3.6845915E-01
   7155.33  3.6733403E-01
   7155.67  3.6679510E-01
   7156.00  3.6678024E-01
   7156.33  3.6725111E-01
   7156.67  3.6804213E-01
   7157.00  3.6904839E-01
   7157.33  3.7016269E-01
   7157.67  3.7127100E-01
   7158.00  3.7230527E-01
   7158.33  3.7319031E-01
   7158.67  3.7389890E-01
   7159.00  3.7439955E-01
   7159.33  3.7462921E-01
   7159.67  3.7458983E-01
   7160.00  3.7426386E-01
   7160.33  3.7360963E-01
   7160.67  3.7268327E-01
   7161.00  3.7152455E-01
   7161.33  3.7018716E-01
   7161.67  3.6878918E-01
   7162.00  3.6742768E-01
   7162.33  3.6623455E-01
   7162.67  3.6528877E-01
   7163.00  3.6465644E-01
   7163.33  3.6443780E-01
   7163.67  3.6461787E-01
   7164.00  3.6520771E-01
   7164.33  3.6625678E-01
   7164.67  3.6769928E-01
   7165.00  3.6951366E-01
   7165.33  3.7170778E-01
   7165.67  3.7419623E-01
   7166.00  3.7693756E-01
   7166.33  3.7990854E-01
   7166.67  3.8303852E-01
   7167.00  3.8629468E-01
   7167.33  3.8966088E-01
   7167.67  3.9310676E-01
   7168.00  3.9662226E-01
   7168.33  4.0020505E-01
   7168.67  4.0383479E-01
   7169.00  4.0749439E-01
   7169.33  4.1115475E-01
   7169.67  4.1477623E-01
   7170.00  4.1831803E-01
   7170.33  4.2171128E-01
   7170.67  4.2491638E-01
   7171.00  4.2788239E-01
   7171.33  4.3050676E-01
   7171.67  4.3274653E-01
   7172.00  4.3451691E-01
