    FDMNES
    energy     <xanes>
   7097.00  5.2438185E-03
   7097.33  5.3745346E-03
   7097.67  5.5115785E-03
   7098.00  5.6554068E-03
   7098.33  5.8075323E-03
   7098.67  5.9676958E-03
   7099.00  6.1365304E-03
   7099.33  6.3160507E-03
   7099.67  6.5060060E-03
   7100.00  6.7073005E-03
   7100.33  6.9226941E-03
   7100.67  7.1519876E-03
   7101.00  7.3965162E-03
   7101.33  7.6601918E-03
   7101.67  7.9429601E-03
   7102.00  8.2468741E-03
   7102.33  8.5777095E-03
   7102.67  8.9357661E-03
   7103.00  9.3243574E-03
   7103.33  9.7524499E-03
   7103.67  1.0221179E-02
   7104.00  1.0736226E-02
   7104.33  1.1312412E-02
   7104.67  1.1952895E-02
   7105.00  1.2668181E-02
   7105.33  1.3484835E-02
   7105.67  1.4411227E-02
   7106.00  1.5468830E-02
   7106.33  1.6710658E-02
   7106.67  1.8160037E-02
   7107.00  1.9867251E-02
   7107.33  2.1955281E-02
   7107.67  2.4498061E-02
   7108.00  2.7638975E-02
   7108.33  3.1734821E-02
   7108.67  3.7081304E-02
   7109.00  4.4233296E-02
   7109.33  5.4671311E-02
   7109.67  7.0150608E-02
   7110.00  9.4128831E-02
   7110.33  1.3659748E-01
   7110.67  2.0755343E-01
   7111.00  3.0496501E-01
   7111.33  3.8607469E-01
   7111.67  4.2426723E-01
   7112.00  4.2192238E-01
   7112.33  3.9127755E-01
   7112.67  3.5294798E-01
   7113.00  3.1623324E-01
   7113.33  2.8660686E-01
   7113.67  2.6428223E-01
   7114.00  2.4872464E-01
   7114.33  2.3953890E-01
   7114.67  2.3452066E-01
   7115.00  2.3173136E-01
   7115.33  2.2801940E-01
   7115.67  2.2096453E-01
   7116.00  2.1029051E-01
   7116.33  1.9753105E-01
   7116.67  1.8505697E-01
   7117.00  1.7397150E-01
   7117.33  1.6487505E-01
   7117.67  1.5735174E-01
   7118.00  1.5107416E-01
   7118.33  1.4585449E-01
   7118.67  1.4155469E-01
   7119.00  1.3844558E-01
   7119.33  1.3713169E-01
   7119.67  1.3746312E-01
   7120.00  1.3910261E-01
   7120.33  1.4160119E-01
   7120.67  1.4446239E-01
   7121.00  1.4755459E-01
   7121.33  1.5097027E-01
   7121.67  1.5486793E-01
   7122.00  1.5947336E-01
   7122.33  1.6522377E-01
   7122.67  1.7235495E-01
   7123.00  1.8123148E-01
   7123.33  1.9263568E-01
   7123.67  2.0685192E-01
   7124.00  2.2434554E-01
   7124.33  2.4599513E-01
   7124.67  2.7143332E-01
   7125.00  3.0021820E-01
   7125.33  3.3126738E-01
   7125.67  3.6230505E-01
   7126.00  3.9156684E-01
   7126.33  4.1754267E-01
   7126.67  4.4093045E-01
   7127.00  4.6292001E-01
   7127.33  4.8532920E-01
   7127.67  5.0975253E-01
   7128.00  5.3721386E-01
   7128.33  5.6869607E-01
   7128.67  6.0348539E-01
   7129.00  6.4077988E-01
   7129.33  6.7944584E-01
   7129.67  7.1811070E-01
   7130.00  7.5605843E-01
   7130.33  7.9285914E-01
   7130.67  8.2886457E-01
   7131.00  8.6440884E-01
   7131.33  8.9906247E-01
   7131.67  9.3043405E-01
   7132.00  9.5396365E-01
   7132.33  9.6108266E-01
   7132.67  9.4930990E-01
   7133.00  9.1949820E-01
   7133.33  8.7553100E-01
   7133.67  8.2566670E-01
   7134.00  7.7441994E-01
   7134.33  7.2521209E-01
   7134.67  6.7930008E-01
   7135.00  6.3714180E-01
   7135.33  5.9928215E-01
   7135.67  5.6510740E-01
   7136.00  5.3447529E-01
   7136.33  5.0769351E-01
   7136.67  4.8428699E-01
   7137.00  4.6426175E-01
   7137.33  4.4806248E-01
   7137.67  4.3524969E-01
   7138.00  4.2575424E-01
   7138.33  4.1980685E-01
   7138.67  4.1676870E-01
   7139.00  4.1638496E-01
   7139.33  4.1862894E-01
   7139.67  4.2289755E-01
   7140.00  4.2894704E-01
   7140.33  4.3671953E-01
   7140.67  4.4580575E-01
   7141.00  4.5603106E-01
   7141.33  4.6730080E-01
   7141.67  4.7925624E-01
   7142.00  4.9164788E-01
   7142.33  5.0414012E-01
   7142.67  5.1632041E-01
   7143.00  5.2781786E-01
   7143.33  5.3806813E-01
   7143.67  5.4683881E-01
   7144.00  5.5389352E-01
   7144.33  5.5885760E-01
   7144.67  5.6198192E-01
   7145.00  5.6340108E-01
   7145.33  5.6318812E-01
   7145.67  5.6184678E-01
   7146.00  5.5968665E-01
   7146.33  5.5701259E-01
   7146.67  5.5420842E-01
   7147.00  5.5151391E-01
   7147.33  5.4919664E-01
   7147.67  5.4738130E-01
   7148.00  5.4616632E-01
   7148.33  5.4570424E-01
   7148.67  5.4593811E-01
   7149.00  5.4686259E-01
   7149.33  5.4852740E-01
   7149.67  5.5079586E-01
   7150.00  5.5360798E-01
   7150.33  5.5693995E-01
   7150.67  5.6064275E-01
   7151.00  5.6463205E-01
   7151.33  5.6882779E-01
   7151.67  5.7310128E-01
   7152.00  5.7736199E-01
   7152.33  5.8149390E-01
   7152.67  5.8541686E-01
   7153.00  5.8905818E-01
   7153.33  5.9230224E-01
   7153.67  5.9513897E-01
   7154.00  5.9753834E-01
   7154.33  5.9943008E-01
   7154.67  6.0087399E-01
   7155.00  6.0188205E-01
   7155.33  6.0242502E-01
   7155.67  6.0258470E-01
   7156.00  6.0239129E-01
   7156.33  6.0184299E-01
   7156.67  6.0101721E-01
   7157.00  5.9994548E-01
   7157.33  5.9863530E-01
   7157.67  5.9714318E-01
   7158.00  5.9549108E-01
   7158.33  5.9368103E-01
   7158.67  5.9174009E-01
   7159.00  5.8966807E-01
   7159.33  5.8744481E-01
   7159.67  5.8508430E-01
   7160.00  5.8258103E-01
   7160.33  5.7990458E-01
   7160.67  5.7705949E-01
   7161.00  5.7403147E-01
   7161.33  5.7077796E-01
   7161.67  5.6730695E-01
   7162.00  5.6360488E-01
   7162.33  5.5962605E-01
   7162.67  5.5538930E-01
   7163.00  5.5088958E-01
   7163.33  5.4609293E-01
   7163.67  5.4103669E-01
   7164.00  5.3572868E-01
   7164.33  5.3015372E-01
   7164.67  5.2436249E-01
   7165.00  5.1837762E-01
   7165.33  5.1221219E-01
   7165.67  5.0593086E-01
   7166.00  4.9957860E-01
   7166.33  4.9319966E-01
   7166.67  4.8684235E-01
   7167.00  4.8054590E-01
   7167.33  4.7436689E-01
   7167.67  4.6833491E-01
   7168.00  4.6248573E-01
   7168.33  4.5688559E-01
   7168.67  4.5154023E-01
   7169.00  4.4647428E-01
   7169.33  4.4174914E-01
   7169.67  4.3734518E-01
   7170.00  4.3327403E-01
   7170.33  4.2958714E-01
   7170.67  4.2624806E-01
   7171.00  4.2326314E-01
   7171.33  4.2069284E-01
   7171.67  4.1852405E-01
   7172.00  4.1680188E-01
