    FDMNES
    energy     <xanes>
   7097.00  5.2492157E-03
   7097.33  5.3801538E-03
   7097.67  5.5174342E-03
   7098.00  5.6615146E-03
   7098.33  5.8139117E-03
   7098.67  5.9743656E-03
   7099.00  6.1435114E-03
   7099.33  6.3233686E-03
   7099.67  6.5136863E-03
   7100.00  6.7153710E-03
   7100.33  6.9311897E-03
   7100.67  7.1609432E-03
   7101.00  7.4059704E-03
   7101.33  7.6701931E-03
   7101.67  7.9535576E-03
   7102.00  8.2581224E-03
   7102.33  8.5896784E-03
   7102.67  8.9485267E-03
   7103.00  9.3379895E-03
   7103.33  9.7670573E-03
   7103.67  1.0236869E-02
   7104.00  1.0753119E-02
   7104.33  1.1330669E-02
   7104.67  1.1972684E-02
   7105.00  1.2689696E-02
   7105.33  1.3508336E-02
   7105.67  1.4436993E-02
   7106.00  1.5497187E-02
   7106.33  1.6742056E-02
   7106.67  1.8194967E-02
   7107.00  1.9906304E-02
   7107.33  2.1999289E-02
   7107.67  2.4547958E-02
   7108.00  2.7695908E-02
   7108.33  3.1800437E-02
   7108.67  3.7157467E-02
   7109.00  4.4322267E-02
   7109.33  5.4776115E-02
   7109.67  7.0273945E-02
   7110.00  9.4272324E-02
   7110.33  1.3675907E-01
   7110.67  2.0774236E-01
   7111.00  3.0529170E-01
   7111.33  3.8694572E-01
   7111.67  4.2599023E-01
   7112.00  4.2436383E-01
   7112.33  3.9380419E-01
   7112.67  3.5514170E-01
   7113.00  3.1794220E-01
   7113.33  2.8785368E-01
   7113.67  2.6514572E-01
   7114.00  2.4928550E-01
   7114.33  2.3987684E-01
   7114.67  2.3470906E-01
   7115.00  2.3185714E-01
   7115.33  2.2818210E-01
   7115.67  2.2120573E-01
   7116.00  2.1059253E-01
   7116.33  1.9784152E-01
   7116.67  1.8534584E-01
   7117.00  1.7422873E-01
   7117.33  1.6510340E-01
   7117.67  1.5755624E-01
   7118.00  1.5125666E-01
   7118.33  1.4600667E-01
   7118.67  1.4165590E-01
   7119.00  1.3846852E-01
   7119.33  1.3705809E-01
   7119.67  1.3730240E-01
   7120.00  1.3888124E-01
   7120.33  1.4135346E-01
   7120.67  1.4420937E-01
   7121.00  1.4730596E-01
   7121.33  1.5072580E-01
   7121.67  1.5462279E-01
   7122.00  1.5922180E-01
   7122.33  1.6496003E-01
   7122.67  1.7207562E-01
   7123.00  1.8093514E-01
   7123.33  1.9232389E-01
   7123.67  2.0652989E-01
   7124.00  2.2402281E-01
   7124.33  2.4569077E-01
   7124.67  2.7117219E-01
   7125.00  3.0002804E-01
   7125.33  3.3117065E-01
   7125.67  3.6230467E-01
   7126.00  3.9165571E-01
   7126.33  4.1768967E-01
   7126.67  4.4109220E-01
   7127.00  4.6305667E-01
   7127.33  4.8540303E-01
   7127.67  5.0973343E-01
   7128.00  5.3707439E-01
   7128.33  5.6841116E-01
   7128.67  6.0303945E-01
   7129.00  6.4016180E-01
   7129.33  6.7864347E-01
   7129.67  7.1710672E-01
   7130.00  7.5482614E-01
   7130.33  7.9135872E-01
   7130.67  8.2706365E-01
   7131.00  8.6230313E-01
   7131.33  8.9675198E-01
   7131.67  9.2817461E-01
   7132.00  9.5215788E-01
   7132.33  9.6020128E-01
   7132.67  9.4952873E-01
   7133.00  9.2069421E-01
   7133.33  8.7732710E-01
   7133.67  8.2772773E-01
   7134.00  7.7650252E-01
   7134.33  7.2716889E-01
   7134.67  6.8107794E-01
   7135.00  6.3872578E-01
   7135.33  6.0068079E-01
   7135.67  5.6633720E-01
   7136.00  5.3555479E-01
   7136.33  5.0864286E-01
   7136.67  4.8512233E-01
   7137.00  4.6499796E-01
   7137.33  4.4871485E-01
   7137.67  4.3583019E-01
   7138.00  4.2627336E-01
   7138.33  4.2027444E-01
   7138.67  4.1719170E-01
   7139.00  4.1676863E-01
   7139.33  4.1897706E-01
   7139.67  4.2321154E-01
   7140.00  4.2922678E-01
   7140.33  4.3696297E-01
   7140.67  4.4600961E-01
   7141.00  4.5619108E-01
   7141.33  4.6741161E-01
   7141.67  4.7931347E-01
   7142.00  4.9164847E-01
   7142.33  5.0408377E-01
   7142.67  5.1621081E-01
   7143.00  5.2766257E-01
   7143.33  5.3788052E-01
   7143.67  5.4663396E-01
   7144.00  5.5368794E-01
   7144.33  5.5866996E-01
   7144.67  5.6182644E-01
   7145.00  5.6328507E-01
   7145.33  5.6310913E-01
   7145.67  5.6179866E-01
   7146.00  5.5966221E-01
   7146.33  5.5700366E-01
   7146.67  5.5420868E-01
   7147.00  5.5151848E-01
   7147.33  5.4920230E-01
   7147.67  5.4738724E-01
   7148.00  5.4617334E-01
   7148.33  5.4571495E-01
   7148.67  5.4595587E-01
   7149.00  5.4689127E-01
   7149.33  5.4857157E-01
   7149.67  5.5085938E-01
   7150.00  5.5369425E-01
   7150.33  5.5705196E-01
   7150.67  5.6078228E-01
   7151.00  5.6480006E-01
   7151.33  5.6902419E-01
   7151.67  5.7332500E-01
   7152.00  5.7761115E-01
   7152.33  5.8176537E-01
   7152.67  5.8570703E-01
   7153.00  5.8936278E-01
   7153.33  5.9261568E-01
   7153.67  5.9545626E-01
   7154.00  5.9785609E-01
   7154.33  5.9974616E-01
   7154.67  6.0118612E-01
   7155.00  6.0218751E-01
   7155.33  6.0272062E-01
   7155.67  6.0286780E-01
   7156.00  6.0265954E-01
   7156.33  6.0209417E-01
   7156.67  6.0124979E-01
   7157.00  6.0015828E-01
   7157.33  5.9882739E-01
   7157.67  5.9731405E-01
   7158.00  5.9564029E-01
   7158.33  5.9380806E-01
   7158.67  5.9184564E-01
   7159.00  5.8975622E-01
   7159.33  5.8751994E-01
   7159.67  5.8514756E-01
   7160.00  5.8263365E-01
   7160.33  5.7994880E-01
   7160.67  5.7709778E-01
   7161.00  5.7406659E-01
   7161.33  5.7081328E-01
   7161.67  5.6734559E-01
   7162.00  5.6364995E-01
   7162.33  5.5968101E-01
   7162.67  5.5545702E-01
   7163.00  5.5097268E-01
   7163.33  5.4619386E-01
   7163.67  5.4115728E-01
   7164.00  5.3587056E-01
   7164.33  5.3031840E-01
   7164.67  5.2455075E-01
   7165.00  5.1858972E-01
   7165.33  5.1244775E-01
   7165.67  5.0618895E-01
   7166.00  4.9985777E-01
   7166.33  4.9349777E-01
   7166.67  4.8715713E-01
   7167.00  4.8087481E-01
   7167.33  4.7470684E-01
   7167.67  4.6868299E-01
   7168.00  4.6283897E-01
   7168.33  4.5724065E-01
   7168.67  4.5189427E-01
   7169.00  4.4682461E-01
   7169.33  4.4209299E-01
   7169.67  4.3768039E-01
   7170.00  4.3359874E-01
   7170.33  4.2989971E-01
   7170.67  4.2654745E-01
   7171.00  4.2354880E-01
   7171.33  4.2096487E-01
   7171.67  4.1878352E-01
   7172.00  4.1705103E-01
