    FDMNES
    energy     <xanes>
   7097.00  5.1404495E-03
   7097.33  5.2593375E-03
   7097.67  5.3834770E-03
   7098.00  5.5132114E-03
   7098.33  5.6497357E-03
   7098.67  5.7927843E-03
   7099.00  5.9428197E-03
   7099.33  6.1013874E-03
   7099.67  6.2682081E-03
   7100.00  6.4439196E-03
   7100.33  6.6305688E-03
   7100.67  6.8278797E-03
   7101.00  7.0367574E-03
   7101.33  7.2599886E-03
   7101.67  7.4973408E-03
   7102.00  7.7501415E-03
   7102.33  8.0223131E-03
   7102.67  8.3137549E-03
   7103.00  8.6264938E-03
   7103.33  8.9662783E-03
   7103.67  9.3333383E-03
   7104.00  9.7309250E-03
   7104.33  1.0167898E-02
   7104.67  1.0645282E-02
   7105.00  1.1168628E-02
   7105.33  1.1752495E-02
   7105.67  1.2399876E-02
   7106.00  1.3121036E-02
   7106.33  1.3942055E-02
   7106.67  1.4871141E-02
   7107.00  1.5929524E-02
   7107.33  1.7169880E-02
   7107.67  1.8616237E-02
   7108.00  2.0320250E-02
   7108.33  2.2409620E-02
   7108.67  2.4968220E-02
   7109.00  2.8159246E-02
   7109.33  3.2403223E-02
   7109.67  3.8113512E-02
   7110.00  4.6094631E-02
   7110.33  5.8600585E-02
   7110.67  7.7990671E-02
   7111.00  1.0579517E-01
   7111.33  1.4096807E-01
   7111.67  1.7922182E-01
   7112.00  2.1584935E-01
   7112.33  2.5719660E-01
   7112.67  3.0359876E-01
   7113.00  3.3540044E-01
   7113.33  3.5028073E-01
   7113.67  3.7660458E-01
   7114.00  4.2014453E-01
   7114.33  4.5398846E-01
   7114.67  4.5417297E-01
   7115.00  4.2388307E-01
   7115.33  3.7965952E-01
   7115.67  3.3925612E-01
   7116.00  3.0991526E-01
   7116.33  2.9425127E-01
   7116.67  2.8553145E-01
   7117.00  2.7522175E-01
   7117.33  2.5385501E-01
   7117.67  2.2470385E-01
   7118.00  1.9540681E-01
   7118.33  1.7290497E-01
   7118.67  1.5743423E-01
   7119.00  1.4781963E-01
   7119.33  1.4262461E-01
   7119.67  1.3946884E-01
   7120.00  1.3721502E-01
   7120.33  1.3551496E-01
   7120.67  1.3449623E-01
   7121.00  1.3429819E-01
   7121.33  1.3518308E-01
   7121.67  1.3744296E-01
   7122.00  1.4138920E-01
   7122.33  1.4722424E-01
   7122.67  1.5461557E-01
   7123.00  1.6387902E-01
   7123.33  1.7601966E-01
   7123.67  1.8992246E-01
   7124.00  2.0354163E-01
   7124.33  2.1517836E-01
   7124.67  2.2649173E-01
   7125.00  2.3979969E-01
   7125.33  2.5770662E-01
   7125.67  2.8113883E-01
   7126.00  3.1071492E-01
   7126.33  3.4609105E-01
   7126.67  3.8272615E-01
   7127.00  4.1595308E-01
   7127.33  4.4236253E-01
   7127.67  4.6461829E-01
   7128.00  4.8515721E-01
   7128.33  5.0443729E-01
   7128.67  5.2155791E-01
   7129.00  5.3671491E-01
   7129.33  5.5188301E-01
   7129.67  5.6856503E-01
   7130.00  5.8692342E-01
   7130.33  6.0654752E-01
   7130.67  6.2657661E-01
   7131.00  6.4665042E-01
   7131.33  6.6679146E-01
   7131.67  6.8734627E-01
   7132.00  7.0872203E-01
   7132.33  7.3145788E-01
   7132.67  7.5548893E-01
   7133.00  7.8051554E-01
   7133.33  8.0575130E-01
   7133.67  8.3013892E-01
   7134.00  8.5318579E-01
   7134.33  8.7549880E-01
   7134.67  8.9784548E-01
   7135.00  9.1790168E-01
   7135.33  9.2954162E-01
   7135.67  9.3019322E-01
   7136.00  9.1889358E-01
   7136.33  8.9466689E-01
   7136.67  8.6083386E-01
   7137.00  8.1994490E-01
   7137.33  7.7502729E-01
   7137.67  7.2982247E-01
   7138.00  6.8660864E-01
   7138.33  6.4773565E-01
   7138.67  6.1383094E-01
   7139.00  5.8537172E-01
   7139.33  5.6318902E-01
   7139.67  5.4634786E-01
   7140.00  5.3439637E-01
   7140.33  5.2712612E-01
   7140.67  5.2318397E-01
   7141.00  5.2185596E-01
   7141.33  5.2262633E-01
   7141.67  5.2465549E-01
   7142.00  5.2754752E-01
   7142.33  5.3103309E-01
   7142.67  5.3482295E-01
   7143.00  5.3878062E-01
   7143.33  5.4275972E-01
   7143.67  5.4657185E-01
   7144.00  5.5000062E-01
   7144.33  5.5263336E-01
   7144.67  5.5418839E-01
   7145.00  5.5436412E-01
   7145.33  5.5270802E-01
   7145.67  5.4936148E-01
   7146.00  5.4445146E-01
   7146.33  5.3816138E-01
   7146.67  5.3108563E-01
   7147.00  5.2359003E-01
   7147.33  5.1604042E-01
   7147.67  5.0874077E-01
   7148.00  5.0187317E-01
   7148.33  4.9563984E-01
   7148.67  4.9003897E-01
   7149.00  4.8509786E-01
   7149.33  4.8091292E-01
   7149.67  4.7740377E-01
   7150.00  4.7457461E-01
   7150.33  4.7252425E-01
   7150.67  4.7117208E-01
   7151.00  4.7051185E-01
   7151.33  4.7061791E-01
   7151.67  4.7139864E-01
   7152.00  4.7284632E-01
   7152.33  4.7502506E-01
   7152.67  4.7782679E-01
   7153.00  4.8122010E-01
   7153.33  4.8522617E-01
   7153.67  4.8971755E-01
   7154.00  4.9463157E-01
   7154.33  4.9991991E-01
   7154.67  5.0543071E-01
   7155.00  5.1105796E-01
   7155.33  5.1667318E-01
   7155.67  5.2215573E-01
   7156.00  5.2741248E-01
   7156.33  5.3231826E-01
   7156.67  5.3685512E-01
   7157.00  5.4099864E-01
   7157.33  5.4469672E-01
   7157.67  5.4801741E-01
   7158.00  5.5098720E-01
   7158.33  5.5360304E-01
   7158.67  5.5594013E-01
   7159.00  5.5802545E-01
   7159.33  5.5985619E-01
   7159.67  5.6147929E-01
   7160.00  5.6290564E-01
   7160.33  5.6411946E-01
   7160.67  5.6514845E-01
   7161.00  5.6599432E-01
   7161.33  5.6663509E-01
   7161.67  5.6709345E-01
   7162.00  5.6736876E-01
   7162.33  5.6743678E-01
   7162.67  5.6731867E-01
   7163.00  5.6701147E-01
   7163.33  5.6648097E-01
   7163.67  5.6573278E-01
   7164.00  5.6475216E-01
   7164.33  5.6349966E-01
   7164.67  5.6199724E-01
   7165.00  5.6023572E-01
   7165.33  5.5816900E-01
   7165.67  5.5581983E-01
   7166.00  5.5318044E-01
   7166.33  5.5020679E-01
   7166.67  5.4693322E-01
   7167.00  5.4336145E-01
   7167.33  5.3946076E-01
   7167.67  5.3527776E-01
   7168.00  5.3082562E-01
   7168.33  5.2609438E-01
   7168.67  5.2114229E-01
   7169.00  5.1599746E-01
   7169.33  5.1067980E-01
   7169.67  5.0525601E-01
   7170.00  4.9977556E-01
   7170.33  4.9430843E-01
   7170.67  4.8893170E-01
   7171.00  4.8373051E-01
   7171.33  4.7888640E-01
   7171.67  4.7458441E-01
   7172.00  4.7109387E-01
