    FDMNES
    energy     <xanes>
   7097.00  4.1911188E-03
   7097.33  4.2705813E-03
   7097.67  4.3528364E-03
   7098.00  4.4380358E-03
   7098.33  4.5267646E-03
   7098.67  4.6188423E-03
   7099.00  4.7144675E-03
   7099.33  4.8143701E-03
   7099.67  4.9183569E-03
   7100.00  5.0266952E-03
   7100.33  5.1403177E-03
   7100.67  5.2590250E-03
   7101.00  5.3831884E-03
   7101.33  5.5140368E-03
   7101.67  5.6513802E-03
   7102.00  5.7957552E-03
   7102.33  5.9488429E-03
   7102.67  6.1105001E-03
   7103.00  6.2815407E-03
   7103.33  6.4643774E-03
   7103.67  6.6590008E-03
   7104.00  6.8667225E-03
   7104.33  7.0912235E-03
   7104.67  7.3328426E-03
   7105.00  7.5938597E-03
   7105.33  7.8803585E-03
   7105.67  8.1935892E-03
   7106.00  8.5379238E-03
   7106.33  8.9245450E-03
   7106.67  9.3572734E-03
   7107.00  9.8456717E-03
   7107.33  1.0413540E-02
   7107.67  1.1073040E-02
   7108.00  1.1849385E-02
   7108.33  1.2805350E-02
   7108.67  1.3987371E-02
   7109.00  1.5484287E-02
   7109.33  1.7529557E-02
   7109.67  2.0378423E-02
   7110.00  2.4529959E-02
   7110.33  3.1385593E-02
   7110.67  4.2153548E-02
   7111.00  5.6182971E-02
   7111.33  7.0376168E-02
   7111.67  8.9004613E-02
   7112.00  1.1712973E-01
   7112.33  1.4608039E-01
   7112.67  1.4419700E-01
   7113.00  1.1328810E-01
   7113.33  8.5416676E-02
   7113.67  6.8016979E-02
   7114.00  5.7907278E-02
   7114.33  5.1327122E-02
   7114.67  4.6110437E-02
   7115.00  4.2720346E-02
   7115.33  4.1180807E-02
   7115.67  4.0840426E-02
   7116.00  4.1459191E-02
   7116.33  4.3007529E-02
   7116.67  4.5331508E-02
   7117.00  4.8377559E-02
   7117.33  5.2020863E-02
   7117.67  5.5790762E-02
   7118.00  5.9305045E-02
   7118.33  6.2503311E-02
   7118.67  6.6010622E-02
   7119.00  7.0489433E-02
   7119.33  7.6727897E-02
   7119.67  8.4916402E-02
   7120.00  9.5278166E-02
   7120.33  1.0829625E-01
   7120.67  1.2383192E-01
   7121.00  1.4203660E-01
   7121.33  1.6356972E-01
   7121.67  1.8861230E-01
   7122.00  2.1794879E-01
   7122.33  2.5356055E-01
   7122.67  2.9610590E-01
   7123.00  3.4627150E-01
   7123.33  4.0475295E-01
   7123.67  4.6939326E-01
   7124.00  5.3859735E-01
   7124.33  6.1010049E-01
   7124.67  6.7907793E-01
   7125.00  7.3831890E-01
   7125.33  7.7269127E-01
   7125.67  7.7480270E-01
   7126.00  7.4547255E-01
   7126.33  6.9489706E-01
   7126.67  6.4046909E-01
   7127.00  5.9086166E-01
   7127.33  5.5227574E-01
   7127.67  5.2545437E-01
   7128.00  5.1085348E-01
   7128.33  5.0912602E-01
   7128.67  5.1687541E-01
   7129.00  5.3234432E-01
   7129.33  5.5537572E-01
   7129.67  5.8553556E-01
   7130.00  6.2389690E-01
   7130.33  6.7265602E-01
   7130.67  7.2997101E-01
   7131.00  7.9277550E-01
   7131.33  8.5399875E-01
   7131.67  9.0454979E-01
   7132.00  9.3681415E-01
   7132.33  9.4261946E-01
   7132.67  9.2548998E-01
   7133.00  8.9017571E-01
   7133.33  8.4364991E-01
   7133.67  7.9562108E-01
   7134.00  7.5181341E-01
   7134.33  7.1682187E-01
   7134.67  6.9018292E-01
   7135.00  6.7091202E-01
   7135.33  6.5811622E-01
   7135.67  6.4955198E-01
   7136.00  6.4413370E-01
   7136.33  6.4114851E-01
   7136.67  6.3961146E-01
   7137.00  6.3907559E-01
   7137.33  6.3923362E-01
   7137.67  6.3972856E-01
   7138.00  6.4038225E-01
   7138.33  6.4104676E-01
   7138.67  6.4162736E-01
   7139.00  6.4208323E-01
   7139.33  6.4238836E-01
   7139.67  6.4259404E-01
   7140.00  6.4278413E-01
   7140.33  6.4307474E-01
   7140.67  6.4349567E-01
   7141.00  6.4404681E-01
   7141.33  6.4469795E-01
   7141.67  6.4535668E-01
   7142.00  6.4594357E-01
   7142.33  6.4632099E-01
   7142.67  6.4635495E-01
   7143.00  6.4588022E-01
   7143.33  6.4459257E-01
   7143.67  6.4236375E-01
   7144.00  6.3901892E-01
   7144.33  6.3422853E-01
   7144.67  6.2804190E-01
   7145.00  6.2042212E-01
   7145.33  6.1122666E-01
   7145.67  6.0074363E-01
   7146.00  5.8912645E-01
   7146.33  5.7648622E-01
   7146.67  5.6318694E-01
   7147.00  5.4944761E-01
   7147.33  5.3548674E-01
   7147.67  5.2154581E-01
   7148.00  5.0778336E-01
   7148.33  4.9439097E-01
   7148.67  4.8144380E-01
   7149.00  4.6901437E-01
   7149.33  4.5722816E-01
   7149.67  4.4604059E-01
   7150.00  4.3545751E-01
   7150.33  4.2554368E-01
   7150.67  4.1620178E-01
   7151.00  4.0740428E-01
   7151.33  3.9917494E-01
   7151.67  3.9140547E-01
   7152.00  3.8405309E-01
   7152.33  3.7710789E-01
   7152.67  3.7046447E-01
   7153.00  3.6406770E-01
   7153.33  3.5787153E-01
   7153.67  3.5178264E-01
   7154.00  3.4573671E-01
   7154.33  3.3964660E-01
   7154.67  3.3344079E-01
   7155.00  3.2706396E-01
   7155.33  3.2043356E-01
   7155.67  3.1353722E-01
   7156.00  3.0635491E-01
   7156.33  2.9884857E-01
   7156.67  2.9107928E-01
   7157.00  2.8309322E-01
   7157.33  2.7495797E-01
   7157.67  2.6680729E-01
   7158.00  2.5876632E-01
   7158.33  2.5103866E-01
   7158.67  2.4377340E-01
   7159.00  2.3712877E-01
   7159.33  2.3137782E-01
   7159.67  2.2657859E-01
   7160.00  2.2284890E-01
   7160.33  2.2044798E-01
   7160.67  2.1930869E-01
   7161.00  2.1947401E-01
   7161.33  2.2112842E-01
   7161.67  2.2409285E-01
   7162.00  2.2833053E-01
   7162.33  2.3392292E-01
   7162.67  2.4062708E-01
   7163.00  2.4834781E-01
   7163.33  2.5705697E-01
   7163.67  2.6647246E-01
   7164.00  2.7640532E-01
   7164.33  2.8666407E-01
   7164.67  2.9705045E-01
   7165.00  3.0745038E-01
   7165.33  3.1773255E-01
   7165.67  3.2781313E-01
   7166.00  3.3762914E-01
   7166.33  3.4709310E-01
   7166.67  3.5622042E-01
   7167.00  3.6500720E-01
   7167.33  3.7342329E-01
   7167.67  3.8153243E-01
   7168.00  3.8935938E-01
   7168.33  3.9690456E-01
   7168.67  4.0422942E-01
   7169.00  4.1135566E-01
   7169.33  4.1827944E-01
   7169.67  4.2503223E-01
   7170.00  4.3161197E-01
   7170.33  4.3797912E-01
   7170.67  4.4412121E-01
   7171.00  4.4998291E-01
   7171.33  4.5540052E-01
   7171.67  4.6021095E-01
   7172.00  4.6413756E-01
