    FDMNES
    energy     <xanes>
   7097.00  5.3884988E-03
   7097.33  5.5319130E-03
   7097.67  5.6825879E-03
   7098.00  5.8410611E-03
   7098.33  6.0090914E-03
   7098.67  6.1863993E-03
   7099.00  6.3737340E-03
   7099.33  6.5734512E-03
   7099.67  6.7852863E-03
   7100.00  7.0103138E-03
   7100.33  7.2517805E-03
   7100.67  7.5094900E-03
   7101.00  7.7850364E-03
   7101.33  8.0830500E-03
   7101.67  8.4035181E-03
   7102.00  8.7489037E-03
   7102.33  9.1260862E-03
   7102.67  9.5354946E-03
   7103.00  9.9811243E-03
   7103.33  1.0473723E-02
   7103.67  1.1014756E-02
   7104.00  1.1611108E-02
   7104.33  1.2280656E-02
   7104.67  1.3027367E-02
   7105.00  1.3864034E-02
   7105.33  1.4822890E-02
   7105.67  1.5914332E-02
   7106.00  1.7164605E-02
   7106.33  1.8638351E-02
   7106.67  2.0364339E-02
   7107.00  2.2404110E-02
   7107.33  2.4907879E-02
   7107.67  2.7966028E-02
   7108.00  3.1753171E-02
   7108.33  3.6702412E-02
   7108.67  4.3168553E-02
   7109.00  5.1814155E-02
   7109.33  6.4391778E-02
   7109.67  8.2926626E-02
   7110.00  1.1138220E-01
   7110.33  1.6134159E-01
   7110.67  2.4699057E-01
   7111.00  3.7888581E-01
   7111.33  5.2046660E-01
   7111.67  5.8972798E-01
   7112.00  5.6220103E-01
   7112.33  4.7085914E-01
   7112.67  3.7884742E-01
   7113.00  3.0867249E-01
   7113.33  2.6374578E-01
   7113.67  2.3427778E-01
   7114.00  2.1557284E-01
   7114.33  2.0518012E-01
   7114.67  1.9923912E-01
   7115.00  1.9586782E-01
   7115.33  1.9449572E-01
   7115.67  1.9440797E-01
   7116.00  1.9524017E-01
   7116.33  1.9632214E-01
   7116.67  1.9753650E-01
   7117.00  2.0062217E-01
   7117.33  2.0659395E-01
   7117.67  2.1226119E-01
   7118.00  2.1632525E-01
   7118.33  2.2091722E-01
   7118.67  2.2765242E-01
   7119.00  2.3688127E-01
   7119.33  2.4970883E-01
   7119.67  2.6650023E-01
   7120.00  2.8599469E-01
   7120.33  3.0262757E-01
   7120.67  3.1125253E-01
   7121.00  3.1124731E-01
   7121.33  3.0574010E-01
   7121.67  2.9984971E-01
   7122.00  2.9621103E-01
   7122.33  2.9779258E-01
   7122.67  3.0619398E-01
   7123.00  3.2169758E-01
   7123.33  3.4188124E-01
   7123.67  3.6217460E-01
   7124.00  3.8045330E-01
   7124.33  3.9273859E-01
   7124.67  3.9572518E-01
   7125.00  3.8854205E-01
   7125.33  3.7307262E-01
   7125.67  3.5513845E-01
   7126.00  3.3892988E-01
   7126.33  3.2868456E-01
   7126.67  3.2533475E-01
   7127.00  3.2871450E-01
   7127.33  3.3805835E-01
   7127.67  3.5072029E-01
   7128.00  3.6520064E-01
   7128.33  3.8089604E-01
   7128.67  3.9799103E-01
   7129.00  4.1675572E-01
   7129.33  4.3709864E-01
   7129.67  4.5831553E-01
   7130.00  4.7992779E-01
   7130.33  5.0118663E-01
   7130.67  5.2147167E-01
   7131.00  5.4073663E-01
   7131.33  5.5963831E-01
   7131.67  5.7892581E-01
   7132.00  5.9826939E-01
   7132.33  6.1516513E-01
   7132.67  6.2624635E-01
   7133.00  6.2896222E-01
   7133.33  6.2187173E-01
   7133.67  6.0821488E-01
   7134.00  5.9034954E-01
   7134.33  5.7002324E-01
   7134.67  5.4863663E-01
   7135.00  5.2679693E-01
   7135.33  5.0507755E-01
   7135.67  4.8391494E-01
   7136.00  4.6370673E-01
   7136.33  4.4531693E-01
   7136.67  4.2942574E-01
   7137.00  4.1680148E-01
   7137.33  4.0860967E-01
   7137.67  4.0468214E-01
   7138.00  4.0501051E-01
   7138.33  4.0972069E-01
   7138.67  4.1757675E-01
   7139.00  4.2772097E-01
   7139.33  4.3936066E-01
   7139.67  4.5171979E-01
   7140.00  4.6462498E-01
   7140.33  4.7819543E-01
   7140.67  4.9243885E-01
   7141.00  5.0733174E-01
   7141.33  5.2272559E-01
   7141.67  5.3814343E-01
   7142.00  5.5306765E-01
   7142.33  5.6666256E-01
   7142.67  5.7845729E-01
   7143.00  5.8809919E-01
   7143.33  5.9517391E-01
   7143.67  6.0012050E-01
   7144.00  6.0323943E-01
   7144.33  6.0483486E-01
   7144.67  6.0560984E-01
   7145.00  6.0600919E-01
   7145.33  6.0650931E-01
   7145.67  6.0749875E-01
   7146.00  6.0925410E-01
   7146.33  6.1212505E-01
   7146.67  6.1609599E-01
   7147.00  6.2116416E-01
   7147.33  6.2735190E-01
   7147.67  6.3435973E-01
   7148.00  6.4200758E-01
   7148.33  6.5012740E-01
   7148.67  6.5843703E-01
   7149.00  6.6672102E-01
   7149.33  6.7465554E-01
   7149.67  6.8195809E-01
   7150.00  6.8834502E-01
   7150.33  6.9337743E-01
   7150.67  6.9701913E-01
   7151.00  6.9921919E-01
   7151.33  6.9987155E-01
   7151.67  6.9931588E-01
   7152.00  6.9774485E-01
   7152.33  6.9531270E-01
   7152.67  6.9237197E-01
   7153.00  6.8913863E-01
   7153.33  6.8583645E-01
   7153.67  6.8265228E-01
   7154.00  6.7968929E-01
   7154.33  6.7706147E-01
   7154.67  6.7476341E-01
   7155.00  6.7278287E-01
   7155.33  6.7108968E-01
   7155.67  6.6954212E-01
   7156.00  6.6801298E-01
   7156.33  6.6630366E-01
   7156.67  6.6423653E-01
   7157.00  6.6164308E-01
   7157.33  6.5826653E-01
   7157.67  6.5408186E-01
   7158.00  6.4905793E-01
   7158.33  6.4314252E-01
   7158.67  6.3656769E-01
   7159.00  6.2950555E-01
   7159.33  6.2216785E-01
   7159.67  6.1484350E-01
   7160.00  6.0774422E-01
   7160.33  6.0113125E-01
   7160.67  5.9509063E-01
   7161.00  5.8967252E-01
   7161.33  5.8491060E-01
   7161.67  5.8058022E-01
   7162.00  5.7646454E-01
   7162.33  5.7221400E-01
   7162.67  5.6745953E-01
   7163.00  5.6187095E-01
   7163.33  5.5496542E-01
   7163.67  5.4666122E-01
   7164.00  5.3688560E-01
   7164.33  5.2553151E-01
   7164.67  5.1299272E-01
   7165.00  4.9955360E-01
   7165.33  4.8552600E-01
   7165.67  4.7133222E-01
   7166.00  4.5724118E-01
   7166.33  4.4355807E-01
   7166.67  4.3043921E-01
   7167.00  4.1801629E-01
   7167.33  4.0650614E-01
   7167.67  3.9589160E-01
   7168.00  3.8622384E-01
   7168.33  3.7766034E-01
   7168.67  3.7008839E-01
   7169.00  3.6349950E-01
   7169.33  3.5798495E-01
   7169.67  3.5338008E-01
   7170.00  3.4963411E-01
   7170.33  3.4677446E-01
   7170.67  3.4462031E-01
   7171.00  3.4309065E-01
   7171.33  3.4213556E-01
   7171.67  3.4154112E-01
   7172.00  3.4114043E-01
