    FDMNES
    energy     <xanes>
   7097.00  4.7093823E-03
   7097.33  4.8153045E-03
   7097.67  4.9258667E-03
   7098.00  5.0413791E-03
   7098.33  5.1629095E-03
   7098.67  5.2902344E-03
   7099.00  5.4237765E-03
   7099.33  5.5649310E-03
   7099.67  5.7134699E-03
   7100.00  5.8699859E-03
   7100.33  6.0363507E-03
   7100.67  6.2123544E-03
   7101.00  6.3988550E-03
   7101.33  6.5984452E-03
   7101.67  6.8109829E-03
   7102.00  7.0377578E-03
   7102.33  7.2825019E-03
   7102.67  7.5452515E-03
   7103.00  7.8280360E-03
   7103.33  8.1364847E-03
   7103.67  8.4710643E-03
   7104.00  8.8351518E-03
   7104.33  9.2377476E-03
   7104.67  9.6803525E-03
   7105.00  1.0168994E-02
   7105.33  1.0719167E-02
   7105.67  1.1334973E-02
   7106.00  1.2028185E-02
   7106.33  1.2828199E-02
   7106.67  1.3746244E-02
   7107.00  1.4808271E-02
   7107.33  1.6077951E-02
   7107.67  1.7588968E-02
   7108.00  1.9409141E-02
   7108.33  2.1705511E-02
   7108.67  2.4599648E-02
   7109.00  2.8320764E-02
   7109.33  3.3459777E-02
   7109.67  4.0625149E-02
   7110.00  5.0986589E-02
   7110.33  6.7870832E-02
   7110.67  9.5485175E-02
   7111.00  1.3944886E-01
   7111.33  2.0512519E-01
   7111.67  2.8122282E-01
   7112.00  3.3774388E-01
   7112.33  3.4710105E-01
   7112.67  3.0481787E-01
   7113.00  2.3445850E-01
   7113.33  1.8587632E-01
   7113.67  1.6430504E-01
   7114.00  1.6357223E-01
   7114.33  1.7578435E-01
   7114.67  1.8092488E-01
   7115.00  1.7032508E-01
   7115.33  1.5967005E-01
   7115.67  1.6194330E-01
   7116.00  1.7856785E-01
   7116.33  2.0369906E-01
   7116.67  2.1965570E-01
   7117.00  2.1475408E-01
   7117.33  1.9121886E-01
   7117.67  1.6513890E-01
   7118.00  1.4478026E-01
   7118.33  1.3355747E-01
   7118.67  1.2948479E-01
   7119.00  1.3141492E-01
   7119.33  1.3818504E-01
   7119.67  1.4593910E-01
   7120.00  1.5097960E-01
   7120.33  1.5109107E-01
   7120.67  1.4851286E-01
   7121.00  1.4461231E-01
   7121.33  1.4017318E-01
   7121.67  1.3690137E-01
   7122.00  1.3628050E-01
   7122.33  1.3930448E-01
   7122.67  1.4544536E-01
   7123.00  1.5461724E-01
   7123.33  1.6721956E-01
   7123.67  1.8278592E-01
   7124.00  2.0087740E-01
   7124.33  2.2071604E-01
   7124.67  2.4164068E-01
   7125.00  2.6428477E-01
   7125.33  2.8917827E-01
   7125.67  3.1462580E-01
   7126.00  3.3882090E-01
   7126.33  3.5971792E-01
   7126.67  3.7703531E-01
   7127.00  3.9135055E-01
   7127.33  4.0430802E-01
   7127.67  4.1806458E-01
   7128.00  4.3380111E-01
   7128.33  4.5280140E-01
   7128.67  4.7543820E-01
   7129.00  5.0133169E-01
   7129.33  5.2816769E-01
   7129.67  5.5308566E-01
   7130.00  5.7535090E-01
   7130.33  5.9610792E-01
   7130.67  6.1751585E-01
   7131.00  6.4054549E-01
   7131.33  6.6529619E-01
   7131.67  6.9089284E-01
   7132.00  7.1672383E-01
   7132.33  7.4197850E-01
   7132.67  7.6598848E-01
   7133.00  7.8848234E-01
   7133.33  8.0967451E-01
   7133.67  8.3025859E-01
   7134.00  8.5010630E-01
   7134.33  8.6754980E-01
   7134.67  8.8054552E-01
   7135.00  8.8741816E-01
   7135.33  8.8676721E-01
   7135.67  8.8000897E-01
   7136.00  8.6779846E-01
   7136.33  8.5015325E-01
   7136.67  8.2841431E-01
   7137.00  8.0354016E-01
   7137.33  7.7683399E-01
   7137.67  7.5017262E-01
   7138.00  7.2486438E-01
   7138.33  7.0236588E-01
   7138.67  6.8298957E-01
   7139.00  6.6683004E-01
   7139.33  6.5396640E-01
   7139.67  6.4354899E-01
   7140.00  6.3513093E-01
   7140.33  6.2843212E-01
   7140.67  6.2289958E-01
   7141.00  6.1832068E-01
   7141.33  6.1463197E-01
   7141.67  6.1161785E-01
   7142.00  6.0918327E-01
   7142.33  6.0726428E-01
   7142.67  6.0567724E-01
   7143.00  6.0432354E-01
   7143.33  6.0313427E-01
   7143.67  6.0204324E-01
   7144.00  6.0104121E-01
   7144.33  6.0016295E-01
   7144.67  5.9944254E-01
   7145.00  5.9893584E-01
   7145.33  5.9875077E-01
   7145.67  5.9892095E-01
   7146.00  5.9949550E-01
   7146.33  6.0056365E-01
   7146.67  6.0206880E-01
   7147.00  6.0397255E-01
   7147.33  6.0621983E-01
   7147.67  6.0862914E-01
   7148.00  6.1104550E-01
   7148.33  6.1324408E-01
   7148.67  6.1504944E-01
   7149.00  6.1630948E-01
   7149.33  6.1680250E-01
   7149.67  6.1653256E-01
   7150.00  6.1547740E-01
   7150.33  6.1356799E-01
   7150.67  6.1096656E-01
   7151.00  6.0775318E-01
   7151.33  6.0397474E-01
   7151.67  5.9981084E-01
   7152.00  5.9536005E-01
   7152.33  5.9070415E-01
   7152.67  5.8595390E-01
   7153.00  5.8117303E-01
   7153.33  5.7642768E-01
   7153.67  5.7175524E-01
   7154.00  5.6717475E-01
   7154.33  5.6270928E-01
   7154.67  5.5834570E-01
   7155.00  5.5407329E-01
   7155.33  5.4987903E-01
   7155.67  5.4572801E-01
   7156.00  5.4159715E-01
   7156.33  5.3746174E-01
   7156.67  5.3330600E-01
   7157.00  5.2912576E-01
   7157.33  5.2492749E-01
   7157.67  5.2073645E-01
   7158.00  5.1658350E-01
   7158.33  5.1252526E-01
   7158.67  5.0860426E-01
   7159.00  5.0486723E-01
   7159.33  5.0139315E-01
   7159.67  4.9819225E-01
   7160.00  4.9528667E-01
   7160.33  4.9272305E-01
   7160.67  4.9045143E-01
   7161.00  4.8844505E-01
   7161.33  4.8668224E-01
   7161.67  4.8507273E-01
   7162.00  4.8355665E-01
   7162.33  4.8206575E-01
   7162.67  4.8052891E-01
   7163.00  4.7889256E-01
   7163.33  4.7708368E-01
   7163.67  4.7507978E-01
   7164.00  4.7285621E-01
   7164.33  4.7036870E-01
   7164.67  4.6764632E-01
   7165.00  4.6470155E-01
   7165.33  4.6153461E-01
   7165.67  4.5820144E-01
   7166.00  4.5473141E-01
   7166.33  4.5114601E-01
   7166.67  4.4749032E-01
   7167.00  4.4378947E-01
   7167.33  4.4006775E-01
   7167.67  4.3635249E-01
   7168.00  4.3266441E-01
   7168.33  4.2903253E-01
   7168.67  4.2547245E-01
   7169.00  4.2200264E-01
   7169.33  4.1865801E-01
   7169.67  4.1544522E-01
   7170.00  4.1238144E-01
   7170.33  4.0950794E-01
   7170.67  4.0682575E-01
   7171.00  4.0435829E-01
   7171.33  4.0217515E-01
   7171.67  4.0030251E-01
   7172.00  3.9880599E-01
