    FDMNES
    energy     <xanes>
   7097.00  4.7875539E-03
   7097.33  4.8936170E-03
   7097.67  5.0042419E-03
   7098.00  5.1197308E-03
   7098.33  5.2411294E-03
   7098.67  5.3682151E-03
   7099.00  5.5014009E-03
   7099.33  5.6420533E-03
   7099.67  5.7899475E-03
   7100.00  5.9456648E-03
   7100.33  6.1110426E-03
   7100.67  6.2858785E-03
   7101.00  6.4710199E-03
   7101.33  6.6690233E-03
   7101.67  6.8797643E-03
   7102.00  7.1045300E-03
   7102.33  7.3470299E-03
   7102.67  7.6073416E-03
   7103.00  7.8875204E-03
   7103.33  8.1932339E-03
   7103.67  8.5250501E-03
   7104.00  8.8864601E-03
   7104.33  9.2867004E-03
   7104.67  9.7275410E-03
   7105.00  1.0215391E-02
   7105.33  1.0766603E-02
   7105.67  1.1386061E-02
   7106.00  1.2086780E-02
   7106.33  1.2901065E-02
   7106.67  1.3842732E-02
   7107.00  1.4942073E-02
   7107.33  1.6273347E-02
   7107.67  1.7880474E-02
   7108.00  1.9849186E-02
   7108.33  2.2392771E-02
   7108.67  2.5685875E-02
   7109.00  3.0056494E-02
   7109.33  3.6377270E-02
   7109.67  4.5671233E-02
   7110.00  5.9950815E-02
   7110.33  8.5045458E-02
   7110.67  1.2706342E-01
   7111.00  1.8567823E-01
   7111.33  2.3514209E-01
   7111.67  2.6538952E-01
   7112.00  2.7209265E-01
   7112.33  2.6782213E-01
   7112.67  2.6391585E-01
   7113.00  2.3122911E-01
   7113.33  1.7902171E-01
   7113.67  1.3776722E-01
   7114.00  1.0961998E-01
   7114.33  9.2242148E-02
   7114.67  8.1506920E-02
   7115.00  7.5384362E-02
   7115.33  7.2596151E-02
   7115.67  7.1656984E-02
   7116.00  7.1957379E-02
   7116.33  7.3525174E-02
   7116.67  7.6631661E-02
   7117.00  8.1648775E-02
   7117.33  8.9061705E-02
   7117.67  9.8636578E-02
   7118.00  1.1034340E-01
   7118.33  1.2443645E-01
   7118.67  1.4046146E-01
   7119.00  1.5778927E-01
   7119.33  1.7508678E-01
   7119.67  1.9094757E-01
   7120.00  2.0467774E-01
   7120.33  2.1607223E-01
   7120.67  2.2611078E-01
   7121.00  2.3568400E-01
   7121.33  2.4610206E-01
   7121.67  2.5855806E-01
   7122.00  2.7407380E-01
   7122.33  2.9404930E-01
   7122.67  3.1847404E-01
   7123.00  3.4743723E-01
   7123.33  3.8120042E-01
   7123.67  4.1841021E-01
   7124.00  4.5749486E-01
   7124.33  4.9494993E-01
   7124.67  5.2825804E-01
   7125.00  5.5818328E-01
   7125.33  5.8570773E-01
   7125.67  6.0857357E-01
   7126.00  6.2393267E-01
   7126.33  6.3059199E-01
   7126.67  6.3146181E-01
   7127.00  6.2855256E-01
   7127.33  6.2421219E-01
   7127.67  6.2060667E-01
   7128.00  6.1820658E-01
   7128.33  6.1647462E-01
   7128.67  6.1461915E-01
   7129.00  6.1236077E-01
   7129.33  6.0966739E-01
   7129.67  6.0681194E-01
   7130.00  6.0421305E-01
   7130.33  6.0295873E-01
   7130.67  6.0395365E-01
   7131.00  6.0747890E-01
   7131.33  6.1305629E-01
   7131.67  6.1929440E-01
   7132.00  6.2538298E-01
   7132.33  6.3075810E-01
   7132.67  6.3559599E-01
   7133.00  6.4036404E-01
   7133.33  6.4557174E-01
   7133.67  6.5113202E-01
   7134.00  6.5670512E-01
   7134.33  6.6184154E-01
   7134.67  6.6644410E-01
   7135.00  6.7063813E-01
   7135.33  6.7467987E-01
   7135.67  6.7874544E-01
   7136.00  6.8278535E-01
   7136.33  6.8653680E-01
   7136.67  6.8971736E-01
   7137.00  6.9206350E-01
   7137.33  6.9320290E-01
   7137.67  6.9314153E-01
   7138.00  6.9186610E-01
   7138.33  6.8932155E-01
   7138.67  6.8581904E-01
   7139.00  6.8154807E-01
   7139.33  6.7667629E-01
   7139.67  6.7147144E-01
   7140.00  6.6607227E-01
   7140.33  6.6061646E-01
   7140.67  6.5523484E-01
   7141.00  6.5001191E-01
   7141.33  6.4504107E-01
   7141.67  6.4031999E-01
   7142.00  6.3583774E-01
   7142.33  6.3156843E-01
   7142.67  6.2740680E-01
   7143.00  6.2326708E-01
   7143.33  6.1903627E-01
   7143.67  6.1463637E-01
   7144.00  6.1001580E-01
   7144.33  6.0512374E-01
   7144.67  6.0001870E-01
   7145.00  5.9474962E-01
   7145.33  5.8937019E-01
   7145.67  5.8396077E-01
   7146.00  5.7857276E-01
   7146.33  5.7325591E-01
   7146.67  5.6802009E-01
   7147.00  5.6286123E-01
   7147.33  5.5776166E-01
   7147.67  5.5267554E-01
   7148.00  5.4756215E-01
   7148.33  5.4236041E-01
   7148.67  5.3702995E-01
   7149.00  5.3153153E-01
   7149.33  5.2580018E-01
   7149.67  5.1983372E-01
   7150.00  5.1361819E-01
   7150.33  5.0711361E-01
   7150.67  5.0035466E-01
   7151.00  4.9335180E-01
   7151.33  4.8609627E-01
   7151.67  4.7864288E-01
   7152.00  4.7102059E-01
   7152.33  4.6325440E-01
   7152.67  4.5541156E-01
   7153.00  4.4754361E-01
   7153.33  4.3971607E-01
   7153.67  4.3198135E-01
   7154.00  4.2438706E-01
   7154.33  4.1701122E-01
   7154.67  4.0988101E-01
   7155.00  4.0303812E-01
   7155.33  3.9656822E-01
   7155.67  3.9046871E-01
   7156.00  3.8476857E-01
   7156.33  3.7955000E-01
   7156.67  3.7478368E-01
   7157.00  3.7048671E-01
   7157.33  3.6673395E-01
   7157.67  3.6347385E-01
   7158.00  3.6071091E-01
   7158.33  3.5850996E-01
   7158.67  3.5680863E-01
   7159.00  3.5560560E-01
   7159.33  3.5495921E-01
   7159.67  3.5480170E-01
   7160.00  3.5512536E-01
   7160.33  3.5597689E-01
   7160.67  3.5728206E-01
   7161.00  3.5902350E-01
   7161.33  3.6122741E-01
   7161.67  3.6381071E-01
   7162.00  3.6673897E-01
   7162.33  3.7000151E-01
   7162.67  3.7350710E-01
   7163.00  3.7720566E-01
   7163.33  3.8105193E-01
   7163.67  3.8496707E-01
   7164.00  3.8890058E-01
   7164.33  3.9279896E-01
   7164.67  3.9662560E-01
   7165.00  4.0035148E-01
   7165.33  4.0393437E-01
   7165.67  4.0737233E-01
   7166.00  4.1065678E-01
   7166.33  4.1376587E-01
   7166.67  4.1672365E-01
   7167.00  4.1953858E-01
   7167.33  4.2220876E-01
   7167.67  4.2476788E-01
   7168.00  4.2723253E-01
   7168.33  4.2961261E-01
   7168.67  4.3193455E-01
   7169.00  4.3421001E-01
   7169.33  4.3644404E-01
   7169.67  4.3864588E-01
   7170.00  4.4081459E-01
   7170.33  4.4293709E-01
   7170.67  4.4500134E-01
   7171.00  4.4698264E-01
   7171.33  4.4881824E-01
   7171.67  4.5044614E-01
   7172.00  4.5177098E-01
