    FDMNES
    energy     <xanes>
   7097.00  5.2664694E-03
   7097.33  5.3946895E-03
   7097.67  5.5289125E-03
   7098.00  5.6695545E-03
   7098.33  5.8180215E-03
   7098.67  5.9740425E-03
   7099.00  6.1381872E-03
   7099.33  6.3123039E-03
   7099.67  6.4961185E-03
   7100.00  6.6904316E-03
   7100.33  6.8977375E-03
   7100.67  7.1177888E-03
   7101.00  7.3517463E-03
   7101.33  7.6030819E-03
   7101.67  7.8716415E-03
   7102.00  8.1591717E-03
   7102.33  8.4706875E-03
   7102.67  8.8062762E-03
   7103.00  9.1686847E-03
   7103.33  9.5654935E-03
   7103.67  9.9973674E-03
   7104.00  1.0468870E-02
   7104.33  1.0992129E-02
   7104.67  1.1569191E-02
   7105.00  1.2208183E-02
   7105.33  1.2929970E-02
   7105.67  1.3740078E-02
   7106.00  1.4654352E-02
   7106.33  1.5712349E-02
   7106.67  1.6929194E-02
   7107.00  1.8339867E-02
   7107.33  2.0030310E-02
   7107.67  2.2046449E-02
   7108.00  2.4480859E-02
   7108.33  2.7562727E-02
   7108.67  3.1464000E-02
   7109.00  3.6510958E-02
   7109.33  4.3559352E-02
   7109.67  5.3546906E-02
   7110.00  6.8307350E-02
   7110.33  9.3067625E-02
   7110.67  1.3316467E-01
   7111.00  1.8946652E-01
   7111.33  2.4852966E-01
   7111.67  3.0156411E-01
   7112.00  3.4386250E-01
   7112.33  3.7476796E-01
   7112.67  4.0580144E-01
   7113.00  4.3230030E-01
   7113.33  4.3567000E-01
   7113.67  4.1548197E-01
   7114.00  3.7932227E-01
   7114.33  3.3868923E-01
   7114.67  3.0318135E-01
   7115.00  2.7614853E-01
   7115.33  2.5895230E-01
   7115.67  2.4846853E-01
   7116.00  2.4143199E-01
   7116.33  2.3326589E-01
   7116.67  2.2187517E-01
   7117.00  2.0840351E-01
   7117.33  1.9562706E-01
   7117.67  1.8504433E-01
   7118.00  1.7673076E-01
   7118.33  1.7028410E-01
   7118.67  1.6492412E-01
   7119.00  1.6041724E-01
   7119.33  1.5671207E-01
   7119.67  1.5355952E-01
   7120.00  1.5086709E-01
   7120.33  1.4883256E-01
   7120.67  1.4783852E-01
   7121.00  1.4844199E-01
   7121.33  1.5143087E-01
   7121.67  1.5663463E-01
   7122.00  1.6380947E-01
   7122.33  1.7275035E-01
   7122.67  1.8290043E-01
   7123.00  1.9400157E-01
   7123.33  2.0590479E-01
   7123.67  2.1837681E-01
   7124.00  2.3139560E-01
   7124.33  2.4517092E-01
   7124.67  2.5992854E-01
   7125.00  2.7608893E-01
   7125.33  2.9455988E-01
   7125.67  3.1579768E-01
   7126.00  3.4025557E-01
   7126.33  3.6840078E-01
   7126.67  3.9908724E-01
   7127.00  4.3091143E-01
   7127.33  4.6163130E-01
   7127.67  4.8964751E-01
   7128.00  5.1437688E-01
   7128.33  5.3595260E-01
   7128.67  5.5594820E-01
   7129.00  5.7541717E-01
   7129.33  5.9521844E-01
   7129.67  6.1558526E-01
   7130.00  6.3632692E-01
   7130.33  6.5682992E-01
   7130.67  6.7636148E-01
   7131.00  6.9433510E-01
   7131.33  7.1009401E-01
   7131.67  7.2384553E-01
   7132.00  7.3581763E-01
   7132.33  7.4629005E-01
   7132.67  7.5591795E-01
   7133.00  7.6504635E-01
   7133.33  7.7385863E-01
   7133.67  7.8233969E-01
   7134.00  7.9019688E-01
   7134.33  7.9663450E-01
   7134.67  8.0090088E-01
   7135.00  8.0208833E-01
   7135.33  7.9865203E-01
   7135.67  7.9032203E-01
   7136.00  7.7678281E-01
   7136.33  7.5757552E-01
   7136.67  7.3409729E-01
   7137.00  7.0741011E-01
   7137.33  6.7883818E-01
   7137.67  6.5022198E-01
   7138.00  6.2286728E-01
   7138.33  5.9833293E-01
   7138.67  5.7714701E-01
   7139.00  5.5967934E-01
   7139.33  5.4645456E-01
   7139.67  5.3673966E-01
   7140.00  5.3015264E-01
   7140.33  5.2650057E-01
   7140.67  5.2494929E-01
   7141.00  5.2511631E-01
   7141.33  5.2680427E-01
   7141.67  5.2955332E-01
   7142.00  5.3315101E-01
   7142.33  5.3742595E-01
   7142.67  5.4202307E-01
   7143.00  5.4666507E-01
   7143.33  5.5094486E-01
   7143.67  5.5450775E-01
   7144.00  5.5702413E-01
   7144.33  5.5800142E-01
   7144.67  5.5740955E-01
   7145.00  5.5520230E-01
   7145.33  5.5129111E-01
   7145.67  5.4610683E-01
   7146.00  5.3993149E-01
   7146.33  5.3304965E-01
   7146.67  5.2589249E-01
   7147.00  5.1872791E-01
   7147.33  5.1184334E-01
   7147.67  5.0540189E-01
   7148.00  4.9952613E-01
   7148.33  4.9440612E-01
   7148.67  4.9003042E-01
   7149.00  4.8643134E-01
   7149.33  4.8372238E-01
   7149.67  4.8180281E-01
   7150.00  4.8066087E-01
   7150.33  4.8037071E-01
   7150.67  4.8081489E-01
   7151.00  4.8197167E-01
   7151.33  4.8389591E-01
   7151.67  4.8646390E-01
   7152.00  4.8963478E-01
   7152.33  4.9341951E-01
   7152.67  4.9768258E-01
   7153.00  5.0235902E-01
   7153.33  5.0740879E-01
   7153.67  5.1270502E-01
   7154.00  5.1817334E-01
   7154.33  5.2374074E-01
   7154.67  5.2931873E-01
   7155.00  5.3484772E-01
   7155.33  5.4025424E-01
   7155.67  5.4550237E-01
   7156.00  5.5055712E-01
   7156.33  5.5535689E-01
   7156.67  5.5990306E-01
   7157.00  5.6417568E-01
   7157.33  5.6811678E-01
   7157.67  5.7174234E-01
   7158.00  5.7503342E-01
   7158.33  5.7792136E-01
   7158.67  5.8042368E-01
   7159.00  5.8251270E-01
   7159.33  5.8409689E-01
   7159.67  5.8519635E-01
   7160.00  5.8578085E-01
   7160.33  5.8574866E-01
   7160.67  5.8513938E-01
   7161.00  5.8393368E-01
   7161.33  5.8204018E-01
   7161.67  5.7952291E-01
   7162.00  5.7637341E-01
   7162.33  5.7252591E-01
   7162.67  5.6809014E-01
   7163.00  5.6310343E-01
   7163.33  5.5755756E-01
   7163.67  5.5157973E-01
   7164.00  5.4523360E-01
   7164.33  5.3856470E-01
   7164.67  5.3169523E-01
   7165.00  5.2470121E-01
   7165.33  5.1766753E-01
   7165.67  5.1068666E-01
   7166.00  5.0383061E-01
   7166.33  4.9720193E-01
   7166.67  4.9084447E-01
   7167.00  4.8480893E-01
   7167.33  4.7918795E-01
   7167.67  4.7397214E-01
   7168.00  4.6918594E-01
   7168.33  4.6489693E-01
   7168.67  4.6104721E-01
   7169.00  4.5762633E-01
   7169.33  4.5466569E-01
   7169.67  4.5208772E-01
   7170.00  4.4986560E-01
   7170.33  4.4800435E-01
   7170.67  4.4642695E-01
   7171.00  4.4510257E-01
   7171.33  4.4402637E-01
   7171.67  4.4314578E-01
   7172.00  4.4244628E-01
