    FDMNES
    energy     <xanes>
   7097.00  5.2363347E-03
   7097.33  5.3611813E-03
   7097.67  5.4917249E-03
   7098.00  5.6283500E-03
   7098.33  5.7723730E-03
   7098.67  5.9235220E-03
   7099.00  6.0823193E-03
   7099.33  6.2504821E-03
   7099.67  6.4277295E-03
   7100.00  6.6147887E-03
   7100.33  6.8139563E-03
   7100.67  7.0249659E-03
   7101.00  7.2488608E-03
   7101.33  7.4888039E-03
   7101.67  7.7445962E-03
   7102.00  8.0177881E-03
   7102.33  8.3128912E-03
   7102.67  8.6298915E-03
   7103.00  8.9711926E-03
   7103.33  9.3435123E-03
   7103.67  9.7472864E-03
   7104.00  1.0186440E-02
   7104.33  1.0671527E-02
   7104.67  1.1204060E-02
   7105.00  1.1790884E-02
   7105.33  1.2449755E-02
   7105.67  1.3184865E-02
   7106.00  1.4009221E-02
   7106.33  1.4955551E-02
   7106.67  1.6035289E-02
   7107.00  1.7276227E-02
   7107.33  1.8746913E-02
   7107.67  2.0481309E-02
   7108.00  2.2549837E-02
   7108.33  2.5126468E-02
   7108.67  2.8333194E-02
   7109.00  3.2403667E-02
   7109.33  3.7943345E-02
   7109.67  4.5575880E-02
   7110.00  5.6514573E-02
   7110.33  7.4210933E-02
   7110.67  1.0260325E-01
   7111.00  1.4476050E-01
   7111.33  1.9511454E-01
   7111.67  2.4257646E-01
   7112.00  2.8867519E-01
   7112.33  3.2916105E-01
   7112.67  3.5523104E-01
   7113.00  3.7769441E-01
   7113.33  4.0672265E-01
   7113.67  4.2701817E-01
   7114.00  4.2653824E-01
   7114.33  4.0617143E-01
   7114.67  3.7549806E-01
   7115.00  3.4019260E-01
   7115.33  3.0834262E-01
   7115.67  2.8486476E-01
   7116.00  2.7126014E-01
   7116.33  2.6758341E-01
   7116.67  2.6843902E-01
   7117.00  2.6754605E-01
   7117.33  2.5704450E-01
   7117.67  2.3758240E-01
   7118.00  2.1436525E-01
   7118.33  1.9375527E-01
   7118.67  1.7772425E-01
   7119.00  1.6601014E-01
   7119.33  1.5780594E-01
   7119.67  1.5146922E-01
   7120.00  1.4621838E-01
   7120.33  1.4165239E-01
   7120.67  1.3782190E-01
   7121.00  1.3535295E-01
   7121.33  1.3536589E-01
   7121.67  1.3799234E-01
   7122.00  1.4308335E-01
   7122.33  1.5024146E-01
   7122.67  1.5848653E-01
   7123.00  1.6726165E-01
   7123.33  1.7624177E-01
   7123.67  1.8576249E-01
   7124.00  1.9661305E-01
   7124.33  2.0984284E-01
   7124.67  2.2533742E-01
   7125.00  2.4285047E-01
   7125.33  2.6245996E-01
   7125.67  2.8424025E-01
   7126.00  3.0864457E-01
   7126.33  3.3624580E-01
   7126.67  3.6608674E-01
   7127.00  3.9683849E-01
   7127.33  4.2649722E-01
   7127.67  4.5400983E-01
   7128.00  4.7927904E-01
   7128.33  5.0279643E-01
   7128.67  5.2574695E-01
   7129.00  5.4897547E-01
   7129.33  5.7355067E-01
   7129.67  6.0003293E-01
   7130.00  6.2872625E-01
   7130.33  6.5973201E-01
   7130.67  6.9215769E-01
   7131.00  7.2526637E-01
   7131.33  7.5811495E-01
   7131.67  7.8970444E-01
   7132.00  8.1895404E-01
   7132.33  8.4390353E-01
   7132.67  8.6349569E-01
   7133.00  8.7663786E-01
   7133.33  8.8188812E-01
   7133.67  8.8049224E-01
   7134.00  8.7336721E-01
   7134.33  8.6137943E-01
   7134.67  8.4642031E-01
   7135.00  8.2927749E-01
   7135.33  8.0996267E-01
   7135.67  7.8842353E-01
   7136.00  7.6434676E-01
   7136.33  7.3738620E-01
   7136.67  7.0836626E-01
   7137.00  6.7811320E-01
   7137.33  6.4789720E-01
   7137.67  6.1907868E-01
   7138.00  5.9270830E-01
   7138.33  5.7008508E-01
   7138.67  5.5120727E-01
   7139.00  5.3607166E-01
   7139.33  5.2479176E-01
   7139.67  5.1643878E-01
   7140.00  5.1056308E-01
   7140.33  5.0699170E-01
   7140.67  5.0518680E-01
   7141.00  5.0501454E-01
   7141.33  5.0659301E-01
   7141.67  5.0967724E-01
   7142.00  5.1419811E-01
   7142.33  5.2015421E-01
   7142.67  5.2709444E-01
   7143.00  5.3464249E-01
   7143.33  5.4223055E-01
   7143.67  5.4921062E-01
   7144.00  5.5507439E-01
   7144.33  5.5922782E-01
   7144.67  5.6174378E-01
   7145.00  5.6274106E-01
   7145.33  5.6236343E-01
   7145.67  5.6110399E-01
   7146.00  5.5921388E-01
   7146.33  5.5683985E-01
   7146.67  5.5412748E-01
   7147.00  5.5109783E-01
   7147.33  5.4772065E-01
   7147.67  5.4405317E-01
   7148.00  5.4013141E-01
   7148.33  5.3600592E-01
   7148.67  5.3180513E-01
   7149.00  5.2764060E-01
   7149.33  5.2367909E-01
   7149.67  5.2004550E-01
   7150.00  5.1686240E-01
   7150.33  5.1433300E-01
   7150.67  5.1248605E-01
   7151.00  5.1138155E-01
   7151.33  5.1115841E-01
   7151.67  5.1172836E-01
   7152.00  5.1307479E-01
   7152.33  5.1524287E-01
   7152.67  5.1807005E-01
   7153.00  5.2147877E-01
   7153.33  5.2542470E-01
   7153.67  5.2973476E-01
   7154.00  5.3430718E-01
   7154.33  5.3903781E-01
   7154.67  5.4378868E-01
   7155.00  5.4846280E-01
   7155.33  5.5293546E-01
   7155.67  5.5713882E-01
   7156.00  5.6100496E-01
   7156.33  5.6441522E-01
   7156.67  5.6736426E-01
   7157.00  5.6981362E-01
   7157.33  5.7166381E-01
   7157.67  5.7296162E-01
   7158.00  5.7370052E-01
   7158.33  5.7381562E-01
   7158.67  5.7339290E-01
   7159.00  5.7245563E-01
   7159.33  5.7098032E-01
   7159.67  5.6907098E-01
   7160.00  5.6677005E-01
   7160.33  5.6408729E-01
   7160.67  5.6111880E-01
   7161.00  5.5791082E-01
   7161.33  5.5449263E-01
   7161.67  5.5093796E-01
   7162.00  5.4728733E-01
   7162.33  5.4357678E-01
   7162.67  5.3984885E-01
   7163.00  5.3612403E-01
   7163.33  5.3242206E-01
   7163.67  5.2875765E-01
   7164.00  5.2514002E-01
   7164.33  5.2157808E-01
   7164.67  5.1806165E-01
   7165.00  5.1458328E-01
   7165.33  5.1113570E-01
   7165.67  5.0770536E-01
   7166.00  5.0428494E-01
   7166.33  5.0086890E-01
   7166.67  4.9745528E-01
   7167.00  4.9404629E-01
   7167.33  4.9064814E-01
   7167.67  4.8726760E-01
   7168.00  4.8391533E-01
   7168.33  4.8061514E-01
   7168.67  4.7737885E-01
   7169.00  4.7421745E-01
   7169.33  4.7115401E-01
   7169.67  4.6819128E-01
   7170.00  4.6534212E-01
   7170.33  4.6263905E-01
   7170.67  4.6008527E-01
   7171.00  4.5770317E-01
   7171.33  4.5555907E-01
   7171.67  4.5369410E-01
   7172.00  4.5219121E-01
