    FDMNES
    energy     <xanes>
   7097.00  3.9784478E-03
   7097.33  4.0538637E-03
   7097.67  4.1319125E-03
   7098.00  4.2127379E-03
   7098.33  4.2968933E-03
   7098.67  4.3842103E-03
   7099.00  4.4748786E-03
   7099.33  4.5695912E-03
   7099.67  4.6681698E-03
   7100.00  4.7708719E-03
   7100.33  4.8785892E-03
   7100.67  4.9911411E-03
   7101.00  5.1088899E-03
   7101.33  5.2330218E-03
   7101.67  5.3633731E-03
   7102.00  5.5004764E-03
   7102.33  5.6459775E-03
   7102.67  5.7997740E-03
   7103.00  5.9626925E-03
   7103.33  6.1371428E-03
   7103.67  6.3231907E-03
   7104.00  6.5222078E-03
   7104.33  6.7379773E-03
   7104.67  6.9710008E-03
   7105.00  7.2237571E-03
   7105.33  7.5027518E-03
   7105.67  7.8096565E-03
   7106.00  8.1494732E-03
   7106.33  8.5348320E-03
   7106.67  8.9708561E-03
   7107.00  9.4692503E-03
   7107.33  1.0058989E-02
   7107.67  1.0757163E-02
   7108.00  1.1597542E-02
   7108.33  1.2664777E-02
   7108.67  1.4029755E-02
   7109.00  1.5826374E-02
   7109.33  1.8414611E-02
   7109.67  2.2229733E-02
   7110.00  2.8133300E-02
   7110.33  3.8619696E-02
   7110.67  5.6074240E-02
   7111.00  7.9237914E-02
   7111.33  9.5319708E-02
   7111.67  9.9693040E-02
   7112.00  9.7264490E-02
   7112.33  8.8397537E-02
   7112.67  7.5561099E-02
   7113.00  6.3968367E-02
   7113.33  5.6147893E-02
   7113.67  5.0625498E-02
   7114.00  4.6127528E-02
   7114.33  4.2724224E-02
   7114.67  4.0927964E-02
   7115.00  4.0506124E-02
   7115.33  4.0969702E-02
   7115.67  4.1657099E-02
   7116.00  4.2310209E-02
   7116.33  4.3032582E-02
   7116.67  4.4086875E-02
   7117.00  4.5615936E-02
   7117.33  4.7734130E-02
   7117.67  5.0407979E-02
   7118.00  5.3692636E-02
   7118.33  5.7745694E-02
   7118.67  6.2550329E-02
   7119.00  6.8174213E-02
   7119.33  7.4833804E-02
   7119.67  8.2545567E-02
   7120.00  9.1460844E-02
   7120.33  1.0203498E-01
   7120.67  1.1449176E-01
   7121.00  1.2922840E-01
   7121.33  1.4698467E-01
   7121.67  1.6791313E-01
   7122.00  1.9262116E-01
   7122.33  2.2203120E-01
   7122.67  2.5515562E-01
   7123.00  2.9083252E-01
   7123.33  3.2704495E-01
   7123.67  3.6172804E-01
   7124.00  3.9455910E-01
   7124.33  4.2749119E-01
   7124.67  4.6280619E-01
   7125.00  5.0070690E-01
   7125.33  5.3884455E-01
   7125.67  5.7262833E-01
   7126.00  5.9773896E-01
   7126.33  6.1064656E-01
   7126.67  6.1678386E-01
   7127.00  6.2318018E-01
   7127.33  6.3547741E-01
   7127.67  6.5292522E-01
   7128.00  6.7396967E-01
   7128.33  6.9627862E-01
   7128.67  7.1619243E-01
   7129.00  7.3051710E-01
   7129.33  7.3672813E-01
   7129.67  7.3775043E-01
   7130.00  7.3716007E-01
   7130.33  7.3901915E-01
   7130.67  7.4478580E-01
   7131.00  7.5377853E-01
   7131.33  7.6307987E-01
   7131.67  7.6896296E-01
   7132.00  7.6927691E-01
   7132.33  7.6328848E-01
   7132.67  7.5441893E-01
   7133.00  7.4635453E-01
   7133.33  7.4350458E-01
   7133.67  7.4692939E-01
   7134.00  7.5593724E-01
   7134.33  7.6771837E-01
   7134.67  7.7785748E-01
   7135.00  7.8382378E-01
   7135.33  7.8402385E-01
   7135.67  7.7977209E-01
   7136.00  7.7225531E-01
   7136.33  7.6268303E-01
   7136.67  7.5241646E-01
   7137.00  7.4208475E-01
   7137.33  7.3209196E-01
   7137.67  7.2246006E-01
   7138.00  7.1307825E-01
   7138.33  7.0371989E-01
   7138.67  6.9410805E-01
   7139.00  6.8401644E-01
   7139.33  6.7316561E-01
   7139.67  6.6157675E-01
   7140.00  6.4932909E-01
   7140.33  6.3661142E-01
   7140.67  6.2382991E-01
   7141.00  6.1132365E-01
   7141.33  5.9954510E-01
   7141.67  5.8871533E-01
   7142.00  5.7902228E-01
   7142.33  5.7077286E-01
   7142.67  5.6390408E-01
   7143.00  5.5844347E-01
   7143.33  5.5451770E-01
   7143.67  5.5186143E-01
   7144.00  5.5037273E-01
   7144.33  5.5006152E-01
   7144.67  5.5067087E-01
   7145.00  5.5208166E-01
   7145.33  5.5422317E-01
   7145.67  5.5685056E-01
   7146.00  5.5981617E-01
   7146.33  5.6296022E-01
   7146.67  5.6607511E-01
   7147.00  5.6900077E-01
   7147.33  5.7151558E-01
   7147.67  5.7350544E-01
   7148.00  5.7484801E-01
   7148.33  5.7532531E-01
   7148.67  5.7494031E-01
   7149.00  5.7363961E-01
   7149.33  5.7127627E-01
   7149.67  5.6796722E-01
   7150.00  5.6372926E-01
   7150.33  5.5848936E-01
   7150.67  5.5241259E-01
   7151.00  5.4555341E-01
   7151.33  5.3789252E-01
   7151.67  5.2959821E-01
   7152.00  5.2074558E-01
   7152.33  5.1135462E-01
   7152.67  5.0155639E-01
   7153.00  4.9140911E-01
   7153.33  4.8094118E-01
   7153.67  4.7024959E-01
   7154.00  4.5938758E-01
   7154.33  4.4840580E-01
   7154.67  4.3738606E-01
   7155.00  4.2639207E-01
   7155.33  4.1551451E-01
   7155.67  4.0481853E-01
   7156.00  3.9436726E-01
   7156.33  3.8426570E-01
   7156.67  3.7453173E-01
   7157.00  3.6520187E-01
   7157.33  3.5635519E-01
   7157.67  3.4794733E-01
   7158.00  3.3997757E-01
   7158.33  3.3249461E-01
   7158.67  3.2544096E-01
   7159.00  3.1882058E-01
   7159.33  3.1270912E-01
   7159.67  3.0709093E-01
   7160.00  3.0200995E-01
   7160.33  2.9758884E-01
   7160.67  2.9379645E-01
   7161.00  2.9065406E-01
   7161.33  2.8823891E-01
   7161.67  2.8643484E-01
   7162.00  2.8519095E-01
   7162.33  2.8449329E-01
   7162.67  2.8420082E-01
   7163.00  2.8425037E-01
   7163.33  2.8461492E-01
   7163.67  2.8521407E-01
   7164.00  2.8602860E-01
   7164.33  2.8707968E-01
   7164.67  2.8834703E-01
   7165.00  2.8984071E-01
   7165.33  2.9160351E-01
   7165.67  2.9361583E-01
   7166.00  2.9588287E-01
   7166.33  2.9843802E-01
   7166.67  3.0124546E-01
   7167.00  3.0429814E-01
   7167.33  3.0761394E-01
   7167.67  3.1114957E-01
   7168.00  3.1489128E-01
   7168.33  3.1884644E-01
   7168.67  3.2297491E-01
   7169.00  3.2726196E-01
   7169.33  3.3170648E-01
   7169.67  3.3626900E-01
   7170.00  3.4092610E-01
   7170.33  3.4564956E-01
   7170.67  3.5038043E-01
   7171.00  3.5505164E-01
   7171.33  3.5951093E-01
   7171.67  3.6355094E-01
   7172.00  3.6687187E-01
