    FDMNES
    energy     <xanes>
   7097.00  4.0094573E-03
   7097.33  4.0843467E-03
   7097.67  4.1619500E-03
   7098.00  4.2424239E-03
   7098.33  4.3263519E-03
   7098.67  4.4135709E-03
   7099.00  4.5042889E-03
   7099.33  4.5992443E-03
   7099.67  4.6982648E-03
   7100.00  4.8016343E-03
   7100.33  4.9103116E-03
   7100.67  5.0241231E-03
   7101.00  5.1434690E-03
   7101.33  5.2696335E-03
   7101.67  5.4024606E-03
   7102.00  5.5425364E-03
   7102.33  5.6916473E-03
   7102.67  5.8496977E-03
   7103.00  6.0175870E-03
   7103.33  6.1979186E-03
   7103.67  6.3907560E-03
   7104.00  6.5975591E-03
   7104.33  6.8223513E-03
   7104.67  7.0655911E-03
   7105.00  7.3298210E-03
   7105.33  7.6217410E-03
   7105.67  7.9428126E-03
   7106.00  8.2978831E-03
   7106.33  8.6992566E-03
   7106.67  9.1511414E-03
   7107.00  9.6639674E-03
   7107.33  1.0263567E-02
   7107.67  1.0962759E-02
   7108.00  1.1788208E-02
   7108.33  1.2805895E-02
   7108.67  1.4062416E-02
   7109.00  1.5646974E-02
   7109.33  1.7791002E-02
   7109.67  2.0734280E-02
   7110.00  2.4942230E-02
   7110.33  3.1714882E-02
   7110.67  4.2287569E-02
   7111.00  5.6843978E-02
   7111.33  7.4413520E-02
   7111.67  9.7993671E-02
   7112.00  1.2844581E-01
   7112.33  1.5372680E-01
   7112.67  1.6262041E-01
   7113.00  1.6329863E-01
   7113.33  1.5702210E-01
   7113.67  1.3511877E-01
   7114.00  1.0604750E-01
   7114.33  8.2891701E-02
   7114.67  6.7022444E-02
   7115.00  5.6723490E-02
   7115.33  5.0435739E-02
   7115.67  4.6419919E-02
   7116.00  4.4013978E-02
   7116.33  4.2894249E-02
   7116.67  4.2639134E-02
   7117.00  4.3093630E-02
   7117.33  4.4204770E-02
   7117.67  4.5811251E-02
   7118.00  4.7861258E-02
   7118.33  5.0381005E-02
   7118.67  5.3351232E-02
   7119.00  5.6863491E-02
   7119.33  6.1184877E-02
   7119.67  6.6460642E-02
   7120.00  7.2934118E-02
   7120.33  8.1147555E-02
   7120.67  9.1357721E-02
   7121.00  1.0406096E-01
   7121.33  1.2039584E-01
   7121.67  1.4082361E-01
   7122.00  1.6601379E-01
   7122.33  1.9662675E-01
   7122.67  2.3011268E-01
   7123.00  2.6254220E-01
   7123.33  2.8804190E-01
   7123.67  3.0635433E-01
   7124.00  3.2074820E-01
   7124.33  3.3604293E-01
   7124.67  3.5464763E-01
   7125.00  3.7668997E-01
   7125.33  4.0109748E-01
   7125.67  4.2556506E-01
   7126.00  4.4826276E-01
   7126.33  4.6687492E-01
   7126.67  4.8065647E-01
   7127.00  4.8939249E-01
   7127.33  4.9324328E-01
   7127.67  4.9408949E-01
   7128.00  4.9325211E-01
   7128.33  4.9216474E-01
   7128.67  4.9175653E-01
   7129.00  4.9181382E-01
   7129.33  4.9103714E-01
   7129.67  4.8899305E-01
   7130.00  4.8679932E-01
   7130.33  4.8705394E-01
   7130.67  4.9121875E-01
   7131.00  4.9962586E-01
   7131.33  5.1193723E-01
   7131.67  5.2618177E-01
   7132.00  5.4073792E-01
   7132.33  5.5354526E-01
   7132.67  5.6352856E-01
   7133.00  5.7049109E-01
   7133.33  5.7489179E-01
   7133.67  5.7820570E-01
   7134.00  5.8143191E-01
   7134.33  5.8567903E-01
   7134.67  5.9152560E-01
   7135.00  5.9921519E-01
   7135.33  6.0886608E-01
   7135.67  6.1993495E-01
   7136.00  6.3212079E-01
   7136.33  6.4526528E-01
   7136.67  6.5911626E-01
   7137.00  6.7362456E-01
   7137.33  6.8885213E-01
   7137.67  7.0468007E-01
   7138.00  7.2100847E-01
   7138.33  7.3763183E-01
   7138.67  7.5412947E-01
   7139.00  7.7006447E-01
   7139.33  7.8472462E-01
   7139.67  7.9769995E-01
   7140.00  8.0859641E-01
   7140.33  8.1679549E-01
   7140.67  8.2243659E-01
   7141.00  8.2549203E-01
   7141.33  8.2571313E-01
   7141.67  8.2356178E-01
   7142.00  8.1921293E-01
   7142.33  8.1266387E-01
   7142.67  8.0441668E-01
   7143.00  7.9468373E-01
   7143.33  7.8352498E-01
   7143.67  7.7128183E-01
   7144.00  7.5809102E-01
   7144.33  7.4400761E-01
   7144.67  7.2930826E-01
   7145.00  7.1417870E-01
   7145.33  6.9883035E-01
   7145.67  6.8350660E-01
   7146.00  6.6835397E-01
   7146.33  6.5355546E-01
   7146.67  6.3920675E-01
   7147.00  6.2541280E-01
   7147.33  6.1235733E-01
   7147.67  6.0003620E-01
   7148.00  5.8849792E-01
   7148.33  5.7788046E-01
   7148.67  5.6809747E-01
   7149.00  5.5914925E-01
   7149.33  5.5112442E-01
   7149.67  5.4389337E-01
   7150.00  5.3742341E-01
   7150.33  5.3175207E-01
   7150.67  5.2673017E-01
   7151.00  5.2230194E-01
   7151.33  5.1845902E-01
   7151.67  5.1505409E-01
   7152.00  5.1201124E-01
   7152.33  5.0927073E-01
   7152.67  5.0670255E-01
   7153.00  5.0422353E-01
   7153.33  5.0173837E-01
   7153.67  4.9915913E-01
   7154.00  4.9641948E-01
   7154.33  4.9343356E-01
   7154.67  4.9019356E-01
   7155.00  4.8668537E-01
   7155.33  4.8287577E-01
   7155.67  4.7881625E-01
   7156.00  4.7453480E-01
   7156.33  4.7005329E-01
   7156.67  4.6544883E-01
   7157.00  4.6077691E-01
   7157.33  4.5611263E-01
   7157.67  4.5153999E-01
   7158.00  4.4713867E-01
   7158.33  4.4303709E-01
   7158.67  4.3930101E-01
   7159.00  4.3601587E-01
   7159.33  4.3333968E-01
   7159.67  4.3127817E-01
   7160.00  4.2987687E-01
   7160.33  4.2925164E-01
   7160.67  4.2931922E-01
   7161.00  4.3006102E-01
   7161.33  4.3151143E-01
   7161.67  4.3352680E-01
   7162.00  4.3603895E-01
   7162.33  4.3901003E-01
   7162.67  4.4229513E-01
   7163.00  4.4581316E-01
   7163.33  4.4948786E-01
   7163.67  4.5320801E-01
   7164.00  4.5690154E-01
   7164.33  4.6048266E-01
   7164.67  4.6388706E-01
   7165.00  4.6705151E-01
   7165.33  4.6987987E-01
   7165.67  4.7236373E-01
   7166.00  4.7447252E-01
   7166.33  4.7613091E-01
   7166.67  4.7737581E-01
   7167.00  4.7820588E-01
   7167.33  4.7857981E-01
   7167.67  4.7856923E-01
   7168.00  4.7820078E-01
   7168.33  4.7747387E-01
   7168.67  4.7647456E-01
   7169.00  4.7524700E-01
   7169.33  4.7382440E-01
   7169.67  4.7228463E-01
   7170.00  4.7067525E-01
   7170.33  4.6904818E-01
   7170.67  4.6745764E-01
   7171.00  4.6594760E-01
   7171.33  4.6458708E-01
   7171.67  4.6341902E-01
   7172.00  4.6250054E-01
