    FDMNES
    energy     <xanes>
   7097.00  5.5987806E-03
   7097.33  5.7531645E-03
   7097.67  5.9156371E-03
   7098.00  6.0868117E-03
   7098.33  6.2686712E-03
   7098.67  6.4609235E-03
   7099.00  6.6644259E-03
   7099.33  6.8818483E-03
   7099.67  7.1129187E-03
   7100.00  7.3588709E-03
   7100.33  7.6234012E-03
   7100.67  7.9063195E-03
   7101.00  8.2094600E-03
   7101.33  8.5381132E-03
   7101.67  8.8923035E-03
   7102.00  9.2748665E-03
   7102.33  9.6936818E-03
   7102.67  1.0149280E-02
   7103.00  1.0646257E-02
   7103.33  1.1196929E-02
   7103.67  1.1803004E-02
   7104.00  1.2472370E-02
   7104.33  1.3225480E-02
   7104.67  1.4066840E-02
   7105.00  1.5011016E-02
   7105.33  1.6094686E-02
   7105.67  1.7329464E-02
   7106.00  1.8744919E-02
   7106.33  2.0413864E-02
   7106.67  2.2367909E-02
   7107.00  2.4675301E-02
   7107.33  2.7502480E-02
   7107.67  3.0946850E-02
   7108.00  3.5197809E-02
   7108.33  4.0723879E-02
   7108.67  4.7898581E-02
   7109.00  5.7420772E-02
   7109.33  7.1129862E-02
   7109.67  9.1106164E-02
   7110.00  1.2140647E-01
   7110.33  1.7368064E-01
   7110.67  2.6064326E-01
   7111.00  3.8793838E-01
   7111.33  5.3376245E-01
   7111.67  6.6151115E-01
   7112.00  7.2391957E-01
   7112.33  6.8221156E-01
   7112.67  5.9234179E-01
   7113.00  4.9734291E-01
   7113.33  4.1947312E-01
   7113.67  3.5786763E-01
   7114.00  3.0897385E-01
   7114.33  2.7071862E-01
   7114.67  2.4072632E-01
   7115.00  2.1849042E-01
   7115.33  2.0400513E-01
   7115.67  1.9503480E-01
   7116.00  1.8967429E-01
   7116.33  1.8533502E-01
   7116.67  1.8055478E-01
   7117.00  1.7559726E-01
   7117.33  1.7097815E-01
   7117.67  1.6682163E-01
   7118.00  1.6311275E-01
   7118.33  1.5997631E-01
   7118.67  1.5775276E-01
   7119.00  1.5679745E-01
   7119.33  1.5698069E-01
   7119.67  1.5718153E-01
   7120.00  1.5662020E-01
   7120.33  1.5488697E-01
   7120.67  1.5230658E-01
   7121.00  1.4920221E-01
   7121.33  1.4608146E-01
   7121.67  1.4349410E-01
   7122.00  1.4179549E-01
   7122.33  1.4144220E-01
   7122.67  1.4256273E-01
   7123.00  1.4537137E-01
   7123.33  1.5031451E-01
   7123.67  1.5725654E-01
   7124.00  1.6616809E-01
   7124.33  1.7718691E-01
   7124.67  1.9002505E-01
   7125.00  2.0479840E-01
   7125.33  2.2244834E-01
   7125.67  2.4379906E-01
   7126.00  2.6962318E-01
   7126.33  3.0010633E-01
   7126.67  3.3320304E-01
   7127.00  3.6737018E-01
   7127.33  4.0083592E-01
   7127.67  4.3257540E-01
   7128.00  4.6259935E-01
   7128.33  4.9164671E-01
   7128.67  5.2046372E-01
   7129.00  5.4880027E-01
   7129.33  5.7554458E-01
   7129.67  6.0020080E-01
   7130.00  6.2281930E-01
   7130.33  6.4364112E-01
   7130.67  6.6307047E-01
   7131.00  6.8092487E-01
   7131.33  6.9660678E-01
   7131.67  7.0979118E-01
   7132.00  7.1951710E-01
   7132.33  7.2369577E-01
   7132.67  7.2202015E-01
   7133.00  7.1465405E-01
   7133.33  7.0203647E-01
   7133.67  6.8613776E-01
   7134.00  6.6808401E-01
   7134.33  6.4840668E-01
   7134.67  6.2715628E-01
   7135.00  6.0384442E-01
   7135.33  5.7782661E-01
   7135.67  5.4982202E-01
   7136.00  5.2088026E-01
   7136.33  4.9284786E-01
   7136.67  4.6748908E-01
   7137.00  4.4617817E-01
   7137.33  4.3065510E-01
   7137.67  4.2076452E-01
   7138.00  4.1647851E-01
   7138.33  4.1797045E-01
   7138.67  4.2373760E-01
   7139.00  4.3279785E-01
   7139.33  4.4413520E-01
   7139.67  4.5636399E-01
   7140.00  4.6883758E-01
   7140.33  4.8128054E-01
   7140.67  4.9381517E-01
   7141.00  5.0665127E-01
   7141.33  5.1998610E-01
   7141.67  5.3369697E-01
   7142.00  5.4760216E-01
   7142.33  5.6149146E-01
   7142.67  5.7528565E-01
   7143.00  5.8902978E-01
   7143.33  6.0284015E-01
   7143.67  6.1678623E-01
   7144.00  6.3085577E-01
   7144.33  6.4491881E-01
   7144.67  6.5873482E-01
   7145.00  6.7203759E-01
   7145.33  6.8439576E-01
   7145.67  6.9562341E-01
   7146.00  7.0553204E-01
   7146.33  7.1381724E-01
   7146.67  7.2063885E-01
   7147.00  7.2604074E-01
   7147.33  7.2996338E-01
   7147.67  7.3271734E-01
   7148.00  7.3444045E-01
   7148.33  7.3518520E-01
   7148.67  7.3520133E-01
   7149.00  7.3459661E-01
   7149.33  7.3344351E-01
   7149.67  7.3196031E-01
   7150.00  7.3030282E-01
   7150.33  7.2866618E-01
   7150.67  7.2722822E-01
   7151.00  7.2611129E-01
   7151.33  7.2545065E-01
   7151.67  7.2521614E-01
   7152.00  7.2538706E-01
   7152.33  7.2595100E-01
   7152.67  7.2678187E-01
   7153.00  7.2779444E-01
   7153.33  7.2888750E-01
   7153.67  7.2993458E-01
   7154.00  7.3083227E-01
   7154.33  7.3142564E-01
   7154.67  7.3162879E-01
   7155.00  7.3134261E-01
   7155.33  7.3038408E-01
   7155.67  7.2872943E-01
   7156.00  7.2630299E-01
   7156.33  7.2292134E-01
   7156.67  7.1862516E-01
   7157.00  7.1336693E-01
   7157.33  7.0697456E-01
   7157.67  6.9954135E-01
   7158.00  6.9105461E-01
   7158.33  6.8139343E-01
   7158.67  6.7073029E-01
   7159.00  6.5913079E-01
   7159.33  6.4660723E-01
   7159.67  6.3341566E-01
   7160.00  6.1970441E-01
   7160.33  6.0560607E-01
   7160.67  5.9133738E-01
   7161.00  5.7703948E-01
   7161.33  5.6286452E-01
   7161.67  5.4890308E-01
   7162.00  5.3521858E-01
   7162.33  5.2189886E-01
   7162.67  5.0893020E-01
   7163.00  4.9632777E-01
   7163.33  4.8415545E-01
   7163.67  4.7238627E-01
   7164.00  4.6104469E-01
   7164.33  4.5022281E-01
   7164.67  4.3989933E-01
   7165.00  4.3010393E-01
   7165.33  4.2093503E-01
   7165.67  4.1234014E-01
   7166.00  4.0431955E-01
   7166.33  3.9693109E-01
   7166.67  3.9008173E-01
   7167.00  3.8374526E-01
   7167.33  3.7794500E-01
   7167.67  3.7258359E-01
   7168.00  3.6763089E-01
   7168.33  3.6310169E-01
   7168.67  3.5891885E-01
   7169.00  3.5505827E-01
   7169.33  3.5152968E-01
   7169.67  3.4826868E-01
   7170.00  3.4525092E-01
   7170.33  3.4247605E-01
   7170.67  3.3989482E-01
   7171.00  3.3749680E-01
   7171.33  3.3531447E-01
   7171.67  3.3337391E-01
   7172.00  3.3175958E-01
