    FDMNES
    energy     <xanes>
   7097.00  4.7049861E-03
   7097.33  4.8143860E-03
   7097.67  4.9286760E-03
   7098.00  5.0481838E-03
   7098.33  5.1740353E-03
   7098.67  5.3059944E-03
   7099.00  5.4445060E-03
   7099.33  5.5910378E-03
   7099.67  5.7453460E-03
   7100.00  5.9080503E-03
   7100.33  6.0811124E-03
   7100.67  6.2643012E-03
   7101.00  6.4585060E-03
   7101.33  6.6664272E-03
   7101.67  6.8878915E-03
   7102.00  7.1242213E-03
   7102.33  7.3792671E-03
   7102.67  7.6530137E-03
   7103.00  7.9475105E-03
   7103.33  8.2684893E-03
   7103.67  8.6163167E-03
   7104.00  8.9943373E-03
   7104.33  9.4115464E-03
   7104.67  9.8692205E-03
   7105.00  1.0373180E-02
   7105.33  1.0938524E-02
   7105.67  1.1568773E-02
   7106.00  1.2274934E-02
   7106.33  1.3084702E-02
   7106.67  1.4007585E-02
   7107.00  1.5066875E-02
   7107.33  1.6319988E-02
   7107.67  1.7794681E-02
   7108.00  1.9548884E-02
   7108.33  2.1725249E-02
   7108.67  2.4420414E-02
   7109.00  2.7819628E-02
   7109.33  3.2397885E-02
   7109.67  3.8621570E-02
   7110.00  4.7390160E-02
   7110.33  6.1241754E-02
   7110.67  8.3275424E-02
   7111.00  1.1756051E-01
   7111.33  1.6763359E-01
   7111.67  2.2040212E-01
   7112.00  2.5646712E-01
   7112.33  2.7763670E-01
   7112.67  2.9502950E-01
   7113.00  3.1807070E-01
   7113.33  3.7167570E-01
   7113.67  4.5031028E-01
   7114.00  5.0019628E-01
   7114.33  4.4387058E-01
   7114.67  3.3795955E-01
   7115.00  2.4771686E-01
   7115.33  1.9861870E-01
   7115.67  1.7650570E-01
   7116.00  1.6883563E-01
   7116.33  1.5987458E-01
   7116.67  1.4413145E-01
   7117.00  1.2662427E-01
   7117.33  1.1291725E-01
   7117.67  1.0360600E-01
   7118.00  9.8179552E-02
   7118.33  9.6265107E-02
   7118.67  9.6846755E-02
   7119.00  9.9460250E-02
   7119.33  1.0371446E-01
   7119.67  1.0869569E-01
   7120.00  1.1359934E-01
   7120.33  1.1732388E-01
   7120.67  1.1946306E-01
   7121.00  1.2019483E-01
   7121.33  1.2022970E-01
   7121.67  1.2057823E-01
   7122.00  1.2190084E-01
   7122.33  1.2497099E-01
   7122.67  1.3009087E-01
   7123.00  1.3774855E-01
   7123.33  1.4916835E-01
   7123.67  1.6509929E-01
   7124.00  1.8677737E-01
   7124.33  2.1628578E-01
   7124.67  2.5233394E-01
   7125.00  2.9154120E-01
   7125.33  3.2432896E-01
   7125.67  3.4101126E-01
   7126.00  3.3942454E-01
   7126.33  3.2608152E-01
   7126.67  3.1080621E-01
   7127.00  2.9778665E-01
   7127.33  2.9129055E-01
   7127.67  2.9269675E-01
   7128.00  3.0220817E-01
   7128.33  3.1910573E-01
   7128.67  3.3957007E-01
   7129.00  3.6129306E-01
   7129.33  3.8427760E-01
   7129.67  4.1121146E-01
   7130.00  4.4590105E-01
   7130.33  4.9450818E-01
   7130.67  5.5828909E-01
   7131.00  6.3629083E-01
   7131.33  7.2300336E-01
   7131.67  8.0695278E-01
   7132.00  8.7982196E-01
   7132.33  9.3434496E-01
   7132.67  9.7155867E-01
   7133.00  9.9226282E-01
   7133.33  9.9643083E-01
   7133.67  9.8827166E-01
   7134.00  9.6992273E-01
   7134.33  9.4268412E-01
   7134.67  9.0980035E-01
   7135.00  8.7367389E-01
   7135.33  8.3760348E-01
   7135.67  8.0434464E-01
   7136.00  7.7520360E-01
   7136.33  7.5109950E-01
   7136.67  7.3104791E-01
   7137.00  7.1438763E-01
   7137.33  7.0056491E-01
   7137.67  6.8844092E-01
   7138.00  6.7741918E-01
   7138.33  6.6705054E-01
   7138.67  6.5694341E-01
   7139.00  6.4697569E-01
   7139.33  6.3715490E-01
   7139.67  6.2754708E-01
   7140.00  6.1826847E-01
   7140.33  6.0954589E-01
   7140.67  6.0149844E-01
   7141.00  5.9428735E-01
   7141.33  5.8822898E-01
   7141.67  5.8337312E-01
   7142.00  5.7985061E-01
   7142.33  5.7794966E-01
   7142.67  5.7753548E-01
   7143.00  5.7859270E-01
   7143.33  5.8122174E-01
   7143.67  5.8512998E-01
   7144.00  5.9019679E-01
   7144.33  5.9639591E-01
   7144.67  6.0343070E-01
   7145.00  6.1112266E-01
   7145.33  6.1925597E-01
   7145.67  6.2745928E-01
   7146.00  6.3544192E-01
   7146.33  6.4285514E-01
   7146.67  6.4958899E-01
   7147.00  6.5559672E-01
   7147.33  6.6082287E-01
   7147.67  6.6540698E-01
   7148.00  6.6935993E-01
   7148.33  6.7253166E-01
   7148.67  6.7486100E-01
   7149.00  6.7617338E-01
   7149.33  6.7610336E-01
   7149.67  6.7463639E-01
   7150.00  6.7169651E-01
   7150.33  6.6711187E-01
   7150.67  6.6117781E-01
   7151.00  6.5405533E-01
   7151.33  6.4585907E-01
   7151.67  6.3695522E-01
   7152.00  6.2754644E-01
   7152.33  6.1781047E-01
   7152.67  6.0796811E-01
   7153.00  5.9815205E-01
   7153.33  5.8850606E-01
   7153.67  5.7911069E-01
   7154.00  5.7004129E-01
   7154.33  5.6142566E-01
   7154.67  5.5326616E-01
   7155.00  5.4558600E-01
   7155.33  5.3844729E-01
   7155.67  5.3176478E-01
   7156.00  5.2549264E-01
   7156.33  5.1958488E-01
   7156.67  5.1387896E-01
   7157.00  5.0824687E-01
   7157.33  5.0251379E-01
   7157.67  4.9653091E-01
   7158.00  4.9017930E-01
   7158.33  4.8329662E-01
   7158.67  4.7588645E-01
   7159.00  4.6794279E-01
   7159.33  4.5944228E-01
   7159.67  4.5052764E-01
   7160.00  4.4129480E-01
   7160.33  4.3185289E-01
   7160.67  4.2237088E-01
   7161.00  4.1297817E-01
   7161.33  4.0385655E-01
   7161.67  3.9513008E-01
   7162.00  3.8693114E-01
   7162.33  3.7948981E-01
   7162.67  3.7284644E-01
   7163.00  3.6707806E-01
   7163.33  3.6235255E-01
   7163.67  3.5856091E-01
   7164.00  3.5567046E-01
   7164.33  3.5370691E-01
   7164.67  3.5245958E-01
   7165.00  3.5182254E-01
   7165.33  3.5172749E-01
   7165.67  3.5199013E-01
   7166.00  3.5251300E-01
   7166.33  3.5321697E-01
   7166.67  3.5400058E-01
   7167.00  3.5480821E-01
   7167.33  3.5558891E-01
   7167.67  3.5631632E-01
   7168.00  3.5697869E-01
   7168.33  3.5756733E-01
   7168.67  3.5810055E-01
   7169.00  3.5859264E-01
   7169.33  3.5906142E-01
   7169.67  3.5953115E-01
   7170.00  3.6001810E-01
   7170.33  3.6053816E-01
   7170.67  3.6109114E-01
   7171.00  3.6167159E-01
   7171.33  3.6225976E-01
   7171.67  3.6281056E-01
   7172.00  3.6326412E-01
