    FDMNES
    energy     <xanes>
   7097.00  5.1505654E-03
   7097.33  5.2745740E-03
   7097.67  5.4043526E-03
   7098.00  5.5403040E-03
   7098.33  5.6837855E-03
   7098.67  5.8345421E-03
   7099.00  5.9931288E-03
   7099.33  6.1613375E-03
   7099.67  6.3389154E-03
   7100.00  6.5266486E-03
   7100.33  6.7269702E-03
   7100.67  6.9396634E-03
   7101.00  7.1658789E-03
   7101.33  7.4090319E-03
   7101.67  7.6690164E-03
   7102.00  7.9475851E-03
   7102.33  8.2497267E-03
   7102.67  8.5756126E-03
   7103.00  8.9280422E-03
   7103.33  9.3146680E-03
   7103.67  9.7363213E-03
   7104.00  1.0197743E-02
   7104.33  1.0711411E-02
   7104.67  1.1279748E-02
   7105.00  1.1911400E-02
   7105.33  1.2628365E-02
   7105.67  1.3437132E-02
   7106.00  1.4355054E-02
   7106.33  1.5425161E-02
   7106.67  1.6665403E-02
   7107.00  1.8115475E-02
   7107.33  1.9872561E-02
   7107.67  2.1992401E-02
   7108.00  2.4584504E-02
   7108.33  2.7920249E-02
   7108.67  3.2214250E-02
   7109.00  3.7869424E-02
   7109.33  4.5946594E-02
   7109.67  5.7642506E-02
   7110.00  7.5297836E-02
   7110.33  1.0575674E-01
   7110.67  1.5771563E-01
   7111.00  2.3922699E-01
   7111.33  3.2513905E-01
   7111.67  3.5834796E-01
   7112.00  3.5674119E-01
   7112.33  3.3392176E-01
   7112.67  3.2627987E-01
   7113.00  3.2805715E-01
   7113.33  3.1895945E-01
   7113.67  3.2162345E-01
   7114.00  3.1202480E-01
   7114.33  2.7270708E-01
   7114.67  2.2795372E-01
   7115.00  1.8292522E-01
   7115.33  1.5208896E-01
   7115.67  1.4244696E-01
   7116.00  1.5132926E-01
   7116.33  1.5946350E-01
   7116.67  1.4216252E-01
   7117.00  1.1471758E-01
   7117.33  9.8388003E-02
   7117.67  9.1996217E-02
   7118.00  9.3044102E-02
   7118.33  1.0056741E-01
   7118.67  1.1211440E-01
   7119.00  1.2559226E-01
   7119.33  1.4075040E-01
   7119.67  1.5879669E-01
   7120.00  1.7947380E-01
   7120.33  2.0020339E-01
   7120.67  2.1762836E-01
   7121.00  2.2985509E-01
   7121.33  2.3607193E-01
   7121.67  2.3848044E-01
   7122.00  2.3891591E-01
   7122.33  2.3934511E-01
   7122.67  2.4111129E-01
   7123.00  2.4478886E-01
   7123.33  2.5082381E-01
   7123.67  2.5888205E-01
   7124.00  2.6888942E-01
   7124.33  2.8127400E-01
   7124.67  2.9630888E-01
   7125.00  3.1474894E-01
   7125.33  3.3816290E-01
   7125.67  3.6605603E-01
   7126.00  3.9629889E-01
   7126.33  4.2412678E-01
   7126.67  4.4725843E-01
   7127.00  4.6701677E-01
   7127.33  4.8616313E-01
   7127.67  5.0636010E-01
   7128.00  5.2822925E-01
   7128.33  5.5260630E-01
   7128.67  5.7954744E-01
   7129.00  6.0892671E-01
   7129.33  6.4006132E-01
   7129.67  6.7108727E-01
   7130.00  7.0014166E-01
   7130.33  7.2457913E-01
   7130.67  7.4388570E-01
   7131.00  7.5908280E-01
   7131.33  7.7351778E-01
   7131.67  7.9124494E-01
   7132.00  8.1446556E-01
   7132.33  8.4411653E-01
   7132.67  8.7716529E-01
   7133.00  9.1006455E-01
   7133.33  9.3739747E-01
   7133.67  9.5593044E-01
   7134.00  9.6415550E-01
   7134.33  9.6099335E-01
   7134.67  9.4893358E-01
   7135.00  9.2973977E-01
   7135.33  9.0621976E-01
   7135.67  8.8232447E-01
   7136.00  8.5990133E-01
   7136.33  8.3983906E-01
   7136.67  8.2156578E-01
   7137.00  8.0460856E-01
   7137.33  7.8859658E-01
   7137.67  7.7310136E-01
   7138.00  7.5794824E-01
   7138.33  7.4303414E-01
   7138.67  7.2824753E-01
   7139.00  7.1353402E-01
   7139.33  6.9884263E-01
   7139.67  6.8412513E-01
   7140.00  6.6934952E-01
   7140.33  6.5447767E-01
   7140.67  6.3950898E-01
   7141.00  6.2445184E-01
   7141.33  6.0933421E-01
   7141.67  5.9423018E-01
   7142.00  5.7922323E-01
   7142.33  5.6444171E-01
   7142.67  5.4994992E-01
   7143.00  5.3581948E-01
   7143.33  5.2218289E-01
   7143.67  5.0905361E-01
   7144.00  4.9647860E-01
   7144.33  4.8455021E-01
   7144.67  4.7318981E-01
   7145.00  4.6238612E-01
   7145.33  4.5220285E-01
   7145.67  4.4258876E-01
   7146.00  4.3358490E-01
   7146.33  4.2535331E-01
   7146.67  4.1790341E-01
   7147.00  4.1131751E-01
   7147.33  4.0578677E-01
   7147.67  4.0122338E-01
   7148.00  3.9760718E-01
   7148.33  3.9497127E-01
   7148.67  3.9309101E-01
   7149.00  3.9185761E-01
   7149.33  3.9121028E-01
   7149.67  3.9096282E-01
   7150.00  3.9102954E-01
   7150.33  3.9136642E-01
   7150.67  3.9188555E-01
   7151.00  3.9254247E-01
   7151.33  3.9331081E-01
   7151.67  3.9415018E-01
   7152.00  3.9504466E-01
   7152.33  3.9598551E-01
   7152.67  3.9695401E-01
   7153.00  3.9793790E-01
   7153.33  3.9892504E-01
   7153.67  3.9990389E-01
   7154.00  4.0086521E-01
   7154.33  4.0179515E-01
   7154.67  4.0268708E-01
   7155.00  4.0353224E-01
   7155.33  4.0431431E-01
   7155.67  4.0503231E-01
   7156.00  4.0568048E-01
   7156.33  4.0624331E-01
   7156.67  4.0672446E-01
   7157.00  4.0712270E-01
   7157.33  4.0743343E-01
   7157.67  4.0767884E-01
   7158.00  4.0787533E-01
   7158.33  4.0804478E-01
   7158.67  4.0821854E-01
   7159.00  4.0842144E-01
   7159.33  4.0868868E-01
   7159.67  4.0903930E-01
   7160.00  4.0949371E-01
   7160.33  4.1008805E-01
   7160.67  4.1082314E-01
   7161.00  4.1170898E-01
   7161.33  4.1277098E-01
   7161.67  4.1398806E-01
   7162.00  4.1535309E-01
   7162.33  4.1687560E-01
   7162.67  4.1852979E-01
   7163.00  4.2029642E-01
   7163.33  4.2215272E-01
   7163.67  4.2405050E-01
   7164.00  4.2595277E-01
   7164.33  4.2780793E-01
   7164.67  4.2957406E-01
   7165.00  4.3121194E-01
   7165.33  4.3265882E-01
   7165.67  4.3390229E-01
   7166.00  4.3492301E-01
   7166.33  4.3568384E-01
   7166.67  4.3622180E-01
   7167.00  4.3655602E-01
   7167.33  4.3669942E-01
   7167.67  4.3671633E-01
   7168.00  4.3664699E-01
   7168.33  4.3653226E-01
   7168.67  4.3641774E-01
   7169.00  4.3633184E-01
   7169.33  4.3630637E-01
   7169.67  4.3635100E-01
   7170.00  4.3647310E-01
   7170.33  4.3668397E-01
   7170.67  4.3696755E-01
   7171.00  4.3731212E-01
   7171.33  4.3769944E-01
   7171.67  4.3808578E-01
   7172.00  4.3842222E-01
