    FDMNES
    energy     <xanes>
   7097.00  4.7141710E-03
   7097.33  4.8180271E-03
   7097.67  4.9263431E-03
   7098.00  5.0394127E-03
   7098.33  5.1582554E-03
   7098.67  5.2826511E-03
   7099.00  5.4130001E-03
   7099.33  5.5506317E-03
   7099.67  5.6953219E-03
   7100.00  5.8476325E-03
   7100.33  6.0093456E-03
   7100.67  6.1802563E-03
   7101.00  6.3611805E-03
   7101.33  6.5545896E-03
   7101.67  6.7603493E-03
   7102.00  6.9796937E-03
   7102.33  7.2161947E-03
   7102.67  7.4699045E-03
   7103.00  7.7427859E-03
   7103.33  8.0402718E-03
   7103.67  8.3628715E-03
   7104.00  8.7139054E-03
   7104.33  9.1021879E-03
   7104.67  9.5293531E-03
   7105.00  1.0001476E-02
   7105.33  1.0534097E-02
   7105.67  1.1131776E-02
   7106.00  1.1806821E-02
   7106.33  1.2589838E-02
   7106.67  1.3493812E-02
   7107.00  1.4547372E-02
   7107.33  1.5820782E-02
   7107.67  1.7355530E-02
   7108.00  1.9232749E-02
   7108.33  2.1654445E-02
   7108.67  2.4786192E-02
   7109.00  2.8939021E-02
   7109.33  3.4940419E-02
   7109.67  4.3760000E-02
   7110.00  5.7302986E-02
   7110.33  8.1083410E-02
   7110.67  1.2098953E-01
   7111.00  1.7836809E-01
   7111.33  2.3682418E-01
   7111.67  2.6586316E-01
   7112.00  2.4815948E-01
   7112.33  2.1215015E-01
   7112.67  1.8319980E-01
   7113.00  1.6053346E-01
   7113.33  1.4206031E-01
   7113.67  1.2906438E-01
   7114.00  1.2295403E-01
   7114.33  1.2292749E-01
   7114.67  1.2284556E-01
   7115.00  1.2060173E-01
   7115.33  1.1810309E-01
   7115.67  1.1600804E-01
   7116.00  1.1463134E-01
   7116.33  1.1614867E-01
   7116.67  1.2281392E-01
   7117.00  1.3604666E-01
   7117.33  1.5664153E-01
   7117.67  1.8142710E-01
   7118.00  2.0628052E-01
   7118.33  2.2433823E-01
   7118.67  2.3328648E-01
   7119.00  2.3542490E-01
   7119.33  2.3546587E-01
   7119.67  2.3705740E-01
   7120.00  2.4136708E-01
   7120.33  2.4865734E-01
   7120.67  2.5775945E-01
   7121.00  2.6783272E-01
   7121.33  2.7801778E-01
   7121.67  2.8769818E-01
   7122.00  2.9675802E-01
   7122.33  3.0565879E-01
   7122.67  3.1527809E-01
   7123.00  3.2616349E-01
   7123.33  3.3852676E-01
   7123.67  3.5180201E-01
   7124.00  3.6567019E-01
   7124.33  3.8008508E-01
   7124.67  3.9436139E-01
   7125.00  4.0710645E-01
   7125.33  4.1643565E-01
   7125.67  4.2241715E-01
   7126.00  4.2615978E-01
   7126.33  4.2998181E-01
   7126.67  4.3644471E-01
   7127.00  4.4737188E-01
   7127.33  4.6383647E-01
   7127.67  4.8366586E-01
   7128.00  5.0436065E-01
   7128.33  5.2209310E-01
   7128.67  5.3477852E-01
   7129.00  5.4297944E-01
   7129.33  5.4997513E-01
   7129.67  5.5885152E-01
   7130.00  5.6997829E-01
   7130.33  5.8215270E-01
   7130.67  5.9335601E-01
   7131.00  6.0207627E-01
   7131.33  6.0700523E-01
   7131.67  6.0910010E-01
   7132.00  6.0979502E-01
   7132.33  6.1138181E-01
   7132.67  6.1577121E-01
   7133.00  6.2388449E-01
   7133.33  6.3549504E-01
   7133.67  6.4765782E-01
   7134.00  6.5751217E-01
   7134.33  6.6218210E-01
   7134.67  6.6186057E-01
   7135.00  6.5735622E-01
   7135.33  6.4991514E-01
   7135.67  6.4149623E-01
   7136.00  6.3310318E-01
   7136.33  6.2534084E-01
   7136.67  6.1826153E-01
   7137.00  6.1194939E-01
   7137.33  6.0677525E-01
   7137.67  6.0290418E-01
   7138.00  6.0043902E-01
   7138.33  5.9931990E-01
   7138.67  5.9885777E-01
   7139.00  5.9847160E-01
   7139.33  5.9751607E-01
   7139.67  5.9574060E-01
   7140.00  5.9312231E-01
   7140.33  5.8977774E-01
   7140.67  5.8611901E-01
   7141.00  5.8245568E-01
   7141.33  5.7914490E-01
   7141.67  5.7637610E-01
   7142.00  5.7425580E-01
   7142.33  5.7289093E-01
   7142.67  5.7214300E-01
   7143.00  5.7192517E-01
   7143.33  5.7215393E-01
   7143.67  5.7262960E-01
   7144.00  5.7322633E-01
   7144.33  5.7380420E-01
   7144.67  5.7424118E-01
   7145.00  5.7444729E-01
   7145.33  5.7430597E-01
   7145.67  5.7381679E-01
   7146.00  5.7298597E-01
   7146.33  5.7183927E-01
   7146.67  5.7052818E-01
   7147.00  5.6918550E-01
   7147.33  5.6799801E-01
   7147.67  5.6710146E-01
   7148.00  5.6657917E-01
   7148.33  5.6651086E-01
   7148.67  5.6680896E-01
   7149.00  5.6738338E-01
   7149.33  5.6808767E-01
   7149.67  5.6872139E-01
   7150.00  5.6913272E-01
   7150.33  5.6910949E-01
   7150.67  5.6854403E-01
   7151.00  5.6731254E-01
   7151.33  5.6518879E-01
   7151.67  5.6216717E-01
   7152.00  5.5817872E-01
   7152.33  5.5304405E-01
   7152.67  5.4687522E-01
   7153.00  5.3969437E-01
   7153.33  5.3145917E-01
   7153.67  5.2241765E-01
   7154.00  5.1272247E-01
   7154.33  5.0253628E-01
   7154.67  4.9215556E-01
   7155.00  4.8178957E-01
   7155.33  4.7169796E-01
   7155.67  4.6204893E-01
   7156.00  4.5298023E-01
   7156.33  4.4469542E-01
   7156.67  4.3717783E-01
   7157.00  4.3045526E-01
   7157.33  4.2462726E-01
   7157.67  4.1956707E-01
   7158.00  4.1523545E-01
   7158.33  4.1165830E-01
   7158.67  4.0868798E-01
   7159.00  4.0627088E-01
   7159.33  4.0441316E-01
   7159.67  4.0300825E-01
   7160.00  4.0202896E-01
   7160.33  4.0150848E-01
   7160.67  4.0139176E-01
   7161.00  4.0168370E-01
   7161.33  4.0244332E-01
   7161.67  4.0361974E-01
   7162.00  4.0521004E-01
   7162.33  4.0725139E-01
   7162.67  4.0966425E-01
   7163.00  4.1240885E-01
   7163.33  4.1545817E-01
   7163.67  4.1870699E-01
   7164.00  4.2209064E-01
   7164.33  4.2554304E-01
   7164.67  4.2898873E-01
   7165.00  4.3237654E-01
   7165.33  4.3564400E-01
   7165.67  4.3876732E-01
   7166.00  4.4172363E-01
   7166.33  4.4447297E-01
   7166.67  4.4703027E-01
   7167.00  4.4939504E-01
   7167.33  4.5155088E-01
   7167.67  4.5353388E-01
   7168.00  4.5535798E-01
   7168.33  4.5702593E-01
   7168.67  4.5857897E-01
   7169.00  4.6003938E-01
   7169.33  4.6142514E-01
   7169.67  4.6276861E-01
   7170.00  4.6408656E-01
   7170.33  4.6538959E-01
   7170.67  4.6668081E-01
   7171.00  4.6794961E-01
   7171.33  4.6915773E-01
   7171.67  4.7025123E-01
   7172.00  4.7115350E-01
