    FDMNES
    energy     <xanes>
   7097.00  5.3158490E-03
   7097.33  5.4478340E-03
   7097.67  5.5860398E-03
   7098.00  5.7308955E-03
   7098.33  5.8838535E-03
   7098.67  6.0446286E-03
   7099.00  6.2138052E-03
   7099.33  6.3932862E-03
   7099.67  6.5827782E-03
   7100.00  6.7830971E-03
   7100.33  6.9967974E-03
   7100.67  7.2236041E-03
   7101.00  7.4646895E-03
   7101.33  7.7235828E-03
   7101.67  8.0000858E-03
   7102.00  8.2959413E-03
   7102.33  8.6161935E-03
   7102.67  8.9608501E-03
   7103.00  9.3326083E-03
   7103.33  9.7389816E-03
   7103.67  1.0180470E-02
   7104.00  1.0661460E-02
   7104.33  1.1193726E-02
   7104.67  1.1778929E-02
   7105.00  1.2424659E-02
   7105.33  1.3150599E-02
   7105.67  1.3961247E-02
   7106.00  1.4870832E-02
   7106.33  1.5915177E-02
   7106.67  1.7106280E-02
   7107.00  1.8473901E-02
   7107.33  2.0091454E-02
   7107.67  2.1993575E-02
   7108.00  2.4253280E-02
   7108.33  2.7050491E-02
   7108.67  3.0505116E-02
   7109.00  3.4848686E-02
   7109.33  4.0676823E-02
   7109.67  4.8576990E-02
   7110.00  5.9691522E-02
   7110.33  7.7244908E-02
   7110.67  1.0483924E-01
   7111.00  1.4519440E-01
   7111.33  1.9142789E-01
   7111.67  2.3223480E-01
   7112.00  2.7927240E-01
   7112.33  3.5638167E-01
   7112.67  4.5665324E-01
   7113.00  5.6851852E-01
   7113.33  6.7654579E-01
   7113.67  7.1414206E-01
   7114.00  6.3803540E-01
   7114.33  5.0895056E-01
   7114.67  4.0095091E-01
   7115.00  3.2438539E-01
   7115.33  2.7502230E-01
   7115.67  2.4185887E-01
   7116.00  2.2045984E-01
   7116.33  2.0887234E-01
   7116.67  2.0345346E-01
   7117.00  2.0044405E-01
   7117.33  1.9369093E-01
   7117.67  1.8193126E-01
   7118.00  1.6790132E-01
   7118.33  1.5503101E-01
   7118.67  1.4454534E-01
   7119.00  1.3642826E-01
   7119.33  1.3031922E-01
   7119.67  1.2539080E-01
   7120.00  1.2137657E-01
   7120.33  1.1841224E-01
   7120.67  1.1653780E-01
   7121.00  1.1582933E-01
   7121.33  1.1640888E-01
   7121.67  1.1798903E-01
   7122.00  1.2037042E-01
   7122.33  1.2341761E-01
   7122.67  1.2694783E-01
   7123.00  1.3095040E-01
   7123.33  1.3554803E-01
   7123.67  1.4077927E-01
   7124.00  1.4675923E-01
   7124.33  1.5375895E-01
   7124.67  1.6184893E-01
   7125.00  1.7121312E-01
   7125.33  1.8229771E-01
   7125.67  1.9520868E-01
   7126.00  2.1021192E-01
   7126.33  2.2785336E-01
   7126.67  2.4794055E-01
   7127.00  2.7042879E-01
   7127.33  2.9550457E-01
   7127.67  3.2275142E-01
   7128.00  3.5200344E-01
   7128.33  3.8328434E-01
   7128.67  4.1645539E-01
   7129.00  4.5213980E-01
   7129.33  4.9219478E-01
   7129.67  5.3734525E-01
   7130.00  5.8785410E-01
   7130.33  6.4397513E-01
   7130.67  7.0470851E-01
   7131.00  7.6973962E-01
   7131.33  8.3824693E-01
   7131.67  9.0705635E-01
   7132.00  9.7279762E-01
   7132.33  1.0306774E+00
   7132.67  1.0783827E+00
   7133.00  1.1134629E+00
   7133.33  1.1307379E+00
   7133.67  1.1291688E+00
   7134.00  1.1077958E+00
   7134.33  1.0665845E+00
   7134.67  1.0128082E+00
   7135.00  9.5154665E-01
   7135.33  8.8758830E-01
   7135.67  8.2476995E-01
   7136.00  7.6498033E-01
   7136.33  7.1004121E-01
   7136.67  6.6012184E-01
   7137.00  6.1560073E-01
   7137.33  5.7749654E-01
   7137.67  5.4527672E-01
   7138.00  5.1896920E-01
   7138.33  4.9916595E-01
   7138.67  4.8483008E-01
   7139.00  4.7554625E-01
   7139.33  4.7125024E-01
   7139.67  4.7069690E-01
   7140.00  4.7329795E-01
   7140.33  4.7874762E-01
   7140.67  4.8620774E-01
   7141.00  4.9531494E-01
   7141.33  5.0588899E-01
   7141.67  5.1748048E-01
   7142.00  5.2986533E-01
   7142.33  5.4285417E-01
   7142.67  5.5611619E-01
   7143.00  5.6941558E-01
   7143.33  5.8243568E-01
   7143.67  5.9491268E-01
   7144.00  6.0659398E-01
   7144.33  6.1707179E-01
   7144.67  6.2624579E-01
   7145.00  6.3395518E-01
   7145.33  6.3986543E-01
   7145.67  6.4409954E-01
   7146.00  6.4663503E-01
   7146.33  6.4728292E-01
   7146.67  6.4631953E-01
   7147.00  6.4383443E-01
   7147.33  6.3979097E-01
   7147.67  6.3452650E-01
   7148.00  6.2819796E-01
   7148.33  6.2089048E-01
   7148.67  6.1291099E-01
   7149.00  6.0442721E-01
   7149.33  5.9558617E-01
   7149.67  5.8660331E-01
   7150.00  5.7762480E-01
   7150.33  5.6882699E-01
   7150.67  5.6032065E-01
   7151.00  5.5220451E-01
   7151.33  5.4464501E-01
   7151.67  5.3767864E-01
   7152.00  5.3138622E-01
   7152.33  5.2594958E-01
   7152.67  5.2135248E-01
   7153.00  5.1765601E-01
   7153.33  5.1504109E-01
   7153.67  5.1343331E-01
   7154.00  5.1285570E-01
   7154.33  5.1343807E-01
   7154.67  5.1501838E-01
   7155.00  5.1753757E-01
   7155.33  5.2099391E-01
   7155.67  5.2514069E-01
   7156.00  5.2983281E-01
   7156.33  5.3493165E-01
   7156.67  5.4020582E-01
   7157.00  5.4550360E-01
   7157.33  5.5065027E-01
   7157.67  5.5553039E-01
   7158.00  5.6005225E-01
   7158.33  5.6407752E-01
   7158.67  5.6759959E-01
   7159.00  5.7057874E-01
   7159.33  5.7290736E-01
   7159.67  5.7462908E-01
   7160.00  5.7572317E-01
   7160.33  5.7608972E-01
   7160.67  5.7579574E-01
   7161.00  5.7483028E-01
   7161.33  5.7309221E-01
   7161.67  5.7066555E-01
   7162.00  5.6756256E-01
   7162.33  5.6371936E-01
   7162.67  5.5924318E-01
   7163.00  5.5417056E-01
   7163.33  5.4848912E-01
   7163.67  5.4233031E-01
   7164.00  5.3575376E-01
   7164.33  5.2878820E-01
   7164.67  5.2154933E-01
   7165.00  5.1409846E-01
   7165.33  5.0648736E-01
   7165.67  4.9880011E-01
   7166.00  4.9108957E-01
   7166.33  4.8341682E-01
   7166.67  4.7582911E-01
   7167.00  4.6836608E-01
   7167.33  4.6109097E-01
   7167.67  4.5402257E-01
   7168.00  4.4719254E-01
   7168.33  4.4066951E-01
   7168.67  4.3445351E-01
   7169.00  4.2857517E-01
   7169.33  4.2311045E-01
   7169.67  4.1803287E-01
   7170.00  4.1335678E-01
   7170.33  4.0914966E-01
   7170.67  4.0537267E-01
   7171.00  4.0203582E-01
   7171.33  3.9920938E-01
   7171.67  3.9686002E-01
   7172.00  3.9501480E-01
