    FDMNES
    energy     <xanes>
   7097.00  5.2009922E-03
   7097.33  5.3217627E-03
   7097.67  5.4479655E-03
   7098.00  5.5799646E-03
   7098.33  5.7190113E-03
   7098.67  5.8648430E-03
   7099.00  6.0179538E-03
   7099.33  6.1799737E-03
   7099.67  6.3506311E-03
   7100.00  6.5306133E-03
   7100.33  6.7220973E-03
   7100.67  6.9248243E-03
   7101.00  7.1397798E-03
   7101.33  7.3699576E-03
   7101.67  7.6151617E-03
   7102.00  7.8768549E-03
   7102.33  8.1593025E-03
   7102.67  8.4624808E-03
   7103.00  8.7886558E-03
   7103.33  9.1441702E-03
   7103.67  9.5294213E-03
   7104.00  9.9481062E-03
   7104.33  1.0410176E-02
   7104.67  1.0917037E-02
   7105.00  1.1475130E-02
   7105.33  1.2101178E-02
   7105.67  1.2799100E-02
   7106.00  1.3581126E-02
   7106.33  1.4478051E-02
   7106.67  1.5500602E-02
   7107.00  1.6674919E-02
   7107.33  1.8065518E-02
   7107.67  1.9704413E-02
   7108.00  2.1658061E-02
   7108.33  2.4090887E-02
   7108.67  2.7119196E-02
   7109.00  3.0966204E-02
   7109.33  3.6213397E-02
   7109.67  4.3471511E-02
   7110.00  5.3934072E-02
   7110.33  7.0979889E-02
   7110.67  9.8023027E-02
   7111.00  1.3576660E-01
   7111.33  1.7627849E-01
   7111.67  2.1723848E-01
   7112.00  2.6134117E-01
   7112.33  3.0067969E-01
   7112.67  3.2708828E-01
   7113.00  3.5367500E-01
   7113.33  4.0391598E-01
   7113.67  4.5927582E-01
   7114.00  4.7619194E-01
   7114.33  4.3154288E-01
   7114.67  3.6870575E-01
   7115.00  3.1360970E-01
   7115.33  2.7623574E-01
   7115.67  2.5223608E-01
   7116.00  2.3784745E-01
   7116.33  2.2975320E-01
   7116.67  2.2304305E-01
   7117.00  2.1319670E-01
   7117.33  1.9739797E-01
   7117.67  1.8017136E-01
   7118.00  1.6550282E-01
   7118.33  1.5556781E-01
   7118.67  1.4919538E-01
   7119.00  1.4514538E-01
   7119.33  1.4211794E-01
   7119.67  1.3935862E-01
   7120.00  1.3699436E-01
   7120.33  1.3539488E-01
   7120.67  1.3447855E-01
   7121.00  1.3417559E-01
   7121.33  1.3499805E-01
   7121.67  1.3776769E-01
   7122.00  1.4320360E-01
   7122.33  1.5192117E-01
   7122.67  1.6334937E-01
   7123.00  1.7714268E-01
   7123.33  1.9276597E-01
   7123.67  2.0864333E-01
   7124.00  2.2330284E-01
   7124.33  2.3567031E-01
   7124.67  2.4716503E-01
   7125.00  2.5958748E-01
   7125.33  2.7426637E-01
   7125.67  2.9064432E-01
   7126.00  3.0836027E-01
   7126.33  3.2788911E-01
   7126.67  3.4938104E-01
   7127.00  3.7243185E-01
   7127.33  3.9632686E-01
   7127.67  4.2056165E-01
   7128.00  4.4485881E-01
   7128.33  4.6882474E-01
   7128.67  4.9250086E-01
   7129.00  5.1635651E-01
   7129.33  5.4151600E-01
   7129.67  5.6875175E-01
   7130.00  5.9845344E-01
   7130.33  6.3081677E-01
   7130.67  6.6498624E-01
   7131.00  7.0030373E-01
   7131.33  7.3606809E-01
   7131.67  7.7165671E-01
   7132.00  8.0680990E-01
   7132.33  8.4148983E-01
   7132.67  8.7594648E-01
   7133.00  9.1009190E-01
   7133.33  9.4246209E-01
   7133.67  9.6992017E-01
   7134.00  9.8812418E-01
   7134.33  9.9054146E-01
   7134.67  9.7726301E-01
   7135.00  9.5024310E-01
   7135.33  9.1301188E-01
   7135.67  8.7148965E-01
   7136.00  8.2871881E-01
   7136.33  7.8697044E-01
   7136.67  7.4724251E-01
   7137.00  7.1004494E-01
   7137.33  6.7613465E-01
   7137.67  6.4547451E-01
   7138.00  6.1832285E-01
   7138.33  5.9537477E-01
   7138.67  5.7624547E-01
   7139.00  5.6085200E-01
   7139.33  5.4934867E-01
   7139.67  5.4087466E-01
   7140.00  5.3499811E-01
   7140.33  5.3147299E-01
   7140.67  5.2956870E-01
   7141.00  5.2891911E-01
   7141.33  5.2923366E-01
   7141.67  5.3001928E-01
   7142.00  5.3094179E-01
   7142.33  5.3159624E-01
   7142.67  5.3169295E-01
   7143.00  5.3102335E-01
   7143.33  5.2932399E-01
   7143.67  5.2666097E-01
   7144.00  5.2305776E-01
   7144.33  5.1848717E-01
   7144.67  5.1318329E-01
   7145.00  5.0729184E-01
   7145.33  5.0097634E-01
   7145.67  4.9452456E-01
   7146.00  4.8815111E-01
   7146.33  4.8213143E-01
   7146.67  4.7661173E-01
   7147.00  4.7169164E-01
   7147.33  4.6752505E-01
   7147.67  4.6407154E-01
   7148.00  4.6135018E-01
   7148.33  4.5945573E-01
   7148.67  4.5828254E-01
   7149.00  4.5780940E-01
   7149.33  4.5808775E-01
   7149.67  4.5899325E-01
   7150.00  4.6048482E-01
   7150.33  4.6258653E-01
   7150.67  4.6519068E-01
   7151.00  4.6826233E-01
   7151.33  4.7181164E-01
   7151.67  4.7573857E-01
   7152.00  4.7999827E-01
   7152.33  4.8456661E-01
   7152.67  4.8934344E-01
   7153.00  4.9426622E-01
   7153.33  4.9926493E-01
   7153.67  5.0424810E-01
   7154.00  5.0914283E-01
   7154.33  5.1384401E-01
   7154.67  5.1829301E-01
   7155.00  5.2242772E-01
   7155.33  5.2614269E-01
   7155.67  5.2944275E-01
   7156.00  5.3230581E-01
   7156.33  5.3466578E-01
   7156.67  5.3658367E-01
   7157.00  5.3807468E-01
   7157.33  5.3911797E-01
   7157.67  5.3980266E-01
   7158.00  5.4016972E-01
   7158.33  5.4024126E-01
   7158.67  5.4011181E-01
   7159.00  5.3983889E-01
   7159.33  5.3948448E-01
   7159.67  5.3913100E-01
   7160.00  5.3884104E-01
   7160.33  5.3869844E-01
   7160.67  5.3873879E-01
   7161.00  5.3899236E-01
   7161.33  5.3951575E-01
   7161.67  5.4029911E-01
   7162.00  5.4134902E-01
   7162.33  5.4269200E-01
   7162.67  5.4427379E-01
   7163.00  5.4605763E-01
   7163.33  5.4800705E-01
   7163.67  5.5004988E-01
   7164.00  5.5213714E-01
   7164.33  5.5420467E-01
   7164.67  5.5618837E-01
   7165.00  5.5802954E-01
   7165.33  5.5963407E-01
   7165.67  5.6096231E-01
   7166.00  5.6196049E-01
   7166.33  5.6252337E-01
   7166.67  5.6265031E-01
   7167.00  5.6230611E-01
   7167.33  5.6139648E-01
   7167.67  5.5996562E-01
   7168.00  5.5800873E-01
   7168.33  5.5546911E-01
   7168.67  5.5244113E-01
   7169.00  5.4896952E-01
   7169.33  5.4506546E-01
   7169.67  5.4084561E-01
   7170.00  5.3637971E-01
   7170.33  5.3174176E-01
   7170.67  5.2705881E-01
   7171.00  5.2244030E-01
   7171.33  5.1807805E-01
   7171.67  5.1418008E-01
   7172.00  5.1101787E-01
