    FDMNES
    energy     <xanes>
   7097.00  5.4675282E-03
   7097.33  5.6138388E-03
   7097.67  5.7675071E-03
   7098.00  5.9290662E-03
   7098.33  6.1002771E-03
   7098.67  6.2808375E-03
   7099.00  6.4714817E-03
   7099.33  6.6745457E-03
   7099.67  6.8897283E-03
   7100.00  7.1180671E-03
   7100.33  7.3627406E-03
   7100.67  7.6234886E-03
   7101.00  7.9018217E-03
   7101.33  8.2021957E-03
   7101.67  8.5244781E-03
   7102.00  8.8709466E-03
   7102.33  9.2480736E-03
   7102.67  9.6560436E-03
   7103.00  1.0098439E-02
   7103.33  1.0585074E-02
   7103.67  1.1116874E-02
   7104.00  1.1699772E-02
   7104.33  1.2349462E-02
   7104.67  1.3068613E-02
   7105.00  1.3867705E-02
   7105.33  1.4773593E-02
   7105.67  1.5793234E-02
   7106.00  1.6946773E-02
   7106.33  1.8284462E-02
   7106.67  1.9824786E-02
   7107.00  2.1611167E-02
   7107.33  2.3750157E-02
   7107.67  2.6295918E-02
   7108.00  2.9359104E-02
   7108.33  3.3212375E-02
   7108.67  3.8049005E-02
   7109.00  4.4237492E-02
   7109.33  5.2733099E-02
   7109.67  6.4526914E-02
   7110.00  8.1543469E-02
   7110.33  1.0913986E-01
   7110.67  1.5212205E-01
   7111.00  2.0991191E-01
   7111.33  2.7756215E-01
   7111.67  3.7344503E-01
   7112.00  5.0032834E-01
   7112.33  5.8643879E-01
   7112.67  6.0242401E-01
   7113.00  6.1292611E-01
   7113.33  6.6621498E-01
   7113.67  7.1455886E-01
   7114.00  6.9175763E-01
   7114.33  5.8560668E-01
   7114.67  4.6972082E-01
   7115.00  3.7623094E-01
   7115.33  3.1162925E-01
   7115.67  2.6550874E-01
   7116.00  2.3201941E-01
   7116.33  2.0748259E-01
   7116.67  1.8813445E-01
   7117.00  1.7262249E-01
   7117.33  1.6051504E-01
   7117.67  1.5103430E-01
   7118.00  1.4375757E-01
   7118.33  1.3802410E-01
   7118.67  1.3260710E-01
   7119.00  1.2660915E-01
   7119.33  1.1973032E-01
   7119.67  1.1338018E-01
   7120.00  1.0913379E-01
   7120.33  1.0809992E-01
   7120.67  1.0922947E-01
   7121.00  1.1145944E-01
   7121.33  1.1307779E-01
   7121.67  1.1241645E-01
   7122.00  1.0946144E-01
   7122.33  1.0636885E-01
   7122.67  1.0504791E-01
   7123.00  1.0570429E-01
   7123.33  1.0795503E-01
   7123.67  1.1106545E-01
   7124.00  1.1475521E-01
   7124.33  1.1894148E-01
   7124.67  1.2353600E-01
   7125.00  1.2851198E-01
   7125.33  1.3385166E-01
   7125.67  1.3962584E-01
   7126.00  1.4619658E-01
   7126.33  1.5418513E-01
   7126.67  1.6375042E-01
   7127.00  1.7508385E-01
   7127.33  1.8839616E-01
   7127.67  2.0300396E-01
   7128.00  2.1846790E-01
   7128.33  2.3545045E-01
   7128.67  2.5561891E-01
   7129.00  2.8087809E-01
   7129.33  3.1397960E-01
   7129.67  3.5535023E-01
   7130.00  4.0530058E-01
   7130.33  4.6335302E-01
   7130.67  5.2522840E-01
   7131.00  5.8779747E-01
   7131.33  6.4953937E-01
   7131.67  7.1191483E-01
   7132.00  7.7720557E-01
   7132.33  8.4913511E-01
   7132.67  9.2835465E-01
   7133.00  1.0100044E+00
   7133.33  1.0740637E+00
   7133.67  1.1027017E+00
   7134.00  1.0948967E+00
   7134.33  1.0637240E+00
   7134.67  1.0266501E+00
   7135.00  9.8885658E-01
   7135.33  9.4985132E-01
   7135.67  9.0731895E-01
   7136.00  8.6059055E-01
   7136.33  8.1147309E-01
   7136.67  7.6369581E-01
   7137.00  7.1960558E-01
   7137.33  6.8097101E-01
   7137.67  6.4688265E-01
   7138.00  6.1638152E-01
   7138.33  5.8854155E-01
   7138.67  5.6250137E-01
   7139.00  5.3868033E-01
   7139.33  5.1888314E-01
   7139.67  5.0423437E-01
   7140.00  4.9568795E-01
   7140.33  4.9440088E-01
   7140.67  4.9915947E-01
   7141.00  5.0917915E-01
   7141.33  5.2375747E-01
   7141.67  5.4104153E-01
   7142.00  5.5988170E-01
   7142.33  5.7907739E-01
   7142.67  5.9753814E-01
   7143.00  6.1458899E-01
   7143.33  6.2953197E-01
   7143.67  6.4246085E-01
   7144.00  6.5344116E-01
   7144.33  6.6243942E-01
   7144.67  6.6989051E-01
   7145.00  6.7595516E-01
   7145.33  6.8061535E-01
   7145.67  6.8411039E-01
   7146.00  6.8647512E-01
   7146.33  6.8758173E-01
   7146.67  6.8756619E-01
   7147.00  6.8642421E-01
   7147.33  6.8402216E-01
   7147.67  6.8052895E-01
   7148.00  6.7599325E-01
   7148.33  6.7038649E-01
   7148.67  6.6396274E-01
   7149.00  6.5687540E-01
   7149.33  6.4927438E-01
   7149.67  6.4141888E-01
   7150.00  6.3346932E-01
   7150.33  6.2562837E-01
   7150.67  6.1808165E-01
   7151.00  6.1099782E-01
   7151.33  6.0464372E-01
   7151.67  5.9910265E-01
   7152.00  5.9448957E-01
   7152.33  5.9102283E-01
   7152.67  5.8860744E-01
   7153.00  5.8721803E-01
   7153.33  5.8688098E-01
   7153.67  5.8733657E-01
   7154.00  5.8843862E-01
   7154.33  5.9007230E-01
   7154.67  5.9202191E-01
   7155.00  5.9417700E-01
   7155.33  5.9645243E-01
   7155.67  5.9876427E-01
   7156.00  6.0106843E-01
   7156.33  6.0331950E-01
   7156.67  6.0548976E-01
   7157.00  6.0755133E-01
   7157.33  6.0945223E-01
   7157.67  6.1117202E-01
   7158.00  6.1267226E-01
   7158.33  6.1386477E-01
   7158.67  6.1472138E-01
   7159.00  6.1518421E-01
   7159.33  6.1512250E-01
   7159.67  6.1451427E-01
   7160.00  6.1328375E-01
   7160.33  6.1124988E-01
   7160.67  6.0840656E-01
   7161.00  6.0466824E-01
   7161.33  5.9980694E-01
   7161.67  5.9385069E-01
   7162.00  5.8673232E-01
   7162.33  5.7824736E-01
   7162.67  5.6853293E-01
   7163.00  5.5761078E-01
   7163.33  5.4541718E-01
   7163.67  5.3223711E-01
   7164.00  5.1823680E-01
   7164.33  5.0356935E-01
   7164.67  4.8855625E-01
   7165.00  4.7341222E-01
   7165.33  4.5838660E-01
   7165.67  4.4367678E-01
   7166.00  4.2943885E-01
   7166.33  4.1590096E-01
   7166.67  4.0310276E-01
   7167.00  3.9112243E-01
   7167.33  3.8014041E-01
   7167.67  3.7009318E-01
   7168.00  3.6100110E-01
   7168.33  3.5299382E-01
   7168.67  3.4594806E-01
   7169.00  3.3984752E-01
   7169.33  3.3476852E-01
   7169.67  3.3055210E-01
   7170.00  3.2715435E-01
   7170.33  3.2460864E-01
   7170.67  3.2274561E-01
   7171.00  3.2148781E-01
   7171.33  3.2078239E-01
   7171.67  3.2040988E-01
   7172.00  3.2018958E-01
