    FDMNES
    energy     <xanes>
   7097.00  4.6001526E-03
   7097.33  4.6983204E-03
   7097.67  4.8005067E-03
   7098.00  4.9069631E-03
   7098.33  5.0185864E-03
   7098.67  5.1351605E-03
   7099.00  5.2570242E-03
   7099.33  5.3853319E-03
   7099.67  5.5198585E-03
   7100.00  5.6610731E-03
   7100.33  5.8105014E-03
   7100.67  5.9679254E-03
   7101.00  6.1340168E-03
   7101.33  6.3108583E-03
   7101.67  6.4982765E-03
   7102.00  6.6972719E-03
   7102.33  6.9108034E-03
   7102.67  7.1388264E-03
   7103.00  7.3829071E-03
   7103.33  7.6474618E-03
   7103.67  7.9327733E-03
   7104.00  8.2414460E-03
   7104.33  8.5805010E-03
   7104.67  8.9510354E-03
   7105.00  9.3577276E-03
   7105.33  9.8126910E-03
   7105.67  1.0319139E-02
   7106.00  1.0886368E-02
   7106.33  1.1537684E-02
   7106.67  1.2282350E-02
   7107.00  1.3141538E-02
   7107.33  1.4167417E-02
   7107.67  1.5389447E-02
   7108.00  1.6866227E-02
   7108.33  1.8743585E-02
   7108.67  2.1137338E-02
   7109.00  2.4266079E-02
   7109.33  2.8708744E-02
   7109.67  3.5128744E-02
   7110.00  4.4827446E-02
   7110.33  6.1559000E-02
   7110.67  8.9357385E-02
   7111.00  1.2938019E-01
   7111.33  1.7093963E-01
   7111.67  1.9804454E-01
   7112.00  2.0302062E-01
   7112.33  1.9339816E-01
   7112.67  1.7869780E-01
   7113.00  1.6133913E-01
   7113.33  1.4166911E-01
   7113.67  1.2050678E-01
   7114.00  1.0100484E-01
   7114.33  8.6205167E-02
   7114.67  7.6385056E-02
   7115.00  7.1730194E-02
   7115.33  7.2618771E-02
   7115.67  7.8377709E-02
   7116.00  8.9138420E-02
   7116.33  1.0533158E-01
   7116.67  1.2598466E-01
   7117.00  1.5109885E-01
   7117.33  1.8035630E-01
   7117.67  2.0969672E-01
   7118.00  2.3406949E-01
   7118.33  2.4772966E-01
   7118.67  2.5283674E-01
   7119.00  2.5453532E-01
   7119.33  2.5873950E-01
   7119.67  2.6685199E-01
   7120.00  2.7767403E-01
   7120.33  2.8916804E-01
   7120.67  3.0020548E-01
   7121.00  3.1065246E-01
   7121.33  3.2025533E-01
   7121.67  3.2909929E-01
   7122.00  3.3773345E-01
   7122.33  3.4746182E-01
   7122.67  3.5942507E-01
   7123.00  3.7417981E-01
   7123.33  3.9109298E-01
   7123.67  4.0725703E-01
   7124.00  4.2041163E-01
   7124.33  4.3031607E-01
   7124.67  4.4021764E-01
   7125.00  4.5256326E-01
   7125.33  4.6881577E-01
   7125.67  4.8751471E-01
   7126.00  5.0619258E-01
   7126.33  5.2024141E-01
   7126.67  5.2767642E-01
   7127.00  5.2939008E-01
   7127.33  5.2821466E-01
   7127.67  5.2741048E-01
   7128.00  5.2800640E-01
   7128.33  5.2946528E-01
   7128.67  5.3056077E-01
   7129.00  5.3087877E-01
   7129.33  5.3014692E-01
   7129.67  5.2803761E-01
   7130.00  5.2418842E-01
   7130.33  5.1893243E-01
   7130.67  5.1422436E-01
   7131.00  5.1229693E-01
   7131.33  5.1614046E-01
   7131.67  5.2577982E-01
   7132.00  5.3990609E-01
   7132.33  5.5595631E-01
   7132.67  5.7149856E-01
   7133.00  5.8618404E-01
   7133.33  6.0138934E-01
   7133.67  6.1874348E-01
   7134.00  6.3831428E-01
   7134.33  6.5702076E-01
   7134.67  6.6983897E-01
   7135.00  6.7374965E-01
   7135.33  6.6848559E-01
   7135.67  6.5885214E-01
   7136.00  6.4806140E-01
   7136.33  6.3849086E-01
   7136.67  6.3071525E-01
   7137.00  6.2459898E-01
   7137.33  6.1982330E-01
   7137.67  6.1575896E-01
   7138.00  6.1203740E-01
   7138.33  6.0821499E-01
   7138.67  6.0388151E-01
   7139.00  5.9878314E-01
   7139.33  5.9279190E-01
   7139.67  5.8630607E-01
   7140.00  5.7976930E-01
   7140.33  5.7380876E-01
   7140.67  5.6880007E-01
   7141.00  5.6492614E-01
   7141.33  5.6227134E-01
   7141.67  5.6039971E-01
   7142.00  5.5892538E-01
   7142.33  5.5737692E-01
   7142.67  5.5544328E-01
   7143.00  5.5305348E-01
   7143.33  5.5031175E-01
   7143.67  5.4749583E-01
   7144.00  5.4473255E-01
   7144.33  5.4195227E-01
   7144.67  5.3884606E-01
   7145.00  5.3502409E-01
   7145.33  5.2989989E-01
   7145.67  5.2335429E-01
   7146.00  5.1539342E-01
   7146.33  5.0618894E-01
   7146.67  4.9643317E-01
   7147.00  4.8667082E-01
   7147.33  4.7752227E-01
   7147.67  4.6930562E-01
   7148.00  4.6221187E-01
   7148.33  4.5647669E-01
   7148.67  4.5193003E-01
   7149.00  4.4850589E-01
   7149.33  4.4622607E-01
   7149.67  4.4484771E-01
   7150.00  4.4427239E-01
   7150.33  4.4447183E-01
   7150.67  4.4523488E-01
   7151.00  4.4644661E-01
   7151.33  4.4801408E-01
   7151.67  4.4977548E-01
   7152.00  4.5164478E-01
   7152.33  4.5357062E-01
   7152.67  4.5555058E-01
   7153.00  4.5763650E-01
   7153.33  4.5995025E-01
   7153.67  4.6256708E-01
   7154.00  4.6555281E-01
   7154.33  4.6900045E-01
   7154.67  4.7285100E-01
   7155.00  4.7705336E-01
   7155.33  4.8153915E-01
   7155.67  4.8615451E-01
   7156.00  4.9079329E-01
   7156.33  4.9533368E-01
   7156.67  4.9969816E-01
   7157.00  5.0382969E-01
   7157.33  5.0764434E-01
   7157.67  5.1114160E-01
   7158.00  5.1429353E-01
   7158.33  5.1701537E-01
   7158.67  5.1931219E-01
   7159.00  5.2114171E-01
   7159.33  5.2238331E-01
   7159.67  5.2304833E-01
   7160.00  5.2310340E-01
   7160.33  5.2245875E-01
   7160.67  5.2121170E-01
   7161.00  5.1940657E-01
   7161.33  5.1706834E-01
   7161.67  5.1436704E-01
   7162.00  5.1140699E-01
   7162.33  5.0829363E-01
   7162.67  5.0516056E-01
   7163.00  5.0209385E-01
   7163.33  4.9918797E-01
   7163.67  4.9647295E-01
   7164.00  4.9396709E-01
   7164.33  4.9169316E-01
   7164.67  4.8960120E-01
   7165.00  4.8765961E-01
   7165.33  4.8584063E-01
   7165.67  4.8409226E-01
   7166.00  4.8238958E-01
   7166.33  4.8072009E-01
   7166.67  4.7907825E-01
   7167.00  4.7747228E-01
   7167.33  4.7592515E-01
   7167.67  4.7444920E-01
   7168.00  4.7305975E-01
   7168.33  4.7178319E-01
   7168.67  4.7061475E-01
   7169.00  4.6955558E-01
   7169.33  4.6861316E-01
   7169.67  4.6776264E-01
   7170.00  4.6699008E-01
   7170.33  4.6628460E-01
   7170.67  4.6562165E-01
   7171.00  4.6499113E-01
   7171.33  4.6439601E-01
   7171.67  4.6385106E-01
   7172.00  4.6339168E-01
