    FDMNES
    energy     <xanes>
   7097.00  4.6079033E-03
   7097.33  4.7084208E-03
   7097.67  4.8131725E-03
   7098.00  4.9224311E-03
   7098.33  5.0371545E-03
   7098.67  5.1571252E-03
   7099.00  5.2827130E-03
   7099.33  5.4151591E-03
   7099.67  5.5542398E-03
   7100.00  5.7004704E-03
   7100.33  5.8555043E-03
   7100.67  6.0191303E-03
   7101.00  6.1920920E-03
   7101.33  6.3766652E-03
   7101.67  6.5726958E-03
   7102.00  6.7813001E-03
   7102.33  7.0057406E-03
   7102.67  7.2460201E-03
   7103.00  7.5039003E-03
   7103.33  7.7842999E-03
   7103.67  8.0876119E-03
   7104.00  8.4167932E-03
   7104.33  8.7797495E-03
   7104.67  9.1778413E-03
   7105.00  9.6164362E-03
   7105.33  1.0109342E-02
   7105.67  1.0660443E-02
   7106.00  1.1280538E-02
   7106.33  1.1996580E-02
   7106.67  1.2819742E-02
   7107.00  1.3775007E-02
   7107.33  1.4923843E-02
   7107.67  1.6302178E-02
   7108.00  1.7980722E-02
   7108.33  2.0135912E-02
   7108.67  2.2912547E-02
   7109.00  2.6583711E-02
   7109.33  3.1879169E-02
   7109.67  3.9663961E-02
   7110.00  5.1645496E-02
   7110.33  7.2762960E-02
   7110.67  1.0792657E-01
   7111.00  1.5571501E-01
   7111.33  1.9278750E-01
   7111.67  2.0855212E-01
   7112.00  2.0797653E-01
   7112.33  1.9842828E-01
   7112.67  1.8821766E-01
   7113.00  1.7399207E-01
   7113.33  1.5568220E-01
   7113.67  1.4143402E-01
   7114.00  1.3353362E-01
   7114.33  1.2625324E-01
   7114.67  1.1193219E-01
   7115.00  9.4724710E-02
   7115.33  8.3820516E-02
   7115.67  7.9727074E-02
   7116.00  8.1269573E-02
   7116.33  8.8350127E-02
   7116.67  1.0056478E-01
   7117.00  1.1854037E-01
   7117.33  1.4391225E-01
   7117.67  1.7668550E-01
   7118.00  2.1717557E-01
   7118.33  2.6330719E-01
   7118.67  3.0655896E-01
   7119.00  3.3842466E-01
   7119.33  3.5254063E-01
   7119.67  3.5498528E-01
   7120.00  3.5124867E-01
   7120.33  3.4477503E-01
   7120.67  3.3761744E-01
   7121.00  3.3092259E-01
   7121.33  3.2587819E-01
   7121.67  3.2269789E-01
   7122.00  3.2123454E-01
   7122.33  3.2112862E-01
   7122.67  3.2170254E-01
   7123.00  3.2275562E-01
   7123.33  3.2459584E-01
   7123.67  3.2767519E-01
   7124.00  3.3238126E-01
   7124.33  3.3860969E-01
   7124.67  3.4508666E-01
   7125.00  3.5111326E-01
   7125.33  3.5708725E-01
   7125.67  3.6438642E-01
   7126.00  3.7409688E-01
   7126.33  3.8672533E-01
   7126.67  4.0085371E-01
   7127.00  4.1515190E-01
   7127.33  4.2844672E-01
   7127.67  4.4084813E-01
   7128.00  4.5294347E-01
   7128.33  4.6520865E-01
   7128.67  4.7742919E-01
   7129.00  4.8907625E-01
   7129.33  4.9932160E-01
   7129.67  5.0800690E-01
   7130.00  5.1545674E-01
   7130.33  5.2270373E-01
   7130.67  5.3087459E-01
   7131.00  5.4028458E-01
   7131.33  5.5031450E-01
   7131.67  5.5940714E-01
   7132.00  5.6629218E-01
   7132.33  5.6995290E-01
   7132.67  5.7115873E-01
   7133.00  5.7077456E-01
   7133.33  5.6990763E-01
   7133.67  5.6982937E-01
   7134.00  5.7165969E-01
   7134.33  5.7689088E-01
   7134.67  5.8538997E-01
   7135.00  5.9639866E-01
   7135.33  6.0842100E-01
   7135.67  6.1969860E-01
   7136.00  6.2924421E-01
   7136.33  6.3633123E-01
   7136.67  6.4142205E-01
   7137.00  6.4497484E-01
   7137.33  6.4746460E-01
   7137.67  6.4944394E-01
   7138.00  6.5105675E-01
   7138.33  6.5211572E-01
   7138.67  6.5230620E-01
   7139.00  6.5121283E-01
   7139.33  6.4818456E-01
   7139.67  6.4317606E-01
   7140.00  6.3614690E-01
   7140.33  6.2702482E-01
   7140.67  6.1640600E-01
   7141.00  6.0474862E-01
   7141.33  5.9266165E-01
   7141.67  5.8086640E-01
   7142.00  5.6984925E-01
   7142.33  5.6017433E-01
   7142.67  5.5194190E-01
   7143.00  5.4523492E-01
   7143.33  5.4019660E-01
   7143.67  5.3647443E-01
   7144.00  5.3384770E-01
   7144.33  5.3209988E-01
   7144.67  5.3080634E-01
   7145.00  5.2972346E-01
   7145.33  5.2866720E-01
   7145.67  5.2758431E-01
   7146.00  5.2653754E-01
   7146.33  5.2570874E-01
   7146.67  5.2526488E-01
   7147.00  5.2533985E-01
   7147.33  5.2608442E-01
   7147.67  5.2740777E-01
   7148.00  5.2922554E-01
   7148.33  5.3141413E-01
   7148.67  5.3373542E-01
   7149.00  5.3602719E-01
   7149.33  5.3811595E-01
   7149.67  5.3993431E-01
   7150.00  5.4144936E-01
   7150.33  5.4262358E-01
   7150.67  5.4352696E-01
   7151.00  5.4420277E-01
   7151.33  5.4468034E-01
   7151.67  5.4502665E-01
   7152.00  5.4528041E-01
   7152.33  5.4547194E-01
   7152.67  5.4563089E-01
   7153.00  5.4576520E-01
   7153.33  5.4586975E-01
   7153.67  5.4593953E-01
   7154.00  5.4596884E-01
   7154.33  5.4595375E-01
   7154.67  5.4590951E-01
   7155.00  5.4585714E-01
   7155.33  5.4583493E-01
   7155.67  5.4587540E-01
   7156.00  5.4600281E-01
   7156.33  5.4624451E-01
   7156.67  5.4658606E-01
   7157.00  5.4701499E-01
   7157.33  5.4751794E-01
   7157.67  5.4806356E-01
   7158.00  5.4863340E-01
   7158.33  5.4920978E-01
   7158.67  5.4977739E-01
   7159.00  5.5032247E-01
   7159.33  5.5080900E-01
   7159.67  5.5120187E-01
   7160.00  5.5146358E-01
   7160.33  5.5151598E-01
   7160.67  5.5131602E-01
   7161.00  5.5080283E-01
   7161.33  5.4986004E-01
   7161.67  5.4847651E-01
   7162.00  5.4661555E-01
   7162.33  5.4419529E-01
   7162.67  5.4128845E-01
   7163.00  5.3792871E-01
   7163.33  5.3412980E-01
   7163.67  5.3001860E-01
   7164.00  5.2566498E-01
   7164.33  5.2112138E-01
   7164.67  5.1647566E-01
   7165.00  5.1177893E-01
   7165.33  5.0707937E-01
   7165.67  5.0241564E-01
   7166.00  4.9781377E-01
   7166.33  4.9330608E-01
   7166.67  4.8889421E-01
   7167.00  4.8458097E-01
   7167.33  4.8037532E-01
   7167.67  4.7625957E-01
   7168.00  4.7222917E-01
   7168.33  4.6829171E-01
   7168.67  4.6443868E-01
   7169.00  4.6067608E-01
   7169.33  4.5702929E-01
   7169.67  4.5350422E-01
   7170.00  4.5012171E-01
   7170.33  4.4693229E-01
   7170.67  4.4394874E-01
   7171.00  4.4120498E-01
   7171.33  4.3878491E-01
   7171.67  4.3671822E-01
   7172.00  4.3507533E-01
