    FDMNES
    energy     <xanes>
   7097.00  4.5829743E-03
   7097.33  4.6823001E-03
   7097.67  4.7857521E-03
   7098.00  4.8935920E-03
   7098.33  5.0067455E-03
   7098.67  5.1249944E-03
   7099.00  5.2486913E-03
   7099.33  5.3790302E-03
   7099.67  5.5157841E-03
   7100.00  5.6594415E-03
   7100.33  5.8115832E-03
   7100.67  5.9719900E-03
   7101.00  6.1413610E-03
   7101.33  6.3218569E-03
   7101.67  6.5133038E-03
   7102.00  6.7167423E-03
   7102.33  6.9352421E-03
   7102.67  7.1687604E-03
   7103.00  7.4189212E-03
   7103.33  7.6903003E-03
   7103.67  7.9831847E-03
   7104.00  8.3002622E-03
   7104.33  8.6487810E-03
   7104.67  9.0298419E-03
   7105.00  9.4482372E-03
   7105.33  9.9163870E-03
   7105.67  1.0437486E-02
   7106.00  1.1020952E-02
   7106.33  1.1690417E-02
   7106.67  1.2454984E-02
   7107.00  1.3335764E-02
   7107.33  1.4384787E-02
   7107.67  1.5630551E-02
   7108.00  1.7130257E-02
   7108.33  1.9026001E-02
   7108.67  2.1427543E-02
   7109.00  2.4542666E-02
   7109.33  2.8919115E-02
   7109.67  3.5171233E-02
   7110.00  4.4502127E-02
   7110.33  6.0365215E-02
   7110.67  8.6414131E-02
   7111.00  1.2354360E-01
   7111.33  1.6139416E-01
   7111.67  1.9060273E-01
   7112.00  2.1455389E-01
   7112.33  2.3349896E-01
   7112.67  2.2951226E-01
   7113.00  2.0214498E-01
   7113.33  1.7232907E-01
   7113.67  1.4888632E-01
   7114.00  1.2961898E-01
   7114.33  1.1271857E-01
   7114.67  9.8624928E-02
   7115.00  8.8171503E-02
   7115.33  8.2634505E-02
   7115.67  8.1749570E-02
   7116.00  8.5544699E-02
   7116.33  9.5000297E-02
   7116.67  1.1039268E-01
   7117.00  1.3280074E-01
   7117.33  1.6438110E-01
   7117.67  2.0432235E-01
   7118.00  2.5070142E-01
   7118.33  2.9562878E-01
   7118.67  3.2544921E-01
   7119.00  3.3234747E-01
   7119.33  3.2037624E-01
   7119.67  3.0359054E-01
   7120.00  2.8795064E-01
   7120.33  2.7639210E-01
   7120.67  2.6865700E-01
   7121.00  2.6461689E-01
   7121.33  2.6517139E-01
   7121.67  2.7033632E-01
   7122.00  2.8016068E-01
   7122.33  2.9422431E-01
   7122.67  3.0976918E-01
   7123.00  3.2389502E-01
   7123.33  3.3304681E-01
   7123.67  3.3757856E-01
   7124.00  3.3985673E-01
   7124.33  3.4275852E-01
   7124.67  3.4700361E-01
   7125.00  3.5208253E-01
   7125.33  3.5798509E-01
   7125.67  3.6611547E-01
   7126.00  3.7763418E-01
   7126.33  3.9179396E-01
   7126.67  4.0555521E-01
   7127.00  4.1742784E-01
   7127.33  4.2704103E-01
   7127.67  4.3492668E-01
   7128.00  4.4139085E-01
   7128.33  4.4722976E-01
   7128.67  4.5408340E-01
   7129.00  4.6355844E-01
   7129.33  4.7757911E-01
   7129.67  4.9600366E-01
   7130.00  5.1821397E-01
   7130.33  5.4286651E-01
   7130.67  5.6745054E-01
   7131.00  5.8987611E-01
   7131.33  6.0742475E-01
   7131.67  6.1956723E-01
   7132.00  6.2688504E-01
   7132.33  6.3111467E-01
   7132.67  6.3503245E-01
   7133.00  6.4027550E-01
   7133.33  6.4805212E-01
   7133.67  6.5804185E-01
   7134.00  6.7005807E-01
   7134.33  6.8465924E-01
   7134.67  7.0170133E-01
   7135.00  7.2023054E-01
   7135.33  7.3786515E-01
   7135.67  7.5253127E-01
   7136.00  7.6335107E-01
   7136.33  7.7001577E-01
   7136.67  7.7368855E-01
   7137.00  7.7483901E-01
   7137.33  7.7329585E-01
   7137.67  7.6920201E-01
   7138.00  7.6244849E-01
   7138.33  7.5278785E-01
   7138.67  7.4079322E-01
   7139.00  7.2671970E-01
   7139.33  7.1063221E-01
   7139.67  6.9306823E-01
   7140.00  6.7435099E-01
   7140.33  6.5481394E-01
   7140.67  6.3496688E-01
   7141.00  6.1512888E-01
   7141.33  5.9566353E-01
   7141.67  5.7682424E-01
   7142.00  5.5884479E-01
   7142.33  5.4207289E-01
   7142.67  5.2653120E-01
   7143.00  5.1231749E-01
   7143.33  4.9965581E-01
   7143.67  4.8834852E-01
   7144.00  4.7831976E-01
   7144.33  4.6958326E-01
   7144.67  4.6185556E-01
   7145.00  4.5503509E-01
   7145.33  4.4914507E-01
   7145.67  4.4405483E-01
   7146.00  4.3978086E-01
   7146.33  4.3647759E-01
   7146.67  4.3409335E-01
   7147.00  4.3267805E-01
   7147.33  4.3239650E-01
   7147.67  4.3312181E-01
   7148.00  4.3482929E-01
   7148.33  4.3757973E-01
   7148.67  4.4118987E-01
   7149.00  4.4560476E-01
   7149.33  4.5085012E-01
   7149.67  4.5676387E-01
   7150.00  4.6329751E-01
   7150.33  4.7048835E-01
   7150.67  4.7822016E-01
   7151.00  4.8642952E-01
   7151.33  4.9504837E-01
   7151.67  5.0387212E-01
   7152.00  5.1272967E-01
   7152.33  5.2135758E-01
   7152.67  5.2952128E-01
   7153.00  5.3702089E-01
   7153.33  5.4357080E-01
   7153.67  5.4916090E-01
   7154.00  5.5374867E-01
   7154.33  5.5722452E-01
   7154.67  5.5978045E-01
   7155.00  5.6150366E-01
   7155.33  5.6242149E-01
   7155.67  5.6274068E-01
   7156.00  5.6255251E-01
   7156.33  5.6189186E-01
   7156.67  5.6087077E-01
   7157.00  5.5951207E-01
   7157.33  5.5776074E-01
   7157.67  5.5560739E-01
   7158.00  5.5297747E-01
   7158.33  5.4969196E-01
   7158.67  5.4572566E-01
   7159.00  5.4103030E-01
   7159.33  5.3553069E-01
   7159.67  5.2941978E-01
   7160.00  5.2284721E-01
   7160.33  5.1598290E-01
   7160.67  5.0905915E-01
   7161.00  5.0223247E-01
   7161.33  4.9568940E-01
   7161.67  4.8950703E-01
   7162.00  4.8374091E-01
   7162.33  4.7847913E-01
   7162.67  4.7366938E-01
   7163.00  4.6929642E-01
   7163.33  4.6537699E-01
   7163.67  4.6181806E-01
   7164.00  4.5858100E-01
   7164.33  4.5565300E-01
   7164.67  4.5295390E-01
   7165.00  4.5045197E-01
   7165.33  4.4813768E-01
   7165.67  4.4596470E-01
   7166.00  4.4391526E-01
   7166.33  4.4198685E-01
   7166.67  4.4015571E-01
   7167.00  4.3841860E-01
   7167.33  4.3679088E-01
   7167.67  4.3527023E-01
   7168.00  4.3386861E-01
   7168.33  4.3261715E-01
   7168.67  4.3151088E-01
   7169.00  4.3055582E-01
   7169.33  4.2977098E-01
   7169.67  4.2912855E-01
   7170.00  4.2861341E-01
   7170.33  4.2821306E-01
   7170.67  4.2788448E-01
   7171.00  4.2760169E-01
   7171.33  4.2734333E-01
   7171.67  4.2709759E-01
   7172.00  4.2687367E-01
