    FDMNES
    energy     <xanes>
   7097.00  4.2401631E-03
   7097.33  4.3324973E-03
   7097.67  4.4288828E-03
   7098.00  4.5296013E-03
   7098.33  4.6356045E-03
   7098.67  4.7467140E-03
   7099.00  4.8633211E-03
   7099.33  4.9866881E-03
   7099.67  5.1166433E-03
   7100.00  5.2537471E-03
   7100.33  5.3997261E-03
   7100.67  5.5544445E-03
   7101.00  5.7187341E-03
   7101.33  5.8950450E-03
   7101.67  6.0833400E-03
   7102.00  6.2849085E-03
   7102.33  6.5033831E-03
   7102.67  6.7389664E-03
   7103.00  6.9937612E-03
   7103.33  7.2734498E-03
   7103.67  7.5788015E-03
   7104.00  7.9134670E-03
   7104.33  8.2869421E-03
   7104.67  8.7013725E-03
   7105.00  9.1636097E-03
   7105.33  9.6909109E-03
   7105.67  1.0288986E-02
   7106.00  1.0972057E-02
   7106.33  1.1775126E-02
   7106.67  1.2714169E-02
   7107.00  1.3822997E-02
   7107.33  1.5184111E-02
   7107.67  1.6848282E-02
   7108.00  1.8912967E-02
   7108.33  2.1620227E-02
   7108.67  2.5172174E-02
   7109.00  2.9945732E-02
   7109.33  3.6941951E-02
   7109.67  4.7336587E-02
   7110.00  6.3433796E-02
   7110.33  9.1933760E-02
   7110.67  1.4047194E-01
   7111.00  2.1279921E-01
   7111.33  2.8961582E-01
   7111.67  3.2834013E-01
   7112.00  3.0589581E-01
   7112.33  2.4412364E-01
   7112.67  1.8614079E-01
   7113.00  1.4413610E-01
   7113.33  1.1845432E-01
   7113.67  1.0388686E-01
   7114.00  9.7852436E-02
   7114.33  9.3561843E-02
   7114.67  8.3370864E-02
   7115.00  7.2732849E-02
   7115.33  6.5076174E-02
   7115.67  5.6535378E-02
   7116.00  4.8703808E-02
   7116.33  4.3385956E-02
   7116.67  3.9692832E-02
   7117.00  3.7159308E-02
   7117.33  3.5613155E-02
   7117.67  3.4764499E-02
   7118.00  3.4509231E-02
   7118.33  3.4851775E-02
   7118.67  3.5705615E-02
   7119.00  3.7061780E-02
   7119.33  3.8954334E-02
   7119.67  4.1265271E-02
   7120.00  4.3920935E-02
   7120.33  4.6895098E-02
   7120.67  5.0206950E-02
   7121.00  5.4032109E-02
   7121.33  5.8776755E-02
   7121.67  6.4671935E-02
   7122.00  7.2010921E-02
   7122.33  8.1433540E-02
   7122.67  9.3282388E-02
   7123.00  1.0823398E-01
   7123.33  1.2758021E-01
   7123.67  1.5045199E-01
   7124.00  1.7429430E-01
   7124.33  1.9636557E-01
   7124.67  2.2008994E-01
   7125.00  2.4929739E-01
   7125.33  2.8559785E-01
   7125.67  3.2608822E-01
   7126.00  3.6761312E-01
   7126.33  4.0557505E-01
   7126.67  4.3800117E-01
   7127.00  4.6531161E-01
   7127.33  4.8826622E-01
   7127.67  5.0727245E-01
   7128.00  5.2205294E-01
   7128.33  5.3433678E-01
   7128.67  5.4898044E-01
   7129.00  5.6957949E-01
   7129.33  5.9817465E-01
   7129.67  6.3177129E-01
   7130.00  6.6730704E-01
   7130.33  7.0129437E-01
   7130.67  7.3184013E-01
   7131.00  7.5826945E-01
   7131.33  7.8017431E-01
   7131.67  7.9871148E-01
   7132.00  8.1435428E-01
   7132.33  8.2570196E-01
   7132.67  8.3058997E-01
   7133.00  8.2762254E-01
   7133.33  8.1788972E-01
   7133.67  8.0619768E-01
   7134.00  7.9549427E-01
   7134.33  7.8803528E-01
   7134.67  7.8431360E-01
   7135.00  7.8465626E-01
   7135.33  7.8938717E-01
   7135.67  7.9694793E-01
   7136.00  8.0564279E-01
   7136.33  8.1295574E-01
   7136.67  8.1715791E-01
   7137.00  8.1751343E-01
   7137.33  8.1369626E-01
   7137.67  8.0692500E-01
   7138.00  7.9796719E-01
   7138.33  7.8741953E-01
   7138.67  7.7602328E-01
   7139.00  7.6410953E-01
   7139.33  7.5190033E-01
   7139.67  7.3959158E-01
   7140.00  7.2727947E-01
   7140.33  7.1505647E-01
   7140.67  7.0297919E-01
   7141.00  6.9110098E-01
   7141.33  6.7952006E-01
   7141.67  6.6827925E-01
   7142.00  6.5745636E-01
   7142.33  6.4722331E-01
   7142.67  6.3763422E-01
   7143.00  6.2879060E-01
   7143.33  6.2090443E-01
   7143.67  6.1397056E-01
   7144.00  6.0807851E-01
   7144.33  6.0350008E-01
   7144.67  6.0022210E-01
   7145.00  5.9831962E-01
   7145.33  5.9801536E-01
   7145.67  5.9912625E-01
   7146.00  6.0158638E-01
   7146.33  6.0536631E-01
   7146.67  6.1001839E-01
   7147.00  6.1518792E-01
   7147.33  6.2038807E-01
   7147.67  6.2510922E-01
   7148.00  6.2896748E-01
   7148.33  6.3148884E-01
   7148.67  6.3265181E-01
   7149.00  6.3242765E-01
   7149.33  6.3072317E-01
   7149.67  6.2784232E-01
   7150.00  6.2392461E-01
   7150.33  6.1901640E-01
   7150.67  6.1336326E-01
   7151.00  6.0705003E-01
   7151.33  6.0005333E-01
   7151.67  5.9246211E-01
   7152.00  5.8426516E-01
   7152.33  5.7535271E-01
   7152.67  5.6576610E-01
   7153.00  5.5547105E-01
   7153.33  5.4432743E-01
   7153.67  5.3239048E-01
   7154.00  5.1964975E-01
   7154.33  5.0602123E-01
   7154.67  4.9164809E-01
   7155.00  4.7659503E-01
   7155.33  4.6089803E-01
   7155.67  4.4477200E-01
   7156.00  4.2836641E-01
   7156.33  4.1186881E-01
   7156.67  3.9550635E-01
   7157.00  3.7947375E-01
   7157.33  3.6406525E-01
   7157.67  3.4942421E-01
   7158.00  3.3571753E-01
   7158.33  3.2325222E-01
   7158.67  3.1202738E-01
   7159.00  3.0213312E-01
   7159.33  2.9381873E-01
   7159.67  2.8695067E-01
   7160.00  2.8153978E-01
   7160.33  2.7775080E-01
   7160.67  2.7535943E-01
   7161.00  2.7430585E-01
   7161.33  2.7464969E-01
   7161.67  2.7611826E-01
   7162.00  2.7859444E-01
   7162.33  2.8202409E-01
   7162.67  2.8613514E-01
   7163.00  2.9078750E-01
   7163.33  2.9586540E-01
   7163.67  3.0116358E-01
   7164.00  3.0655574E-01
   7164.33  3.1190679E-01
   7164.67  3.1711258E-01
   7165.00  3.2209848E-01
   7165.33  3.2676388E-01
   7165.67  3.3110267E-01
   7166.00  3.3509662E-01
   7166.33  3.3869995E-01
   7166.67  3.4197111E-01
   7167.00  3.4493477E-01
   7167.33  3.4759786E-01
   7167.67  3.5004355E-01
   7168.00  3.5232002E-01
   7168.33  3.5447350E-01
   7168.67  3.5657762E-01
   7169.00  3.5868154E-01
   7169.33  3.6084311E-01
   7169.67  3.6309599E-01
   7170.00  3.6546227E-01
   7170.33  3.6796649E-01
   7170.67  3.7057978E-01
   7171.00  3.7326549E-01
   7171.33  3.7593340E-01
   7171.67  3.7841701E-01
   7172.00  3.8049510E-01
