    FDMNES
    energy     <xanes>
   7097.00  4.0469350E-03
   7097.33  4.1267302E-03
   7097.67  4.2096475E-03
   7098.00  4.2958848E-03
   7098.33  4.3861438E-03
   7098.67  4.4802614E-03
   7099.00  4.5785079E-03
   7099.33  4.6817943E-03
   7099.67  4.7899561E-03
   7100.00  4.9033738E-03
   7100.33  5.0232667E-03
   7100.67  5.1494856E-03
   7101.00  5.2825859E-03
   7101.33  5.4242596E-03
   7101.67  5.5744108E-03
   7102.00  5.7338855E-03
   7102.33  5.9051371E-03
   7102.67  6.0882074E-03
   7103.00  6.2844537E-03
   7103.33  6.4976294E-03
   7103.67  6.7281102E-03
   7104.00  6.9782144E-03
   7104.33  7.2540788E-03
   7104.67  7.5568970E-03
   7105.00  7.8909495E-03
   7105.33  8.2671503E-03
   7105.67  8.6888082E-03
   7106.00  9.1646587E-03
   7106.33  9.7163603E-03
   7106.67  1.0353266E-02
   7107.00  1.1095759E-02
   7107.33  1.1993735E-02
   7107.67  1.3076756E-02
   7108.00  1.4402330E-02
   7108.33  1.6113188E-02
   7108.67  1.8325263E-02
   7109.00  2.1255562E-02
   7109.33  2.5478139E-02
   7109.67  3.1654460E-02
   7110.00  4.1077819E-02
   7110.33  5.7467640E-02
   7110.67  8.4758314E-02
   7111.00  1.2384253E-01
   7111.33  1.6552400E-01
   7111.67  2.0315672E-01
   7112.00  2.2516087E-01
   7112.33  2.0479603E-01
   7112.67  1.5896117E-01
   7113.00  1.1352586E-01
   7113.33  8.3566035E-02
   7113.67  6.5636728E-02
   7114.00  5.6072319E-02
   7114.33  5.3149427E-02
   7114.67  5.2648740E-02
   7115.00  4.8708005E-02
   7115.33  4.1889994E-02
   7115.67  3.7323069E-02
   7116.00  3.5201417E-02
   7116.33  3.4854781E-02
   7116.67  3.5437182E-02
   7117.00  3.6544663E-02
   7117.33  3.7861459E-02
   7117.67  3.9268403E-02
   7118.00  4.0892852E-02
   7118.33  4.2989590E-02
   7118.67  4.5592975E-02
   7119.00  4.8646870E-02
   7119.33  5.1971772E-02
   7119.67  5.5252549E-02
   7120.00  5.8277610E-02
   7120.33  6.0882684E-02
   7120.67  6.3181466E-02
   7121.00  6.5367412E-02
   7121.33  6.7797114E-02
   7121.67  7.0827694E-02
   7122.00  7.4807262E-02
   7122.33  8.0348769E-02
   7122.67  8.7801191E-02
   7123.00  9.7716670E-02
   7123.33  1.1124136E-01
   7123.67  1.2855002E-01
   7124.00  1.4960184E-01
   7124.33  1.7443696E-01
   7124.67  2.0350913E-01
   7125.00  2.3897055E-01
   7125.33  2.8415613E-01
   7125.67  3.3681358E-01
   7126.00  3.9049090E-01
   7126.33  4.3021320E-01
   7126.67  4.4703714E-01
   7127.00  4.4319240E-01
   7127.33  4.3092475E-01
   7127.67  4.2312863E-01
   7128.00  4.2459203E-01
   7128.33  4.3828619E-01
   7128.67  4.6321620E-01
   7129.00  4.9965334E-01
   7129.33  5.4921845E-01
   7129.67  6.1061484E-01
   7130.00  6.8473101E-01
   7130.33  7.7552816E-01
   7130.67  8.8208950E-01
   7131.00  1.0007600E+00
   7131.33  1.1178327E+00
   7131.67  1.2109552E+00
   7132.00  1.2610507E+00
   7132.33  1.2523373E+00
   7132.67  1.2000447E+00
   7133.00  1.1200462E+00
   7133.33  1.0293786E+00
   7133.67  9.4188311E-01
   7134.00  8.6395499E-01
   7134.33  8.0117900E-01
   7134.67  7.5264661E-01
   7135.00  7.1701867E-01
   7135.33  6.9300636E-01
   7135.67  6.7684433E-01
   7136.00  6.6686200E-01
   7136.33  6.6215182E-01
   7136.67  6.6092119E-01
   7137.00  6.6224252E-01
   7137.33  6.6529349E-01
   7137.67  6.6894871E-01
   7138.00  6.7249911E-01
   7138.33  6.7515426E-01
   7138.67  6.7648645E-01
   7139.00  6.7618135E-01
   7139.33  6.7381086E-01
   7139.67  6.6959882E-01
   7140.00  6.6370853E-01
   7140.33  6.5638518E-01
   7140.67  6.4843208E-01
   7141.00  6.4058044E-01
   7141.33  6.3396356E-01
   7141.67  6.2946082E-01
   7142.00  6.2781849E-01
   7142.33  6.3004057E-01
   7142.67  6.3589576E-01
   7143.00  6.4527018E-01
   7143.33  6.5814434E-01
   7143.67  6.7343472E-01
   7144.00  6.9028625E-01
   7144.33  7.0742603E-01
   7144.67  7.2320819E-01
   7145.00  7.3612249E-01
   7145.33  7.4401478E-01
   7145.67  7.4638205E-01
   7146.00  7.4292594E-01
   7146.33  7.3332383E-01
   7146.67  7.1917593E-01
   7147.00  7.0149129E-01
   7147.33  6.8117047E-01
   7147.67  6.5955531E-01
   7148.00  6.3736865E-01
   7148.33  6.1523804E-01
   7148.67  5.9356808E-01
   7149.00  5.7258417E-01
   7149.33  5.5255314E-01
   7149.67  5.3346248E-01
   7150.00  5.1535657E-01
   7150.33  4.9835919E-01
   7150.67  4.8232318E-01
   7151.00  4.6722595E-01
   7151.33  4.5315723E-01
   7151.67  4.3999036E-01
   7152.00  4.2771669E-01
   7152.33  4.1643624E-01
   7152.67  4.0602478E-01
   7153.00  3.9647397E-01
   7153.33  3.8788785E-01
   7153.67  3.8016289E-01
   7154.00  3.7330718E-01
   7154.33  3.6744359E-01
   7154.67  3.6247011E-01
   7155.00  3.5838325E-01
   7155.33  3.5526348E-01
   7155.67  3.5293976E-01
   7156.00  3.5132003E-01
   7156.33  3.5031637E-01
   7156.67  3.4965623E-01
   7157.00  3.4913921E-01
   7157.33  3.4851474E-01
   7157.67  3.4758066E-01
   7158.00  3.4619402E-01
   7158.33  3.4418113E-01
   7158.67  3.4157713E-01
   7159.00  3.3840186E-01
   7159.33  3.3466081E-01
   7159.67  3.3052163E-01
   7160.00  3.2609552E-01
   7160.33  3.2151561E-01
   7160.67  3.1697114E-01
   7161.00  3.1262687E-01
   7161.33  3.0873804E-01
   7161.67  3.0545528E-01
   7162.00  3.0294135E-01
   7162.33  3.0147963E-01
   7162.67  3.0106718E-01
   7163.00  3.0174711E-01
   7163.33  3.0363787E-01
   7163.67  3.0652138E-01
   7164.00  3.1028024E-01
   7164.33  3.1482768E-01
   7164.67  3.1988149E-01
   7165.00  3.2527441E-01
   7165.33  3.3084897E-01
   7165.67  3.3643851E-01
   7166.00  3.4194600E-01
   7166.33  3.4727452E-01
   7166.67  3.5240619E-01
   7167.00  3.5733579E-01
   7167.33  3.6205870E-01
   7167.67  3.6663359E-01
   7168.00  3.7109854E-01
   7168.33  3.7549069E-01
   7168.67  3.7985715E-01
   7169.00  3.8422466E-01
   7169.33  3.8861858E-01
   7169.67  3.9304642E-01
   7170.00  3.9750539E-01
   7170.33  4.0197795E-01
   7170.67  4.0642223E-01
   7171.00  4.1077937E-01
   7171.33  4.1490854E-01
   7171.67  4.1863089E-01
   7172.00  4.2168665E-01
