    FDMNES
    energy     <xanes>
   7097.00  4.0927222E-03
   7097.33  4.1787868E-03
   7097.67  4.2684771E-03
   7098.00  4.3620324E-03
   7098.33  4.4602821E-03
   7098.67  4.5630476E-03
   7099.00  4.6706549E-03
   7099.33  4.7841851E-03
   7099.67  4.9034559E-03
   7100.00  5.0289237E-03
   7100.33  5.1620360E-03
   7100.67  5.3026236E-03
   7101.00  5.4513460E-03
   7101.33  5.6102037E-03
   7101.67  5.7790777E-03
   7102.00  5.9589569E-03
   7102.33  6.1527123E-03
   7102.67  6.3603570E-03
   7103.00  6.5834409E-03
   7103.33  6.8262764E-03
   7103.67  7.0891927E-03
   7104.00  7.3747528E-03
   7104.33  7.6898062E-03
   7104.67  8.0354339E-03
   7105.00  8.4161629E-03
   7105.33  8.8436644E-03
   7105.67  9.3208733E-03
   7106.00  9.8564912E-03
   7106.33  1.0472289E-02
   7106.67  1.1176156E-02
   7107.00  1.1986789E-02
   7107.33  1.2950073E-02
   7107.67  1.4088927E-02
   7108.00  1.5450317E-02
   7108.33  1.7149443E-02
   7108.67  1.9265065E-02
   7109.00  2.1946717E-02
   7109.33  2.5575453E-02
   7109.67  3.0519953E-02
   7110.00  3.7483409E-02
   7110.33  4.8393059E-02
   7110.67  6.5205244E-02
   7111.00  8.9538181E-02
   7111.33  1.2573425E-01
   7111.67  1.8501414E-01
   7112.00  2.7509517E-01
   7112.33  3.5357286E-01
   7112.67  3.4236463E-01
   7113.00  2.6926811E-01
   7113.33  1.9876994E-01
   7113.67  1.6276149E-01
   7114.00  1.4927384E-01
   7114.33  1.2602535E-01
   7114.67  9.9545978E-02
   7115.00  8.1692428E-02
   7115.33  7.4071605E-02
   7115.67  7.3393382E-02
   7116.00  7.9212580E-02
   7116.33  9.2829226E-02
   7116.67  1.1089635E-01
   7117.00  1.2426925E-01
   7117.33  1.1994935E-01
   7117.67  1.0552783E-01
   7118.00  9.1078440E-02
   7118.33  8.1284815E-02
   7118.67  7.5643609E-02
   7119.00  7.3682122E-02
   7119.33  7.5116951E-02
   7119.67  7.8295961E-02
   7120.00  8.1729872E-02
   7120.33  8.5182932E-02
   7120.67  8.9531169E-02
   7121.00  9.5001078E-02
   7121.33  1.0219087E-01
   7121.67  1.1234717E-01
   7122.00  1.2640752E-01
   7122.33  1.4466643E-01
   7122.67  1.6404163E-01
   7123.00  1.7994070E-01
   7123.33  1.8627850E-01
   7123.67  1.8447710E-01
   7124.00  1.7886649E-01
   7124.33  1.7440218E-01
   7124.67  1.7310836E-01
   7125.00  1.7532532E-01
   7125.33  1.8117691E-01
   7125.67  1.8975560E-01
   7126.00  2.0062063E-01
   7126.33  2.1326148E-01
   7126.67  2.2615088E-01
   7127.00  2.3775387E-01
   7127.33  2.4655765E-01
   7127.67  2.5320842E-01
   7128.00  2.5892433E-01
   7128.33  2.6522219E-01
   7128.67  2.7293988E-01
   7129.00  2.8236644E-01
   7129.33  2.9358791E-01
   7129.67  3.0592404E-01
   7130.00  3.1877587E-01
   7130.33  3.3140383E-01
   7130.67  3.4334493E-01
   7131.00  3.5447637E-01
   7131.33  3.6485486E-01
   7131.67  3.7483115E-01
   7132.00  3.8466732E-01
   7132.33  3.9481681E-01
   7132.67  4.0577879E-01
   7133.00  4.1811725E-01
   7133.33  4.3292320E-01
   7133.67  4.5085746E-01
   7134.00  4.7268273E-01
   7134.33  4.9960934E-01
   7134.67  5.3143632E-01
   7135.00  5.6834473E-01
   7135.33  6.1112689E-01
   7135.67  6.5923127E-01
   7136.00  7.1272484E-01
   7136.33  7.7230186E-01
   7136.67  8.3711396E-01
   7137.00  9.0670387E-01
   7137.33  9.8040067E-01
   7137.67  1.0557391E+00
   7138.00  1.1301788E+00
   7138.33  1.1993064E+00
   7138.67  1.2593736E+00
   7139.00  1.3067991E+00
   7139.33  1.3363785E+00
   7139.67  1.3485236E+00
   7140.00  1.3433583E+00
   7140.33  1.3205570E+00
   7140.67  1.2849903E+00
   7141.00  1.2396291E+00
   7141.33  1.1870403E+00
   7141.67  1.1310497E+00
   7142.00  1.0737979E+00
   7142.33  1.0172115E+00
   7142.67  9.6251322E-01
   7143.00  9.1055359E-01
   7143.33  8.6260113E-01
   7143.67  8.1873913E-01
   7144.00  7.7898096E-01
   7144.33  7.4356103E-01
   7144.67  7.1167980E-01
   7145.00  6.8305308E-01
   7145.33  6.5771296E-01
   7145.67  6.3495410E-01
   7146.00  6.1449313E-01
   7146.33  5.9626437E-01
   7146.67  5.7972654E-01
   7147.00  5.6464691E-01
   7147.33  5.5093899E-01
   7147.67  5.3825781E-01
   7148.00  5.2646716E-01
   7148.33  5.1552592E-01
   7148.67  5.0522905E-01
   7149.00  4.9550239E-01
   7149.33  4.8634503E-01
   7149.67  4.7765181E-01
   7150.00  4.6940299E-01
   7150.33  4.6164471E-01
   7150.67  4.5432542E-01
   7151.00  4.4745207E-01
   7151.33  4.4109350E-01
   7151.67  4.3520847E-01
   7152.00  4.2981049E-01
   7152.33  4.2497440E-01
   7152.67  4.2064565E-01
   7153.00  4.1682699E-01
   7153.33  4.1357971E-01
   7153.67  4.1083290E-01
   7154.00  4.0857644E-01
   7154.33  4.0685153E-01
   7154.67  4.0557334E-01
   7155.00  4.0471547E-01
   7155.33  4.0429256E-01
   7155.67  4.0421969E-01
   7156.00  4.0446330E-01
   7156.33  4.0501648E-01
   7156.67  4.0580172E-01
   7157.00  4.0678107E-01
   7157.33  4.0792852E-01
   7157.67  4.0918128E-01
   7158.00  4.1050314E-01
   7158.33  4.1185916E-01
   7158.67  4.1321214E-01
   7159.00  4.1453857E-01
   7159.33  4.1581194E-01
   7159.67  4.1702470E-01
   7160.00  4.1816981E-01
   7160.33  4.1923233E-01
   7160.67  4.2021675E-01
   7161.00  4.2111959E-01
   7161.33  4.2192613E-01
   7161.67  4.2264242E-01
   7162.00  4.2326389E-01
   7162.33  4.2377286E-01
   7162.67  4.2417707E-01
   7163.00  4.2447291E-01
   7163.33  4.2464319E-01
   7163.67  4.2469945E-01
   7164.00  4.2464067E-01
   7164.33  4.2445258E-01
   7164.67  4.2415046E-01
   7165.00  4.2373608E-01
   7165.33  4.2319921E-01
   7165.67  4.2255772E-01
   7166.00  4.2181570E-01
   7166.33  4.2096689E-01
   7166.67  4.2002960E-01
   7167.00  4.1900953E-01
   7167.33  4.1790371E-01
   7167.67  4.1672865E-01
   7168.00  4.1549088E-01
   7168.33  4.1419150E-01
   7168.67  4.1284536E-01
   7169.00  4.1145952E-01
   7169.33  4.1003906E-01
   7169.67  4.0859778E-01
   7170.00  4.0714534E-01
   7170.33  4.0569510E-01
   7170.67  4.0426352E-01
   7171.00  4.0287046E-01
   7171.33  4.0156084E-01
   7171.67  4.0038620E-01
   7172.00  3.9942317E-01
