    FDMNES
    energy     <xanes>
   7097.00  5.0322343E-03
   7097.33  5.1499198E-03
   7097.67  5.2729111E-03
   7098.00  5.4015660E-03
   7098.33  5.5371105E-03
   7098.67  5.6792922E-03
   7099.00  5.8285983E-03
   7099.33  5.9866305E-03
   7099.67  6.1531297E-03
   7100.00  6.3287768E-03
   7100.33  6.5157188E-03
   7100.67  6.7137140E-03
   7101.00  6.9237438E-03
   7101.33  7.1487749E-03
   7101.67  7.3886365E-03
   7102.00  7.6447955E-03
   7102.33  7.9215049E-03
   7102.67  8.2187827E-03
   7103.00  8.5389204E-03
   7103.33  8.8882940E-03
   7103.67  9.2673791E-03
   7104.00  9.6799539E-03
   7104.33  1.0136126E-02
   7104.67  1.0637471E-02
   7105.00  1.1190657E-02
   7105.33  1.1812899E-02
   7105.67  1.2508523E-02
   7106.00  1.3290395E-02
   7106.33  1.4190756E-02
   7106.67  1.5221461E-02
   7107.00  1.6410527E-02
   7107.33  1.7826890E-02
   7107.67  1.9506201E-02
   7108.00  2.1521147E-02
   7108.33  2.4051367E-02
   7108.67  2.7227344E-02
   7109.00  3.1297281E-02
   7109.33  3.6907001E-02
   7109.67  4.4739623E-02
   7110.00  5.6124024E-02
   7110.33  7.4842826E-02
   7110.67  1.0512277E-01
   7111.00  1.5012337E-01
   7111.33  2.0567994E-01
   7111.67  2.5364037E-01
   7112.00  2.8573106E-01
   7112.33  3.0776647E-01
   7112.67  3.4418905E-01
   7113.00  4.0210434E-01
   7113.33  4.2111355E-01
   7113.67  3.6154268E-01
   7114.00  2.7425726E-01
   7114.33  2.1686658E-01
   7114.67  1.9275605E-01
   7115.00  1.9775251E-01
   7115.33  2.2863406E-01
   7115.67  2.6964099E-01
   7116.00  3.0493846E-01
   7116.33  3.0790922E-01
   7116.67  2.7518416E-01
   7117.00  2.3015339E-01
   7117.33  1.9558274E-01
   7117.67  1.7318887E-01
   7118.00  1.6008402E-01
   7118.33  1.5370394E-01
   7118.67  1.5120108E-01
   7119.00  1.5082385E-01
   7119.33  1.5008198E-01
   7119.67  1.4789674E-01
   7120.00  1.4436732E-01
   7120.33  1.3978977E-01
   7120.67  1.3529963E-01
   7121.00  1.3195526E-01
   7121.33  1.3083542E-01
   7121.67  1.3210133E-01
   7122.00  1.3610226E-01
   7122.33  1.4409978E-01
   7122.67  1.5653378E-01
   7123.00  1.7358937E-01
   7123.33  1.9496862E-01
   7123.67  2.1832736E-01
   7124.00  2.4153647E-01
   7124.33  2.6224163E-01
   7124.67  2.7986558E-01
   7125.00  2.9450407E-01
   7125.33  3.0656714E-01
   7125.67  3.1735841E-01
   7126.00  3.2774133E-01
   7126.33  3.3877746E-01
   7126.67  3.5140596E-01
   7127.00  3.6643153E-01
   7127.33  3.8505796E-01
   7127.67  4.0745039E-01
   7128.00  4.3370401E-01
   7128.33  4.6380256E-01
   7128.67  4.9656237E-01
   7129.00  5.3126013E-01
   7129.33  5.6687537E-01
   7129.67  6.0186992E-01
   7130.00  6.3532853E-01
   7130.33  6.6708347E-01
   7130.67  6.9856985E-01
   7131.00  7.3108215E-01
   7131.33  7.6542102E-01
   7131.67  8.0042713E-01
   7132.00  8.3390382E-01
   7132.33  8.6149880E-01
   7132.67  8.8087297E-01
   7133.00  8.9169652E-01
   7133.33  8.9499655E-01
   7133.67  8.9373053E-01
   7134.00  8.8897435E-01
   7134.33  8.8098757E-01
   7134.67  8.7031643E-01
   7135.00  8.5672921E-01
   7135.33  8.3909917E-01
   7135.67  8.1715874E-01
   7136.00  7.9078100E-01
   7136.33  7.6033499E-01
   7136.67  7.2792378E-01
   7137.00  6.9517931E-01
   7137.33  6.6392040E-01
   7137.67  6.3517656E-01
   7138.00  6.0963394E-01
   7138.33  5.8822834E-01
   7138.67  5.7068299E-01
   7139.00  5.5694402E-01
   7139.33  5.4717037E-01
   7139.67  5.4047278E-01
   7140.00  5.3641466E-01
   7140.33  5.3479476E-01
   7140.67  5.3497044E-01
   7141.00  5.3671007E-01
   7141.33  5.3997636E-01
   7141.67  5.4439286E-01
   7142.00  5.4972299E-01
   7142.33  5.5562369E-01
   7142.67  5.6144978E-01
   7143.00  5.6657107E-01
   7143.33  5.6997548E-01
   7143.67  5.7106676E-01
   7144.00  5.6934694E-01
   7144.33  5.6422980E-01
   7144.67  5.5634237E-01
   7145.00  5.4621534E-01
   7145.33  5.3451392E-01
   7145.67  5.2231806E-01
   7146.00  5.1034394E-01
   7146.33  4.9938935E-01
   7146.67  4.8983161E-01
   7147.00  4.8193672E-01
   7147.33  4.7609050E-01
   7147.67  4.7210392E-01
   7148.00  4.6991942E-01
   7148.33  4.6958177E-01
   7148.67  4.7067989E-01
   7149.00  4.7302852E-01
   7149.33  4.7654300E-01
   7149.67  4.8088729E-01
   7150.00  4.8589538E-01
   7150.33  4.9145312E-01
   7150.67  4.9734774E-01
   7151.00  5.0347389E-01
   7151.33  5.0975676E-01
   7151.67  5.1612020E-01
   7152.00  5.2254260E-01
   7152.33  5.2902714E-01
   7152.67  5.3557236E-01
   7153.00  5.4217895E-01
   7153.33  5.4884063E-01
   7153.67  5.5552168E-01
   7154.00  5.6218200E-01
   7154.33  5.6874975E-01
   7154.67  5.7516208E-01
   7155.00  5.8135163E-01
   7155.33  5.8720329E-01
   7155.67  5.9268281E-01
   7156.00  5.9773569E-01
   7156.33  6.0224877E-01
   7156.67  6.0623981E-01
   7157.00  6.0967976E-01
   7157.33  6.1246855E-01
   7157.67  6.1465395E-01
   7158.00  6.1621427E-01
   7158.33  6.1704102E-01
   7158.67  6.1718916E-01
   7159.00  6.1663868E-01
   7159.33  6.1528385E-01
   7159.67  6.1320967E-01
   7160.00  6.1042525E-01
   7160.33  6.0687361E-01
   7160.67  6.0268906E-01
   7161.00  5.9793044E-01
   7161.33  5.9262077E-01
   7161.67  5.8691544E-01
   7162.00  5.8089882E-01
   7162.33  5.7463941E-01
   7162.67  5.6824836E-01
   7163.00  5.6178632E-01
   7163.33  5.5530669E-01
   7163.67  5.4884480E-01
   7164.00  5.4241198E-01
   7164.33  5.3601227E-01
   7164.67  5.2963764E-01
   7165.00  5.2328641E-01
   7165.33  5.1696647E-01
   7165.67  5.1068920E-01
   7166.00  5.0447642E-01
   7166.33  4.9837347E-01
   7166.67  4.9240622E-01
   7167.00  4.8660796E-01
   7167.33  4.8103844E-01
   7167.67  4.7569854E-01
   7168.00  4.7060342E-01
   7168.33  4.6579304E-01
   7168.67  4.6123479E-01
   7169.00  4.5692222E-01
   7169.33  4.5287271E-01
   7169.67  4.4904020E-01
   7170.00  4.4540913E-01
   7170.33  4.4199241E-01
   7170.67  4.3876689E-01
   7171.00  4.3574585E-01
   7171.33  4.3300060E-01
   7171.67  4.3058717E-01
   7172.00  4.2862159E-01
