    FDMNES
    energy     <xanes>
   7097.00  4.6842144E-03
   7097.33  4.7871409E-03
   7097.67  4.8943168E-03
   7098.00  5.0060033E-03
   7098.33  5.1231398E-03
   7098.67  5.2454891E-03
   7099.00  5.3733984E-03
   7099.33  5.5080651E-03
   7099.67  5.6492354E-03
   7100.00  5.7973815E-03
   7100.33  5.9540646E-03
   7100.67  6.1190248E-03
   7101.00  6.2929224E-03
   7101.33  6.4778482E-03
   7101.67  6.6735609E-03
   7102.00  6.8810151E-03
   7102.33  7.1031030E-03
   7102.67  7.3396593E-03
   7103.00  7.5921203E-03
   7103.33  7.8646507E-03
   7103.67  8.1572917E-03
   7104.00  8.4723156E-03
   7104.33  8.8160316E-03
   7104.67  9.1889980E-03
   7105.00  9.5950498E-03
   7105.33  1.0044401E-02
   7105.67  1.0538925E-02
   7106.00  1.1085676E-02
   7106.33  1.1702770E-02
   7106.67  1.2395685E-02
   7107.00  1.3179096E-02
   7107.33  1.4089710E-02
   7107.67  1.5144485E-02
   7108.00  1.6380202E-02
   7108.33  1.7888777E-02
   7108.67  1.9734362E-02
   7109.00  2.2042586E-02
   7109.33  2.5145512E-02
   7109.67  2.9403959E-02
   7110.00  3.5533899E-02
   7110.33  4.5573484E-02
   7110.67  6.1331800E-02
   7111.00  8.1605986E-02
   7111.33  9.7131734E-02
   7111.67  1.0705315E-01
   7112.00  1.1662621E-01
   7112.33  1.2872534E-01
   7112.67  1.4499855E-01
   7113.00  1.6983929E-01
   7113.33  2.1464206E-01
   7113.67  2.7882218E-01
   7114.00  3.3172104E-01
   7114.33  3.3728290E-01
   7114.67  3.4956981E-01
   7115.00  3.9060407E-01
   7115.33  4.2677071E-01
   7115.67  4.1981227E-01
   7116.00  3.6431287E-01
   7116.33  2.8153562E-01
   7116.67  2.1212928E-01
   7117.00  1.6507104E-01
   7117.33  1.3740280E-01
   7117.67  1.2102667E-01
   7118.00  1.1276635E-01
   7118.33  1.1134402E-01
   7118.67  1.1505046E-01
   7119.00  1.2359089E-01
   7119.33  1.3762295E-01
   7119.67  1.5673639E-01
   7120.00  1.8064347E-01
   7120.33  2.0755409E-01
   7120.67  2.3277669E-01
   7121.00  2.5255672E-01
   7121.33  2.6434593E-01
   7121.67  2.7035454E-01
   7122.00  2.7255959E-01
   7122.33  2.7245930E-01
   7122.67  2.7127530E-01
   7123.00  2.6977377E-01
   7123.33  2.6947048E-01
   7123.67  2.7159871E-01
   7124.00  2.7632992E-01
   7124.33  2.8236313E-01
   7124.67  2.8783039E-01
   7125.00  2.9274103E-01
   7125.33  2.9875473E-01
   7125.67  3.0743401E-01
   7126.00  3.1987986E-01
   7126.33  3.3737439E-01
   7126.67  3.5897767E-01
   7127.00  3.8297002E-01
   7127.33  4.0557794E-01
   7127.67  4.2326931E-01
   7128.00  4.3538422E-01
   7128.33  4.4513620E-01
   7128.67  4.5803959E-01
   7129.00  4.7725781E-01
   7129.33  5.0502366E-01
   7129.67  5.4002980E-01
   7130.00  5.8136342E-01
   7130.33  6.2771706E-01
   7130.67  6.7522123E-01
   7131.00  7.2003360E-01
   7131.33  7.5684161E-01
   7131.67  7.8343710E-01
   7132.00  7.9874032E-01
   7132.33  8.0197339E-01
   7132.67  7.9641573E-01
   7133.00  7.8409204E-01
   7133.33  7.6634486E-01
   7133.67  7.4490215E-01
   7134.00  7.2034825E-01
   7134.33  6.9379913E-01
   7134.67  6.6833840E-01
   7135.00  6.4690194E-01
   7135.33  6.3235277E-01
   7135.67  6.2401627E-01
   7136.00  6.2099649E-01
   7136.33  6.2253241E-01
   7136.67  6.2707027E-01
   7137.00  6.3396938E-01
   7137.33  6.4292768E-01
   7137.67  6.5326540E-01
   7138.00  6.6454922E-01
   7138.33  6.7620709E-01
   7138.67  6.8750378E-01
   7139.00  6.9783734E-01
   7139.33  7.0638740E-01
   7139.67  7.1290461E-01
   7140.00  7.1718782E-01
   7140.33  7.1893448E-01
   7140.67  7.1859233E-01
   7141.00  7.1640326E-01
   7141.33  7.1251677E-01
   7141.67  7.0746731E-01
   7142.00  7.0152558E-01
   7142.33  6.9487285E-01
   7142.67  6.8778001E-01
   7143.00  6.8036406E-01
   7143.33  6.7269351E-01
   7143.67  6.6485532E-01
   7144.00  6.5688934E-01
   7144.33  6.4885528E-01
   7144.67  6.4086390E-01
   7145.00  6.3302123E-01
   7145.33  6.2548158E-01
   7145.67  6.1832287E-01
   7146.00  6.1162218E-01
   7146.33  6.0549140E-01
   7146.67  5.9986194E-01
   7147.00  5.9468706E-01
   7147.33  5.8991650E-01
   7147.67  5.8538115E-01
   7148.00  5.8096442E-01
   7148.33  5.7653145E-01
   7148.67  5.7196866E-01
   7149.00  5.6720031E-01
   7149.33  5.6213769E-01
   7149.67  5.5679214E-01
   7150.00  5.5116963E-01
   7150.33  5.4526605E-01
   7150.67  5.3914493E-01
   7151.00  5.3283086E-01
   7151.33  5.2632658E-01
   7151.67  5.1967225E-01
   7152.00  5.1288081E-01
   7152.33  5.0594745E-01
   7152.67  4.9889532E-01
   7153.00  4.9172791E-01
   7153.33  4.8443032E-01
   7153.67  4.7700971E-01
   7154.00  4.6945251E-01
   7154.33  4.6171584E-01
   7154.67  4.5379202E-01
   7155.00  4.4565546E-01
   7155.33  4.3724644E-01
   7155.67  4.2857287E-01
   7156.00  4.1962776E-01
   7156.33  4.1039168E-01
   7156.67  4.0093957E-01
   7157.00  3.9133529E-01
   7157.33  3.8167859E-01
   7157.67  3.7210872E-01
   7158.00  3.6275438E-01
   7158.33  3.5381720E-01
   7158.67  3.4540106E-01
   7159.00  3.3762316E-01
   7159.33  3.3069337E-01
   7159.67  3.2460590E-01
   7160.00  3.1941115E-01
   7160.33  3.1525348E-01
   7160.67  3.1202158E-01
   7161.00  3.0969847E-01
   7161.33  3.0834907E-01
   7161.67  3.0780998E-01
   7162.00  3.0802960E-01
   7162.33  3.0903021E-01
   7162.67  3.1065955E-01
   7163.00  3.1286374E-01
   7163.33  3.1564080E-01
   7163.67  3.1885024E-01
   7164.00  3.2242899E-01
   7164.33  3.2635491E-01
   7164.67  3.3053878E-01
   7165.00  3.3493951E-01
   7165.33  3.3953180E-01
   7165.67  3.4424936E-01
   7166.00  3.4905492E-01
   7166.33  3.5391336E-01
   7166.67  3.5878089E-01
   7167.00  3.6362767E-01
   7167.33  3.6841621E-01
   7167.67  3.7312575E-01
   7168.00  3.7773597E-01
   7168.33  3.8221284E-01
   7168.67  3.8655648E-01
   7169.00  3.9075673E-01
   7169.33  3.9478512E-01
   7169.67  3.9865367E-01
   7170.00  4.0235723E-01
   7170.33  4.0586804E-01
   7170.67  4.0919684E-01
   7171.00  4.1232542E-01
   7171.33  4.1517824E-01
   7171.67  4.1769042E-01
   7172.00  4.1972926E-01
