    FDMNES
    energy     <xanes>
   7097.00  4.8825027E-03
   7097.33  4.9997876E-03
   7097.67  5.1225206E-03
   7098.00  5.2510831E-03
   7098.33  5.3867586E-03
   7098.67  5.5293080E-03
   7099.00  5.6792576E-03
   7099.33  5.8383038E-03
   7099.67  6.0062105E-03
   7100.00  6.1837241E-03
   7100.33  6.3731508E-03
   7100.67  6.5742902E-03
   7101.00  6.7882362E-03
   7101.33  7.0182305E-03
   7101.67  7.2641796E-03
   7102.00  7.5277519E-03
   7102.33  7.8136886E-03
   7102.67  8.1221626E-03
   7103.00  8.4558408E-03
   7103.33  8.8220037E-03
   7103.67  9.2214545E-03
   7104.00  9.6587105E-03
   7104.33  1.0145649E-02
   7104.67  1.0684585E-02
   7105.00  1.1283750E-02
   7105.33  1.1964072E-02
   7105.67  1.2731712E-02
   7106.00  1.3603147E-02
   7106.33  1.4619218E-02
   7106.67  1.5796858E-02
   7107.00  1.7173580E-02
   7107.33  1.8841181E-02
   7107.67  2.0851859E-02
   7108.00  2.3308375E-02
   7108.33  2.6465215E-02
   7108.67  3.0522134E-02
   7109.00  3.5854834E-02
   7109.33  4.3453073E-02
   7109.67  5.4432957E-02
   7110.00  7.0977682E-02
   7110.33  9.9354301E-02
   7110.67  1.4616414E-01
   7111.00  2.1258129E-01
   7111.33  2.7745355E-01
   7111.67  3.2766899E-01
   7112.00  3.7537891E-01
   7112.33  4.2203153E-01
   7112.67  4.4035425E-01
   7113.00  4.0210693E-01
   7113.33  3.1212056E-01
   7113.67  2.3100094E-01
   7114.00  1.7704925E-01
   7114.33  1.5061675E-01
   7114.67  1.4345754E-01
   7115.00  1.5252197E-01
   7115.33  1.6840459E-01
   7115.67  1.6766528E-01
   7116.00  1.4467457E-01
   7116.33  1.1822859E-01
   7116.67  9.9427869E-02
   7117.00  8.8228112E-02
   7117.33  8.3225923E-02
   7117.67  8.1816105E-02
   7118.00  8.2624466E-02
   7118.33  8.4814566E-02
   7118.67  8.8147602E-02
   7119.00  9.2488891E-02
   7119.33  9.6877137E-02
   7119.67  1.0056420E-01
   7120.00  1.0392711E-01
   7120.33  1.0792434E-01
   7120.67  1.1328146E-01
   7121.00  1.2097250E-01
   7121.33  1.3258571E-01
   7121.67  1.4796100E-01
   7122.00  1.6652891E-01
   7122.33  1.8769680E-01
   7122.67  2.1064911E-01
   7123.00  2.3521784E-01
   7123.33  2.6216699E-01
   7123.67  2.9208694E-01
   7124.00  3.2425161E-01
   7124.33  3.5503228E-01
   7124.67  3.8011284E-01
   7125.00  3.9681121E-01
   7125.33  4.0443565E-01
   7125.67  4.0776888E-01
   7126.00  4.1113925E-01
   7126.33  4.1941052E-01
   7126.67  4.3428076E-01
   7127.00  4.5595702E-01
   7127.33  4.8409032E-01
   7127.67  5.1644048E-01
   7128.00  5.5174201E-01
   7128.33  5.8785065E-01
   7128.67  6.2109719E-01
   7129.00  6.4923228E-01
   7129.33  6.7401925E-01
   7129.67  7.0083861E-01
   7130.00  7.3061097E-01
   7130.33  7.5890853E-01
   7130.67  7.8064216E-01
   7131.00  7.9332103E-01
   7131.33  7.9504736E-01
   7131.67  7.8796018E-01
   7132.00  7.7429515E-01
   7132.33  7.5773199E-01
   7132.67  7.4246539E-01
   7133.00  7.3061185E-01
   7133.33  7.2360561E-01
   7133.67  7.2064474E-01
   7134.00  7.2099874E-01
   7134.33  7.2371900E-01
   7134.67  7.2723073E-01
   7135.00  7.3075471E-01
   7135.33  7.3404072E-01
   7135.67  7.3727107E-01
   7136.00  7.4050442E-01
   7136.33  7.4361841E-01
   7136.67  7.4637264E-01
   7137.00  7.4834512E-01
   7137.33  7.4845592E-01
   7137.67  7.4589788E-01
   7138.00  7.4021550E-01
   7138.33  7.3141868E-01
   7138.67  7.2093396E-01
   7139.00  7.0980954E-01
   7139.33  6.9890610E-01
   7139.67  6.8832904E-01
   7140.00  6.7764182E-01
   7140.33  6.6597486E-01
   7140.67  6.5302886E-01
   7141.00  6.3911697E-01
   7141.33  6.2540354E-01
   7141.67  6.1335089E-01
   7142.00  6.0398428E-01
   7142.33  5.9817189E-01
   7142.67  5.9511518E-01
   7143.00  5.9388394E-01
   7143.33  5.9303981E-01
   7143.67  5.9099554E-01
   7144.00  5.8667271E-01
   7144.33  5.7902184E-01
   7144.67  5.6849280E-01
   7145.00  5.5570815E-01
   7145.33  5.4164217E-01
   7145.67  5.2763822E-01
   7146.00  5.1459460E-01
   7146.33  5.0351195E-01
   7146.67  4.9456155E-01
   7147.00  4.8780824E-01
   7147.33  4.8338693E-01
   7147.67  4.8078619E-01
   7148.00  4.7975120E-01
   7148.33  4.8013532E-01
   7148.67  4.8147984E-01
   7149.00  4.8353763E-01
   7149.33  4.8610440E-01
   7149.67  4.8889745E-01
   7150.00  4.9174956E-01
   7150.33  4.9447996E-01
   7150.67  4.9696459E-01
   7151.00  4.9911714E-01
   7151.33  5.0084975E-01
   7151.67  5.0225684E-01
   7152.00  5.0345688E-01
   7152.33  5.0465269E-01
   7152.67  5.0606068E-01
   7153.00  5.0782480E-01
   7153.33  5.1007367E-01
   7153.67  5.1271212E-01
   7154.00  5.1562223E-01
   7154.33  5.1861365E-01
   7154.67  5.2145362E-01
   7155.00  5.2396033E-01
   7155.33  5.2589880E-01
   7155.67  5.2721892E-01
   7156.00  5.2786874E-01
   7156.33  5.2774090E-01
   7156.67  5.2692615E-01
   7157.00  5.2543592E-01
   7157.33  5.2319894E-01
   7157.67  5.2030281E-01
   7158.00  5.1674579E-01
   7158.33  5.1244009E-01
   7158.67  5.0747035E-01
   7159.00  5.0185063E-01
   7159.33  4.9554419E-01
   7159.67  4.8869755E-01
   7160.00  4.8139587E-01
   7160.33  4.7372057E-01
   7160.67  4.6585278E-01
   7161.00  4.5791531E-01
   7161.33  4.5005082E-01
   7161.67  4.4236626E-01
   7162.00  4.3493931E-01
   7162.33  4.2787079E-01
   7162.67  4.2115301E-01
   7163.00  4.1479636E-01
   7163.33  4.0884410E-01
   7163.67  4.0324050E-01
   7164.00  3.9797381E-01
   7164.33  3.9307017E-01
   7164.67  3.8847546E-01
   7165.00  3.8418006E-01
   7165.33  3.8021215E-01
   7165.67  3.7653004E-01
   7166.00  3.7313181E-01
   7166.33  3.7005408E-01
   7166.67  3.6726455E-01
   7167.00  3.6476647E-01
   7167.33  3.6260023E-01
   7167.67  3.6073217E-01
   7168.00  3.5916418E-01
   7168.33  3.5793366E-01
   7168.67  3.5700039E-01
   7169.00  3.5636021E-01
   7169.33  3.5604161E-01
   7169.67  3.5599827E-01
   7170.00  3.5621772E-01
   7170.33  3.5671073E-01
   7170.67  3.5741946E-01
   7171.00  3.5830967E-01
   7171.33  3.5933175E-01
   7171.67  3.6035702E-01
   7172.00  3.6123562E-01
