    FDMNES
    energy     <xanes>
   7097.00  4.9061976E-03
   7097.33  5.0125051E-03
   7097.67  5.1231623E-03
   7098.00  5.2384393E-03
   7098.33  5.3593030E-03
   7098.67  5.4855166E-03
   7099.00  5.6174431E-03
   7099.33  5.7563247E-03
   7099.67  5.9019141E-03
   7100.00  6.0547135E-03
   7100.33  6.2163619E-03
   7100.67  6.3866190E-03
   7101.00  6.5662033E-03
   7101.33  6.7573493E-03
   7101.67  6.9598646E-03
   7102.00  7.1748200E-03
   7102.33  7.4053887E-03
   7102.67  7.6515188E-03
   7103.00  7.9148898E-03
   7103.33  8.2002438E-03
   7103.67  8.5078890E-03
   7104.00  8.8406311E-03
   7104.33  9.2060363E-03
   7104.67  9.6053185E-03
   7105.00  1.0043560E-02
   7105.33  1.0533907E-02
   7105.67  1.1079965E-02
   7106.00  1.1691961E-02
   7106.33  1.2395519E-02
   7106.67  1.3201198E-02
   7107.00  1.4132763E-02
   7107.33  1.5248804E-02
   7107.67  1.6583735E-02
   7108.00  1.8205364E-02
   7108.33  2.0283245E-02
   7108.67  2.2957954E-02
   7109.00  2.6494934E-02
   7109.33  3.1606312E-02
   7109.67  3.9146543E-02
   7110.00  5.0803173E-02
   7110.33  7.1394883E-02
   7110.67  1.0493487E-01
   7111.00  1.4706960E-01
   7111.33  1.7951856E-01
   7111.67  2.0709373E-01
   7112.00  2.2181863E-01
   7112.33  2.0076523E-01
   7112.67  1.6136959E-01
   7113.00  1.2562885E-01
   7113.33  1.0322328E-01
   7113.67  8.9935148E-02
   7114.00  8.2678457E-02
   7114.33  7.9665266E-02
   7114.67  7.9277587E-02
   7115.00  8.1035110E-02
   7115.33  8.4972056E-02
   7115.67  9.0914094E-02
   7116.00  9.9019997E-02
   7116.33  1.0977882E-01
   7116.67  1.2301430E-01
   7117.00  1.3873830E-01
   7117.33  1.5731748E-01
   7117.67  1.7867012E-01
   7118.00  2.0298999E-01
   7118.33  2.3041582E-01
   7118.67  2.5956913E-01
   7119.00  2.8877539E-01
   7119.33  3.1547567E-01
   7119.67  3.3933379E-01
   7120.00  3.6205879E-01
   7120.33  3.8623583E-01
   7120.67  4.1241841E-01
   7121.00  4.3970285E-01
   7121.33  4.6599981E-01
   7121.67  4.8969923E-01
   7122.00  5.1014826E-01
   7122.33  5.2652980E-01
   7122.67  5.3898323E-01
   7123.00  5.4774068E-01
   7123.33  5.5360491E-01
   7123.67  5.5824999E-01
   7124.00  5.6230956E-01
   7124.33  5.6566014E-01
   7124.67  5.6797482E-01
   7125.00  5.6909092E-01
   7125.33  5.6917585E-01
   7125.67  5.6880413E-01
   7126.00  5.6814665E-01
   7126.33  5.6726071E-01
   7126.67  5.6644047E-01
   7127.00  5.6604980E-01
   7127.33  5.6668990E-01
   7127.67  5.6875205E-01
   7128.00  5.7257895E-01
   7128.33  5.7855139E-01
   7128.67  5.8620279E-01
   7129.00  5.9503303E-01
   7129.33  6.0425414E-01
   7129.67  6.1292112E-01
   7130.00  6.2037198E-01
   7130.33  6.2588812E-01
   7130.67  6.2949717E-01
   7131.00  6.3122789E-01
   7131.33  6.3101699E-01
   7131.67  6.2927236E-01
   7132.00  6.2610548E-01
   7132.33  6.2132604E-01
   7132.67  6.1507395E-01
   7133.00  6.0758792E-01
   7133.33  5.9957721E-01
   7133.67  5.9201355E-01
   7134.00  5.8543893E-01
   7134.33  5.8032706E-01
   7134.67  5.7664965E-01
   7135.00  5.7445381E-01
   7135.33  5.7390347E-01
   7135.67  5.7471556E-01
   7136.00  5.7675461E-01
   7136.33  5.7990884E-01
   7136.67  5.8373324E-01
   7137.00  5.8790714E-01
   7137.33  5.9204485E-01
   7137.67  5.9581152E-01
   7138.00  5.9898458E-01
   7138.33  6.0131201E-01
   7138.67  6.0283167E-01
   7139.00  6.0355395E-01
   7139.33  6.0343934E-01
   7139.67  6.0265737E-01
   7140.00  6.0127882E-01
   7140.33  5.9931733E-01
   7140.67  5.9690701E-01
   7141.00  5.9409914E-01
   7141.33  5.9090231E-01
   7141.67  5.8740693E-01
   7142.00  5.8364880E-01
   7142.33  5.7963453E-01
   7142.67  5.7542344E-01
   7143.00  5.7103927E-01
   7143.33  5.6648700E-01
   7143.67  5.6180484E-01
   7144.00  5.5700662E-01
   7144.33  5.5209227E-01
   7144.67  5.4708466E-01
   7145.00  5.4199014E-01
   7145.33  5.3680354E-01
   7145.67  5.3153872E-01
   7146.00  5.2619857E-01
   7146.33  5.2077780E-01
   7146.67  5.1529022E-01
   7147.00  5.0974174E-01
   7147.33  5.0413524E-01
   7147.67  4.9848924E-01
   7148.00  4.9281601E-01
   7148.33  4.8713054E-01
   7148.67  4.8145297E-01
   7149.00  4.7580074E-01
   7149.33  4.7019977E-01
   7149.67  4.6466447E-01
   7150.00  4.5921222E-01
   7150.33  4.5387544E-01
   7150.67  4.4865940E-01
   7151.00  4.4357770E-01
   7151.33  4.3866308E-01
   7151.67  4.3391114E-01
   7152.00  4.2933159E-01
   7152.33  4.2495072E-01
   7152.67  4.2075452E-01
   7153.00  4.1675650E-01
   7153.33  4.1299515E-01
   7153.67  4.0945276E-01
   7154.00  4.0613622E-01
   7154.33  4.0308256E-01
   7154.67  4.0026991E-01
   7155.00  3.9770435E-01
   7155.33  3.9542433E-01
   7155.67  3.9340406E-01
   7156.00  3.9164874E-01
   7156.33  3.9019837E-01
   7156.67  3.8902504E-01
   7157.00  3.8813456E-01
   7157.33  3.8757080E-01
   7157.67  3.8730464E-01
   7158.00  3.8734111E-01
   7158.33  3.8772297E-01
   7158.67  3.8841392E-01
   7159.00  3.8941258E-01
   7159.33  3.9075048E-01
   7159.67  3.9237916E-01
   7160.00  3.9428570E-01
   7160.33  3.9648310E-01
   7160.67  3.9891512E-01
   7161.00  4.0155856E-01
   7161.33  4.0440846E-01
   7161.67  4.0741343E-01
   7162.00  4.1054787E-01
   7162.33  4.1379478E-01
   7162.67  4.1711466E-01
   7163.00  4.2048534E-01
   7163.33  4.2387555E-01
   7163.67  4.2724776E-01
   7164.00  4.3058300E-01
   7164.33  4.3385942E-01
   7164.67  4.3707079E-01
   7165.00  4.4020820E-01
   7165.33  4.4325373E-01
   7165.67  4.4621159E-01
   7166.00  4.4907750E-01
   7166.33  4.5183672E-01
   7166.67  4.5450002E-01
   7167.00  4.5706705E-01
   7167.33  4.5952610E-01
   7167.67  4.6188970E-01
   7168.00  4.6415799E-01
   7168.33  4.6631844E-01
   7168.67  4.6838157E-01
   7169.00  4.7034533E-01
   7169.33  4.7219372E-01
   7169.67  4.7393560E-01
   7170.00  4.7556708E-01
   7170.33  4.7706838E-01
   7170.67  4.7844706E-01
   7171.00  4.7969535E-01
   7171.33  4.8078268E-01
   7171.67  4.8170648E-01
   7172.00  4.8244247E-01
