    FDMNES
    energy     <xanes>
   7097.00  4.8439008E-03
   7097.33  4.9517304E-03
   7097.67  5.0641142E-03
   7098.00  5.1813402E-03
   7098.33  5.3044290E-03
   7098.67  5.4331383E-03
   7099.00  5.5678544E-03
   7099.33  5.7098898E-03
   7099.67  5.8589888E-03
   7100.00  6.0156833E-03
   7100.33  6.1817022E-03
   7100.67  6.3567919E-03
   7101.00  6.5417064E-03
   7101.33  6.7387907E-03
   7101.67  6.9478285E-03
   7102.00  7.1699271E-03
   7102.33  7.4083824E-03
   7102.67  7.6630938E-03
   7103.00  7.9357608E-03
   7103.33  8.2312221E-03
   7103.67  8.5496741E-03
   7104.00  8.8938694E-03
   7104.33  9.2713164E-03
   7104.67  9.6829430E-03
   7105.00  1.0133526E-02
   7105.33  1.0635587E-02
   7105.67  1.1191915E-02
   7106.00  1.1811596E-02
   7106.33  1.2517650E-02
   7106.67  1.3318039E-02
   7107.00  1.4232393E-02
   7107.33  1.5309398E-02
   7107.67  1.6573769E-02
   7108.00  1.8076815E-02
   7108.33  1.9946406E-02
   7108.67  2.2277393E-02
   7109.00  2.5252313E-02
   7109.33  2.9354794E-02
   7109.67  3.5126637E-02
   7110.00  4.3638559E-02
   7110.33  5.7935556E-02
   7110.67  8.0673491E-02
   7111.00  1.1003789E-01
   7111.33  1.3437546E-01
   7111.67  1.4819842E-01
   7112.00  1.5241818E-01
   7112.33  1.6307931E-01
   7112.67  1.9315116E-01
   7113.00  2.4830017E-01
   7113.33  3.2458497E-01
   7113.67  3.9191631E-01
   7114.00  4.2397397E-01
   7114.33  3.7186568E-01
   7114.67  2.7886732E-01
   7115.00  2.0383945E-01
   7115.33  1.6102845E-01
   7115.67  1.3646480E-01
   7116.00  1.2355013E-01
   7116.33  1.1911939E-01
   7116.67  1.2022252E-01
   7117.00  1.2593648E-01
   7117.33  1.3593100E-01
   7117.67  1.4855383E-01
   7118.00  1.6232994E-01
   7118.33  1.7584972E-01
   7118.67  1.8867288E-01
   7119.00  2.0052166E-01
   7119.33  2.1076647E-01
   7119.67  2.1950674E-01
   7120.00  2.2717418E-01
   7120.33  2.3459373E-01
   7120.67  2.4261591E-01
   7121.00  2.5168565E-01
   7121.33  2.6209823E-01
   7121.67  2.7358348E-01
   7122.00  2.8601102E-01
   7122.33  2.9951125E-01
   7122.67  3.1415665E-01
   7123.00  3.3011893E-01
   7123.33  3.4750076E-01
   7123.67  3.6535470E-01
   7124.00  3.8238767E-01
   7124.33  3.9720158E-01
   7124.67  4.1061858E-01
   7125.00  4.2479553E-01
   7125.33  4.4361931E-01
   7125.67  4.6841854E-01
   7126.00  4.9798559E-01
   7126.33  5.2837218E-01
   7126.67  5.5485272E-01
   7127.00  5.7470941E-01
   7127.33  5.8651709E-01
   7127.67  5.9298845E-01
   7128.00  5.9630721E-01
   7128.33  5.9820407E-01
   7128.67  5.9949501E-01
   7129.00  5.9996010E-01
   7129.33  5.9880225E-01
   7129.67  5.9575116E-01
   7130.00  5.9091729E-01
   7130.33  5.8504464E-01
   7130.67  5.7962750E-01
   7131.00  5.7584575E-01
   7131.33  5.7499350E-01
   7131.67  5.7715070E-01
   7132.00  5.8224469E-01
   7132.33  5.9015976E-01
   7132.67  5.9997263E-01
   7133.00  6.1112333E-01
   7133.33  6.2306654E-01
   7133.67  6.3513750E-01
   7134.00  6.4690755E-01
   7134.33  6.5784685E-01
   7134.67  6.6766662E-01
   7135.00  6.7615098E-01
   7135.33  6.8299795E-01
   7135.67  6.8835831E-01
   7136.00  6.9225817E-01
   7136.33  6.9460258E-01
   7136.67  6.9567627E-01
   7137.00  6.9558952E-01
   7137.33  6.9434709E-01
   7137.67  6.9220657E-01
   7138.00  6.8927093E-01
   7138.33  6.8556166E-01
   7138.67  6.8125733E-01
   7139.00  6.7642551E-01
   7139.33  6.7107431E-01
   7139.67  6.6531691E-01
   7140.00  6.5919650E-01
   7140.33  6.5271781E-01
   7140.67  6.4594358E-01
   7141.00  6.3887551E-01
   7141.33  6.3147848E-01
   7141.67  6.2379682E-01
   7142.00  6.1584098E-01
   7142.33  6.0758861E-01
   7142.67  5.9908354E-01
   7143.00  5.9034256E-01
   7143.33  5.8136378E-01
   7143.67  5.7220191E-01
   7144.00  5.6288527E-01
   7144.33  5.5343700E-01
   7144.67  5.4391561E-01
   7145.00  5.3436430E-01
   7145.33  5.2484225E-01
   7145.67  5.1540794E-01
   7146.00  5.0611868E-01
   7146.33  4.9707158E-01
   7146.67  4.8831333E-01
   7147.00  4.7990982E-01
   7147.33  4.7199076E-01
   7147.67  4.6457365E-01
   7148.00  4.5771414E-01
   7148.33  4.5154375E-01
   7148.67  4.4602764E-01
   7149.00  4.4118980E-01
   7149.33  4.3712892E-01
   7149.67  4.3375373E-01
   7150.00  4.3104681E-01
   7150.33  4.2905336E-01
   7150.67  4.2764823E-01
   7151.00  4.2678423E-01
   7151.33  4.2645986E-01
   7151.67  4.2655048E-01
   7152.00  4.2700035E-01
   7152.33  4.2778378E-01
   7152.67  4.2880629E-01
   7153.00  4.3002482E-01
   7153.33  4.3141590E-01
   7153.67  4.3292157E-01
   7154.00  4.3450890E-01
   7154.33  4.3614651E-01
   7154.67  4.3779115E-01
   7155.00  4.3940636E-01
   7155.33  4.4093508E-01
   7155.67  4.4233582E-01
   7156.00  4.4356228E-01
   7156.33  4.4453045E-01
   7156.67  4.4521546E-01
   7157.00  4.4557655E-01
   7157.33  4.4553182E-01
   7157.67  4.4510444E-01
   7158.00  4.4429026E-01
   7158.33  4.4305583E-01
   7158.67  4.4147877E-01
   7159.00  4.3959824E-01
   7159.33  4.3744069E-01
   7159.67  4.3510165E-01
   7160.00  4.3263952E-01
   7160.33  4.3011629E-01
   7160.67  4.2760537E-01
   7161.00  4.2515999E-01
   7161.33  4.2285145E-01
   7161.67  4.2071413E-01
   7162.00  4.1878572E-01
   7162.33  4.1713552E-01
   7162.67  4.1576214E-01
   7163.00  4.1468451E-01
   7163.33  4.1395681E-01
   7163.67  4.1354756E-01
   7164.00  4.1345739E-01
   7164.33  4.1372007E-01
   7164.67  4.1428521E-01
   7165.00  4.1513922E-01
   7165.33  4.1629592E-01
   7165.67  4.1769702E-01
   7166.00  4.1931734E-01
   7166.33  4.2115018E-01
   7166.67  4.2314121E-01
   7167.00  4.2526361E-01
   7167.33  4.2749934E-01
   7167.67  4.2980672E-01
   7168.00  4.3216218E-01
   7168.33  4.3454358E-01
   7168.67  4.3692617E-01
   7169.00  4.3929335E-01
   7169.33  4.4162348E-01
   7169.67  4.4390533E-01
   7170.00  4.4612716E-01
   7170.33  4.4826592E-01
   7170.67  4.5031439E-01
   7171.00  4.5225326E-01
   7171.33  4.5402783E-01
   7171.67  4.5558990E-01
   7172.00  4.5685351E-01
