    FDMNES
    energy     <xanes>
   7097.00  5.1363944E-03
   7097.33  5.2579384E-03
   7097.67  5.3849818E-03
   7098.00  5.5178954E-03
   7098.33  5.6579498E-03
   7098.67  5.8048834E-03
   7099.00  5.9592014E-03
   7099.33  6.1225647E-03
   7099.67  6.2947057E-03
   7100.00  6.4763318E-03
   7100.33  6.6696719E-03
   7100.67  6.8744788E-03
   7101.00  7.0917752E-03
   7101.33  7.3246480E-03
   7101.67  7.5729297E-03
   7102.00  7.8381562E-03
   7102.33  8.1247704E-03
   7102.67  8.4328166E-03
   7103.00  8.7647119E-03
   7103.33  9.1271613E-03
   7103.67  9.5207268E-03
   7104.00  9.9494399E-03
   7104.33  1.0424045E-02
   7104.67  1.0946371E-02
   7105.00  1.1523659E-02
   7105.33  1.2174532E-02
   7105.67  1.2904077E-02
   7106.00  1.3726661E-02
   7106.33  1.4678173E-02
   7106.67  1.5773015E-02
   7107.00  1.7043885E-02
   7107.33  1.8571309E-02
   7107.67  2.0401179E-02
   7108.00  2.2624747E-02
   7108.33  2.5470059E-02
   7108.67  2.9122564E-02
   7109.00  3.3934543E-02
   7109.33  4.0852749E-02
   7109.67  5.1012353E-02
   7110.00  6.6666917E-02
   7110.33  9.4264286E-02
   7110.67  1.3897962E-01
   7111.00  1.9342116E-01
   7111.33  2.2291358E-01
   7111.67  2.2485681E-01
   7112.00  2.1586296E-01
   7112.33  2.1919958E-01
   7112.67  2.4749489E-01
   7113.00  3.0745775E-01
   7113.33  3.9931222E-01
   7113.67  4.8392949E-01
   7114.00  4.9929242E-01
   7114.33  3.9315255E-01
   7114.67  2.7894129E-01
   7115.00  2.0407859E-01
   7115.33  1.6377314E-01
   7115.67  1.4074828E-01
   7116.00  1.2861435E-01
   7116.33  1.2444222E-01
   7116.67  1.2556061E-01
   7117.00  1.3114710E-01
   7117.33  1.4071598E-01
   7117.67  1.5239446E-01
   7118.00  1.6456124E-01
   7118.33  1.7571523E-01
   7118.67  1.8628806E-01
   7119.00  1.9694044E-01
   7119.33  2.0742265E-01
   7119.67  2.1713474E-01
   7120.00  2.2598773E-01
   7120.33  2.3447841E-01
   7120.67  2.4343811E-01
   7121.00  2.5331437E-01
   7121.33  2.6420350E-01
   7121.67  2.7559319E-01
   7122.00  2.8715867E-01
   7122.33  2.9891162E-01
   7122.67  3.1145285E-01
   7123.00  3.2573034E-01
   7123.33  3.4303744E-01
   7123.67  3.6289855E-01
   7124.00  3.8413413E-01
   7124.33  4.0491425E-01
   7124.67  4.2404667E-01
   7125.00  4.4146067E-01
   7125.33  4.5822555E-01
   7125.67  4.7594703E-01
   7126.00  4.9524175E-01
   7126.33  5.1577398E-01
   7126.67  5.3603748E-01
   7127.00  5.5444976E-01
   7127.33  5.6906369E-01
   7127.67  5.8002627E-01
   7128.00  5.8805467E-01
   7128.33  5.9393673E-01
   7128.67  5.9839501E-01
   7129.00  6.0137433E-01
   7129.33  6.0253105E-01
   7129.67  6.0227736E-01
   7130.00  6.0124217E-01
   7130.33  6.0077968E-01
   7130.67  6.0237578E-01
   7131.00  6.0697965E-01
   7131.33  6.1510156E-01
   7131.67  6.2554515E-01
   7132.00  6.3728743E-01
   7132.33  6.4917382E-01
   7132.67  6.6023562E-01
   7133.00  6.6986888E-01
   7133.33  6.7738063E-01
   7133.67  6.8284218E-01
   7134.00  6.8635818E-01
   7134.33  6.8798842E-01
   7134.67  6.8814217E-01
   7135.00  6.8685638E-01
   7135.33  6.8393567E-01
   7135.67  6.7958041E-01
   7136.00  6.7387404E-01
   7136.33  6.6687435E-01
   7136.67  6.5901843E-01
   7137.00  6.5059270E-01
   7137.33  6.4190465E-01
   7137.67  6.3328500E-01
   7138.00  6.2493822E-01
   7138.33  6.1708217E-01
   7138.67  6.0975344E-01
   7139.00  6.0298564E-01
   7139.33  5.9684972E-01
   7139.67  5.9124293E-01
   7140.00  5.8611413E-01
   7140.33  5.8143438E-01
   7140.67  5.7707599E-01
   7141.00  5.7299265E-01
   7141.33  5.6918804E-01
   7141.67  5.6560512E-01
   7142.00  5.6219332E-01
   7142.33  5.5885147E-01
   7142.67  5.5542479E-01
   7143.00  5.5178508E-01
   7143.33  5.4776190E-01
   7143.67  5.4330453E-01
   7144.00  5.3836544E-01
   7144.33  5.3286405E-01
   7144.67  5.2688029E-01
   7145.00  5.2045359E-01
   7145.33  5.1360786E-01
   7145.67  5.0648484E-01
   7146.00  4.9918445E-01
   7146.33  4.9183454E-01
   7146.67  4.8458665E-01
   7147.00  4.7757049E-01
   7147.33  4.7098147E-01
   7147.67  4.6490951E-01
   7148.00  4.5945891E-01
   7148.33  4.5481933E-01
   7148.67  4.5097175E-01
   7149.00  4.4795062E-01
   7149.33  4.4586089E-01
   7149.67  4.4455719E-01
   7150.00  4.4397485E-01
   7150.33  4.4408695E-01
   7150.67  4.4469558E-01
   7151.00  4.4569157E-01
   7151.33  4.4698004E-01
   7151.67  4.4841154E-01
   7152.00  4.4989772E-01
   7152.33  4.5134649E-01
   7152.67  4.5268971E-01
   7153.00  4.5387579E-01
   7153.33  4.5482632E-01
   7153.67  4.5551947E-01
   7154.00  4.5591529E-01
   7154.33  4.5592682E-01
   7154.67  4.5555530E-01
   7155.00  4.5476509E-01
   7155.33  4.5345903E-01
   7155.67  4.5166110E-01
   7156.00  4.4935207E-01
   7156.33  4.4646073E-01
   7156.67  4.4306822E-01
   7157.00  4.3920997E-01
   7157.33  4.3490409E-01
   7157.67  4.3029724E-01
   7158.00  4.2549188E-01
   7158.33  4.2061299E-01
   7158.67  4.1580717E-01
   7159.00  4.1118926E-01
   7159.33  4.0691753E-01
   7159.67  4.0305320E-01
   7160.00  3.9966424E-01
   7160.33  3.9687477E-01
   7160.67  3.9465222E-01
   7161.00  3.9300877E-01
   7161.33  3.9201381E-01
   7161.67  3.9157867E-01
   7162.00  3.9168009E-01
   7162.33  3.9234262E-01
   7162.67  3.9345989E-01
   7163.00  3.9499110E-01
   7163.33  3.9692949E-01
   7163.67  3.9917630E-01
   7164.00  4.0168933E-01
   7164.33  4.0445179E-01
   7164.67  4.0739602E-01
   7165.00  4.1049082E-01
   7165.33  4.1371659E-01
   7165.67  4.1702796E-01
   7166.00  4.2040153E-01
   7166.33  4.2381662E-01
   7166.67  4.2724353E-01
   7167.00  4.3065982E-01
   7167.33  4.3403362E-01
   7167.67  4.3734164E-01
   7168.00  4.4055973E-01
   7168.33  4.4364701E-01
   7168.67  4.4659512E-01
   7169.00  4.4938868E-01
   7169.33  4.5199544E-01
   7169.67  4.5443164E-01
   7170.00  4.5669859E-01
   7170.33  4.5878261E-01
   7170.67  4.6071247E-01
   7171.00  4.6249205E-01
   7171.33  4.6409326E-01
   7171.67  4.6549797E-01
   7172.00  4.6664199E-01
