    FDMNES
    energy     <xanes>
   7097.00  4.6299673E-03
   7097.33  4.7282702E-03
   7097.67  4.8304993E-03
   7098.00  4.9368904E-03
   7098.33  5.0483022E-03
   7098.67  5.1645088E-03
   7099.00  5.2858229E-03
   7099.33  5.4133350E-03
   7099.67  5.5468038E-03
   7100.00  5.6866541E-03
   7100.33  5.8343036E-03
   7100.67  5.9895057E-03
   7101.00  6.1528547E-03
   7101.33  6.3262466E-03
   7101.67  6.5094534E-03
   7102.00  6.7033375E-03
   7102.33  6.9105231E-03
   7102.67  7.1308574E-03
   7103.00  7.3656470E-03
   7103.33  7.6186853E-03
   7103.67  7.8900256E-03
   7104.00  8.1817591E-03
   7104.33  8.4996833E-03
   7104.67  8.8443757E-03
   7105.00  9.2194300E-03
   7105.33  9.6343828E-03
   7105.67  1.0091173E-02
   7106.00  1.0596594E-02
   7106.33  1.1168006E-02
   7106.67  1.1811196E-02
   7107.00  1.2540843E-02
   7107.33  1.3393557E-02
   7107.67  1.4387824E-02
   7108.00  1.5562366E-02
   7108.33  1.7014094E-02
   7108.67  1.8815746E-02
   7109.00  2.1107632E-02
   7109.33  2.4263026E-02
   7109.67  2.8705977E-02
   7110.00  3.5278497E-02
   7110.33  4.6441887E-02
   7110.67  6.4907193E-02
   7111.00  9.0635434E-02
   7111.33  1.0766091E-01
   7111.67  1.1002677E-01
   7112.00  1.0757517E-01
   7112.33  1.0632938E-01
   7112.67  1.1158580E-01
   7113.00  1.2728471E-01
   7113.33  1.5987802E-01
   7113.67  2.1227346E-01
   7114.00  2.8312995E-01
   7114.33  3.4590157E-01
   7114.67  3.4279158E-01
   7115.00  2.7093258E-01
   7115.33  2.0218610E-01
   7115.67  1.5911163E-01
   7116.00  1.3512568E-01
   7116.33  1.2447255E-01
   7116.67  1.2192427E-01
   7117.00  1.2596063E-01
   7117.33  1.3657657E-01
   7117.67  1.5264218E-01
   7118.00  1.7325405E-01
   7118.33  1.9575823E-01
   7118.67  2.1563163E-01
   7119.00  2.3028611E-01
   7119.33  2.3830326E-01
   7119.67  2.4116511E-01
   7120.00  2.4034211E-01
   7120.33  2.3791039E-01
   7120.67  2.3618981E-01
   7121.00  2.3665019E-01
   7121.33  2.4108753E-01
   7121.67  2.5022117E-01
   7122.00  2.6493389E-01
   7122.33  2.8661214E-01
   7122.67  3.1427718E-01
   7123.00  3.4703642E-01
   7123.33  3.8209416E-01
   7123.67  4.1279717E-01
   7124.00  4.3464061E-01
   7124.33  4.4728446E-01
   7124.67  4.5588548E-01
   7125.00  4.6350179E-01
   7125.33  4.7211552E-01
   7125.67  4.8206923E-01
   7126.00  4.9307374E-01
   7126.33  5.0435715E-01
   7126.67  5.1520543E-01
   7127.00  5.2558208E-01
   7127.33  5.3584149E-01
   7127.67  5.4610740E-01
   7128.00  5.5615176E-01
   7128.33  5.6557128E-01
   7128.67  5.7414015E-01
   7129.00  5.8157108E-01
   7129.33  5.8725531E-01
   7129.67  5.9086296E-01
   7130.00  5.9194544E-01
   7130.33  5.9001417E-01
   7130.67  5.8621635E-01
   7131.00  5.8224521E-01
   7131.33  5.8079263E-01
   7131.67  5.8311041E-01
   7132.00  5.8931326E-01
   7132.33  5.9889103E-01
   7132.67  6.1012953E-01
   7133.00  6.2190271E-01
   7133.33  6.3308852E-01
   7133.67  6.4300770E-01
   7134.00  6.5125203E-01
   7134.33  6.5735492E-01
   7134.67  6.6154229E-01
   7135.00  6.6391795E-01
   7135.33  6.6449760E-01
   7135.67  6.6377184E-01
   7136.00  6.6204068E-01
   7136.33  6.5963265E-01
   7136.67  6.5705313E-01
   7137.00  6.5465103E-01
   7137.33  6.5281841E-01
   7137.67  6.5168963E-01
   7138.00  6.5130793E-01
   7138.33  6.5166007E-01
   7138.67  6.5244317E-01
   7139.00  6.5340302E-01
   7139.33  6.5419778E-01
   7139.67  6.5453600E-01
   7140.00  6.5418873E-01
   7140.33  6.5284120E-01
   7140.67  6.5048230E-01
   7141.00  6.4707637E-01
   7141.33  6.4252488E-01
   7141.67  6.3703789E-01
   7142.00  6.3071508E-01
   7142.33  6.2359336E-01
   7142.67  6.1588580E-01
   7143.00  6.0770238E-01
   7143.33  5.9911407E-01
   7143.67  5.9025903E-01
   7144.00  5.8119958E-01
   7144.33  5.7197155E-01
   7144.67  5.6263747E-01
   7145.00  5.5324008E-01
   7145.33  5.4382726E-01
   7145.67  5.3443785E-01
   7146.00  5.2510409E-01
   7146.33  5.1588233E-01
   7146.67  5.0681186E-01
   7147.00  4.9794311E-01
   7147.33  4.8937382E-01
   7147.67  4.8114055E-01
   7148.00  4.7330609E-01
   7148.33  4.6600073E-01
   7148.67  4.5923079E-01
   7149.00  4.5304407E-01
   7149.33  4.4756115E-01
   7149.67  4.4272908E-01
   7150.00  4.3855426E-01
   7150.33  4.3510628E-01
   7150.67  4.3227502E-01
   7151.00  4.3002320E-01
   7151.33  4.2835991E-01
   7151.67  4.2715427E-01
   7152.00  4.2634720E-01
   7152.33  4.2591198E-01
   7152.67  4.2574398E-01
   7153.00  4.2579512E-01
   7153.33  4.2603959E-01
   7153.67  4.2641828E-01
   7154.00  4.2690549E-01
   7154.33  4.2748560E-01
   7154.67  4.2812095E-01
   7155.00  4.2878331E-01
   7155.33  4.2943259E-01
   7155.67  4.3003134E-01
   7156.00  4.3054615E-01
   7156.33  4.3092102E-01
   7156.67  4.3113234E-01
   7157.00  4.3115031E-01
   7157.33  4.3092153E-01
   7157.67  4.3045988E-01
   7158.00  4.2976480E-01
   7158.33  4.2882160E-01
   7158.67  4.2768272E-01
   7159.00  4.2637585E-01
   7159.33  4.2492087E-01
   7159.67  4.2337132E-01
   7160.00  4.2175679E-01
   7160.33  4.2010422E-01
   7160.67  4.1844616E-01
   7161.00  4.1680512E-01
   7161.33  4.1521112E-01
   7161.67  4.1368446E-01
   7162.00  4.1224836E-01
   7162.33  4.1094289E-01
   7162.67  4.0977879E-01
   7163.00  4.0878149E-01
   7163.33  4.0800689E-01
   7163.67  4.0745982E-01
   7164.00  4.0716289E-01
   7164.33  4.0717066E-01
   7164.67  4.0746305E-01
   7165.00  4.0804661E-01
   7165.33  4.0895972E-01
   7165.67  4.1016107E-01
   7166.00  4.1164067E-01
   7166.33  4.1341407E-01
   7166.67  4.1542833E-01
   7167.00  4.1766336E-01
   7167.33  4.2011717E-01
   7167.67  4.2273681E-01
   7168.00  4.2549615E-01
   7168.33  4.2837660E-01
   7168.67  4.3133115E-01
   7169.00  4.3433040E-01
   7169.33  4.3734116E-01
   7169.67  4.4032767E-01
   7170.00  4.4326033E-01
   7170.33  4.4609225E-01
   7170.67  4.4879604E-01
   7171.00  4.5133486E-01
   7171.33  4.5362723E-01
   7171.67  4.5561882E-01
   7172.00  4.5721284E-01
