    FDMNES
    energy     <xanes>
   7097.00  4.2238596E-03
   7097.33  4.3015037E-03
   7097.67  4.3818685E-03
   7098.00  4.4651074E-03
   7098.33  4.5518007E-03
   7098.67  4.6417816E-03
   7099.00  4.7352555E-03
   7099.33  4.8329569E-03
   7099.67  4.9347126E-03
   7100.00  5.0408060E-03
   7100.33  5.1521956E-03
   7100.67  5.2687130E-03
   7101.00  5.3907648E-03
   7101.33  5.5196497E-03
   7101.67  5.6552306E-03
   7102.00  5.7981198E-03
   7102.33  5.9501610E-03
   7102.67  6.1113106E-03
   7103.00  6.2825463E-03
   7103.33  6.4666461E-03
   7103.67  6.6638094E-03
   7104.00  6.8757129E-03
   7104.33  7.1068746E-03
   7104.67  7.3581176E-03
   7105.00  7.6325905E-03
   7105.33  7.9383991E-03
   7105.67  8.2780612E-03
   7106.00  8.6582180E-03
   7106.33  9.0954215E-03
   7106.67  9.5973237E-03
   7107.00  1.0180289E-02
   7107.33  1.0884632E-02
   7107.67  1.1736538E-02
   7108.00  1.2786235E-02
   7108.33  1.4160272E-02
   7108.67  1.5972877E-02
   7109.00  1.8438857E-02
   7109.33  2.2145014E-02
   7109.67  2.7843644E-02
   7110.00  3.7036170E-02
   7110.33  5.4085863E-02
   7110.67  8.2669067E-02
   7111.00  1.1708999E-01
   7111.33  1.2541601E-01
   7111.67  1.0800638E-01
   7112.00  8.5969610E-02
   7112.33  7.0080828E-02
   7112.67  5.8472427E-02
   7113.00  5.0003775E-02
   7113.33  4.4104282E-02
   7113.67  3.9247902E-02
   7114.00  3.4808543E-02
   7114.33  3.1280309E-02
   7114.67  2.9087261E-02
   7115.00  2.7977362E-02
   7115.33  2.7684984E-02
   7115.67  2.7929156E-02
   7116.00  2.8651200E-02
   7116.33  2.9914166E-02
   7116.67  3.1711956E-02
   7117.00  3.4124213E-02
   7117.33  3.7371141E-02
   7117.67  4.1513131E-02
   7118.00  4.6678445E-02
   7118.33  5.3087432E-02
   7118.67  6.0485854E-02
   7119.00  6.8478602E-02
   7119.33  7.6167094E-02
   7119.67  8.2667114E-02
   7120.00  8.7682663E-02
   7120.33  9.1448433E-02
   7120.67  9.4805550E-02
   7121.00  9.8345867E-02
   7121.33  1.0279130E-01
   7121.67  1.0863109E-01
   7122.00  1.1639215E-01
   7122.33  1.2710319E-01
   7122.67  1.4128947E-01
   7123.00  1.5983266E-01
   7123.33  1.8455669E-01
   7123.67  2.1566069E-01
   7124.00  2.5301135E-01
   7124.33  2.9460836E-01
   7124.67  3.3521725E-01
   7125.00  3.7212840E-01
   7125.33  4.0800689E-01
   7125.67  4.5012645E-01
   7126.00  5.0415592E-01
   7126.33  5.7607286E-01
   7126.67  6.6469022E-01
   7127.00  7.6728573E-01
   7127.33  8.7670200E-01
   7127.67  9.8012239E-01
   7128.00  1.0665139E+00
   7128.33  1.1233494E+00
   7128.67  1.1500148E+00
   7129.00  1.1454191E+00
   7129.33  1.1057212E+00
   7129.67  1.0407338E+00
   7130.00  9.6286227E-01
   7130.33  8.9036213E-01
   7130.67  8.3563346E-01
   7131.00  8.0359356E-01
   7131.33  7.9757967E-01
   7131.67  8.1235586E-01
   7132.00  8.4418008E-01
   7132.33  8.8662361E-01
   7132.67  9.2667787E-01
   7133.00  9.5245953E-01
   7133.33  9.5127482E-01
   7133.67  9.2656020E-01
   7134.00  8.8558135E-01
   7134.33  8.3755472E-01
   7134.67  7.9046824E-01
   7135.00  7.4764852E-01
   7135.33  7.1134426E-01
   7135.67  6.8091862E-01
   7136.00  6.5590102E-01
   7136.33  6.3608787E-01
   7136.67  6.2007862E-01
   7137.00  6.0721606E-01
   7137.33  5.9713084E-01
   7137.67  5.8893817E-01
   7138.00  5.8222119E-01
   7138.33  5.7670624E-01
   7138.67  5.7192812E-01
   7139.00  5.6765792E-01
   7139.33  5.6372402E-01
   7139.67  5.5993429E-01
   7140.00  5.5619424E-01
   7140.33  5.5243056E-01
   7140.67  5.4861216E-01
   7141.00  5.4473447E-01
   7141.33  5.4080798E-01
   7141.67  5.3686986E-01
   7142.00  5.3295585E-01
   7142.33  5.2912458E-01
   7142.67  5.2542277E-01
   7143.00  5.2190221E-01
   7143.33  5.1865650E-01
   7143.67  5.1571789E-01
   7144.00  5.1313544E-01
   7144.33  5.1100134E-01
   7144.67  5.0928017E-01
   7145.00  5.0795111E-01
   7145.33  5.0698049E-01
   7145.67  5.0620460E-01
   7146.00  5.0549285E-01
   7146.33  5.0467337E-01
   7146.67  5.0360531E-01
   7147.00  5.0217670E-01
   7147.33  5.0023417E-01
   7147.67  4.9777900E-01
   7148.00  4.9479339E-01
   7148.33  4.9121934E-01
   7148.67  4.8715192E-01
   7149.00  4.8262783E-01
   7149.33  4.7764480E-01
   7149.67  4.7230334E-01
   7150.00  4.6664278E-01
   7150.33  4.6066710E-01
   7150.67  4.5444298E-01
   7151.00  4.4799296E-01
   7151.33  4.4131500E-01
   7151.67  4.3445978E-01
   7152.00  4.2745524E-01
   7152.33  4.2033006E-01
   7152.67  4.1315276E-01
   7153.00  4.0598901E-01
   7153.33  3.9894418E-01
   7153.67  3.9209450E-01
   7154.00  3.8551142E-01
   7154.33  3.7930764E-01
   7154.67  3.7348930E-01
   7155.00  3.6807518E-01
   7155.33  3.6310711E-01
   7155.67  3.5849747E-01
   7156.00  3.5419393E-01
   7156.33  3.5015005E-01
   7156.67  3.4625823E-01
   7157.00  3.4245743E-01
   7157.33  3.3869675E-01
   7157.67  3.3494154E-01
   7158.00  3.3119177E-01
   7158.33  3.2748503E-01
   7158.67  3.2388379E-01
   7159.00  3.2046991E-01
   7159.33  3.1739793E-01
   7159.67  3.1476031E-01
   7160.00  3.1267215E-01
   7160.33  3.1134781E-01
   7160.67  3.1081879E-01
   7161.00  3.1116867E-01
   7161.33  3.1259148E-01
   7161.67  3.1501677E-01
   7162.00  3.1846363E-01
   7162.33  3.2305355E-01
   7162.67  3.2862707E-01
   7163.00  3.3513849E-01
   7163.33  3.4262358E-01
   7163.67  3.5087586E-01
   7164.00  3.5979231E-01
   7164.33  3.6931060E-01
   7164.67  3.7921889E-01
   7165.00  3.8939093E-01
   7165.33  3.9970760E-01
   7165.67  4.1002260E-01
   7166.00  4.2022885E-01
   7166.33  4.3018386E-01
   7166.67  4.3980967E-01
   7167.00  4.4902244E-01
   7167.33  4.5768575E-01
   7167.67  4.6580811E-01
   7168.00  4.7335781E-01
   7168.33  4.8023790E-01
   7168.67  4.8651366E-01
   7169.00  4.9218650E-01
   7169.33  4.9719382E-01
   7169.67  5.0162925E-01
   7170.00  5.0551464E-01
   7170.33  5.0881488E-01
   7170.67  5.1162769E-01
   7171.00  5.1398225E-01
   7171.33  5.1586143E-01
   7171.67  5.1735720E-01
   7172.00  5.1851052E-01
