    FDMNES
    energy     <xanes>
   7097.00  5.1793335E-03
   7097.33  5.2962179E-03
   7097.67  5.4181338E-03
   7098.00  5.5454032E-03
   7098.33  5.6791592E-03
   7098.67  5.8191375E-03
   7099.00  5.9657694E-03
   7099.33  6.1205124E-03
   7099.67  6.2830865E-03
   7100.00  6.4540833E-03
   7100.33  6.6354214E-03
   7100.67  6.8268196E-03
   7101.00  7.0291122E-03
   7101.33  7.2448942E-03
   7101.67  7.4739173E-03
   7102.00  7.7173968E-03
   7102.33  7.9789589E-03
   7102.67  8.2584634E-03
   7103.00  8.5577525E-03
   7103.33  8.8820961E-03
   7103.67  9.2316332E-03
   7104.00  9.6092925E-03
   7104.33  1.0023118E-02
   7104.67  1.0473926E-02
   7105.00  1.0966662E-02
   7105.33  1.1514400E-02
   7105.67  1.2119621E-02
   7106.00  1.2791366E-02
   7106.33  1.3552727E-02
   7106.67  1.4410580E-02
   7107.00  1.5383337E-02
   7107.33  1.6516852E-02
   7107.67  1.7831168E-02
   7108.00  1.9370250E-02
   7108.33  2.1242889E-02
   7108.67  2.3518223E-02
   7109.00  2.6332016E-02
   7109.33  3.0033375E-02
   7109.67  3.4957714E-02
   7110.00  4.1758427E-02
   7110.33  5.2250249E-02
   7110.67  6.8213944E-02
   7111.00  9.0532270E-02
   7111.33  1.1978032E-01
   7111.67  1.5617701E-01
   7112.00  1.8861560E-01
   7112.33  2.1714875E-01
   7112.67  2.5138193E-01
   7113.00  2.9013009E-01
   7113.33  3.2855637E-01
   7113.67  3.7892860E-01
   7114.00  4.4069838E-01
   7114.33  4.7524145E-01
   7114.67  4.8424596E-01
   7115.00  4.5740164E-01
   7115.33  3.8854767E-01
   7115.67  3.1977481E-01
   7116.00  2.7022839E-01
   7116.33  2.4365094E-01
   7116.67  2.3174661E-01
   7117.00  2.2839444E-01
   7117.33  2.2336857E-01
   7117.67  2.0820243E-01
   7118.00  1.8586799E-01
   7118.33  1.6633860E-01
   7118.67  1.5384014E-01
   7119.00  1.4814140E-01
   7119.33  1.4814016E-01
   7119.67  1.5096298E-01
   7120.00  1.5456968E-01
   7120.33  1.5706699E-01
   7120.67  1.5795413E-01
   7121.00  1.5744960E-01
   7121.33  1.5636932E-01
   7121.67  1.5596974E-01
   7122.00  1.5700241E-01
   7122.33  1.6039732E-01
   7122.67  1.6655497E-01
   7123.00  1.7579410E-01
   7123.33  1.8858728E-01
   7123.67  2.0446580E-01
   7124.00  2.2315688E-01
   7124.33  2.4414504E-01
   7124.67  2.6587326E-01
   7125.00  2.8698494E-01
   7125.33  3.0585928E-01
   7125.67  3.2211634E-01
   7126.00  3.3606570E-01
   7126.33  3.4885421E-01
   7126.67  3.6249432E-01
   7127.00  3.7876040E-01
   7127.33  4.0011925E-01
   7127.67  4.2738568E-01
   7128.00  4.6102995E-01
   7128.33  5.0091535E-01
   7128.67  5.4368355E-01
   7129.00  5.8661079E-01
   7129.33  6.2831809E-01
   7129.67  6.6963673E-01
   7130.00  7.1080812E-01
   7130.33  7.4992973E-01
   7130.67  7.8396213E-01
   7131.00  8.1044932E-01
   7131.33  8.2787181E-01
   7131.67  8.3910331E-01
   7132.00  8.4657002E-01
   7132.33  8.5270441E-01
   7132.67  8.5934412E-01
   7133.00  8.6717121E-01
   7133.33  8.7643120E-01
   7133.67  8.8644949E-01
   7134.00  8.9635017E-01
   7134.33  9.0442284E-01
   7134.67  9.0896400E-01
   7135.00  9.0826273E-01
   7135.33  8.9980007E-01
   7135.67  8.8353523E-01
   7136.00  8.5946578E-01
   7136.33  8.2763285E-01
   7136.67  7.9062226E-01
   7137.00  7.5035973E-01
   7137.33  7.0919329E-01
   7137.67  6.6947511E-01
   7138.00  6.3269448E-01
   7138.33  6.0063005E-01
   7138.67  5.7359163E-01
   7139.00  5.5194666E-01
   7139.33  5.3638789E-01
   7139.67  5.2587093E-01
   7140.00  5.1985856E-01
   7140.33  5.1804456E-01
   7140.67  5.1914448E-01
   7141.00  5.2249281E-01
   7141.33  5.2760194E-01
   7141.67  5.3370978E-01
   7142.00  5.4041848E-01
   7142.33  5.4737343E-01
   7142.67  5.5422682E-01
   7143.00  5.6073457E-01
   7143.33  5.6655755E-01
   7143.67  5.7152449E-01
   7144.00  5.7543616E-01
   7144.33  5.7792719E-01
   7144.67  5.7898978E-01
   7145.00  5.7852851E-01
   7145.33  5.7630526E-01
   7145.67  5.7255664E-01
   7146.00  5.6738459E-01
   7146.33  5.6082222E-01
   7146.67  5.5326868E-01
   7147.00  5.4496277E-01
   7147.33  5.3613765E-01
   7147.67  5.2713651E-01
   7148.00  5.1818813E-01
   7148.33  5.0956706E-01
   7148.67  5.0143995E-01
   7149.00  4.9395365E-01
   7149.33  4.8735080E-01
   7149.67  4.8164924E-01
   7150.00  4.7692358E-01
   7150.33  4.7336350E-01
   7150.67  4.7087470E-01
   7151.00  4.6946967E-01
   7151.33  4.6927887E-01
   7151.67  4.7014225E-01
   7152.00  4.7201765E-01
   7152.33  4.7494174E-01
   7152.67  4.7869290E-01
   7153.00  4.8316131E-01
   7153.33  4.8826172E-01
   7153.67  4.9374215E-01
   7154.00  4.9943186E-01
   7154.33  5.0512584E-01
   7154.67  5.1062523E-01
   7155.00  5.1577731E-01
   7155.33  5.2037577E-01
   7155.67  5.2438179E-01
   7156.00  5.2774823E-01
   7156.33  5.3038385E-01
   7156.67  5.3240203E-01
   7157.00  5.3385673E-01
   7157.33  5.3477176E-01
   7157.67  5.3530341E-01
   7158.00  5.3553759E-01
   7158.33  5.3554736E-01
   7158.67  5.3544871E-01
   7159.00  5.3531134E-01
   7159.33  5.3520862E-01
   7159.67  5.3519291E-01
   7160.00  5.3530178E-01
   7160.33  5.3558653E-01
   7160.67  5.3604690E-01
   7161.00  5.3669023E-01
   7161.33  5.3753835E-01
   7161.67  5.3855850E-01
   7162.00  5.3973594E-01
   7162.33  5.4106158E-01
   7162.67  5.4248544E-01
   7163.00  5.4397748E-01
   7163.33  5.4550499E-01
   7163.67  5.4702412E-01
   7164.00  5.4849797E-01
   7164.33  5.4986952E-01
   7164.67  5.5110462E-01
   7165.00  5.5216391E-01
   7165.33  5.5297152E-01
   7165.67  5.5350976E-01
   7166.00  5.5374145E-01
   7166.33  5.5358059E-01
   7166.67  5.5303132E-01
   7167.00  5.5206347E-01
   7167.33  5.5059100E-01
   7167.67  5.4864781E-01
   7168.00  5.4622397E-01
   7168.33  5.4326128E-01
   7168.67  5.3983694E-01
   7169.00  5.3597853E-01
   7169.33  5.3168474E-01
   7169.67  5.2706789E-01
   7170.00  5.2219630E-01
   7170.33  5.1714456E-01
   7170.67  5.1204516E-01
   7171.00  5.0701434E-01
   7171.33  5.0225932E-01
   7171.67  4.9800528E-01
   7172.00  4.9454765E-01
