    FDMNES
    energy     <xanes>
   7097.00  5.6039315E-03
   7097.33  5.7560640E-03
   7097.67  5.9159335E-03
   7098.00  6.0841053E-03
   7098.33  6.2624389E-03
   7098.67  6.4506231E-03
   7099.00  6.6494378E-03
   7099.33  6.8613558E-03
   7099.67  7.0860691E-03
   7100.00  7.3246829E-03
   7100.33  7.5805704E-03
   7100.67  7.8534714E-03
   7101.00  8.1449995E-03
   7101.33  8.4598978E-03
   7101.67  8.7980498E-03
   7102.00  9.1618976E-03
   7102.33  9.5583557E-03
   7102.67  9.9876616E-03
   7103.00  1.0453673E-02
   7103.33  1.0966924E-02
   7103.67  1.1528479E-02
   7104.00  1.2144764E-02
   7104.33  1.2832725E-02
   7104.67  1.3595382E-02
   7105.00  1.4444179E-02
   7105.33  1.5408351E-02
   7105.67  1.6495779E-02
   7106.00  1.7728707E-02
   7106.33  1.9162506E-02
   7106.67  2.0818317E-02
   7107.00  2.2744904E-02
   7107.33  2.5061849E-02
   7107.67  2.7832335E-02
   7108.00  3.1183905E-02
   7108.33  3.5431716E-02
   7108.67  4.0808610E-02
   7109.00  4.7756829E-02
   7109.33  5.7432656E-02
   7109.67  7.1086337E-02
   7110.00  9.1165111E-02
   7110.33  1.2471141E-01
   7110.67  1.7957475E-01
   7111.00  2.5804100E-01
   7111.33  3.2809074E-01
   7111.67  3.8449638E-01
   7112.00  4.5577346E-01
   7112.33  5.5168460E-01
   7112.67  6.2864940E-01
   7113.00  6.5296769E-01
   7113.33  6.9644484E-01
   7113.67  7.5323425E-01
   7114.00  7.3977362E-01
   7114.33  6.2832293E-01
   7114.67  5.0295306E-01
   7115.00  4.0051225E-01
   7115.33  3.2891097E-01
   7115.67  2.7741487E-01
   7116.00  2.4016885E-01
   7116.33  2.1337827E-01
   7116.67  1.9262392E-01
   7117.00  1.7617503E-01
   7117.33  1.6330726E-01
   7117.67  1.5320846E-01
   7118.00  1.4574202E-01
   7118.33  1.4059400E-01
   7118.67  1.3618634E-01
   7119.00  1.3106660E-01
   7119.33  1.2402835E-01
   7119.67  1.1627343E-01
   7120.00  1.0990177E-01
   7120.33  1.0712036E-01
   7120.67  1.0749924E-01
   7121.00  1.0997755E-01
   7121.33  1.1261963E-01
   7121.67  1.1307187E-01
   7122.00  1.1070389E-01
   7122.33  1.0746474E-01
   7122.67  1.0568845E-01
   7123.00  1.0578733E-01
   7123.33  1.0746795E-01
   7123.67  1.1002548E-01
   7124.00  1.1317793E-01
   7124.33  1.1681797E-01
   7124.67  1.2084990E-01
   7125.00  1.2531277E-01
   7125.33  1.3039802E-01
   7125.67  1.3619332E-01
   7126.00  1.4280181E-01
   7126.33  1.5038375E-01
   7126.67  1.5884989E-01
   7127.00  1.6832743E-01
   7127.33  1.7948783E-01
   7127.67  1.9292446E-01
   7128.00  2.0934197E-01
   7128.33  2.2984853E-01
   7128.67  2.5439295E-01
   7129.00  2.8312246E-01
   7129.33  3.1658928E-01
   7129.67  3.5441212E-01
   7130.00  3.9692808E-01
   7130.33  4.4500047E-01
   7130.67  4.9742801E-01
   7131.00  5.5340968E-01
   7131.33  6.1415356E-01
   7131.67  6.8219259E-01
   7132.00  7.6047852E-01
   7132.33  8.5208062E-01
   7132.67  9.5342493E-01
   7133.00  1.0572041E+00
   7133.33  1.1430650E+00
   7133.67  1.1912934E+00
   7134.00  1.1953735E+00
   7134.33  1.1629125E+00
   7134.67  1.1150579E+00
   7135.00  1.0608577E+00
   7135.33  1.0035595E+00
   7135.67  9.4400433E-01
   7136.00  8.8309109E-01
   7136.33  8.2345630E-01
   7136.67  7.6773430E-01
   7137.00  7.1744515E-01
   7137.33  6.7376933E-01
   7137.67  6.3537776E-01
   7138.00  6.0138506E-01
   7138.33  5.7132133E-01
   7138.67  5.4446563E-01
   7139.00  5.2121784E-01
   7139.33  5.0309485E-01
   7139.67  4.9045613E-01
   7140.00  4.8372573E-01
   7140.33  4.8353060E-01
   7140.67  4.8849296E-01
   7141.00  4.9777393E-01
   7141.33  5.1067327E-01
   7141.67  5.2570246E-01
   7142.00  5.4201070E-01
   7142.33  5.5878262E-01
   7142.67  5.7524983E-01
   7143.00  5.9094088E-01
   7143.33  6.0536007E-01
   7143.67  6.1848986E-01
   7144.00  6.3030501E-01
   7144.33  6.4067880E-01
   7144.67  6.4981744E-01
   7145.00  6.5774594E-01
   7145.33  6.6431958E-01
   7145.67  6.6967546E-01
   7146.00  6.7379519E-01
   7146.33  6.7650379E-01
   7146.67  6.7795284E-01
   7147.00  6.7815467E-01
   7147.33  6.7699944E-01
   7147.67  6.7471288E-01
   7148.00  6.7138468E-01
   7148.33  6.6701483E-01
   7148.67  6.6184183E-01
   7149.00  6.5598837E-01
   7149.33  6.4955007E-01
   7149.67  6.4275990E-01
   7150.00  6.3576535E-01
   7150.33  6.2873633E-01
   7150.67  6.2185150E-01
   7151.00  6.1525110E-01
   7151.33  6.0913130E-01
   7151.67  6.0356184E-01
   7152.00  5.9863234E-01
   7152.33  5.9451686E-01
   7152.67  5.9118469E-01
   7153.00  5.8866734E-01
   7153.33  5.8708058E-01
   7153.67  5.8630690E-01
   7154.00  5.8631322E-01
   7154.33  5.8712707E-01
   7154.67  5.8857386E-01
   7155.00  5.9056584E-01
   7155.33  5.9304201E-01
   7155.67  5.9582645E-01
   7156.00  5.9881332E-01
   7156.33  6.0189117E-01
   7156.67  6.0493143E-01
   7157.00  6.0783938E-01
   7157.33  6.1048857E-01
   7157.67  6.1282352E-01
   7158.00  6.1478197E-01
   7158.33  6.1624777E-01
   7158.67  6.1722513E-01
   7159.00  6.1767805E-01
   7159.33  6.1750114E-01
   7159.67  6.1673343E-01
   7160.00  6.1534920E-01
   7160.33  6.1323122E-01
   7160.67  6.1041642E-01
   7161.00  6.0686163E-01
   7161.33  6.0240532E-01
   7161.67  5.9707368E-01
   7162.00  5.9079740E-01
   7162.33  5.8336963E-01
   7162.67  5.7485506E-01
   7163.00  5.6522371E-01
   7163.33  5.5434271E-01
   7163.67  5.4241131E-01
   7164.00  5.2952865E-01
   7164.33  5.1576428E-01
   7164.67  5.0142571E-01
   7165.00  4.8671174E-01
   7165.33  4.7184205E-01
   7165.67  4.5706462E-01
   7166.00  4.4256239E-01
   7166.33  4.2857865E-01
   7166.67  4.1520919E-01
   7167.00  4.0256168E-01
   7167.33  3.9083736E-01
   7167.67  3.8000667E-01
   7168.00  3.7011260E-01
   7168.33  3.6129953E-01
   7168.67  3.5345420E-01
   7169.00  3.4657171E-01
   7169.33  3.4074140E-01
   7169.67  3.3579766E-01
   7170.00  3.3169534E-01
   7170.33  3.2847208E-01
   7170.67  3.2595730E-01
   7171.00  3.2407730E-01
   7171.33  3.2279482E-01
   7171.67  3.2190836E-01
   7172.00  3.2126908E-01
