    FDMNES
    energy     <xanes>
   7097.00  3.5553325E-03
   7097.33  3.6176594E-03
   7097.67  3.6822372E-03
   7098.00  3.7492002E-03
   7098.33  3.8190402E-03
   7098.67  3.8916285E-03
   7099.00  3.9671454E-03
   7099.33  4.0462192E-03
   7099.67  4.1287157E-03
   7100.00  4.2148838E-03
   7100.33  4.3055484E-03
   7100.67  4.4005777E-03
   7101.00  4.5003271E-03
   7101.33  4.6059145E-03
   7101.67  4.7172300E-03
   7102.00  4.8348005E-03
   7102.33  4.9602023E-03
   7102.67  5.0933891E-03
   7103.00  5.2351803E-03
   7103.33  5.3879088E-03
   7103.67  5.5516895E-03
   7104.00  5.7278727E-03
   7104.33  5.9201267E-03
   7104.67  6.1289655E-03
   7105.00  6.3567838E-03
   7105.33  6.6098208E-03
   7105.67  6.8896169E-03
   7106.00  7.2008516E-03
   7106.33  7.5553135E-03
   7106.67  7.9574460E-03
   7107.00  8.4177060E-03
   7107.33  8.9619411E-03
   7107.67  9.6042425E-03
   7108.00  1.0373096E-02
   7108.33  1.1339607E-02
   7108.67  1.2559629E-02
   7109.00  1.4139712E-02
   7109.33  1.6364560E-02
   7109.67  1.9566955E-02
   7110.00  2.4406229E-02
   7110.33  3.2761998E-02
   7110.67  4.6141493E-02
   7111.00  6.2303590E-02
   7111.33  7.0567033E-02
   7111.67  7.5257360E-02
   7112.00  8.6009337E-02
   7112.33  1.0778695E-01
   7112.67  1.2859692E-01
   7113.00  1.2910705E-01
   7113.33  1.0915348E-01
   7113.67  9.3507828E-02
   7114.00  9.2442699E-02
   7114.33  1.0991768E-01
   7114.67  1.3586771E-01
   7115.00  1.4778761E-01
   7115.33  1.3018637E-01
   7115.67  1.0475379E-01
   7116.00  8.5162942E-02
   7116.33  7.4899946E-02
   7116.67  6.7213920E-02
   7117.00  5.9032866E-02
   7117.33  5.1688910E-02
   7117.67  4.6061637E-02
   7118.00  4.1864436E-02
   7118.33  3.8984176E-02
   7118.67  3.7187724E-02
   7119.00  3.6344829E-02
   7119.33  3.6330318E-02
   7119.67  3.6713480E-02
   7120.00  3.7108954E-02
   7120.33  3.7461254E-02
   7120.67  3.8288525E-02
   7121.00  3.9881199E-02
   7121.33  4.2410557E-02
   7121.67  4.5806188E-02
   7122.00  5.0168417E-02
   7122.33  5.5882850E-02
   7122.67  6.3049237E-02
   7123.00  7.1722080E-02
   7123.33  8.1743184E-02
   7123.67  9.1992967E-02
   7124.00  1.0135368E-01
   7124.33  1.0952115E-01
   7124.67  1.1758667E-01
   7125.00  1.2609292E-01
   7125.33  1.3506925E-01
   7125.67  1.4423559E-01
   7126.00  1.5371459E-01
   7126.33  1.6413088E-01
   7126.67  1.7590920E-01
   7127.00  1.8935505E-01
   7127.33  2.0485315E-01
   7127.67  2.2215890E-01
   7128.00  2.4127149E-01
   7128.33  2.6278741E-01
   7128.67  2.8733865E-01
   7129.00  3.1610270E-01
   7129.33  3.5093991E-01
   7129.67  3.9022473E-01
   7130.00  4.2931696E-01
   7130.33  4.5783097E-01
   7130.67  4.7092935E-01
   7131.00  4.7034187E-01
   7131.33  4.6124645E-01
   7131.67  4.4975746E-01
   7132.00  4.3851714E-01
   7132.33  4.2954454E-01
   7132.67  4.2362797E-01
   7133.00  4.2136454E-01
   7133.33  4.2377691E-01
   7133.67  4.3063232E-01
   7134.00  4.4192006E-01
   7134.33  4.5776136E-01
   7134.67  4.7689944E-01
   7135.00  4.9849863E-01
   7135.33  5.2171520E-01
   7135.67  5.4546228E-01
   7136.00  5.6915026E-01
   7136.33  5.9231572E-01
   7136.67  6.1491347E-01
   7137.00  6.3706678E-01
   7137.33  6.5908584E-01
   7137.67  6.8138871E-01
   7138.00  7.0425845E-01
   7138.33  7.2785633E-01
   7138.67  7.5172456E-01
   7139.00  7.7505831E-01
   7139.33  7.9608934E-01
   7139.67  8.1314324E-01
   7140.00  8.2456000E-01
   7140.33  8.2804481E-01
   7140.67  8.2401685E-01
   7141.00  8.1291789E-01
   7141.33  7.9534342E-01
   7141.67  7.7378414E-01
   7142.00  7.4977595E-01
   7142.33  7.2474284E-01
   7142.67  6.9998412E-01
   7143.00  6.7623491E-01
   7143.33  6.5426556E-01
   7143.67  6.3421026E-01
   7144.00  6.1621326E-01
   7144.33  6.0060231E-01
   7144.67  5.8710564E-01
   7145.00  5.7568356E-01
   7145.33  5.6650521E-01
   7145.67  5.5919559E-01
   7146.00  5.5364157E-01
   7146.33  5.4992738E-01
   7146.67  5.4770965E-01
   7147.00  5.4685180E-01
   7147.33  5.4733539E-01
   7147.67  5.4883874E-01
   7148.00  5.5121145E-01
   7148.33  5.5436756E-01
   7148.67  5.5805651E-01
   7149.00  5.6215081E-01
   7149.33  5.6655477E-01
   7149.67  5.7112349E-01
   7150.00  5.7577464E-01
   7150.33  5.8041941E-01
   7150.67  5.8496997E-01
   7151.00  5.8934413E-01
   7151.33  5.9340113E-01
   7151.67  5.9706312E-01
   7152.00  6.0023428E-01
   7152.33  6.0274759E-01
   7152.67  6.0462281E-01
   7153.00  6.0586188E-01
   7153.33  6.0646531E-01
   7153.67  6.0666261E-01
   7154.00  6.0665119E-01
   7154.33  6.0670441E-01
   7154.67  6.0707272E-01
   7155.00  6.0792521E-01
   7155.33  6.0941440E-01
   7155.67  6.1140367E-01
   7156.00  6.1371977E-01
   7156.33  6.1604061E-01
   7156.67  6.1796035E-01
   7157.00  6.1912627E-01
   7157.33  6.1906953E-01
   7157.67  6.1774445E-01
   7158.00  6.1513698E-01
   7158.33  6.1122597E-01
   7158.67  6.0636912E-01
   7159.00  6.0076645E-01
   7159.33  5.9455794E-01
   7159.67  5.8797394E-01
   7160.00  5.8112503E-01
   7160.33  5.7410531E-01
   7160.67  5.6704713E-01
   7161.00  5.6005470E-01
   7161.33  5.5327824E-01
   7161.67  5.4681498E-01
   7162.00  5.4075578E-01
   7162.33  5.3524478E-01
   7162.67  5.3028023E-01
   7163.00  5.2589056E-01
   7163.33  5.2215536E-01
   7163.67  5.1898938E-01
   7164.00  5.1637189E-01
   7164.33  5.1433670E-01
   7164.67  5.1278629E-01
   7165.00  5.1169369E-01
   7165.33  5.1108036E-01
   7165.67  5.1085831E-01
   7166.00  5.1099401E-01
   7166.33  5.1148146E-01
   7166.67  5.1222800E-01
   7167.00  5.1317966E-01
   7167.33  5.1428037E-01
   7167.67  5.1543217E-01
   7168.00  5.1656139E-01
   7168.33  5.1757041E-01
   7168.67  5.1839717E-01
   7169.00  5.1898987E-01
   7169.33  5.1927469E-01
   7169.67  5.1927192E-01
   7170.00  5.1899063E-01
   7170.33  5.1843315E-01
   7170.67  5.1768350E-01
   7171.00  5.1680088E-01
   7171.33  5.1586241E-01
   7171.67  5.1497540E-01
   7172.00  5.1423765E-01
