    FDMNES
    energy     <xanes>
   7097.00  5.0445973E-03
   7097.33  5.1594443E-03
   7097.67  5.2793809E-03
   7098.00  5.4047454E-03
   7098.33  5.5367056E-03
   7098.67  5.6750123E-03
   7099.00  5.8201242E-03
   7099.33  5.9735605E-03
   7099.67  6.1350629E-03
   7100.00  6.3052696E-03
   7100.33  6.4862071E-03
   7100.67  6.6776290E-03
   7101.00  6.8804496E-03
   7101.33  7.0974539E-03
   7101.67  7.3284536E-03
   7102.00  7.5748069E-03
   7102.33  7.8404795E-03
   7102.67  8.1254448E-03
   7103.00  8.4318085E-03
   7103.33  8.7654697E-03
   7103.67  9.1267981E-03
   7104.00  9.5192353E-03
   7104.33  9.9520487E-03
   7104.67  1.0426562E-02
   7105.00  1.0948790E-02
   7105.33  1.1534350E-02
   7105.67  1.2186954E-02
   7106.00  1.2918084E-02
   7106.33  1.3756639E-02
   7106.67  1.4712852E-02
   7107.00  1.5811456E-02
   7107.33  1.7113493E-02
   7107.67  1.8649784E-02
   7108.00  2.0483934E-02
   7108.33  2.2773446E-02
   7108.67  2.5631601E-02
   7109.00  2.9275195E-02
   7109.33  3.4270065E-02
   7109.67  4.1217553E-02
   7110.00  5.1293214E-02
   7110.33  6.7853042E-02
   7110.67  9.4547392E-02
   7111.00  1.3311187E-01
   7111.33  1.7586693E-01
   7111.67  2.1358255E-01
   7112.00  2.4219997E-01
   7112.33  2.5811955E-01
   7112.67  2.6925240E-01
   7113.00  2.9057106E-01
   7113.33  3.3920424E-01
   7113.67  3.9974570E-01
   7114.00  4.3530846E-01
   7114.33  4.1777751E-01
   7114.67  3.7170234E-01
   7115.00  3.1939625E-01
   7115.33  2.7781864E-01
   7115.67  2.4905079E-01
   7116.00  2.3041643E-01
   7116.33  2.1726841E-01
   7116.67  2.0390643E-01
   7117.00  1.8816173E-01
   7117.33  1.7124410E-01
   7117.67  1.5606907E-01
   7118.00  1.4375184E-01
   7118.33  1.3467287E-01
   7118.67  1.2837361E-01
   7119.00  1.2495561E-01
   7119.33  1.2460203E-01
   7119.67  1.2634332E-01
   7120.00  1.2941011E-01
   7120.33  1.3270526E-01
   7120.67  1.3489779E-01
   7121.00  1.3568736E-01
   7121.33  1.3676354E-01
   7121.67  1.4013881E-01
   7122.00  1.4644031E-01
   7122.33  1.5556979E-01
   7122.67  1.6628880E-01
   7123.00  1.7794097E-01
   7123.33  1.9046356E-01
   7123.67  2.0396989E-01
   7124.00  2.1856743E-01
   7124.33  2.3426955E-01
   7124.67  2.5024283E-01
   7125.00  2.6584486E-01
   7125.33  2.8122047E-01
   7125.67  2.9710425E-01
   7126.00  3.1379094E-01
   7126.33  3.3109235E-01
   7126.67  3.4848452E-01
   7127.00  3.6592857E-01
   7127.33  3.8418338E-01
   7127.67  4.0425731E-01
   7128.00  4.2704874E-01
   7128.33  4.5365550E-01
   7128.67  4.8382103E-01
   7129.00  5.1719333E-01
   7129.33  5.5256436E-01
   7129.67  5.8678737E-01
   7130.00  6.1679230E-01
   7130.33  6.3972286E-01
   7130.67  6.5765584E-01
   7131.00  6.7414393E-01
   7131.33  6.9465834E-01
   7131.67  7.2240348E-01
   7132.00  7.5812629E-01
   7132.33  8.0030020E-01
   7132.67  8.4337750E-01
   7133.00  8.8230530E-01
   7133.33  9.1084828E-01
   7133.67  9.2763690E-01
   7134.00  9.3285341E-01
   7134.33  9.2697633E-01
   7134.67  9.1343049E-01
   7135.00  8.9435001E-01
   7135.33  8.7175454E-01
   7135.67  8.4781334E-01
   7136.00  8.2349667E-01
   7136.33  7.9955693E-01
   7136.67  7.7640778E-01
   7137.00  7.5431665E-01
   7137.33  7.3363980E-01
   7137.67  7.1430809E-01
   7138.00  6.9631244E-01
   7138.33  6.7970406E-01
   7138.67  6.6414836E-01
   7139.00  6.4945913E-01
   7139.33  6.3551514E-01
   7139.67  6.2209781E-01
   7140.00  6.0917127E-01
   7140.33  5.9684512E-01
   7140.67  5.8514495E-01
   7141.00  5.7414749E-01
   7141.33  5.6399278E-01
   7141.67  5.5460173E-01
   7142.00  5.4599111E-01
   7142.33  5.3829310E-01
   7142.67  5.3143220E-01
   7143.00  5.2540674E-01
   7143.33  5.2026348E-01
   7143.67  5.1579118E-01
   7144.00  5.1184741E-01
   7144.33  5.0827170E-01
   7144.67  5.0481155E-01
   7145.00  5.0130037E-01
   7145.33  4.9755656E-01
   7145.67  4.9350287E-01
   7146.00  4.8909340E-01
   7146.33  4.8427219E-01
   7146.67  4.7911470E-01
   7147.00  4.7367472E-01
   7147.33  4.6802109E-01
   7147.67  4.6229780E-01
   7148.00  4.5662696E-01
   7148.33  4.5119257E-01
   7148.67  4.4611360E-01
   7149.00  4.4149604E-01
   7149.33  4.3752482E-01
   7149.67  4.3422843E-01
   7150.00  4.3168220E-01
   7150.33  4.3006408E-01
   7150.67  4.2932920E-01
   7151.00  4.2951237E-01
   7151.33  4.3075157E-01
   7151.67  4.3292648E-01
   7152.00  4.3601405E-01
   7152.33  4.4007039E-01
   7152.67  4.4490967E-01
   7153.00  4.5044277E-01
   7153.33  4.5661845E-01
   7153.67  4.6323508E-01
   7154.00  4.7017932E-01
   7154.33  4.7734804E-01
   7154.67  4.8459743E-01
   7155.00  4.9183443E-01
   7155.33  4.9894604E-01
   7155.67  5.0585318E-01
   7156.00  5.1247750E-01
   7156.33  5.1868038E-01
   7156.67  5.2441349E-01
   7157.00  5.2959017E-01
   7157.33  5.3402716E-01
   7157.67  5.3771474E-01
   7158.00  5.4058659E-01
   7158.33  5.4247751E-01
   7158.67  5.4346812E-01
   7159.00  5.4356188E-01
   7159.33  5.4269657E-01
   7159.67  5.4107136E-01
   7160.00  5.3880466E-01
   7160.33  5.3601757E-01
   7160.67  5.3297487E-01
   7161.00  5.2985624E-01
   7161.33  5.2686604E-01
   7161.67  5.2414068E-01
   7162.00  5.2176831E-01
   7162.33  5.1985093E-01
   7162.67  5.1833851E-01
   7163.00  5.1719823E-01
   7163.33  5.1640577E-01
   7163.67  5.1584812E-01
   7164.00  5.1546191E-01
   7164.33  5.1519528E-01
   7164.67  5.1498467E-01
   7165.00  5.1480027E-01
   7165.33  5.1462246E-01
   7165.67  5.1444166E-01
   7166.00  5.1425565E-01
   7166.33  5.1406468E-01
   7166.67  5.1387185E-01
   7167.00  5.1368126E-01
   7167.33  5.1350017E-01
   7167.67  5.1332635E-01
   7168.00  5.1315610E-01
   7168.33  5.1298616E-01
   7168.67  5.1281394E-01
   7169.00  5.1263760E-01
   7169.33  5.1245493E-01
   7169.67  5.1226633E-01
   7170.00  5.1207258E-01
   7170.33  5.1187513E-01
   7170.67  5.1167689E-01
   7171.00  5.1148020E-01
   7171.33  5.1129013E-01
   7171.67  5.1111523E-01
   7172.00  5.1096928E-01
