    FDMNES
    energy     <xanes>
   7097.00  5.3200679E-03
   7097.33  5.4525137E-03
   7097.67  5.5912798E-03
   7098.00  5.7368118E-03
   7098.33  5.8906024E-03
   7098.67  6.0523765E-03
   7099.00  6.2227466E-03
   7099.33  6.4036843E-03
   7099.67  6.5949147E-03
   7100.00  6.7973029E-03
   7100.33  7.0135231E-03
   7100.67  7.2433356E-03
   7101.00  7.4880015E-03
   7101.33  7.7512646E-03
   7101.67  8.0329970E-03
   7102.00  8.3351077E-03
   7102.33  8.6630404E-03
   7102.67  9.0169488E-03
   7103.00  9.3998563E-03
   7103.33  9.8200537E-03
   7103.67  1.0278362E-02
   7104.00  1.0779845E-02
   7104.33  1.1337879E-02
   7104.67  1.1954883E-02
   7105.00  1.2639950E-02
   7105.33  1.3416319E-02
   7105.67  1.4290427E-02
   7106.00  1.5280171E-02
   7106.33  1.6430072E-02
   7106.67  1.7757675E-02
   7107.00  1.9302851E-02
   7107.33  2.1163315E-02
   7107.67  2.3392232E-02
   7108.00  2.6095768E-02
   7108.33  2.9536206E-02
   7108.67  3.3911145E-02
   7109.00  3.9593400E-02
   7109.33  4.7555942E-02
   7109.67  5.8851862E-02
   7110.00  7.5528057E-02
   7110.33  1.0343028E-01
   7110.67  1.4913749E-01
   7111.00  2.1729730E-01
   7111.33  3.0171423E-01
   7111.67  3.8066990E-01
   7112.00  4.3410063E-01
   7112.33  4.5153214E-01
   7112.67  4.4282890E-01
   7113.00  4.1688749E-01
   7113.33  3.7636321E-01
   7113.67  3.2828692E-01
   7114.00  2.8643155E-01
   7114.33  2.6494645E-01
   7114.67  2.6382352E-01
   7115.00  2.8105942E-01
   7115.33  3.0833636E-01
   7115.67  3.2141166E-01
   7116.00  3.0253860E-01
   7116.33  2.5891847E-01
   7116.67  2.1691900E-01
   7117.00  1.8578531E-01
   7117.33  1.6690422E-01
   7117.67  1.5593495E-01
   7118.00  1.5076573E-01
   7118.33  1.5020301E-01
   7118.67  1.5207000E-01
   7119.00  1.5516195E-01
   7119.33  1.5899203E-01
   7119.67  1.6281152E-01
   7120.00  1.6667497E-01
   7120.33  1.7142801E-01
   7120.67  1.7703753E-01
   7121.00  1.8326050E-01
   7121.33  1.9004557E-01
   7121.67  1.9726651E-01
   7122.00  2.0477700E-01
   7122.33  2.1279239E-01
   7122.67  2.2225333E-01
   7123.00  2.3381371E-01
   7123.33  2.4738112E-01
   7123.67  2.6197165E-01
   7124.00  2.7705152E-01
   7124.33  2.9192471E-01
   7124.67  3.0582091E-01
   7125.00  3.1840922E-01
   7125.33  3.3001560E-01
   7125.67  3.4149728E-01
   7126.00  3.5315855E-01
   7126.33  3.6517224E-01
   7126.67  3.7786330E-01
   7127.00  3.9160358E-01
   7127.33  4.0679610E-01
   7127.67  4.2357918E-01
   7128.00  4.4248910E-01
   7128.33  4.6452792E-01
   7128.67  4.8944152E-01
   7129.00  5.1666644E-01
   7129.33  5.4513849E-01
   7129.67  5.7303539E-01
   7130.00  5.9845567E-01
   7130.33  6.1815732E-01
   7130.67  6.3118435E-01
   7131.00  6.3831971E-01
   7131.33  6.4207727E-01
   7131.67  6.4578970E-01
   7132.00  6.5102164E-01
   7132.33  6.5871341E-01
   7132.67  6.6845051E-01
   7133.00  6.7963117E-01
   7133.33  6.9063002E-01
   7133.67  6.9870068E-01
   7134.00  7.0152572E-01
   7134.33  6.9767843E-01
   7134.67  6.8952240E-01
   7135.00  6.7907488E-01
   7135.33  6.6810640E-01
   7135.67  6.5755638E-01
   7136.00  6.4749918E-01
   7136.33  6.3758416E-01
   7136.67  6.2740522E-01
   7137.00  6.1692362E-01
   7137.33  6.0661839E-01
   7137.67  5.9731475E-01
   7138.00  5.8976199E-01
   7138.33  5.8480450E-01
   7138.67  5.8220548E-01
   7139.00  5.8167325E-01
   7139.33  5.8291811E-01
   7139.67  5.8533757E-01
   7140.00  5.8874844E-01
   7140.33  5.9323468E-01
   7140.67  5.9873549E-01
   7141.00  6.0528906E-01
   7141.33  6.1298718E-01
   7141.67  6.2156540E-01
   7142.00  6.3083061E-01
   7142.33  6.4054148E-01
   7142.67  6.5032162E-01
   7143.00  6.5988247E-01
   7143.33  6.6882837E-01
   7143.67  6.7692506E-01
   7144.00  6.8394210E-01
   7144.33  6.8949171E-01
   7144.67  6.9357047E-01
   7145.00  6.9609564E-01
   7145.33  6.9686834E-01
   7145.67  6.9619709E-01
   7146.00  6.9427451E-01
   7146.33  6.9129019E-01
   7146.67  6.8770395E-01
   7147.00  6.8378835E-01
   7147.33  6.7978765E-01
   7147.67  6.7588494E-01
   7148.00  6.7217259E-01
   7148.33  6.6873878E-01
   7148.67  6.6557112E-01
   7149.00  6.6266714E-01
   7149.33  6.6003174E-01
   7149.67  6.5757412E-01
   7150.00  6.5522476E-01
   7150.33  6.5290141E-01
   7150.67  6.5051658E-01
   7151.00  6.4800287E-01
   7151.33  6.4526867E-01
   7151.67  6.4228653E-01
   7152.00  6.3902333E-01
   7152.33  6.3541076E-01
   7152.67  6.3146126E-01
   7153.00  6.2714883E-01
   7153.33  6.2238447E-01
   7153.67  6.1717188E-01
   7154.00  6.1146999E-01
   7154.33  6.0517274E-01
   7154.67  5.9832834E-01
   7155.00  5.9094845E-01
   7155.33  5.8302191E-01
   7155.67  5.7469589E-01
   7156.00  5.6606925E-01
   7156.33  5.5725689E-01
   7156.67  5.4842527E-01
   7157.00  5.3969755E-01
   7157.33  5.3123328E-01
   7157.67  5.2311203E-01
   7158.00  5.1540694E-01
   7158.33  5.0823667E-01
   7158.67  5.0157403E-01
   7159.00  4.9542725E-01
   7159.33  4.8984964E-01
   7159.67  4.8475217E-01
   7160.00  4.8010448E-01
   7160.33  4.7591780E-01
   7160.67  4.7209785E-01
   7161.00  4.6860482E-01
   7161.33  4.6542163E-01
   7161.67  4.6245593E-01
   7162.00  4.5965293E-01
   7162.33  4.5695599E-01
   7162.67  4.5428711E-01
   7163.00  4.5159575E-01
   7163.33  4.4882761E-01
   7163.67  4.4596630E-01
   7164.00  4.4300996E-01
   7164.33  4.3996972E-01
   7164.67  4.3689486E-01
   7165.00  4.3382850E-01
   7165.33  4.3083035E-01
   7165.67  4.2794031E-01
   7166.00  4.2519102E-01
   7166.33  4.2262868E-01
   7166.67  4.2024521E-01
   7167.00  4.1804326E-01
   7167.33  4.1604015E-01
   7167.67  4.1420270E-01
   7168.00  4.1252052E-01
   7168.33  4.1100415E-01
   7168.67  4.0962507E-01
   7169.00  4.0837209E-01
   7169.33  4.0724811E-01
   7169.67  4.0623175E-01
   7170.00  4.0532061E-01
   7170.33  4.0452836E-01
   7170.67  4.0384437E-01
   7171.00  4.0327083E-01
   7171.33  4.0282079E-01
   7171.67  4.0247140E-01
   7172.00  4.0220381E-01
