    FDMNES
    energy     <xanes>
   7097.00  4.0754543E-03
   7097.33  4.1479806E-03
   7097.67  4.2228998E-03
   7098.00  4.3003340E-03
   7098.33  4.3807717E-03
   7098.67  4.4640484E-03
   7099.00  4.5503217E-03
   7099.33  4.6401923E-03
   7099.67  4.7334821E-03
   7100.00  4.8303995E-03
   7100.33  4.9316995E-03
   7100.67  5.0371932E-03
   7101.00  5.1471642E-03
   7101.33  5.2625865E-03
   7101.67  5.3832692E-03
   7102.00  5.5096114E-03
   7102.33  5.6429115E-03
   7102.67  5.7829969E-03
   7103.00  5.9304536E-03
   7103.33  6.0870847E-03
   7103.67  6.2527832E-03
   7104.00  6.4284556E-03
   7104.33  6.6167393E-03
   7104.67  6.8177054E-03
   7105.00  7.0328503E-03
   7105.33  7.2662999E-03
   7105.67  7.5185859E-03
   7106.00  7.7923930E-03
   7106.33  8.0947762E-03
   7106.67  8.4275068E-03
   7107.00  8.7959719E-03
   7107.33  9.2138090E-03
   7107.67  9.6865210E-03
   7108.00  1.0226798E-02
   7108.33  1.0866274E-02
   7108.67  1.1624298E-02
   7109.00  1.2539546E-02
   7109.33  1.3711676E-02
   7109.67  1.5235116E-02
   7110.00  1.7294555E-02
   7110.33  2.0394614E-02
   7110.67  2.4928084E-02
   7111.00  3.0677946E-02
   7111.33  3.7169700E-02
   7111.67  4.6532649E-02
   7112.00  6.0248157E-02
   7112.33  8.1180343E-02
   7112.67  1.0531986E-01
   7113.00  1.1635488E-01
   7113.33  1.2225977E-01
   7113.67  1.3609231E-01
   7114.00  1.3184515E-01
   7114.33  1.0905323E-01
   7114.67  9.5196600E-02
   7115.00  8.5621440E-02
   7115.33  7.2926667E-02
   7115.67  5.8922831E-02
   7116.00  4.6987643E-02
   7116.33  3.9865916E-02
   7116.67  3.5781140E-02
   7117.00  3.3619580E-02
   7117.33  3.2789170E-02
   7117.67  3.2774039E-02
   7118.00  3.3417146E-02
   7118.33  3.4714129E-02
   7118.67  3.6593205E-02
   7119.00  3.9098744E-02
   7119.33  4.2417267E-02
   7119.67  4.6601845E-02
   7120.00  5.1794302E-02
   7120.33  5.8238359E-02
   7120.67  6.5658616E-02
   7121.00  7.3629258E-02
   7121.33  8.1484296E-02
   7121.67  8.8990786E-02
   7122.00  9.6594810E-02
   7122.33  1.0554339E-01
   7122.67  1.1684758E-01
   7123.00  1.3129668E-01
   7123.33  1.5009220E-01
   7123.67  1.7336429E-01
   7124.00  2.0157261E-01
   7124.33  2.3572141E-01
   7124.67  2.7498143E-01
   7125.00  3.1845176E-01
   7125.33  3.6445241E-01
   7125.67  4.1149772E-01
   7126.00  4.6117407E-01
   7126.33  5.1700887E-01
   7126.67  5.7885913E-01
   7127.00  6.4533720E-01
   7127.33  7.1143887E-01
   7127.67  7.7280027E-01
   7128.00  8.3037990E-01
   7128.33  8.8578284E-01
   7128.67  9.3574882E-01
   7129.00  9.7568070E-01
   7129.33  1.0058149E+00
   7129.67  1.0306421E+00
   7130.00  1.0456723E+00
   7130.33  1.0413432E+00
   7130.67  1.0189402E+00
   7131.00  9.8268044E-01
   7131.33  9.3887575E-01
   7131.67  8.9496348E-01
   7132.00  8.5413055E-01
   7132.33  8.1513386E-01
   7132.67  7.7339706E-01
   7133.00  7.2947930E-01
   7133.33  6.8899257E-01
   7133.67  6.5487336E-01
   7134.00  6.2773060E-01
   7134.33  6.0865837E-01
   7134.67  5.9769103E-01
   7135.00  5.9650687E-01
   7135.33  6.0879198E-01
   7135.67  6.3254880E-01
   7136.00  6.6173765E-01
   7136.33  6.8345022E-01
   7136.67  6.9238026E-01
   7137.00  6.9168007E-01
   7137.33  6.8715109E-01
   7137.67  6.8313720E-01
   7138.00  6.8100564E-01
   7138.33  6.8141109E-01
   7138.67  6.8387371E-01
   7139.00  6.8804645E-01
   7139.33  6.9358945E-01
   7139.67  6.9979717E-01
   7140.00  7.0615150E-01
   7140.33  7.1194205E-01
   7140.67  7.1656096E-01
   7141.00  7.1945568E-01
   7141.33  7.1981671E-01
   7141.67  7.1758966E-01
   7142.00  7.1265442E-01
   7142.33  7.0477684E-01
   7142.67  6.9460763E-01
   7143.00  6.8256248E-01
   7143.33  6.6905206E-01
   7143.67  6.5483050E-01
   7144.00  6.4036532E-01
   7144.33  6.2613610E-01
   7144.67  6.1245003E-01
   7145.00  5.9949534E-01
   7145.33  5.8749300E-01
   7145.67  5.7635994E-01
   7146.00  5.6605963E-01
   7146.33  5.5659605E-01
   7146.67  5.4775648E-01
   7147.00  5.3942704E-01
   7147.33  5.3151993E-01
   7147.67  5.2386012E-01
   7148.00  5.1634891E-01
   7148.33  5.0889723E-01
   7148.67  5.0143575E-01
   7149.00  4.9394044E-01
   7149.33  4.8640652E-01
   7149.67  4.7885198E-01
   7150.00  4.7129420E-01
   7150.33  4.6375846E-01
   7150.67  4.5625938E-01
   7151.00  4.4879958E-01
   7151.33  4.4136147E-01
   7151.67  4.3389333E-01
   7152.00  4.2632993E-01
   7152.33  4.1854947E-01
   7152.67  4.1046667E-01
   7153.00  4.0199084E-01
   7153.33  3.9297545E-01
   7153.67  3.8342918E-01
   7154.00  3.7334426E-01
   7154.33  3.6269302E-01
   7154.67  3.5161773E-01
   7155.00  3.4021434E-01
   7155.33  3.2858955E-01
   7155.67  3.1690936E-01
   7156.00  3.0529655E-01
   7156.33  2.9391351E-01
   7156.67  2.8285870E-01
   7157.00  2.7222422E-01
   7157.33  2.6216048E-01
   7157.67  2.5266484E-01
   7158.00  2.4376833E-01
   7158.33  2.3557921E-01
   7158.67  2.2804674E-01
   7159.00  2.2119445E-01
   7159.33  2.1514436E-01
   7159.67  2.0985003E-01
   7160.00  2.0535478E-01
   7160.33  2.0182249E-01
   7160.67  1.9921126E-01
   7161.00  1.9758448E-01
   7161.33  1.9715668E-01
   7161.67  1.9787563E-01
   7162.00  1.9981090E-01
   7162.33  2.0321153E-01
   7162.67  2.0800773E-01
   7163.00  2.1428451E-01
   7163.33  2.2234063E-01
   7163.67  2.3206686E-01
   7164.00  2.4351199E-01
   7164.33  2.5689110E-01
   7164.67  2.7189784E-01
   7165.00  2.8836121E-01
   7165.33  3.0611237E-01
   7165.67  3.2459499E-01
   7166.00  3.4340798E-01
   7166.33  3.6206268E-01
   7166.67  3.8014801E-01
   7167.00  3.9736700E-01
   7167.33  4.1334446E-01
   7167.67  4.2809379E-01
   7168.00  4.4158158E-01
   7168.33  4.5367570E-01
   7168.67  4.6459506E-01
   7169.00  4.7441017E-01
   7169.33  4.8307961E-01
   7169.67  4.9080963E-01
   7170.00  4.9765673E-01
   7170.33  5.0356764E-01
   7170.67  5.0868089E-01
   7171.00  5.1301605E-01
   7171.33  5.1649918E-01
   7171.67  5.1926075E-01
   7172.00  5.2136488E-01
