    FDMNES
    energy     <xanes>
   7097.00  5.6626292E-03
   7097.33  5.8188717E-03
   7097.67  5.9832329E-03
   7098.00  6.1563193E-03
   7098.33  6.3401062E-03
   7098.67  6.5342865E-03
   7099.00  6.7397039E-03
   7099.33  6.9590030E-03
   7099.67  7.1918897E-03
   7100.00  7.4395690E-03
   7100.33  7.7056782E-03
   7100.67  7.9899900E-03
   7101.00  8.2942804E-03
   7101.33  8.6237128E-03
   7101.67  8.9782430E-03
   7102.00  9.3605872E-03
   7102.33  9.7783565E-03
   7102.67  1.0231944E-02
   7103.00  1.0725693E-02
   7103.33  1.1271345E-02
   7103.67  1.1870306E-02
   7104.00  1.2529907E-02
   7104.33  1.3269310E-02
   7104.67  1.4092304E-02
   7105.00  1.5012136E-02
   7105.33  1.6062392E-02
   7105.67  1.7252784E-02
   7106.00  1.8609434E-02
   7106.33  2.0196995E-02
   7106.67  2.2041304E-02
   7107.00  2.4200330E-02
   7107.33  2.6815595E-02
   7107.67  2.9963557E-02
   7108.00  3.3796325E-02
   7108.33  3.8687788E-02
   7108.67  4.4912632E-02
   7109.00  5.2987126E-02
   7109.33  6.4243646E-02
   7109.67  8.0066149E-02
   7110.00  1.0312023E-01
   7110.33  1.4098751E-01
   7110.67  2.0294557E-01
   7111.00  2.9967949E-01
   7111.33  4.3230496E-01
   7111.67  5.6994217E-01
   7112.00  6.9462323E-01
   7112.33  7.8639241E-01
   7112.67  8.0127328E-01
   7113.00  7.2262872E-01
   7113.33  5.9216283E-01
   7113.67  4.7216060E-01
   7114.00  3.7928356E-01
   7114.33  3.1448844E-01
   7114.67  2.6769283E-01
   7115.00  2.3395528E-01
   7115.33  2.1052196E-01
   7115.67  1.9392946E-01
   7116.00  1.8287764E-01
   7116.33  1.7654937E-01
   7116.67  1.7258925E-01
   7117.00  1.6911568E-01
   7117.33  1.6496190E-01
   7117.67  1.6087902E-01
   7118.00  1.5786138E-01
   7118.33  1.5676819E-01
   7118.67  1.5691845E-01
   7119.00  1.5674801E-01
   7119.33  1.5349023E-01
   7119.67  1.4710484E-01
   7120.00  1.4001512E-01
   7120.33  1.3517739E-01
   7120.67  1.3286014E-01
   7121.00  1.3268844E-01
   7121.33  1.3449552E-01
   7121.67  1.3780894E-01
   7122.00  1.4245309E-01
   7122.33  1.4856998E-01
   7122.67  1.5611494E-01
   7123.00  1.6511792E-01
   7123.33  1.7562595E-01
   7123.67  1.8717842E-01
   7124.00  1.9933833E-01
   7124.33  2.1139380E-01
   7124.67  2.2274621E-01
   7125.00  2.3325533E-01
   7125.33  2.4323646E-01
   7125.67  2.5340073E-01
   7126.00  2.6421907E-01
   7126.33  2.7608473E-01
   7126.67  2.8898631E-01
   7127.00  3.0308503E-01
   7127.33  3.1900348E-01
   7127.67  3.3710665E-01
   7128.00  3.5787966E-01
   7128.33  3.8226866E-01
   7128.67  4.1026572E-01
   7129.00  4.4189203E-01
   7129.33  4.7691589E-01
   7129.67  5.1373146E-01
   7130.00  5.5121805E-01
   7130.33  5.8837410E-01
   7130.67  6.2448022E-01
   7131.00  6.5875912E-01
   7131.33  6.8973544E-01
   7131.67  7.1672035E-01
   7132.00  7.3905067E-01
   7132.33  7.5561556E-01
   7132.67  7.6680415E-01
   7133.00  7.7257837E-01
   7133.33  7.7260031E-01
   7133.67  7.6810782E-01
   7134.00  7.5950524E-01
   7134.33  7.4625038E-01
   7134.67  7.2842292E-01
   7135.00  7.0567286E-01
   7135.33  6.7741931E-01
   7135.67  6.4500400E-01
   7136.00  6.0964557E-01
   7136.33  5.7318269E-01
   7136.67  5.3793119E-01
   7137.00  5.0560577E-01
   7137.33  4.7823577E-01
   7137.67  4.5609703E-01
   7138.00  4.3945018E-01
   7138.33  4.2890578E-01
   7138.67  4.2344333E-01
   7139.00  4.2260539E-01
   7139.33  4.2619508E-01
   7139.67  4.3290904E-01
   7140.00  4.4200886E-01
   7140.33  4.5286945E-01
   7140.67  4.6461636E-01
   7141.00  4.7684598E-01
   7141.33  4.8935035E-01
   7141.67  5.0205940E-01
   7142.00  5.1502074E-01
   7142.33  5.2832641E-01
   7142.67  5.4192722E-01
   7143.00  5.5575193E-01
   7143.33  5.6968466E-01
   7143.67  5.8357589E-01
   7144.00  5.9732491E-01
   7144.33  6.1082205E-01
   7144.67  6.2405047E-01
   7145.00  6.3699443E-01
   7145.33  6.4962099E-01
   7145.67  6.6198543E-01
   7146.00  6.7411650E-01
   7146.33  6.8603441E-01
   7146.67  6.9780792E-01
   7147.00  7.0946367E-01
   7147.33  7.2098699E-01
   7147.67  7.3235108E-01
   7148.00  7.4349317E-01
   7148.33  7.5426642E-01
   7148.67  7.6456806E-01
   7149.00  7.7425192E-01
   7149.33  7.8302277E-01
   7149.67  7.9078201E-01
   7150.00  7.9737200E-01
   7150.33  8.0247753E-01
   7150.67  8.0616106E-01
   7151.00  8.0837831E-01
   7151.33  8.0894674E-01
   7151.67  8.0810136E-01
   7152.00  8.0592029E-01
   7152.33  8.0237056E-01
   7152.67  7.9774036E-01
   7153.00  7.9215016E-01
   7153.33  7.8563188E-01
   7153.67  7.7841006E-01
   7154.00  7.7057395E-01
   7154.33  7.6214180E-01
   7154.67  7.5324307E-01
   7155.00  7.4391668E-01
   7155.33  7.3414425E-01
   7155.67  7.2399675E-01
   7156.00  7.1349025E-01
   7156.33  7.0260464E-01
   7156.67  6.9141037E-01
   7157.00  6.7993761E-01
   7157.33  6.6819779E-01
   7157.67  6.5626852E-01
   7158.00  6.4419678E-01
   7158.33  6.3203143E-01
   7158.67  6.1984450E-01
   7159.00  6.0768803E-01
   7159.33  5.9562827E-01
   7159.67  5.8370494E-01
   7160.00  5.7195987E-01
   7160.33  5.6046483E-01
   7160.67  5.4923027E-01
   7161.00  5.3828480E-01
   7161.33  5.2769517E-01
   7161.67  5.1744532E-01
   7162.00  5.0755696E-01
   7162.33  4.9810269E-01
   7162.67  4.8905431E-01
   7163.00  4.8042386E-01
   7163.33  4.7226990E-01
   7163.67  4.6453420E-01
   7164.00  4.5720245E-01
   7164.33  4.5029254E-01
   7164.67  4.4371676E-01
   7165.00  4.3743240E-01
   7165.33  4.3141329E-01
   7165.67  4.2557216E-01
   7166.00  4.1985979E-01
   7166.33  4.1422942E-01
   7166.67  4.0862401E-01
   7167.00  4.0301275E-01
   7167.33  3.9736813E-01
   7167.67  3.9168418E-01
   7168.00  3.8596486E-01
   7168.33  3.8022176E-01
   7168.67  3.7448464E-01
   7169.00  3.6878529E-01
   7169.33  3.6317769E-01
   7169.67  3.5770041E-01
   7170.00  3.5239665E-01
   7170.33  3.4734410E-01
   7170.67  3.4256659E-01
   7171.00  3.3811468E-01
   7171.33  3.3411628E-01
   7171.67  3.3064209E-01
   7172.00  3.2783779E-01
