    FDMNES
    energy     <xanes>
   7097.00  5.0382207E-03
   7097.33  5.1531300E-03
   7097.67  5.2731376E-03
   7098.00  5.3985837E-03
   7098.33  5.5306404E-03
   7098.67  5.6690601E-03
   7099.00  5.8143051E-03
   7099.33  5.9679026E-03
   7099.67  6.1295976E-03
   7100.00  6.3000348E-03
   7100.33  6.4812564E-03
   7100.67  6.6730221E-03
   7101.00  6.8762596E-03
   7101.33  7.0937843E-03
   7101.67  7.3254212E-03
   7102.00  7.5725554E-03
   7102.33  7.8392154E-03
   7102.67  8.1254042E-03
   7103.00  8.4332850E-03
   7103.33  8.7688927E-03
   7103.67  9.1326669E-03
   7104.00  9.5281822E-03
   7104.33  9.9650183E-03
   7104.67  1.0444679E-02
   7105.00  1.0973514E-02
   7105.33  1.1567922E-02
   7105.67  1.2232133E-02
   7106.00  1.2978558E-02
   7106.33  1.3838315E-02
   7106.67  1.4823338E-02
   7107.00  1.5961374E-02
   7107.33  1.7320880E-02
   7107.67  1.8939494E-02
   7108.00  2.0893023E-02
   7108.33  2.3370781E-02
   7108.67  2.6522714E-02
   7109.00  3.0634979E-02
   7109.33  3.6474636E-02
   7109.67  4.4947939E-02
   7110.00  5.7852665E-02
   7110.33  8.0278079E-02
   7110.67  1.1583572E-01
   7111.00  1.5717518E-01
   7111.33  1.7920128E-01
   7111.67  1.8678492E-01
   7112.00  2.0033358E-01
   7112.33  2.4332120E-01
   7112.67  2.9903943E-01
   7113.00  3.3029166E-01
   7113.33  3.3290952E-01
   7113.67  3.5258686E-01
   7114.00  3.6450776E-01
   7114.33  3.1654001E-01
   7114.67  2.4537727E-01
   7115.00  1.9232782E-01
   7115.33  1.7121016E-01
   7115.67  1.7413301E-01
   7116.00  2.0067345E-01
   7116.33  2.5742016E-01
   7116.67  3.3402261E-01
   7117.00  3.9566744E-01
   7117.33  3.9193523E-01
   7117.67  3.5149145E-01
   7118.00  3.0461317E-01
   7118.33  2.6065253E-01
   7118.67  2.2174379E-01
   7119.00  1.9104931E-01
   7119.33  1.7049939E-01
   7119.67  1.5672264E-01
   7120.00  1.4619853E-01
   7120.33  1.3626234E-01
   7120.67  1.2745424E-01
   7121.00  1.2126149E-01
   7121.33  1.1877618E-01
   7121.67  1.1895434E-01
   7122.00  1.2074718E-01
   7122.33  1.2301776E-01
   7122.67  1.2529268E-01
   7123.00  1.2831099E-01
   7123.33  1.3321657E-01
   7123.67  1.3954628E-01
   7124.00  1.4694915E-01
   7124.33  1.5621039E-01
   7124.67  1.6804808E-01
   7125.00  1.8292493E-01
   7125.33  2.0159826E-01
   7125.67  2.2378640E-01
   7126.00  2.4896826E-01
   7126.33  2.7523143E-01
   7126.67  2.9930657E-01
   7127.00  3.1922171E-01
   7127.33  3.3457548E-01
   7127.67  3.4768689E-01
   7128.00  3.6004842E-01
   7128.33  3.7238136E-01
   7128.67  3.8449454E-01
   7129.00  3.9636380E-01
   7129.33  4.0950915E-01
   7129.67  4.2660651E-01
   7130.00  4.4993001E-01
   7130.33  4.8138455E-01
   7130.67  5.1930068E-01
   7131.00  5.6243090E-01
   7131.33  6.0978916E-01
   7131.67  6.5951627E-01
   7132.00  7.1035478E-01
   7132.33  7.6054698E-01
   7132.67  8.0842362E-01
   7133.00  8.5292796E-01
   7133.33  8.9331401E-01
   7133.67  9.3027218E-01
   7134.00  9.6339436E-01
   7134.33  9.9006904E-01
   7134.67  1.0088353E+00
   7135.00  1.0190871E+00
   7135.33  1.0204532E+00
   7135.67  1.0144019E+00
   7136.00  1.0006795E+00
   7136.33  9.7782955E-01
   7136.67  9.4723655E-01
   7137.00  9.1022115E-01
   7137.33  8.6871934E-01
   7137.67  8.2602182E-01
   7138.00  7.8438596E-01
   7138.33  7.4637165E-01
   7138.67  7.1305408E-01
   7139.00  6.8510219E-01
   7139.33  6.6333211E-01
   7139.67  6.4661622E-01
   7140.00  6.3427171E-01
   7140.33  6.2577801E-01
   7140.67  6.1978655E-01
   7141.00  6.1564016E-01
   7141.33  6.1291363E-01
   7141.67  6.1102560E-01
   7142.00  6.0969835E-01
   7142.33  6.0866822E-01
   7142.67  6.0756914E-01
   7143.00  6.0606446E-01
   7143.33  6.0361834E-01
   7143.67  5.9992374E-01
   7144.00  5.9470477E-01
   7144.33  5.8758295E-01
   7144.67  5.7880404E-01
   7145.00  5.6855455E-01
   7145.33  5.5705318E-01
   7145.67  5.4488443E-01
   7146.00  5.3245083E-01
   7146.33  5.2022327E-01
   7146.67  5.0857712E-01
   7147.00  4.9780209E-01
   7147.33  4.8830841E-01
   7147.67  4.8014055E-01
   7148.00  4.7338777E-01
   7148.33  4.6824978E-01
   7148.67  4.6449585E-01
   7149.00  4.6204463E-01
   7149.33  4.6093337E-01
   7149.67  4.6089386E-01
   7150.00  4.6183022E-01
   7150.33  4.6376180E-01
   7150.67  4.6650475E-01
   7151.00  4.7000265E-01
   7151.33  4.7427341E-01
   7151.67  4.7915227E-01
   7152.00  4.8455817E-01
   7152.33  4.9043121E-01
   7152.67  4.9659023E-01
   7153.00  5.0291439E-01
   7153.33  5.0925987E-01
   7153.67  5.1547868E-01
   7154.00  5.2145993E-01
   7154.33  5.2705785E-01
   7154.67  5.3223871E-01
   7155.00  5.3696153E-01
   7155.33  5.4114555E-01
   7155.67  5.4485785E-01
   7156.00  5.4813071E-01
   7156.33  5.5097585E-01
   7156.67  5.5351284E-01
   7157.00  5.5580706E-01
   7157.33  5.5791011E-01
   7157.67  5.5990529E-01
   7158.00  5.6183296E-01
   7158.33  5.6371766E-01
   7158.67  5.6557368E-01
   7159.00  5.6739410E-01
   7159.33  5.6914958E-01
   7159.67  5.7081495E-01
   7160.00  5.7235820E-01
   7160.33  5.7372179E-01
   7160.67  5.7489183E-01
   7161.00  5.7584479E-01
   7161.33  5.7653265E-01
   7161.67  5.7697651E-01
   7162.00  5.7717697E-01
   7162.33  5.7711162E-01
   7162.67  5.7681817E-01
   7163.00  5.7630419E-01
   7163.33  5.7555317E-01
   7163.67  5.7459730E-01
   7164.00  5.7343597E-01
   7164.33  5.7203489E-01
   7164.67  5.7040693E-01
   7165.00  5.6853503E-01
   7165.33  5.6635835E-01
   7165.67  5.6388486E-01
   7166.00  5.6109829E-01
   7166.33  5.5794732E-01
   7166.67  5.5447218E-01
   7167.00  5.5068101E-01
   7167.33  5.4655504E-01
   7167.67  5.4215864E-01
   7168.00  5.3752017E-01
   7168.33  5.3264945E-01
   7168.67  5.2760990E-01
   7169.00  5.2243557E-01
   7169.33  5.1715737E-01
   7169.67  5.1183566E-01
   7170.00  5.0651560E-01
   7170.33  5.0126266E-01
   7170.67  4.9614193E-01
   7171.00  4.9123055E-01
   7171.33  4.8669338E-01
   7171.67  4.8268420E-01
   7172.00  4.7943894E-01
