    FDMNES
    energy     <xanes>
   7097.00  4.8512654E-03
   7097.33  4.9636462E-03
   7097.67  5.0810315E-03
   7098.00  5.2037566E-03
   7098.33  5.3329742E-03
   7098.67  5.4684432E-03
   7099.00  5.6106200E-03
   7099.33  5.7610088E-03
   7099.67  5.9193626E-03
   7100.00  6.0863191E-03
   7100.33  6.2638934E-03
   7100.67  6.4518550E-03
   7101.00  6.6511233E-03
   7101.33  6.8644825E-03
   7101.67  7.0917690E-03
   7102.00  7.3343584E-03
   7102.33  7.5962419E-03
   7102.67  7.8774350E-03
   7103.00  8.1800884E-03
   7103.33  8.5101880E-03
   7103.67  8.8681816E-03
   7104.00  9.2576181E-03
   7104.33  9.6879919E-03
   7104.67  1.0160786E-02
   7105.00  1.0682265E-02
   7105.33  1.1268601E-02
   7105.67  1.1923857E-02
   7106.00  1.2660106E-02
   7106.33  1.3507595E-02
   7106.67  1.4477391E-02
   7107.00  1.5595679E-02
   7107.33  1.6926841E-02
   7107.67  1.8503823E-02
   7108.00  2.0393913E-02
   7108.33  2.2763074E-02
   7108.67  2.5729882E-02
   7109.00  2.9519891E-02
   7109.33  3.4717168E-02
   7109.67  4.1927136E-02
   7110.00  5.2323546E-02
   7110.33  6.9224385E-02
   7110.67  9.6258723E-02
   7111.00  1.3594245E-01
   7111.33  1.8570435E-01
   7111.67  2.3791278E-01
   7112.00  2.8506795E-01
   7112.33  3.2790198E-01
   7112.67  3.7407047E-01
   7113.00  4.1411913E-01
   7113.33  4.1823293E-01
   7113.67  3.7405516E-01
   7114.00  3.0031784E-01
   7114.33  2.3236475E-01
   7114.67  1.8186593E-01
   7115.00  1.4679087E-01
   7115.33  1.2434046E-01
   7115.67  1.0999866E-01
   7116.00  1.0168845E-01
   7116.33  9.8104120E-02
   7116.67  9.7484320E-02
   7117.00  9.9112757E-02
   7117.33  1.0252300E-01
   7117.67  1.0695720E-01
   7118.00  1.1215201E-01
   7118.33  1.1813447E-01
   7118.67  1.2477571E-01
   7119.00  1.3199360E-01
   7119.33  1.3979660E-01
   7119.67  1.4813675E-01
   7120.00  1.5703535E-01
   7120.33  1.6653759E-01
   7120.67  1.7655129E-01
   7121.00  1.8714628E-01
   7121.33  1.9868219E-01
   7121.67  2.1144916E-01
   7122.00  2.2585178E-01
   7122.33  2.4268356E-01
   7122.67  2.6210351E-01
   7123.00  2.8423155E-01
   7123.33  3.0906072E-01
   7123.67  3.3533506E-01
   7124.00  3.6166147E-01
   7124.33  3.8584458E-01
   7124.67  4.0675144E-01
   7125.00  4.2439358E-01
   7125.33  4.3964715E-01
   7125.67  4.5385840E-01
   7126.00  4.6718753E-01
   7126.33  4.7879302E-01
   7126.67  4.8787781E-01
   7127.00  4.9401857E-01
   7127.33  4.9777371E-01
   7127.67  5.0129362E-01
   7128.00  5.0601481E-01
   7128.33  5.1306879E-01
   7128.67  5.2252891E-01
   7129.00  5.3435852E-01
   7129.33  5.4813685E-01
   7129.67  5.6262448E-01
   7130.00  5.7721596E-01
   7130.33  5.9196328E-01
   7130.67  6.0744779E-01
   7131.00  6.2423229E-01
   7131.33  6.4289298E-01
   7131.67  6.6314827E-01
   7132.00  6.8454709E-01
   7132.33  7.0604043E-01
   7132.67  7.2586772E-01
   7133.00  7.4206509E-01
   7133.33  7.5190227E-01
   7133.67  7.5569314E-01
   7134.00  7.5476804E-01
   7134.33  7.5101424E-01
   7134.67  7.4605488E-01
   7135.00  7.4002762E-01
   7135.33  7.3243487E-01
   7135.67  7.2324873E-01
   7136.00  7.1258322E-01
   7136.33  7.0071069E-01
   7136.67  6.8831672E-01
   7137.00  6.7588591E-01
   7137.33  6.6397105E-01
   7137.67  6.5289004E-01
   7138.00  6.4285373E-01
   7138.33  6.3412791E-01
   7138.67  6.2657734E-01
   7139.00  6.2015306E-01
   7139.33  6.1489341E-01
   7139.67  6.1056044E-01
   7140.00  6.0706415E-01
   7140.33  6.0442230E-01
   7140.67  6.0249785E-01
   7141.00  6.0127831E-01
   7141.33  6.0085597E-01
   7141.67  6.0115439E-01
   7142.00  6.0218078E-01
   7142.33  6.0401689E-01
   7142.67  6.0653466E-01
   7143.00  6.0967037E-01
   7143.33  6.1337253E-01
   7143.67  6.1742283E-01
   7144.00  6.2166231E-01
   7144.33  6.2588667E-01
   7144.67  6.2989367E-01
   7145.00  6.3352487E-01
   7145.33  6.3656336E-01
   7145.67  6.3896675E-01
   7146.00  6.4067637E-01
   7146.33  6.4156931E-01
   7146.67  6.4174026E-01
   7147.00  6.4121516E-01
   7147.33  6.3995234E-01
   7147.67  6.3807445E-01
   7148.00  6.3561140E-01
   7148.33  6.3251421E-01
   7148.67  6.2886758E-01
   7149.00  6.2468467E-01
   7149.33  6.1991209E-01
   7149.67  6.1462350E-01
   7150.00  6.0882394E-01
   7150.33  6.0245156E-01
   7150.67  5.9557435E-01
   7151.00  5.8820100E-01
   7151.33  5.8028410E-01
   7151.67  5.7190136E-01
   7152.00  5.6307099E-01
   7152.33  5.5375922E-01
   7152.67  5.4403858E-01
   7153.00  5.3392610E-01
   7153.33  5.2339423E-01
   7153.67  5.1250853E-01
   7154.00  5.0128639E-01
   7154.33  4.8971208E-01
   7154.67  4.7785724E-01
   7155.00  4.6575918E-01
   7155.33  4.5344780E-01
   7155.67  4.4101398E-01
   7156.00  4.2852806E-01
   7156.33  4.1609114E-01
   7156.67  4.0380710E-01
   7157.00  3.9177922E-01
   7157.33  3.8018187E-01
   7157.67  3.6909521E-01
   7158.00  3.5862496E-01
   7158.33  3.4897221E-01
   7158.67  3.4013801E-01
   7159.00  3.3218426E-01
   7159.33  3.2527707E-01
   7159.67  3.1932604E-01
   7160.00  3.1433504E-01
   7160.33  3.1040673E-01
   7160.67  3.0738811E-01
   7161.00  3.0523656E-01
   7161.33  3.0399482E-01
   7161.67  3.0349676E-01
   7162.00  3.0367921E-01
   7162.33  3.0453831E-01
   7162.67  3.0592695E-01
   7163.00  3.0778917E-01
   7163.33  3.1011211E-01
   7163.67  3.1278288E-01
   7164.00  3.1575211E-01
   7164.33  3.1899794E-01
   7164.67  3.2244303E-01
   7165.00  3.2605252E-01
   7165.33  3.2980840E-01
   7165.67  3.3366662E-01
   7166.00  3.3760838E-01
   7166.33  3.4162616E-01
   7166.67  3.4569788E-01
   7167.00  3.4981184E-01
   7167.33  3.5396568E-01
   7167.67  3.5815349E-01
   7168.00  3.6237528E-01
   7168.33  3.6663671E-01
   7168.67  3.7093524E-01
   7169.00  3.7527196E-01
   7169.33  3.7965134E-01
   7169.67  3.8406511E-01
   7170.00  3.8850592E-01
   7170.33  3.9295834E-01
   7170.67  3.9738857E-01
   7171.00  4.0174621E-01
   7171.33  4.0590064E-01
   7171.67  4.0966799E-01
   7172.00  4.1277307E-01
