    FDMNES
    energy     <xanes>
   7097.00  4.8170423E-03
   7097.33  4.9372075E-03
   7097.67  5.0630573E-03
   7098.00  5.1949897E-03
   7098.33  5.3343428E-03
   7098.67  5.4808659E-03
   7099.00  5.6351058E-03
   7099.33  5.7988273E-03
   7099.67  5.9717794E-03
   7100.00  6.1547338E-03
   7100.33  6.3500817E-03
   7100.67  6.5576027E-03
   7101.00  6.7784210E-03
   7101.33  7.0158806E-03
   7101.67  7.2698598E-03
   7102.00  7.5420596E-03
   7102.33  7.8373373E-03
   7102.67  8.1558209E-03
   7103.00  8.5002024E-03
   7103.33  8.8778727E-03
   7103.67  9.2895516E-03
   7104.00  9.7397437E-03
   7104.33  1.0240361E-02
   7104.67  1.0793537E-02
   7105.00  1.1407355E-02
   7105.33  1.2102477E-02
   7105.67  1.2884588E-02
   7106.00  1.3769562E-02
   7106.33  1.4796896E-02
   7106.67  1.5982051E-02
   7107.00  1.7360261E-02
   7107.33  1.9017870E-02
   7107.67  2.1001461E-02
   7108.00  2.3404236E-02
   7108.33  2.6456152E-02
   7108.67  3.0328467E-02
   7109.00  3.5344147E-02
   7109.33  4.2342544E-02
   7109.67  5.2217425E-02
   7110.00  6.6701180E-02
   7110.33  9.0761900E-02
   7110.67  1.3045621E-01
   7111.00  1.9186814E-01
   7111.33  2.7136591E-01
   7111.67  3.4862782E-01
   7112.00  3.9462502E-01
   7112.33  3.8695792E-01
   7112.67  3.7523765E-01
   7113.00  3.7731172E-01
   7113.33  3.6183152E-01
   7113.67  3.2968244E-01
   7114.00  2.9578168E-01
   7114.33  2.8710884E-01
   7114.67  2.9775567E-01
   7115.00  2.9549216E-01
   7115.33  2.6263512E-01
   7115.67  2.2034479E-01
   7116.00  1.7886286E-01
   7116.33  1.4779137E-01
   7116.67  1.2710884E-01
   7117.00  1.1116400E-01
   7117.33  9.6375554E-02
   7117.67  8.4668832E-02
   7118.00  7.7198618E-02
   7118.33  7.4018140E-02
   7118.67  7.4075573E-02
   7119.00  7.7229499E-02
   7119.33  8.4009778E-02
   7119.67  9.3917392E-02
   7120.00  1.0625836E-01
   7120.33  1.2103150E-01
   7120.67  1.3969001E-01
   7121.00  1.6358121E-01
   7121.33  1.9185529E-01
   7121.67  2.1883482E-01
   7122.00  2.3903897E-01
   7122.33  2.4831849E-01
   7122.67  2.5084055E-01
   7123.00  2.5138651E-01
   7123.33  2.5412490E-01
   7123.67  2.5972895E-01
   7124.00  2.6872975E-01
   7124.33  2.8397056E-01
   7124.67  3.0682977E-01
   7125.00  3.3749322E-01
   7125.33  3.7464883E-01
   7125.67  4.1336145E-01
   7126.00  4.4922819E-01
   7126.33  4.7804458E-01
   7126.67  5.0088921E-01
   7127.00  5.2064230E-01
   7127.33  5.4254552E-01
   7127.67  5.7150592E-01
   7128.00  6.1019791E-01
   7128.33  6.5765626E-01
   7128.67  7.0265031E-01
   7129.00  7.3099368E-01
   7129.33  7.2743804E-01
   7129.67  7.0081919E-01
   7130.00  6.6393699E-01
   7130.33  6.2696457E-01
   7130.67  5.9301934E-01
   7131.00  5.6245544E-01
   7131.33  5.3624687E-01
   7131.67  5.1502419E-01
   7132.00  4.9973643E-01
   7132.33  4.9174721E-01
   7132.67  4.9016403E-01
   7133.00  4.9446315E-01
   7133.33  5.0390337E-01
   7133.67  5.1567474E-01
   7134.00  5.2730433E-01
   7134.33  5.3588900E-01
   7134.67  5.4094936E-01
   7135.00  5.4361844E-01
   7135.33  5.4615448E-01
   7135.67  5.5011778E-01
   7136.00  5.5572143E-01
   7136.33  5.6269227E-01
   7136.67  5.7066496E-01
   7137.00  5.7995186E-01
   7137.33  5.9144637E-01
   7137.67  6.0527146E-01
   7138.00  6.2121562E-01
   7138.33  6.3865213E-01
   7138.67  6.5642382E-01
   7139.00  6.7382798E-01
   7139.33  6.9019882E-01
   7139.67  7.0513034E-01
   7140.00  7.1795126E-01
   7140.33  7.2732191E-01
   7140.67  7.3299060E-01
   7141.00  7.3500903E-01
   7141.33  7.3368524E-01
   7141.67  7.3023368E-01
   7142.00  7.2507855E-01
   7142.33  7.1788307E-01
   7142.67  7.0827794E-01
   7143.00  6.9570448E-01
   7143.33  6.7947812E-01
   7143.67  6.6037025E-01
   7144.00  6.3919122E-01
   7144.33  6.1713768E-01
   7144.67  5.9567054E-01
   7145.00  5.7580207E-01
   7145.33  5.5867069E-01
   7145.67  5.4438756E-01
   7146.00  5.3300799E-01
   7146.33  5.2467577E-01
   7146.67  5.1868947E-01
   7147.00  5.1468307E-01
   7147.33  5.1242806E-01
   7147.67  5.1134936E-01
   7148.00  5.1116846E-01
   7148.33  5.1170077E-01
   7148.67  5.1266860E-01
   7149.00  5.1394970E-01
   7149.33  5.1549613E-01
   7149.67  5.1727791E-01
   7150.00  5.1932060E-01
   7150.33  5.2166645E-01
   7150.67  5.2424024E-01
   7151.00  5.2695841E-01
   7151.33  5.2967916E-01
   7151.67  5.3223973E-01
   7152.00  5.3451328E-01
   7152.33  5.3635420E-01
   7152.67  5.3779199E-01
   7153.00  5.3887882E-01
   7153.33  5.3970479E-01
   7153.67  5.4042740E-01
   7154.00  5.4111059E-01
   7154.33  5.4171743E-01
   7154.67  5.4210822E-01
   7155.00  5.4208311E-01
   7155.33  5.4128922E-01
   7155.67  5.3956441E-01
   7156.00  5.3675115E-01
   7156.33  5.3261046E-01
   7156.67  5.2730242E-01
   7157.00  5.2090952E-01
   7157.33  5.1346885E-01
   7157.67  5.0528319E-01
   7158.00  4.9651884E-01
   7158.33  4.8730882E-01
   7158.67  4.7786020E-01
   7159.00  4.6828154E-01
   7159.33  4.5865857E-01
   7159.67  4.4904836E-01
   7160.00  4.3946881E-01
   7160.33  4.2992415E-01
   7160.67  4.2041140E-01
   7161.00  4.1095008E-01
   7161.33  4.0160872E-01
   7161.67  3.9245663E-01
   7162.00  3.8357214E-01
   7162.33  3.7508282E-01
   7162.67  3.6700581E-01
   7163.00  3.5936941E-01
   7163.33  3.5223328E-01
   7163.67  3.4551995E-01
   7164.00  3.3919697E-01
   7164.33  3.3326085E-01
   7164.67  3.2761976E-01
   7165.00  3.2223701E-01
   7165.33  3.1711387E-01
   7165.67  3.1221886E-01
   7166.00  3.0757368E-01
   7166.33  3.0326766E-01
   7166.67  2.9933438E-01
   7167.00  2.9584160E-01
   7167.33  2.9293003E-01
   7167.67  2.9059991E-01
   7168.00  2.8889385E-01
   7168.33  2.8792621E-01
   7168.67  2.8762657E-01
   7169.00  2.8798728E-01
   7169.33  2.8905914E-01
   7169.67  2.9071351E-01
   7170.00  2.9289040E-01
   7170.33  2.9555456E-01
   7170.67  2.9854123E-01
   7171.00  3.0173437E-01
   7171.33  3.0496118E-01
   7171.67  3.0795996E-01
   7172.00  3.1043043E-01
