    FDMNES
    energy     <xanes>
   7097.00  4.7437393E-03
   7097.33  4.8552108E-03
   7097.67  4.9716203E-03
   7098.00  5.0932973E-03
   7098.33  5.2213777E-03
   7098.67  5.3556230E-03
   7099.00  5.4964830E-03
   7099.33  5.6454420E-03
   7099.67  5.8022584E-03
   7100.00  5.9675640E-03
   7100.33  6.1433536E-03
   7100.67  6.3294077E-03
   7101.00  6.5266450E-03
   7101.33  6.7378373E-03
   7101.67  6.9628459E-03
   7102.00  7.2030616E-03
   7102.33  7.4624975E-03
   7102.67  7.7412259E-03
   7103.00  8.0414599E-03
   7103.33  8.3693117E-03
   7103.67  8.7253694E-03
   7104.00  9.1133773E-03
   7104.33  9.5432601E-03
   7104.67  1.0016874E-02
   7105.00  1.0541066E-02
   7105.33  1.1133344E-02
   7105.67  1.1798860E-02
   7106.00  1.2551485E-02
   7106.33  1.3425709E-02
   7106.67  1.4436194E-02
   7107.00  1.5615239E-02
   7107.33  1.7042150E-02
   7107.67  1.8763943E-02
   7108.00  2.0872584E-02
   7108.33  2.3597458E-02
   7108.67  2.7128397E-02
   7109.00  3.1822834E-02
   7109.33  3.8636892E-02
   7109.67  4.8710304E-02
   7110.00  6.4296208E-02
   7110.33  9.1964609E-02
   7110.67  1.3865721E-01
   7111.00  2.0356628E-01
   7111.33  2.4753038E-01
   7111.67  2.4662492E-01
   7112.00  2.3537592E-01
   7112.33  2.4168738E-01
   7112.67  2.4947714E-01
   7113.00  2.4947757E-01
   7113.33  2.3119939E-01
   7113.67  2.1353440E-01
   7114.00  2.0624075E-01
   7114.33  1.9686853E-01
   7114.67  1.7386850E-01
   7115.00  1.4215207E-01
   7115.33  1.1443151E-01
   7115.67  9.5676383E-02
   7116.00  8.4668322E-02
   7116.33  7.9533287E-02
   7116.67  7.7916017E-02
   7117.00  7.9035872E-02
   7117.33  8.2775150E-02
   7117.67  8.8731419E-02
   7118.00  9.6902093E-02
   7118.33  1.0771452E-01
   7118.67  1.2139460E-01
   7119.00  1.3849596E-01
   7119.33  1.5937430E-01
   7119.67  1.8290289E-01
   7120.00  2.0893963E-01
   7120.33  2.3806397E-01
   7120.67  2.6903739E-01
   7121.00  3.0015740E-01
   7121.33  3.3062838E-01
   7121.67  3.6226225E-01
   7122.00  3.9775160E-01
   7122.33  4.4213970E-01
   7122.67  4.9742499E-01
   7123.00  5.6180448E-01
   7123.33  6.2566436E-01
   7123.67  6.7620263E-01
   7124.00  7.0644087E-01
   7124.33  7.1383341E-01
   7124.67  7.0680899E-01
   7125.00  6.9149002E-01
   7125.33  6.7305602E-01
   7125.67  6.5527653E-01
   7126.00  6.3998593E-01
   7126.33  6.2866980E-01
   7126.67  6.2025568E-01
   7127.00  6.1303987E-01
   7127.33  6.0475379E-01
   7127.67  5.9390951E-01
   7128.00  5.7940802E-01
   7128.33  5.5979490E-01
   7128.67  5.3591482E-01
   7129.00  5.0929382E-01
   7129.33  4.8261931E-01
   7129.67  4.5839552E-01
   7130.00  4.3791229E-01
   7130.33  4.2209167E-01
   7130.67  4.1006488E-01
   7131.00  4.0132897E-01
   7131.33  3.9573293E-01
   7131.67  3.9266465E-01
   7132.00  3.9209284E-01
   7132.33  3.9443407E-01
   7132.67  3.9943989E-01
   7133.00  4.0701901E-01
   7133.33  4.1700449E-01
   7133.67  4.2837351E-01
   7134.00  4.4049929E-01
   7134.33  4.5320902E-01
   7134.67  4.6682307E-01
   7135.00  4.8188541E-01
   7135.33  4.9908301E-01
   7135.67  5.1821603E-01
   7136.00  5.3905758E-01
   7136.33  5.6152427E-01
   7136.67  5.8542559E-01
   7137.00  6.1095592E-01
   7137.33  6.3850312E-01
   7137.67  6.6744003E-01
   7138.00  6.9666311E-01
   7138.33  7.2391019E-01
   7138.67  7.4718190E-01
   7139.00  7.6495702E-01
   7139.33  7.7536224E-01
   7139.67  7.7887204E-01
   7140.00  7.7561209E-01
   7140.33  7.6530179E-01
   7140.67  7.4958469E-01
   7141.00  7.2950039E-01
   7141.33  7.0619555E-01
   7141.67  6.8168913E-01
   7142.00  6.5742404E-01
   7142.33  6.3496164E-01
   7142.67  6.1485174E-01
   7143.00  5.9738239E-01
   7143.33  5.8295832E-01
   7143.67  5.7111248E-01
   7144.00  5.6165723E-01
   7144.33  5.5462555E-01
   7144.67  5.4952308E-01
   7145.00  5.4617349E-01
   7145.33  5.4458676E-01
   7145.67  5.4439864E-01
   7146.00  5.4547388E-01
   7146.33  5.4779792E-01
   7146.67  5.5107728E-01
   7147.00  5.5517420E-01
   7147.33  5.5999996E-01
   7147.67  5.6529064E-01
   7148.00  5.7087538E-01
   7148.33  5.7655478E-01
   7148.67  5.8210643E-01
   7149.00  5.8734955E-01
   7149.33  5.9201843E-01
   7149.67  5.9599700E-01
   7150.00  5.9915926E-01
   7150.33  6.0128750E-01
   7150.67  6.0244549E-01
   7151.00  6.0262797E-01
   7151.33  6.0175156E-01
   7151.67  6.0000076E-01
   7152.00  5.9744525E-01
   7152.33  5.9407312E-01
   7152.67  5.9003755E-01
   7153.00  5.8537131E-01
   7153.33  5.8000743E-01
   7153.67  5.7400844E-01
   7154.00  5.6734866E-01
   7154.33  5.5990786E-01
   7154.67  5.5174952E-01
   7155.00  5.4287118E-01
   7155.33  5.3320765E-01
   7155.67  5.2289574E-01
   7156.00  5.1199774E-01
   7156.33  5.0054142E-01
   7156.67  4.8869141E-01
   7157.00  4.7654065E-01
   7157.33  4.6417240E-01
   7157.67  4.5171263E-01
   7158.00  4.3924077E-01
   7158.33  4.2684492E-01
   7158.67  4.1458226E-01
   7159.00  4.0249869E-01
   7159.33  3.9066375E-01
   7159.67  3.7908225E-01
   7160.00  3.6777782E-01
   7160.33  3.5681246E-01
   7160.67  3.4617249E-01
   7161.00  3.3588138E-01
   7161.33  3.2601979E-01
   7161.67  3.1657837E-01
   7162.00  3.0759383E-01
   7162.33  2.9917361E-01
   7162.67  2.9129914E-01
   7163.00  2.8400693E-01
   7163.33  2.7741524E-01
   7163.67  2.7148366E-01
   7164.00  2.6624055E-01
   7164.33  2.6180258E-01
   7164.67  2.5810139E-01
   7165.00  2.5514989E-01
   7165.33  2.5305039E-01
   7165.67  2.5170728E-01
   7166.00  2.5111297E-01
   7166.33  2.5134286E-01
   7166.67  2.5228164E-01
   7167.00  2.5390346E-01
   7167.33  2.5625292E-01
   7167.67  2.5920759E-01
   7168.00  2.6272889E-01
   7168.33  2.6683407E-01
   7168.67  2.7140752E-01
   7169.00  2.7640309E-01
   7169.33  2.8180921E-01
   7169.67  2.8751720E-01
   7170.00  2.9346582E-01
   7170.33  2.9959187E-01
   7170.67  3.0577412E-01
   7171.00  3.1189937E-01
   7171.33  3.1774333E-01
   7171.67  3.2301850E-01
   7172.00  3.2732791E-01
