    FDMNES
    energy     <xanes>
   7097.00  4.7701647E-03
   7097.33  4.8752935E-03
   7097.67  4.9849080E-03
   7098.00  5.0993002E-03
   7098.33  5.2194893E-03
   7098.67  5.3452485E-03
   7099.00  5.4769738E-03
   7099.33  5.6159884E-03
   7099.67  5.7620587E-03
   7100.00  5.9157367E-03
   7100.33  6.0787869E-03
   7100.67  6.2509890E-03
   7101.00  6.4331384E-03
   7101.33  6.6276646E-03
   7101.67  6.8344064E-03
   7102.00  7.0545557E-03
   7102.33  7.2915916E-03
   7102.67  7.5455145E-03
   7103.00  7.8181977E-03
   7103.33  8.1148716E-03
   7103.67  8.4359363E-03
   7104.00  8.7845157E-03
   7104.33  9.1689709E-03
   7104.67  9.5906850E-03
   7105.00  1.0055275E-02
   7105.33  1.0577218E-02
   7105.67  1.1160435E-02
   7106.00  1.1816084E-02
   7106.33  1.2572064E-02
   7106.67  1.3439548E-02
   7107.00  1.4443942E-02
   7107.33  1.5647800E-02
   7107.67  1.7086652E-02
   7108.00  1.8831113E-02
   7108.33  2.1057288E-02
   7108.67  2.3906854E-02
   7109.00  2.7648129E-02
   7109.33  3.2997458E-02
   7109.67  4.0796756E-02
   7110.00  5.2709167E-02
   7110.33  7.3516549E-02
   7110.67  1.0766094E-01
   7111.00  1.5257641E-01
   7111.33  1.8593276E-01
   7111.67  2.0171697E-01
   7112.00  2.0744149E-01
   7112.33  2.0969610E-01
   7112.67  2.1188850E-01
   7113.00  2.1467692E-01
   7113.33  2.1769802E-01
   7113.67  2.1997950E-01
   7114.00  2.2036240E-01
   7114.33  2.1677003E-01
   7114.67  2.0900019E-01
   7115.00  1.9817517E-01
   7115.33  1.8646254E-01
   7115.67  1.7566252E-01
   7116.00  1.6641186E-01
   7116.33  1.5903984E-01
   7116.67  1.5317251E-01
   7117.00  1.4861048E-01
   7117.33  1.4528914E-01
   7117.67  1.4294845E-01
   7118.00  1.4154122E-01
   7118.33  1.4114557E-01
   7118.67  1.4160227E-01
   7119.00  1.4287176E-01
   7119.33  1.4506100E-01
   7119.67  1.4816121E-01
   7120.00  1.5231279E-01
   7120.33  1.5786497E-01
   7120.67  1.6485660E-01
   7121.00  1.7344940E-01
   7121.33  1.8405681E-01
   7121.67  1.9663353E-01
   7122.00  2.1131219E-01
   7122.33  2.2852377E-01
   7122.67  2.4807876E-01
   7123.00  2.6993696E-01
   7123.33  2.9407340E-01
   7123.67  3.1960885E-01
   7124.00  3.4566954E-01
   7124.33  3.7085764E-01
   7124.67  3.9409087E-01
   7125.00  4.1478986E-01
   7125.33  4.3267408E-01
   7125.67  4.4875178E-01
   7126.00  4.6390952E-01
   7126.33  4.7922345E-01
   7126.67  4.9553670E-01
   7127.00  5.1334246E-01
   7127.33  5.3312900E-01
   7127.67  5.5462597E-01
   7128.00  5.7755769E-01
   7128.33  6.0149140E-01
   7128.67  6.2561233E-01
   7129.00  6.4928244E-01
   7129.33  6.7172451E-01
   7129.67  6.9269094E-01
   7130.00  7.1214048E-01
   7130.33  7.3022874E-01
   7130.67  7.4769867E-01
   7131.00  7.6512268E-01
   7131.33  7.8299362E-01
   7131.67  8.0107145E-01
   7132.00  8.1838628E-01
   7132.33  8.3233525E-01
   7132.67  8.4022012E-01
   7133.00  8.3947737E-01
   7133.33  8.2713597E-01
   7133.67  8.0500701E-01
   7134.00  7.7515664E-01
   7134.33  7.4032780E-01
   7134.67  7.0421719E-01
   7135.00  6.6887529E-01
   7135.33  6.3611307E-01
   7135.67  6.0642543E-01
   7136.00  5.8009318E-01
   7136.33  5.5761463E-01
   7136.67  5.3848555E-01
   7137.00  5.2258039E-01
   7137.33  5.1008657E-01
   7137.67  5.0039622E-01
   7138.00  4.9329147E-01
   7138.33  4.8879406E-01
   7138.67  4.8634660E-01
   7139.00  4.8573008E-01
   7139.33  4.8690522E-01
   7139.67  4.8944820E-01
   7140.00  4.9316648E-01
   7140.33  4.9793142E-01
   7140.67  5.0333021E-01
   7141.00  5.0905199E-01
   7141.33  5.1467545E-01
   7141.67  5.1977486E-01
   7142.00  5.2398901E-01
   7142.33  5.2681983E-01
   7142.67  5.2821684E-01
   7143.00  5.2814162E-01
   7143.33  5.2653142E-01
   7143.67  5.2379140E-01
   7144.00  5.2017941E-01
   7144.33  5.1593877E-01
   7144.67  5.1142735E-01
   7145.00  5.0685499E-01
   7145.33  5.0243391E-01
   7145.67  4.9829413E-01
   7146.00  4.9453010E-01
   7146.33  4.9128210E-01
   7146.67  4.8855540E-01
   7147.00  4.8639268E-01
   7147.33  4.8490865E-01
   7147.67  4.8405535E-01
   7148.00  4.8384416E-01
   7148.33  4.8435081E-01
   7148.67  4.8547295E-01
   7149.00  4.8717639E-01
   7149.33  4.8946905E-01
   7149.67  4.9221047E-01
   7150.00  4.9532522E-01
   7150.33  4.9875212E-01
   7150.67  5.0235759E-01
   7151.00  5.0605851E-01
   7151.33  5.0976553E-01
   7151.67  5.1339862E-01
   7152.00  5.1689971E-01
   7152.33  5.2019040E-01
   7152.67  5.2325229E-01
   7153.00  5.2606016E-01
   7153.33  5.2856320E-01
   7153.67  5.3079036E-01
   7154.00  5.3274528E-01
   7154.33  5.3440718E-01
   7154.67  5.3582644E-01
   7155.00  5.3702154E-01
   7155.33  5.3799144E-01
   7155.67  5.3878668E-01
   7156.00  5.3942896E-01
   7156.33  5.3991930E-01
   7156.67  5.4028188E-01
   7157.00  5.4052578E-01
   7157.33  5.4065132E-01
   7157.67  5.4068069E-01
   7158.00  5.4061712E-01
   7158.33  5.4044922E-01
   7158.67  5.4018835E-01
   7159.00  5.3983420E-01
   7159.33  5.3937213E-01
   7159.67  5.3880914E-01
   7160.00  5.3813969E-01
   7160.33  5.3734224E-01
   7160.67  5.3642343E-01
   7161.00  5.3537718E-01
   7161.33  5.3418066E-01
   7161.67  5.3284632E-01
   7162.00  5.3137199E-01
   7162.33  5.2973842E-01
   7162.67  5.2796355E-01
   7163.00  5.2604903E-01
   7163.33  5.2398024E-01
   7163.67  5.2177737E-01
   7164.00  5.1944515E-01
   7164.33  5.1698476E-01
   7164.67  5.1443045E-01
   7165.00  5.1179221E-01
   7165.33  5.0907010E-01
   7165.67  5.0628528E-01
   7166.00  5.0344923E-01
   7166.33  5.0057050E-01
   7166.67  4.9766749E-01
   7167.00  4.9475283E-01
   7167.33  4.9184240E-01
   7167.67  4.8895110E-01
   7168.00  4.8609217E-01
   7168.33  4.8328748E-01
   7168.67  4.8054710E-01
   7169.00  4.7788501E-01
   7169.33  4.7532857E-01
   7169.67  4.7288113E-01
   7170.00  4.7055531E-01
   7170.33  4.6838242E-01
   7170.67  4.6636082E-01
   7171.00  4.6450596E-01
   7171.33  4.6286635E-01
   7171.67  4.6145904E-01
   7172.00  4.6033456E-01
