    FDMNES
    energy     <xanes>
   7097.00  5.2308454E-03
   7097.33  5.3552480E-03
   7097.67  5.4853095E-03
   7098.00  5.6214113E-03
   7098.33  5.7648603E-03
   7098.67  5.9153859E-03
   7099.00  6.0735062E-03
   7099.33  6.2409259E-03
   7099.67  6.4173660E-03
   7100.00  6.6035485E-03
   7100.33  6.8017541E-03
   7100.67  7.0117190E-03
   7101.00  7.2344804E-03
   7101.33  7.4731816E-03
   7101.67  7.7276280E-03
   7102.00  7.9993637E-03
   7102.33  8.2928784E-03
   7102.67  8.6081664E-03
   7103.00  8.9476275E-03
   7103.33  9.3179614E-03
   7103.67  9.7196225E-03
   7104.00  1.0156544E-02
   7104.33  1.0639284E-02
   7104.67  1.1169403E-02
   7105.00  1.1753792E-02
   7105.33  1.2410303E-02
   7105.67  1.3143255E-02
   7106.00  1.3965833E-02
   7106.33  1.4911162E-02
   7106.67  1.5991076E-02
   7107.00  1.7233992E-02
   7107.33  1.8709941E-02
   7107.67  2.0454301E-02
   7108.00  2.2539868E-02
   7108.33  2.5146481E-02
   7108.67  2.8402163E-02
   7109.00  3.2551158E-02
   7109.33  3.8226654E-02
   7109.67  4.6085565E-02
   7110.00  5.7403493E-02
   7110.33  7.5815509E-02
   7110.67  1.0559252E-01
   7111.00  1.5077954E-01
   7111.33  2.0908017E-01
   7111.67  2.6503764E-01
   7112.00  3.0679634E-01
   7112.33  3.2291483E-01
   7112.67  3.2286977E-01
   7113.00  3.2858094E-01
   7113.33  3.5549549E-01
   7113.67  3.8597103E-01
   7114.00  3.9822248E-01
   7114.33  3.8563852E-01
   7114.67  3.6298275E-01
   7115.00  3.3800061E-01
   7115.33  3.1701451E-01
   7115.67  3.0297563E-01
   7116.00  2.9457755E-01
   7116.33  2.8499432E-01
   7116.67  2.6721872E-01
   7117.00  2.4099412E-01
   7117.33  2.1292664E-01
   7117.67  1.8927895E-01
   7118.00  1.7167224E-01
   7118.33  1.6028558E-01
   7118.67  1.5282969E-01
   7119.00  1.4774100E-01
   7119.33  1.4411595E-01
   7119.67  1.4189268E-01
   7120.00  1.4155276E-01
   7120.33  1.4391575E-01
   7120.67  1.4906275E-01
   7121.00  1.5701886E-01
   7121.33  1.6736940E-01
   7121.67  1.7872007E-01
   7122.00  1.9050105E-01
   7122.33  2.0310041E-01
   7122.67  2.1737302E-01
   7123.00  2.3386984E-01
   7123.33  2.5205809E-01
   7123.67  2.6932631E-01
   7124.00  2.8346418E-01
   7124.33  2.9376452E-01
   7124.67  3.0319026E-01
   7125.00  3.1476627E-01
   7125.33  3.3214266E-01
   7125.67  3.5617994E-01
   7126.00  3.8641828E-01
   7126.33  4.2043665E-01
   7126.67  4.5322373E-01
   7127.00  4.8104275E-01
   7127.33  5.0112321E-01
   7127.67  5.1554827E-01
   7128.00  5.2658086E-01
   7128.33  5.3650402E-01
   7128.67  5.4701472E-01
   7129.00  5.5879456E-01
   7129.33  5.7245699E-01
   7129.67  5.8805838E-01
   7130.00  6.0569472E-01
   7130.33  6.2559464E-01
   7130.67  6.4739056E-01
   7131.00  6.7087683E-01
   7131.33  6.9577943E-01
   7131.67  7.2128206E-01
   7132.00  7.4669168E-01
   7132.33  7.7109342E-01
   7132.67  7.9394027E-01
   7133.00  8.1478262E-01
   7133.33  8.3272517E-01
   7133.67  8.4717432E-01
   7134.00  8.5690757E-01
   7134.33  8.5926343E-01
   7134.67  8.5325728E-01
   7135.00  8.3793160E-01
   7135.33  8.1227090E-01
   7135.67  7.7900746E-01
   7136.00  7.4034196E-01
   7136.33  6.9883014E-01
   7136.67  6.5736665E-01
   7137.00  6.1764866E-01
   7137.33  5.8138758E-01
   7137.67  5.4894797E-01
   7138.00  5.2062735E-01
   7138.33  4.9701944E-01
   7138.67  4.7751027E-01
   7139.00  4.6195795E-01
   7139.33  4.5060591E-01
   7139.67  4.4270909E-01
   7140.00  4.3799333E-01
   7140.33  4.3646875E-01
   7140.67  4.3743477E-01
   7141.00  4.4061434E-01
   7141.33  4.4596667E-01
   7141.67  4.5301480E-01
   7142.00  4.6158164E-01
   7142.33  4.7161641E-01
   7142.67  4.8267299E-01
   7143.00  4.9439950E-01
   7143.33  5.0621460E-01
   7143.67  5.1731411E-01
   7144.00  5.2691795E-01
   7144.33  5.3388726E-01
   7144.67  5.3795381E-01
   7145.00  5.3898593E-01
   7145.33  5.3691595E-01
   7145.67  5.3270925E-01
   7146.00  5.2702186E-01
   7146.33  5.2050550E-01
   7146.67  5.1387252E-01
   7147.00  5.0752771E-01
   7147.33  5.0188273E-01
   7147.67  4.9707570E-01
   7148.00  4.9322347E-01
   7148.33  4.9053783E-01
   7148.67  4.8893279E-01
   7149.00  4.8842511E-01
   7149.33  4.8915240E-01
   7149.67  4.9095375E-01
   7150.00  4.9378582E-01
   7150.33  4.9769530E-01
   7150.67  5.0246145E-01
   7151.00  5.0797043E-01
   7151.33  5.1412986E-01
   7151.67  5.2067616E-01
   7152.00  5.2743236E-01
   7152.33  5.3419741E-01
   7152.67  5.4079921E-01
   7153.00  5.4712972E-01
   7153.33  5.5307302E-01
   7153.67  5.5865521E-01
   7154.00  5.6390106E-01
   7154.33  5.6884126E-01
   7154.67  5.7359940E-01
   7155.00  5.7826220E-01
   7155.33  5.8293389E-01
   7155.67  5.8771005E-01
   7156.00  5.9266193E-01
   7156.33  5.9788366E-01
   7156.67  6.0338284E-01
   7157.00  6.0916534E-01
   7157.33  6.1523373E-01
   7157.67  6.2148289E-01
   7158.00  6.2781198E-01
   7158.33  6.3405032E-01
   7158.67  6.4000685E-01
   7159.00  6.4548606E-01
   7159.33  6.5016159E-01
   7159.67  6.5389718E-01
   7160.00  6.5652293E-01
   7160.33  6.5773031E-01
   7160.67  6.5759535E-01
   7161.00  6.5610866E-01
   7161.33  6.5316296E-01
   7161.67  6.4903182E-01
   7162.00  6.4384216E-01
   7162.33  6.3764934E-01
   7162.67  6.3073748E-01
   7163.00  6.2326026E-01
   7163.33  6.1534693E-01
   7163.67  6.0718814E-01
   7164.00  5.9887789E-01
   7164.33  5.9049864E-01
   7164.67  5.8213056E-01
   7165.00  5.7382298E-01
   7165.33  5.6563421E-01
   7165.67  5.5758637E-01
   7166.00  5.4970313E-01
   7166.33  5.4202704E-01
   7166.67  5.3454849E-01
   7167.00  5.2727633E-01
   7167.33  5.2024477E-01
   7167.67  5.1343156E-01
   7168.00  5.0683915E-01
   7168.33  5.0049800E-01
   7168.67  4.9438627E-01
   7169.00  4.8851410E-01
   7169.33  4.8292061E-01
   7169.67  4.7757773E-01
   7170.00  4.7248918E-01
   7170.33  4.6769577E-01
   7170.67  4.6317966E-01
   7171.00  4.5896464E-01
   7171.33  4.5515027E-01
   7171.67  4.5180655E-01
   7172.00  4.4909132E-01
