    FDMNES
    energy     <xanes>
   7097.00  5.2569728E-03
   7097.33  5.3873064E-03
   7097.67  5.5237868E-03
   7098.00  5.6668393E-03
   7098.33  5.8179013E-03
   7098.67  5.9766933E-03
   7099.00  6.1437952E-03
   7099.33  6.3210929E-03
   7099.67  6.5082999E-03
   7100.00  6.7062277E-03
   7100.33  6.9174121E-03
   7100.67  7.1415876E-03
   7101.00  7.3799231E-03
   7101.33  7.6359296E-03
   7101.67  7.9094231E-03
   7102.00  8.2021468E-03
   7102.33  8.5191339E-03
   7102.67  8.8604149E-03
   7103.00  9.2286990E-03
   7103.33  9.6315119E-03
   7103.67  1.0069396E-02
   7104.00  1.0546781E-02
   7104.33  1.1075517E-02
   7104.67  1.1657357E-02
   7105.00  1.2300011E-02
   7105.33  1.3023414E-02
   7105.67  1.3832280E-02
   7106.00  1.4741167E-02
   7106.33  1.5786629E-02
   7106.67  1.6981218E-02
   7107.00  1.8355593E-02
   7107.33  1.9985220E-02
   7107.67  2.1906210E-02
   7108.00  2.4193993E-02
   7108.33  2.7033830E-02
   7108.67  3.0548631E-02
   7109.00  3.4973858E-02
   7109.33  4.0908701E-02
   7109.67  4.8921585E-02
   7110.00  6.0100996E-02
   7110.33  7.7494396E-02
   7110.67  1.0495285E-01
   7111.00  1.4860886E-01
   7111.33  2.1805844E-01
   7111.67  3.0108216E-01
   7112.00  3.6282040E-01
   7112.33  3.7379954E-01
   7112.67  4.0178116E-01
   7113.00  4.8513926E-01
   7113.33  5.8475783E-01
   7113.67  6.0689909E-01
   7114.00  5.3579745E-01
   7114.33  4.3040658E-01
   7114.67  3.4489088E-01
   7115.00  2.8797602E-01
   7115.33  2.5839729E-01
   7115.67  2.4795672E-01
   7116.00  2.5250338E-01
   7116.33  2.6389898E-01
   7116.67  2.6813586E-01
   7117.00  2.5861231E-01
   7117.33  2.3717232E-01
   7117.67  2.1279126E-01
   7118.00  1.8997312E-01
   7118.33  1.7126629E-01
   7118.67  1.5650456E-01
   7119.00  1.4536268E-01
   7119.33  1.3765125E-01
   7119.67  1.3236842E-01
   7120.00  1.2894432E-01
   7120.33  1.2686055E-01
   7120.67  1.2544491E-01
   7121.00  1.2449895E-01
   7121.33  1.2412674E-01
   7121.67  1.2447301E-01
   7122.00  1.2573611E-01
   7122.33  1.2800745E-01
   7122.67  1.3096502E-01
   7123.00  1.3448204E-01
   7123.33  1.3860641E-01
   7123.67  1.4333717E-01
   7124.00  1.4876566E-01
   7124.33  1.5512439E-01
   7124.67  1.6245661E-01
   7125.00  1.7089432E-01
   7125.33  1.8073772E-01
   7125.67  1.9194071E-01
   7126.00  2.0455097E-01
   7126.33  2.1871026E-01
   7126.67  2.3421258E-01
   7127.00  2.5140424E-01
   7127.33  2.7185014E-01
   7127.67  2.9658284E-01
   7128.00  3.2605645E-01
   7128.33  3.5963562E-01
   7128.67  3.9417022E-01
   7129.00  4.2752489E-01
   7129.33  4.5981100E-01
   7129.67  4.9448222E-01
   7130.00  5.3482190E-01
   7130.33  5.8357697E-01
   7130.67  6.3905982E-01
   7131.00  6.9952099E-01
   7131.33  7.6363358E-01
   7131.67  8.3037114E-01
   7132.00  8.9920927E-01
   7132.33  9.6746914E-01
   7132.67  1.0300682E+00
   7133.00  1.0817999E+00
   7133.33  1.1154852E+00
   7133.67  1.1302243E+00
   7134.00  1.1259502E+00
   7134.33  1.1030486E+00
   7134.67  1.0672396E+00
   7135.00  1.0214149E+00
   7135.33  9.6751514E-01
   7135.67  9.0915606E-01
   7136.00  8.4870512E-01
   7136.33  7.8877521E-01
   7136.67  7.3139393E-01
   7137.00  6.7792052E-01
   7137.33  6.3013541E-01
   7137.67  5.8819122E-01
   7138.00  5.5253006E-01
   7138.33  5.2423331E-01
   7138.67  5.0246044E-01
   7139.00  4.8694761E-01
   7139.33  4.7780959E-01
   7139.67  4.7349533E-01
   7140.00  4.7316926E-01
   7140.33  4.7621382E-01
   7140.67  4.8134658E-01
   7141.00  4.8791488E-01
   7141.33  4.9544065E-01
   7141.67  5.0341360E-01
   7142.00  5.1160502E-01
   7142.33  5.1984751E-01
   7142.67  5.2801524E-01
   7143.00  5.3601485E-01
   7143.33  5.4368686E-01
   7143.67  5.5091786E-01
   7144.00  5.5756085E-01
   7144.33  5.6334444E-01
   7144.67  5.6820754E-01
   7145.00  5.7205070E-01
   7145.33  5.7468297E-01
   7145.67  5.7625518E-01
   7146.00  5.7683461E-01
   7146.33  5.7642745E-01
   7146.67  5.7528058E-01
   7147.00  5.7352613E-01
   7147.33  5.7127736E-01
   7147.67  5.6877348E-01
   7148.00  5.6615733E-01
   7148.33  5.6355827E-01
   7148.67  5.6107445E-01
   7149.00  5.5877356E-01
   7149.33  5.5674359E-01
   7149.67  5.5499195E-01
   7150.00  5.5353853E-01
   7150.33  5.5243655E-01
   7150.67  5.5165178E-01
   7151.00  5.5118423E-01
   7151.33  5.5107436E-01
   7151.67  5.5128628E-01
   7152.00  5.5182583E-01
   7152.33  5.5274755E-01
   7152.67  5.5402876E-01
   7153.00  5.5568931E-01
   7153.33  5.5780166E-01
   7153.67  5.6033121E-01
   7154.00  5.6328034E-01
   7154.33  5.6668429E-01
   7154.67  5.7045457E-01
   7155.00  5.7453904E-01
   7155.33  5.7888374E-01
   7155.67  5.8335619E-01
   7156.00  5.8785529E-01
   7156.33  5.9224485E-01
   7156.67  5.9641511E-01
   7157.00  6.0026956E-01
   7157.33  6.0365976E-01
   7157.67  6.0656106E-01
   7158.00  6.0892558E-01
   7158.33  6.1064606E-01
   7158.67  6.1177752E-01
   7159.00  6.1231794E-01
   7159.33  6.1220218E-01
   7159.67  6.1151795E-01
   7160.00  6.1028155E-01
   7160.33  6.0844783E-01
   7160.67  6.0610404E-01
   7161.00  6.0326578E-01
   7161.33  5.9989130E-01
   7161.67  5.9606069E-01
   7162.00  5.9179320E-01
   7162.33  5.8706121E-01
   7162.67  5.8194159E-01
   7163.00  5.7645687E-01
   7163.33  5.7059155E-01
   7163.67  5.6441477E-01
   7164.00  5.5794901E-01
   7164.33  5.5118475E-01
   7164.67  5.4417520E-01
   7165.00  5.3693455E-01
   7165.33  5.2944901E-01
   7165.67  5.2175894E-01
   7166.00  5.1387716E-01
   7166.33  5.0580013E-01
   7166.67  4.9757442E-01
   7167.00  4.8922764E-01
   7167.33  4.8078900E-01
   7167.67  4.7231846E-01
   7168.00  4.6386768E-01
   7168.33  4.5551331E-01
   7168.67  4.4731314E-01
   7169.00  4.3932760E-01
   7169.33  4.3166208E-01
   7169.67  4.2434661E-01
   7170.00  4.1742876E-01
   7170.33  4.1101187E-01
   7170.67  4.0508584E-01
   7171.00  3.9969262E-01
   7171.33  3.9497012E-01
   7171.67  3.9094647E-01
   7172.00  3.8774643E-01
