    FDMNES
    energy     <xanes>
   7097.00  4.0168453E-03
   7097.33  4.0921294E-03
   7097.67  4.1701074E-03
   7098.00  4.2509337E-03
   7098.33  4.3351865E-03
   7098.67  4.4227034E-03
   7099.00  4.5136906E-03
   7099.33  4.6088810E-03
   7099.67  4.7081051E-03
   7100.00  4.8116463E-03
   7100.33  4.9204606E-03
   7100.67  5.0343808E-03
   7101.00  5.1538116E-03
   7101.33  5.2800431E-03
   7101.67  5.4129342E-03
   7102.00  5.5530871E-03
   7102.33  5.7023198E-03
   7102.67  5.8605701E-03
   7103.00  6.0287830E-03
   7103.33  6.2096602E-03
   7103.67  6.4033439E-03
   7104.00  6.6114151E-03
   7104.33  6.8381694E-03
   7104.67  7.0842628E-03
   7105.00  7.3525626E-03
   7105.33  7.6505156E-03
   7105.67  7.9801253E-03
   7106.00  8.3471579E-03
   7106.33  8.7660780E-03
   7106.67  9.2427692E-03
   7107.00  9.7905484E-03
   7107.33  1.0442224E-02
   7107.67  1.1216735E-02
   7108.00  1.2151486E-02
   7108.33  1.3339626E-02
   7108.67  1.4856389E-02
   7109.00  1.6843413E-02
   7109.33  1.9676673E-02
   7109.67  2.3791995E-02
   7110.00  3.0044683E-02
   7110.33  4.0900171E-02
   7110.67  5.8930474E-02
   7111.00  8.4422470E-02
   7111.33  1.0935038E-01
   7111.67  1.2684148E-01
   7112.00  1.3595852E-01
   7112.33  1.3026157E-01
   7112.67  1.1081757E-01
   7113.00  8.8603303E-02
   7113.33  7.2120407E-02
   7113.67  6.1092279E-02
   7114.00  5.3943122E-02
   7114.33  4.8500104E-02
   7114.67  4.3361509E-02
   7115.00  3.9233593E-02
   7115.33  3.7052471E-02
   7115.67  3.6333517E-02
   7116.00  3.6596434E-02
   7116.33  3.7426547E-02
   7116.67  3.8588613E-02
   7117.00  4.0252929E-02
   7117.33  4.2843659E-02
   7117.67  4.6450775E-02
   7118.00  5.1082793E-02
   7118.33  5.6652255E-02
   7118.67  6.2621094E-02
   7119.00  6.8471298E-02
   7119.33  7.3540095E-02
   7119.67  7.7626304E-02
   7120.00  8.0876569E-02
   7120.33  8.3872615E-02
   7120.67  8.7430115E-02
   7121.00  9.2178359E-02
   7121.33  9.9023116E-02
   7121.67  1.0843244E-01
   7122.00  1.2109809E-01
   7122.33  1.3845190E-01
   7122.67  1.6074365E-01
   7123.00  1.8787474E-01
   7123.33  2.1712992E-01
   7123.67  2.4140053E-01
   7124.00  2.5655374E-01
   7124.33  2.6578464E-01
   7124.67  2.7736308E-01
   7125.00  2.9488036E-01
   7125.33  3.1915173E-01
   7125.67  3.4644143E-01
   7126.00  3.7343272E-01
   7126.33  3.9856243E-01
   7126.67  4.2462411E-01
   7127.00  4.5543246E-01
   7127.33  4.9484534E-01
   7127.67  5.4144341E-01
   7128.00  5.9293494E-01
   7128.33  6.4619109E-01
   7128.67  6.9770728E-01
   7129.00  7.4489162E-01
   7129.33  7.8465242E-01
   7129.67  8.1712971E-01
   7130.00  8.4322275E-01
   7130.33  8.6389127E-01
   7130.67  8.7993258E-01
   7131.00  8.9021411E-01
   7131.33  8.9340227E-01
   7131.67  8.9254602E-01
   7132.00  8.9105136E-01
   7132.33  8.9234562E-01
   7132.67  8.9680570E-01
   7133.00  9.0340631E-01
   7133.33  9.1044251E-01
   7133.67  9.1613013E-01
   7134.00  9.1919073E-01
   7134.33  9.1878975E-01
   7134.67  9.1633662E-01
   7135.00  9.1285586E-01
   7135.33  9.0816976E-01
   7135.67  9.0118869E-01
   7136.00  8.9070059E-01
   7136.33  8.7536867E-01
   7136.67  8.5591490E-01
   7137.00  8.3317727E-01
   7137.33  8.0828385E-01
   7137.67  7.8283060E-01
   7138.00  7.5774067E-01
   7138.33  7.3384479E-01
   7138.67  7.1134321E-01
   7139.00  6.9031378E-01
   7139.33  6.7089408E-01
   7139.67  6.5281536E-01
   7140.00  6.3600967E-01
   7140.33  6.2058462E-01
   7140.67  6.0638076E-01
   7141.00  5.9341691E-01
   7141.33  5.8187937E-01
   7141.67  5.7163983E-01
   7142.00  5.6273076E-01
   7142.33  5.5532732E-01
   7142.67  5.4922883E-01
   7143.00  5.4437403E-01
   7143.33  5.4078442E-01
   7143.67  5.3814348E-01
   7144.00  5.3625655E-01
   7144.33  5.3491683E-01
   7144.67  5.3377318E-01
   7145.00  5.3258134E-01
   7145.33  5.3105823E-01
   7145.67  5.2907044E-01
   7146.00  5.2655468E-01
   7146.33  5.2348044E-01
   7146.67  5.2003813E-01
   7147.00  5.1638386E-01
   7147.33  5.1269981E-01
   7147.67  5.0913291E-01
   7148.00  5.0575298E-01
   7148.33  5.0260668E-01
   7148.67  4.9964328E-01
   7149.00  4.9682756E-01
   7149.33  4.9413637E-01
   7149.67  4.9153128E-01
   7150.00  4.8900387E-01
   7150.33  4.8656655E-01
   7150.67  4.8421623E-01
   7151.00  4.8195425E-01
   7151.33  4.7977674E-01
   7151.67  4.7763739E-01
   7152.00  4.7548210E-01
   7152.33  4.7320476E-01
   7152.67  4.7069729E-01
   7153.00  4.6784574E-01
   7153.33  4.6446501E-01
   7153.67  4.6049702E-01
   7154.00  4.5585060E-01
   7154.33  4.5033749E-01
   7154.67  4.4398190E-01
   7155.00  4.3674147E-01
   7155.33  4.2848003E-01
   7155.67  4.1932189E-01
   7156.00  4.0930679E-01
   7156.33  3.9842076E-01
   7156.67  3.8688152E-01
   7157.00  3.7482059E-01
   7157.33  3.6237833E-01
   7157.67  3.4980710E-01
   7158.00  3.3729972E-01
   7158.33  3.2512055E-01
   7158.67  3.1345583E-01
   7159.00  3.0248564E-01
   7159.33  2.9250952E-01
   7159.67  2.8358033E-01
   7160.00  2.7581712E-01
   7160.33  2.6949360E-01
   7160.67  2.6453764E-01
   7161.00  2.6100593E-01
   7161.33  2.5912158E-01
   7161.67  2.5869935E-01
   7162.00  2.5969435E-01
   7162.33  2.6216979E-01
   7162.67  2.6582410E-01
   7163.00  2.7051657E-01
   7163.33  2.7616346E-01
   7163.67  2.8246550E-01
   7164.00  2.8926704E-01
   7164.33  2.9644447E-01
   7164.67  3.0381197E-01
   7165.00  3.1126457E-01
   7165.33  3.1870001E-01
   7165.67  3.2604211E-01
   7166.00  3.3324107E-01
   7166.33  3.4023441E-01
   7166.67  3.4702118E-01
   7167.00  3.5359644E-01
   7167.33  3.5995153E-01
   7167.67  3.6614475E-01
   7168.00  3.7221371E-01
   7168.33  3.7819575E-01
   7168.67  3.8414290E-01
   7169.00  3.9008196E-01
   7169.33  3.9602890E-01
   7169.67  4.0197739E-01
   7170.00  4.0790528E-01
   7170.33  4.1375838E-01
   7170.67  4.1947579E-01
   7171.00  4.2497463E-01
   7171.33  4.3006930E-01
   7171.67  4.3458097E-01
   7172.00  4.3824167E-01
