    FDMNES
    energy     <xanes>
   7097.00  5.5076324E-03
   7097.33  5.6593259E-03
   7097.67  5.8189971E-03
   7098.00  5.9872556E-03
   7098.33  6.1660659E-03
   7098.67  6.3551472E-03
   7099.00  6.5553552E-03
   7099.33  6.7693428E-03
   7099.67  6.9968547E-03
   7100.00  7.2391272E-03
   7100.33  7.4998485E-03
   7100.67  7.7788539E-03
   7101.00  8.0779919E-03
   7101.33  8.4025693E-03
   7101.67  8.7526543E-03
   7102.00  9.1311246E-03
   7102.33  9.5459385E-03
   7102.67  9.9977120E-03
   7103.00  1.0491151E-02
   7103.33  1.1038809E-02
   7103.67  1.1642578E-02
   7104.00  1.2310634E-02
   7104.33  1.3064071E-02
   7104.67  1.3907859E-02
   7105.00  1.4857329E-02
   7105.33  1.5950929E-02
   7105.67  1.7201575E-02
   7106.00  1.8641055E-02
   7106.33  2.0347446E-02
   7106.67  2.2356589E-02
   7107.00  2.4744057E-02
   7107.33  2.7694239E-02
   7107.67  3.1321189E-02
   7108.00  3.5843811E-02
   7108.33  4.1806900E-02
   7108.67  4.9670455E-02
   7109.00  6.0294850E-02
   7109.33  7.5980213E-02
   7109.67  9.9482975E-02
   7110.00  1.3623596E-01
   7110.33  2.0200569E-01
   7110.67  3.1301397E-01
   7111.00  4.6727173E-01
   7111.33  5.9225700E-01
   7111.67  6.3326864E-01
   7112.00  5.9999290E-01
   7112.33  5.3053116E-01
   7112.67  4.6053993E-01
   7113.00  4.0053996E-01
   7113.33  3.5384699E-01
   7113.67  3.1715929E-01
   7114.00  2.8847080E-01
   7114.33  2.6645918E-01
   7114.67  2.4882735E-01
   7115.00  2.3460521E-01
   7115.33  2.2327986E-01
   7115.67  2.1388600E-01
   7116.00  2.0593346E-01
   7116.33  1.9893941E-01
   7116.67  1.9220391E-01
   7117.00  1.8537184E-01
   7117.33  1.7840061E-01
   7117.67  1.7158685E-01
   7118.00  1.6514217E-01
   7118.33  1.5912538E-01
   7118.67  1.5334472E-01
   7119.00  1.4776896E-01
   7119.33  1.4277567E-01
   7119.67  1.3891979E-01
   7120.00  1.3664352E-01
   7120.33  1.3625502E-01
   7120.67  1.3729991E-01
   7121.00  1.3949113E-01
   7121.33  1.4265482E-01
   7121.67  1.4651477E-01
   7122.00  1.5102216E-01
   7122.33  1.5628382E-01
   7122.67  1.6228731E-01
   7123.00  1.6911316E-01
   7123.33  1.7698449E-01
   7123.67  1.8590045E-01
   7124.00  1.9596088E-01
   7124.33  2.0743817E-01
   7124.67  2.2028952E-01
   7125.00  2.3461285E-01
   7125.33  2.5071987E-01
   7125.67  2.6850014E-01
   7126.00  2.8794942E-01
   7126.33  3.0920820E-01
   7126.67  3.3202477E-01
   7127.00  3.5629846E-01
   7127.33  3.8200027E-01
   7127.67  4.0874842E-01
   7128.00  4.3630766E-01
   7128.33  4.6440949E-01
   7128.67  4.9261665E-01
   7129.00  5.2057880E-01
   7129.33  5.4779095E-01
   7129.67  5.7391343E-01
   7130.00  5.9858793E-01
   7130.33  6.2117930E-01
   7130.67  6.4154009E-01
   7131.00  6.5937078E-01
   7131.33  6.7400823E-01
   7131.67  6.8555805E-01
   7132.00  6.9386738E-01
   7132.33  6.9842718E-01
   7132.67  6.9966104E-01
   7133.00  6.9764490E-01
   7133.33  6.9211470E-01
   7133.67  6.8358757E-01
   7134.00  6.7214909E-01
   7134.33  6.5750439E-01
   7134.67  6.4005695E-01
   7135.00  6.1989095E-01
   7135.33  5.9694445E-01
   7135.67  5.7203410E-01
   7136.00  5.4584099E-01
   7136.33  5.1936100E-01
   7136.67  4.9376546E-01
   7137.00  4.6999211E-01
   7137.33  4.4931332E-01
   7137.67  4.3207851E-01
   7138.00  4.1868225E-01
   7138.33  4.0986492E-01
   7138.67  4.0511761E-01
   7139.00  4.0427217E-01
   7139.33  4.0741302E-01
   7139.67  4.1361599E-01
   7140.00  4.2241911E-01
   7140.33  4.3354213E-01
   7140.67  4.4623883E-01
   7141.00  4.6015671E-01
   7141.33  4.7508950E-01
   7141.67  4.9069861E-01
   7142.00  5.0684983E-01
   7142.33  5.2348445E-01
   7142.67  5.4045372E-01
   7143.00  5.5767137E-01
   7143.33  5.7503748E-01
   7143.67  5.9239825E-01
   7144.00  6.0962198E-01
   7144.33  6.2651167E-01
   7144.67  6.4294595E-01
   7145.00  6.5879534E-01
   7145.33  6.7383355E-01
   7145.67  6.8803361E-01
   7146.00  7.0131115E-01
   7146.33  7.1346266E-01
   7146.67  7.2455602E-01
   7147.00  7.3456004E-01
   7147.33  7.4332286E-01
   7147.67  7.5098747E-01
   7148.00  7.5756950E-01
   7148.33  7.6296750E-01
   7148.67  7.6735367E-01
   7149.00  7.7076909E-01
   7149.33  7.7315211E-01
   7149.67  7.7467367E-01
   7150.00  7.7538300E-01
   7150.33  7.7524325E-01
   7150.67  7.7440474E-01
   7151.00  7.7291325E-01
   7151.33  7.7074368E-01
   7151.67  7.6801784E-01
   7152.00  7.6477254E-01
   7152.33  7.6098737E-01
   7152.67  7.5675893E-01
   7153.00  7.5211668E-01
   7153.33  7.4704602E-01
   7153.67  7.4162675E-01
   7154.00  7.3588412E-01
   7154.33  7.2980216E-01
   7154.67  7.2343454E-01
   7155.00  7.1679442E-01
   7155.33  7.0986519E-01
   7155.67  7.0269477E-01
   7156.00  6.9529627E-01
   7156.33  6.8765667E-01
   7156.67  6.7981632E-01
   7157.00  6.7178725E-01
   7157.33  6.6356058E-01
   7157.67  6.5517017E-01
   7158.00  6.4662637E-01
   7158.33  6.3792373E-01
   7158.67  6.2909255E-01
   7159.00  6.2014362E-01
   7159.33  6.1107545E-01
   7159.67  6.0191345E-01
   7160.00  5.9266917E-01
   7160.33  5.8334786E-01
   7160.67  5.7397184E-01
   7161.00  5.6455266E-01
   7161.33  5.5509979E-01
   7161.67  5.4563106E-01
   7162.00  5.3615960E-01
   7162.33  5.2670250E-01
   7162.67  5.1727339E-01
   7163.00  5.0788494E-01
   7163.33  4.9855818E-01
   7163.67  4.8930092E-01
   7164.00  4.8012773E-01
   7164.33  4.7107190E-01
   7164.67  4.6214158E-01
   7165.00  4.5335078E-01
   7165.33  4.4473309E-01
   7165.67  4.3628356E-01
   7166.00  4.2801550E-01
   7166.33  4.1997283E-01
   7166.67  4.1214920E-01
   7167.00  4.0456020E-01
   7167.33  3.9725401E-01
   7167.67  3.9021349E-01
   7168.00  3.8344965E-01
   7168.33  3.7700990E-01
   7168.67  3.7086734E-01
   7169.00  3.6502742E-01
   7169.33  3.5953222E-01
   7169.67  3.5434548E-01
   7170.00  3.4946768E-01
   7170.33  3.4493702E-01
   7170.67  3.4071861E-01
   7171.00  3.3682506E-01
   7171.33  3.3333962E-01
   7171.67  3.3030248E-01
   7172.00  3.2783292E-01
