    FDMNES
    energy     <xanes>
   7097.00  5.2909229E-03
   7097.33  5.4231599E-03
   7097.67  5.5617043E-03
   7098.00  5.7069980E-03
   7098.33  5.8605259E-03
   7098.67  6.0220094E-03
   7099.00  6.1920541E-03
   7099.33  6.3726159E-03
   7099.67  6.5634132E-03
   7100.00  6.7652977E-03
   7100.33  6.9809126E-03
   7100.67  7.2100050E-03
   7101.00  7.4538094E-03
   7101.33  7.7160083E-03
   7101.67  7.9964466E-03
   7102.00  8.2969800E-03
   7102.33  8.6229274E-03
   7102.67  8.9743854E-03
   7103.00  9.3542656E-03
   7103.33  9.7705975E-03
   7103.67  1.0224075E-02
   7104.00  1.0719517E-02
   7104.33  1.1269727E-02
   7104.67  1.1876820E-02
   7105.00  1.2549321E-02
   7105.33  1.3309132E-02
   7105.67  1.4161904E-02
   7106.00  1.5124094E-02
   7106.33  1.6236831E-02
   7106.67  1.7515387E-02
   7107.00  1.8995573E-02
   7107.33  2.0765377E-02
   7107.67  2.2870382E-02
   7108.00  2.5403337E-02
   7108.33  2.8593341E-02
   7108.67  3.2606798E-02
   7109.00  3.7760360E-02
   7109.33  4.4878806E-02
   7109.67  5.4837971E-02
   7110.00  6.9346407E-02
   7110.33  9.3291224E-02
   7110.67  1.3215592E-01
   7111.00  1.8900932E-01
   7111.33  2.5034602E-01
   7111.67  3.0006208E-01
   7112.00  3.4061669E-01
   7112.33  3.9189486E-01
   7112.67  4.6655495E-01
   7113.00  5.5270922E-01
   7113.33  5.8941429E-01
   7113.67  5.4927004E-01
   7114.00  4.6320902E-01
   7114.33  3.7849596E-01
   7114.67  3.1268039E-01
   7115.00  2.6745902E-01
   7115.33  2.4317347E-01
   7115.67  2.3415608E-01
   7116.00  2.3629377E-01
   7116.33  2.4114030E-01
   7116.67  2.3810046E-01
   7117.00  2.2469815E-01
   7117.33  2.0572352E-01
   7117.67  1.8760242E-01
   7118.00  1.7250371E-01
   7118.33  1.6112896E-01
   7118.67  1.5233189E-01
   7119.00  1.4531908E-01
   7119.33  1.3948910E-01
   7119.67  1.3436105E-01
   7120.00  1.3000885E-01
   7120.33  1.2697812E-01
   7120.67  1.2543519E-01
   7121.00  1.2534212E-01
   7121.33  1.2664223E-01
   7121.67  1.2895156E-01
   7122.00  1.3201576E-01
   7122.33  1.3564326E-01
   7122.67  1.3969798E-01
   7123.00  1.4424334E-01
   7123.33  1.4951572E-01
   7123.67  1.5562920E-01
   7124.00  1.6275333E-01
   7124.33  1.7122178E-01
   7124.67  1.8108605E-01
   7125.00  1.9258688E-01
   7125.33  2.0638499E-01
   7125.67  2.2267536E-01
   7126.00  2.4169473E-01
   7126.33  2.6358730E-01
   7126.67  2.8715751E-01
   7127.00  3.1125439E-01
   7127.33  3.3481451E-01
   7127.67  3.5816571E-01
   7128.00  3.8277575E-01
   7128.33  4.1168022E-01
   7128.67  4.4672949E-01
   7129.00  4.8878418E-01
   7129.33  5.3746993E-01
   7129.67  5.8909116E-01
   7130.00  6.4050122E-01
   7130.33  6.8797670E-01
   7130.67  7.3035479E-01
   7131.00  7.6861484E-01
   7131.33  8.0673005E-01
   7131.67  8.4957745E-01
   7132.00  8.9931353E-01
   7132.33  9.5475592E-01
   7132.67  1.0091697E+00
   7133.00  1.0551724E+00
   7133.33  1.0817949E+00
   7133.67  1.0854604E+00
   7134.00  1.0658576E+00
   7134.33  1.0251967E+00
   7134.67  9.7258938E-01
   7135.00  9.1338776E-01
   7135.33  8.5203358E-01
   7135.67  7.9189302E-01
   7136.00  7.3474382E-01
   7136.33  6.8251586E-01
   7136.67  6.3558400E-01
   7137.00  5.9451956E-01
   7137.33  5.6060537E-01
   7137.67  5.3333774E-01
   7138.00  5.1274986E-01
   7138.33  4.9931311E-01
   7138.67  4.9143765E-01
   7139.00  4.8807164E-01
   7139.33  4.8809096E-01
   7139.67  4.8962689E-01
   7140.00  4.9165755E-01
   7140.33  4.9344643E-01
   7140.67  4.9482132E-01
   7141.00  4.9589960E-01
   7141.33  4.9695990E-01
   7141.67  4.9828142E-01
   7142.00  5.0002591E-01
   7142.33  5.0232541E-01
   7142.67  5.0506776E-01
   7143.00  5.0813219E-01
   7143.33  5.1133478E-01
   7143.67  5.1443370E-01
   7144.00  5.1724089E-01
   7144.33  5.1951469E-01
   7144.67  5.2119351E-01
   7145.00  5.2223254E-01
   7145.33  5.2257162E-01
   7145.67  5.2237307E-01
   7146.00  5.2175173E-01
   7146.33  5.2084168E-01
   7146.67  5.1985664E-01
   7147.00  5.1895791E-01
   7147.33  5.1836134E-01
   7147.67  5.1819215E-01
   7148.00  5.1857146E-01
   7148.33  5.1970611E-01
   7148.67  5.2160961E-01
   7149.00  5.2434125E-01
   7149.33  5.2804662E-01
   7149.67  5.3261538E-01
   7150.00  5.3801007E-01
   7150.33  5.4423935E-01
   7150.67  5.5108616E-01
   7151.00  5.5841649E-01
   7151.33  5.6609090E-01
   7151.67  5.7388399E-01
   7152.00  5.8164050E-01
   7152.33  5.8917698E-01
   7152.67  5.9639423E-01
   7153.00  6.0321913E-01
   7153.33  6.0954915E-01
   7153.67  6.1542356E-01
   7154.00  6.2084395E-01
   7154.33  6.2576070E-01
   7154.67  6.3022648E-01
   7155.00  6.3422235E-01
   7155.33  6.3764413E-01
   7155.67  6.4050074E-01
   7156.00  6.4273988E-01
   7156.33  6.4422037E-01
   7156.67  6.4498347E-01
   7157.00  6.4500836E-01
   7157.33  6.4419967E-01
   7157.67  6.4267011E-01
   7158.00  6.4045285E-01
   7158.33  6.3752123E-01
   7158.67  6.3401717E-01
   7159.00  6.2999862E-01
   7159.33  6.2547927E-01
   7159.67  6.2058327E-01
   7160.00  6.1536607E-01
   7160.33  6.0985280E-01
   7160.67  6.0412910E-01
   7161.00  5.9823683E-01
   7161.33  5.9220318E-01
   7161.67  5.8607635E-01
   7162.00  5.7987339E-01
   7162.33  5.7359498E-01
   7162.67  5.6724942E-01
   7163.00  5.6083124E-01
   7163.33  5.5431973E-01
   7163.67  5.4771311E-01
   7164.00  5.4100084E-01
   7164.33  5.3415757E-01
   7164.67  5.2719061E-01
   7165.00  5.2009830E-01
   7165.33  5.1287074E-01
   7165.67  5.0553579E-01
   7166.00  4.9811015E-01
   7166.33  4.9061186E-01
   7166.67  4.8308142E-01
   7167.00  4.7555012E-01
   7167.33  4.6806249E-01
   7167.67  4.6065697E-01
   7168.00  4.5337360E-01
   7168.33  4.4628450E-01
   7168.67  4.3941702E-01
   7169.00  4.3280874E-01
   7169.33  4.2653639E-01
   7169.67  4.2059762E-01
   7170.00  4.1501939E-01
   7170.33  4.0987870E-01
   7170.67  4.0515378E-01
   7171.00  4.0086958E-01
   7171.33  3.9712734E-01
   7171.67  3.9393962E-01
   7172.00  3.9139847E-01
