    FDMNES
    energy     <xanes>
   7097.00  4.9956249E-03
   7097.33  5.1146817E-03
   7097.67  5.2391365E-03
   7098.00  5.3693527E-03
   7098.33  5.5065761E-03
   7098.67  5.6505481E-03
   7099.00  5.8017627E-03
   7099.33  5.9618457E-03
   7099.67  6.1305312E-03
   7100.00  6.3085084E-03
   7100.33  6.4979542E-03
   7100.67  6.6986193E-03
   7101.00  6.9114958E-03
   7101.33  7.1395887E-03
   7101.67  7.3827191E-03
   7102.00  7.6423692E-03
   7102.33  7.9228430E-03
   7102.67  8.2241521E-03
   7103.00  8.5486124E-03
   7103.33  8.9026746E-03
   7103.67  9.2868165E-03
   7104.00  9.7048617E-03
   7104.33  1.0167048E-02
   7104.67  1.0674981E-02
   7105.00  1.1235436E-02
   7105.33  1.1865904E-02
   7105.67  1.2570852E-02
   7106.00  1.3363447E-02
   7106.33  1.4276687E-02
   7106.67  1.5322990E-02
   7107.00  1.6531419E-02
   7107.33  1.7973556E-02
   7107.67  1.9687574E-02
   7108.00  2.1750743E-02
   7108.33  2.4354840E-02
   7108.67  2.7644921E-02
   7109.00  3.1896951E-02
   7109.33  3.7838250E-02
   7109.67  4.6278484E-02
   7110.00  5.8805933E-02
   7110.33  7.9925529E-02
   7110.67  1.1375535E-01
   7111.00  1.5869169E-01
   7111.33  2.0120092E-01
   7111.67  2.4304221E-01
   7112.00  2.8642823E-01
   7112.33  3.2553743E-01
   7112.67  3.5636840E-01
   7113.00  3.6814044E-01
   7113.33  3.3182753E-01
   7113.67  2.7277280E-01
   7114.00  2.2065809E-01
   7114.33  1.9101517E-01
   7114.67  1.8114133E-01
   7115.00  1.8984006E-01
   7115.33  2.1990305E-01
   7115.67  2.6496447E-01
   7116.00  3.1068982E-01
   7116.33  3.4184932E-01
   7116.67  3.5541375E-01
   7117.00  3.4180747E-01
   7117.33  3.0869057E-01
   7117.67  2.7882909E-01
   7118.00  2.5830495E-01
   7118.33  2.4638995E-01
   7118.67  2.3944267E-01
   7119.00  2.3596327E-01
   7119.33  2.3411500E-01
   7119.67  2.3153301E-01
   7120.00  2.2635676E-01
   7120.33  2.1667340E-01
   7120.67  2.0509345E-01
   7121.00  1.9528495E-01
   7121.33  1.9020147E-01
   7121.67  1.8945768E-01
   7122.00  1.9266620E-01
   7122.33  2.0029633E-01
   7122.67  2.1177271E-01
   7123.00  2.2639591E-01
   7123.33  2.4292648E-01
   7123.67  2.5977780E-01
   7124.00  2.7652169E-01
   7124.33  2.9341560E-01
   7124.67  3.1011556E-01
   7125.00  3.2567106E-01
   7125.33  3.3911405E-01
   7125.67  3.5082909E-01
   7126.00  3.6119244E-01
   7126.33  3.7012865E-01
   7126.67  3.7764219E-01
   7127.00  3.8414300E-01
   7127.33  3.9101861E-01
   7127.67  3.9945717E-01
   7128.00  4.1000520E-01
   7128.33  4.2391543E-01
   7128.67  4.4204421E-01
   7129.00  4.6464939E-01
   7129.33  4.9027701E-01
   7129.67  5.1454192E-01
   7130.00  5.3337125E-01
   7130.33  5.4325620E-01
   7130.67  5.4686107E-01
   7131.00  5.4784853E-01
   7131.33  5.5049316E-01
   7131.67  5.5690298E-01
   7132.00  5.6742773E-01
   7132.33  5.8141358E-01
   7132.67  5.9659068E-01
   7133.00  6.1137906E-01
   7133.33  6.2462199E-01
   7133.67  6.3659366E-01
   7134.00  6.4759489E-01
   7134.33  6.5679331E-01
   7134.67  6.6260134E-01
   7135.00  6.6373153E-01
   7135.33  6.5972643E-01
   7135.67  6.5275853E-01
   7136.00  6.4444448E-01
   7136.33  6.3608022E-01
   7136.67  6.2822949E-01
   7137.00  6.2101861E-01
   7137.33  6.1463815E-01
   7137.67  6.0920563E-01
   7138.00  6.0494095E-01
   7138.33  6.0215977E-01
   7138.67  6.0065330E-01
   7139.00  6.0025591E-01
   7139.33  6.0082645E-01
   7139.67  6.0202373E-01
   7140.00  6.0368244E-01
   7140.33  6.0568805E-01
   7140.67  6.0791246E-01
   7141.00  6.1034762E-01
   7141.33  6.1306538E-01
   7141.67  6.1605725E-01
   7142.00  6.1927486E-01
   7142.33  6.2256171E-01
   7142.67  6.2564727E-01
   7143.00  6.2826560E-01
   7143.33  6.3002061E-01
   7143.67  6.3076985E-01
   7144.00  6.3038629E-01
   7144.33  6.2868301E-01
   7144.67  6.2588730E-01
   7145.00  6.2215970E-01
   7145.33  6.1769029E-01
   7145.67  6.1288834E-01
   7146.00  6.0804112E-01
   7146.33  6.0348058E-01
   7146.67  5.9940526E-01
   7147.00  5.9594287E-01
   7147.33  5.9324285E-01
   7147.67  5.9121262E-01
   7148.00  5.8981167E-01
   7148.33  5.8904271E-01
   7148.67  5.8876250E-01
   7149.00  5.8891064E-01
   7149.33  5.8946514E-01
   7149.67  5.9031371E-01
   7150.00  5.9139734E-01
   7150.33  5.9267135E-01
   7150.67  5.9405107E-01
   7151.00  5.9548352E-01
   7151.33  5.9691143E-01
   7151.67  5.9828836E-01
   7152.00  5.9958551E-01
   7152.33  6.0077332E-01
   7152.67  6.0186458E-01
   7153.00  6.0287304E-01
   7153.33  6.0381866E-01
   7153.67  6.0474008E-01
   7154.00  6.0566273E-01
   7154.33  6.0661179E-01
   7154.67  6.0759394E-01
   7155.00  6.0860518E-01
   7155.33  6.0962758E-01
   7155.67  6.1062569E-01
   7156.00  6.1155976E-01
   7156.33  6.1235863E-01
   7156.67  6.1297105E-01
   7157.00  6.1333150E-01
   7157.33  6.1330985E-01
   7157.67  6.1284884E-01
   7158.00  6.1185520E-01
   7158.33  6.1013711E-01
   7158.67  6.0767242E-01
   7159.00  6.0439069E-01
   7159.33  6.0013424E-01
   7159.67  5.9501003E-01
   7160.00  5.8906057E-01
   7160.33  5.8228197E-01
   7160.67  5.7488473E-01
   7161.00  5.6698667E-01
   7161.33  5.5868695E-01
   7161.67  5.5016894E-01
   7162.00  5.4153520E-01
   7162.33  5.3288094E-01
   7162.67  5.2428768E-01
   7163.00  5.1581039E-01
   7163.33  5.0752235E-01
   7163.67  4.9944979E-01
   7164.00  4.9162671E-01
   7164.33  4.8411479E-01
   7164.67  4.7689682E-01
   7165.00  4.6998013E-01
   7165.33  4.6339961E-01
   7165.67  4.5710508E-01
   7166.00  4.5107826E-01
   7166.33  4.4531827E-01
   7166.67  4.3976518E-01
   7167.00  4.3439941E-01
   7167.33  4.2922504E-01
   7167.67  4.2420864E-01
   7168.00  4.1934667E-01
   7168.33  4.1466386E-01
   7168.67  4.1015561E-01
   7169.00  4.0584293E-01
   7169.33  4.0178473E-01
   7169.67  3.9798645E-01
   7170.00  3.9447728E-01
   7170.33  3.9132953E-01
   7170.67  3.8853084E-01
   7171.00  3.8609978E-01
   7171.33  3.8409713E-01
   7171.67  3.8247675E-01
   7172.00  3.8122556E-01
