    FDMNES
    energy     <xanes>
   7097.00  4.6898431E-03
   7097.33  4.7986239E-03
   7097.67  4.9122490E-03
   7098.00  5.0310370E-03
   7098.33  5.1560933E-03
   7098.67  5.2871747E-03
   7099.00  5.4247101E-03
   7099.33  5.5701297E-03
   7099.67  5.7231770E-03
   7100.00  5.8844430E-03
   7100.33  6.0558211E-03
   7100.67  6.2370567E-03
   7101.00  6.4289865E-03
   7101.33  6.6341852E-03
   7101.67  6.8524351E-03
   7102.00  7.0849587E-03
   7102.33  7.3353711E-03
   7102.67  7.6035676E-03
   7103.00  7.8914044E-03
   7103.33  8.2041565E-03
   7103.67  8.5420025E-03
   7104.00  8.9078951E-03
   7104.33  9.3099048E-03
   7104.67  9.7488874E-03
   7105.00  1.0229821E-02
   7105.33  1.0765821E-02
   7105.67  1.1359390E-02
   7106.00  1.2019579E-02
   7106.33  1.2769471E-02
   7106.67  1.3615850E-02
   7107.00  1.4576972E-02
   7107.33  1.5698257E-02
   7107.67  1.6999106E-02
   7108.00  1.8522401E-02
   7108.33  2.0374079E-02
   7108.67  2.2619574E-02
   7109.00  2.5387985E-02
   7109.33  2.9009749E-02
   7109.67  3.3793446E-02
   7110.00  4.0341252E-02
   7110.33  5.0348207E-02
   7110.67  6.5749673E-02
   7111.00  8.8186943E-02
   7111.33  1.1432842E-01
   7111.67  1.4365455E-01
   7112.00  1.8162301E-01
   7112.33  2.0387079E-01
   7112.67  2.1414313E-01
   7113.00  2.5491691E-01
   7113.33  3.6673643E-01
   7113.67  5.5225119E-01
   7114.00  7.1255763E-01
   7114.33  6.3281334E-01
   7114.67  4.8408342E-01
   7115.00  3.9726284E-01
   7115.33  3.4954689E-01
   7115.67  2.8679885E-01
   7116.00  2.2271084E-01
   7116.33  1.8277610E-01
   7116.67  1.6303154E-01
   7117.00  1.5028478E-01
   7117.33  1.3323238E-01
   7117.67  1.1881239E-01
   7118.00  1.0961382E-01
   7118.33  1.0471201E-01
   7118.67  1.0242699E-01
   7119.00  1.0251902E-01
   7119.33  1.0522121E-01
   7119.67  1.1066468E-01
   7120.00  1.1940048E-01
   7120.33  1.3129913E-01
   7120.67  1.4446969E-01
   7121.00  1.5599076E-01
   7121.33  1.6155148E-01
   7121.67  1.6196363E-01
   7122.00  1.6028343E-01
   7122.33  1.6003162E-01
   7122.67  1.6271667E-01
   7123.00  1.6818000E-01
   7123.33  1.7595630E-01
   7123.67  1.8592789E-01
   7124.00  1.9875934E-01
   7124.33  2.1574350E-01
   7124.67  2.3706244E-01
   7125.00  2.6250354E-01
   7125.33  2.9119133E-01
   7125.67  3.2135840E-01
   7126.00  3.5200807E-01
   7126.33  3.8334913E-01
   7126.67  4.1618664E-01
   7127.00  4.4824367E-01
   7127.33  4.7039808E-01
   7127.67  4.7838678E-01
   7128.00  4.7578648E-01
   7128.33  4.6953201E-01
   7128.67  4.6391744E-01
   7129.00  4.5966504E-01
   7129.33  4.5645489E-01
   7129.67  4.5320599E-01
   7130.00  4.4904034E-01
   7130.33  4.4308561E-01
   7130.67  4.3545070E-01
   7131.00  4.2641247E-01
   7131.33  4.1640154E-01
   7131.67  4.0653174E-01
   7132.00  3.9836590E-01
   7132.33  3.9444280E-01
   7132.67  3.9512922E-01
   7133.00  3.9972811E-01
   7133.33  4.0685218E-01
   7133.67  4.1463144E-01
   7134.00  4.2227407E-01
   7134.33  4.2956170E-01
   7134.67  4.3679549E-01
   7135.00  4.4420927E-01
   7135.33  4.5185924E-01
   7135.67  4.5948925E-01
   7136.00  4.6686160E-01
   7136.33  4.7384301E-01
   7136.67  4.8065498E-01
   7137.00  4.8757201E-01
   7137.33  4.9491902E-01
   7137.67  5.0274111E-01
   7138.00  5.1095893E-01
   7138.33  5.1944240E-01
   7138.67  5.2804541E-01
   7139.00  5.3674774E-01
   7139.33  5.4561296E-01
   7139.67  5.5463181E-01
   7140.00  5.6370578E-01
   7140.33  5.7257061E-01
   7140.67  5.8096549E-01
   7141.00  5.8870720E-01
   7141.33  5.9562766E-01
   7141.67  6.0186403E-01
   7142.00  6.0751118E-01
   7142.33  6.1269412E-01
   7142.67  6.1767646E-01
   7143.00  6.2263974E-01
   7143.33  6.2779909E-01
   7143.67  6.3327798E-01
   7144.00  6.3913566E-01
   7144.33  6.4538352E-01
   7144.67  6.5183164E-01
   7145.00  6.5827956E-01
   7145.33  6.6442438E-01
   7145.67  6.7006859E-01
   7146.00  6.7510220E-01
   7146.33  6.7945193E-01
   7146.67  6.8330181E-01
   7147.00  6.8676423E-01
   7147.33  6.8987228E-01
   7147.67  6.9266064E-01
   7148.00  6.9509537E-01
   7148.33  6.9708647E-01
   7148.67  6.9865964E-01
   7149.00  6.9981334E-01
   7149.33  7.0051687E-01
   7149.67  7.0086167E-01
   7150.00  7.0090173E-01
   7150.33  7.0069496E-01
   7150.67  7.0037464E-01
   7151.00  7.0004058E-01
   7151.33  6.9981889E-01
   7151.67  6.9979190E-01
   7152.00  7.0001400E-01
   7152.33  7.0054192E-01
   7152.67  7.0131878E-01
   7153.00  7.0229332E-01
   7153.33  7.0339770E-01
   7153.67  7.0453027E-01
   7154.00  7.0562728E-01
   7154.33  7.0663032E-01
   7154.67  7.0753542E-01
   7155.00  7.0835374E-01
   7155.33  7.0910536E-01
   7155.67  7.0982316E-01
   7156.00  7.1051232E-01
   7156.33  7.1113299E-01
   7156.67  7.1160128E-01
   7157.00  7.1178101E-01
   7157.33  7.1137858E-01
   7157.67  7.1017109E-01
   7158.00  7.0789193E-01
   7158.33  7.0407577E-01
   7158.67  6.9867259E-01
   7159.00  6.9159276E-01
   7159.33  6.8266590E-01
   7159.67  6.7227457E-01
   7160.00  6.6065978E-01
   7160.33  6.4805015E-01
   7160.67  6.3491092E-01
   7161.00  6.2152804E-01
   7161.33  6.0819341E-01
   7161.67  5.9512689E-01
   7162.00  5.8247227E-01
   7162.33  5.7040856E-01
   7162.67  5.5893292E-01
   7163.00  5.4806631E-01
   7163.33  5.3787653E-01
   7163.67  5.2825322E-01
   7164.00  5.1915052E-01
   7164.33  5.1056105E-01
   7164.67  5.0235979E-01
   7165.00  4.9449137E-01
   7165.33  4.8693364E-01
   7165.67  4.7960788E-01
   7166.00  4.7248845E-01
   7166.33  4.6558419E-01
   7166.67  4.5887143E-01
   7167.00  4.5236116E-01
   7167.33  4.4610302E-01
   7167.67  4.4009702E-01
   7168.00  4.3436953E-01
   7168.33  4.2898853E-01
   7168.67  4.2394293E-01
   7169.00  4.1925427E-01
   7169.33  4.1499023E-01
   7169.67  4.1111716E-01
   7170.00  4.0764070E-01
   7170.33  4.0461004E-01
   7170.67  4.0196866E-01
   7171.00  3.9970581E-01
   7171.33  3.9784960E-01
   7171.67  3.9633606E-01
   7172.00  3.9514711E-01
