    FDMNES
    energy     <xanes>
   7097.00  4.4952372E-03
   7097.33  4.5982090E-03
   7097.67  4.7057565E-03
   7098.00  4.8181849E-03
   7098.33  4.9365460E-03
   7098.67  5.0606170E-03
   7099.00  5.1908120E-03
   7099.33  5.3285001E-03
   7099.67  5.4734506E-03
   7100.00  5.6262396E-03
   7100.33  5.7886943E-03
   7100.67  5.9605948E-03
   7101.00  6.1427666E-03
   7101.33  6.3377213E-03
   7101.67  6.5452916E-03
   7102.00  6.7667031E-03
   7102.33  7.0055332E-03
   7102.67  7.2617595E-03
   7103.00  7.5372820E-03
   7103.33  7.8374219E-03
   7103.67  8.1625133E-03
   7104.00  8.5156614E-03
   7104.33  8.9052255E-03
   7104.67  9.3324019E-03
   7105.00  9.8026214E-03
   7105.33  1.0329981E-02
   7105.67  1.0917851E-02
   7106.00  1.1576626E-02
   7106.33  1.2332481E-02
   7106.67  1.3194798E-02
   7107.00  1.4186165E-02
   7107.33  1.5362409E-02
   7107.67  1.6752404E-02
   7108.00  1.8415524E-02
   7108.33  2.0499619E-02
   7108.67  2.3115626E-02
   7109.00  2.6476566E-02
   7109.33  3.1147909E-02
   7109.67  3.7769454E-02
   7110.00  4.7606774E-02
   7110.33  6.4252308E-02
   7110.67  9.0671031E-02
   7111.00  1.2385637E-01
   7111.33  1.4962407E-01
   7111.67  1.6352871E-01
   7112.00  1.6746492E-01
   7112.33  1.8404346E-01
   7112.67  2.2544287E-01
   7113.00  2.8396969E-01
   7113.33  3.3280068E-01
   7113.67  3.7745630E-01
   7114.00  4.1678503E-01
   7114.33  4.7810098E-01
   7114.67  4.8430017E-01
   7115.00  3.8403878E-01
   7115.33  2.7676315E-01
   7115.67  2.1316035E-01
   7116.00  1.8550329E-01
   7116.33  1.7496193E-01
   7116.67  1.5826972E-01
   7117.00  1.3660394E-01
   7117.33  1.2214624E-01
   7117.67  1.1651912E-01
   7118.00  1.1434943E-01
   7118.33  1.0853845E-01
   7118.67  1.0361969E-01
   7119.00  1.0381807E-01
   7119.33  1.0885121E-01
   7119.67  1.1477744E-01
   7120.00  1.2099108E-01
   7120.33  1.2923807E-01
   7120.67  1.3834989E-01
   7121.00  1.4569650E-01
   7121.33  1.4873633E-01
   7121.67  1.4914395E-01
   7122.00  1.4997486E-01
   7122.33  1.5388079E-01
   7122.67  1.6074267E-01
   7123.00  1.7062624E-01
   7123.33  1.8398163E-01
   7123.67  1.9944835E-01
   7124.00  2.1510199E-01
   7124.33  2.2818518E-01
   7124.67  2.3711275E-01
   7125.00  2.4077891E-01
   7125.33  2.3964040E-01
   7125.67  2.3747115E-01
   7126.00  2.3675362E-01
   7126.33  2.3923888E-01
   7126.67  2.4444941E-01
   7127.00  2.5128009E-01
   7127.33  2.5807283E-01
   7127.67  2.6409584E-01
   7128.00  2.6987102E-01
   7128.33  2.7664113E-01
   7128.67  2.8515459E-01
   7129.00  2.9578641E-01
   7129.33  3.0889657E-01
   7129.67  3.2400118E-01
   7130.00  3.4079117E-01
   7130.33  3.5897486E-01
   7130.67  3.7776956E-01
   7131.00  3.9645582E-01
   7131.33  4.1401058E-01
   7131.67  4.2984922E-01
   7132.00  4.4367913E-01
   7132.33  4.5539444E-01
   7132.67  4.6587810E-01
   7133.00  4.7598456E-01
   7133.33  4.8675215E-01
   7133.67  4.9888384E-01
   7134.00  5.1290719E-01
   7134.33  5.2958606E-01
   7134.67  5.4884886E-01
   7135.00  5.7047915E-01
   7135.33  5.9352780E-01
   7135.67  6.1567238E-01
   7136.00  6.3466242E-01
   7136.33  6.4807039E-01
   7136.67  6.5665115E-01
   7137.00  6.6186426E-01
   7137.33  6.6538338E-01
   7137.67  6.6848821E-01
   7138.00  6.7156022E-01
   7138.33  6.7490120E-01
   7138.67  6.7893685E-01
   7139.00  6.8424041E-01
   7139.33  6.9169693E-01
   7139.67  7.0138722E-01
   7140.00  7.1316356E-01
   7140.33  7.2661140E-01
   7140.67  7.4073511E-01
   7141.00  7.5482569E-01
   7141.33  7.6798195E-01
   7141.67  7.7959894E-01
   7142.00  7.8920944E-01
   7142.33  7.9622947E-01
   7142.67  8.0096302E-01
   7143.00  8.0364738E-01
   7143.33  8.0445614E-01
   7143.67  8.0394978E-01
   7144.00  8.0238373E-01
   7144.33  7.9981048E-01
   7144.67  7.9634675E-01
   7145.00  7.9192616E-01
   7145.33  7.8636908E-01
   7145.67  7.7987567E-01
   7146.00  7.7265740E-01
   7146.33  7.6508728E-01
   7146.67  7.5772644E-01
   7147.00  7.5101828E-01
   7147.33  7.4551462E-01
   7147.67  7.4138466E-01
   7148.00  7.3879766E-01
   7148.33  7.3803757E-01
   7148.67  7.3885507E-01
   7149.00  7.4111332E-01
   7149.33  7.4469692E-01
   7149.67  7.4910051E-01
   7150.00  7.5395786E-01
   7150.33  7.5879854E-01
   7150.67  7.6314310E-01
   7151.00  7.6659365E-01
   7151.33  7.6856640E-01
   7151.67  7.6888032E-01
   7152.00  7.6731358E-01
   7152.33  7.6343533E-01
   7152.67  7.5742834E-01
   7153.00  7.4932040E-01
   7153.33  7.3901128E-01
   7153.67  7.2700318E-01
   7154.00  7.1359000E-01
   7154.33  6.9905141E-01
   7154.67  6.8396813E-01
   7155.00  6.6870999E-01
   7155.33  6.5363976E-01
   7155.67  6.3898786E-01
   7156.00  6.2490473E-01
   7156.33  6.1158136E-01
   7156.67  5.9897947E-01
   7157.00  5.8710299E-01
   7157.33  5.7601507E-01
   7157.67  5.6558561E-01
   7158.00  5.5577110E-01
   7158.33  5.4658702E-01
   7158.67  5.3790877E-01
   7159.00  5.2969080E-01
   7159.33  5.2193218E-01
   7159.67  5.1453328E-01
   7160.00  5.0745642E-01
   7160.33  5.0069781E-01
   7160.67  4.9419074E-01
   7161.00  4.8791671E-01
   7161.33  4.8189110E-01
   7161.67  4.7608282E-01
   7162.00  4.7049488E-01
   7162.33  4.6516383E-01
   7162.67  4.6007113E-01
   7163.00  4.5522330E-01
   7163.33  4.5065152E-01
   7163.67  4.4631693E-01
   7164.00  4.4220533E-01
   7164.33  4.3831623E-01
   7164.67  4.3459095E-01
   7165.00  4.3099467E-01
   7165.33  4.2749321E-01
   7165.67  4.2403008E-01
   7166.00  4.2056718E-01
   7166.33  4.1705864E-01
   7166.67  4.1347478E-01
   7167.00  4.0979247E-01
   7167.33  4.0597990E-01
   7167.67  4.0204576E-01
   7168.00  3.9799464E-01
   7168.33  3.9382956E-01
   7168.67  3.8958868E-01
   7169.00  3.8530016E-01
   7169.33  3.8100136E-01
   7169.67  3.7673667E-01
   7170.00  3.7254587E-01
   7170.33  3.6849279E-01
   7170.67  3.6461430E-01
   7171.00  3.6096123E-01
   7171.33  3.5764757E-01
   7171.67  3.5475150E-01
   7172.00  3.5240994E-01
