    FDMNES
    energy     <xanes>
   7097.00  5.2132628E-03
   7097.33  5.3419712E-03
   7097.67  5.4767719E-03
   7098.00  5.6180879E-03
   7098.33  5.7673467E-03
   7098.67  5.9242731E-03
   7099.00  6.0894448E-03
   7099.33  6.2647359E-03
   7099.67  6.4498653E-03
   7100.00  6.6456419E-03
   7100.33  6.8545885E-03
   7100.67  7.0764460E-03
   7101.00  7.3123808E-03
   7101.33  7.5658906E-03
   7101.67  7.8368000E-03
   7102.00  8.1268510E-03
   7102.33  8.4410663E-03
   7102.67  8.7794898E-03
   7103.00  9.1448356E-03
   7103.33  9.5446307E-03
   7103.67  9.9794445E-03
   7104.00  1.0453729E-02
   7104.33  1.0979380E-02
   7104.67  1.1558216E-02
   7105.00  1.2198030E-02
   7105.33  1.2918946E-02
   7105.67  1.3725870E-02
   7106.00  1.4633657E-02
   7106.33  1.5679565E-02
   7106.67  1.6876817E-02
   7107.00  1.8257203E-02
   7107.33  1.9898976E-02
   7107.67  2.1841122E-02
   7108.00  2.4164121E-02
   7108.33  2.7066471E-02
   7108.67  3.0687040E-02
   7109.00  3.5291170E-02
   7109.33  4.1564306E-02
   7109.67  5.0205215E-02
   7110.00  6.2568388E-02
   7110.33  8.2497399E-02
   7110.67  1.1449856E-01
   7111.00  1.6319567E-01
   7111.33  2.2944507E-01
   7111.67  2.9697000E-01
   7112.00  3.3685308E-01
   7112.33  3.3656515E-01
   7112.67  3.4327112E-01
   7113.00  3.9098421E-01
   7113.33  4.9627321E-01
   7113.67  6.0404251E-01
   7114.00  6.2027543E-01
   7114.33  5.2335187E-01
   7114.67  4.1881000E-01
   7115.00  3.4180857E-01
   7115.33  2.9533996E-01
   7115.67  2.6674273E-01
   7116.00  2.4721908E-01
   7116.33  2.3172466E-01
   7116.67  2.2138613E-01
   7117.00  2.1755848E-01
   7117.33  2.1729708E-01
   7117.67  2.1435876E-01
   7118.00  2.0677413E-01
   7118.33  1.9616228E-01
   7118.67  1.8548266E-01
   7119.00  1.7589328E-01
   7119.33  1.6773888E-01
   7119.67  1.6029367E-01
   7120.00  1.5305286E-01
   7120.33  1.4659845E-01
   7120.67  1.4189851E-01
   7121.00  1.3893090E-01
   7121.33  1.3700906E-01
   7121.67  1.3546199E-01
   7122.00  1.3446282E-01
   7122.33  1.3468818E-01
   7122.67  1.3592339E-01
   7123.00  1.3781154E-01
   7123.33  1.4029615E-01
   7123.67  1.4348179E-01
   7124.00  1.4752423E-01
   7124.33  1.5268593E-01
   7124.67  1.5910326E-01
   7125.00  1.6716528E-01
   7125.33  1.7767967E-01
   7125.67  1.9085364E-01
   7126.00  2.0706301E-01
   7126.33  2.2720697E-01
   7126.67  2.5107533E-01
   7127.00  2.7817467E-01
   7127.33  3.0691343E-01
   7127.67  3.3450666E-01
   7128.00  3.5898500E-01
   7128.33  3.7897723E-01
   7128.67  3.9585736E-01
   7129.00  4.1129817E-01
   7129.33  4.2773441E-01
   7129.67  4.4718516E-01
   7130.00  4.7105611E-01
   7130.33  5.0102716E-01
   7130.67  5.3673196E-01
   7131.00  5.7789324E-01
   7131.33  6.2352349E-01
   7131.67  6.6989373E-01
   7132.00  7.1357081E-01
   7132.33  7.5100128E-01
   7132.67  7.8190715E-01
   7133.00  8.0628513E-01
   7133.33  8.2314297E-01
   7133.67  8.3275406E-01
   7134.00  8.3487311E-01
   7134.33  8.2918423E-01
   7134.67  8.1775719E-01
   7135.00  8.0166161E-01
   7135.33  7.8129988E-01
   7135.67  7.5754413E-01
   7136.00  7.3049854E-01
   7136.33  6.9995932E-01
   7136.67  6.6694409E-01
   7137.00  6.3252162E-01
   7137.33  5.9848304E-01
   7137.67  5.6667096E-01
   7138.00  5.3844958E-01
   7138.33  5.1541324E-01
   7138.67  4.9735511E-01
   7139.00  4.8419078E-01
   7139.33  4.7612991E-01
   7139.67  4.7214680E-01
   7140.00  4.7184031E-01
   7140.33  4.7513465E-01
   7140.67  4.8112423E-01
   7141.00  4.8934881E-01
   7141.33  4.9947207E-01
   7141.67  5.1076054E-01
   7142.00  5.2281598E-01
   7142.33  5.3531070E-01
   7142.67  5.4793016E-01
   7143.00  5.6053615E-01
   7143.33  5.7304903E-01
   7143.67  5.8547827E-01
   7144.00  5.9784300E-01
   7144.33  6.1013036E-01
   7144.67  6.2228270E-01
   7145.00  6.3419297E-01
   7145.33  6.4563400E-01
   7145.67  6.5644926E-01
   7146.00  6.6645379E-01
   7146.33  6.7531908E-01
   7146.67  6.8299012E-01
   7147.00  6.8932276E-01
   7147.33  6.9397741E-01
   7147.67  6.9701544E-01
   7148.00  6.9837230E-01
   7148.33  6.9784533E-01
   7148.67  6.9575054E-01
   7149.00  6.9226386E-01
   7149.33  6.8751978E-01
   7149.67  6.8193758E-01
   7150.00  6.7573790E-01
   7150.33  6.6910593E-01
   7150.67  6.6229514E-01
   7151.00  6.5545524E-01
   7151.33  6.4873789E-01
   7151.67  6.4224047E-01
   7152.00  6.3604563E-01
   7152.33  6.3028618E-01
   7152.67  6.2498502E-01
   7153.00  6.2019078E-01
   7153.33  6.1600831E-01
   7153.67  6.1238071E-01
   7154.00  6.0929487E-01
   7154.33  6.0677390E-01
   7154.67  6.0469271E-01
   7155.00  6.0298132E-01
   7155.33  6.0158442E-01
   7155.67  6.0038063E-01
   7156.00  5.9930745E-01
   7156.33  5.9832106E-01
   7156.67  5.9738061E-01
   7157.00  5.9647538E-01
   7157.33  5.9561105E-01
   7157.67  5.9479164E-01
   7158.00  5.9402463E-01
   7158.33  5.9332034E-01
   7158.67  5.9266625E-01
   7159.00  5.9204983E-01
   7159.33  5.9144967E-01
   7159.67  5.9083255E-01
   7160.00  5.9016491E-01
   7160.33  5.8938648E-01
   7160.67  5.8845838E-01
   7161.00  5.8733698E-01
   7161.33  5.8593967E-01
   7161.67  5.8424298E-01
   7162.00  5.8219947E-01
   7162.33  5.7970686E-01
   7162.67  5.7677198E-01
   7163.00  5.7336827E-01
   7163.33  5.6941881E-01
   7163.67  5.6498629E-01
   7164.00  5.6008805E-01
   7164.33  5.5470698E-01
   7164.67  5.4894747E-01
   7165.00  5.4286088E-01
   7165.33  5.3647785E-01
   7165.67  5.2989429E-01
   7166.00  5.2316330E-01
   7166.33  5.1633501E-01
   7166.67  5.0947295E-01
   7167.00  5.0261840E-01
   7167.33  4.9581959E-01
   7167.67  4.8909918E-01
   7168.00  4.8247457E-01
   7168.33  4.7597463E-01
   7168.67  4.6959721E-01
   7169.00  4.6335064E-01
   7169.33  4.5726132E-01
   7169.67  4.5132341E-01
   7170.00  4.4555174E-01
   7170.33  4.3999495E-01
   7170.67  4.3466645E-01
   7171.00  4.2961596E-01
   7171.33  4.2498736E-01
   7171.67  4.2090639E-01
   7172.00  4.1759117E-01
