    FDMNES
    energy     <xanes>
   7097.00  5.0471197E-03
   7097.33  5.1746257E-03
   7097.67  5.3084483E-03
   7098.00  5.4490491E-03
   7098.33  5.5979475E-03
   7098.67  5.7548909E-03
   7099.00  5.9205186E-03
   7099.33  6.0968549E-03
   7099.67  6.2836536E-03
   7100.00  6.4818245E-03
   7100.33  6.6941373E-03
   7100.67  6.9203913E-03
   7101.00  7.1619214E-03
   7101.33  7.4226388E-03
   7101.67  7.7024716E-03
   7102.00  8.0034523E-03
   7102.33  8.3313124E-03
   7102.67  8.6862927E-03
   7103.00  9.0716252E-03
   7103.33  9.4960954E-03
   7103.67  9.9606691E-03
   7104.00  1.0470767E-02
   7104.33  1.1040621E-02
   7104.67  1.1672900E-02
   7105.00  1.2377319E-02
   7105.33  1.3178605E-02
   7105.67  1.4083629E-02
   7106.00  1.5111362E-02
   7106.33  1.6308872E-02
   7106.67  1.7694369E-02
   7107.00  1.9309400E-02
   7107.33  2.1255512E-02
   7107.67  2.3586025E-02
   7108.00  2.6408073E-02
   7108.33  2.9984724E-02
   7108.67  3.4504268E-02
   7109.00  4.0321910E-02
   7109.33  4.8350519E-02
   7109.67  5.9516556E-02
   7110.00  7.5601133E-02
   7110.33  1.0163713E-01
   7110.67  1.4365413E-01
   7111.00  2.0829758E-01
   7111.33  2.9654899E-01
   7111.67  4.0175173E-01
   7112.00  5.1567239E-01
   7112.33  5.9349852E-01
   7112.67  6.2908340E-01
   7113.00  5.9946054E-01
   7113.33  4.9497031E-01
   7113.67  3.9780869E-01
   7114.00  3.4597534E-01
   7114.33  3.2147453E-01
   7114.67  2.8381578E-01
   7115.00  2.3048763E-01
   7115.33  1.8055273E-01
   7115.67  1.4329228E-01
   7116.00  1.1885253E-01
   7116.33  1.0664352E-01
   7116.67  1.0389463E-01
   7117.00  1.0879030E-01
   7117.33  1.1468327E-01
   7117.67  1.1387019E-01
   7118.00  1.0744119E-01
   7118.33  1.0082592E-01
   7118.67  9.5889779E-02
   7119.00  9.2174054E-02
   7119.33  8.9635921E-02
   7119.67  8.8383871E-02
   7120.00  8.8427095E-02
   7120.33  8.9557677E-02
   7120.67  9.0825874E-02
   7121.00  9.1470400E-02
   7121.33  9.1518234E-02
   7121.67  9.1814453E-02
   7122.00  9.2739440E-02
   7122.33  9.4404241E-02
   7122.67  9.6649718E-02
   7123.00  9.9470568E-02
   7123.33  1.0309826E-01
   7123.67  1.0775082E-01
   7124.00  1.1367653E-01
   7124.33  1.2106369E-01
   7124.67  1.2932509E-01
   7125.00  1.3789000E-01
   7125.33  1.4677742E-01
   7125.67  1.5663168E-01
   7126.00  1.6754262E-01
   7126.33  1.7831331E-01
   7126.67  1.8767229E-01
   7127.00  1.9644675E-01
   7127.33  2.0797833E-01
   7127.67  2.2415758E-01
   7128.00  2.4490059E-01
   7128.33  2.6880180E-01
   7128.67  2.9371016E-01
   7129.00  3.1906957E-01
   7129.33  3.4477515E-01
   7129.67  3.7014994E-01
   7130.00  3.9463799E-01
   7130.33  4.1855499E-01
   7130.67  4.4342609E-01
   7131.00  4.7083242E-01
   7131.33  5.0325577E-01
   7131.67  5.4205401E-01
   7132.00  5.8837678E-01
   7132.33  6.4260825E-01
   7132.67  7.0028523E-01
   7133.00  7.5616288E-01
   7133.33  8.0316934E-01
   7133.67  8.3948895E-01
   7134.00  8.6620758E-01
   7134.33  8.8546651E-01
   7134.67  8.9897302E-01
   7135.00  9.0446977E-01
   7135.33  8.9744577E-01
   7135.67  8.8002208E-01
   7136.00  8.5612322E-01
   7136.33  8.3067559E-01
   7136.67  8.0710745E-01
   7137.00  7.8660164E-01
   7137.33  7.6992850E-01
   7137.67  7.5662379E-01
   7138.00  7.4662577E-01
   7138.33  7.4026868E-01
   7138.67  7.3697514E-01
   7139.00  7.3641442E-01
   7139.33  7.3816650E-01
   7139.67  7.4099437E-01
   7140.00  7.4390916E-01
   7140.33  7.4567749E-01
   7140.67  7.4563681E-01
   7141.00  7.4350552E-01
   7141.33  7.3916815E-01
   7141.67  7.3334057E-01
   7142.00  7.2653855E-01
   7142.33  7.1923133E-01
   7142.67  7.1171770E-01
   7143.00  7.0388832E-01
   7143.33  6.9521035E-01
   7143.67  6.8524681E-01
   7144.00  6.7373591E-01
   7144.33  6.6063728E-01
   7144.67  6.4668688E-01
   7145.00  6.3251666E-01
   7145.33  6.1886728E-01
   7145.67  6.0620403E-01
   7146.00  5.9486507E-01
   7146.33  5.8538777E-01
   7146.67  5.7786685E-01
   7147.00  5.7253293E-01
   7147.33  5.6988265E-01
   7147.67  5.6969099E-01
   7148.00  5.7187945E-01
   7148.33  5.7645304E-01
   7148.67  5.8273040E-01
   7149.00  5.9025296E-01
   7149.33  5.9852549E-01
   7149.67  6.0692579E-01
   7150.00  6.1508991E-01
   7150.33  6.2269713E-01
   7150.67  6.2972024E-01
   7151.00  6.3616183E-01
   7151.33  6.4196713E-01
   7151.67  6.4717501E-01
   7152.00  6.5166844E-01
   7152.33  6.5504686E-01
   7152.67  6.5703865E-01
   7153.00  6.5727762E-01
   7153.33  6.5513362E-01
   7153.67  6.5064755E-01
   7154.00  6.4377757E-01
   7154.33  6.3437268E-01
   7154.67  6.2300594E-01
   7155.00  6.1001213E-01
   7155.33  5.9567135E-01
   7155.67  5.8055352E-01
   7156.00  5.6498218E-01
   7156.33  5.4925817E-01
   7156.67  5.3365543E-01
   7157.00  5.1835511E-01
   7157.33  5.0358933E-01
   7157.67  4.8944000E-01
   7158.00  4.7601272E-01
   7158.33  4.6352018E-01
   7158.67  4.5195495E-01
   7159.00  4.4139197E-01
   7159.33  4.3204525E-01
   7159.67  4.2384814E-01
   7160.00  4.1684993E-01
   7160.33  4.1125639E-01
   7160.67  4.0694822E-01
   7161.00  4.0393727E-01
   7161.33  4.0236786E-01
   7161.67  4.0202661E-01
   7162.00  4.0283135E-01
   7162.33  4.0478015E-01
   7162.67  4.0759709E-01
   7163.00  4.1113898E-01
   7163.33  4.1529122E-01
   7163.67  4.1979148E-01
   7164.00  4.2446737E-01
   7164.33  4.2911340E-01
   7164.67  4.3353441E-01
   7165.00  4.3756923E-01
   7165.33  4.4098131E-01
   7165.67  4.4370549E-01
   7166.00  4.4566065E-01
   7166.33  4.4669689E-01
   7166.67  4.4692128E-01
   7167.00  4.4638133E-01
   7167.33  4.4509527E-01
   7167.67  4.4327085E-01
   7168.00  4.4102398E-01
   7168.33  4.3845538E-01
   7168.67  4.3572458E-01
   7169.00  4.3292038E-01
   7169.33  4.3012424E-01
   7169.67  4.2739369E-01
   7170.00  4.2476670E-01
   7170.33  4.2229997E-01
   7170.67  4.2001615E-01
   7171.00  4.1795358E-01
   7171.33  4.1619292E-01
   7171.67  4.1474557E-01
   7172.00  4.1363785E-01
