    FDMNES
    energy     <xanes>
   7097.00  4.4198221E-03
   7097.33  4.5141235E-03
   7097.67  4.6124157E-03
   7098.00  4.7149619E-03
   7098.33  4.8226748E-03
   7098.67  4.9353578E-03
   7099.00  5.0533698E-03
   7099.33  5.1779015E-03
   7099.67  5.3087532E-03
   7100.00  5.4464287E-03
   7100.33  5.5925246E-03
   7100.67  5.7468583E-03
   7101.00  5.9101607E-03
   7101.33  6.0846455E-03
   7101.67  6.2701914E-03
   7102.00  6.4679020E-03
   7102.33  6.6809718E-03
   7102.67  6.9094408E-03
   7103.00  7.1550567E-03
   7103.33  7.4226614E-03
   7103.67  7.7126860E-03
   7104.00  8.0280657E-03
   7104.33  8.3766043E-03
   7104.67  8.7596832E-03
   7105.00  9.1826103E-03
   7105.33  9.6589926E-03
   7105.67  1.0192641E-02
   7106.00  1.0794124E-02
   7106.33  1.1489768E-02
   7106.67  1.2290224E-02
   7107.00  1.3219466E-02
   7107.33  1.4336326E-02
   7107.67  1.5673904E-02
   7108.00  1.7297760E-02
   7108.33  1.9370425E-02
   7108.67  2.2018898E-02
   7109.00  2.5482288E-02
   7109.33  3.0389731E-02
   7109.67  3.7446527E-02
   7110.00  4.8030630E-02
   7110.33  6.6119559E-02
   7110.67  9.6264347E-02
   7111.00  1.4112497E-01
   7111.33  1.9074508E-01
   7111.67  2.2704727E-01
   7112.00  2.4535659E-01
   7112.33  2.4438810E-01
   7112.67  2.2162333E-01
   7113.00  1.8653718E-01
   7113.33  1.5775903E-01
   7113.67  1.3922370E-01
   7114.00  1.3041648E-01
   7114.33  1.3583334E-01
   7114.67  1.5490548E-01
   7115.00  1.7857330E-01
   7115.33  1.8653374E-01
   7115.67  1.8136192E-01
   7116.00  1.7481454E-01
   7116.33  1.6816191E-01
   7116.67  1.5210273E-01
   7117.00  1.2873980E-01
   7117.33  1.0854941E-01
   7117.67  9.4732179E-02
   7118.00  8.5880742E-02
   7118.33  7.9831030E-02
   7118.67  7.5016271E-02
   7119.00  7.1404381E-02
   7119.33  6.9380661E-02
   7119.67  6.8821477E-02
   7120.00  6.9688187E-02
   7120.33  7.2088020E-02
   7120.67  7.5798050E-02
   7121.00  8.0797936E-02
   7121.33  8.7301050E-02
   7121.67  9.5356490E-02
   7122.00  1.0537783E-01
   7122.33  1.1848474E-01
   7122.67  1.3529963E-01
   7123.00  1.5654504E-01
   7123.33  1.8282463E-01
   7123.67  2.1168216E-01
   7124.00  2.3987749E-01
   7124.33  2.6444811E-01
   7124.67  2.8761000E-01
   7125.00  3.1278772E-01
   7125.33  3.4245158E-01
   7125.67  3.7387141E-01
   7126.00  4.0187112E-01
   7126.33  4.1901116E-01
   7126.67  4.2533524E-01
   7127.00  4.2414777E-01
   7127.33  4.2009544E-01
   7127.67  4.1723955E-01
   7128.00  4.1733563E-01
   7128.33  4.2112267E-01
   7128.67  4.2720697E-01
   7129.00  4.3456790E-01
   7129.33  4.4277127E-01
   7129.67  4.5210887E-01
   7130.00  4.6340496E-01
   7130.33  4.7800537E-01
   7130.67  4.9608948E-01
   7131.00  5.1784758E-01
   7131.33  5.4398906E-01
   7131.67  5.7387278E-01
   7132.00  6.0654951E-01
   7132.33  6.4039168E-01
   7132.67  6.7389901E-01
   7133.00  7.0677441E-01
   7133.33  7.3944707E-01
   7133.67  7.7263849E-01
   7134.00  8.0699114E-01
   7134.33  8.4380348E-01
   7134.67  8.8349265E-01
   7135.00  9.2478703E-01
   7135.33  9.6291742E-01
   7135.67  9.9267920E-01
   7136.00  1.0097096E+00
   7136.33  1.0082338E+00
   7136.67  9.8976175E-01
   7137.00  9.5694143E-01
   7137.33  9.1396390E-01
   7137.67  8.6751416E-01
   7138.00  8.2140509E-01
   7138.33  7.7901016E-01
   7138.67  7.4150052E-01
   7139.00  7.0944435E-01
   7139.33  6.8361242E-01
   7139.67  6.6301720E-01
   7140.00  6.4723778E-01
   7140.33  6.3621594E-01
   7140.67  6.2881121E-01
   7141.00  6.2452884E-01
   7141.33  6.2318583E-01
   7141.67  6.2401639E-01
   7142.00  6.2668338E-01
   7142.33  6.3101649E-01
   7142.67  6.3650746E-01
   7143.00  6.4288831E-01
   7143.33  6.4991558E-01
   7143.67  6.5718098E-01
   7144.00  6.6435705E-01
   7144.33  6.7092544E-01
   7144.67  6.7642297E-01
   7145.00  6.8034752E-01
   7145.33  6.8183661E-01
   7145.67  6.8063140E-01
   7146.00  6.7638713E-01
   7146.33  6.6848610E-01
   7146.67  6.5737653E-01
   7147.00  6.4332160E-01
   7147.33  6.2659525E-01
   7147.67  6.0829203E-01
   7148.00  5.8920898E-01
   7148.33  5.7030396E-01
   7148.67  5.5240085E-01
   7149.00  5.3606983E-01
   7149.33  5.2199955E-01
   7149.67  5.1015288E-01
   7150.00  5.0055223E-01
   7150.33  4.9334180E-01
   7150.67  4.8804797E-01
   7151.00  4.8445170E-01
   7151.33  4.8242916E-01
   7151.67  4.8146611E-01
   7152.00  4.8125046E-01
   7152.33  4.8146540E-01
   7152.67  4.8173011E-01
   7153.00  4.8181078E-01
   7153.33  4.8146533E-01
   7153.67  4.8062296E-01
   7154.00  4.7923671E-01
   7154.33  4.7723941E-01
   7154.67  4.7473726E-01
   7155.00  4.7177362E-01
   7155.33  4.6834394E-01
   7155.67  4.6453933E-01
   7156.00  4.6038816E-01
   7156.33  4.5588184E-01
   7156.67  4.5109288E-01
   7157.00  4.4605377E-01
   7157.33  4.4078178E-01
   7157.67  4.3535171E-01
   7158.00  4.2980932E-01
   7158.33  4.2420310E-01
   7158.67  4.1859674E-01
   7159.00  4.1303666E-01
   7159.33  4.0758070E-01
   7159.67  4.0225607E-01
   7160.00  3.9709014E-01
   7160.33  3.9213660E-01
   7160.67  3.8740578E-01
   7161.00  3.8292802E-01
   7161.33  3.7878439E-01
   7161.67  3.7499901E-01
   7162.00  3.7163537E-01
   7162.33  3.6883594E-01
   7162.67  3.6661582E-01
   7163.00  3.6502871E-01
   7163.33  3.6419244E-01
   7163.67  3.6401971E-01
   7164.00  3.6447581E-01
   7164.33  3.6556001E-01
   7164.67  3.6711207E-01
   7165.00  3.6904944E-01
   7165.33  3.7131826E-01
   7165.67  3.7380477E-01
   7166.00  3.7645680E-01
   7166.33  3.7924540E-01
   7166.67  3.8212704E-01
   7167.00  3.8508799E-01
   7167.33  3.8813317E-01
   7167.67  3.9125971E-01
   7168.00  3.9447944E-01
   7168.33  3.9782598E-01
   7168.67  4.0130985E-01
   7169.00  4.0495362E-01
   7169.33  4.0880412E-01
   7169.67  4.1285473E-01
   7170.00  4.1710940E-01
   7170.33  4.2157906E-01
   7170.67  4.2619778E-01
   7171.00  4.3089360E-01
   7171.33  4.3550324E-01
   7171.67  4.3975526E-01
   7172.00  4.4328758E-01
