    FDMNES
    energy     <xanes>
   7097.00  4.1569288E-03
   7097.33  4.2424921E-03
   7097.67  4.3315539E-03
   7098.00  4.4243410E-03
   7098.33  4.5216476E-03
   7098.67  4.6232970E-03
   7099.00  4.7295986E-03
   7099.33  4.8415865E-03
   7099.67  4.9590818E-03
   7100.00  5.0825195E-03
   7100.33  5.2132853E-03
   7100.67  5.3512164E-03
   7101.00  5.4969457E-03
   7101.33  5.6523957E-03
   7101.67  5.8174601E-03
   7102.00  5.9930990E-03
   7102.33  6.1820930E-03
   7102.67  6.3844837E-03
   7103.00  6.6018011E-03
   7103.33  6.8382787E-03
   7103.67  7.0943171E-03
   7104.00  7.3725064E-03
   7104.33  7.6797178E-03
   7104.67  8.0172266E-03
   7105.00  8.3897646E-03
   7105.33  8.8094288E-03
   7105.67  9.2797447E-03
   7106.00  9.8102488E-03
   7106.33  1.0424641E-02
   7106.67  1.1132831E-02
   7107.00  1.1956759E-02
   7107.33  1.2950199E-02
   7107.67  1.4144212E-02
   7108.00  1.5599756E-02
   7108.33  1.7468019E-02
   7108.67  1.9869486E-02
   7109.00  2.3030254E-02
   7109.33  2.7546592E-02
   7109.67  3.4095694E-02
   7110.00  4.4001250E-02
   7110.33  6.1096505E-02
   7110.67  8.9828854E-02
   7111.00  1.3299977E-01
   7111.33  1.8116466E-01
   7111.67  2.1152876E-01
   7112.00  2.1238843E-01
   7112.33  1.9717743E-01
   7112.67  1.8466127E-01
   7113.00  1.7538756E-01
   7113.33  1.6072697E-01
   7113.67  1.3839401E-01
   7114.00  1.1479908E-01
   7114.33  9.6756067E-02
   7114.67  8.4329216E-02
   7115.00  7.5758644E-02
   7115.33  6.8297863E-02
   7115.67  6.1735415E-02
   7116.00  5.7079295E-02
   7116.33  5.4413947E-02
   7116.67  5.2998439E-02
   7117.00  5.2570653E-02
   7117.33  5.3134315E-02
   7117.67  5.4575184E-02
   7118.00  5.6884983E-02
   7118.33  6.0067915E-02
   7118.67  6.3902995E-02
   7119.00  6.8376447E-02
   7119.33  7.3591902E-02
   7119.67  7.9395925E-02
   7120.00  8.5674908E-02
   7120.33  9.2195129E-02
   7120.67  9.8683290E-02
   7121.00  1.0553742E-01
   7121.33  1.1434490E-01
   7121.67  1.2612143E-01
   7122.00  1.4139856E-01
   7122.33  1.6097842E-01
   7122.67  1.8450057E-01
   7123.00  2.1170202E-01
   7123.33  2.4177785E-01
   7123.67  2.7224278E-01
   7124.00  3.0099259E-01
   7124.33  3.2559113E-01
   7124.67  3.4546313E-01
   7125.00  3.6127343E-01
   7125.33  3.7408134E-01
   7125.67  3.8542789E-01
   7126.00  3.9663040E-01
   7126.33  4.0876790E-01
   7126.67  4.2179543E-01
   7127.00  4.3534618E-01
   7127.33  4.4857691E-01
   7127.67  4.6037626E-01
   7128.00  4.7015778E-01
   7128.33  4.7855006E-01
   7128.67  4.8743351E-01
   7129.00  4.9782350E-01
   7129.33  5.0984085E-01
   7129.67  5.2195287E-01
   7130.00  5.3233788E-01
   7130.33  5.3869464E-01
   7130.67  5.4119464E-01
   7131.00  5.4131070E-01
   7131.33  5.4205003E-01
   7131.67  5.4555332E-01
   7132.00  5.5118110E-01
   7132.33  5.5528927E-01
   7132.67  5.5587179E-01
   7133.00  5.5468223E-01
   7133.33  5.5685940E-01
   7133.67  5.6586831E-01
   7134.00  5.8248419E-01
   7134.33  6.0620999E-01
   7134.67  6.3412622E-01
   7135.00  6.6430372E-01
   7135.33  6.9447668E-01
   7135.67  7.2245325E-01
   7136.00  7.4680597E-01
   7136.33  7.6673631E-01
   7136.67  7.8395812E-01
   7137.00  7.9998126E-01
   7137.33  8.1629470E-01
   7137.67  8.3374027E-01
   7138.00  8.5259127E-01
   7138.33  8.7274880E-01
   7138.67  8.9319191E-01
   7139.00  9.1268013E-01
   7139.33  9.2897702E-01
   7139.67  9.4037299E-01
   7140.00  9.4525520E-01
   7140.33  9.4131574E-01
   7140.67  9.2907557E-01
   7141.00  9.0892489E-01
   7141.33  8.8132365E-01
   7141.67  8.4901128E-01
   7142.00  8.1379458E-01
   7142.33  7.7747073E-01
   7142.67  7.4170173E-01
   7143.00  7.0745377E-01
   7143.33  6.7573830E-01
   7143.67  6.4665793E-01
   7144.00  6.2034289E-01
   7144.33  5.9713531E-01
   7144.67  5.7658115E-01
   7145.00  5.5853823E-01
   7145.33  5.4310163E-01
   7145.67  5.2977995E-01
   7146.00  5.1840867E-01
   7146.33  5.0904039E-01
   7146.67  5.0131408E-01
   7147.00  4.9513722E-01
   7147.33  4.9060784E-01
   7147.67  4.8747030E-01
   7148.00  4.8566344E-01
   7148.33  4.8525667E-01
   7148.67  4.8597604E-01
   7149.00  4.8769372E-01
   7149.33  4.9032841E-01
   7149.67  4.9358322E-01
   7150.00  4.9730811E-01
   7150.33  5.0138109E-01
   7150.67  5.0559922E-01
   7151.00  5.0981653E-01
   7151.33  5.1384622E-01
   7151.67  5.1754899E-01
   7152.00  5.2079470E-01
   7152.33  5.2337623E-01
   7152.67  5.2526645E-01
   7153.00  5.2641387E-01
   7153.33  5.2671171E-01
   7153.67  5.2629169E-01
   7154.00  5.2521809E-01
   7154.33  5.2351863E-01
   7154.67  5.2136478E-01
   7155.00  5.1883350E-01
   7155.33  5.1594927E-01
   7155.67  5.1277800E-01
   7156.00  5.0931098E-01
   7156.33  5.0546456E-01
   7156.67  5.0121860E-01
   7157.00  4.9651663E-01
   7157.33  4.9124265E-01
   7157.67  4.8543731E-01
   7158.00  4.7911063E-01
   7158.33  4.7224463E-01
   7158.67  4.6496002E-01
   7159.00  4.5730696E-01
   7159.33  4.4927925E-01
   7159.67  4.4091969E-01
   7160.00  4.3220706E-01
   7160.33  4.2306329E-01
   7160.67  4.1353055E-01
   7161.00  4.0364607E-01
   7161.33  3.9348735E-01
   7161.67  3.8326261E-01
   7162.00  3.7316789E-01
   7162.33  3.6350150E-01
   7162.67  3.5446170E-01
   7163.00  3.4623716E-01
   7163.33  3.3913006E-01
   7163.67  3.3314141E-01
   7164.00  3.2833724E-01
   7164.33  3.2490683E-01
   7164.67  3.2270190E-01
   7165.00  3.2170915E-01
   7165.33  3.2204992E-01
   7165.67  3.2354256E-01
   7166.00  3.2615420E-01
   7166.33  3.2997441E-01
   7166.67  3.3481118E-01
   7167.00  3.4059719E-01
   7167.33  3.4732635E-01
   7167.67  3.5473914E-01
   7168.00  3.6266726E-01
   7168.33  3.7091221E-01
   7168.67  3.7917195E-01
   7169.00  3.8720079E-01
   7169.33  3.9464673E-01
   7169.67  4.0131209E-01
   7170.00  4.0701566E-01
   7170.33  4.1149021E-01
   7170.67  4.1484853E-01
   7171.00  4.1716094E-01
   7171.33  4.1849876E-01
   7171.67  4.1923464E-01
   7172.00  4.1963397E-01
