    FDMNES
    energy     <xanes>
   7097.00  4.9166040E-03
   7097.33  5.0319286E-03
   7097.67  5.1524629E-03
   7098.00  5.2785613E-03
   7098.33  5.4114333E-03
   7098.67  5.5508360E-03
   7099.00  5.6972546E-03
   7099.33  5.8522758E-03
   7099.67  6.0156548E-03
   7100.00  6.1880750E-03
   7100.33  6.3716761E-03
   7100.67  6.5662395E-03
   7101.00  6.7727597E-03
   7101.33  6.9942198E-03
   7101.67  7.2304891E-03
   7102.00  7.4830747E-03
   7102.33  7.7563042E-03
   7102.67  8.0502751E-03
   7103.00  8.3673831E-03
   7103.33  8.7142245E-03
   7103.67  9.0914477E-03
   7104.00  9.5030952E-03
   7104.33  9.9598642E-03
   7104.67  1.0463746E-02
   7105.00  1.1022096E-02
   7105.33  1.1653706E-02
   7105.67  1.2364024E-02
   7106.00  1.3167825E-02
   7106.33  1.4101836E-02
   7106.67  1.5181347E-02
   7107.00  1.6440314E-02
   7107.33  1.7962042E-02
   7107.67  1.9794734E-02
   7108.00  2.2033183E-02
   7108.33  2.4913119E-02
   7108.67  2.8624574E-02
   7109.00  3.3525433E-02
   7109.33  4.0566432E-02
   7109.67  5.0852148E-02
   7110.00  6.6554106E-02
   7110.33  9.3926434E-02
   7110.67  1.3928836E-01
   7111.00  2.0219401E-01
   7111.33  2.5967584E-01
   7111.67  2.9610972E-01
   7112.00  3.0842303E-01
   7112.33  2.9595551E-01
   7112.67  2.7452339E-01
   7113.00  2.5378931E-01
   7113.33  2.4046678E-01
   7113.67  2.3363167E-01
   7114.00  2.2743910E-01
   7114.33  2.1217476E-01
   7114.67  1.8795361E-01
   7115.00  1.6089592E-01
   7115.33  1.3934342E-01
   7115.67  1.2595282E-01
   7116.00  1.2067971E-01
   7116.33  1.2341263E-01
   7116.67  1.3194288E-01
   7117.00  1.4460258E-01
   7117.33  1.5864768E-01
   7117.67  1.7063202E-01
   7118.00  1.7873882E-01
   7118.33  1.8324496E-01
   7118.67  1.8742664E-01
   7119.00  1.9357683E-01
   7119.33  2.0504816E-01
   7119.67  2.2354299E-01
   7120.00  2.4876959E-01
   7120.33  2.7770268E-01
   7120.67  3.0406320E-01
   7121.00  3.2291475E-01
   7121.33  3.3075113E-01
   7121.67  3.3161552E-01
   7122.00  3.3052083E-01
   7122.33  3.3250719E-01
   7122.67  3.3870954E-01
   7123.00  3.4856332E-01
   7123.33  3.6088237E-01
   7123.67  3.7392515E-01
   7124.00  3.8644184E-01
   7124.33  3.9598639E-01
   7124.67  4.0103998E-01
   7125.00  4.0211130E-01
   7125.33  4.0233920E-01
   7125.67  4.0531473E-01
   7126.00  4.1226268E-01
   7126.33  4.2236699E-01
   7126.67  4.3269088E-01
   7127.00  4.4138066E-01
   7127.33  4.4757889E-01
   7127.67  4.5290052E-01
   7128.00  4.5960426E-01
   7128.33  4.7091251E-01
   7128.67  4.8675631E-01
   7129.00  5.0430973E-01
   7129.33  5.1863046E-01
   7129.67  5.2837785E-01
   7130.00  5.3464657E-01
   7130.33  5.3900567E-01
   7130.67  5.4282243E-01
   7131.00  5.4662214E-01
   7131.33  5.5064729E-01
   7131.67  5.5478772E-01
   7132.00  5.5899312E-01
   7132.33  5.6364386E-01
   7132.67  5.6940799E-01
   7133.00  5.7687009E-01
   7133.33  5.8647808E-01
   7133.67  5.9755214E-01
   7134.00  6.0932952E-01
   7134.33  6.2080588E-01
   7134.67  6.3137811E-01
   7135.00  6.4097196E-01
   7135.33  6.4978109E-01
   7135.67  6.5804875E-01
   7136.00  6.6553409E-01
   7136.33  6.7145792E-01
   7136.67  6.7543867E-01
   7137.00  6.7735447E-01
   7137.33  6.7742274E-01
   7137.67  6.7669631E-01
   7138.00  6.7592898E-01
   7138.33  6.7573521E-01
   7138.67  6.7607339E-01
   7139.00  6.7655989E-01
   7139.33  6.7639484E-01
   7139.67  6.7492761E-01
   7140.00  6.7179137E-01
   7140.33  6.6682411E-01
   7140.67  6.6073002E-01
   7141.00  6.5413634E-01
   7141.33  6.4779203E-01
   7141.67  6.4221301E-01
   7142.00  6.3766400E-01
   7142.33  6.3434778E-01
   7142.67  6.3196760E-01
   7143.00  6.3026614E-01
   7143.33  6.2893173E-01
   7143.67  6.2758591E-01
   7144.00  6.2598993E-01
   7144.33  6.2389453E-01
   7144.67  6.2125708E-01
   7145.00  6.1806072E-01
   7145.33  6.1427384E-01
   7145.67  6.1002039E-01
   7146.00  6.0534541E-01
   7146.33  6.0023183E-01
   7146.67  5.9474232E-01
   7147.00  5.8888472E-01
   7147.33  5.8262727E-01
   7147.67  5.7603833E-01
   7148.00  5.6915297E-01
   7148.33  5.6200635E-01
   7148.67  5.5471987E-01
   7149.00  5.4739583E-01
   7149.33  5.4019187E-01
   7149.67  5.3325497E-01
   7150.00  5.2671947E-01
   7150.33  5.2077659E-01
   7150.67  5.1542378E-01
   7151.00  5.1065573E-01
   7151.33  5.0646922E-01
   7151.67  5.0268162E-01
   7152.00  4.9916833E-01
   7152.33  4.9579706E-01
   7152.67  4.9242618E-01
   7153.00  4.8898110E-01
   7153.33  4.8540835E-01
   7153.67  4.8173157E-01
   7154.00  4.7798775E-01
   7154.33  4.7423366E-01
   7154.67  4.7052571E-01
   7155.00  4.6689834E-01
   7155.33  4.6338329E-01
   7155.67  4.5996745E-01
   7156.00  4.5663982E-01
   7156.33  4.5338935E-01
   7156.67  4.5018452E-01
   7157.00  4.4701081E-01
   7157.33  4.4386375E-01
   7157.67  4.4073836E-01
   7158.00  4.3763502E-01
   7158.33  4.3455935E-01
   7158.67  4.3151396E-01
   7159.00  4.2850850E-01
   7159.33  4.2556994E-01
   7159.67  4.2271950E-01
   7160.00  4.1998937E-01
   7160.33  4.1744402E-01
   7160.67  4.1511194E-01
   7161.00  4.1303656E-01
   7161.33  4.1130249E-01
   7161.67  4.0990948E-01
   7162.00  4.0887941E-01
   7162.33  4.0827097E-01
   7162.67  4.0803430E-01
   7163.00  4.0815499E-01
   7163.33  4.0864007E-01
   7163.67  4.0939773E-01
   7164.00  4.1037909E-01
   7164.33  4.1154752E-01
   7164.67  4.1282327E-01
   7165.00  4.1415632E-01
   7165.33  4.1549333E-01
   7165.67  4.1678764E-01
   7166.00  4.1800604E-01
   7166.33  4.1910265E-01
   7166.67  4.2006325E-01
   7167.00  4.2086672E-01
   7167.33  4.2147026E-01
   7167.67  4.2188238E-01
   7168.00  4.2209969E-01
   7168.33  4.2210771E-01
   7168.67  4.2195327E-01
   7169.00  4.2166744E-01
   7169.33  4.2128540E-01
   7169.67  4.2086870E-01
   7170.00  4.2045995E-01
   7170.33  4.2010839E-01
   7170.67  4.1983855E-01
   7171.00  4.1966456E-01
   7171.33  4.1959823E-01
   7171.67  4.1960543E-01
   7172.00  4.1964742E-01
