    FDMNES
    energy     <xanes>
   7097.00  5.0083692E-03
   7097.33  5.1282041E-03
   7097.67  5.2535495E-03
   7098.00  5.3847855E-03
   7098.33  5.5232003E-03
   7098.67  5.6685444E-03
   7099.00  5.8213401E-03
   7099.33  5.9832838E-03
   7099.67  6.1541265E-03
   7100.00  6.3346065E-03
   7100.33  6.5270215E-03
   7100.67  6.7311545E-03
   7101.00  6.9480854E-03
   7101.33  7.1810322E-03
   7101.67  7.4298810E-03
   7102.00  7.6962761E-03
   7102.33  7.9849120E-03
   7102.67  8.2959368E-03
   7103.00  8.6319801E-03
   7103.33  9.0002439E-03
   7103.67  9.4015065E-03
   7104.00  9.8402368E-03
   7104.33  1.0328206E-02
   7104.67  1.0867730E-02
   7105.00  1.1467011E-02
   7105.33  1.2146928E-02
   7105.67  1.2913777E-02
   7106.00  1.3784214E-02
   7106.33  1.4799532E-02
   7106.67  1.5977472E-02
   7107.00  1.7356831E-02
   7107.33  1.9032697E-02
   7107.67  2.1061540E-02
   7108.00  2.3553494E-02
   7108.33  2.6782740E-02
   7108.67  3.0974911E-02
   7109.00  3.6553791E-02
   7109.33  4.4648238E-02
   7109.67  5.6587274E-02
   7110.00  7.4986479E-02
   7110.33  1.0744286E-01
   7110.67  1.6219097E-01
   7111.00  2.4111531E-01
   7111.33  3.1689574E-01
   7111.67  3.4327011E-01
   7112.00  3.0457308E-01
   7112.33  2.5194569E-01
   7112.67  2.2387790E-01
   7113.00  2.2081405E-01
   7113.33  2.3575230E-01
   7113.67  2.5557449E-01
   7114.00  2.7218315E-01
   7114.33  2.7264599E-01
   7114.67  2.4516397E-01
   7115.00  1.9954756E-01
   7115.33  1.6017961E-01
   7115.67  1.3431316E-01
   7116.00  1.2036665E-01
   7116.33  1.1672355E-01
   7116.67  1.2059652E-01
   7117.00  1.3101423E-01
   7117.33  1.4656474E-01
   7117.67  1.6321764E-01
   7118.00  1.7804967E-01
   7118.33  1.8956262E-01
   7118.67  1.9920411E-01
   7119.00  2.0758826E-01
   7119.33  2.1321078E-01
   7119.67  2.1613009E-01
   7120.00  2.1930797E-01
   7120.33  2.2815912E-01
   7120.67  2.4564328E-01
   7121.00  2.7402076E-01
   7121.33  3.1556820E-01
   7121.67  3.6028550E-01
   7122.00  3.9150166E-01
   7122.33  3.9939186E-01
   7122.67  3.9685107E-01
   7123.00  3.9153948E-01
   7123.33  3.8783764E-01
   7123.67  3.8762464E-01
   7124.00  3.9096994E-01
   7124.33  3.9617714E-01
   7124.67  4.0072206E-01
   7125.00  4.0437801E-01
   7125.33  4.0959775E-01
   7125.67  4.1824660E-01
   7126.00  4.3010582E-01
   7126.33  4.4262872E-01
   7126.67  4.5169490E-01
   7127.00  4.5543194E-01
   7127.33  4.5536471E-01
   7127.67  4.5576531E-01
   7128.00  4.5922431E-01
   7128.33  4.6748036E-01
   7128.67  4.7967395E-01
   7129.00  4.9598735E-01
   7129.33  5.1814125E-01
   7129.67  5.4372325E-01
   7130.00  5.6747352E-01
   7130.33  5.8222899E-01
   7130.67  5.8737782E-01
   7131.00  5.8517315E-01
   7131.33  5.8011011E-01
   7131.67  5.7764207E-01
   7132.00  5.8090297E-01
   7132.33  5.9201109E-01
   7132.67  6.0891294E-01
   7133.00  6.2905979E-01
   7133.33  6.4886623E-01
   7133.67  6.6617767E-01
   7134.00  6.8052538E-01
   7134.33  6.9180838E-01
   7134.67  7.0094644E-01
   7135.00  7.0812674E-01
   7135.33  7.1265180E-01
   7135.67  7.1436208E-01
   7136.00  7.1325681E-01
   7136.33  7.0941811E-01
   7136.67  7.0362271E-01
   7137.00  6.9621093E-01
   7137.33  6.8742555E-01
   7137.67  6.7792986E-01
   7138.00  6.6823559E-01
   7138.33  6.5895639E-01
   7138.67  6.5053823E-01
   7139.00  6.4335069E-01
   7139.33  6.3789953E-01
   7139.67  6.3406859E-01
   7140.00  6.3167596E-01
   7140.33  6.3032983E-01
   7140.67  6.2922257E-01
   7141.00  6.2775073E-01
   7141.33  6.2520695E-01
   7141.67  6.2132587E-01
   7142.00  6.1596060E-01
   7142.33  6.0895621E-01
   7142.67  6.0069795E-01
   7143.00  5.9146198E-01
   7143.33  5.8156731E-01
   7143.67  5.7150915E-01
   7144.00  5.6164033E-01
   7144.33  5.5239746E-01
   7144.67  5.4400710E-01
   7145.00  5.3665441E-01
   7145.33  5.3061147E-01
   7145.67  5.2576177E-01
   7146.00  5.2205750E-01
   7146.33  5.1950047E-01
   7146.67  5.1778633E-01
   7147.00  5.1674471E-01
   7147.33  5.1623844E-01
   7147.67  5.1602198E-01
   7148.00  5.1594412E-01
   7148.33  5.1583948E-01
   7148.67  5.1556643E-01
   7149.00  5.1502089E-01
   7149.33  5.1408015E-01
   7149.67  5.1277153E-01
   7150.00  5.1112393E-01
   7150.33  5.0917554E-01
   7150.67  5.0705903E-01
   7151.00  5.0486579E-01
   7151.33  5.0268640E-01
   7151.67  5.0056741E-01
   7152.00  4.9850769E-01
   7152.33  4.9645695E-01
   7152.67  4.9431849E-01
   7153.00  4.9198664E-01
   7153.33  4.8928790E-01
   7153.67  4.8613973E-01
   7154.00  4.8245774E-01
   7154.33  4.7810515E-01
   7154.67  4.7313850E-01
   7155.00  4.6757758E-01
   7155.33  4.6141254E-01
   7155.67  4.5479478E-01
   7156.00  4.4781120E-01
   7156.33  4.4054169E-01
   7156.67  4.3313815E-01
   7157.00  4.2570956E-01
   7157.33  4.1839840E-01
   7157.67  4.1132213E-01
   7158.00  4.0459220E-01
   7158.33  3.9838386E-01
   7158.67  3.9273349E-01
   7159.00  3.8769805E-01
   7159.33  3.8339280E-01
   7159.67  3.7973390E-01
   7160.00  3.7669217E-01
   7160.33  3.7427972E-01
   7160.67  3.7235239E-01
   7161.00  3.7084065E-01
   7161.33  3.6971127E-01
   7161.67  3.6886556E-01
   7162.00  3.6827157E-01
   7162.33  3.6793590E-01
   7162.67  3.6781970E-01
   7163.00  3.6791884E-01
   7163.33  3.6825386E-01
   7163.67  3.6878803E-01
   7164.00  3.6950821E-01
   7164.33  3.7041611E-01
   7164.67  3.7146743E-01
   7165.00  3.7264250E-01
   7165.33  3.7394035E-01
   7165.67  3.7534076E-01
   7166.00  3.7684283E-01
   7166.33  3.7846366E-01
   7166.67  3.8019836E-01
   7167.00  3.8205645E-01
   7167.33  3.8406681E-01
   7167.67  3.8622314E-01
   7168.00  3.8853265E-01
   7168.33  3.9101941E-01
   7168.67  3.9366053E-01
   7169.00  3.9644495E-01
   7169.33  3.9936403E-01
   7169.67  4.0236740E-01
   7170.00  4.0541547E-01
   7170.33  4.0845126E-01
   7170.67  4.1141116E-01
   7171.00  4.1423149E-01
   7171.33  4.1679688E-01
   7171.67  4.1902369E-01
   7172.00  4.2079560E-01
