    FDMNES
    energy     <xanes>
   7097.00  4.2060284E-03
   7097.33  4.2906805E-03
   7097.67  4.3786071E-03
   7098.00  4.4700099E-03
   7098.33  4.5656155E-03
   7098.67  4.6652455E-03
   7099.00  4.7691740E-03
   7099.33  4.8783382E-03
   7099.67  4.9925567E-03
   7100.00  5.1122132E-03
   7100.33  5.2385548E-03
   7100.67  5.3714133E-03
   7101.00  5.5113475E-03
   7101.33  5.6600787E-03
   7101.67  5.8174911E-03
   7102.00  5.9844354E-03
   7102.33  6.1633994E-03
   7102.67  6.3544075E-03
   7103.00  6.5588290E-03
   7103.33  6.7804695E-03
   7103.67  7.0197038E-03
   7104.00  7.2788899E-03
   7104.33  7.5642851E-03
   7104.67  7.8771443E-03
   7105.00  8.2218925E-03
   7105.33  8.6098177E-03
   7105.67  9.0445285E-03
   7106.00  9.5353091E-03
   7106.33  1.0105188E-02
   7106.67  1.0764818E-02
   7107.00  1.1536864E-02
   7107.33  1.2477023E-02
   7107.67  1.3621136E-02
   7108.00  1.5037981E-02
   7108.33  1.6900607E-02
   7108.67  1.9363931E-02
   7109.00  2.2719691E-02
   7109.33  2.7765016E-02
   7109.67  3.5520286E-02
   7110.00  4.8018591E-02
   7110.33  7.1034140E-02
   7110.67  1.0808852E-01
   7111.00  1.4740163E-01
   7111.33  1.5989307E-01
   7111.67  1.6065815E-01
   7112.00  1.4132660E-01
   7112.33  1.0703226E-01
   7112.67  8.3923437E-02
   7113.00  7.5517497E-02
   7113.33  8.0413440E-02
   7113.67  9.3553722E-02
   7114.00  1.0932838E-01
   7114.33  1.1116846E-01
   7114.67  9.6334324E-02
   7115.00  7.6922112E-02
   7115.33  6.1700603E-02
   7115.67  5.0761610E-02
   7116.00  4.3374464E-02
   7116.33  3.8878932E-02
   7116.67  3.6074798E-02
   7117.00  3.4467628E-02
   7117.33  3.3797695E-02
   7117.67  3.3757466E-02
   7118.00  3.4254785E-02
   7118.33  3.5302630E-02
   7118.67  3.6836113E-02
   7119.00  3.8880325E-02
   7119.33  4.1566671E-02
   7119.67  4.4919227E-02
   7120.00  4.9052860E-02
   7120.33  5.4271203E-02
   7120.67  6.0706349E-02
   7121.00  6.8649928E-02
   7121.33  7.8811261E-02
   7121.67  9.1587116E-02
   7122.00  1.0771160E-01
   7122.33  1.2875318E-01
   7122.67  1.5498572E-01
   7123.00  1.8643702E-01
   7123.33  2.2224802E-01
   7123.67  2.5877521E-01
   7124.00  2.9233215E-01
   7124.33  3.2154941E-01
   7124.67  3.5048126E-01
   7125.00  3.8049138E-01
   7125.33  4.1087870E-01
   7125.67  4.4191317E-01
   7126.00  4.7612306E-01
   7126.33  5.1873966E-01
   7126.67  5.7221164E-01
   7127.00  6.3792056E-01
   7127.33  7.1829899E-01
   7127.67  8.1253282E-01
   7128.00  9.2031887E-01
   7128.33  1.0373507E+00
   7128.67  1.1505748E+00
   7129.00  1.2456879E+00
   7129.33  1.2981398E+00
   7129.67  1.2987928E+00
   7130.00  1.2511029E+00
   7130.33  1.1710359E+00
   7130.67  1.0834610E+00
   7131.00  1.0002721E+00
   7131.33  9.2900169E-01
   7131.67  8.6945167E-01
   7132.00  8.2070103E-01
   7132.33  7.8207041E-01
   7132.67  7.5058898E-01
   7133.00  7.2489842E-01
   7133.33  7.0430369E-01
   7133.67  6.8726985E-01
   7134.00  6.7312770E-01
   7134.33  6.6149375E-01
   7134.67  6.5153490E-01
   7135.00  6.4287543E-01
   7135.33  6.3533907E-01
   7135.67  6.2864406E-01
   7136.00  6.2273591E-01
   7136.33  6.1765229E-01
   7136.67  6.1316131E-01
   7137.00  6.0902715E-01
   7137.33  6.0486869E-01
   7137.67  6.0032236E-01
   7138.00  5.9520643E-01
   7138.33  5.8949420E-01
   7138.67  5.8355260E-01
   7139.00  5.7776995E-01
   7139.33  5.7270180E-01
   7139.67  5.6866039E-01
   7140.00  5.6586153E-01
   7140.33  5.6456543E-01
   7140.67  5.6454807E-01
   7141.00  5.6567590E-01
   7141.33  5.6786845E-01
   7141.67  5.7081095E-01
   7142.00  5.7433019E-01
   7142.33  5.7823940E-01
   7142.67  5.8224017E-01
   7143.00  5.8611730E-01
   7143.33  5.8959789E-01
   7143.67  5.9248703E-01
   7144.00  5.9456499E-01
   7144.33  5.9544655E-01
   7144.67  5.9504436E-01
   7145.00  5.9321622E-01
   7145.33  5.8968364E-01
   7145.67  5.8464286E-01
   7146.00  5.7817503E-01
   7146.33  5.7029038E-01
   7146.67  5.6137418E-01
   7147.00  5.5165561E-01
   7147.33  5.4136152E-01
   7147.67  5.3085638E-01
   7148.00  5.2039071E-01
   7148.33  5.1026450E-01
   7148.67  5.0064698E-01
   7149.00  4.9165380E-01
   7149.33  4.8341738E-01
   7149.67  4.7580885E-01
   7150.00  4.6873419E-01
   7150.33  4.6211035E-01
   7150.67  4.5574805E-01
   7151.00  4.4952798E-01
   7151.33  4.4332146E-01
   7151.67  4.3700864E-01
   7152.00  4.3049812E-01
   7152.33  4.2365950E-01
   7152.67  4.1645303E-01
   7153.00  4.0883083E-01
   7153.33  4.0070456E-01
   7153.67  3.9212629E-01
   7154.00  3.8311610E-01
   7154.33  3.7367592E-01
   7154.67  3.6393235E-01
   7155.00  3.5397668E-01
   7155.33  3.4393084E-01
   7155.67  3.3396067E-01
   7156.00  3.2421412E-01
   7156.33  3.1492000E-01
   7156.67  3.0620060E-01
   7157.00  2.9818873E-01
   7157.33  2.9111338E-01
   7157.67  2.8495739E-01
   7158.00  2.7976491E-01
   7158.33  2.7567725E-01
   7158.67  2.7256019E-01
   7159.00  2.7038553E-01
   7159.33  2.6921696E-01
   7159.67  2.6888382E-01
   7160.00  2.6932986E-01
   7160.33  2.7057290E-01
   7160.67  2.7244916E-01
   7161.00  2.7489248E-01
   7161.33  2.7788766E-01
   7161.67  2.8129861E-01
   7162.00  2.8506330E-01
   7162.33  2.8914894E-01
   7162.67  2.9345751E-01
   7163.00  2.9793908E-01
   7163.33  3.0254212E-01
   7163.67  3.0718828E-01
   7164.00  3.1184260E-01
   7164.33  3.1648273E-01
   7164.67  3.2109875E-01
   7165.00  3.2568463E-01
   7165.33  3.3023283E-01
   7165.67  3.3474650E-01
   7166.00  3.3922525E-01
   7166.33  3.4366381E-01
   7166.67  3.4806405E-01
   7167.00  3.5242197E-01
   7167.33  3.5672569E-01
   7167.67  3.6097440E-01
   7168.00  3.6516175E-01
   7168.33  3.6927206E-01
   7168.67  3.7330721E-01
   7169.00  3.7726192E-01
   7169.33  3.8111965E-01
   7169.67  3.8488461E-01
   7170.00  3.8854931E-01
   7170.33  3.9208689E-01
   7170.67  3.9549066E-01
   7171.00  3.9873116E-01
   7171.33  4.0171949E-01
   7171.67  4.0436877E-01
   7172.00  4.0652768E-01
