    FDMNES
    energy     <xanes>
   7097.00  4.9880324E-03
   7097.33  5.1031881E-03
   7097.67  5.2234799E-03
   7098.00  5.3492529E-03
   7098.33  5.4816921E-03
   7098.67  5.6205515E-03
   7099.00  5.7663014E-03
   7099.33  5.9204895E-03
   7099.67  6.0828644E-03
   7100.00  6.2540840E-03
   7100.33  6.4362239E-03
   7100.67  6.6290510E-03
   7101.00  6.8335152E-03
   7101.33  7.0524881E-03
   7101.67  7.2858080E-03
   7102.00  7.5348987E-03
   7102.33  7.8038847E-03
   7102.67  8.0927941E-03
   7103.00  8.4038591E-03
   7103.33  8.7432811E-03
   7103.67  9.1115480E-03
   7104.00  9.5123570E-03
   7104.33  9.9555824E-03
   7104.67  1.0442818E-02
   7105.00  1.0980629E-02
   7105.33  1.1585934E-02
   7105.67  1.2263109E-02
   7106.00  1.3024924E-02
   7106.33  1.3903324E-02
   7106.67  1.4910362E-02
   7107.00  1.6074139E-02
   7107.33  1.7463759E-02
   7107.67  1.9115808E-02
   7108.00  2.1104296E-02
   7108.33  2.3612361E-02
   7108.67  2.6776144E-02
   7109.00  3.0854044E-02
   7109.33  3.6521800E-02
   7109.67  4.4511295E-02
   7110.00  5.6252180E-02
   7110.33  7.5854092E-02
   7110.67  1.0801773E-01
   7111.00  1.5568146E-01
   7111.33  2.0588310E-01
   7111.67  2.3941789E-01
   7112.00  2.6801197E-01
   7112.33  2.9704225E-01
   7112.67  3.3508010E-01
   7113.00  3.9276220E-01
   7113.33  4.2500348E-01
   7113.67  3.8091652E-01
   7114.00  2.8773936E-01
   7114.33  2.1371414E-01
   7114.67  1.7383118E-01
   7115.00  1.6119907E-01
   7115.33  1.6977455E-01
   7115.67  1.8771237E-01
   7116.00  2.0132391E-01
   7116.33  1.9281512E-01
   7116.67  1.7031428E-01
   7117.00  1.4785603E-01
   7117.33  1.3397266E-01
   7117.67  1.2792827E-01
   7118.00  1.2805193E-01
   7118.33  1.3158769E-01
   7118.67  1.3555920E-01
   7119.00  1.3954490E-01
   7119.33  1.4348292E-01
   7119.67  1.4738972E-01
   7120.00  1.5030835E-01
   7120.33  1.5114770E-01
   7120.67  1.5177796E-01
   7121.00  1.5436439E-01
   7121.33  1.6098771E-01
   7121.67  1.7197549E-01
   7122.00  1.8743081E-01
   7122.33  2.0699259E-01
   7122.67  2.2878982E-01
   7123.00  2.5180399E-01
   7123.33  2.7523334E-01
   7123.67  2.9826929E-01
   7124.00  3.2023628E-01
   7124.33  3.4014339E-01
   7124.67  3.5762473E-01
   7125.00  3.7235613E-01
   7125.33  3.8374456E-01
   7125.67  3.9231641E-01
   7126.00  3.9895180E-01
   7126.33  4.0547645E-01
   7126.67  4.1367366E-01
   7127.00  4.2447622E-01
   7127.33  4.3858424E-01
   7127.67  4.5534379E-01
   7128.00  4.7439908E-01
   7128.33  4.9582200E-01
   7128.67  5.1917687E-01
   7129.00  5.4395452E-01
   7129.33  5.6912302E-01
   7129.67  5.9365703E-01
   7130.00  6.1738965E-01
   7130.33  6.4107266E-01
   7130.67  6.6615599E-01
   7131.00  6.9382784E-01
   7131.33  7.2458874E-01
   7131.67  7.5593538E-01
   7132.00  7.8402396E-01
   7132.33  8.0218195E-01
   7132.67  8.0756921E-01
   7133.00  8.0044846E-01
   7133.33  7.8457711E-01
   7133.67  7.6715282E-01
   7134.00  7.5206781E-01
   7134.33  7.4186001E-01
   7134.67  7.3603959E-01
   7135.00  7.3387966E-01
   7135.33  7.3451273E-01
   7135.67  7.3632584E-01
   7136.00  7.3816879E-01
   7136.33  7.3859431E-01
   7136.67  7.3670145E-01
   7137.00  7.3193765E-01
   7137.33  7.2386837E-01
   7137.67  7.1343795E-01
   7138.00  7.0153070E-01
   7138.33  6.8930812E-01
   7138.67  6.7788317E-01
   7139.00  6.6793821E-01
   7139.33  6.6019220E-01
   7139.67  6.5458404E-01
   7140.00  6.5110036E-01
   7140.33  6.4983139E-01
   7140.67  6.5025624E-01
   7141.00  6.5205363E-01
   7141.33  6.5486518E-01
   7141.67  6.5800004E-01
   7142.00  6.6087532E-01
   7142.33  6.6266631E-01
   7142.67  6.6289574E-01
   7143.00  6.6121805E-01
   7143.33  6.5721125E-01
   7143.67  6.5120497E-01
   7144.00  6.4338379E-01
   7144.33  6.3381803E-01
   7144.67  6.2295236E-01
   7145.00  6.1098373E-01
   7145.33  5.9805852E-01
   7145.67  5.8462528E-01
   7146.00  5.7107794E-01
   7146.33  5.5802026E-01
   7146.67  5.4595851E-01
   7147.00  5.3529596E-01
   7147.33  5.2653513E-01
   7147.67  5.1952503E-01
   7148.00  5.1415031E-01
   7148.33  5.1030919E-01
   7148.67  5.0747821E-01
   7149.00  5.0535644E-01
   7149.33  5.0371811E-01
   7149.67  5.0234175E-01
   7150.00  5.0117127E-01
   7150.33  5.0024352E-01
   7150.67  4.9958735E-01
   7151.00  4.9926179E-01
   7151.33  4.9937581E-01
   7151.67  4.9991806E-01
   7152.00  5.0089733E-01
   7152.33  5.0234966E-01
   7152.67  5.0417988E-01
   7153.00  5.0633232E-01
   7153.33  5.0875129E-01
   7153.67  5.1130179E-01
   7154.00  5.1387913E-01
   7154.33  5.1633484E-01
   7154.67  5.1854149E-01
   7155.00  5.2038272E-01
   7155.33  5.2167936E-01
   7155.67  5.2240198E-01
   7156.00  5.2250414E-01
   7156.33  5.2189457E-01
   7156.67  5.2068530E-01
   7157.00  5.1893568E-01
   7157.33  5.1668453E-01
   7157.67  5.1409600E-01
   7158.00  5.1126433E-01
   7158.33  5.0827400E-01
   7158.67  5.0523028E-01
   7159.00  5.0219437E-01
   7159.33  4.9922828E-01
   7159.67  4.9636170E-01
   7160.00  4.9361583E-01
   7160.33  4.9102138E-01
   7160.67  4.8856402E-01
   7161.00  4.8623980E-01
   7161.33  4.8405602E-01
   7161.67  4.8198432E-01
   7162.00  4.8001258E-01
   7162.33  4.7813449E-01
   7162.67  4.7631885E-01
   7163.00  4.7454806E-01
   7163.33  4.7280685E-01
   7163.67  4.7107599E-01
   7164.00  4.6934518E-01
   7164.33  4.6760574E-01
   7164.67  4.6585486E-01
   7165.00  4.6409225E-01
   7165.33  4.6231961E-01
   7165.67  4.6054304E-01
   7166.00  4.5876718E-01
   7166.33  4.5699732E-01
   7166.67  4.5523655E-01
   7167.00  4.5348735E-01
   7167.33  4.5175253E-01
   7167.67  4.5002968E-01
   7168.00  4.4831740E-01
   7168.33  4.4661815E-01
   7168.67  4.4493853E-01
   7169.00  4.4328586E-01
   7169.33  4.4167182E-01
   7169.67  4.4010346E-01
   7170.00  4.3859401E-01
   7170.33  4.3717156E-01
   7170.67  4.3584694E-01
   7171.00  4.3463862E-01
   7171.33  4.3358647E-01
   7171.67  4.3269868E-01
   7172.00  4.3199814E-01
