    FDMNES
    energy     <xanes>
   7097.00  4.5349501E-03
   7097.33  4.6355335E-03
   7097.67  4.7405384E-03
   7098.00  4.8502688E-03
   7098.33  4.9657568E-03
   7098.67  5.0868024E-03
   7099.00  5.2138254E-03
   7099.33  5.3481891E-03
   7099.67  5.4896979E-03
   7100.00  5.6389498E-03
   7100.33  5.7978005E-03
   7100.67  5.9660875E-03
   7101.00  6.1446936E-03
   7101.33  6.3362364E-03
   7101.67  6.5406504E-03
   7102.00  6.7592946E-03
   7102.33  6.9960237E-03
   7102.67  7.2510112E-03
   7103.00  7.5264578E-03
   7103.33  7.8283455E-03
   7103.67  8.1574166E-03
   7104.00  8.5174608E-03
   7104.33  8.9183870E-03
   7104.67  9.3623180E-03
   7105.00  9.8563043E-03
   7105.33  1.0418177E-02
   7105.67  1.1053625E-02
   7106.00  1.1777145E-02
   7106.33  1.2624512E-02
   7106.67  1.3611640E-02
   7107.00  1.4772643E-02
   7107.33  1.6190880E-02
   7107.67  1.7916723E-02
   7108.00  2.0047508E-02
   7108.33  2.2824980E-02
   7108.67  2.6448680E-02
   7109.00  3.1291632E-02
   7109.33  3.8343847E-02
   7109.67  4.8762346E-02
   7110.00  6.4819723E-02
   7110.33  9.3184116E-02
   7110.67  1.4187064E-01
   7111.00  2.1441947E-01
   7111.33  2.7774093E-01
   7111.67  3.0734565E-01
   7112.00  3.0473526E-01
   7112.33  2.6842095E-01
   7112.67  2.3869683E-01
   7113.00  2.2506787E-01
   7113.33  1.9748198E-01
   7113.67  1.5757376E-01
   7114.00  1.2378394E-01
   7114.33  1.0256983E-01
   7114.67  8.8042909E-02
   7115.00  7.6416483E-02
   7115.33  6.7689984E-02
   7115.67  5.9314219E-02
   7116.00  5.1452238E-02
   7116.33  4.5934551E-02
   7116.67  4.2417178E-02
   7117.00  4.0411121E-02
   7117.33  3.9613903E-02
   7117.67  3.9569307E-02
   7118.00  4.0030634E-02
   7118.33  4.0830709E-02
   7118.67  4.1918236E-02
   7119.00  4.3413033E-02
   7119.33  4.5564667E-02
   7119.67  4.8457706E-02
   7120.00  5.2214692E-02
   7120.33  5.7110169E-02
   7120.67  6.3203212E-02
   7121.00  7.0713765E-02
   7121.33  8.0190845E-02
   7121.67  9.1786882E-02
   7122.00  1.0581031E-01
   7122.33  1.2288180E-01
   7122.67  1.4276590E-01
   7123.00  1.6535114E-01
   7123.33  1.9060221E-01
   7123.67  2.1780717E-01
   7124.00  2.4667827E-01
   7124.33  2.7712865E-01
   7124.67  3.0861594E-01
   7125.00  3.4068679E-01
   7125.33  3.7290853E-01
   7125.67  4.0517812E-01
   7126.00  4.3789478E-01
   7126.33  4.7243533E-01
   7126.67  5.0958029E-01
   7127.00  5.4867037E-01
   7127.33  5.8711745E-01
   7127.67  6.2335331E-01
   7128.00  6.5917592E-01
   7128.33  6.9909457E-01
   7128.67  7.4434711E-01
   7129.00  7.9336862E-01
   7129.33  8.4107151E-01
   7129.67  8.8075044E-01
   7130.00  9.0816428E-01
   7130.33  9.2253825E-01
   7130.67  9.3101450E-01
   7131.00  9.3901531E-01
   7131.33  9.4983442E-01
   7131.67  9.6122271E-01
   7132.00  9.6951138E-01
   7132.33  9.7100462E-01
   7132.67  9.6590035E-01
   7133.00  9.5464168E-01
   7133.33  9.3710564E-01
   7133.67  9.1458766E-01
   7134.00  8.8802431E-01
   7134.33  8.5909606E-01
   7134.67  8.3037185E-01
   7135.00  8.0313655E-01
   7135.33  7.7783669E-01
   7135.67  7.5386792E-01
   7136.00  7.3097496E-01
   7136.33  7.0921392E-01
   7136.67  6.8855145E-01
   7137.00  6.6913206E-01
   7137.33  6.5132148E-01
   7137.67  6.3510455E-01
   7138.00  6.2057590E-01
   7138.33  6.0801354E-01
   7138.67  5.9722579E-01
   7139.00  5.8821431E-01
   7139.33  5.8117269E-01
   7139.67  5.7582686E-01
   7140.00  5.7210454E-01
   7140.33  5.7007542E-01
   7140.67  5.6938815E-01
   7141.00  5.6985938E-01
   7141.33  5.7132944E-01
   7141.67  5.7336072E-01
   7142.00  5.7564731E-01
   7142.33  5.7783806E-01
   7142.67  5.7968765E-01
   7143.00  5.8109855E-01
   7143.33  5.8205387E-01
   7143.67  5.8274549E-01
   7144.00  5.8334298E-01
   7144.33  5.8407221E-01
   7144.67  5.8509825E-01
   7145.00  5.8652254E-01
   7145.33  5.8845161E-01
   7145.67  5.9080961E-01
   7146.00  5.9352408E-01
   7146.33  5.9646761E-01
   7146.67  5.9937453E-01
   7147.00  6.0195511E-01
   7147.33  6.0368062E-01
   7147.67  6.0413715E-01
   7148.00  6.0287640E-01
   7148.33  5.9918430E-01
   7148.67  5.9307746E-01
   7149.00  5.8455688E-01
   7149.33  5.7361445E-01
   7149.67  5.6098297E-01
   7150.00  5.4713295E-01
   7150.33  5.3250700E-01
   7150.67  5.1762877E-01
   7151.00  5.0277810E-01
   7151.33  4.8820996E-01
   7151.67  4.7402846E-01
   7152.00  4.6029704E-01
   7152.33  4.4710972E-01
   7152.67  4.3441860E-01
   7153.00  4.2223033E-01
   7153.33  4.1060481E-01
   7153.67  3.9946642E-01
   7154.00  3.8880234E-01
   7154.33  3.7865481E-01
   7154.67  3.6895340E-01
   7155.00  3.5968874E-01
   7155.33  3.5090150E-01
   7155.67  3.4253374E-01
   7156.00  3.3458943E-01
   7156.33  3.2713092E-01
   7156.67  3.2011360E-01
   7157.00  3.1354355E-01
   7157.33  3.0747710E-01
   7157.67  3.0184926E-01
   7158.00  2.9664526E-01
   7158.33  2.9189237E-01
   7158.67  2.8751688E-01
   7159.00  2.8350262E-01
   7159.33  2.7988277E-01
   7159.67  2.7661584E-01
   7160.00  2.7371558E-01
   7160.33  2.7125764E-01
   7160.67  2.6922558E-01
   7161.00  2.6765031E-01
   7161.33  2.6663132E-01
   7161.67  2.6614483E-01
   7162.00  2.6622313E-01
   7162.33  2.6697481E-01
   7162.67  2.6834537E-01
   7163.00  2.7034481E-01
   7163.33  2.7306467E-01
   7163.67  2.7642417E-01
   7164.00  2.8040394E-01
   7164.33  2.8503475E-01
   7164.67  2.9018030E-01
   7165.00  2.9577339E-01
   7165.33  3.0177774E-01
   7165.67  3.0806206E-01
   7166.00  3.1455367E-01
   7166.33  3.2119132E-01
   7166.67  3.2789295E-01
   7167.00  3.3461235E-01
   7167.33  3.4130287E-01
   7167.67  3.4793503E-01
   7168.00  3.5449034E-01
   7168.33  3.6094075E-01
   7168.67  3.6728367E-01
   7169.00  3.7351124E-01
   7169.33  3.7960079E-01
   7169.67  3.8555779E-01
   7170.00  3.9136970E-01
   7170.33  3.9699426E-01
   7170.67  4.0241798E-01
   7171.00  4.0759262E-01
   7171.33  4.1237527E-01
   7171.67  4.1662120E-01
   7172.00  4.2008109E-01
