    FDMNES
    energy     <xanes>
   7097.00  4.1401735E-03
   7097.33  4.2179208E-03
   7097.67  4.2984368E-03
   7098.00  4.3818781E-03
   7098.33  4.4688345E-03
   7098.67  4.5591357E-03
   7099.00  4.6529891E-03
   7099.33  4.7511396E-03
   7099.67  4.8534076E-03
   7100.00  4.9600769E-03
   7100.33  5.0721134E-03
   7100.67  5.1893378E-03
   7101.00  5.3121524E-03
   7101.33  5.4418523E-03
   7101.67  5.5782807E-03
   7102.00  5.7220321E-03
   7102.33  5.8749186E-03
   7102.67  6.0368556E-03
   7103.00  6.2087699E-03
   7103.33  6.3933339E-03
   7103.67  6.5906546E-03
   7104.00  6.8022728E-03
   7104.33  7.0324038E-03
   7104.67  7.2816421E-03
   7105.00  7.5527656E-03
   7105.33  7.8530278E-03
   7105.67  8.1843073E-03
   7106.00  8.5521646E-03
   7106.33  8.9705968E-03
   7106.67  9.4451894E-03
   7107.00  9.9887378E-03
   7107.33  1.0632825E-02
   7107.67  1.1395509E-02
   7108.00  1.2312622E-02
   7108.33  1.3473426E-02
   7108.67  1.4949605E-02
   7109.00  1.6876200E-02
   7109.33  1.9611113E-02
   7109.67  2.3566549E-02
   7110.00  2.9550327E-02
   7110.33  3.9894955E-02
   7110.67  5.7141717E-02
   7111.00  8.2206919E-02
   7111.33  1.0944422E-01
   7111.67  1.2944390E-01
   7112.00  1.3103568E-01
   7112.33  1.1400229E-01
   7112.67  9.5727026E-02
   7113.00  8.0944827E-02
   7113.33  6.8328852E-02
   7113.67  5.7892535E-02
   7114.00  5.1310072E-02
   7114.33  4.7338615E-02
   7114.67  4.3454043E-02
   7115.00  4.0170219E-02
   7115.33  3.8574801E-02
   7115.67  3.8340397E-02
   7116.00  3.9166031E-02
   7116.33  4.0879185E-02
   7116.67  4.3258531E-02
   7117.00  4.6352418E-02
   7117.33  5.0448779E-02
   7117.67  5.5597336E-02
   7118.00  6.1827409E-02
   7118.33  6.9091956E-02
   7118.67  7.6885079E-02
   7119.00  8.4728685E-02
   7119.33  9.1992180E-02
   7119.67  9.8544180E-02
   7120.00  1.0481902E-01
   7120.33  1.1197787E-01
   7120.67  1.2108199E-01
   7121.00  1.3292334E-01
   7121.33  1.4836068E-01
   7121.67  1.6674616E-01
   7122.00  1.8742530E-01
   7122.33  2.0979594E-01
   7122.67  2.3326632E-01
   7123.00  2.5844117E-01
   7123.33  2.8813833E-01
   7123.67  3.2255705E-01
   7124.00  3.5736827E-01
   7124.33  3.8478851E-01
   7124.67  4.0298802E-01
   7125.00  4.1306203E-01
   7125.33  4.1982624E-01
   7125.67  4.3081880E-01
   7126.00  4.4867874E-01
   7126.33  4.7222827E-01
   7126.67  4.9893345E-01
   7127.00  5.2923693E-01
   7127.33  5.6541679E-01
   7127.67  6.0755401E-01
   7128.00  6.5437279E-01
   7128.33  7.0226290E-01
   7128.67  7.4641506E-01
   7129.00  7.8331693E-01
   7129.33  8.0916582E-01
   7129.67  8.2449221E-01
   7130.00  8.2997591E-01
   7130.33  8.2658691E-01
   7130.67  8.1849587E-01
   7131.00  8.0930863E-01
   7131.33  8.0379761E-01
   7131.67  8.0455534E-01
   7132.00  8.1180282E-01
   7132.33  8.2261095E-01
   7132.67  8.3053058E-01
   7133.00  8.3087924E-01
   7133.33  8.2080919E-01
   7133.67  8.0384919E-01
   7134.00  7.8339624E-01
   7134.33  7.6288920E-01
   7134.67  7.4443345E-01
   7135.00  7.2887022E-01
   7135.33  7.1692382E-01
   7135.67  7.0816649E-01
   7136.00  7.0243110E-01
   7136.33  6.9971540E-01
   7136.67  6.9916966E-01
   7137.00  7.0020022E-01
   7137.33  7.0206373E-01
   7137.67  7.0378369E-01
   7138.00  7.0468578E-01
   7138.33  7.0405129E-01
   7138.67  7.0182778E-01
   7139.00  6.9805854E-01
   7139.33  6.9279517E-01
   7139.67  6.8648094E-01
   7140.00  6.7933894E-01
   7140.33  6.7151666E-01
   7140.67  6.6328632E-01
   7141.00  6.5480435E-01
   7141.33  6.4622180E-01
   7141.67  6.3768600E-01
   7142.00  6.2928936E-01
   7142.33  6.2113269E-01
   7142.67  6.1323712E-01
   7143.00  6.0563141E-01
   7143.33  5.9837816E-01
   7143.67  5.9145288E-01
   7144.00  5.8486275E-01
   7144.33  5.7865185E-01
   7144.67  5.7277319E-01
   7145.00  5.6721712E-01
   7145.33  5.6200168E-01
   7145.67  5.5705606E-01
   7146.00  5.5233721E-01
   7146.33  5.4779098E-01
   7146.67  5.4329775E-01
   7147.00  5.3875395E-01
   7147.33  5.3400793E-01
   7147.67  5.2896076E-01
   7148.00  5.2352854E-01
   7148.33  5.1759286E-01
   7148.67  5.1118551E-01
   7149.00  5.0431009E-01
   7149.33  4.9693779E-01
   7149.67  4.8916730E-01
   7150.00  4.8104530E-01
   7150.33  4.7259766E-01
   7150.67  4.6391936E-01
   7151.00  4.5505612E-01
   7151.33  4.4603781E-01
   7151.67  4.3692832E-01
   7152.00  4.2777587E-01
   7152.33  4.1864488E-01
   7152.67  4.0959566E-01
   7153.00  4.0068756E-01
   7153.33  3.9202293E-01
   7153.67  3.8365302E-01
   7154.00  3.7564377E-01
   7154.33  3.6811781E-01
   7154.67  3.6107578E-01
   7155.00  3.5454888E-01
   7155.33  3.4861936E-01
   7155.67  3.4321648E-01
   7156.00  3.3832428E-01
   7156.33  3.3397651E-01
   7156.67  3.3008497E-01
   7157.00  3.2662988E-01
   7157.33  3.2364716E-01
   7157.67  3.2107508E-01
   7158.00  3.1891028E-01
   7158.33  3.1720264E-01
   7158.67  3.1590563E-01
   7159.00  3.1502749E-01
   7159.33  3.1464290E-01
   7159.67  3.1472875E-01
   7160.00  3.1532084E-01
   7160.33  3.1653695E-01
   7160.67  3.1835697E-01
   7161.00  3.2081779E-01
   7161.33  3.2402946E-01
   7161.67  3.2791002E-01
   7162.00  3.3244005E-01
   7162.33  3.3764753E-01
   7162.67  3.4339003E-01
   7163.00  3.4959430E-01
   7163.33  3.5620578E-01
   7163.67  3.6307654E-01
   7164.00  3.7011996E-01
   7164.33  3.7724655E-01
   7164.67  3.8435360E-01
   7165.00  3.9136761E-01
   7165.33  3.9819271E-01
   7165.67  4.0478755E-01
   7166.00  4.1110860E-01
   7166.33  4.1707649E-01
   7166.67  4.2270084E-01
   7167.00  4.2796636E-01
   7167.33  4.3282094E-01
   7167.67  4.3731346E-01
   7168.00  4.4145304E-01
   7168.33  4.4521461E-01
   7168.67  4.4866148E-01
   7169.00  4.5181371E-01
   7169.33  4.5466177E-01
   7169.67  4.5726355E-01
   7170.00  4.5963898E-01
   7170.33  4.6178396E-01
   7170.67  4.6374181E-01
   7171.00  4.6552194E-01
   7171.33  4.6710020E-01
   7171.67  4.6847214E-01
   7172.00  4.6959000E-01
