    FDMNES
    energy     <xanes>
   7097.00  4.3670174E-03
   7097.33  4.4644247E-03
   7097.67  4.5662006E-03
   7098.00  4.6726459E-03
   7098.33  4.7847805E-03
   7098.67  4.9024054E-03
   7099.00  5.0259334E-03
   7099.33  5.1567064E-03
   7099.67  5.2945247E-03
   7100.00  5.4399704E-03
   7100.33  5.5948575E-03
   7100.67  5.7590091E-03
   7101.00  5.9332727E-03
   7101.33  6.1201801E-03
   7101.67  6.3196284E-03
   7102.00  6.5328991E-03
   7102.33  6.7636637E-03
   7102.67  7.0120058E-03
   7103.00  7.2799525E-03
   7103.33  7.5730804E-03
   7103.67  7.8919152E-03
   7104.00  8.2398437E-03
   7104.33  8.6258349E-03
   7104.67  9.0514665E-03
   7105.00  9.5227979E-03
   7105.33  1.0055338E-02
   7105.67  1.0653288E-02
   7106.00  1.1328491E-02
   7106.33  1.2110430E-02
   7106.67  1.3010456E-02
   7107.00  1.4054626E-02
   7107.33  1.5306777E-02
   7107.67  1.6800668E-02
   7108.00  1.8604185E-02
   7108.33  2.0884423E-02
   7108.67  2.3762790E-02
   7109.00  2.7468379E-02
   7109.33  3.2592453E-02
   7109.67  3.9746040E-02
   7110.00  5.0107679E-02
   7110.33  6.7046316E-02
   7110.67  9.4889717E-02
   7111.00  1.3961143E-01
   7111.33  2.0406138E-01
   7111.67  2.5550071E-01
   7112.00  2.7008400E-01
   7112.33  2.9518705E-01
   7112.67  3.5830572E-01
   7113.00  4.1499899E-01
   7113.33  3.7544854E-01
   7113.67  2.8640768E-01
   7114.00  2.1098562E-01
   7114.33  1.6678284E-01
   7114.67  1.3951620E-01
   7115.00  1.2120686E-01
   7115.33  1.0917069E-01
   7115.67  9.9813721E-02
   7116.00  8.9061120E-02
   7116.33  7.7134570E-02
   7116.67  6.7619045E-02
   7117.00  6.1027338E-02
   7117.33  5.7168586E-02
   7117.67  5.5465451E-02
   7118.00  5.5547728E-02
   7118.33  5.6718078E-02
   7118.67  5.8171634E-02
   7119.00  6.0106439E-02
   7119.33  6.3523768E-02
   7119.67  6.8928801E-02
   7120.00  7.6451942E-02
   7120.33  8.5617336E-02
   7120.67  9.4890779E-02
   7121.00  1.0371313E-01
   7121.33  1.1301078E-01
   7121.67  1.2412487E-01
   7122.00  1.3758632E-01
   7122.33  1.5247687E-01
   7122.67  1.6609798E-01
   7123.00  1.7729862E-01
   7123.33  1.8728131E-01
   7123.67  1.9864921E-01
   7124.00  2.1284024E-01
   7124.33  2.3054302E-01
   7124.67  2.5138261E-01
   7125.00  2.7575594E-01
   7125.33  3.0370241E-01
   7125.67  3.3297111E-01
   7126.00  3.6196407E-01
   7126.33  3.9052754E-01
   7126.67  4.1992344E-01
   7127.00  4.5120873E-01
   7127.33  4.8666628E-01
   7127.67  5.2802671E-01
   7128.00  5.7513914E-01
   7128.33  6.2298284E-01
   7128.67  6.6080259E-01
   7129.00  6.7753541E-01
   7129.33  6.6312482E-01
   7129.67  6.2729261E-01
   7130.00  5.8109821E-01
   7130.33  5.3481445E-01
   7130.67  4.9442959E-01
   7131.00  4.6368020E-01
   7131.33  4.4669628E-01
   7131.67  4.4021815E-01
   7132.00  4.3920598E-01
   7132.33  4.3757777E-01
   7132.67  4.3312892E-01
   7133.00  4.2654216E-01
   7133.33  4.1920293E-01
   7133.67  4.1225488E-01
   7134.00  4.0625298E-01
   7134.33  4.0176983E-01
   7134.67  3.9880675E-01
   7135.00  3.9733950E-01
   7135.33  3.9739693E-01
   7135.67  3.9868152E-01
   7136.00  4.0117047E-01
   7136.33  4.0509859E-01
   7136.67  4.1041185E-01
   7137.00  4.1715547E-01
   7137.33  4.2545713E-01
   7137.67  4.3499319E-01
   7138.00  4.4556690E-01
   7138.33  4.5697790E-01
   7138.67  4.6877034E-01
   7139.00  4.8057108E-01
   7139.33  4.9179790E-01
   7139.67  5.0196242E-01
   7140.00  5.1067676E-01
   7140.33  5.1747422E-01
   7140.67  5.2255172E-01
   7141.00  5.2604919E-01
   7141.33  5.2804758E-01
   7141.67  5.2895457E-01
   7142.00  5.2893691E-01
   7142.33  5.2805642E-01
   7142.67  5.2656306E-01
   7143.00  5.2464355E-01
   7143.33  5.2260272E-01
   7143.67  5.2084149E-01
   7144.00  5.1967691E-01
   7144.33  5.1949236E-01
   7144.67  5.2039260E-01
   7145.00  5.2252459E-01
   7145.33  5.2616634E-01
   7145.67  5.3120539E-01
   7146.00  5.3765696E-01
   7146.33  5.4568547E-01
   7146.67  5.5507788E-01
   7147.00  5.6578194E-01
   7147.33  5.7786992E-01
   7147.67  5.9108448E-01
   7148.00  6.0531908E-01
   7148.33  6.2054102E-01
   7148.67  6.3647840E-01
   7149.00  6.5297437E-01
   7149.33  6.6986661E-01
   7149.67  6.8687472E-01
   7150.00  7.0377700E-01
   7150.33  7.2027863E-01
   7150.67  7.3618805E-01
   7151.00  7.5129687E-01
   7151.33  7.6522602E-01
   7151.67  7.7786991E-01
   7152.00  7.8904993E-01
   7152.33  7.9839269E-01
   7152.67  8.0597529E-01
   7153.00  8.1172220E-01
   7153.33  8.1534964E-01
   7153.67  8.1708644E-01
   7154.00  8.1695836E-01
   7154.33  8.1480618E-01
   7154.67  8.1095900E-01
   7155.00  8.0553740E-01
   7155.33  7.9854432E-01
   7155.67  7.9037086E-01
   7156.00  7.8122981E-01
   7156.33  7.7130322E-01
   7156.67  7.6095559E-01
   7157.00  7.5041821E-01
   7157.33  7.3994761E-01
   7157.67  7.2975515E-01
   7158.00  7.1999894E-01
   7158.33  7.1089602E-01
   7158.67  7.0247596E-01
   7159.00  6.9479720E-01
   7159.33  6.8798511E-01
   7159.67  6.8191940E-01
   7160.00  6.7654045E-01
   7160.33  6.7181848E-01
   7160.67  6.6755545E-01
   7161.00  6.6363670E-01
   7161.33  6.5995672E-01
   7161.67  6.5636519E-01
   7162.00  6.5276295E-01
   7162.33  6.4902235E-01
   7162.67  6.4504411E-01
   7163.00  6.4072537E-01
   7163.33  6.3588462E-01
   7163.67  6.3046052E-01
   7164.00  6.2436372E-01
   7164.33  6.1742352E-01
   7164.67  6.0969695E-01
   7165.00  6.0119087E-01
   7165.33  5.9186657E-01
   7165.67  5.8190882E-01
   7166.00  5.7142352E-01
   7166.33  5.6050287E-01
   7166.67  5.4934265E-01
   7167.00  5.3806789E-01
   7167.33  5.2681965E-01
   7167.67  5.1572200E-01
   7168.00  5.0487409E-01
   7168.33  4.9442431E-01
   7168.67  4.8442122E-01
   7169.00  4.7493379E-01
   7169.33  4.6610158E-01
   7169.67  4.5790586E-01
   7170.00  4.5038398E-01
   7170.33  4.4365703E-01
   7170.67  4.3765919E-01
   7171.00  4.3240395E-01
   7171.33  4.2799934E-01
   7171.67  4.2437127E-01
   7172.00  4.2154116E-01
