    FDMNES
    energy     <xanes>
   7097.00  5.6186729E-03
   7097.33  5.7746667E-03
   7097.67  5.9388352E-03
   7098.00  6.1117965E-03
   7098.33  6.2955517E-03
   7098.67  6.4898024E-03
   7099.00  6.6954118E-03
   7099.33  6.9150703E-03
   7099.67  7.1484986E-03
   7100.00  7.3969358E-03
   7100.33  7.6641010E-03
   7100.67  7.9497934E-03
   7101.00  8.2558511E-03
   7101.33  8.5875858E-03
   7101.67  8.9450043E-03
   7102.00  9.3309394E-03
   7102.33  9.7532799E-03
   7102.67  1.0212523E-02
   7103.00  1.0713242E-02
   7103.33  1.1267719E-02
   7103.67  1.1877590E-02
   7104.00  1.2550661E-02
   7104.33  1.3307220E-02
   7104.67  1.4151594E-02
   7105.00  1.5098096E-02
   7105.33  1.6182835E-02
   7105.67  1.7416923E-02
   7106.00  1.8829130E-02
   7106.33  2.0490401E-02
   7106.67  2.2430730E-02
   7107.00  2.4715645E-02
   7107.33  2.7505015E-02
   7107.67  3.0890087E-02
   7108.00  3.5049596E-02
   7108.33  4.0425025E-02
   7108.67  4.7360675E-02
   7109.00  5.6502433E-02
   7109.33  6.9544989E-02
   7109.67  8.8375799E-02
   7110.00  1.1667488E-01
   7110.33  1.6497514E-01
   7110.67  2.4449289E-01
   7111.00  3.5828645E-01
   7111.33  4.7502451E-01
   7111.67  5.7950444E-01
   7112.00  6.9493471E-01
   7112.33  8.1633443E-01
   7112.67  8.4560433E-01
   7113.00  7.2066477E-01
   7113.33  5.3083406E-01
   7113.67  3.8003155E-01
   7114.00  2.7957226E-01
   7114.33  2.1916706E-01
   7114.67  1.8031453E-01
   7115.00  1.5553681E-01
   7115.33  1.4104066E-01
   7115.67  1.3304708E-01
   7116.00  1.2999662E-01
   7116.33  1.3030558E-01
   7116.67  1.3123952E-01
   7117.00  1.3087975E-01
   7117.33  1.2863968E-01
   7117.67  1.2638896E-01
   7118.00  1.2572081E-01
   7118.33  1.2800701E-01
   7118.67  1.3262308E-01
   7119.00  1.3812289E-01
   7119.33  1.4206285E-01
   7119.67  1.4326033E-01
   7120.00  1.4221681E-01
   7120.33  1.4086944E-01
   7120.67  1.4106451E-01
   7121.00  1.4349143E-01
   7121.33  1.4863091E-01
   7121.67  1.5636421E-01
   7122.00  1.6748735E-01
   7122.33  1.8415283E-01
   7122.67  2.0659286E-01
   7123.00  2.3402206E-01
   7123.33  2.6361165E-01
   7123.67  2.9075221E-01
   7124.00  3.1251069E-01
   7124.33  3.2725209E-01
   7124.67  3.3697994E-01
   7125.00  3.4334784E-01
   7125.33  3.4834321E-01
   7125.67  3.5425595E-01
   7126.00  3.6235437E-01
   7126.33  3.7276362E-01
   7126.67  3.8337931E-01
   7127.00  3.9240215E-01
   7127.33  3.9899601E-01
   7127.67  4.0513787E-01
   7128.00  4.1335492E-01
   7128.33  4.2663972E-01
   7128.67  4.4517702E-01
   7129.00  4.6829858E-01
   7129.33  4.9449993E-01
   7129.67  5.2107245E-01
   7130.00  5.4650355E-01
   7130.33  5.7047776E-01
   7130.67  5.9438901E-01
   7131.00  6.1940507E-01
   7131.33  6.4613704E-01
   7131.67  6.7302510E-01
   7132.00  6.9717894E-01
   7132.33  7.1303339E-01
   7132.67  7.1759682E-01
   7133.00  7.0997372E-01
   7133.33  6.9136438E-01
   7133.67  6.6722309E-01
   7134.00  6.4055031E-01
   7134.33  6.1298191E-01
   7134.67  5.8533956E-01
   7135.00  5.5833466E-01
   7135.33  5.3321026E-01
   7135.67  5.1056898E-01
   7136.00  4.9074661E-01
   7136.33  4.7420157E-01
   7136.67  4.6061167E-01
   7137.00  4.5013101E-01
   7137.33  4.4354380E-01
   7137.67  4.4084259E-01
   7138.00  4.4230629E-01
   7138.33  4.4851326E-01
   7138.67  4.5856856E-01
   7139.00  4.7178376E-01
   7139.33  4.8723070E-01
   7139.67  5.0327416E-01
   7140.00  5.1877707E-01
   7140.33  5.3255181E-01
   7140.67  5.4430461E-01
   7141.00  5.5400669E-01
   7141.33  5.6170457E-01
   7141.67  5.6804928E-01
   7142.00  5.7341665E-01
   7142.33  5.7807292E-01
   7142.67  5.8228651E-01
   7143.00  5.8608525E-01
   7143.33  5.8931444E-01
   7143.67  5.9188969E-01
   7144.00  5.9371841E-01
   7144.33  5.9472590E-01
   7144.67  5.9519382E-01
   7145.00  5.9541053E-01
   7145.33  5.9581798E-01
   7145.67  5.9683575E-01
   7146.00  5.9881979E-01
   7146.33  6.0231205E-01
   7146.67  6.0748141E-01
   7147.00  6.1459187E-01
   7147.33  6.2418816E-01
   7147.67  6.3619461E-01
   7148.00  6.5070213E-01
   7148.33  6.6799249E-01
   7148.67  6.8758406E-01
   7149.00  7.0921497E-01
   7149.33  7.3258663E-01
   7149.67  7.5679333E-01
   7150.00  7.8108510E-01
   7150.33  8.0442023E-01
   7150.67  8.2603692E-01
   7151.00  8.4534056E-01
   7151.33  8.6152542E-01
   7151.67  8.7470357E-01
   7152.00  8.8477929E-01
   7152.33  8.9125030E-01
   7152.67  8.9434185E-01
   7153.00  8.9383596E-01
   7153.33  8.8899571E-01
   7153.67  8.8018721E-01
   7154.00  8.6753038E-01
   7154.33  8.5104744E-01
   7154.67  8.3188657E-01
   7155.00  8.1078439E-01
   7155.33  7.8845301E-01
   7155.67  7.6575597E-01
   7156.00  7.4317659E-01
   7156.33  7.2117378E-01
   7156.67  6.9992243E-01
   7157.00  6.7953418E-01
   7157.33  6.6018266E-01
   7157.67  6.4175850E-01
   7158.00  6.2423946E-01
   7158.33  6.0769254E-01
   7158.67  5.9196670E-01
   7159.00  5.7702692E-01
   7159.33  5.6292505E-01
   7159.67  5.4952399E-01
   7160.00  5.3677885E-01
   7160.33  5.2469466E-01
   7160.67  5.1310952E-01
   7161.00  5.0193492E-01
   7161.33  4.9111207E-01
   7161.67  4.8053278E-01
   7162.00  4.7017494E-01
   7162.33  4.6009377E-01
   7162.67  4.5033161E-01
   7163.00  4.4097570E-01
   7163.33  4.3219344E-01
   7163.67  4.2400180E-01
   7164.00  4.1643818E-01
   7164.33  4.0958099E-01
   7164.67  4.0330879E-01
   7165.00  3.9755844E-01
   7165.33  3.9228714E-01
   7165.67  3.8732368E-01
   7166.00  3.8256296E-01
   7166.33  3.7791403E-01
   7166.67  3.7328384E-01
   7167.00  3.6862198E-01
   7167.33  3.6388804E-01
   7167.67  3.5908918E-01
   7168.00  3.5424847E-01
   7168.33  3.4941509E-01
   7168.67  3.4465284E-01
   7169.00  3.4002379E-01
   7169.33  3.3562476E-01
   7169.67  3.3149244E-01
   7170.00  3.2766973E-01
   7170.33  3.2423672E-01
   7170.67  3.2117351E-01
   7171.00  3.1849097E-01
   7171.33  3.1624296E-01
   7171.67  3.1438592E-01
   7172.00  3.1292349E-01
