    FDMNES
    energy     <xanes>
   7097.00  5.1087835E-03
   7097.33  5.2258148E-03
   7097.67  5.3479843E-03
   7098.00  5.4756270E-03
   7098.33  5.6099100E-03
   7098.67  5.7505719E-03
   7099.00  5.8980635E-03
   7099.33  6.0538934E-03
   7099.67  6.2177867E-03
   7100.00  6.3903648E-03
   7100.33  6.5736247E-03
   7100.67  6.7672949E-03
   7101.00  6.9722571E-03
   7101.33  7.1912296E-03
   7101.67  7.4239834E-03
   7102.00  7.6718128E-03
   7102.33  7.9385441E-03
   7102.67  8.2240788E-03
   7103.00  8.5303953E-03
   7103.33  8.8631058E-03
   7103.67  9.2224399E-03
   7104.00  9.6115785E-03
   7104.33  1.0039187E-02
   7104.67  1.0506291E-02
   7105.00  1.1018340E-02
   7105.33  1.1589632E-02
   7105.67  1.2223171E-02
   7106.00  1.2929113E-02
   7106.33  1.3733243E-02
   7106.67  1.4643893E-02
   7107.00  1.5682323E-02
   7107.33  1.6901285E-02
   7107.67  1.8325622E-02
   7108.00  2.0008195E-02
   7108.33  2.2080047E-02
   7108.67  2.4630801E-02
   7109.00  2.7834323E-02
   7109.33  3.2143412E-02
   7109.67  3.8026326E-02
   7110.00  4.6400319E-02
   7110.33  5.9837395E-02
   7110.67  8.0675778E-02
   7111.00  1.0850532E-01
   7111.33  1.3808455E-01
   7111.67  1.7131961E-01
   7112.00  2.0946674E-01
   7112.33  2.5233997E-01
   7112.67  2.9223238E-01
   7113.00  3.1758201E-01
   7113.33  3.3154999E-01
   7113.67  3.4621320E-01
   7114.00  3.6786927E-01
   7114.33  3.8700875E-01
   7114.67  3.8683700E-01
   7115.00  3.7269814E-01
   7115.33  3.5519211E-01
   7115.67  3.3610938E-01
   7116.00  3.1860001E-01
   7116.33  3.1012750E-01
   7116.67  3.1179047E-01
   7117.00  3.1911012E-01
   7117.33  3.1865159E-01
   7117.67  3.0049213E-01
   7118.00  2.6731619E-01
   7118.33  2.3111524E-01
   7118.67  2.0080907E-01
   7119.00  1.7811065E-01
   7119.33  1.6260454E-01
   7119.67  1.5152079E-01
   7120.00  1.4357814E-01
   7120.33  1.3836053E-01
   7120.67  1.3526613E-01
   7121.00  1.3381140E-01
   7121.33  1.3297776E-01
   7121.67  1.3205536E-01
   7122.00  1.3171665E-01
   7122.33  1.3354278E-01
   7122.67  1.3796621E-01
   7123.00  1.4497366E-01
   7123.33  1.5452348E-01
   7123.67  1.6588647E-01
   7124.00  1.7865605E-01
   7124.33  1.9245278E-01
   7124.67  2.0685002E-01
   7125.00  2.2222816E-01
   7125.33  2.4013264E-01
   7125.67  2.6116649E-01
   7126.00  2.8475558E-01
   7126.33  3.0903721E-01
   7126.67  3.3257833E-01
   7127.00  3.5582165E-01
   7127.33  3.7993704E-01
   7127.67  4.0415009E-01
   7128.00  4.2668300E-01
   7128.33  4.4614056E-01
   7128.67  4.6398508E-01
   7129.00  4.8206614E-01
   7129.33  5.0244614E-01
   7129.67  5.2594876E-01
   7130.00  5.5310712E-01
   7130.33  5.8462185E-01
   7130.67  6.1980354E-01
   7131.00  6.5817918E-01
   7131.33  6.9922624E-01
   7131.67  7.4166458E-01
   7132.00  7.8463682E-01
   7132.33  8.2715289E-01
   7132.67  8.6826636E-01
   7133.00  9.0680046E-01
   7133.33  9.4001819E-01
   7133.67  9.6551707E-01
   7134.00  9.8064278E-01
   7134.33  9.8190139E-01
   7134.67  9.7098459E-01
   7135.00  9.4960737E-01
   7135.33  9.1976037E-01
   7135.67  8.8532182E-01
   7136.00  8.4834786E-01
   7136.33  8.1047940E-01
   7136.67  7.7298904E-01
   7137.00  7.3659522E-01
   7137.33  7.0219292E-01
   7137.67  6.7017327E-01
   7138.00  6.4104375E-01
   7138.33  6.1575699E-01
   7138.67  5.9424738E-01
   7139.00  5.7662317E-01
   7139.33  5.6320917E-01
   7139.67  5.5314738E-01
   7140.00  5.4598630E-01
   7140.33  5.4145737E-01
   7140.67  5.3873120E-01
   7141.00  5.3738286E-01
   7141.33  5.3706246E-01
   7141.67  5.3720453E-01
   7142.00  5.3742155E-01
   7142.33  5.3722466E-01
   7142.67  5.3626708E-01
   7143.00  5.3429792E-01
   7143.33  5.3102670E-01
   7143.67  5.2662047E-01
   7144.00  5.2120907E-01
   7144.33  5.1492532E-01
   7144.67  5.0813445E-01
   7145.00  5.0107361E-01
   7145.33  4.9400940E-01
   7145.67  4.8718591E-01
   7146.00  4.8078378E-01
   7146.33  4.7502728E-01
   7146.67  4.6992001E-01
   7147.00  4.6549298E-01
   7147.33  4.6185664E-01
   7147.67  4.5893485E-01
   7148.00  4.5673029E-01
   7148.33  4.5532866E-01
   7148.67  4.5463175E-01
   7149.00  4.5462858E-01
   7149.33  4.5538838E-01
   7149.67  4.5680742E-01
   7150.00  4.5886306E-01
   7150.33  4.6159097E-01
   7150.67  4.6487299E-01
   7151.00  4.6866984E-01
   7151.33  4.7298593E-01
   7151.67  4.7770060E-01
   7152.00  4.8275246E-01
   7152.33  4.8809602E-01
   7152.67  4.9361648E-01
   7153.00  4.9924180E-01
   7153.33  5.0489340E-01
   7153.67  5.1049160E-01
   7154.00  5.1597363E-01
   7154.33  5.2124826E-01
   7154.67  5.2628070E-01
   7155.00  5.3103125E-01
   7155.33  5.3542534E-01
   7155.67  5.3947851E-01
   7156.00  5.4317803E-01
   7156.33  5.4647258E-01
   7156.67  5.4940896E-01
   7157.00  5.5199459E-01
   7157.33  5.5420282E-01
   7157.67  5.5609706E-01
   7158.00  5.5769969E-01
   7158.33  5.5900729E-01
   7158.67  5.6008387E-01
   7159.00  5.6095653E-01
   7159.33  5.6163434E-01
   7159.67  5.6216734E-01
   7160.00  5.6257684E-01
   7160.33  5.6286981E-01
   7160.67  5.6307317E-01
   7161.00  5.6319484E-01
   7161.33  5.6322987E-01
   7161.67  5.6318543E-01
   7162.00  5.6305546E-01
   7162.33  5.6281662E-01
   7162.67  5.6246233E-01
   7163.00  5.6197229E-01
   7163.33  5.6130442E-01
   7163.67  5.6045714E-01
   7164.00  5.5941507E-01
   7164.33  5.5813899E-01
   7164.67  5.5664435E-01
   7165.00  5.5492474E-01
   7165.33  5.5294835E-01
   7165.67  5.5074485E-01
   7166.00  5.4831904E-01
   7166.33  5.4565495E-01
   7166.67  5.4279391E-01
   7167.00  5.3975085E-01
   7167.33  5.3652432E-01
   7167.67  5.3315597E-01
   7168.00  5.2966572E-01
   7168.33  5.2606447E-01
   7168.67  5.2238709E-01
   7169.00  5.1865497E-01
   7169.33  5.1489724E-01
   7169.67  5.1114938E-01
   7170.00  5.0743556E-01
   7170.33  5.0379342E-01
   7170.67  5.0025282E-01
   7171.00  4.9685839E-01
   7171.33  4.9371713E-01
   7171.67  4.9093399E-01
   7172.00  4.8867475E-01
