    FDMNES
    energy     <xanes>
   7097.00  3.9732952E-03
   7097.33  4.0557894E-03
   7097.67  4.1417274E-03
   7098.00  4.2313420E-03
   7098.33  4.3254315E-03
   7098.67  4.4238361E-03
   7099.00  4.5268784E-03
   7099.33  4.6356122E-03
   7099.67  4.7498829E-03
   7100.00  4.8701521E-03
   7100.33  4.9978562E-03
   7100.67  5.1328697E-03
   7101.00  5.2758786E-03
   7101.33  5.4289160E-03
   7101.67  5.5919392E-03
   7102.00  5.7660129E-03
   7102.33  5.9541497E-03
   7102.67  6.1565093E-03
   7103.00  6.3748339E-03
   7103.33  6.6138419E-03
   7103.67  6.8741745E-03
   7104.00  7.1588724E-03
   7104.33  7.4758494E-03
   7104.67  7.8269238E-03
   7105.00  8.2178445E-03
   7105.33  8.6630865E-03
   7105.67  9.1675408E-03
   7106.00  9.7432585E-03
   7106.33  1.0419883E-02
   7106.67  1.1211246E-02
   7107.00  1.2146364E-02
   7107.33  1.3296068E-02
   7107.67  1.4704886E-02
   7108.00  1.6457876E-02
   7108.33  1.8766763E-02
   7108.67  2.1812010E-02
   7109.00  2.5930079E-02
   7109.33  3.2019317E-02
   7109.67  4.1155608E-02
   7110.00  5.5454808E-02
   7110.33  8.1087372E-02
   7110.67  1.2488715E-01
   7111.00  1.8842211E-01
   7111.33  2.4714771E-01
   7111.67  2.6989662E-01
   7112.00  2.4619280E-01
   7112.33  1.9414190E-01
   7112.67  1.4024486E-01
   7113.00  9.9467068E-02
   7113.33  7.4632021E-02
   7113.67  5.9117857E-02
   7114.00  4.9849787E-02
   7114.33  4.5378386E-02
   7114.67  4.3306507E-02
   7115.00  4.0855780E-02
   7115.33  3.6978857E-02
   7115.67  3.3774780E-02
   7116.00  3.2033008E-02
   7116.33  3.1565885E-02
   7116.67  3.1591187E-02
   7117.00  3.1670610E-02
   7117.33  3.1580748E-02
   7117.67  3.1381309E-02
   7118.00  3.1212930E-02
   7118.33  3.1304202E-02
   7118.67  3.1745165E-02
   7119.00  3.2563546E-02
   7119.33  3.3812083E-02
   7119.67  3.5465402E-02
   7120.00  3.7571167E-02
   7120.33  4.0283197E-02
   7120.67  4.3643236E-02
   7121.00  4.7758019E-02
   7121.33  5.2884728E-02
   7121.67  5.9080621E-02
   7122.00  6.6500452E-02
   7122.33  7.5464630E-02
   7122.67  8.5838447E-02
   7123.00  9.7558081E-02
   7123.33  1.1094576E-01
   7123.67  1.2658066E-01
   7124.00  1.4522510E-01
   7124.33  1.6703710E-01
   7124.67  1.8964006E-01
   7125.00  2.1115669E-01
   7125.33  2.3336436E-01
   7125.67  2.6028696E-01
   7126.00  2.9353430E-01
   7126.33  3.3251573E-01
   7126.67  3.7256174E-01
   7127.00  4.0856768E-01
   7127.33  4.3575902E-01
   7127.67  4.5772090E-01
   7128.00  4.8031163E-01
   7128.33  5.1004273E-01
   7128.67  5.4676044E-01
   7129.00  5.8623304E-01
   7129.33  6.2069839E-01
   7129.67  6.4622604E-01
   7130.00  6.6269209E-01
   7130.33  6.7262563E-01
   7130.67  6.8220574E-01
   7131.00  6.9608237E-01
   7131.33  7.1811119E-01
   7131.67  7.4670143E-01
   7132.00  7.7919476E-01
   7132.33  8.1229315E-01
   7132.67  8.4387912E-01
   7133.00  8.7331918E-01
   7133.33  8.9989507E-01
   7133.67  9.2305138E-01
   7134.00  9.4161161E-01
   7134.33  9.5369192E-01
   7134.67  9.6007232E-01
   7135.00  9.6215702E-01
   7135.33  9.6216696E-01
   7135.67  9.6203303E-01
   7136.00  9.6170877E-01
   7136.33  9.5931070E-01
   7136.67  9.5281502E-01
   7137.00  9.4083194E-01
   7137.33  9.2236833E-01
   7137.67  8.9921869E-01
   7138.00  8.7288942E-01
   7138.33  8.4500222E-01
   7138.67  8.1717581E-01
   7139.00  7.9026841E-01
   7139.33  7.6506980E-01
   7139.67  7.4167389E-01
   7140.00  7.2016138E-01
   7140.33  7.0074860E-01
   7140.67  6.8312184E-01
   7141.00  6.6718945E-01
   7141.33  6.5302948E-01
   7141.67  6.4031531E-01
   7142.00  6.2892825E-01
   7142.33  6.1888379E-01
   7142.67  6.0991437E-01
   7143.00  6.0193224E-01
   7143.33  5.9496344E-01
   7143.67  5.8883266E-01
   7144.00  5.8351923E-01
   7144.33  5.7912003E-01
   7144.67  5.7551884E-01
   7145.00  5.7270015E-01
   7145.33  5.7073547E-01
   7145.67  5.6949504E-01
   7146.00  5.6894045E-01
   7146.33  5.6910478E-01
   7146.67  5.6987002E-01
   7147.00  5.7121596E-01
   7147.33  5.7320201E-01
   7147.67  5.7574250E-01
   7148.00  5.7880177E-01
   7148.33  5.8233005E-01
   7148.67  5.8607556E-01
   7149.00  5.8978504E-01
   7149.33  5.9307664E-01
   7149.67  5.9567524E-01
   7150.00  5.9733629E-01
   7150.33  5.9770442E-01
   7150.67  5.9681686E-01
   7151.00  5.9466188E-01
   7151.33  5.9113764E-01
   7151.67  5.8648026E-01
   7152.00  5.8076803E-01
   7152.33  5.7396661E-01
   7152.67  5.6627603E-01
   7153.00  5.5775674E-01
   7153.33  5.4837580E-01
   7153.67  5.3827768E-01
   7154.00  5.2749405E-01
   7154.33  5.1598117E-01
   7154.67  5.0386491E-01
   7155.00  4.9119293E-01
   7155.33  4.7796358E-01
   7155.67  4.6430843E-01
   7156.00  4.5029888E-01
   7156.33  4.3599888E-01
   7156.67  4.2155075E-01
   7157.00  4.0705774E-01
   7157.33  3.9265533E-01
   7157.67  3.7846551E-01
   7158.00  3.6460614E-01
   7158.33  3.5126884E-01
   7158.67  3.3852234E-01
   7159.00  3.2646973E-01
   7159.33  3.1532315E-01
   7159.67  3.0508244E-01
   7160.00  2.9582231E-01
   7160.33  2.8774199E-01
   7160.67  2.8075374E-01
   7161.00  2.7487231E-01
   7161.33  2.7022384E-01
   7161.67  2.6663151E-01
   7162.00  2.6404050E-01
   7162.33  2.6248107E-01
   7162.67  2.6174870E-01
   7163.00  2.6177977E-01
   7163.33  2.6261014E-01
   7163.67  2.6411747E-01
   7164.00  2.6628017E-01
   7164.33  2.6914162E-01
   7164.67  2.7256452E-01
   7165.00  2.7647325E-01
   7165.33  2.8080297E-01
   7165.67  2.8538120E-01
   7166.00  2.9009836E-01
   7166.33  2.9483704E-01
   7166.67  2.9948916E-01
   7167.00  3.0397809E-01
   7167.33  3.0820806E-01
   7167.67  3.1216838E-01
   7168.00  3.1584763E-01
   7168.33  3.1922385E-01
   7168.67  3.2236605E-01
   7169.00  3.2531976E-01
   7169.33  3.2813412E-01
   7169.67  3.3089209E-01
   7170.00  3.3364573E-01
   7170.33  3.3644508E-01
   7170.67  3.3930306E-01
   7171.00  3.4220402E-01
   7171.33  3.4507082E-01
   7171.67  3.4773943E-01
   7172.00  3.4997560E-01
