    FDMNES
    energy     <xanes>
   7097.00  5.2710968E-03
   7097.33  5.3968697E-03
   7097.67  5.5283570E-03
   7098.00  5.6659453E-03
   7098.33  5.8109570E-03
   7098.67  5.9631219E-03
   7099.00  6.1229676E-03
   7099.33  6.2922245E-03
   7099.67  6.4706179E-03
   7100.00  6.6588876E-03
   7100.33  6.8593599E-03
   7100.67  7.0717840E-03
   7101.00  7.2972321E-03
   7101.33  7.5389340E-03
   7101.67  7.7967265E-03
   7102.00  8.0722258E-03
   7102.33  8.3700945E-03
   7102.67  8.6904014E-03
   7103.00  9.0357004E-03
   7103.33  9.4130560E-03
   7103.67  9.8231009E-03
   7104.00  1.0270115E-02
   7104.33  1.0765475E-02
   7104.67  1.1311188E-02
   7105.00  1.1914983E-02
   7105.33  1.2596678E-02
   7105.67  1.3361814E-02
   7106.00  1.4225779E-02
   7106.33  1.5226937E-02
   7106.67  1.6380839E-02
   7107.00  1.7722515E-02
   7107.33  1.9338019E-02
   7107.67  2.1276204E-02
   7108.00  2.3633829E-02
   7108.33  2.6651508E-02
   7108.67  3.0520733E-02
   7109.00  3.5603095E-02
   7109.33  4.2858310E-02
   7109.67  5.3394032E-02
   7110.00  6.9388200E-02
   7110.33  9.7091315E-02
   7110.67  1.4261050E-01
   7111.00  2.0467259E-01
   7111.33  2.6048022E-01
   7111.67  2.9955197E-01
   7112.00  3.2049424E-01
   7112.33  3.1910758E-01
   7112.67  3.1252286E-01
   7113.00  3.1351515E-01
   7113.33  3.1412563E-01
   7113.67  2.9585995E-01
   7114.00  2.5528154E-01
   7114.33  2.0976083E-01
   7114.67  1.7510783E-01
   7115.00  1.5324512E-01
   7115.33  1.4247095E-01
   7115.67  1.3874414E-01
   7116.00  1.4066512E-01
   7116.33  1.4812635E-01
   7116.67  1.6019893E-01
   7117.00  1.7602325E-01
   7117.33  1.9312494E-01
   7117.67  2.1087673E-01
   7118.00  2.3255751E-01
   7118.33  2.5978728E-01
   7118.67  2.8842834E-01
   7119.00  3.1410347E-01
   7119.33  3.3160341E-01
   7119.67  3.4023365E-01
   7120.00  3.4111897E-01
   7120.33  3.3676171E-01
   7120.67  3.3110631E-01
   7121.00  3.2636030E-01
   7121.33  3.2423153E-01
   7121.67  3.2475650E-01
   7122.00  3.2768397E-01
   7122.33  3.3284256E-01
   7122.67  3.4000070E-01
   7123.00  3.5003991E-01
   7123.33  3.6563028E-01
   7123.67  3.8775344E-01
   7124.00  4.1603150E-01
   7124.33  4.4811979E-01
   7124.67  4.7972732E-01
   7125.00  5.0828592E-01
   7125.33  5.3192963E-01
   7125.67  5.5133875E-01
   7126.00  5.6744873E-01
   7126.33  5.8145554E-01
   7126.67  5.9437375E-01
   7127.00  6.0594961E-01
   7127.33  6.1525618E-01
   7127.67  6.2218166E-01
   7128.00  6.2665312E-01
   7128.33  6.2831355E-01
   7128.67  6.2729310E-01
   7129.00  6.2330435E-01
   7129.33  6.1569611E-01
   7129.67  6.0575904E-01
   7130.00  5.9629816E-01
   7130.33  5.9232414E-01
   7130.67  5.9495382E-01
   7131.00  6.0266638E-01
   7131.33  6.1276443E-01
   7131.67  6.2239385E-01
   7132.00  6.2978485E-01
   7132.33  6.3300950E-01
   7132.67  6.3215868E-01
   7133.00  6.2790782E-01
   7133.33  6.2141984E-01
   7133.67  6.1426933E-01
   7134.00  6.0718729E-01
   7134.33  6.0059032E-01
   7134.67  5.9442550E-01
   7135.00  5.8854787E-01
   7135.33  5.8276185E-01
   7135.67  5.7690370E-01
   7136.00  5.7092786E-01
   7136.33  5.6490014E-01
   7136.67  5.5902999E-01
   7137.00  5.5357623E-01
   7137.33  5.4898716E-01
   7137.67  5.4551381E-01
   7138.00  5.4340335E-01
   7138.33  5.4302778E-01
   7138.67  5.4423792E-01
   7139.00  5.4697570E-01
   7139.33  5.5123614E-01
   7139.67  5.5656578E-01
   7140.00  5.6265842E-01
   7140.33  5.6916702E-01
   7140.67  5.7560681E-01
   7141.00  5.8155574E-01
   7141.33  5.8633796E-01
   7141.67  5.8949852E-01
   7142.00  5.9054661E-01
   7142.33  5.8870716E-01
   7142.67  5.8412618E-01
   7143.00  5.7697456E-01
   7143.33  5.6758275E-01
   7143.67  5.5705471E-01
   7144.00  5.4617897E-01
   7144.33  5.3581233E-01
   7144.67  5.2646433E-01
   7145.00  5.1841593E-01
   7145.33  5.1197411E-01
   7145.67  5.0694395E-01
   7146.00  5.0325178E-01
   7146.33  5.0094780E-01
   7146.67  4.9978053E-01
   7147.00  4.9967164E-01
   7147.33  5.0063063E-01
   7147.67  5.0237505E-01
   7148.00  5.0469435E-01
   7148.33  5.0727130E-01
   7148.67  5.0963374E-01
   7149.00  5.1137246E-01
   7149.33  5.1196130E-01
   7149.67  5.1132881E-01
   7150.00  5.0950161E-01
   7150.33  5.0656569E-01
   7150.67  5.0293162E-01
   7151.00  4.9882662E-01
   7151.33  4.9440723E-01
   7151.67  4.8980992E-01
   7152.00  4.8506080E-01
   7152.33  4.8012122E-01
   7152.67  4.7496691E-01
   7153.00  4.6955350E-01
   7153.33  4.6380686E-01
   7153.67  4.5775493E-01
   7154.00  4.5139950E-01
   7154.33  4.4471491E-01
   7154.67  4.3776817E-01
   7155.00  4.3060043E-01
   7155.33  4.2325134E-01
   7155.67  4.1581024E-01
   7156.00  4.0834082E-01
   7156.33  4.0092576E-01
   7156.67  3.9364050E-01
   7157.00  3.8656049E-01
   7157.33  3.7981634E-01
   7157.67  3.7346822E-01
   7158.00  3.6760132E-01
   7158.33  3.6238359E-01
   7158.67  3.5782827E-01
   7159.00  3.5399491E-01
   7159.33  3.5102839E-01
   7159.67  3.4885587E-01
   7160.00  3.4747682E-01
   7160.33  3.4696418E-01
   7160.67  3.4718007E-01
   7161.00  3.4807799E-01
   7161.33  3.4966874E-01
   7161.67  3.5180060E-01
   7162.00  3.5440754E-01
   7162.33  3.5746589E-01
   7162.67  3.6085859E-01
   7163.00  3.6453591E-01
   7163.33  3.6848067E-01
   7163.67  3.7262851E-01
   7164.00  3.7695824E-01
   7164.33  3.8147520E-01
   7164.67  3.8615121E-01
   7165.00  3.9098380E-01
   7165.33  3.9599113E-01
   7165.67  4.0115035E-01
   7166.00  4.0645316E-01
   7166.33  4.1189679E-01
   7166.67  4.1743579E-01
   7167.00  4.2303402E-01
   7167.33  4.2863789E-01
   7167.67  4.3418172E-01
   7168.00  4.3960391E-01
   7168.33  4.4480653E-01
   7168.67  4.4974404E-01
   7169.00  4.5436430E-01
   7169.33  4.5857560E-01
   7169.67  4.6239496E-01
   7170.00  4.6581162E-01
   7170.33  4.6877697E-01
   7170.67  4.7135394E-01
   7171.00  4.7355818E-01
   7171.33  4.7536400E-01
   7171.67  4.7682958E-01
   7172.00  4.7796426E-01
