    FDMNES
    energy     <xanes>
   7097.00  5.2770441E-03
   7097.33  5.4045339E-03
   7097.67  5.5378996E-03
   7098.00  5.6775397E-03
   7098.33  5.8248148E-03
   7098.67  5.9794465E-03
   7099.00  6.1419756E-03
   7099.33  6.3141777E-03
   7099.67  6.4957645E-03
   7100.00  6.6874885E-03
   7100.33  6.8917236E-03
   7100.67  7.1081950E-03
   7101.00  7.3379805E-03
   7101.33  7.5843462E-03
   7101.67  7.8470832E-03
   7102.00  8.1277883E-03
   7102.33  8.4311111E-03
   7102.67  8.7570240E-03
   7103.00  9.1079915E-03
   7103.33  9.4909112E-03
   7103.67  9.9061959E-03
   7104.00  1.0357843E-02
   7104.33  1.0856622E-02
   7104.67  1.1403992E-02
   7105.00  1.2006853E-02
   7105.33  1.2683153E-02
   7105.67  1.3436915E-02
   7106.00  1.4281059E-02
   7106.33  1.5248179E-02
   7106.67  1.6349095E-02
   7107.00  1.7610824E-02
   7107.33  1.9100092E-02
   7107.67  2.0848300E-02
   7108.00  2.2921798E-02
   7108.33  2.5484192E-02
   7108.67  2.8644605E-02
   7109.00  3.2613869E-02
   7109.33  3.7934704E-02
   7109.67  4.5143399E-02
   7110.00  5.5282225E-02
   7110.33  7.1276392E-02
   7110.67  9.6206832E-02
   7111.00  1.3168022E-01
   7111.33  1.7236183E-01
   7111.67  2.1845134E-01
   7112.00  2.7855236E-01
   7112.33  3.4838853E-01
   7112.67  4.1948323E-01
   7113.00  4.9468210E-01
   7113.33  5.4738842E-01
   7113.67  5.4248145E-01
   7114.00  4.9040546E-01
   7114.33  4.2733221E-01
   7114.67  3.7317590E-01
   7115.00  3.3078155E-01
   7115.33  3.0112424E-01
   7115.67  2.8195498E-01
   7116.00  2.7196983E-01
   7116.33  2.6801229E-01
   7116.67  2.6247594E-01
   7117.00  2.5014724E-01
   7117.33  2.3067990E-01
   7117.67  2.1002682E-01
   7118.00  1.9165797E-01
   7118.33  1.7747134E-01
   7118.67  1.6680557E-01
   7119.00  1.5895069E-01
   7119.33  1.5303437E-01
   7119.67  1.4771714E-01
   7120.00  1.4229086E-01
   7120.33  1.3669373E-01
   7120.67  1.3184175E-01
   7121.00  1.2870049E-01
   7121.33  1.2801556E-01
   7121.67  1.2914343E-01
   7122.00  1.3150320E-01
   7122.33  1.3467789E-01
   7122.67  1.3840668E-01
   7123.00  1.4276565E-01
   7123.33  1.4809804E-01
   7123.67  1.5460791E-01
   7124.00  1.6259251E-01
   7124.33  1.7265776E-01
   7124.67  1.8499867E-01
   7125.00  2.0003599E-01
   7125.33  2.1871207E-01
   7125.67  2.4122985E-01
   7126.00  2.6811888E-01
   7126.33  3.0000411E-01
   7126.67  3.3485885E-01
   7127.00  3.6988107E-01
   7127.33  4.0084655E-01
   7127.67  4.2635134E-01
   7128.00  4.4730988E-01
   7128.33  4.6636524E-01
   7128.67  4.8654876E-01
   7129.00  5.0934504E-01
   7129.33  5.3588619E-01
   7129.67  5.6604530E-01
   7130.00  6.0002617E-01
   7130.33  6.3831033E-01
   7130.67  6.7977287E-01
   7131.00  7.2333648E-01
   7131.33  7.6779286E-01
   7131.67  8.1205664E-01
   7132.00  8.5548437E-01
   7132.33  8.9756083E-01
   7132.67  9.3896826E-01
   7133.00  9.8092656E-01
   7133.33  1.0246888E+00
   7133.67  1.0675625E+00
   7134.00  1.1016296E+00
   7134.33  1.1085882E+00
   7134.67  1.0797148E+00
   7135.00  1.0170758E+00
   7135.33  9.3310343E-01
   7135.67  8.4619406E-01
   7136.00  7.6485979E-01
   7136.33  6.9426340E-01
   7136.67  6.3361585E-01
   7137.00  5.8218864E-01
   7137.33  5.3993804E-01
   7137.67  5.0492579E-01
   7138.00  4.7653320E-01
   7138.33  4.5491477E-01
   7138.67  4.3875639E-01
   7139.00  4.2756095E-01
   7139.33  4.2125204E-01
   7139.67  4.1862881E-01
   7140.00  4.1911817E-01
   7140.33  4.2239316E-01
   7140.67  4.2758578E-01
   7141.00  4.3430098E-01
   7141.33  4.4232386E-01
   7141.67  4.5123727E-01
   7142.00  4.6085365E-01
   7142.33  4.7103783E-01
   7142.67  4.8151959E-01
   7143.00  4.9209698E-01
   7143.33  5.0247784E-01
   7143.67  5.1238382E-01
   7144.00  5.2155088E-01
   7144.33  5.2956964E-01
   7144.67  5.3635283E-01
   7145.00  5.4179391E-01
   7145.33  5.4569415E-01
   7145.67  5.4829889E-01
   7146.00  5.4974777E-01
   7146.33  5.5015298E-01
   7146.67  5.4989496E-01
   7147.00  5.4920304E-01
   7147.33  5.4829870E-01
   7147.67  5.4740974E-01
   7148.00  5.4667224E-01
   7148.33  5.4623170E-01
   7148.67  5.4612215E-01
   7149.00  5.4637309E-01
   7149.33  5.4704270E-01
   7149.67  5.4807775E-01
   7150.00  5.4946199E-01
   7150.33  5.5121069E-01
   7150.67  5.5325725E-01
   7151.00  5.5557995E-01
   7151.33  5.5818576E-01
   7151.67  5.6101878E-01
   7152.00  5.6405733E-01
   7152.33  5.6729661E-01
   7152.67  5.7068326E-01
   7153.00  5.7418719E-01
   7153.33  5.7778138E-01
   7153.67  5.8141774E-01
   7154.00  5.8506333E-01
   7154.33  5.8867660E-01
   7154.67  5.9222404E-01
   7155.00  5.9567458E-01
   7155.33  5.9897660E-01
   7155.67  6.0211201E-01
   7156.00  6.0505100E-01
   7156.33  6.0772984E-01
   7156.67  6.1014270E-01
   7157.00  6.1226003E-01
   7157.33  6.1400724E-01
   7157.67  6.1539385E-01
   7158.00  6.1639496E-01
   7158.33  6.1693377E-01
   7158.67  6.1704086E-01
   7159.00  6.1670302E-01
   7159.33  6.1585496E-01
   7159.67  6.1455300E-01
   7160.00  6.1280367E-01
   7160.33  6.1056816E-01
   7160.67  6.0792360E-01
   7161.00  6.0489537E-01
   7161.33  6.0147101E-01
   7161.67  5.9772812E-01
   7162.00  5.9370122E-01
   7162.33  5.8940110E-01
   7162.67  5.8489256E-01
   7163.00  5.8020052E-01
   7163.33  5.7533493E-01
   7163.67  5.7034054E-01
   7164.00  5.6523405E-01
   7164.33  5.6001646E-01
   7164.67  5.5470701E-01
   7165.00  5.4930838E-01
   7165.33  5.4381041E-01
   7165.67  5.3822395E-01
   7166.00  5.3255016E-01
   7166.33  5.2678218E-01
   7166.67  5.2093637E-01
   7167.00  5.1502049E-01
   7167.33  5.0904043E-01
   7167.67  5.0302076E-01
   7168.00  4.9697980E-01
   7168.33  4.9094350E-01
   7168.67  4.8494282E-01
   7169.00  4.7901084E-01
   7169.33  4.7320058E-01
   7169.67  4.6753466E-01
   7170.00  4.6204470E-01
   7170.33  4.5679848E-01
   7170.67  4.5181615E-01
   7171.00  4.4714806E-01
   7171.33  4.4292864E-01
   7171.67  4.3924859E-01
   7172.00  4.3628157E-01
