    FDMNES
    energy     <xanes>
   7097.00  4.2146974E-03
   7097.33  4.3047104E-03
   7097.67  4.3986775E-03
   7098.00  4.4968694E-03
   7098.33  4.6002068E-03
   7098.67  4.7085076E-03
   7099.00  4.8221429E-03
   7099.33  4.9423226E-03
   7099.67  5.0688636E-03
   7100.00  5.2022885E-03
   7100.33  5.3442305E-03
   7100.67  5.4945253E-03
   7101.00  5.6539328E-03
   7101.33  5.8247270E-03
   7101.67  6.0068072E-03
   7102.00  6.2013179E-03
   7102.33  6.4115463E-03
   7102.67  6.6375504E-03
   7103.00  6.8811305E-03
   7103.33  7.1472533E-03
   7103.67  7.4363494E-03
   7104.00  7.7514001E-03
   7104.33  8.1003248E-03
   7104.67  8.4844255E-03
   7105.00  8.9089602E-03
   7105.33  9.3874290E-03
   7105.67  9.9232479E-03
   7106.00  1.0526456E-02
   7106.33  1.1222107E-02
   7106.67  1.2019133E-02
   7107.00  1.2938781E-02
   7107.33  1.4033054E-02
   7107.67  1.5327013E-02
   7108.00  1.6872361E-02
   7108.33  1.8795114E-02
   7108.67  2.1176327E-02
   7109.00  2.4169874E-02
   7109.33  2.8159754E-02
   7109.67  3.3481184E-02
   7110.00  4.0760613E-02
   7110.33  5.1682295E-02
   7110.67  6.8258804E-02
   7111.00  9.4167232E-02
   7111.33  1.3857251E-01
   7111.67  2.1030207E-01
   7112.00  3.2438549E-01
   7112.33  4.5947380E-01
   7112.67  4.8929055E-01
   7113.00  3.9807741E-01
   7113.33  2.7767676E-01
   7113.67  1.9138905E-01
   7114.00  1.3892178E-01
   7114.33  1.0966393E-01
   7114.67  9.2380084E-02
   7115.00  8.3467829E-02
   7115.33  8.1056237E-02
   7115.67  7.9453853E-02
   7116.00  7.4346129E-02
   7116.33  6.6821004E-02
   7116.67  6.0165792E-02
   7117.00  5.5812364E-02
   7117.33  5.4021684E-02
   7117.67  5.3093924E-02
   7118.00  5.1681928E-02
   7118.33  4.9756380E-02
   7118.67  4.8045563E-02
   7119.00  4.6790720E-02
   7119.33  4.6091944E-02
   7119.67  4.5865504E-02
   7120.00  4.6102172E-02
   7120.33  4.6882363E-02
   7120.67  4.8199361E-02
   7121.00  5.0123911E-02
   7121.33  5.2853751E-02
   7121.67  5.6417906E-02
   7122.00  6.0914881E-02
   7122.33  6.6562455E-02
   7122.67  7.3262434E-02
   7123.00  8.0958044E-02
   7123.33  8.9611000E-02
   7123.67  9.9273281E-02
   7124.00  1.1046677E-01
   7124.33  1.2408429E-01
   7124.67  1.4023059E-01
   7125.00  1.5901973E-01
   7125.33  1.8074884E-01
   7125.67  2.0492344E-01
   7126.00  2.3129364E-01
   7126.33  2.5984534E-01
   7126.67  2.9042622E-01
   7127.00  3.2360978E-01
   7127.33  3.6110909E-01
   7127.67  4.0392321E-01
   7128.00  4.5316206E-01
   7128.33  5.1051082E-01
   7128.67  5.7472701E-01
   7129.00  6.4322996E-01
   7129.33  7.0617717E-01
   7129.67  7.4796258E-01
   7130.00  7.5834732E-01
   7130.33  7.3926956E-01
   7130.67  7.0954160E-01
   7131.00  6.7872951E-01
   7131.33  6.5100685E-01
   7131.67  6.2581269E-01
   7132.00  6.0222215E-01
   7132.33  5.7960224E-01
   7132.67  5.5767343E-01
   7133.00  5.3661368E-01
   7133.33  5.1692150E-01
   7133.67  4.9876456E-01
   7134.00  4.8233416E-01
   7134.33  4.6799077E-01
   7134.67  4.5555091E-01
   7135.00  4.4498666E-01
   7135.33  4.3639523E-01
   7135.67  4.2945812E-01
   7136.00  4.2413330E-01
   7136.33  4.2057017E-01
   7136.67  4.1852005E-01
   7137.00  4.1793104E-01
   7137.33  4.1890455E-01
   7137.67  4.2117780E-01
   7138.00  4.2465833E-01
   7138.33  4.2935363E-01
   7138.67  4.3498103E-01
   7139.00  4.4140040E-01
   7139.33  4.4851633E-01
   7139.67  4.5607556E-01
   7140.00  4.6393003E-01
   7140.33  4.7193290E-01
   7140.67  4.7991641E-01
   7141.00  4.8776123E-01
   7141.33  4.9531834E-01
   7141.67  5.0252953E-01
   7142.00  5.0934023E-01
   7142.33  5.1566207E-01
   7142.67  5.2154573E-01
   7143.00  5.2700612E-01
   7143.33  5.3204076E-01
   7143.67  5.3677674E-01
   7144.00  5.4129884E-01
   7144.33  5.4570059E-01
   7144.67  5.5009219E-01
   7145.00  5.5454154E-01
   7145.33  5.5913661E-01
   7145.67  5.6388187E-01
   7146.00  5.6878560E-01
   7146.33  5.7390735E-01
   7146.67  5.7925059E-01
   7147.00  5.8482074E-01
   7147.33  5.9063006E-01
   7147.67  5.9663158E-01
   7148.00  6.0281104E-01
   7148.33  6.0917616E-01
   7148.67  6.1569513E-01
   7149.00  6.2235897E-01
   7149.33  6.2917465E-01
   7149.67  6.3611472E-01
   7150.00  6.4316865E-01
   7150.33  6.5033593E-01
   7150.67  6.5759003E-01
   7151.00  6.6491777E-01
   7151.33  6.7230949E-01
   7151.67  6.7973934E-01
   7152.00  6.8719523E-01
   7152.33  6.9467942E-01
   7152.67  7.0217931E-01
   7153.00  7.0966983E-01
   7153.33  7.1709878E-01
   7153.67  7.2443021E-01
   7154.00  7.3162937E-01
   7154.33  7.3862348E-01
   7154.67  7.4537379E-01
   7155.00  7.5181884E-01
   7155.33  7.5782833E-01
   7155.67  7.6335834E-01
   7156.00  7.6832353E-01
   7156.33  7.7253850E-01
   7156.67  7.7598699E-01
   7157.00  7.7859007E-01
   7157.33  7.8015336E-01
   7157.67  7.8073266E-01
   7158.00  7.8029560E-01
   7158.33  7.7870051E-01
   7158.67  7.7609034E-01
   7159.00  7.7249858E-01
   7159.33  7.6787126E-01
   7159.67  7.6240377E-01
   7160.00  7.5617584E-01
   7160.33  7.4920544E-01
   7160.67  7.4167950E-01
   7161.00  7.3368724E-01
   7161.33  7.2528041E-01
   7161.67  7.1659380E-01
   7162.00  7.0769576E-01
   7162.33  6.9863749E-01
   7162.67  6.8949502E-01
   7163.00  6.8031154E-01
   7163.33  6.7112829E-01
   7163.67  6.6197622E-01
   7164.00  6.5287490E-01
   7164.33  6.4384791E-01
   7164.67  6.3489565E-01
   7165.00  6.2602087E-01
   7165.33  6.1723170E-01
   7165.67  6.0851499E-01
   7166.00  5.9986717E-01
   7166.33  5.9129196E-01
   7166.67  5.8277830E-01
   7167.00  5.7432529E-01
   7167.33  5.6594124E-01
   7167.67  5.5762274E-01
   7168.00  5.4937743E-01
   7168.33  5.4122946E-01
   7168.67  5.3318650E-01
   7169.00  5.2526871E-01
   7169.33  5.1752250E-01
   7169.67  5.0996034E-01
   7170.00  5.0261394E-01
   7170.33  4.9555985E-01
   7170.67  4.8882219E-01
   7171.00  4.8246729E-01
   7171.33  4.7667666E-01
   7171.67  4.7159247E-01
   7172.00  4.6747217E-01
