    FDMNES
    energy     <xanes>
   7097.00  4.0336050E-03
   7097.33  4.1099058E-03
   7097.67  4.1889717E-03
   7098.00  4.2709633E-03
   7098.33  4.3564775E-03
   7098.67  4.4453504E-03
   7099.00  4.5377971E-03
   7099.33  4.6345769E-03
   7099.67  4.7355190E-03
   7100.00  4.8409203E-03
   7100.33  4.9517742E-03
   7100.67  5.0679142E-03
   7101.00  5.1897649E-03
   7101.33  5.3186727E-03
   7101.67  5.4545001E-03
   7102.00  5.5978820E-03
   7102.33  5.7507229E-03
   7102.67  5.9129724E-03
   7103.00  6.0856302E-03
   7103.33  6.2715405E-03
   7103.67  6.4708746E-03
   7104.00  6.6853126E-03
   7104.33  6.9193998E-03
   7104.67  7.1738651E-03
   7105.00  7.4517696E-03
   7105.33  7.7610391E-03
   7105.67  8.1038660E-03
   7106.00  8.4864414E-03
   7106.33  8.9242632E-03
   7106.67  9.4237570E-03
   7107.00  9.9993207E-03
   7107.33  1.0686401E-02
   7107.67  1.1505768E-02
   7108.00  1.2498254E-02
   7108.33  1.3765646E-02
   7108.67  1.5391294E-02
   7109.00  1.7532047E-02
   7109.33  2.0605758E-02
   7109.67  2.5103507E-02
   7110.00  3.1991300E-02
   7110.33  4.4055204E-02
   7110.67  6.4102103E-02
   7111.00  9.1817678E-02
   7111.33  1.1646890E-01
   7111.67  1.3127863E-01
   7112.00  1.3883214E-01
   7112.33  1.3439839E-01
   7112.67  1.1500074E-01
   7113.00  9.1737754E-02
   7113.33  7.4116858E-02
   7113.67  6.2398984E-02
   7114.00  5.5067002E-02
   7114.33  4.9634367E-02
   7114.67  4.4333065E-02
   7115.00  4.0043719E-02
   7115.33  3.7787592E-02
   7115.67  3.7046700E-02
   7116.00  3.7324674E-02
   7116.33  3.8209061E-02
   7116.67  3.9454443E-02
   7117.00  4.1200025E-02
   7117.33  4.3837410E-02
   7117.67  4.7475452E-02
   7118.00  5.2140258E-02
   7118.33  5.7746495E-02
   7118.67  6.3781773E-02
   7119.00  6.9780732E-02
   7119.33  7.5118275E-02
   7119.67  7.9572386E-02
   7120.00  8.3286372E-02
   7120.33  8.6792873E-02
   7120.67  9.0874973E-02
   7121.00  9.6235017E-02
   7121.33  1.0394522E-01
   7121.67  1.1452991E-01
   7122.00  1.2864903E-01
   7122.33  1.4755064E-01
   7122.67  1.7109620E-01
   7123.00  1.9872798E-01
   7123.33  2.2713241E-01
   7123.67  2.4991475E-01
   7124.00  2.6397527E-01
   7124.33  2.7241281E-01
   7124.67  2.8256998E-01
   7125.00  2.9764204E-01
   7125.33  3.1793538E-01
   7125.67  3.4020941E-01
   7126.00  3.6261381E-01
   7126.33  3.8578650E-01
   7126.67  4.1266705E-01
   7127.00  4.4597836E-01
   7127.33  4.8775619E-01
   7127.67  5.3550391E-01
   7128.00  5.8656759E-01
   7128.33  6.3743786E-01
   7128.67  6.8508947E-01
   7129.00  7.2771988E-01
   7129.33  7.6367132E-01
   7129.67  7.9411341E-01
   7130.00  8.2028630E-01
   7130.33  8.4338925E-01
   7130.67  8.6437928E-01
   7131.00  8.8286673E-01
   7131.33  8.9756717E-01
   7131.67  9.0855022E-01
   7132.00  9.1622050E-01
   7132.33  9.2115161E-01
   7132.67  9.2447579E-01
   7133.00  9.2657662E-01
   7133.33  9.2699642E-01
   7133.67  9.2511365E-01
   7134.00  9.2055783E-01
   7134.33  9.1385778E-01
   7134.67  9.0683845E-01
   7135.00  9.0034450E-01
   7135.33  8.9416692E-01
   7135.67  8.8730598E-01
   7136.00  8.7893206E-01
   7136.33  8.6812228E-01
   7136.67  8.5487140E-01
   7137.00  8.3917706E-01
   7137.33  8.2092124E-01
   7137.67  8.0066932E-01
   7138.00  7.7873528E-01
   7138.33  7.5541969E-01
   7138.67  7.3142240E-01
   7139.00  7.0726322E-01
   7139.33  6.8361023E-01
   7139.67  6.6096672E-01
   7140.00  6.3973384E-01
   7140.33  6.2048229E-01
   7140.67  6.0321578E-01
   7141.00  5.8803450E-01
   7141.33  5.7522690E-01
   7141.67  5.6448433E-01
   7142.00  5.5572096E-01
   7142.33  5.4901278E-01
   7142.67  5.4393898E-01
   7143.00  5.4030315E-01
   7143.33  5.3798144E-01
   7143.67  5.3651623E-01
   7144.00  5.3561605E-01
   7144.33  5.3496231E-01
   7144.67  5.3420873E-01
   7145.00  5.3313353E-01
   7145.33  5.3150804E-01
   7145.67  5.2933903E-01
   7146.00  5.2666493E-01
   7146.33  5.2355284E-01
   7146.67  5.2020021E-01
   7147.00  5.1672631E-01
   7147.33  5.1322779E-01
   7147.67  5.0975133E-01
   7148.00  5.0629481E-01
   7148.33  5.0282713E-01
   7148.67  4.9931346E-01
   7149.00  4.9573364E-01
   7149.33  4.9207668E-01
   7149.67  4.8837055E-01
   7150.00  4.8464623E-01
   7150.33  4.8095035E-01
   7150.67  4.7732134E-01
   7151.00  4.7378742E-01
   7151.33  4.7038102E-01
   7151.67  4.6708743E-01
   7152.00  4.6388941E-01
   7152.33  4.6074465E-01
   7152.67  4.5756261E-01
   7153.00  4.5425266E-01
   7153.33  4.5066959E-01
   7153.67  4.4671733E-01
   7154.00  4.4228012E-01
   7154.33  4.3714539E-01
   7154.67  4.3126949E-01
   7155.00  4.2457068E-01
   7155.33  4.1687994E-01
   7155.67  4.0829653E-01
   7156.00  3.9885308E-01
   7156.33  3.8853803E-01
   7156.67  3.7757844E-01
   7157.00  3.6611478E-01
   7157.33  3.5429731E-01
   7157.67  3.4237740E-01
   7158.00  3.3054548E-01
   7158.33  3.1906016E-01
   7158.67  3.0809350E-01
   7159.00  2.9781319E-01
   7159.33  2.8850151E-01
   7159.67  2.8020246E-01
   7160.00  2.7302894E-01
   7160.33  2.6724798E-01
   7160.67  2.6279912E-01
   7161.00  2.5975140E-01
   7161.33  2.5834965E-01
   7161.67  2.5843767E-01
   7162.00  2.5999845E-01
   7162.33  2.6313618E-01
   7162.67  2.6756094E-01
   7163.00  2.7313963E-01
   7163.33  2.7979101E-01
   7163.67  2.8716930E-01
   7164.00  2.9507348E-01
   7164.33  3.0330803E-01
   7164.67  3.1161947E-01
   7165.00  3.1984419E-01
   7165.33  3.2779690E-01
   7165.67  3.3539625E-01
   7166.00  3.4258288E-01
   7166.33  3.4927243E-01
   7166.67  3.5552558E-01
   7167.00  3.6137180E-01
   7167.33  3.6682872E-01
   7167.67  3.7201856E-01
   7168.00  3.7701507E-01
   7168.33  3.8188977E-01
   7168.67  3.8673290E-01
   7169.00  3.9159884E-01
   7169.33  3.9654248E-01
   7169.67  4.0158000E-01
   7170.00  4.0671375E-01
   7170.33  4.1193174E-01
   7170.67  4.1717226E-01
   7171.00  4.2235739E-01
   7171.33  4.2730962E-01
   7171.67  4.3179390E-01
   7172.00  4.3548526E-01
