    FDMNES
    energy     <xanes>
   7097.00  4.4108087E-03
   7097.33  4.4994772E-03
   7097.67  4.5915729E-03
   7098.00  4.6873027E-03
   7098.33  4.7874188E-03
   7098.67  4.8917274E-03
   7099.00  5.0005059E-03
   7099.33  5.1147166E-03
   7099.67  5.2341572E-03
   7100.00  5.3592111E-03
   7100.33  5.4911432E-03
   7100.67  5.6297565E-03
   7101.00  5.7755993E-03
   7101.33  5.9303914E-03
   7101.67  6.0939723E-03
   7102.00  6.2671599E-03
   7102.33  6.4523915E-03
   7102.67  6.6496152E-03
   7103.00  6.8601153E-03
   7103.33  7.0875305E-03
   7103.67  7.3320871E-03
   7104.00  7.5959340E-03
   7104.33  7.8848765E-03
   7104.67  8.1998398E-03
   7105.00  8.5447228E-03
   7105.33  8.9296192E-03
   7105.67  9.3572959E-03
   7106.00  9.8356113E-03
   7106.33  1.0384253E-02
   7106.67  1.1011344E-02
   7107.00  1.1735156E-02
   7107.33  1.2600728E-02
   7107.67  1.3634522E-02
   7108.00  1.4888660E-02
   7108.33  1.6493407E-02
   7108.67  1.8556616E-02
   7109.00  2.1281770E-02
   7109.33  2.5213970E-02
   7109.67  3.1004902E-02
   7110.00  3.9943636E-02
   7110.33  5.5786079E-02
   7110.67  8.2449268E-02
   7111.00  1.1933130E-01
   7111.33  1.4531519E-01
   7111.67  1.4540938E-01
   7112.00  1.3283981E-01
   7112.33  1.3147023E-01
   7112.67  1.4041487E-01
   7113.00  1.4393371E-01
   7113.33  1.3461458E-01
   7113.67  1.2096962E-01
   7114.00  1.0129890E-01
   7114.33  7.8982177E-02
   7114.67  6.3260064E-02
   7115.00  5.4401286E-02
   7115.33  5.0654339E-02
   7115.67  4.9896231E-02
   7116.00  5.1516207E-02
   7116.33  5.5552174E-02
   7116.67  6.1704103E-02
   7117.00  6.9927020E-02
   7117.33  8.0363761E-02
   7117.67  9.2634996E-02
   7118.00  1.0654323E-01
   7118.33  1.2179989E-01
   7118.67  1.3765950E-01
   7119.00  1.5355279E-01
   7119.33  1.6797671E-01
   7119.67  1.7909802E-01
   7120.00  1.8619659E-01
   7120.33  1.9053074E-01
   7120.67  1.9540639E-01
   7121.00  2.0321290E-01
   7121.33  2.1652916E-01
   7121.67  2.3584310E-01
   7122.00  2.6134062E-01
   7122.33  2.9255099E-01
   7122.67  3.2563886E-01
   7123.00  3.5618679E-01
   7123.33  3.7897938E-01
   7123.67  3.9405390E-01
   7124.00  4.0155111E-01
   7124.33  4.0313014E-01
   7124.67  4.0685405E-01
   7125.00  4.1842476E-01
   7125.33  4.4107013E-01
   7125.67  4.7113150E-01
   7126.00  5.0506744E-01
   7126.33  5.3919744E-01
   7126.67  5.7086235E-01
   7127.00  5.9897877E-01
   7127.33  6.2330200E-01
   7127.67  6.4517211E-01
   7128.00  6.6489599E-01
   7128.33  6.8157738E-01
   7128.67  6.9548569E-01
   7129.00  7.0790871E-01
   7129.33  7.2036330E-01
   7129.67  7.3178065E-01
   7130.00  7.3937845E-01
   7130.33  7.4030971E-01
   7130.67  7.3645486E-01
   7131.00  7.3028148E-01
   7131.33  7.2447615E-01
   7131.67  7.2093493E-01
   7132.00  7.2085186E-01
   7132.33  7.2548242E-01
   7132.67  7.3387527E-01
   7133.00  7.4441341E-01
   7133.33  7.5383863E-01
   7133.67  7.5893517E-01
   7134.00  7.5798665E-01
   7134.33  7.5057795E-01
   7134.67  7.3930638E-01
   7135.00  7.2556518E-01
   7135.33  7.0997148E-01
   7135.67  6.9336305E-01
   7136.00  6.7648881E-01
   7136.33  6.6050676E-01
   7136.67  6.4629103E-01
   7137.00  6.3438749E-01
   7137.33  6.2529681E-01
   7137.67  6.1846510E-01
   7138.00  6.1345760E-01
   7138.33  6.0984181E-01
   7138.67  6.0697739E-01
   7139.00  6.0461477E-01
   7139.33  6.0272007E-01
   7139.67  6.0131608E-01
   7140.00  6.0051729E-01
   7140.33  6.0051846E-01
   7140.67  6.0124351E-01
   7141.00  6.0259098E-01
   7141.33  6.0431653E-01
   7141.67  6.0590003E-01
   7142.00  6.0680294E-01
   7142.33  6.0612153E-01
   7142.67  6.0329733E-01
   7143.00  5.9781711E-01
   7143.33  5.8899720E-01
   7143.67  5.7729696E-01
   7144.00  5.6311033E-01
   7144.33  5.4694544E-01
   7144.67  5.2987782E-01
   7145.00  5.1262144E-01
   7145.33  4.9595538E-01
   7145.67  4.8036234E-01
   7146.00  4.6618288E-01
   7146.33  4.5389606E-01
   7146.67  4.4345126E-01
   7147.00  4.3491709E-01
   7147.33  4.2854618E-01
   7147.67  4.2404348E-01
   7148.00  4.2130992E-01
   7148.33  4.2036587E-01
   7148.67  4.2076477E-01
   7149.00  4.2224717E-01
   7149.33  4.2458463E-01
   7149.67  4.2738247E-01
   7150.00  4.3040544E-01
   7150.33  4.3338913E-01
   7150.67  4.3610378E-01
   7151.00  4.3838262E-01
   7151.33  4.4001599E-01
   7151.67  4.4099247E-01
   7152.00  4.4127263E-01
   7152.33  4.4075259E-01
   7152.67  4.3952330E-01
   7153.00  4.3758641E-01
   7153.33  4.3485057E-01
   7153.67  4.3140219E-01
   7154.00  4.2724778E-01
   7154.33  4.2233220E-01
   7154.67  4.1680331E-01
   7155.00  4.1074578E-01
   7155.33  4.0423872E-01
   7155.67  3.9748132E-01
   7156.00  3.9060413E-01
   7156.33  3.8374850E-01
   7156.67  3.7703036E-01
   7157.00  3.7053173E-01
   7157.33  3.6436082E-01
   7157.67  3.5853203E-01
   7158.00  3.5307650E-01
   7158.33  3.4806909E-01
   7158.67  3.4347617E-01
   7159.00  3.3930655E-01
   7159.33  3.3561812E-01
   7159.67  3.3235657E-01
   7160.00  3.2951768E-01
   7160.33  3.2714548E-01
   7160.67  3.2518040E-01
   7161.00  3.2361907E-01
   7161.33  3.2251832E-01
   7161.67  3.2184555E-01
   7162.00  3.2162627E-01
   7162.33  3.2196255E-01
   7162.67  3.2283962E-01
   7163.00  3.2429688E-01
   7163.33  3.2644747E-01
   7163.67  3.2923080E-01
   7164.00  3.3264116E-01
   7164.33  3.3672418E-01
   7164.67  3.4135704E-01
   7165.00  3.4648974E-01
   7165.33  3.5211704E-01
   7165.67  3.5812750E-01
   7166.00  3.6447828E-01
   7166.33  3.7116501E-01
   7166.67  3.7811667E-01
   7167.00  3.8530813E-01
   7167.33  3.9273559E-01
   7167.67  4.0033968E-01
   7168.00  4.0809034E-01
   7168.33  4.1596391E-01
   7168.67  4.2390510E-01
   7169.00  4.3187408E-01
   7169.33  4.3981744E-01
   7169.67  4.4768272E-01
   7170.00  4.5541821E-01
   7170.33  4.6293358E-01
   7170.67  4.7017580E-01
   7171.00  4.7705885E-01
   7171.33  4.8337214E-01
   7171.67  4.8893278E-01
   7172.00  4.9343402E-01
