    FDMNES
    energy     <xanes>
   7097.00  5.0480007E-03
   7097.33  5.1655499E-03
   7097.67  5.2883384E-03
   7098.00  5.4167122E-03
   7098.33  5.5518690E-03
   7098.67  5.6935485E-03
   7099.00  5.8422179E-03
   7099.33  5.9994308E-03
   7099.67  6.1649149E-03
   7100.00  6.3393169E-03
   7100.33  6.5247013E-03
   7100.67  6.7208029E-03
   7101.00  6.9285434E-03
   7101.33  7.1507456E-03
   7101.67  7.3871952E-03
   7102.00  7.6392521E-03
   7102.33  7.9109112E-03
   7102.67  8.2021065E-03
   7103.00  8.5149302E-03
   7103.33  8.8552810E-03
   7103.67  9.2234620E-03
   7104.00  9.6228639E-03
   7104.33  1.0062672E-02
   7104.67  1.0544086E-02
   7105.00  1.1072976E-02
   7105.33  1.1664669E-02
   7105.67  1.2322611E-02
   7106.00  1.3057904E-02
   7106.33  1.3898618E-02
   7106.67  1.4854351E-02
   7107.00  1.5948824E-02
   7107.33  1.7240780E-02
   7107.67  1.8759354E-02
   7108.00  2.0565346E-02
   7108.33  2.2809775E-02
   7108.67  2.5601242E-02
   7109.00  2.9148929E-02
   7109.33  3.4002405E-02
   7109.67  4.0756662E-02
   7110.00  5.0582868E-02
   7110.33  6.6818334E-02
   7110.67  9.2682333E-02
   7111.00  1.2728983E-01
   7111.33  1.5603602E-01
   7111.67  1.8201527E-01
   7112.00  2.2207233E-01
   7112.33  2.6694345E-01
   7112.67  2.8631315E-01
   7113.00  2.9150101E-01
   7113.33  3.0148193E-01
   7113.67  3.2207133E-01
   7114.00  3.5825458E-01
   7114.33  4.0928951E-01
   7114.67  4.4261121E-01
   7115.00  4.1972185E-01
   7115.33  3.6509665E-01
   7115.67  3.3043295E-01
   7116.00  3.2414282E-01
   7116.33  3.3280606E-01
   7116.67  3.3085714E-01
   7117.00  3.1113345E-01
   7117.33  2.8390839E-01
   7117.67  2.5778067E-01
   7118.00  2.3358018E-01
   7118.33  2.1412717E-01
   7118.67  1.9970389E-01
   7119.00  1.8917488E-01
   7119.33  1.8104103E-01
   7119.67  1.7362949E-01
   7120.00  1.6625693E-01
   7120.33  1.5893440E-01
   7120.67  1.5235996E-01
   7121.00  1.4717238E-01
   7121.33  1.4396908E-01
   7121.67  1.4271907E-01
   7122.00  1.4358019E-01
   7122.33  1.4666830E-01
   7122.67  1.5083502E-01
   7123.00  1.5516229E-01
   7123.33  1.5982245E-01
   7123.67  1.6603059E-01
   7124.00  1.7479856E-01
   7124.33  1.8715090E-01
   7124.67  2.0280962E-01
   7125.00  2.2155067E-01
   7125.33  2.4323629E-01
   7125.67  2.6718147E-01
   7126.00  2.9309092E-01
   7126.33  3.1980243E-01
   7126.67  3.4409598E-01
   7127.00  3.6250901E-01
   7127.33  3.7237061E-01
   7127.67  3.7736639E-01
   7128.00  3.8171327E-01
   7128.33  3.8964018E-01
   7128.67  4.0246662E-01
   7129.00  4.2060799E-01
   7129.33  4.4477951E-01
   7129.67  4.7399156E-01
   7130.00  5.0761337E-01
   7130.33  5.4524852E-01
   7130.67  5.8549854E-01
   7131.00  6.2735006E-01
   7131.33  6.6949935E-01
   7131.67  7.1058672E-01
   7132.00  7.4955721E-01
   7132.33  7.8484641E-01
   7132.67  8.1576713E-01
   7133.00  8.4150086E-01
   7133.33  8.6065926E-01
   7133.67  8.7363917E-01
   7134.00  8.8032042E-01
   7134.33  8.8003934E-01
   7134.67  8.7406131E-01
   7135.00  8.6287542E-01
   7135.33  8.4598504E-01
   7135.67  8.2363034E-01
   7136.00  7.9541127E-01
   7136.33  7.6066995E-01
   7136.67  7.2115901E-01
   7137.00  6.7850672E-01
   7137.33  6.3499210E-01
   7137.67  5.9309188E-01
   7138.00  5.5455025E-01
   7138.33  5.2148331E-01
   7138.67  4.9416714E-01
   7139.00  4.7287167E-01
   7139.33  4.5813172E-01
   7139.67  4.4856696E-01
   7140.00  4.4336267E-01
   7140.33  4.4186707E-01
   7140.67  4.4266695E-01
   7141.00  4.4505333E-01
   7141.33  4.4853549E-01
   7141.67  4.5258999E-01
   7142.00  4.5700276E-01
   7142.33  4.6164989E-01
   7142.67  4.6641470E-01
   7143.00  4.7123824E-01
   7143.33  4.7605357E-01
   7143.67  4.8079325E-01
   7144.00  4.8540340E-01
   7144.33  4.8982520E-01
   7144.67  4.9408997E-01
   7145.00  4.9824983E-01
   7145.33  5.0239815E-01
   7145.67  5.0665722E-01
   7146.00  5.1114209E-01
   7146.33  5.1602127E-01
   7146.67  5.2134158E-01
   7147.00  5.2713239E-01
   7147.33  5.3343239E-01
   7147.67  5.4013385E-01
   7148.00  5.4718339E-01
   7148.33  5.5455059E-01
   7148.67  5.6213272E-01
   7149.00  5.6987977E-01
   7149.33  5.7776413E-01
   7149.67  5.8574380E-01
   7150.00  5.9380566E-01
   7150.33  6.0194809E-01
   7150.67  6.1014603E-01
   7151.00  6.1837164E-01
   7151.33  6.2656054E-01
   7151.67  6.3461322E-01
   7152.00  6.4240239E-01
   7152.33  6.4969389E-01
   7152.67  6.5634624E-01
   7153.00  6.6219513E-01
   7153.33  6.6696181E-01
   7153.67  6.7066472E-01
   7154.00  6.7327109E-01
   7154.33  6.7467748E-01
   7154.67  6.7511160E-01
   7155.00  6.7469013E-01
   7155.33  6.7348299E-01
   7155.67  6.7173726E-01
   7156.00  6.6957830E-01
   7156.33  6.6709123E-01
   7156.67  6.6440284E-01
   7157.00  6.6156494E-01
   7157.33  6.5859517E-01
   7157.67  6.5551519E-01
   7158.00  6.5231639E-01
   7158.33  6.4896074E-01
   7158.67  6.4544020E-01
   7159.00  6.4173337E-01
   7159.33  6.3779368E-01
   7159.67  6.3363480E-01
   7160.00  6.2925532E-01
   7160.33  6.2463886E-01
   7160.67  6.1983335E-01
   7161.00  6.1486456E-01
   7161.33  6.0975226E-01
   7161.67  6.0455264E-01
   7162.00  5.9930249E-01
   7162.33  5.9404097E-01
   7162.67  5.8879796E-01
   7163.00  5.8358924E-01
   7163.33  5.7843440E-01
   7163.67  5.7333325E-01
   7164.00  5.6828340E-01
   7164.33  5.6327903E-01
   7164.67  5.5829656E-01
   7165.00  5.5331599E-01
   7165.33  5.4830931E-01
   7165.67  5.4325543E-01
   7166.00  5.3813729E-01
   7166.33  5.3293186E-01
   7166.67  5.2764309E-01
   7167.00  5.2227160E-01
   7167.33  5.1681439E-01
   7167.67  5.1129209E-01
   7168.00  5.0571606E-01
   7168.33  5.0009543E-01
   7168.67  4.9445109E-01
   7169.00  4.8879820E-01
   7169.33  4.8315526E-01
   7169.67  4.7753766E-01
   7170.00  4.7196256E-01
   7170.33  4.6646999E-01
   7170.67  4.6109840E-01
   7171.00  4.5591015E-01
   7171.33  4.5106226E-01
   7171.67  4.4672903E-01
   7172.00  4.4318173E-01
