    FDMNES
    energy     <xanes>
   7097.00  3.7336983E-03
   7097.33  3.7965858E-03
   7097.67  3.8616114E-03
   7098.00  3.9288942E-03
   7098.33  3.9988865E-03
   7098.67  4.0714540E-03
   7099.00  4.1467535E-03
   7099.33  4.2253527E-03
   7099.67  4.3071087E-03
   7100.00  4.3922335E-03
   7100.33  4.4814575E-03
   7100.67  4.5746338E-03
   7101.00  4.6720584E-03
   7101.33  4.7746985E-03
   7101.67  4.8824158E-03
   7102.00  4.9956382E-03
   7102.33  5.1156935E-03
   7102.67  5.2424792E-03
   7103.00  5.3766422E-03
   7103.33  5.5200875E-03
   7103.67  5.6728116E-03
   7104.00  5.8358463E-03
   7104.33  6.0120802E-03
   7104.67  6.2017600E-03
   7105.00  6.4066463E-03
   7105.33  6.6314422E-03
   7105.67  6.8770306E-03
   7106.00  7.1466925E-03
   7106.33  7.4488467E-03
   7106.67  7.7861139E-03
   7107.00  8.1653916E-03
   7107.33  8.6038937E-03
   7107.67  9.1096954E-03
   7108.00  9.7001168E-03
   7108.33  1.0418263E-02
   7108.67  1.1294011E-02
   7109.00  1.2385492E-02
   7109.33  1.3845156E-02
   7109.67  1.5834733E-02
   7110.00  1.8672278E-02
   7110.33  2.3238579E-02
   7110.67  3.0136976E-02
   7111.00  3.8269077E-02
   7111.33  4.4823594E-02
   7111.67  5.4129440E-02
   7112.00  7.1309817E-02
   7112.33  1.0238225E-01
   7112.67  1.3315149E-01
   7113.00  1.2859478E-01
   7113.33  9.6267099E-02
   7113.67  7.6061303E-02
   7114.00  7.1444223E-02
   7114.33  8.2157605E-02
   7114.67  1.0628253E-01
   7115.00  1.3689672E-01
   7115.33  1.4317376E-01
   7115.67  1.2316188E-01
   7116.00  1.0343289E-01
   7116.33  9.2851930E-02
   7116.67  8.0933430E-02
   7117.00  6.6966285E-02
   7117.33  5.6110865E-02
   7117.67  4.8695428E-02
   7118.00  4.3695575E-02
   7118.33  4.0538112E-02
   7118.67  3.8672867E-02
   7119.00  3.7906050E-02
   7119.33  3.8150104E-02
   7119.67  3.8913768E-02
   7120.00  3.9631334E-02
   7120.33  4.0257277E-02
   7120.67  4.1528512E-02
   7121.00  4.3825723E-02
   7121.33  4.7451420E-02
   7121.67  5.2316020E-02
   7122.00  5.8374350E-02
   7122.33  6.5609984E-02
   7122.67  7.4017313E-02
   7123.00  8.4211403E-02
   7123.33  9.7053241E-02
   7123.67  1.1118037E-01
   7124.00  1.2463342E-01
   7124.33  1.3709897E-01
   7124.67  1.5129465E-01
   7125.00  1.6894942E-01
   7125.33  1.9007249E-01
   7125.67  2.1261248E-01
   7126.00  2.3548336E-01
   7126.33  2.5750639E-01
   7126.67  2.7765431E-01
   7127.00  2.9530756E-01
   7127.33  3.0994636E-01
   7127.67  3.2219694E-01
   7128.00  3.3272265E-01
   7128.33  3.4286083E-01
   7128.67  3.5462859E-01
   7129.00  3.7002431E-01
   7129.33  3.9235203E-01
   7129.67  4.2323446E-01
   7130.00  4.6381873E-01
   7130.33  5.1356594E-01
   7130.67  5.6433740E-01
   7131.00  6.0533111E-01
   7131.33  6.2222733E-01
   7131.67  6.1656702E-01
   7132.00  5.9625425E-01
   7132.33  5.7209442E-01
   7132.67  5.5185847E-01
   7133.00  5.3827884E-01
   7133.33  5.3296063E-01
   7133.67  5.3434626E-01
   7134.00  5.4138011E-01
   7134.33  5.5304077E-01
   7134.67  5.6716516E-01
   7135.00  5.8244949E-01
   7135.33  5.9777140E-01
   7135.67  6.1261938E-01
   7136.00  6.2708677E-01
   7136.33  6.4178480E-01
   7136.67  6.5753105E-01
   7137.00  6.7502620E-01
   7137.33  6.9502239E-01
   7137.67  7.1701254E-01
   7138.00  7.4000157E-01
   7138.33  7.6160830E-01
   7138.67  7.7882606E-01
   7139.00  7.8874954E-01
   7139.33  7.8758075E-01
   7139.67  7.7583479E-01
   7140.00  7.5463686E-01
   7140.33  7.2597949E-01
   7140.67  6.9410429E-01
   7141.00  6.6167768E-01
   7141.33  6.3110745E-01
   7141.67  6.0331635E-01
   7142.00  5.7865438E-01
   7142.33  5.5753412E-01
   7142.67  5.3936858E-01
   7143.00  5.2392255E-01
   7143.33  5.1120994E-01
   7143.67  5.0065474E-01
   7144.00  4.9204907E-01
   7144.33  4.8539784E-01
   7144.67  4.8029288E-01
   7145.00  4.7657071E-01
   7145.33  4.7418657E-01
   7145.67  4.7282245E-01
   7146.00  4.7234799E-01
   7146.33  4.7269576E-01
   7146.67  4.7360163E-01
   7147.00  4.7490549E-01
   7147.33  4.7643131E-01
   7147.67  4.7794359E-01
   7148.00  4.7926261E-01
   7148.33  4.8015004E-01
   7148.67  4.8050788E-01
   7149.00  4.8026646E-01
   7149.33  4.7935545E-01
   7149.67  4.7795682E-01
   7150.00  4.7624449E-01
   7150.33  4.7449487E-01
   7150.67  4.7305021E-01
   7151.00  4.7222399E-01
   7151.33  4.7249361E-01
   7151.67  4.7404420E-01
   7152.00  4.7707406E-01
   7152.33  4.8191327E-01
   7152.67  4.8835315E-01
   7153.00  4.9626935E-01
   7153.33  5.0555512E-01
   7153.67  5.1569305E-01
   7154.00  5.2630282E-01
   7154.33  5.3689818E-01
   7154.67  5.4699955E-01
   7155.00  5.5623496E-01
   7155.33  5.6406835E-01
   7155.67  5.7032409E-01
   7156.00  5.7476790E-01
   7156.33  5.7696215E-01
   7156.67  5.7708950E-01
   7157.00  5.7520357E-01
   7157.33  5.7126899E-01
   7157.67  5.6582394E-01
   7158.00  5.5920177E-01
   7158.33  5.5173738E-01
   7158.67  5.4395940E-01
   7159.00  5.3622189E-01
   7159.33  5.2894465E-01
   7159.67  5.2238502E-01
   7160.00  5.1675585E-01
   7160.33  5.1238666E-01
   7160.67  5.0927073E-01
   7161.00  5.0748378E-01
   7161.33  5.0724848E-01
   7161.67  5.0840753E-01
   7162.00  5.1094926E-01
   7162.33  5.1500201E-01
   7162.67  5.2033215E-01
   7163.00  5.2686297E-01
   7163.33  5.3461714E-01
   7163.67  5.4331434E-01
   7164.00  5.5279520E-01
   7164.33  5.6290144E-01
   7164.67  5.7329576E-01
   7165.00  5.8371408E-01
   7165.33  5.9377815E-01
   7165.67  6.0317617E-01
   7166.00  6.1162131E-01
   7166.33  6.1867669E-01
   7166.67  6.2430312E-01
   7167.00  6.2842367E-01
   7167.33  6.3087303E-01
   7167.67  6.3196344E-01
   7168.00  6.3186875E-01
   7168.33  6.3072213E-01
   7168.67  6.2891169E-01
   7169.00  6.2666680E-01
   7169.33  6.2420969E-01
   7169.67  6.2177385E-01
   7170.00  6.1950418E-01
   7170.33  6.1756124E-01
   7170.67  6.1598436E-01
   7171.00  6.1480009E-01
   7171.33  6.1404203E-01
   7171.67  6.1359851E-01
   7172.00  6.1337477E-01
