    FDMNES
    energy     <xanes>
   7097.00  4.5643788E-03
   7097.33  4.6612215E-03
   7097.67  4.7619670E-03
   7098.00  4.8668553E-03
   7098.33  4.9767500E-03
   7098.67  5.0914352E-03
   7099.00  5.2112325E-03
   7099.33  5.3372478E-03
   7099.67  5.4692546E-03
   7100.00  5.6076956E-03
   7100.33  5.7540246E-03
   7100.67  5.9080182E-03
   7101.00  6.0703062E-03
   7101.33  6.2428606E-03
   7101.67  6.4254941E-03
   7102.00  6.6191385E-03
   7102.33  6.8265748E-03
   7102.67  7.0477264E-03
   7103.00  7.2840407E-03
   7103.33  7.5396346E-03
   7103.67  7.8147173E-03
   7104.00  8.1116766E-03
   7104.33  8.4369970E-03
   7104.67  8.7916048E-03
   7105.00  9.1797529E-03
   7105.33  9.6125174E-03
   7105.67  1.0092692E-02
   7106.00  1.0628657E-02
   7106.33  1.1241504E-02
   7106.67  1.1939371E-02
   7107.00  1.2741191E-02
   7107.33  1.3693734E-02
   7107.67  1.4822981E-02
   7108.00  1.6181029E-02
   7108.33  1.7897693E-02
   7108.67  2.0075373E-02
   7109.00  2.2907949E-02
   7109.33  2.6909336E-02
   7109.67  3.2668186E-02
   7110.00  4.1341817E-02
   7110.33  5.6292656E-02
   7110.67  8.1331301E-02
   7111.00  1.1813419E-01
   7111.33  1.5443272E-01
   7111.67  1.6982117E-01
   7112.00  1.6327319E-01
   7112.33  1.5298090E-01
   7112.67  1.5177938E-01
   7113.00  1.5951045E-01
   7113.33  1.6296175E-01
   7113.67  1.5080161E-01
   7114.00  1.2957322E-01
   7114.33  1.1161378E-01
   7114.67  1.0013553E-01
   7115.00  9.4533257E-02
   7115.33  9.4171526E-02
   7115.67  9.7687473E-02
   7116.00  1.0479962E-01
   7116.33  1.1586630E-01
   7116.67  1.3050009E-01
   7117.00  1.4867414E-01
   7117.33  1.6951642E-01
   7117.67  1.8930803E-01
   7118.00  2.0466129E-01
   7118.33  2.1382361E-01
   7118.67  2.1941717E-01
   7119.00  2.2389130E-01
   7119.33  2.3075498E-01
   7119.67  2.4261353E-01
   7120.00  2.6023321E-01
   7120.33  2.8213118E-01
   7120.67  3.0396237E-01
   7121.00  3.2299938E-01
   7121.33  3.3827844E-01
   7121.67  3.5128772E-01
   7122.00  3.6263361E-01
   7122.33  3.7259319E-01
   7122.67  3.8205479E-01
   7123.00  3.9185017E-01
   7123.33  4.0306399E-01
   7123.67  4.1618450E-01
   7124.00  4.3141370E-01
   7124.33  4.4871261E-01
   7124.67  4.6709482E-01
   7125.00  4.8562007E-01
   7125.33  5.0285027E-01
   7125.67  5.1779043E-01
   7126.00  5.2995938E-01
   7126.33  5.3922818E-01
   7126.67  5.4670056E-01
   7127.00  5.5313657E-01
   7127.33  5.5895089E-01
   7127.67  5.6402699E-01
   7128.00  5.6780052E-01
   7128.33  5.6920157E-01
   7128.67  5.6780601E-01
   7129.00  5.6334620E-01
   7129.33  5.5587780E-01
   7129.67  5.4696568E-01
   7130.00  5.3802311E-01
   7130.33  5.3064393E-01
   7130.67  5.2538730E-01
   7131.00  5.2227121E-01
   7131.33  5.2100684E-01
   7131.67  5.2065673E-01
   7132.00  5.2065059E-01
   7132.33  5.2056167E-01
   7132.67  5.2023747E-01
   7133.00  5.1964140E-01
   7133.33  5.1878642E-01
   7133.67  5.1790672E-01
   7134.00  5.1722596E-01
   7134.33  5.1691023E-01
   7134.67  5.1689324E-01
   7135.00  5.1709642E-01
   7135.33  5.1743163E-01
   7135.67  5.1780327E-01
   7136.00  5.1817736E-01
   7136.33  5.1856428E-01
   7136.67  5.1901607E-01
   7137.00  5.1959537E-01
   7137.33  5.2038942E-01
   7137.67  5.2141933E-01
   7138.00  5.2271184E-01
   7138.33  5.2432167E-01
   7138.67  5.2622553E-01
   7139.00  5.2843406E-01
   7139.33  5.3100833E-01
   7139.67  5.3394052E-01
   7140.00  5.3726876E-01
   7140.33  5.4110182E-01
   7140.67  5.4543765E-01
   7141.00  5.5031574E-01
   7141.33  5.5583623E-01
   7141.67  5.6192987E-01
   7142.00  5.6857309E-01
   7142.33  5.7576905E-01
   7142.67  5.8336623E-01
   7143.00  5.9126547E-01
   7143.33  5.9935192E-01
   7143.67  6.0744669E-01
   7144.00  6.1539669E-01
   7144.33  6.2297211E-01
   7144.67  6.3002411E-01
   7145.00  6.3639238E-01
   7145.33  6.4179585E-01
   7145.67  6.4619381E-01
   7146.00  6.4949071E-01
   7146.33  6.5147976E-01
   7146.67  6.5230832E-01
   7147.00  6.5203152E-01
   7147.33  6.5064930E-01
   7147.67  6.4845839E-01
   7148.00  6.4563527E-01
   7148.33  6.4234714E-01
   7148.67  6.3885964E-01
   7149.00  6.3533929E-01
   7149.33  6.3196508E-01
   7149.67  6.2884277E-01
   7150.00  6.2604212E-01
   7150.33  6.2365011E-01
   7150.67  6.2162552E-01
   7151.00  6.1994731E-01
   7151.33  6.1860525E-01
   7151.67  6.1749842E-01
   7152.00  6.1655980E-01
   7152.33  6.1571381E-01
   7152.67  6.1487228E-01
   7153.00  6.1397421E-01
   7153.33  6.1293573E-01
   7153.67  6.1170839E-01
   7154.00  6.1024218E-01
   7154.33  6.0844987E-01
   7154.67  6.0632653E-01
   7155.00  6.0384566E-01
   7155.33  6.0093968E-01
   7155.67  5.9764713E-01
   7156.00  5.9396983E-01
   7156.33  5.8987303E-01
   7156.67  5.8542443E-01
   7157.00  5.8064793E-01
   7157.33  5.7553929E-01
   7157.67  5.7017240E-01
   7158.00  5.6458167E-01
   7158.33  5.5878628E-01
   7158.67  5.5285247E-01
   7159.00  5.4681736E-01
   7159.33  5.4071272E-01
   7159.67  5.3458423E-01
   7160.00  5.2846439E-01
   7160.33  5.2239440E-01
   7160.67  5.1640165E-01
   7161.00  5.1051192E-01
   7161.33  5.0476874E-01
   7161.67  4.9917944E-01
   7162.00  4.9376159E-01
   7162.33  4.8855318E-01
   7162.67  4.8353586E-01
   7163.00  4.7870748E-01
   7163.33  4.7408064E-01
   7163.67  4.6961644E-01
   7164.00  4.6529787E-01
   7164.33  4.6112071E-01
   7164.67  4.5705329E-01
   7165.00  4.5308765E-01
   7165.33  4.4923428E-01
   7165.67  4.4548766E-01
   7166.00  4.4186108E-01
   7166.33  4.3839429E-01
   7166.67  4.3509566E-01
   7167.00  4.3198843E-01
   7167.33  4.2912468E-01
   7167.67  4.2649867E-01
   7168.00  4.2412535E-01
   7168.33  4.2205055E-01
   7168.67  4.2024806E-01
   7169.00  4.1871892E-01
   7169.33  4.1749166E-01
   7169.67  4.1652077E-01
   7170.00  4.1579060E-01
   7170.33  4.1530442E-01
   7170.67  4.1500582E-01
   7171.00  4.1486520E-01
   7171.33  4.1485524E-01
   7171.67  4.1490687E-01
   7172.00  4.1496112E-01
