    FDMNES
    energy     <xanes>
   7097.00  5.2606751E-03
   7097.33  5.3900082E-03
   7097.67  5.5255706E-03
   7098.00  5.6678101E-03
   7098.33  5.8182133E-03
   7098.67  5.9765224E-03
   7099.00  6.1433577E-03
   7099.33  6.3206959E-03
   7099.67  6.5082859E-03
   7100.00  6.7070114E-03
   7100.33  6.9195754E-03
   7100.67  7.1457740E-03
   7101.00  7.3869086E-03
   7101.33  7.6468004E-03
   7101.67  7.9253814E-03
   7102.00  8.2246455E-03
   7102.33  8.5502162E-03
   7102.67  8.9023582E-03
   7103.00  9.2842761E-03
   7103.33  9.7046643E-03
   7103.67  1.0164574E-02
   7104.00  1.0669470E-02
   7104.33  1.1233652E-02
   7104.67  1.1860070E-02
   7105.00  1.2558775E-02
   7105.33  1.3355233E-02
   7105.67  1.4257279E-02
   7106.00  1.5285317E-02
   7106.33  1.6489802E-02
   7106.67  1.7892536E-02
   7107.00  1.9540946E-02
   7107.33  2.1551115E-02
   7107.67  2.3991895E-02
   7108.00  2.6997418E-02
   7108.33  3.0901291E-02
   7108.67  3.5977008E-02
   7109.00  4.2738037E-02
   7109.33  5.2550375E-02
   7109.67  6.7016506E-02
   7110.00  8.9298024E-02
   7110.33  1.2876015E-01
   7110.67  1.9722020E-01
   7111.00  3.0116001E-01
   7111.33  3.7781013E-01
   7111.67  3.6462733E-01
   7112.00  3.2783051E-01
   7112.33  3.2354052E-01
   7112.67  3.3940619E-01
   7113.00  3.7004886E-01
   7113.33  4.1088846E-01
   7113.67  3.9348853E-01
   7114.00  3.0997745E-01
   7114.33  2.3523610E-01
   7114.67  1.9650753E-01
   7115.00  1.9087154E-01
   7115.33  2.1844216E-01
   7115.67  2.6775741E-01
   7116.00  3.1630454E-01
   7116.33  3.3418454E-01
   7116.67  3.1058228E-01
   7117.00  2.5593440E-01
   7117.33  2.0445866E-01
   7117.67  1.6888764E-01
   7118.00  1.4709293E-01
   7118.33  1.3499537E-01
   7118.67  1.2727099E-01
   7119.00  1.2205242E-01
   7119.33  1.1826712E-01
   7119.67  1.1442211E-01
   7120.00  1.1013689E-01
   7120.33  1.0612497E-01
   7120.67  1.0330212E-01
   7121.00  1.0210980E-01
   7121.33  1.0274215E-01
   7121.67  1.0456885E-01
   7122.00  1.0711129E-01
   7122.33  1.1013627E-01
   7122.67  1.1370351E-01
   7123.00  1.1804868E-01
   7123.33  1.2354747E-01
   7123.67  1.3035126E-01
   7124.00  1.3874968E-01
   7124.33  1.4932061E-01
   7124.67  1.6214526E-01
   7125.00  1.7752552E-01
   7125.33  1.9624045E-01
   7125.67  2.1825976E-01
   7126.00  2.4356781E-01
   7126.33  2.7183799E-01
   7126.67  3.0153484E-01
   7127.00  3.3139062E-01
   7127.33  3.5918721E-01
   7127.67  3.8234673E-01
   7128.00  3.9857204E-01
   7128.33  4.0658122E-01
   7128.67  4.1063048E-01
   7129.00  4.1546736E-01
   7129.33  4.2687161E-01
   7129.67  4.4704398E-01
   7130.00  4.7680350E-01
   7130.33  5.1708194E-01
   7130.67  5.6588281E-01
   7131.00  6.2213673E-01
   7131.33  6.8485770E-01
   7131.67  7.5137186E-01
   7132.00  8.1978117E-01
   7132.33  8.8669531E-01
   7132.67  9.4728689E-01
   7133.00  9.9658783E-01
   7133.33  1.0289696E+00
   7133.67  1.0473205E+00
   7134.00  1.0559539E+00
   7134.33  1.0594193E+00
   7134.67  1.0588625E+00
   7135.00  1.0504116E+00
   7135.33  1.0273568E+00
   7135.67  9.9077854E-01
   7136.00  9.4438987E-01
   7136.33  8.9369443E-01
   7136.67  8.4393105E-01
   7137.00  7.9751824E-01
   7137.33  7.5638971E-01
   7137.67  7.2034596E-01
   7138.00  6.8930386E-01
   7138.33  6.6350972E-01
   7138.67  6.4194194E-01
   7139.00  6.2421987E-01
   7139.33  6.1035993E-01
   7139.67  5.9955626E-01
   7140.00  5.9150226E-01
   7140.33  5.8613730E-01
   7140.67  5.8278579E-01
   7141.00  5.8110545E-01
   7141.33  5.8083437E-01
   7141.67  5.8138734E-01
   7142.00  5.8239943E-01
   7142.33  5.8346160E-01
   7142.67  5.8416778E-01
   7143.00  5.8420176E-01
   7143.33  5.8313916E-01
   7143.67  5.8090102E-01
   7144.00  5.7741195E-01
   7144.33  5.7254383E-01
   7144.67  5.6657629E-01
   7145.00  5.5967372E-01
   7145.33  5.5197632E-01
   7145.67  5.4382497E-01
   7146.00  5.3545364E-01
   7146.33  5.2716754E-01
   7146.67  5.1927253E-01
   7147.00  5.1203663E-01
   7147.33  5.0584657E-01
   7147.67  5.0077036E-01
   7148.00  4.9688135E-01
   7148.33  4.9432612E-01
   7148.67  4.9285636E-01
   7149.00  4.9231349E-01
   7149.33  4.9257134E-01
   7149.67  4.9333687E-01
   7150.00  4.9447094E-01
   7150.33  4.9590467E-01
   7150.67  4.9756566E-01
   7151.00  4.9946435E-01
   7151.33  5.0168449E-01
   7151.67  5.0425367E-01
   7152.00  5.0721766E-01
   7152.33  5.1064836E-01
   7152.67  5.1446012E-01
   7153.00  5.1858399E-01
   7153.33  5.2293078E-01
   7153.67  5.2733668E-01
   7154.00  5.3167598E-01
   7154.33  5.3578672E-01
   7154.67  5.3958244E-01
   7155.00  5.4299460E-01
   7155.33  5.4592578E-01
   7155.67  5.4842216E-01
   7156.00  5.5050280E-01
   7156.33  5.5216755E-01
   7156.67  5.5352812E-01
   7157.00  5.5465127E-01
   7157.33  5.5560171E-01
   7157.67  5.5648268E-01
   7158.00  5.5736139E-01
   7158.33  5.5831235E-01
   7158.67  5.5937463E-01
   7159.00  5.6056839E-01
   7159.33  5.6190629E-01
   7159.67  5.6333915E-01
   7160.00  5.6481614E-01
   7160.33  5.6625246E-01
   7160.67  5.6755747E-01
   7161.00  5.6864440E-01
   7161.33  5.6937587E-01
   7161.67  5.6970958E-01
   7162.00  5.6959613E-01
   7162.33  5.6893704E-01
   7162.67  5.6777521E-01
   7163.00  5.6611205E-01
   7163.33  5.6389144E-01
   7163.67  5.6118128E-01
   7164.00  5.5800553E-01
   7164.33  5.5435539E-01
   7164.67  5.5033034E-01
   7165.00  5.4596997E-01
   7165.33  5.4128542E-01
   7165.67  5.3635974E-01
   7166.00  5.3123270E-01
   7166.33  5.2593192E-01
   7166.67  5.2052414E-01
   7167.00  5.1504864E-01
   7167.33  5.0954619E-01
   7167.67  5.0406404E-01
   7168.00  4.9863638E-01
   7168.33  4.9330533E-01
   7168.67  4.8808717E-01
   7169.00  4.8300445E-01
   7169.33  4.7810727E-01
   7169.67  4.7340600E-01
   7170.00  4.6892285E-01
   7170.33  4.6471337E-01
   7170.67  4.6077686E-01
   7171.00  4.5714538E-01
   7171.33  4.5391666E-01
   7171.67  4.5113456E-01
   7172.00  4.4890836E-01
