    FDMNES
    energy     <xanes>
   7097.00  4.2541440E-03
   7097.33  4.3336038E-03
   7097.67  4.4158255E-03
   7098.00  4.5009588E-03
   7098.33  4.5895821E-03
   7098.67  4.6815171E-03
   7099.00  4.7769608E-03
   7099.33  4.8766358E-03
   7099.67  4.9803526E-03
   7100.00  5.0883776E-03
   7100.33  5.2016376E-03
   7100.67  5.3199395E-03
   7101.00  5.4436564E-03
   7101.33  5.5740170E-03
   7101.67  5.7108431E-03
   7102.00  5.8546808E-03
   7102.33  6.0072276E-03
   7102.67  6.1683649E-03
   7103.00  6.3389365E-03
   7103.33  6.5214163E-03
   7103.67  6.7158525E-03
   7104.00  6.9236401E-03
   7104.33  7.1486454E-03
   7104.67  7.3913543E-03
   7105.00  7.6542827E-03
   7105.33  7.9440566E-03
   7105.67  8.2623495E-03
   7106.00  8.6142429E-03
   7106.33  9.0126010E-03
   7106.67  9.4626456E-03
   7107.00  9.9763495E-03
   7107.33  1.0583427E-02
   7107.67  1.1301658E-02
   7108.00  1.2166203E-02
   7108.33  1.3265647E-02
   7108.67  1.4676217E-02
   7109.00  1.6542544E-02
   7109.33  1.9258220E-02
   7109.67  2.3316788E-02
   7110.00  2.9703372E-02
   7110.33  4.1259592E-02
   7110.67  6.0203208E-02
   7111.00  8.2112784E-02
   7111.33  8.6254733E-02
   7111.67  7.8914278E-02
   7112.00  7.6624433E-02
   7112.33  8.1394640E-02
   7112.67  8.6118966E-02
   7113.00  8.9783171E-02
   7113.33  8.5851004E-02
   7113.67  7.4282094E-02
   7114.00  6.0892760E-02
   7114.33  5.0162451E-02
   7114.67  4.2912482E-02
   7115.00  3.8224307E-02
   7115.33  3.5463447E-02
   7115.67  3.4052687E-02
   7116.00  3.3835232E-02
   7116.33  3.4851200E-02
   7116.67  3.6917134E-02
   7117.00  3.9848235E-02
   7117.33  4.3287087E-02
   7117.67  4.7175516E-02
   7118.00  5.1892612E-02
   7118.33  5.8017967E-02
   7118.67  6.5329283E-02
   7119.00  7.3491930E-02
   7119.33  8.2584261E-02
   7119.67  9.3070423E-02
   7120.00  1.0557560E-01
   7120.33  1.2105846E-01
   7120.67  1.3963423E-01
   7121.00  1.6138831E-01
   7121.33  1.8620434E-01
   7121.67  2.1292809E-01
   7122.00  2.4097228E-01
   7122.33  2.6988304E-01
   7122.67  2.9917822E-01
   7123.00  3.2900113E-01
   7123.33  3.6043105E-01
   7123.67  3.9456775E-01
   7124.00  4.3231814E-01
   7124.33  4.7459012E-01
   7124.67  5.2072875E-01
   7125.00  5.7060938E-01
   7125.33  6.2417612E-01
   7125.67  6.7963830E-01
   7126.00  7.3595590E-01
   7126.33  7.9205150E-01
   7126.67  8.4446183E-01
   7127.00  8.8677866E-01
   7127.33  9.0769563E-01
   7127.67  9.0565037E-01
   7128.00  8.8396621E-01
   7128.33  8.4873815E-01
   7128.67  8.0791257E-01
   7129.00  7.6516510E-01
   7129.33  7.2381701E-01
   7129.67  6.8620977E-01
   7130.00  6.5394461E-01
   7130.33  6.2908227E-01
   7130.67  6.1146193E-01
   7131.00  6.0120867E-01
   7131.33  5.9865424E-01
   7131.67  6.0165404E-01
   7132.00  6.0886577E-01
   7132.33  6.1948408E-01
   7132.67  6.3250504E-01
   7133.00  6.4762370E-01
   7133.33  6.6470243E-01
   7133.67  6.8302013E-01
   7134.00  7.0195668E-01
   7134.33  7.2045679E-01
   7134.67  7.3724338E-01
   7135.00  7.5101082E-01
   7135.33  7.5976028E-01
   7135.67  7.6309237E-01
   7136.00  7.6083397E-01
   7136.33  7.5297552E-01
   7136.67  7.4137242E-01
   7137.00  7.2725029E-01
   7137.33  7.1176887E-01
   7137.67  6.9610295E-01
   7138.00  6.8086354E-01
   7138.33  6.6659969E-01
   7138.67  6.5343671E-01
   7139.00  6.4147928E-01
   7139.33  6.3095728E-01
   7139.67  6.2175881E-01
   7140.00  6.1391566E-01
   7140.33  6.0761546E-01
   7140.67  6.0263667E-01
   7141.00  5.9886090E-01
   7141.33  5.9617570E-01
   7141.67  5.9413069E-01
   7142.00  5.9239804E-01
   7142.33  5.9057474E-01
   7142.67  5.8832441E-01
   7143.00  5.8545699E-01
   7143.33  5.8182710E-01
   7143.67  5.7759802E-01
   7144.00  5.7290781E-01
   7144.33  5.6791841E-01
   7144.67  5.6284979E-01
   7145.00  5.5782648E-01
   7145.33  5.5294645E-01
   7145.67  5.4820066E-01
   7146.00  5.4354037E-01
   7146.33  5.3886115E-01
   7146.67  5.3403942E-01
   7147.00  5.2897061E-01
   7147.33  5.2351763E-01
   7147.67  5.1767658E-01
   7148.00  5.1145207E-01
   7148.33  5.0485523E-01
   7148.67  4.9801640E-01
   7149.00  4.9102525E-01
   7149.33  4.8397651E-01
   7149.67  4.7696202E-01
   7150.00  4.7004060E-01
   7150.33  4.6327346E-01
   7150.67  4.5665442E-01
   7151.00  4.5017287E-01
   7151.33  4.4381357E-01
   7151.67  4.3752323E-01
   7152.00  4.3126398E-01
   7152.33  4.2498946E-01
   7152.67  4.1866012E-01
   7153.00  4.1224612E-01
   7153.33  4.0570717E-01
   7153.67  3.9904238E-01
   7154.00  3.9225038E-01
   7154.33  3.8533070E-01
   7154.67  3.7833093E-01
   7155.00  3.7129722E-01
   7155.33  3.6430807E-01
   7155.67  3.5745103E-01
   7156.00  3.5081724E-01
   7156.33  3.4456280E-01
   7156.67  3.3876055E-01
   7157.00  3.3350359E-01
   7157.33  3.2896332E-01
   7157.67  3.2512228E-01
   7158.00  3.2200610E-01
   7158.33  3.1970961E-01
   7158.67  3.1811995E-01
   7159.00  3.1720046E-01
   7159.33  3.1697193E-01
   7159.67  3.1729594E-01
   7160.00  3.1812177E-01
   7160.33  3.1945524E-01
   7160.67  3.2120247E-01
   7161.00  3.2334490E-01
   7161.33  3.2592732E-01
   7161.67  3.2891096E-01
   7162.00  3.3231082E-01
   7162.33  3.3620466E-01
   7162.67  3.4056603E-01
   7163.00  3.4541996E-01
   7163.33  3.5084976E-01
   7163.67  3.5679044E-01
   7164.00  3.6321969E-01
   7164.33  3.7013796E-01
   7164.67  3.7740727E-01
   7165.00  3.8493524E-01
   7165.33  3.9261490E-01
   7165.67  4.0029731E-01
   7166.00  4.0787060E-01
   7166.33  4.1518983E-01
   7166.67  4.2219048E-01
   7167.00  4.2881596E-01
   7167.33  4.3497760E-01
   7167.67  4.4071892E-01
   7168.00  4.4605183E-01
   7168.33  4.5095852E-01
   7168.67  4.5552522E-01
   7169.00  4.5978705E-01
   7169.33  4.6374835E-01
   7169.67  4.6747232E-01
   7170.00  4.7097552E-01
   7170.33  4.7423892E-01
   7170.67  4.7728308E-01
   7171.00  4.8009031E-01
   7171.33  4.8258715E-01
   7171.67  4.8474043E-01
   7172.00  4.8646983E-01
