    FDMNES
    energy     <xanes>
   7097.00  5.3617326E-03
   7097.33  5.4964822E-03
   7097.67  5.6376959E-03
   7098.00  5.7858279E-03
   7098.33  5.9424015E-03
   7098.67  6.1071321E-03
   7099.00  6.2806415E-03
   7099.33  6.4649361E-03
   7099.67  6.6597272E-03
   7100.00  6.8658884E-03
   7100.33  7.0861293E-03
   7100.67  7.3201888E-03
   7101.00  7.5693302E-03
   7101.33  7.8373234E-03
   7101.67  8.1240028E-03
   7102.00  8.4312612E-03
   7102.33  8.7645304E-03
   7102.67  9.1238903E-03
   7103.00  9.5122967E-03
   7103.33  9.9379161E-03
   7103.67  1.0401408E-02
   7104.00  1.0907630E-02
   7104.33  1.1469519E-02
   7104.67  1.2089100E-02
   7105.00  1.2774875E-02
   7105.33  1.3548749E-02
   7105.67  1.4416094E-02
   7106.00  1.5393069E-02
   7106.33  1.6520152E-02
   7106.67  1.7811624E-02
   7107.00  1.9301838E-02
   7107.33  2.1075271E-02
   7107.67  2.3173440E-02
   7108.00  2.5682343E-02
   7108.33  2.8813874E-02
   7108.67  3.2714246E-02
   7109.00  3.7664020E-02
   7109.33  4.4389290E-02
   7109.67  5.3631591E-02
   7110.00  6.6834061E-02
   7110.33  8.7999149E-02
   7110.67  1.2052612E-01
   7111.00  1.6291264E-01
   7111.33  2.0690068E-01
   7111.67  2.6479919E-01
   7112.00  3.5202635E-01
   7112.33  4.7415011E-01
   7112.67  6.1008745E-01
   7113.00  7.2085071E-01
   7113.33  7.2305638E-01
   7113.67  6.2090225E-01
   7114.00  4.8351645E-01
   7114.33  3.7527440E-01
   7114.67  2.9954373E-01
   7115.00  2.4871221E-01
   7115.33  2.1681666E-01
   7115.67  1.9693423E-01
   7116.00  1.8682136E-01
   7116.33  1.8479700E-01
   7116.67  1.8471846E-01
   7117.00  1.8132448E-01
   7117.33  1.7293449E-01
   7117.67  1.6280601E-01
   7118.00  1.5290078E-01
   7118.33  1.4451437E-01
   7118.67  1.3781927E-01
   7119.00  1.3275517E-01
   7119.33  1.2921650E-01
   7119.67  1.2675028E-01
   7120.00  1.2515673E-01
   7120.33  1.2424439E-01
   7120.67  1.2368851E-01
   7121.00  1.2353600E-01
   7121.33  1.2429505E-01
   7121.67  1.2614023E-01
   7122.00  1.2907050E-01
   7122.33  1.3315403E-01
   7122.67  1.3817435E-01
   7123.00  1.4391425E-01
   7123.33  1.4997947E-01
   7123.67  1.5597688E-01
   7124.00  1.6188178E-01
   7124.33  1.6812174E-01
   7124.67  1.7542831E-01
   7125.00  1.8459732E-01
   7125.33  1.9674435E-01
   7125.67  2.1188609E-01
   7126.00  2.2988343E-01
   7126.33  2.5050491E-01
   7126.67  2.7289184E-01
   7127.00  2.9675975E-01
   7127.33  3.2202248E-01
   7127.67  3.4802706E-01
   7128.00  3.7424681E-01
   7128.33  4.0070586E-01
   7128.67  4.2883197E-01
   7129.00  4.6110171E-01
   7129.33  5.0157650E-01
   7129.67  5.5089396E-01
   7130.00  6.0838224E-01
   7130.33  6.7254700E-01
   7130.67  7.4033806E-01
   7131.00  8.1004236E-01
   7131.33  8.7926876E-01
   7131.67  9.4489387E-01
   7132.00  1.0035918E+00
   7132.33  1.0497101E+00
   7132.67  1.0806054E+00
   7133.00  1.0938770E+00
   7133.33  1.0868079E+00
   7133.67  1.0638315E+00
   7134.00  1.0281012E+00
   7134.33  9.8241697E-01
   7134.67  9.3138115E-01
   7135.00  8.7759924E-01
   7135.33  8.2361991E-01
   7135.67  7.7140270E-01
   7136.00  7.2206180E-01
   7136.33  6.7685612E-01
   7136.67  6.3582672E-01
   7137.00  5.9931353E-01
   7137.33  5.6828346E-01
   7137.67  5.4241084E-01
   7138.00  5.2180215E-01
   7138.33  5.0694464E-01
   7138.67  4.9668537E-01
   7139.00  4.9032654E-01
   7139.33  4.8728236E-01
   7139.67  4.8629798E-01
   7140.00  4.8679302E-01
   7140.33  4.8845958E-01
   7140.67  4.9092887E-01
   7141.00  4.9408977E-01
   7141.33  4.9793192E-01
   7141.67  5.0230672E-01
   7142.00  5.0715651E-01
   7142.33  5.1247773E-01
   7142.67  5.1817760E-01
   7143.00  5.2423009E-01
   7143.33  5.3064193E-01
   7143.67  5.3731784E-01
   7144.00  5.4417933E-01
   7144.33  5.5109818E-01
   7144.67  5.5789153E-01
   7145.00  5.6438692E-01
   7145.33  5.7032063E-01
   7145.67  5.7558019E-01
   7146.00  5.8005486E-01
   7146.33  5.8356839E-01
   7146.67  5.8622650E-01
   7147.00  5.8807761E-01
   7147.33  5.8913009E-01
   7147.67  5.8959051E-01
   7148.00  5.8956282E-01
   7148.33  5.8911345E-01
   7148.67  5.8838529E-01
   7149.00  5.8744335E-01
   7149.33  5.8631619E-01
   7149.67  5.8504060E-01
   7150.00  5.8360812E-01
   7150.33  5.8196381E-01
   7150.67  5.8008711E-01
   7151.00  5.7794540E-01
   7151.33  5.7548874E-01
   7151.67  5.7277960E-01
   7152.00  5.6988780E-01
   7152.33  5.6694729E-01
   7152.67  5.6415459E-01
   7153.00  5.6169587E-01
   7153.33  5.5985002E-01
   7153.67  5.5872101E-01
   7154.00  5.5840628E-01
   7154.33  5.5905594E-01
   7154.67  5.6052959E-01
   7155.00  5.6274483E-01
   7155.33  5.6562926E-01
   7155.67  5.6892106E-01
   7156.00  5.7244192E-01
   7156.33  5.7598533E-01
   7156.67  5.7935397E-01
   7157.00  5.8240130E-01
   7157.33  5.8493053E-01
   7157.67  5.8689767E-01
   7158.00  5.8824608E-01
   7158.33  5.8886087E-01
   7158.67  5.8881970E-01
   7159.00  5.8813960E-01
   7159.33  5.8678352E-01
   7159.67  5.8487589E-01
   7160.00  5.8246331E-01
   7160.33  5.7954472E-01
   7160.67  5.7623181E-01
   7161.00  5.7257012E-01
   7161.33  5.6856247E-01
   7161.67  5.6427575E-01
   7162.00  5.5973341E-01
   7162.33  5.5492850E-01
   7162.67  5.4990405E-01
   7163.00  5.4466723E-01
   7163.33  5.3919744E-01
   7163.67  5.3352598E-01
   7164.00  5.2765999E-01
   7164.33  5.2158992E-01
   7164.67  5.1535883E-01
   7165.00  5.0899054E-01
   7165.33  5.0250766E-01
   7165.67  4.9596534E-01
   7166.00  4.8940336E-01
   7166.33  4.8287267E-01
   7166.67  4.7641545E-01
   7167.00  4.7006677E-01
   7167.33  4.6387987E-01
   7167.67  4.5786802E-01
   7168.00  4.5205639E-01
   7168.33  4.4649761E-01
   7168.67  4.4118004E-01
   7169.00  4.3611533E-01
   7169.33  4.3135007E-01
   7169.67  4.2686401E-01
   7170.00  4.2266873E-01
   7170.33  4.1881687E-01
   7170.67  4.1528633E-01
   7171.00  4.1209340E-01
   7171.33  4.0931117E-01
   7171.67  4.0694385E-01
   7172.00  4.0505543E-01
