    FDMNES
    energy     <xanes>
   7097.00  4.9979194E-03
   7097.33  5.1163874E-03
   7097.67  5.2402334E-03
   7098.00  5.3698205E-03
   7098.33  5.5063923E-03
   7098.67  5.6496932E-03
   7099.00  5.8002176E-03
   7099.33  5.9595902E-03
   7099.67  6.1275486E-03
   7100.00  6.3047840E-03
   7100.33  6.4934742E-03
   7100.67  6.6933746E-03
   7101.00  6.9054812E-03
   7101.33  7.1328042E-03
   7101.67  7.3751713E-03
   7102.00  7.6340717E-03
   7102.33  7.9138221E-03
   7102.67  8.2144433E-03
   7103.00  8.5382633E-03
   7103.33  8.8917581E-03
   7103.67  9.2754171E-03
   7104.00  9.6930839E-03
   7104.33  1.0155038E-02
   7104.67  1.0662899E-02
   7105.00  1.1223466E-02
   7105.33  1.1854287E-02
   7105.67  1.2559823E-02
   7106.00  1.3353249E-02
   7106.33  1.4267563E-02
   7106.67  1.5315067E-02
   7107.00  1.6524644E-02
   7107.33  1.7967393E-02
   7107.67  1.9680678E-02
   7108.00  2.1740364E-02
   7108.33  2.4334290E-02
   7108.67  2.7601648E-02
   7109.00  3.1807056E-02
   7109.33  3.7642866E-02
   7109.67  4.5858886E-02
   7110.00  5.7920483E-02
   7110.33  7.8034731E-02
   7110.67  1.1094235E-01
   7111.00  1.5934751E-01
   7111.33  2.1060354E-01
   7111.67  2.4689146E-01
   7112.00  2.8273890E-01
   7112.33  3.2510818E-01
   7112.67  3.3885671E-01
   7113.00  3.2384937E-01
   7113.33  3.1242995E-01
   7113.67  3.1093492E-01
   7114.00  3.1677550E-01
   7114.33  3.4133238E-01
   7114.67  3.7320437E-01
   7115.00  3.7081253E-01
   7115.33  3.3797344E-01
   7115.67  3.0099623E-01
   7116.00  2.4237563E-01
   7116.33  1.8005493E-01
   7116.67  1.3719740E-01
   7117.00  1.1278052E-01
   7117.33  1.0228998E-01
   7117.67  1.0016907E-01
   7118.00  1.0417478E-01
   7118.33  1.1140031E-01
   7118.67  1.1649818E-01
   7119.00  1.1691887E-01
   7119.33  1.1638317E-01
   7119.67  1.2125188E-01
   7120.00  1.3484969E-01
   7120.33  1.5983408E-01
   7120.67  1.9166373E-01
   7121.00  2.2142135E-01
   7121.33  2.3699540E-01
   7121.67  2.4169052E-01
   7122.00  2.4361713E-01
   7122.33  2.4986571E-01
   7122.67  2.6155641E-01
   7123.00  2.7728392E-01
   7123.33  2.9383841E-01
   7123.67  3.0814915E-01
   7124.00  3.1956556E-01
   7124.33  3.2959507E-01
   7124.67  3.4052173E-01
   7125.00  3.5288587E-01
   7125.33  3.6628634E-01
   7125.67  3.8041350E-01
   7126.00  3.9583397E-01
   7126.33  4.1373919E-01
   7126.67  4.3404632E-01
   7127.00  4.5588519E-01
   7127.33  4.7766311E-01
   7127.67  4.9858240E-01
   7128.00  5.1873024E-01
   7128.33  5.3791893E-01
   7128.67  5.5559351E-01
   7129.00  5.7117542E-01
   7129.33  5.8438446E-01
   7129.67  5.9628485E-01
   7130.00  6.0773823E-01
   7130.33  6.1932962E-01
   7130.67  6.3123851E-01
   7131.00  6.4374206E-01
   7131.33  6.5752494E-01
   7131.67  6.7279250E-01
   7132.00  6.8947857E-01
   7132.33  7.0733845E-01
   7132.67  7.2541263E-01
   7133.00  7.4237567E-01
   7133.33  7.5584631E-01
   7133.67  7.6455710E-01
   7134.00  7.6797783E-01
   7134.33  7.6624361E-01
   7134.67  7.6157796E-01
   7135.00  7.5528739E-01
   7135.33  7.4787139E-01
   7135.67  7.3926691E-01
   7136.00  7.2913912E-01
   7136.33  7.1710705E-01
   7136.67  7.0357441E-01
   7137.00  6.8895165E-01
   7137.33  6.7382235E-01
   7137.67  6.5891996E-01
   7138.00  6.4476359E-01
   7138.33  6.3196083E-01
   7138.67  6.2062146E-01
   7139.00  6.1080725E-01
   7139.33  6.0260385E-01
   7139.67  5.9560849E-01
   7140.00  5.8956925E-01
   7140.33  5.8425929E-01
   7140.67  5.7932671E-01
   7141.00  5.7459710E-01
   7141.33  5.6996313E-01
   7141.67  5.6539592E-01
   7142.00  5.6095497E-01
   7142.33  5.5680075E-01
   7142.67  5.5303895E-01
   7143.00  5.4974276E-01
   7143.33  5.4695092E-01
   7143.67  5.4446380E-01
   7144.00  5.4207784E-01
   7144.33  5.3950233E-01
   7144.67  5.3653320E-01
   7145.00  5.3306492E-01
   7145.33  5.2903938E-01
   7145.67  5.2464010E-01
   7146.00  5.2002875E-01
   7146.33  5.1540768E-01
   7146.67  5.1095430E-01
   7147.00  5.0677378E-01
   7147.33  5.0296917E-01
   7147.67  4.9952287E-01
   7148.00  4.9643612E-01
   7148.33  4.9372858E-01
   7148.67  4.9131244E-01
   7149.00  4.8913451E-01
   7149.33  4.8714303E-01
   7149.67  4.8524158E-01
   7150.00  4.8337089E-01
   7150.33  4.8146990E-01
   7150.67  4.7948918E-01
   7151.00  4.7738130E-01
   7151.33  4.7506733E-01
   7151.67  4.7251405E-01
   7152.00  4.6967244E-01
   7152.33  4.6644357E-01
   7152.67  4.6282415E-01
   7153.00  4.5879243E-01
   7153.33  4.5430972E-01
   7153.67  4.4947549E-01
   7154.00  4.4435287E-01
   7154.33  4.3901328E-01
   7154.67  4.3358546E-01
   7155.00  4.2815665E-01
   7155.33  4.2283146E-01
   7155.67  4.1767694E-01
   7156.00  4.1274571E-01
   7156.33  4.0811318E-01
   7156.67  4.0376902E-01
   7157.00  3.9971975E-01
   7157.33  3.9599779E-01
   7157.67  3.9255435E-01
   7158.00  3.8937571E-01
   7158.33  3.8647561E-01
   7158.67  3.8380633E-01
   7159.00  3.8135547E-01
   7159.33  3.7913689E-01
   7159.67  3.7711556E-01
   7160.00  3.7528624E-01
   7160.33  3.7366919E-01
   7160.67  3.7223942E-01
   7161.00  3.7099669E-01
   7161.33  3.6996634E-01
   7161.67  3.6913044E-01
   7162.00  3.6849515E-01
   7162.33  3.6809294E-01
   7162.67  3.6790052E-01
   7163.00  3.6791749E-01
   7163.33  3.6817053E-01
   7163.67  3.6863484E-01
   7164.00  3.6931075E-01
   7164.33  3.7022465E-01
   7164.67  3.7135009E-01
   7165.00  3.7268704E-01
   7165.33  3.7426148E-01
   7165.67  3.7604661E-01
   7166.00  3.7804278E-01
   7166.33  3.8027798E-01
   7166.67  3.8272764E-01
   7167.00  3.8539330E-01
   7167.33  3.8830362E-01
   7167.67  3.9143218E-01
   7168.00  3.9477844E-01
   7168.33  3.9836661E-01
   7168.67  4.0216404E-01
   7169.00  4.0616206E-01
   7169.33  4.1036758E-01
   7169.67  4.1473276E-01
   7170.00  4.1922701E-01
   7170.33  4.2381073E-01
   7170.67  4.2840427E-01
   7171.00  4.3292424E-01
   7171.33  4.3720160E-01
   7171.67  4.4103891E-01
   7172.00  4.4416852E-01
