    FDMNES
    energy     <xanes>
   7097.00  5.0414466E-03
   7097.33  5.1616205E-03
   7097.67  5.2873985E-03
   7098.00  5.4191729E-03
   7098.33  5.5582637E-03
   7098.67  5.7044247E-03
   7099.00  5.8581963E-03
   7099.33  6.0213217E-03
   7099.67  6.1935564E-03
   7100.00  6.3756653E-03
   7100.33  6.5700150E-03
   7100.67  6.7763949E-03
   7101.00  6.9959236E-03
   7101.33  7.2319205E-03
   7101.67  7.4842800E-03
   7102.00  7.7547022E-03
   7102.33  8.0480290E-03
   7102.67  8.3644168E-03
   7103.00  8.7065731E-03
   7103.33  9.0819050E-03
   7103.67  9.4911911E-03
   7104.00  9.9389951E-03
   7104.33  1.0437342E-02
   7104.67  1.0988503E-02
   7105.00  1.1600740E-02
   7105.33  1.2295116E-02
   7105.67  1.3077669E-02
   7106.00  1.3964825E-02
   7106.33  1.4997353E-02
   7106.67  1.6191789E-02
   7107.00  1.7585163E-02
   7107.33  1.9268131E-02
   7107.67  2.1291231E-02
   7108.00  2.3754548E-02
   7108.33  2.6905583E-02
   7108.67  3.0934868E-02
   7109.00  3.6201139E-02
   7109.33  4.3645009E-02
   7109.67  5.4306332E-02
   7110.00  7.0210922E-02
   7110.33  9.7122144E-02
   7110.67  1.4094791E-01
   7111.00  2.0312492E-01
   7111.33  2.7360101E-01
   7111.67  3.4904032E-01
   7112.00  4.2125935E-01
   7112.33  4.3858306E-01
   7112.67  4.0092962E-01
   7113.00  3.4906070E-01
   7113.33  2.9732051E-01
   7113.67  2.6129046E-01
   7114.00  2.4787699E-01
   7114.33  2.4289535E-01
   7114.67  2.2417583E-01
   7115.00  1.9180371E-01
   7115.33  1.5909647E-01
   7115.67  1.3252894E-01
   7116.00  1.1351024E-01
   7116.33  1.0311732E-01
   7116.67  9.9076723E-02
   7117.00  1.0016965E-01
   7117.33  1.0564391E-01
   7117.67  1.1344254E-01
   7118.00  1.2208225E-01
   7118.33  1.3134577E-01
   7118.67  1.4257329E-01
   7119.00  1.5622920E-01
   7119.33  1.7085181E-01
   7119.67  1.8391188E-01
   7120.00  1.9402156E-01
   7120.33  2.0058720E-01
   7120.67  2.0492261E-01
   7121.00  2.0812596E-01
   7121.33  2.1131988E-01
   7121.67  2.1524768E-01
   7122.00  2.2020254E-01
   7122.33  2.2631560E-01
   7122.67  2.3332089E-01
   7123.00  2.4124247E-01
   7123.33  2.5064303E-01
   7123.67  2.6207568E-01
   7124.00  2.7610279E-01
   7124.33  2.9317564E-01
   7124.67  3.1214070E-01
   7125.00  3.3155303E-01
   7125.33  3.4936513E-01
   7125.67  3.6503086E-01
   7126.00  3.7921970E-01
   7126.33  3.9292002E-01
   7126.67  4.0679373E-01
   7127.00  4.2144080E-01
   7127.33  4.3806354E-01
   7127.67  4.5725304E-01
   7128.00  4.7920780E-01
   7128.33  5.0357023E-01
   7128.67  5.2866193E-01
   7129.00  5.5314691E-01
   7129.33  5.7553071E-01
   7129.67  5.9490767E-01
   7130.00  6.1017280E-01
   7130.33  6.1955849E-01
   7130.67  6.2372661E-01
   7131.00  6.2420607E-01
   7131.33  6.2397796E-01
   7131.67  6.2576012E-01
   7132.00  6.3044761E-01
   7132.33  6.3803170E-01
   7132.67  6.4716351E-01
   7133.00  6.5680542E-01
   7133.33  6.6576035E-01
   7133.67  6.7338387E-01
   7134.00  6.7957338E-01
   7134.33  6.8465121E-01
   7134.67  6.8936715E-01
   7135.00  6.9398596E-01
   7135.33  6.9836493E-01
   7135.67  7.0221359E-01
   7136.00  7.0528685E-01
   7136.33  7.0730006E-01
   7136.67  7.0833917E-01
   7137.00  7.0846960E-01
   7137.33  7.0775513E-01
   7137.67  7.0649992E-01
   7138.00  7.0489121E-01
   7138.33  7.0308011E-01
   7138.67  7.0115698E-01
   7139.00  6.9905811E-01
   7139.33  6.9650224E-01
   7139.67  6.9318137E-01
   7140.00  6.8876097E-01
   7140.33  6.8277562E-01
   7140.67  6.7533571E-01
   7141.00  6.6661265E-01
   7141.33  6.5690491E-01
   7141.67  6.4680839E-01
   7142.00  6.3670686E-01
   7142.33  6.2700551E-01
   7142.67  6.1790805E-01
   7143.00  6.0954065E-01
   7143.33  6.0206802E-01
   7143.67  5.9539108E-01
   7144.00  5.8947355E-01
   7144.33  5.8432632E-01
   7144.67  5.7975384E-01
   7145.00  5.7563839E-01
   7145.33  5.7186681E-01
   7145.67  5.6825087E-01
   7146.00  5.6467742E-01
   7146.33  5.6104057E-01
   7146.67  5.5729460E-01
   7147.00  5.5343269E-01
   7147.33  5.4946712E-01
   7147.67  5.4545427E-01
   7148.00  5.4144793E-01
   7148.33  5.3751767E-01
   7148.67  5.3369820E-01
   7149.00  5.3000806E-01
   7149.33  5.2646572E-01
   7149.67  5.2303854E-01
   7150.00  5.1969989E-01
   7150.33  5.1641362E-01
   7150.67  5.1312633E-01
   7151.00  5.0979905E-01
   7151.33  5.0638631E-01
   7151.67  5.0287071E-01
   7152.00  4.9923683E-01
   7152.33  4.9546867E-01
   7152.67  4.9159181E-01
   7153.00  4.8761781E-01
   7153.33  4.8355007E-01
   7153.67  4.7941401E-01
   7154.00  4.7522386E-01
   7154.33  4.7099151E-01
   7154.67  4.6673710E-01
   7155.00  4.6247313E-01
   7155.33  4.5821392E-01
   7155.67  4.5397274E-01
   7156.00  4.4976213E-01
   7156.33  4.4560307E-01
   7156.67  4.4150574E-01
   7157.00  4.3748458E-01
   7157.33  4.3356914E-01
   7157.67  4.2976741E-01
   7158.00  4.2609761E-01
   7158.33  4.2260019E-01
   7158.67  4.1927717E-01
   7159.00  4.1614721E-01
   7159.33  4.1325965E-01
   7159.67  4.1061094E-01
   7160.00  4.0822295E-01
   7160.33  4.0615838E-01
   7160.67  4.0440768E-01
   7161.00  4.0299103E-01
   7161.33  4.0197264E-01
   7161.67  4.0132502E-01
   7162.00  4.0105847E-01
   7162.33  4.0122618E-01
   7162.67  4.0177647E-01
   7163.00  4.0269913E-01
   7163.33  4.0401680E-01
   7163.67  4.0565566E-01
   7164.00  4.0758587E-01
   7164.33  4.0979978E-01
   7164.67  4.1222045E-01
   7165.00  4.1480882E-01
   7165.33  4.1754021E-01
   7165.67  4.2036204E-01
   7166.00  4.2324616E-01
   7166.33  4.2616890E-01
   7166.67  4.2910187E-01
   7167.00  4.3202577E-01
   7167.33  4.3491788E-01
   7167.67  4.3776705E-01
   7168.00  4.4056370E-01
   7168.33  4.4329178E-01
   7168.67  4.4595173E-01
   7169.00  4.4853738E-01
   7169.33  4.5103115E-01
   7169.67  4.5343490E-01
   7170.00  4.5573991E-01
   7170.33  4.5791990E-01
   7170.67  4.5997248E-01
   7171.00  4.6187857E-01
   7171.33  4.6358287E-01
   7171.67  4.6505453E-01
   7172.00  4.6623044E-01
