    FDMNES
    energy     <xanes>
   7097.00  4.6786950E-03
   7097.33  4.7807094E-03
   7097.67  4.8870151E-03
   7098.00  4.9978876E-03
   7098.33  5.1142954E-03
   7098.67  5.2360162E-03
   7099.00  5.3634222E-03
   7099.33  5.4977660E-03
   7099.67  5.6388169E-03
   7100.00  5.7870916E-03
   7100.33  5.9442529E-03
   7100.67  6.1100794E-03
   7101.00  6.2853118E-03
   7101.33  6.4722278E-03
   7101.67  6.6706549E-03
   7102.00  6.8816960E-03
   7102.33  7.1085922E-03
   7102.67  7.3513094E-03
   7103.00  7.6115672E-03
   7103.33  7.8941988E-03
   7103.67  8.1995138E-03
   7104.00  8.5303502E-03
   7104.33  8.8943515E-03
   7104.67  9.2926670E-03
   7105.00  9.7303288E-03
   7105.33  1.0220375E-02
   7105.67  1.0766090E-02
   7106.00  1.1377270E-02
   7106.33  1.2078505E-02
   7106.67  1.2879020E-02
   7107.00  1.3800465E-02
   7107.33  1.4896176E-02
   7107.67  1.6194534E-02
   7108.00  1.7752981E-02
   7108.33  1.9713868E-02
   7108.67  2.2183958E-02
   7109.00  2.5365815E-02
   7109.33  2.9790076E-02
   7109.67  3.6035627E-02
   7110.00  4.5232142E-02
   7110.33  6.0607063E-02
   7110.67  8.5657168E-02
   7111.00  1.2220141E-01
   7111.33  1.6547326E-01
   7111.67  2.0080423E-01
   7112.00  2.1790328E-01
   7112.33  2.3163004E-01
   7112.67  2.4344442E-01
   7113.00  2.3943457E-01
   7113.33  2.2761205E-01
   7113.67  2.2887230E-01
   7114.00  2.3410345E-01
   7114.33  2.1893521E-01
   7114.67  1.8289498E-01
   7115.00  1.4209360E-01
   7115.33  1.1352214E-01
   7115.67  9.6893292E-02
   7116.00  8.9171716E-02
   7116.33  8.8589635E-02
   7116.67  9.3237564E-02
   7117.00  1.0266373E-01
   7117.33  1.1616352E-01
   7117.67  1.3052671E-01
   7118.00  1.4340658E-01
   7118.33  1.5509063E-01
   7118.67  1.6779272E-01
   7119.00  1.8164375E-01
   7119.33  1.9586968E-01
   7119.67  2.1044007E-01
   7120.00  2.2534543E-01
   7120.33  2.3931037E-01
   7120.67  2.5046686E-01
   7121.00  2.5764637E-01
   7121.33  2.6072407E-01
   7121.67  2.6189342E-01
   7122.00  2.6275356E-01
   7122.33  2.6461155E-01
   7122.67  2.6781450E-01
   7123.00  2.7238011E-01
   7123.33  2.7832243E-01
   7123.67  2.8558262E-01
   7124.00  2.9471747E-01
   7124.33  3.0711110E-01
   7124.67  3.2290855E-01
   7125.00  3.4142791E-01
   7125.33  3.6082673E-01
   7125.67  3.7943682E-01
   7126.00  3.9762657E-01
   7126.33  4.1766507E-01
   7126.67  4.4095963E-01
   7127.00  4.6751946E-01
   7127.33  4.9660678E-01
   7127.67  5.2681731E-01
   7128.00  5.5737475E-01
   7128.33  5.8721570E-01
   7128.67  6.1499391E-01
   7129.00  6.3919676E-01
   7129.33  6.5753192E-01
   7129.67  6.6945984E-01
   7130.00  6.7450133E-01
   7130.33  6.7278399E-01
   7130.67  6.6839813E-01
   7131.00  6.6560210E-01
   7131.33  6.6913333E-01
   7131.67  6.7908198E-01
   7132.00  6.9314977E-01
   7132.33  7.0641296E-01
   7132.67  7.1466967E-01
   7133.00  7.1691776E-01
   7133.33  7.1479008E-01
   7133.67  7.1200937E-01
   7134.00  7.1050973E-01
   7134.33  7.1137423E-01
   7134.67  7.1398672E-01
   7135.00  7.1740967E-01
   7135.33  7.2025394E-01
   7135.67  7.2161716E-01
   7136.00  7.2119717E-01
   7136.33  7.1897235E-01
   7136.67  7.1563357E-01
   7137.00  7.1165189E-01
   7137.33  7.0745775E-01
   7137.67  7.0335509E-01
   7138.00  6.9943538E-01
   7138.33  6.9567899E-01
   7138.67  6.9192976E-01
   7139.00  6.8803695E-01
   7139.33  6.8379344E-01
   7139.67  6.7910429E-01
   7140.00  6.7388799E-01
   7140.33  6.6800818E-01
   7140.67  6.6149518E-01
   7141.00  6.5431098E-01
   7141.33  6.4631720E-01
   7141.67  6.3756434E-01
   7142.00  6.2803667E-01
   7142.33  6.1765547E-01
   7142.67  6.0658255E-01
   7143.00  5.9492243E-01
   7143.33  5.8280026E-01
   7143.67  5.7049250E-01
   7144.00  5.5821443E-01
   7144.33  5.4624846E-01
   7144.67  5.3477642E-01
   7145.00  5.2394404E-01
   7145.33  5.1396159E-01
   7145.67  5.0479847E-01
   7146.00  4.9647878E-01
   7146.33  4.8911505E-01
   7146.67  4.8259655E-01
   7147.00  4.7691670E-01
   7147.33  4.7216852E-01
   7147.67  4.6823046E-01
   7148.00  4.6507603E-01
   7148.33  4.6275566E-01
   7148.67  4.6112275E-01
   7149.00  4.6011239E-01
   7149.33  4.5968048E-01
   7149.67  4.5961709E-01
   7150.00  4.5977344E-01
   7150.33  4.5997057E-01
   7150.67  4.6003244E-01
   7151.00  4.5983473E-01
   7151.33  4.5923556E-01
   7151.67  4.5824449E-01
   7152.00  4.5686883E-01
   7152.33  4.5509724E-01
   7152.67  4.5301638E-01
   7153.00  4.5066371E-01
   7153.33  4.4805068E-01
   7153.67  4.4524065E-01
   7154.00  4.4225787E-01
   7154.33  4.3911157E-01
   7154.67  4.3585205E-01
   7155.00  4.3251557E-01
   7155.33  4.2914604E-01
   7155.67  4.2579145E-01
   7156.00  4.2248909E-01
   7156.33  4.1929653E-01
   7156.67  4.1624817E-01
   7157.00  4.1338277E-01
   7157.33  4.1077182E-01
   7157.67  4.0842698E-01
   7158.00  4.0637791E-01
   7158.33  4.0469202E-01
   7158.67  4.0334696E-01
   7159.00  4.0234971E-01
   7159.33  4.0174152E-01
   7159.67  4.0146812E-01
   7160.00  4.0151429E-01
   7160.33  4.0189321E-01
   7160.67  4.0253939E-01
   7161.00  4.0342437E-01
   7161.33  4.0453841E-01
   7161.67  4.0582400E-01
   7162.00  4.0725722E-01
   7162.33  4.0882809E-01
   7162.67  4.1049929E-01
   7163.00  4.1225547E-01
   7163.33  4.1409245E-01
   7163.67  4.1599247E-01
   7164.00  4.1795037E-01
   7164.33  4.1996811E-01
   7164.67  4.2203463E-01
   7165.00  4.2414588E-01
   7165.33  4.2630069E-01
   7165.67  4.2848486E-01
   7166.00  4.3068798E-01
   7166.33  4.3289759E-01
   7166.67  4.3509999E-01
   7167.00  4.3728464E-01
   7167.33  4.3943681E-01
   7167.67  4.4155030E-01
   7168.00  4.4361754E-01
   7168.33  4.4562303E-01
   7168.67  4.4756449E-01
   7169.00  4.4943332E-01
   7169.33  4.5120806E-01
   7169.67  4.5288677E-01
   7170.00  4.5445759E-01
   7170.33  4.5589027E-01
   7170.67  4.5718463E-01
   7171.00  4.5832761E-01
   7171.33  4.5928501E-01
   7171.67  4.6006640E-01
   7172.00  4.6066706E-01
