    FDMNES
    energy     <xanes>
   7097.00  5.3069262E-03
   7097.33  5.4319730E-03
   7097.67  5.5626872E-03
   7098.00  5.6994494E-03
   7098.33  5.8435655E-03
   7098.67  5.9947621E-03
   7099.00  6.1535551E-03
   7099.33  6.3216453E-03
   7099.67  6.4987492E-03
   7100.00  6.6855836E-03
   7100.33  6.8844188E-03
   7100.67  7.0949834E-03
   7101.00  7.3183033E-03
   7101.33  7.5574979E-03
   7101.67  7.8123584E-03
   7102.00  8.0844051E-03
   7102.33  8.3780752E-03
   7102.67  8.6933344E-03
   7103.00  9.0325319E-03
   7103.33  9.4022525E-03
   7103.67  9.8028891E-03
   7104.00  1.0238263E-02
   7104.33  1.0718676E-02
   7104.67  1.1245546E-02
   7105.00  1.1825505E-02
   7105.33  1.2475802E-02
   7105.67  1.3200400E-02
   7106.00  1.4011835E-02
   7106.33  1.4941715E-02
   7106.67  1.6000867E-02
   7107.00  1.7215917E-02
   7107.33  1.8652621E-02
   7107.67  2.0343086E-02
   7108.00  2.2354330E-02
   7108.33  2.4851954E-02
   7108.67  2.7950883E-02
   7109.00  3.1871804E-02
   7109.33  3.7186087E-02
   7109.67  4.4478005E-02
   7110.00  5.4884733E-02
   7110.33  7.1647770E-02
   7110.67  9.8560462E-02
   7111.00  1.3887640E-01
   7111.33  1.8671178E-01
   7111.67  2.3067866E-01
   7112.00  2.7574091E-01
   7112.33  3.1815865E-01
   7112.67  3.3802504E-01
   7113.00  3.4151026E-01
   7113.33  3.5882534E-01
   7113.67  4.0037097E-01
   7114.00  4.5134281E-01
   7114.33  4.7005338E-01
   7114.67  4.4457907E-01
   7115.00  3.9525439E-01
   7115.33  3.4729179E-01
   7115.67  3.1211400E-01
   7116.00  2.9249983E-01
   7116.33  2.8834093E-01
   7116.67  2.9029524E-01
   7117.00  2.8806324E-01
   7117.33  2.7235350E-01
   7117.67  2.4802958E-01
   7118.00  2.2237019E-01
   7118.33  2.0141242E-01
   7118.67  1.8517559E-01
   7119.00  1.7237081E-01
   7119.33  1.6239270E-01
   7119.67  1.5470917E-01
   7120.00  1.4910799E-01
   7120.33  1.4526548E-01
   7120.67  1.4222790E-01
   7121.00  1.3931042E-01
   7121.33  1.3593697E-01
   7121.67  1.3222518E-01
   7122.00  1.2879534E-01
   7122.33  1.2690181E-01
   7122.67  1.2719282E-01
   7123.00  1.2988779E-01
   7123.33  1.3520728E-01
   7123.67  1.4281753E-01
   7124.00  1.5286017E-01
   7124.33  1.6601916E-01
   7124.67  1.8232590E-01
   7125.00  2.0204565E-01
   7125.33  2.2584338E-01
   7125.67  2.5331179E-01
   7126.00  2.8419312E-01
   7126.33  3.1786744E-01
   7126.67  3.5232422E-01
   7127.00  3.8579594E-01
   7127.33  4.1626174E-01
   7127.67  4.4320324E-01
   7128.00  4.6657172E-01
   7128.33  4.8638635E-01
   7128.67  5.0370420E-01
   7129.00  5.1929604E-01
   7129.33  5.3420121E-01
   7129.67  5.4982344E-01
   7130.00  5.6731403E-01
   7130.33  5.8811815E-01
   7130.67  6.1249350E-01
   7131.00  6.4053587E-01
   7131.33  6.7212857E-01
   7131.67  7.0578957E-01
   7132.00  7.4026145E-01
   7132.33  7.7377943E-01
   7132.67  8.0479764E-01
   7133.00  8.3205094E-01
   7133.33  8.5375650E-01
   7133.67  8.6978386E-01
   7134.00  8.7984271E-01
   7134.33  8.8317722E-01
   7134.67  8.8074056E-01
   7135.00  8.7278778E-01
   7135.33  8.5900590E-01
   7135.67  8.4047197E-01
   7136.00  8.1776171E-01
   7136.33  7.9153855E-01
   7136.67  7.6365746E-01
   7137.00  7.3555776E-01
   7137.33  7.0900280E-01
   7137.67  6.8503764E-01
   7138.00  6.6427902E-01
   7138.33  6.4736809E-01
   7138.67  6.3366776E-01
   7139.00  6.2281444E-01
   7139.33  6.1466844E-01
   7139.67  6.0861552E-01
   7140.00  6.0452644E-01
   7140.33  6.0261055E-01
   7140.67  6.0263421E-01
   7141.00  6.0456042E-01
   7141.33  6.0844612E-01
   7141.67  6.1379402E-01
   7142.00  6.2029051E-01
   7142.33  6.2757711E-01
   7142.67  6.3504300E-01
   7143.00  6.4219358E-01
   7143.33  6.4830056E-01
   7143.67  6.5288647E-01
   7144.00  6.5553244E-01
   7144.33  6.5560975E-01
   7144.67  6.5324311E-01
   7145.00  6.4845270E-01
   7145.33  6.4115527E-01
   7145.67  6.3197005E-01
   7146.00  6.2126144E-01
   7146.33  6.0934720E-01
   7146.67  5.9679307E-01
   7147.00  5.8392718E-01
   7147.33  5.7107122E-01
   7147.67  5.5848592E-01
   7148.00  5.4635769E-01
   7148.33  5.3494386E-01
   7148.67  5.2431080E-01
   7149.00  5.1456443E-01
   7149.33  5.0593152E-01
   7149.67  4.9836835E-01
   7150.00  4.9192285E-01
   7150.33  4.8676636E-01
   7150.67  4.8275230E-01
   7151.00  4.7985304E-01
   7151.33  4.7814130E-01
   7151.67  4.7740191E-01
   7152.00  4.7754913E-01
   7152.33  4.7856899E-01
   7152.67  4.8024777E-01
   7153.00  4.8248605E-01
   7153.33  4.8522902E-01
   7153.67  4.8831769E-01
   7154.00  4.9167152E-01
   7154.33  4.9522873E-01
   7154.67  4.9888947E-01
   7155.00  5.0259158E-01
   7155.33  5.0626642E-01
   7155.67  5.0985933E-01
   7156.00  5.1332654E-01
   7156.33  5.1660270E-01
   7156.67  5.1967282E-01
   7157.00  5.2251329E-01
   7157.33  5.2507648E-01
   7157.67  5.2738913E-01
   7158.00  5.2945808E-01
   7158.33  5.3127403E-01
   7158.67  5.3289266E-01
   7159.00  5.3434165E-01
   7159.33  5.3563676E-01
   7159.67  5.3682419E-01
   7160.00  5.3792295E-01
   7160.33  5.3893783E-01
   7160.67  5.3988362E-01
   7161.00  5.4075715E-01
   7161.33  5.4153677E-01
   7161.67  5.4221637E-01
   7162.00  5.4277930E-01
   7162.33  5.4318833E-01
   7162.67  5.4344239E-01
   7163.00  5.4352991E-01
   7163.33  5.4342266E-01
   7163.67  5.4314090E-01
   7164.00  5.4268177E-01
   7164.33  5.4202541E-01
   7164.67  5.4120902E-01
   7165.00  5.4024884E-01
   7165.33  5.3914584E-01
   7165.67  5.3792915E-01
   7166.00  5.3660639E-01
   7166.33  5.3516683E-01
   7166.67  5.3361820E-01
   7167.00  5.3195095E-01
   7167.33  5.3013187E-01
   7167.67  5.2815674E-01
   7168.00  5.2600603E-01
   7168.33  5.2363732E-01
   7168.67  5.2106979E-01
   7169.00  5.1830334E-01
   7169.33  5.1531342E-01
   7169.67  5.1213464E-01
   7170.00  5.0878701E-01
   7170.33  5.0529219E-01
   7170.67  5.0172291E-01
   7171.00  4.9814836E-01
   7171.33  4.9470430E-01
   7171.67  4.9157379E-01
   7172.00  4.8899832E-01
