    FDMNES
    energy     <xanes>
   7097.00  4.8279461E-03
   7097.33  4.9392239E-03
   7097.67  5.0554298E-03
   7098.00  5.1768915E-03
   7098.33  5.3047401E-03
   7098.67  5.4387353E-03
   7099.00  5.5793224E-03
   7099.33  5.7279753E-03
   7099.67  5.8844472E-03
   7100.00  6.0493599E-03
   7100.33  6.2246853E-03
   7100.67  6.4101922E-03
   7101.00  6.6067776E-03
   7101.33  6.8171634E-03
   7101.67  7.0411849E-03
   7102.00  7.2801854E-03
   7102.33  7.5380689E-03
   7102.67  7.8148502E-03
   7103.00  8.1126366E-03
   7103.33  8.4372964E-03
   7103.67  8.7892841E-03
   7104.00  9.1720999E-03
   7104.33  9.5951016E-03
   7104.67  1.0059814E-02
   7105.00  1.0572486E-02
   7105.33  1.1149222E-02
   7105.67  1.1794271E-02
   7106.00  1.2519896E-02
   7106.33  1.3356768E-02
   7106.67  1.4316752E-02
   7107.00  1.5427205E-02
   7107.33  1.6755405E-02
   7107.67  1.8337939E-02
   7108.00  2.0248208E-02
   7108.33  2.2668097E-02
   7108.67  2.5736140E-02
   7109.00  2.9714289E-02
   7109.33  3.5289538E-02
   7109.67  4.3218103E-02
   7110.00  5.4975980E-02
   7110.33  7.4808292E-02
   7110.67  1.0753287E-01
   7111.00  1.5588079E-01
   7111.33  2.1064407E-01
   7111.67  2.6060753E-01
   7112.00  2.8909873E-01
   7112.33  2.7867395E-01
   7112.67  2.6756893E-01
   7113.00  2.6575069E-01
   7113.33  2.4900213E-01
   7113.67  2.2399292E-01
   7114.00  2.0528411E-01
   7114.33  1.9360083E-01
   7114.67  1.8388990E-01
   7115.00  1.7818378E-01
   7115.33  1.7785964E-01
   7115.67  1.7442571E-01
   7116.00  1.6466270E-01
   7116.33  1.5693639E-01
   7116.67  1.5755923E-01
   7117.00  1.6565576E-01
   7117.33  1.7636388E-01
   7117.67  1.8647606E-01
   7118.00  1.9799573E-01
   7118.33  2.1467629E-01
   7118.67  2.3770108E-01
   7119.00  2.6786461E-01
   7119.33  3.0213770E-01
   7119.67  3.2887859E-01
   7120.00  3.3977914E-01
   7120.33  3.3558923E-01
   7120.67  3.2695932E-01
   7121.00  3.1841553E-01
   7121.33  3.1119234E-01
   7121.67  3.0565392E-01
   7122.00  3.0227348E-01
   7122.33  3.0100051E-01
   7122.67  3.0095742E-01
   7123.00  3.0204345E-01
   7123.33  3.0493832E-01
   7123.67  3.0999156E-01
   7124.00  3.1746042E-01
   7124.33  3.2765037E-01
   7124.67  3.3916408E-01
   7125.00  3.4966660E-01
   7125.33  3.5574741E-01
   7125.67  3.5727083E-01
   7126.00  3.5628209E-01
   7126.33  3.5667689E-01
   7126.67  3.6137463E-01
   7127.00  3.7135228E-01
   7127.33  3.8573755E-01
   7127.67  4.0081210E-01
   7128.00  4.1400681E-01
   7128.33  4.2427542E-01
   7128.67  4.3359282E-01
   7129.00  4.4343421E-01
   7129.33  4.5340744E-01
   7129.67  4.6138416E-01
   7130.00  4.6671270E-01
   7130.33  4.7115186E-01
   7130.67  4.7668059E-01
   7131.00  4.8350349E-01
   7131.33  4.9134967E-01
   7131.67  5.0008957E-01
   7132.00  5.0986297E-01
   7132.33  5.2055211E-01
   7132.67  5.3153529E-01
   7133.00  5.4254269E-01
   7133.33  5.5365116E-01
   7133.67  5.6509082E-01
   7134.00  5.7709830E-01
   7134.33  5.9032693E-01
   7134.67  6.0544828E-01
   7135.00  6.2289807E-01
   7135.33  6.4246755E-01
   7135.67  6.6257772E-01
   7136.00  6.8188070E-01
   7136.33  6.9880714E-01
   7136.67  7.1269395E-01
   7137.00  7.2296006E-01
   7137.33  7.2864603E-01
   7137.67  7.3018443E-01
   7138.00  7.2788315E-01
   7138.33  7.2201915E-01
   7138.67  7.1374117E-01
   7139.00  7.0364000E-01
   7139.33  6.9224752E-01
   7139.67  6.8047119E-01
   7140.00  6.6903744E-01
   7140.33  6.5889476E-01
   7140.67  6.5049167E-01
   7141.00  6.4406585E-01
   7141.33  6.3977494E-01
   7141.67  6.3696238E-01
   7142.00  6.3509256E-01
   7142.33  6.3354265E-01
   7142.67  6.3174319E-01
   7143.00  6.2940263E-01
   7143.33  6.2626361E-01
   7143.67  6.2235056E-01
   7144.00  6.1763571E-01
   7144.33  6.1198572E-01
   7144.67  6.0548806E-01
   7145.00  5.9817193E-01
   7145.33  5.9008243E-01
   7145.67  5.8156630E-01
   7146.00  5.7294434E-01
   7146.33  5.6470269E-01
   7146.67  5.5724958E-01
   7147.00  5.5091507E-01
   7147.33  5.4612279E-01
   7147.67  5.4276897E-01
   7148.00  5.4075120E-01
   7148.33  5.3991191E-01
   7148.67  5.3969597E-01
   7149.00  5.3968598E-01
   7149.33  5.3937899E-01
   7149.67  5.3842691E-01
   7150.00  5.3661699E-01
   7150.33  5.3374432E-01
   7150.67  5.3000822E-01
   7151.00  5.2558133E-01
   7151.33  5.2068190E-01
   7151.67  5.1565690E-01
   7152.00  5.1074449E-01
   7152.33  5.0621788E-01
   7152.67  5.0219449E-01
   7153.00  4.9875288E-01
   7153.33  4.9599955E-01
   7153.67  4.9383589E-01
   7154.00  4.9221375E-01
   7154.33  4.9111359E-01
   7154.67  4.9038706E-01
   7155.00  4.8995221E-01
   7155.33  4.8973702E-01
   7155.67  4.8962217E-01
   7156.00  4.8952830E-01
   7156.33  4.8935640E-01
   7156.67  4.8902681E-01
   7157.00  4.8846654E-01
   7157.33  4.8755925E-01
   7157.67  4.8628129E-01
   7158.00  4.8459945E-01
   7158.33  4.8245723E-01
   7158.67  4.7994215E-01
   7159.00  4.7711842E-01
   7159.33  4.7406617E-01
   7159.67  4.7092964E-01
   7160.00  4.6780610E-01
   7160.33  4.6480939E-01
   7160.67  4.6199671E-01
   7161.00  4.5939791E-01
   7161.33  4.5703902E-01
   7161.67  4.5486121E-01
   7162.00  4.5281794E-01
   7162.33  4.5085176E-01
   7162.67  4.4889027E-01
   7163.00  4.4689086E-01
   7163.33  4.4481709E-01
   7163.67  4.4267529E-01
   7164.00  4.4048391E-01
   7164.33  4.3827545E-01
   7164.67  4.3609288E-01
   7165.00  4.3397666E-01
   7165.33  4.3198491E-01
   7165.67  4.3013952E-01
   7166.00  4.2846379E-01
   7166.33  4.2700057E-01
   7166.67  4.2573815E-01
   7167.00  4.2468186E-01
   7167.33  4.2385960E-01
   7167.67  4.2324405E-01
   7168.00  4.2283173E-01
   7168.33  4.2264000E-01
   7168.67  4.2263347E-01
   7169.00  4.2279905E-01
   7169.33  4.2313522E-01
   7169.67  4.2359829E-01
   7170.00  4.2416565E-01
   7170.33  4.2482085E-01
   7170.67  4.2552857E-01
   7171.00  4.2626645E-01
   7171.33  4.2700193E-01
   7171.67  4.2768391E-01
   7172.00  4.2824615E-01
