    FDMNES
    energy     <xanes>
   7097.00  5.1040331E-03
   7097.33  5.2247137E-03
   7097.67  5.3508022E-03
   7098.00  5.4826582E-03
   7098.33  5.6215223E-03
   7098.67  5.7671299E-03
   7099.00  5.9199683E-03
   7099.33  6.0816519E-03
   7099.67  6.2519068E-03
   7100.00  6.4314115E-03
   7100.33  6.6223206E-03
   7100.67  6.8243738E-03
   7101.00  7.0385450E-03
   7101.33  7.2677981E-03
   7101.67  7.5119380E-03
   7102.00  7.7724147E-03
   7102.33  8.0534580E-03
   7102.67  8.3550522E-03
   7103.00  8.6794546E-03
   7103.33  9.0329792E-03
   7103.67  9.4160516E-03
   7104.00  9.8323840E-03
   7104.33  1.0291949E-02
   7104.67  1.0796242E-02
   7105.00  1.1351806E-02
   7105.33  1.1975583E-02
   7105.67  1.2671767E-02
   7106.00  1.3452991E-02
   7106.33  1.4350966E-02
   7106.67  1.5377335E-02
   7107.00  1.6559700E-02
   7107.33  1.7966078E-02
   7107.67  1.9631882E-02
   7108.00  2.1629318E-02
   7108.33  2.4137183E-02
   7108.67  2.7287056E-02
   7109.00  3.1329354E-02
   7109.33  3.6918459E-02
   7109.67  4.4758393E-02
   7110.00  5.6222759E-02
   7110.33  7.5231656E-02
   7110.67  1.0607064E-01
   7111.00  1.5123360E-01
   7111.33  2.0411122E-01
   7111.67  2.4770422E-01
   7112.00  2.7688150E-01
   7112.33  2.9360071E-01
   7112.67  3.0657845E-01
   7113.00  3.2769149E-01
   7113.33  3.6408565E-01
   7113.67  3.8331015E-01
   7114.00  3.5247347E-01
   7114.33  2.8932117E-01
   7114.67  2.3290570E-01
   7115.00  1.9146898E-01
   7115.33  1.6505147E-01
   7115.67  1.4901813E-01
   7116.00  1.4157591E-01
   7116.33  1.4270964E-01
   7116.67  1.5158269E-01
   7117.00  1.6884332E-01
   7117.33  1.9586198E-01
   7117.67  2.3008186E-01
   7118.00  2.6986310E-01
   7118.33  3.1498850E-01
   7118.67  3.5927995E-01
   7119.00  3.8914243E-01
   7119.33  3.8723890E-01
   7119.67  3.6399344E-01
   7120.00  3.3496498E-01
   7120.33  3.1151770E-01
   7120.67  2.9422160E-01
   7121.00  2.8122958E-01
   7121.33  2.7054952E-01
   7121.67  2.6014970E-01
   7122.00  2.4962459E-01
   7122.33  2.4077339E-01
   7122.67  2.3603344E-01
   7123.00  2.3700855E-01
   7123.33  2.4449731E-01
   7123.67  2.5558405E-01
   7124.00  2.6750368E-01
   7124.33  2.7787785E-01
   7124.67  2.8616863E-01
   7125.00  2.9241758E-01
   7125.33  2.9736831E-01
   7125.67  3.0323130E-01
   7126.00  3.1226335E-01
   7126.33  3.2705955E-01
   7126.67  3.4747099E-01
   7127.00  3.7313287E-01
   7127.33  4.0393497E-01
   7127.67  4.3812296E-01
   7128.00  4.7378334E-01
   7128.33  5.0736160E-01
   7128.67  5.3617970E-01
   7129.00  5.6001445E-01
   7129.33  5.8100040E-01
   7129.67  6.0210420E-01
   7130.00  6.2437577E-01
   7130.33  6.4829179E-01
   7130.67  6.7342980E-01
   7131.00  6.9927933E-01
   7131.33  7.2543481E-01
   7131.67  7.5127871E-01
   7132.00  7.7539558E-01
   7132.33  7.9477246E-01
   7132.67  8.0794592E-01
   7133.00  8.1416299E-01
   7133.33  8.1247378E-01
   7133.67  8.0431755E-01
   7134.00  7.9084342E-01
   7134.33  7.7402398E-01
   7134.67  7.5732975E-01
   7135.00  7.4331050E-01
   7135.33  7.3441211E-01
   7135.67  7.3010955E-01
   7136.00  7.2904720E-01
   7136.33  7.2922422E-01
   7136.67  7.2895922E-01
   7137.00  7.2765502E-01
   7137.33  7.2493605E-01
   7137.67  7.2098052E-01
   7138.00  7.1597372E-01
   7138.33  7.1022198E-01
   7138.67  7.0423420E-01
   7139.00  6.9825375E-01
   7139.33  6.9230972E-01
   7139.67  6.8616036E-01
   7140.00  6.7949490E-01
   7140.33  6.7188109E-01
   7140.67  6.6325294E-01
   7141.00  6.5362375E-01
   7141.33  6.4307335E-01
   7141.67  6.3199707E-01
   7142.00  6.2066274E-01
   7142.33  6.0931921E-01
   7142.67  5.9809941E-01
   7143.00  5.8701351E-01
   7143.33  5.7598783E-01
   7143.67  5.6489367E-01
   7144.00  5.5364439E-01
   7144.33  5.4218164E-01
   7144.67  5.3058343E-01
   7145.00  5.1896004E-01
   7145.33  5.0750574E-01
   7145.67  4.9639724E-01
   7146.00  4.8579810E-01
   7146.33  4.7596068E-01
   7146.67  4.6693161E-01
   7147.00  4.5878769E-01
   7147.33  4.5168849E-01
   7147.67  4.4551886E-01
   7148.00  4.4025335E-01
   7148.33  4.3594078E-01
   7148.67  4.3238965E-01
   7149.00  4.2950266E-01
   7149.33  4.2720890E-01
   7149.67  4.2529478E-01
   7150.00  4.2363147E-01
   7150.33  4.2208479E-01
   7150.67  4.2050683E-01
   7151.00  4.1880016E-01
   7151.33  4.1685684E-01
   7151.67  4.1466382E-01
   7152.00  4.1222240E-01
   7152.33  4.0954316E-01
   7152.67  4.0671899E-01
   7153.00  4.0382162E-01
   7153.33  4.0093628E-01
   7153.67  3.9813102E-01
   7154.00  3.9544905E-01
   7154.33  3.9293961E-01
   7154.67  3.9059146E-01
   7155.00  3.8839508E-01
   7155.33  3.8633840E-01
   7155.67  3.8436492E-01
   7156.00  3.8243449E-01
   7156.33  3.8050124E-01
   7156.67  3.7852800E-01
   7157.00  3.7649295E-01
   7157.33  3.7437590E-01
   7157.67  3.7219062E-01
   7158.00  3.6995267E-01
   7158.33  3.6768845E-01
   7158.67  3.6543916E-01
   7159.00  3.6324155E-01
   7159.33  3.6115104E-01
   7159.67  3.5920503E-01
   7160.00  3.5745046E-01
   7160.33  3.5597505E-01
   7160.67  3.5480418E-01
   7161.00  3.5398199E-01
   7161.33  3.5360110E-01
   7161.67  3.5364536E-01
   7162.00  3.5413359E-01
   7162.33  3.5513176E-01
   7162.67  3.5657716E-01
   7163.00  3.5845205E-01
   7163.33  3.6077411E-01
   7163.67  3.6345251E-01
   7164.00  3.6644540E-01
   7164.33  3.6973017E-01
   7164.67  3.7321813E-01
   7165.00  3.7686408E-01
   7165.33  3.8063508E-01
   7165.67  3.8447726E-01
   7166.00  3.8836170E-01
   7166.33  3.9226238E-01
   7166.67  3.9615439E-01
   7167.00  4.0002042E-01
   7167.33  4.0383685E-01
   7167.67  4.0759265E-01
   7168.00  4.1127493E-01
   7168.33  4.1486070E-01
   7168.67  4.1835195E-01
   7169.00  4.2174388E-01
   7169.33  4.2502068E-01
   7169.67  4.2819341E-01
   7170.00  4.3126045E-01
   7170.33  4.3420420E-01
   7170.67  4.3702859E-01
   7171.00  4.3971565E-01
   7171.33  4.4219855E-01
   7171.67  4.4440745E-01
   7172.00  4.4621419E-01
