    FDMNES
    energy     <xanes>
   7097.00  4.6264821E-03
   7097.33  4.7316297E-03
   7097.67  4.8415127E-03
   7098.00  4.9564552E-03
   7098.33  5.0775598E-03
   7098.67  5.2046083E-03
   7099.00  5.3380448E-03
   7099.33  5.4793175E-03
   7099.67  5.6282070E-03
   7100.00  5.7853391E-03
   7100.33  5.9526691E-03
   7100.67  6.1300013E-03
   7101.00  6.3182470E-03
   7101.33  6.5201332E-03
   7101.67  6.7355445E-03
   7102.00  6.9658596E-03
   7102.33  7.2150342E-03
   7102.67  7.4831574E-03
   7103.00  7.7724159E-03
   7103.33  8.0888282E-03
   7103.67  8.4329737E-03
   7104.00  8.8085239E-03
   7104.33  9.2251987E-03
   7104.67  9.6847568E-03
   7105.00  1.0193821E-02
   7105.33  1.0769328E-02
   7105.67  1.1416015E-02
   7106.00  1.2146988E-02
   7106.33  1.2994844E-02
   7106.67  1.3972571E-02
   7107.00  1.5109519E-02
   7107.33  1.6477555E-02
   7107.67  1.8116020E-02
   7108.00  2.0103131E-02
   7108.33  2.2631666E-02
   7108.67  2.5845967E-02
   7109.00  3.0016941E-02
   7109.33  3.5845845E-02
   7109.67  4.4071876E-02
   7110.00  5.6117797E-02
   7110.33  7.6040152E-02
   7110.67  1.0890499E-01
   7111.00  1.6116711E-01
   7111.33  2.3977770E-01
   7111.67  3.3170385E-01
   7112.00  3.9183011E-01
   7112.33  3.5202813E-01
   7112.67  2.7138914E-01
   7113.00  2.0774168E-01
   7113.33  1.7625364E-01
   7113.67  1.6471577E-01
   7114.00  1.6326370E-01
   7114.33  1.5484174E-01
   7114.67  1.3808931E-01
   7115.00  1.2225866E-01
   7115.33  1.1184030E-01
   7115.67  1.0663315E-01
   7116.00  1.0727946E-01
   7116.33  1.1573767E-01
   7116.67  1.3252752E-01
   7117.00  1.5851689E-01
   7117.33  1.9243694E-01
   7117.67  2.2608416E-01
   7118.00  2.5369007E-01
   7118.33  2.7073724E-01
   7118.67  2.7450347E-01
   7119.00  2.6349649E-01
   7119.33  2.4172207E-01
   7119.67  2.2179991E-01
   7120.00  2.0998576E-01
   7120.33  2.0645022E-01
   7120.67  2.0646439E-01
   7121.00  2.0806473E-01
   7121.33  2.0933727E-01
   7121.67  2.0800715E-01
   7122.00  2.0325161E-01
   7122.33  1.9643216E-01
   7122.67  1.9059241E-01
   7123.00  1.8749033E-01
   7123.33  1.8832193E-01
   7123.67  1.9247995E-01
   7124.00  1.9947913E-01
   7124.33  2.0912859E-01
   7124.67  2.2096905E-01
   7125.00  2.3479122E-01
   7125.33  2.5023069E-01
   7125.67  2.6689611E-01
   7126.00  2.8565551E-01
   7126.33  3.0854872E-01
   7126.67  3.3506597E-01
   7127.00  3.6429526E-01
   7127.33  3.9658515E-01
   7127.67  4.3156120E-01
   7128.00  4.6666256E-01
   7128.33  4.9570874E-01
   7128.67  5.1545617E-01
   7129.00  5.2635056E-01
   7129.33  5.3318014E-01
   7129.67  5.4264930E-01
   7130.00  5.5690038E-01
   7130.33  5.7469511E-01
   7130.67  5.9231642E-01
   7131.00  6.0752502E-01
   7131.33  6.1873565E-01
   7131.67  6.2627890E-01
   7132.00  6.2986289E-01
   7132.33  6.2761950E-01
   7132.67  6.1892238E-01
   7133.00  6.0386777E-01
   7133.33  5.8391904E-01
   7133.67  5.6255412E-01
   7134.00  5.4184364E-01
   7134.33  5.2330050E-01
   7134.67  5.0659428E-01
   7135.00  4.9024530E-01
   7135.33  4.7105415E-01
   7135.67  4.4836489E-01
   7136.00  4.2511059E-01
   7136.33  4.0748016E-01
   7136.67  3.9849132E-01
   7137.00  3.9873558E-01
   7137.33  4.0797652E-01
   7137.67  4.2261622E-01
   7138.00  4.3933737E-01
   7138.33  4.5325400E-01
   7138.67  4.6133038E-01
   7139.00  4.6311703E-01
   7139.33  4.6012455E-01
   7139.67  4.5604240E-01
   7140.00  4.5338344E-01
   7140.33  4.5474512E-01
   7140.67  4.6088059E-01
   7141.00  4.7207190E-01
   7141.33  4.8841290E-01
   7141.67  5.0814333E-01
   7142.00  5.2989117E-01
   7142.33  5.5198952E-01
   7142.67  5.7282707E-01
   7143.00  5.9127330E-01
   7143.33  6.0589847E-01
   7143.67  6.1651104E-01
   7144.00  6.2295599E-01
   7144.33  6.2506759E-01
   7144.67  6.2412223E-01
   7145.00  6.2101533E-01
   7145.33  6.1659110E-01
   7145.67  6.1168873E-01
   7146.00  6.0662554E-01
   7146.33  6.0156769E-01
   7146.67  5.9663032E-01
   7147.00  5.9194749E-01
   7147.33  5.8773954E-01
   7147.67  5.8407615E-01
   7148.00  5.8100917E-01
   7148.33  5.7863815E-01
   7148.67  5.7691142E-01
   7149.00  5.7587515E-01
   7149.33  5.7571989E-01
   7149.67  5.7646469E-01
   7150.00  5.7819493E-01
   7150.33  5.8107010E-01
   7150.67  5.8488087E-01
   7151.00  5.8944841E-01
   7151.33  5.9449535E-01
   7151.67  5.9953254E-01
   7152.00  6.0414280E-01
   7152.33  6.0776308E-01
   7152.67  6.1017424E-01
   7153.00  6.1125713E-01
   7153.33  6.1095487E-01
   7153.67  6.0975122E-01
   7154.00  6.0804714E-01
   7154.33  6.0633295E-01
   7154.67  6.0502370E-01
   7155.00  6.0434549E-01
   7155.33  6.0449090E-01
   7155.67  6.0534689E-01
   7156.00  6.0683269E-01
   7156.33  6.0887282E-01
   7156.67  6.1124117E-01
   7157.00  6.1377821E-01
   7157.33  6.1626536E-01
   7157.67  6.1846619E-01
   7158.00  6.2016623E-01
   7158.33  6.2106042E-01
   7158.67  6.2110937E-01
   7159.00  6.2029422E-01
   7159.33  6.1858413E-01
   7159.67  6.1619549E-01
   7160.00  6.1322878E-01
   7160.33  6.0971085E-01
   7160.67  6.0574956E-01
   7161.00  6.0135842E-01
   7161.33  5.9647612E-01
   7161.67  5.9113621E-01
   7162.00  5.8532571E-01
   7162.33  5.7898960E-01
   7162.67  5.7221708E-01
   7163.00  5.6505972E-01
   7163.33  5.5756776E-01
   7163.67  5.4988796E-01
   7164.00  5.4212394E-01
   7164.33  5.3440375E-01
   7164.67  5.2684502E-01
   7165.00  5.1954714E-01
   7165.33  5.1264978E-01
   7165.67  5.0617640E-01
   7166.00  5.0016560E-01
   7166.33  4.9470367E-01
   7166.67  4.8973796E-01
   7167.00  4.8526481E-01
   7167.33  4.8133043E-01
   7167.67  4.7785533E-01
   7168.00  4.7482022E-01
   7168.33  4.7225241E-01
   7168.67  4.7007317E-01
   7169.00  4.6825761E-01
   7169.33  4.6681639E-01
   7169.67  4.6567531E-01
   7170.00  4.6480506E-01
   7170.33  4.6419955E-01
   7170.67  4.6379212E-01
   7171.00  4.6354859E-01
   7171.33  4.6343956E-01
   7171.67  4.6339708E-01
   7172.00  4.6336813E-01
