    FDMNES
    energy     <xanes>
   7097.00  4.3770683E-03
   7097.33  4.4736092E-03
   7097.67  4.5743036E-03
   7098.00  4.6794210E-03
   7098.33  4.7899033E-03
   7098.67  4.9055379E-03
   7099.00  5.0266876E-03
   7099.33  5.1545693E-03
   7099.67  5.2889596E-03
   7100.00  5.4303591E-03
   7100.33  5.5803778E-03
   7100.67  5.7387950E-03
   7101.00  5.9063209E-03
   7101.33  6.0851458E-03
   7101.67  6.2750829E-03
   7102.00  6.4771734E-03
   7102.33  6.6944973E-03
   7102.67  6.9269700E-03
   7103.00  7.1761793E-03
   7103.33  7.4466331E-03
   7103.67  7.7385012E-03
   7104.00  8.0543234E-03
   7104.33  8.4010291E-03
   7104.67  8.7793941E-03
   7105.00  9.1937297E-03
   7105.33  9.6553659E-03
   7105.67  1.0166549E-02
   7106.00  1.0735174E-02
   7106.33  1.1381314E-02
   7106.67  1.2111018E-02
   7107.00  1.2940281E-02
   7107.33  1.3908766E-02
   7107.67  1.5033527E-02
   7108.00  1.6351922E-02
   7108.33  1.7955742E-02
   7108.67  1.9900361E-02
   7109.00  2.2294229E-02
   7109.33  2.5410383E-02
   7109.67  2.9486008E-02
   7110.00  3.4974366E-02
   7110.33  4.3112534E-02
   7110.67  5.5330523E-02
   7111.00  7.3852075E-02
   7111.33  1.0323140E-01
   7111.67  1.4452483E-01
   7112.00  1.8787992E-01
   7112.33  2.1974626E-01
   7112.67  2.7391076E-01
   7113.00  3.4676305E-01
   7113.33  3.7333474E-01
   7113.67  3.5124980E-01
   7114.00  2.9106222E-01
   7114.33  2.4037762E-01
   7114.67  2.3276874E-01
   7115.00  2.7080604E-01
   7115.33  3.3288342E-01
   7115.67  3.5303098E-01
   7116.00  3.0578264E-01
   7116.33  2.2761991E-01
   7116.67  1.6747771E-01
   7117.00  1.2747382E-01
   7117.33  1.0145529E-01
   7117.67  8.4997358E-02
   7118.00  7.6033800E-02
   7118.33  7.3280162E-02
   7118.67  7.4523348E-02
   7119.00  7.8297177E-02
   7119.33  8.2979475E-02
   7119.67  8.7276924E-02
   7120.00  9.1042558E-02
   7120.33  9.5481429E-02
   7120.67  1.0093853E-01
   7121.00  1.0646560E-01
   7121.33  1.1107393E-01
   7121.67  1.1492491E-01
   7122.00  1.1840123E-01
   7122.33  1.2224878E-01
   7122.67  1.2778773E-01
   7123.00  1.3659267E-01
   7123.33  1.5078862E-01
   7123.67  1.7010355E-01
   7124.00  1.9349505E-01
   7124.33  2.1940322E-01
   7124.67  2.4648124E-01
   7125.00  2.7403484E-01
   7125.33  3.0036337E-01
   7125.67  3.2446800E-01
   7126.00  3.4736274E-01
   7126.33  3.7239738E-01
   7126.67  4.0185615E-01
   7127.00  4.3522735E-01
   7127.33  4.6664374E-01
   7127.67  4.8782324E-01
   7128.00  4.9567328E-01
   7128.33  4.9324525E-01
   7128.67  4.8801819E-01
   7129.00  4.8336801E-01
   7129.33  4.8109802E-01
   7129.67  4.8097462E-01
   7130.00  4.8227055E-01
   7130.33  4.8362342E-01
   7130.67  4.8379492E-01
   7131.00  4.8241902E-01
   7131.33  4.7982156E-01
   7131.67  4.7705224E-01
   7132.00  4.7476097E-01
   7132.33  4.7296307E-01
   7132.67  4.7068768E-01
   7133.00  4.6726040E-01
   7133.33  4.6241749E-01
   7133.67  4.5680051E-01
   7134.00  4.5111823E-01
   7134.33  4.4615636E-01
   7134.67  4.4209309E-01
   7135.00  4.3887189E-01
   7135.33  4.3646177E-01
   7135.67  4.3470899E-01
   7136.00  4.3357964E-01
   7136.33  4.3303760E-01
   7136.67  4.3283825E-01
   7137.00  4.3287382E-01
   7137.33  4.3333580E-01
   7137.67  4.3468246E-01
   7138.00  4.3751212E-01
   7138.33  4.4272642E-01
   7138.67  4.5038499E-01
   7139.00  4.6046904E-01
   7139.33  4.7295270E-01
   7139.67  4.8705710E-01
   7140.00  5.0224568E-01
   7140.33  5.1797894E-01
   7140.67  5.3372608E-01
   7141.00  5.4922183E-01
   7141.33  5.6424217E-01
   7141.67  5.7875727E-01
   7142.00  5.9272457E-01
   7142.33  6.0602612E-01
   7142.67  6.1868947E-01
   7143.00  6.3067825E-01
   7143.33  6.4187919E-01
   7143.67  6.5237207E-01
   7144.00  6.6215086E-01
   7144.33  6.7113092E-01
   7144.67  6.7942942E-01
   7145.00  6.8706861E-01
   7145.33  6.9397314E-01
   7145.67  7.0020486E-01
   7146.00  7.0572847E-01
   7146.33  7.1038208E-01
   7146.67  7.1417683E-01
   7147.00  7.1706317E-01
   7147.33  7.1893346E-01
   7147.67  7.1997340E-01
   7148.00  7.2028712E-01
   7148.33  7.1995072E-01
   7148.67  7.1919263E-01
   7149.00  7.1814269E-01
   7149.33  7.1692731E-01
   7149.67  7.1570829E-01
   7150.00  7.1461266E-01
   7150.33  7.1382883E-01
   7150.67  7.1347362E-01
   7151.00  7.1366142E-01
   7151.33  7.1456627E-01
   7151.67  7.1614148E-01
   7152.00  7.1835674E-01
   7152.33  7.2117567E-01
   7152.67  7.2436637E-01
   7153.00  7.2775365E-01
   7153.33  7.3111281E-01
   7153.67  7.3422790E-01
   7154.00  7.3692695E-01
   7154.33  7.3896575E-01
   7154.67  7.4028214E-01
   7155.00  7.4078585E-01
   7155.33  7.4028466E-01
   7155.67  7.3883108E-01
   7156.00  7.3638892E-01
   7156.33  7.3280715E-01
   7156.67  7.2821384E-01
   7157.00  7.2263853E-01
   7157.33  7.1604278E-01
   7157.67  7.0866116E-01
   7158.00  7.0063115E-01
   7158.33  6.9208205E-01
   7158.67  6.8326849E-01
   7159.00  6.7435036E-01
   7159.33  6.6549140E-01
   7159.67  6.5680023E-01
   7160.00  6.4833247E-01
   7160.33  6.4012833E-01
   7160.67  6.3212274E-01
   7161.00  6.2425723E-01
   7161.33  6.1644885E-01
   7161.67  6.0859479E-01
   7162.00  6.0061852E-01
   7162.33  5.9242287E-01
   7162.67  5.8398510E-01
   7163.00  5.7528907E-01
   7163.33  5.6631189E-01
   7163.67  5.5711947E-01
   7164.00  5.4775867E-01
   7164.33  5.3828397E-01
   7164.67  5.2878221E-01
   7165.00  5.1931849E-01
   7165.33  5.0997886E-01
   7165.67  5.0081460E-01
   7166.00  4.9187483E-01
   7166.33  4.8324178E-01
   7166.67  4.7491934E-01
   7167.00  4.6693202E-01
   7167.33  4.5934290E-01
   7167.67  4.5211763E-01
   7168.00  4.4525938E-01
   7168.33  4.3881329E-01
   7168.67  4.3273230E-01
   7169.00  4.2701692E-01
   7169.33  4.2171535E-01
   7169.67  4.1678683E-01
   7170.00  4.1223868E-01
   7170.33  4.0813004E-01
   7170.67  4.0442292E-01
   7171.00  4.0112655E-01
   7171.33  3.9830818E-01
   7171.67  3.9594177E-01
   7172.00  3.9406158E-01
