    FDMNES
    energy     <xanes>
   7097.00  4.6119575E-03
   7097.33  4.7199815E-03
   7097.67  4.8331354E-03
   7098.00  4.9517933E-03
   7098.33  5.0771893E-03
   7098.67  5.2091200E-03
   7099.00  5.3481081E-03
   7099.33  5.4958051E-03
   7099.67  5.6520200E-03
   7100.00  5.8175045E-03
   7100.33  5.9945360E-03
   7100.67  6.1829745E-03
   7101.00  6.3839394E-03
   7101.33  6.6006840E-03
   7101.67  6.8332037E-03
   7102.00  7.0832351E-03
   7102.33  7.3556257E-03
   7102.67  7.6506935E-03
   7103.00  7.9712691E-03
   7103.33  8.3249547E-03
   7103.67  8.7128232E-03
   7104.00  9.1397752E-03
   7104.33  9.6185150E-03
   7104.67  1.0151931E-02
   7105.00  1.0749177E-02
   7105.33  1.1433269E-02
   7105.67  1.2211760E-02
   7106.00  1.3103510E-02
   7106.33  1.4154898E-02
   7106.67  1.5386801E-02
   7107.00  1.6843600E-02
   7107.33  1.8633547E-02
   7107.67  2.0822241E-02
   7108.00  2.3536094E-02
   7108.33  2.7088782E-02
   7108.67  3.1739028E-02
   7109.00  3.7970350E-02
   7109.33  4.7066205E-02
   7109.67  6.0526942E-02
   7110.00  8.1292951E-02
   7110.33  1.1781379E-01
   7110.67  1.7856843E-01
   7111.00  2.6291070E-01
   7111.33  3.4486532E-01
   7111.67  4.1621803E-01
   7112.00  4.5618440E-01
   7112.33  4.1245994E-01
   7112.67  3.3125719E-01
   7113.00  2.5660094E-01
   7113.33  1.9951252E-01
   7113.67  1.5649215E-01
   7114.00  1.2556322E-01
   7114.33  1.0446568E-01
   7114.67  8.9682280E-02
   7115.00  7.9331772E-02
   7115.33  7.1818578E-02
   7115.67  6.6607910E-02
   7116.00  6.3565363E-02
   7116.33  6.2326510E-02
   7116.67  6.2284263E-02
   7117.00  6.3201453E-02
   7117.33  6.4882324E-02
   7117.67  6.6895122E-02
   7118.00  6.8896684E-02
   7118.33  7.0602437E-02
   7118.67  7.2041041E-02
   7119.00  7.3326036E-02
   7119.33  7.4762632E-02
   7119.67  7.6710735E-02
   7120.00  7.9477573E-02
   7120.33  8.3470591E-02
   7120.67  8.8722900E-02
   7121.00  9.5370519E-02
   7121.33  1.0387611E-01
   7121.67  1.1445315E-01
   7122.00  1.2757843E-01
   7122.33  1.4431932E-01
   7122.67  1.6504072E-01
   7123.00  1.9037171E-01
   7123.33  2.2130027E-01
   7123.67  2.5669615E-01
   7124.00  2.9506982E-01
   7124.33  3.3335254E-01
   7124.67  3.6763531E-01
   7125.00  3.9481931E-01
   7125.33  4.1187951E-01
   7125.67  4.2059553E-01
   7126.00  4.2290241E-01
   7126.33  4.2082778E-01
   7126.67  4.1690493E-01
   7127.00  4.1233650E-01
   7127.33  4.0774913E-01
   7127.67  4.0284248E-01
   7128.00  3.9698601E-01
   7128.33  3.8974496E-01
   7128.67  3.8188051E-01
   7129.00  3.7434890E-01
   7129.33  3.6837627E-01
   7129.67  3.6445299E-01
   7130.00  3.6282395E-01
   7130.33  3.6388695E-01
   7130.67  3.6750345E-01
   7131.00  3.7397649E-01
   7131.33  3.8412077E-01
   7131.67  3.9764527E-01
   7132.00  4.1415035E-01
   7132.33  4.3263921E-01
   7132.67  4.5125684E-01
   7133.00  4.6927615E-01
   7133.33  4.8750746E-01
   7133.67  5.0683418E-01
   7134.00  5.2643666E-01
   7134.33  5.4401284E-01
   7134.67  5.5862699E-01
   7135.00  5.7059486E-01
   7135.33  5.8086379E-01
   7135.67  5.9065838E-01
   7136.00  6.0042991E-01
   7136.33  6.1021362E-01
   7136.67  6.1976882E-01
   7137.00  6.2891378E-01
   7137.33  6.3761624E-01
   7137.67  6.4622322E-01
   7138.00  6.5513237E-01
   7138.33  6.6490769E-01
   7138.67  6.7577578E-01
   7139.00  6.8781963E-01
   7139.33  7.0099944E-01
   7139.67  7.1475860E-01
   7140.00  7.2857275E-01
   7140.33  7.4168159E-01
   7140.67  7.5353301E-01
   7141.00  7.6371491E-01
   7141.33  7.7171897E-01
   7141.67  7.7775914E-01
   7142.00  7.8195177E-01
   7142.33  7.8429380E-01
   7142.67  7.8523260E-01
   7143.00  7.8499937E-01
   7143.33  7.8375552E-01
   7143.67  7.8187240E-01
   7144.00  7.7955323E-01
   7144.33  7.7698247E-01
   7144.67  7.7437343E-01
   7145.00  7.7186230E-01
   7145.33  7.6960559E-01
   7145.67  7.6766586E-01
   7146.00  7.6608854E-01
   7146.33  7.6493480E-01
   7146.67  7.6413231E-01
   7147.00  7.6363001E-01
   7147.33  7.6335737E-01
   7147.67  7.6316195E-01
   7148.00  7.6292734E-01
   7148.33  7.6249535E-01
   7148.67  7.6176382E-01
   7149.00  7.6064210E-01
   7149.33  7.5899034E-01
   7149.67  7.5682071E-01
   7150.00  7.5411800E-01
   7150.33  7.5081785E-01
   7150.67  7.4699812E-01
   7151.00  7.4266667E-01
   7151.33  7.3775733E-01
   7151.67  7.3231696E-01
   7152.00  7.2632012E-01
   7152.33  7.1965849E-01
   7152.67  7.1237850E-01
   7153.00  7.0447172E-01
   7153.33  6.9587577E-01
   7153.67  6.8671074E-01
   7154.00  6.7703661E-01
   7154.33  6.6689113E-01
   7154.67  6.5643396E-01
   7155.00  6.4576529E-01
   7155.33  6.3498412E-01
   7155.67  6.2420652E-01
   7156.00  6.1351575E-01
   7156.33  6.0302170E-01
   7156.67  5.9278268E-01
   7157.00  5.8286142E-01
   7157.33  5.7336361E-01
   7157.67  5.6428086E-01
   7158.00  5.5562862E-01
   7158.33  5.4745411E-01
   7158.67  5.3967288E-01
   7159.00  5.3224128E-01
   7159.33  5.2512313E-01
   7159.67  5.1819281E-01
   7160.00  5.1136598E-01
   7160.33  5.0454885E-01
   7160.67  4.9766268E-01
   7161.00  4.9066211E-01
   7161.33  4.8350287E-01
   7161.67  4.7620318E-01
   7162.00  4.6879503E-01
   7162.33  4.6134944E-01
   7162.67  4.5396820E-01
   7163.00  4.4674170E-01
   7163.33  4.3980518E-01
   7163.67  4.3321827E-01
   7164.00  4.2704511E-01
   7164.33  4.2139700E-01
   7164.67  4.1624468E-01
   7165.00  4.1159612E-01
   7165.33  4.0750430E-01
   7165.67  4.0388078E-01
   7166.00  4.0069839E-01
   7166.33  3.9798037E-01
   7166.67  3.9564999E-01
   7167.00  3.9368929E-01
   7167.33  3.9212661E-01
   7167.67  3.9090667E-01
   7168.00  3.9002228E-01
   7168.33  3.8950680E-01
   7168.67  3.8931085E-01
   7169.00  3.8942529E-01
   7169.33  3.8987298E-01
   7169.67  3.9059793E-01
   7170.00  3.9157885E-01
   7170.33  3.9281132E-01
   7170.67  3.9422454E-01
   7171.00  3.9576954E-01
   7171.33  3.9736920E-01
   7171.67  3.9888173E-01
   7172.00  4.0013772E-01
