    FDMNES
    energy     <xanes>
   7097.00  5.3159162E-03
   7097.33  5.4480805E-03
   7097.67  5.5865083E-03
   7098.00  5.7316348E-03
   7098.33  5.8849277E-03
   7098.67  6.0461044E-03
   7099.00  6.2157589E-03
   7099.33  6.3958184E-03
   7099.67  6.5859940E-03
   7100.00  6.7871170E-03
   7100.33  7.0017813E-03
   7100.67  7.2297195E-03
   7101.00  7.4721299E-03
   7101.33  7.7326060E-03
   7101.67  8.0109644E-03
   7102.00  8.3089916E-03
   7102.33  8.6318409E-03
   7102.67  8.9795477E-03
   7103.00  9.3548866E-03
   7103.33  9.7655605E-03
   7103.67  1.0212124E-02
   7104.00  1.0699104E-02
   7104.33  1.1238616E-02
   7104.67  1.1832431E-02
   7105.00  1.2488403E-02
   7105.33  1.3226844E-02
   7105.67  1.4052474E-02
   7106.00  1.4980026E-02
   7106.33  1.6046499E-02
   7106.67  1.7264307E-02
   7107.00  1.8664102E-02
   7107.33  2.0321304E-02
   7107.67  2.2270919E-02
   7108.00  2.4586744E-02
   7108.33  2.7449544E-02
   7108.67  3.0974581E-02
   7109.00  3.5383594E-02
   7109.33  4.1236065E-02
   7109.67  4.9037726E-02
   7110.00  5.9751289E-02
   7110.33  7.6014489E-02
   7110.67  1.0086709E-01
   7111.00  1.3864159E-01
   7111.33  1.9712888E-01
   7111.67  2.8062343E-01
   7112.00  3.8848218E-01
   7112.33  4.8415922E-01
   7112.67  5.4896487E-01
   7113.00  6.0008336E-01
   7113.33  6.1541900E-01
   7113.67  5.6389495E-01
   7114.00  4.6703161E-01
   7114.33  3.7573439E-01
   7114.67  3.0968777E-01
   7115.00  2.6831542E-01
   7115.33  2.5009308E-01
   7115.67  2.4759145E-01
   7116.00  2.5259579E-01
   7116.33  2.5085221E-01
   7116.67  2.3870729E-01
   7117.00  2.2113453E-01
   7117.33  2.0262044E-01
   7117.67  1.8474933E-01
   7118.00  1.6868253E-01
   7118.33  1.5597523E-01
   7118.67  1.4638062E-01
   7119.00  1.3935021E-01
   7119.33  1.3424968E-01
   7119.67  1.3014875E-01
   7120.00  1.2667451E-01
   7120.33  1.2387033E-01
   7120.67  1.2202720E-01
   7121.00  1.2141682E-01
   7121.33  1.2211620E-01
   7121.67  1.2368880E-01
   7122.00  1.2593089E-01
   7122.33  1.2875170E-01
   7122.67  1.3194205E-01
   7123.00  1.3538810E-01
   7123.33  1.3912156E-01
   7123.67  1.4334313E-01
   7124.00  1.4837004E-01
   7124.33  1.5471934E-01
   7124.67  1.6257273E-01
   7125.00  1.7217365E-01
   7125.33  1.8400312E-01
   7125.67  1.9804185E-01
   7126.00  2.1453528E-01
   7126.33  2.3408170E-01
   7126.67  2.5631732E-01
   7127.00  2.8090667E-01
   7127.33  3.0755516E-01
   7127.67  3.3563277E-01
   7128.00  3.6491441E-01
   7128.33  3.9526192E-01
   7128.67  4.2624669E-01
   7129.00  4.5768670E-01
   7129.33  4.9046192E-01
   7129.67  5.2663519E-01
   7130.00  5.6826451E-01
   7130.33  6.1755448E-01
   7130.67  6.7406985E-01
   7131.00  7.3763682E-01
   7131.33  8.0769369E-01
   7131.67  8.8049426E-01
   7132.00  9.5212218E-01
   7132.33  1.0165454E+00
   7132.67  1.0695970E+00
   7133.00  1.1075578E+00
   7133.33  1.1245805E+00
   7133.67  1.1211977E+00
   7134.00  1.0981392E+00
   7134.33  1.0569933E+00
   7134.67  1.0051185E+00
   7135.00  9.4722799E-01
   7135.33  8.8760219E-01
   7135.67  8.2934945E-01
   7136.00  7.7386305E-01
   7136.33  7.2239310E-01
   7136.67  6.7487579E-01
   7137.00  6.3154579E-01
   7137.33  5.9325612E-01
   7137.67  5.5978369E-01
   7138.00  5.3141835E-01
   7138.33  5.0908727E-01
   7138.67  4.9220292E-01
   7139.00  4.8064393E-01
   7139.33  4.7463610E-01
   7139.67  4.7294606E-01
   7140.00  4.7493516E-01
   7140.33  4.8018875E-01
   7140.67  4.8761922E-01
   7141.00  4.9669326E-01
   7141.33  5.0704980E-01
   7141.67  5.1814964E-01
   7142.00  5.2970978E-01
   7142.33  5.4145626E-01
   7142.67  5.5309089E-01
   7143.00  5.6438365E-01
   7143.33  5.7500498E-01
   7143.67  5.8479491E-01
   7144.00  5.9357370E-01
   7144.33  6.0101558E-01
   7144.67  6.0713235E-01
   7145.00  6.1184329E-01
   7145.33  6.1492357E-01
   7145.67  6.1657327E-01
   7146.00  6.1684834E-01
   7146.33  6.1567065E-01
   7146.67  6.1330180E-01
   7147.00  6.0984912E-01
   7147.33  6.0534250E-01
   7147.67  6.0006147E-01
   7148.00  5.9415132E-01
   7148.33  5.8772503E-01
   7148.67  5.8100704E-01
   7149.00  5.7413561E-01
   7149.33  5.6726376E-01
   7149.67  5.6054000E-01
   7150.00  5.5408771E-01
   7150.33  5.4808062E-01
   7150.67  5.4257588E-01
   7151.00  5.3765537E-01
   7151.33  5.3348681E-01
   7151.67  5.3005867E-01
   7152.00  5.2742342E-01
   7152.33  5.2573639E-01
   7152.67  5.2492942E-01
   7153.00  5.2502299E-01
   7153.33  5.2613752E-01
   7153.67  5.2814335E-01
   7154.00  5.3100282E-01
   7154.33  5.3473709E-01
   7154.67  5.3913856E-01
   7155.00  5.4408789E-01
   7155.33  5.4947199E-01
   7155.67  5.5506616E-01
   7156.00  5.6071579E-01
   7156.33  5.6623345E-01
   7156.67  5.7147854E-01
   7157.00  5.7633703E-01
   7157.33  5.8064042E-01
   7157.67  5.8437184E-01
   7158.00  5.8748496E-01
   7158.33  5.8986596E-01
   7158.67  5.9158226E-01
   7159.00  5.9263245E-01
   7159.33  5.9294041E-01
   7159.67  5.9260038E-01
   7160.00  5.9162462E-01
   7160.33  5.8995051E-01
   7160.67  5.8767048E-01
   7161.00  5.8479593E-01
   7161.33  5.8126552E-01
   7161.67  5.7716926E-01
   7162.00  5.7252657E-01
   7162.33  5.6729602E-01
   7162.67  5.6157657E-01
   7163.00  5.5540904E-01
   7163.33  5.4880156E-01
   7163.67  5.4186818E-01
   7164.00  5.3467006E-01
   7164.33  5.2725716E-01
   7164.67  5.1972684E-01
   7165.00  5.1213954E-01
   7165.33  5.0456164E-01
   7165.67  4.9705056E-01
   7166.00  4.8964972E-01
   7166.33  4.8242036E-01
   7166.67  4.7537677E-01
   7167.00  4.6854105E-01
   7167.33  4.6196236E-01
   7167.67  4.5562892E-01
   7168.00  4.4955280E-01
   7168.33  4.4378062E-01
   7168.67  4.3829279E-01
   7169.00  4.3310365E-01
   7169.33  4.2826756E-01
   7169.67  4.2375515E-01
   7170.00  4.1957449E-01
   7170.33  4.1577872E-01
   7170.67  4.1233607E-01
   7171.00  4.0925720E-01
   7171.33  4.0660810E-01
   7171.67  4.0437550E-01
   7172.00  4.0260359E-01
