    FDMNES
    energy     <xanes>
   7097.00  4.0630664E-03
   7097.33  4.1400197E-03
   7097.67  4.2197456E-03
   7098.00  4.3024038E-03
   7098.33  4.3885904E-03
   7098.67  4.4781390E-03
   7099.00  4.5712630E-03
   7099.33  4.6687190E-03
   7099.67  4.7703335E-03
   7100.00  4.8764007E-03
   7100.33  4.9879088E-03
   7100.67  5.1046880E-03
   7101.00  5.2271588E-03
   7101.33  5.3566586E-03
   7101.67  5.4930465E-03
   7102.00  5.6369513E-03
   7102.33  5.7902641E-03
   7102.67  5.9529317E-03
   7103.00  6.1259465E-03
   7103.33  6.3121355E-03
   7103.67  6.5116716E-03
   7104.00  6.7262310E-03
   7104.33  6.9603492E-03
   7104.67  7.2147746E-03
   7105.00  7.4925893E-03
   7105.33  7.8017683E-03
   7105.67  8.1445980E-03
   7106.00  8.5274083E-03
   7106.33  8.9660382E-03
   7106.67  9.4673355E-03
   7107.00  1.0046395E-02
   7107.33  1.0740443E-02
   7107.67  1.1572370E-02
   7108.00  1.2586753E-02
   7108.33  1.3895529E-02
   7108.67  1.5595542E-02
   7109.00  1.7869447E-02
   7109.33  2.1212333E-02
   7109.67  2.6240649E-02
   7110.00  3.4180119E-02
   7110.33  4.8568901E-02
   7110.67  7.2392774E-02
   7111.00  1.0183231E-01
   7111.33  1.1587574E-01
   7111.67  1.1045217E-01
   7112.00  9.6771742E-02
   7112.33  8.6206313E-02
   7112.67  8.0276093E-02
   7113.00  8.0059882E-02
   7113.33  8.7164378E-02
   7113.67  9.2174083E-02
   7114.00  8.8338008E-02
   7114.33  7.8812708E-02
   7114.67  6.6429702E-02
   7115.00  5.3082184E-02
   7115.33  4.3548573E-02
   7115.67  3.7846991E-02
   7116.00  3.4826294E-02
   7116.33  3.3710573E-02
   7116.67  3.3714798E-02
   7117.00  3.4487666E-02
   7117.33  3.5847443E-02
   7117.67  3.7733000E-02
   7118.00  4.0103344E-02
   7118.33  4.2624228E-02
   7118.67  4.5066688E-02
   7119.00  4.7659677E-02
   7119.33  5.1049138E-02
   7119.67  5.5850693E-02
   7120.00  6.2756926E-02
   7120.33  7.2945180E-02
   7120.67  8.6216239E-02
   7121.00  1.0122850E-01
   7121.33  1.1562676E-01
   7121.67  1.2979163E-01
   7122.00  1.4562841E-01
   7122.33  1.6488708E-01
   7122.67  1.8702846E-01
   7123.00  2.1137477E-01
   7123.33  2.3709182E-01
   7123.67  2.6132482E-01
   7124.00  2.8153433E-01
   7124.33  2.9989872E-01
   7124.67  3.2286159E-01
   7125.00  3.5401943E-01
   7125.33  3.9466224E-01
   7125.67  4.4067399E-01
   7126.00  4.8928289E-01
   7126.33  5.3874020E-01
   7126.67  5.8617417E-01
   7127.00  6.2861371E-01
   7127.33  6.6440289E-01
   7127.67  6.9596479E-01
   7128.00  7.2484079E-01
   7128.33  7.5050936E-01
   7128.67  7.7090419E-01
   7129.00  7.8406973E-01
   7129.33  7.8991136E-01
   7129.67  7.9389299E-01
   7130.00  8.0114562E-01
   7130.33  8.1647000E-01
   7130.67  8.3884998E-01
   7131.00  8.6498830E-01
   7131.33  8.8893569E-01
   7131.67  9.0631902E-01
   7132.00  9.1566295E-01
   7132.33  9.1649995E-01
   7132.67  9.1069146E-01
   7133.00  8.9875772E-01
   7133.33  8.8125411E-01
   7133.67  8.6139791E-01
   7134.00  8.4183707E-01
   7134.33  8.2446684E-01
   7134.67  8.0852886E-01
   7135.00  7.9271898E-01
   7135.33  7.7559411E-01
   7135.67  7.5671606E-01
   7136.00  7.3617754E-01
   7136.33  7.1449394E-01
   7136.67  6.9274292E-01
   7137.00  6.7176381E-01
   7137.33  6.5254754E-01
   7137.67  6.3537093E-01
   7138.00  6.2036113E-01
   7138.33  6.0766946E-01
   7138.67  5.9679329E-01
   7139.00  5.8752295E-01
   7139.33  5.7988600E-01
   7139.67  5.7366290E-01
   7140.00  5.6887750E-01
   7140.33  5.6573619E-01
   7140.67  5.6403013E-01
   7141.00  5.6369641E-01
   7141.33  5.6479933E-01
   7141.67  5.6707244E-01
   7142.00  5.7040484E-01
   7142.33  5.7473008E-01
   7142.67  5.7969312E-01
   7143.00  5.8503519E-01
   7143.33  5.9044081E-01
   7143.67  5.9559910E-01
   7144.00  6.0028409E-01
   7144.33  6.0421712E-01
   7144.67  6.0739114E-01
   7145.00  6.0983404E-01
   7145.33  6.1163040E-01
   7145.67  6.1307822E-01
   7146.00  6.1433176E-01
   7146.33  6.1539244E-01
   7146.67  6.1608051E-01
   7147.00  6.1605105E-01
   7147.33  6.1462569E-01
   7147.67  6.1144009E-01
   7148.00  6.0617282E-01
   7148.33  5.9843055E-01
   7148.67  5.8867643E-01
   7149.00  5.7728933E-01
   7149.33  5.6475091E-01
   7149.67  5.5184802E-01
   7150.00  5.3908398E-01
   7150.33  5.2694975E-01
   7150.67  5.1558035E-01
   7151.00  5.0497613E-01
   7151.33  4.9501214E-01
   7151.67  4.8525414E-01
   7152.00  4.7533501E-01
   7152.33  4.6481204E-01
   7152.67  4.5354210E-01
   7153.00  4.4152091E-01
   7153.33  4.2884984E-01
   7153.67  4.1588978E-01
   7154.00  4.0291592E-01
   7154.33  3.9026031E-01
   7154.67  3.7812176E-01
   7155.00  3.6664295E-01
   7155.33  3.5602411E-01
   7155.67  3.4621947E-01
   7156.00  3.3723845E-01
   7156.33  3.2916503E-01
   7156.67  3.2186031E-01
   7157.00  3.1527867E-01
   7157.33  3.0943888E-01
   7157.67  3.0419143E-01
   7158.00  2.9948315E-01
   7158.33  2.9532740E-01
   7158.67  2.9164010E-01
   7159.00  2.8842905E-01
   7159.33  2.8580342E-01
   7159.67  2.8377605E-01
   7160.00  2.8243077E-01
   7160.33  2.8196284E-01
   7160.67  2.8235049E-01
   7161.00  2.8362813E-01
   7161.33  2.8589849E-01
   7161.67  2.8898601E-01
   7162.00  2.9279522E-01
   7162.33  2.9725465E-01
   7162.67  3.0213082E-01
   7163.00  3.0728017E-01
   7163.33  3.1255024E-01
   7163.67  3.1779024E-01
   7164.00  3.2291650E-01
   7164.33  3.2784986E-01
   7164.67  3.3259566E-01
   7165.00  3.3716860E-01
   7165.33  3.4159260E-01
   7165.67  3.4593897E-01
   7166.00  3.5025808E-01
   7166.33  3.5460639E-01
   7166.67  3.5901974E-01
   7167.00  3.6351661E-01
   7167.33  3.6811201E-01
   7167.67  3.7278310E-01
   7168.00  3.7751113E-01
   7168.33  3.8227505E-01
   7168.67  3.8704870E-01
   7169.00  3.9181903E-01
   7169.33  3.9657804E-01
   7169.67  4.0132700E-01
   7170.00  4.0606720E-01
   7170.33  4.1079262E-01
   7170.67  4.1548293E-01
   7171.00  4.2009242E-01
   7171.33  4.2448671E-01
   7171.67  4.2847248E-01
   7172.00  4.3176176E-01
