    FDMNES
    energy     <xanes>
   7097.00  5.2048449E-03
   7097.33  5.3284191E-03
   7097.67  5.4576303E-03
   7098.00  5.5928597E-03
   7098.33  5.7354111E-03
   7098.67  5.8850165E-03
   7099.00  6.0421940E-03
   7099.33  6.2086455E-03
   7099.67  6.3840948E-03
   7100.00  6.5692639E-03
   7100.33  6.7664310E-03
   7100.67  6.9753351E-03
   7101.00  7.1970135E-03
   7101.33  7.4346066E-03
   7101.67  7.6879225E-03
   7102.00  7.9585047E-03
   7102.33  8.2508385E-03
   7102.67  8.5649192E-03
   7103.00  8.9031433E-03
   7103.33  9.2722002E-03
   7103.67  9.6725395E-03
   7104.00  1.0108082E-02
   7104.33  1.0589357E-02
   7104.67  1.1117902E-02
   7105.00  1.1700571E-02
   7105.33  1.2355120E-02
   7105.67  1.3085797E-02
   7106.00  1.3905664E-02
   7106.33  1.4847553E-02
   7106.67  1.5923064E-02
   7107.00  1.7160218E-02
   7107.33  1.8628112E-02
   7107.67  2.0361352E-02
   7108.00  2.2431450E-02
   7108.33  2.5015257E-02
   7108.67  2.8238503E-02
   7109.00  3.2342004E-02
   7109.33  3.7952860E-02
   7109.67  4.5730370E-02
   7110.00  5.6960981E-02
   7110.33  7.5272735E-02
   7110.67  1.0424426E-01
   7111.00  1.4460524E-01
   7111.33  1.9036095E-01
   7111.67  2.3650511E-01
   7112.00  2.8184474E-01
   7112.33  3.3124496E-01
   7112.67  3.7529602E-01
   7113.00  4.0489497E-01
   7113.33  4.1807195E-01
   7113.67  4.2383465E-01
   7114.00  4.1989284E-01
   7114.33  3.9202470E-01
   7114.67  3.5370941E-01
   7115.00  3.1911375E-01
   7115.33  2.9218717E-01
   7115.67  2.7178223E-01
   7116.00  2.5927029E-01
   7116.33  2.5526224E-01
   7116.67  2.5299554E-01
   7117.00  2.4370936E-01
   7117.33  2.2110242E-01
   7117.67  1.9424216E-01
   7118.00  1.7138713E-01
   7118.33  1.5694452E-01
   7118.67  1.4913188E-01
   7119.00  1.4623507E-01
   7119.33  1.4648304E-01
   7119.67  1.4785075E-01
   7120.00  1.4966617E-01
   7120.33  1.5183181E-01
   7120.67  1.5416511E-01
   7121.00  1.5639978E-01
   7121.33  1.5865231E-01
   7121.67  1.6178370E-01
   7122.00  1.6656481E-01
   7122.33  1.7336939E-01
   7122.67  1.8144289E-01
   7123.00  1.9018959E-01
   7123.33  1.9901512E-01
   7123.67  2.0760725E-01
   7124.00  2.1606342E-01
   7124.33  2.2487204E-01
   7124.67  2.3459241E-01
   7125.00  2.4571833E-01
   7125.33  2.5894758E-01
   7125.67  2.7434533E-01
   7126.00  2.9202914E-01
   7126.33  3.1231406E-01
   7126.67  3.3486843E-01
   7127.00  3.5959760E-01
   7127.33  3.8648653E-01
   7127.67  4.1458380E-01
   7128.00  4.4287034E-01
   7128.33  4.6998569E-01
   7128.67  4.9550272E-01
   7129.00  5.2014495E-01
   7129.33  5.4683434E-01
   7129.67  5.7907035E-01
   7130.00  6.1931585E-01
   7130.33  6.6860827E-01
   7130.67  7.2209663E-01
   7131.00  7.7464335E-01
   7131.33  8.2044615E-01
   7131.67  8.5789916E-01
   7132.00  8.8667051E-01
   7132.33  9.0600735E-01
   7132.67  9.1732742E-01
   7133.00  9.2096950E-01
   7133.33  9.1667362E-01
   7133.67  9.0635451E-01
   7134.00  8.9118249E-01
   7134.33  8.7204389E-01
   7134.67  8.5024817E-01
   7135.00  8.2614321E-01
   7135.33  7.9973886E-01
   7135.67  7.7163823E-01
   7136.00  7.4219583E-01
   7136.33  7.1170843E-01
   7136.67  6.8075616E-01
   7137.00  6.4987216E-01
   7137.33  6.1995947E-01
   7137.67  5.9177195E-01
   7138.00  5.6595250E-01
   7138.33  5.4334232E-01
   7138.67  5.2375664E-01
   7139.00  5.0717274E-01
   7139.33  4.9387379E-01
   7139.67  4.8344175E-01
   7140.00  4.7585612E-01
   7140.33  4.7142607E-01
   7140.67  4.6970817E-01
   7141.00  4.7058008E-01
   7141.33  4.7414472E-01
   7141.67  4.7983833E-01
   7142.00  4.8737542E-01
   7142.33  4.9654457E-01
   7142.67  5.0672995E-01
   7143.00  5.1754895E-01
   7143.33  5.2859195E-01
   7143.67  5.3941850E-01
   7144.00  5.4968298E-01
   7144.33  5.5887183E-01
   7144.67  5.6672835E-01
   7145.00  5.7296331E-01
   7145.33  5.7709411E-01
   7145.67  5.7924681E-01
   7146.00  5.7944823E-01
   7146.33  5.7762754E-01
   7146.67  5.7426322E-01
   7147.00  5.6962426E-01
   7147.33  5.6392626E-01
   7147.67  5.5758816E-01
   7148.00  5.5082706E-01
   7148.33  5.4383830E-01
   7148.67  5.3683759E-01
   7149.00  5.2996477E-01
   7149.33  5.2339222E-01
   7149.67  5.1720555E-01
   7150.00  5.1149909E-01
   7150.33  5.0645722E-01
   7150.67  5.0212214E-01
   7151.00  4.9859721E-01
   7151.33  4.9611650E-01
   7151.67  4.9466888E-01
   7152.00  4.9432371E-01
   7152.33  4.9526884E-01
   7152.67  4.9735618E-01
   7153.00  5.0053713E-01
   7153.33  5.0482431E-01
   7153.67  5.0993011E-01
   7154.00  5.1567572E-01
   7154.33  5.2187124E-01
   7154.67  5.2821061E-01
   7155.00  5.3447664E-01
   7155.33  5.4039691E-01
   7155.67  5.4580847E-01
   7156.00  5.5057542E-01
   7156.33  5.5449933E-01
   7156.67  5.5762657E-01
   7157.00  5.5995712E-01
   7157.33  5.6143361E-01
   7157.67  5.6221697E-01
   7158.00  5.6237764E-01
   7158.33  5.6193822E-01
   7158.67  5.6105519E-01
   7159.00  5.5980223E-01
   7159.33  5.5822243E-01
   7159.67  5.5642331E-01
   7160.00  5.5445882E-01
   7160.33  5.5236878E-01
   7160.67  5.5020954E-01
   7161.00  5.4800828E-01
   7161.33  5.4578734E-01
   7161.67  5.4356512E-01
   7162.00  5.4135027E-01
   7162.33  5.3914915E-01
   7162.67  5.3695424E-01
   7163.00  5.3475361E-01
   7163.33  5.3253718E-01
   7163.67  5.3030334E-01
   7164.00  5.2804966E-01
   7164.33  5.2577038E-01
   7164.67  5.2346647E-01
   7165.00  5.2113726E-01
   7165.33  5.1878000E-01
   7165.67  5.1639990E-01
   7166.00  5.1399905E-01
   7166.33  5.1157562E-01
   7166.67  5.0913071E-01
   7167.00  5.0666097E-01
   7167.33  5.0415408E-01
   7167.67  5.0160168E-01
   7168.00  4.9899175E-01
   7168.33  4.9630173E-01
   7168.67  4.9352931E-01
   7169.00  4.9066962E-01
   7169.33  4.8771568E-01
   7169.67  4.8468853E-01
   7170.00  4.8160335E-01
   7170.33  4.7848420E-01
   7170.67  4.7537590E-01
   7171.00  4.7232869E-01
   7171.33  4.6944911E-01
   7171.67  4.6686223E-01
   7172.00  4.6474382E-01
