    FDMNES
    energy     <xanes>
   7097.00  4.3591249E-03
   7097.33  4.4441262E-03
   7097.67  4.5322841E-03
   7098.00  4.6237808E-03
   7098.33  4.7192954E-03
   7098.67  4.8186380E-03
   7099.00  4.9220505E-03
   7099.33  5.0303915E-03
   7099.67  5.1434602E-03
   7100.00  5.2615865E-03
   7100.33  5.3858848E-03
   7100.67  5.5161530E-03
   7101.00  5.6528562E-03
   7101.33  5.7974877E-03
   7101.67  5.9498670E-03
   7102.00  6.1106775E-03
   7102.33  6.2820008E-03
   7102.67  6.4637319E-03
   7103.00  6.6569261E-03
   7103.33  6.8646339E-03
   7103.67  7.0869524E-03
   7104.00  7.3256166E-03
   7104.33  7.5853926E-03
   7104.67  7.8668947E-03
   7105.00  8.1732104E-03
   7105.33  8.5124411E-03
   7105.67  8.8865652E-03
   7106.00  9.3016820E-03
   7106.33  9.7732135E-03
   7106.67  1.0307089E-02
   7107.00  1.0917197E-02
   7107.33  1.1637948E-02
   7107.67  1.2488698E-02
   7108.00  1.3508284E-02
   7108.33  1.4793903E-02
   7108.67  1.6424162E-02
   7109.00  1.8548405E-02
   7109.33  2.1566890E-02
   7109.67  2.5954949E-02
   7110.00  3.2653799E-02
   7110.33  4.4367168E-02
   7110.67  6.3478551E-02
   7111.00  8.7752684E-02
   7111.33  1.0268211E-01
   7111.67  1.0846406E-01
   7112.00  1.1523219E-01
   7112.33  1.2677771E-01
   7112.67  1.3658946E-01
   7113.00  1.3809160E-01
   7113.33  1.2409919E-01
   7113.67  1.0296123E-01
   7114.00  8.3817482E-02
   7114.33  6.7434952E-02
   7114.67  5.5888356E-02
   7115.00  4.9857283E-02
   7115.33  4.8270114E-02
   7115.67  4.9566645E-02
   7116.00  5.3495070E-02
   7116.33  6.0598933E-02
   7116.67  7.1010183E-02
   7117.00  8.5273824E-02
   7117.33  1.0441658E-01
   7117.67  1.2707123E-01
   7118.00  1.5028435E-01
   7118.33  1.6806768E-01
   7118.67  1.7748558E-01
   7119.00  1.7866322E-01
   7119.33  1.7335443E-01
   7119.67  1.6630235E-01
   7120.00  1.6093268E-01
   7120.33  1.6038243E-01
   7120.67  1.6538919E-01
   7121.00  1.7658583E-01
   7121.33  1.9543207E-01
   7121.67  2.2110648E-01
   7122.00  2.5218174E-01
   7122.33  2.8503402E-01
   7122.67  3.1503923E-01
   7123.00  3.3954642E-01
   7123.33  3.5589725E-01
   7123.67  3.6313858E-01
   7124.00  3.6162238E-01
   7124.33  3.5831594E-01
   7124.67  3.6168602E-01
   7125.00  3.7524994E-01
   7125.33  4.0109565E-01
   7125.67  4.3564804E-01
   7126.00  4.7484843E-01
   7126.33  5.1159685E-01
   7126.67  5.4180656E-01
   7127.00  5.6838839E-01
   7127.33  5.9822468E-01
   7127.67  6.3363855E-01
   7128.00  6.7354399E-01
   7128.33  7.1507703E-01
   7128.67  7.5439676E-01
   7129.00  7.8828926E-01
   7129.33  8.1222554E-01
   7129.67  8.2549443E-01
   7130.00  8.2881962E-01
   7130.33  8.2406471E-01
   7130.67  8.1480431E-01
   7131.00  8.0250850E-01
   7131.33  7.8826183E-01
   7131.67  7.7359642E-01
   7132.00  7.5992308E-01
   7132.33  7.4984182E-01
   7132.67  7.4498890E-01
   7133.00  7.4574269E-01
   7133.33  7.5024960E-01
   7133.67  7.5364236E-01
   7134.00  7.5262025E-01
   7134.33  7.4540496E-01
   7134.67  7.3366680E-01
   7135.00  7.1846854E-01
   7135.33  7.0055183E-01
   7135.67  6.8143747E-01
   7136.00  6.6248126E-01
   7136.33  6.4550900E-01
   7136.67  6.3137432E-01
   7137.00  6.2038219E-01
   7137.33  6.1267987E-01
   7137.67  6.0732958E-01
   7138.00  6.0372065E-01
   7138.33  6.0129044E-01
   7138.67  5.9936029E-01
   7139.00  5.9761545E-01
   7139.33  5.9585198E-01
   7139.67  5.9400411E-01
   7140.00  5.9207767E-01
   7140.33  5.9008603E-01
   7140.67  5.8801062E-01
   7141.00  5.8575741E-01
   7141.33  5.8306999E-01
   7141.67  5.7969575E-01
   7142.00  5.7533288E-01
   7142.33  5.6947588E-01
   7142.67  5.6205381E-01
   7143.00  5.5301669E-01
   7143.33  5.4235103E-01
   7143.67  5.3061730E-01
   7144.00  5.1823770E-01
   7144.33  5.0570861E-01
   7144.67  4.9350812E-01
   7145.00  4.8195522E-01
   7145.33  4.7144092E-01
   7145.67  4.6204598E-01
   7146.00  4.5390334E-01
   7146.33  4.4732442E-01
   7146.67  4.4224899E-01
   7147.00  4.3871841E-01
   7147.33  4.3682589E-01
   7147.67  4.3610377E-01
   7148.00  4.3617081E-01
   7148.33  4.3657548E-01
   7148.67  4.3686814E-01
   7149.00  4.3681973E-01
   7149.33  4.3625891E-01
   7149.67  4.3524246E-01
   7150.00  4.3381005E-01
   7150.33  4.3196218E-01
   7150.67  4.2977388E-01
   7151.00  4.2725589E-01
   7151.33  4.2437699E-01
   7151.67  4.2119517E-01
   7152.00  4.1773261E-01
   7152.33  4.1398434E-01
   7152.67  4.1000016E-01
   7153.00  4.0578190E-01
   7153.33  4.0128101E-01
   7153.67  3.9649942E-01
   7154.00  3.9141297E-01
   7154.33  3.8597179E-01
   7154.67  3.8024463E-01
   7155.00  3.7430167E-01
   7155.33  3.6826546E-01
   7155.67  3.6231574E-01
   7156.00  3.5660661E-01
   7156.33  3.5134931E-01
   7156.67  3.4661029E-01
   7157.00  3.4244447E-01
   7157.33  3.3893765E-01
   7157.67  3.3598597E-01
   7158.00  3.3354098E-01
   7158.33  3.3159068E-01
   7158.67  3.3001576E-01
   7159.00  3.2877110E-01
   7159.33  3.2786056E-01
   7159.67  3.2723810E-01
   7160.00  3.2691490E-01
   7160.33  3.2696774E-01
   7160.67  3.2740859E-01
   7161.00  3.2829200E-01
   7161.33  3.2974408E-01
   7161.67  3.3176037E-01
   7162.00  3.3438270E-01
   7162.33  3.3772686E-01
   7162.67  3.4172838E-01
   7163.00  3.4637629E-01
   7163.33  3.5170634E-01
   7163.67  3.5758050E-01
   7164.00  3.6392887E-01
   7164.33  3.7070397E-01
   7164.67  3.7775785E-01
   7165.00  3.8500699E-01
   7165.33  3.9237882E-01
   7165.67  3.9979011E-01
   7166.00  4.0719623E-01
   7166.33  4.1455842E-01
   7166.67  4.2186449E-01
   7167.00  4.2910947E-01
   7167.33  4.3628658E-01
   7167.67  4.4340496E-01
   7168.00  4.5046230E-01
   7168.33  4.5743892E-01
   7168.67  4.6432145E-01
   7169.00  4.7108113E-01
   7169.33  4.7765497E-01
   7169.67  4.8401444E-01
   7170.00  4.9011428E-01
   7170.33  4.9586178E-01
   7170.67  5.0124107E-01
   7171.00  5.0619976E-01
   7171.33  5.1059653E-01
   7171.67  5.1437347E-01
   7172.00  5.1738883E-01
