    FDMNES
    energy     <xanes>
   7097.00  4.5119605E-03
   7097.33  4.6143488E-03
   7097.67  4.7214104E-03
   7098.00  4.8334783E-03
   7098.33  4.9516638E-03
   7098.67  5.0757719E-03
   7099.00  5.2062667E-03
   7099.33  5.3446297E-03
   7099.67  5.4906763E-03
   7100.00  5.6450736E-03
   7100.33  5.8098585E-03
   7100.67  5.9848917E-03
   7101.00  6.1711670E-03
   7101.33  6.3715890E-03
   7101.67  6.5861404E-03
   7102.00  6.8163661E-03
   7102.33  7.0665926E-03
   7102.67  7.3370959E-03
   7103.00  7.6304026E-03
   7103.33  7.9533091E-03
   7103.67  8.3067820E-03
   7104.00  8.6952194E-03
   7104.33  9.1300235E-03
   7104.67  9.6138364E-03
   7105.00  1.0154934E-02
   7105.33  1.0774118E-02
   7105.67  1.1478372E-02
   7106.00  1.2284931E-02
   7106.33  1.3236155E-02
   7106.67  1.4351586E-02
   7107.00  1.5672369E-02
   7107.33  1.7298907E-02
   7107.67  1.9293577E-02
   7108.00  2.1775892E-02
   7108.33  2.5043152E-02
   7108.67  2.9346537E-02
   7109.00  3.5155054E-02
   7109.33  4.3720323E-02
   7109.67  5.6536203E-02
   7110.00  7.6544668E-02
   7110.33  1.1234901E-01
   7110.67  1.7358931E-01
   7111.00  2.6191869E-01
   7111.33  3.3127578E-01
   7111.67  3.4541043E-01
   7112.00  3.3661571E-01
   7112.33  3.2677390E-01
   7112.67  2.8613478E-01
   7113.00  2.1872103E-01
   7113.33  1.6123794E-01
   7113.67  1.2192197E-01
   7114.00  9.6489921E-02
   7114.33  8.0893228E-02
   7114.67  7.0533848E-02
   7115.00  6.3037527E-02
   7115.33  5.7393901E-02
   7115.67  5.3212217E-02
   7116.00  5.0523491E-02
   7116.33  4.8736812E-02
   7116.67  4.6399095E-02
   7117.00  4.3616246E-02
   7117.33  4.1457179E-02
   7117.67  4.0263785E-02
   7118.00  3.9969486E-02
   7118.33  4.0488507E-02
   7118.67  4.1585157E-02
   7119.00  4.3188026E-02
   7119.33  4.5373284E-02
   7119.67  4.8216427E-02
   7120.00  5.1925879E-02
   7120.33  5.6965114E-02
   7120.67  6.3646069E-02
   7121.00  7.2583620E-02
   7121.33  8.5066476E-02
   7121.67  1.0117757E-01
   7122.00  1.2000034E-01
   7122.33  1.3839612E-01
   7122.67  1.5461806E-01
   7123.00  1.7036611E-01
   7123.33  1.8804762E-01
   7123.67  2.0752283E-01
   7124.00  2.2796353E-01
   7124.33  2.4851374E-01
   7124.67  2.6889153E-01
   7125.00  2.8868188E-01
   7125.33  3.0568071E-01
   7125.67  3.1816528E-01
   7126.00  3.2657931E-01
   7126.33  3.3425085E-01
   7126.67  3.4509358E-01
   7127.00  3.6105501E-01
   7127.33  3.8345763E-01
   7127.67  4.1044126E-01
   7128.00  4.3925927E-01
   7128.33  4.6769272E-01
   7128.67  4.9851421E-01
   7129.00  5.3569114E-01
   7129.33  5.8325726E-01
   7129.67  6.4017272E-01
   7130.00  7.0425566E-01
   7130.33  7.7062192E-01
   7130.67  8.3163403E-01
   7131.00  8.8034739E-01
   7131.33  9.0810484E-01
   7131.67  9.1566243E-01
   7132.00  9.0694194E-01
   7132.33  8.9059963E-01
   7132.67  8.7719893E-01
   7133.00  8.7122698E-01
   7133.33  8.7379868E-01
   7133.67  8.8110695E-01
   7134.00  8.8982649E-01
   7134.33  8.9574394E-01
   7134.67  8.9681381E-01
   7135.00  8.9327925E-01
   7135.33  8.8693552E-01
   7135.67  8.8029316E-01
   7136.00  8.7445081E-01
   7136.33  8.6979145E-01
   7136.67  8.6559372E-01
   7137.00  8.6096140E-01
   7137.33  8.5455149E-01
   7137.67  8.4564133E-01
   7138.00  8.3381921E-01
   7138.33  8.1877916E-01
   7138.67  8.0143403E-01
   7139.00  7.8252246E-01
   7139.33  7.6292678E-01
   7139.67  7.4360449E-01
   7140.00  7.2515727E-01
   7140.33  7.0823509E-01
   7140.67  6.9293002E-01
   7141.00  6.7933413E-01
   7141.33  6.6769095E-01
   7141.67  6.5776581E-01
   7142.00  6.4951335E-01
   7142.33  6.4308698E-01
   7142.67  6.3824854E-01
   7143.00  6.3496167E-01
   7143.33  6.3332254E-01
   7143.67  6.3296801E-01
   7144.00  6.3363743E-01
   7144.33  6.3496236E-01
   7144.67  6.3631305E-01
   7145.00  6.3717955E-01
   7145.33  6.3689739E-01
   7145.67  6.3520287E-01
   7146.00  6.3191050E-01
   7146.33  6.2676728E-01
   7146.67  6.2007527E-01
   7147.00  6.1199393E-01
   7147.33  6.0261264E-01
   7147.67  5.9233295E-01
   7148.00  5.8138122E-01
   7148.33  5.6997307E-01
   7148.67  5.5841654E-01
   7149.00  5.4689873E-01
   7149.33  5.3561410E-01
   7149.67  5.2465963E-01
   7150.00  5.1411666E-01
   7150.33  5.0411307E-01
   7150.67  4.9462802E-01
   7151.00  4.8567342E-01
   7151.33  4.7730288E-01
   7151.67  4.6941534E-01
   7152.00  4.6196515E-01
   7152.33  4.5493429E-01
   7152.67  4.4819363E-01
   7153.00  4.4166279E-01
   7153.33  4.3527006E-01
   7153.67  4.2893140E-01
   7154.00  4.2260278E-01
   7154.33  4.1622730E-01
   7154.67  4.0975358E-01
   7155.00  4.0312928E-01
   7155.33  3.9625937E-01
   7155.67  3.8909808E-01
   7156.00  3.8158504E-01
   7156.33  3.7361445E-01
   7156.67  3.6520843E-01
   7157.00  3.5636823E-01
   7157.33  3.4707935E-01
   7157.67  3.3746516E-01
   7158.00  3.2761823E-01
   7158.33  3.1766238E-01
   7158.67  3.0776222E-01
   7159.00  2.9805138E-01
   7159.33  2.8872063E-01
   7159.67  2.7986233E-01
   7160.00  2.7157868E-01
   7160.33  2.6405742E-01
   7160.67  2.5730198E-01
   7161.00  2.5137773E-01
   7161.33  2.4646046E-01
   7161.67  2.4248492E-01
   7162.00  2.3947094E-01
   7162.33  2.3753257E-01
   7162.67  2.3651996E-01
   7163.00  2.3639403E-01
   7163.33  2.3719970E-01
   7163.67  2.3876595E-01
   7164.00  2.4103273E-01
   7164.33  2.4401311E-01
   7164.67  2.4757071E-01
   7165.00  2.5166516E-01
   7165.33  2.5632070E-01
   7165.67  2.6144311E-01
   7166.00  2.6700712E-01
   7166.33  2.7303685E-01
   7166.67  2.7945401E-01
   7167.00  2.8623451E-01
   7167.33  2.9339222E-01
   7167.67  3.0086081E-01
   7168.00  3.0862265E-01
   7168.33  3.1669440E-01
   7168.67  3.2502286E-01
   7169.00  3.3358669E-01
   7169.33  3.4237433E-01
   7169.67  3.5130552E-01
   7170.00  3.6031267E-01
   7170.33  3.6928631E-01
   7170.67  3.7809144E-01
   7171.00  3.8657648E-01
   7171.33  3.9443483E-01
   7171.67  4.0138003E-01
   7172.00  4.0699431E-01
