    FDMNES
    energy     <xanes>
   7097.00  4.5589722E-03
   7097.33  4.6590973E-03
   7097.67  4.7634210E-03
   7098.00  4.8722114E-03
   7098.33  4.9864140E-03
   7098.67  5.1058095E-03
   7099.00  5.2307596E-03
   7099.33  5.3624857E-03
   7099.67  5.5007595E-03
   7100.00  5.6460827E-03
   7100.33  5.8000741E-03
   7100.67  5.9625132E-03
   7101.00  6.1341181E-03
   7101.33  6.3171019E-03
   7101.67  6.5112900E-03
   7102.00  6.7177489E-03
   7102.33  6.9396212E-03
   7102.67  7.1768621E-03
   7103.00  7.4311304E-03
   7103.33  7.7070986E-03
   7103.67  8.0050459E-03
   7104.00  8.3276997E-03
   7104.33  8.6824221E-03
   7104.67  9.0702810E-03
   7105.00  9.4960885E-03
   7105.33  9.9723371E-03
   7105.67  1.0502092E-02
   7106.00  1.1094655E-02
   7106.33  1.1773419E-02
   7106.67  1.2546959E-02
   7107.00  1.3435646E-02
   7107.33  1.4489707E-02
   7107.67  1.5735344E-02
   7108.00  1.7225983E-02
   7108.33  1.9094019E-02
   7108.67  2.1437350E-02
   7109.00  2.4442498E-02
   7109.33  2.8598440E-02
   7109.67  3.4437306E-02
   7110.00  4.3000551E-02
   7110.33  5.7243916E-02
   7110.67  8.0029934E-02
   7111.00  1.1104151E-01
   7111.33  1.4090461E-01
   7111.67  1.6818732E-01
   7112.00  1.9825513E-01
   7112.33  2.4565405E-01
   7112.67  3.0406235E-01
   7113.00  3.3945877E-01
   7113.33  3.1305209E-01
   7113.67  2.4577305E-01
   7114.00  1.7917645E-01
   7114.33  1.3544076E-01
   7114.67  1.0822995E-01
   7115.00  9.1891174E-02
   7115.33  8.2798412E-02
   7115.67  7.7646246E-02
   7116.00  7.5212698E-02
   7116.33  7.5061008E-02
   7116.67  7.6828899E-02
   7117.00  8.0613673E-02
   7117.33  8.6798452E-02
   7117.67  9.5233590E-02
   7118.00  1.0603634E-01
   7118.33  1.1964097E-01
   7118.67  1.3576182E-01
   7119.00  1.5426882E-01
   7119.33  1.7503498E-01
   7119.67  1.9721964E-01
   7120.00  2.2021540E-01
   7120.33  2.4324182E-01
   7120.67  2.6537205E-01
   7121.00  2.8563450E-01
   7121.33  3.0240483E-01
   7121.67  3.1521312E-01
   7122.00  3.2412485E-01
   7122.33  3.2999289E-01
   7122.67  3.3507061E-01
   7123.00  3.4102474E-01
   7123.33  3.4966388E-01
   7123.67  3.6156499E-01
   7124.00  3.7696221E-01
   7124.33  3.9600249E-01
   7124.67  4.1760103E-01
   7125.00  4.4093850E-01
   7125.33  4.6494631E-01
   7125.67  4.8822323E-01
   7126.00  5.0943233E-01
   7126.33  5.2634135E-01
   7126.67  5.3803659E-01
   7127.00  5.4419736E-01
   7127.33  5.4487131E-01
   7127.67  5.4178846E-01
   7128.00  5.3587324E-01
   7128.33  5.2779249E-01
   7128.67  5.1857202E-01
   7129.00  5.0889344E-01
   7129.33  4.9969306E-01
   7129.67  4.9178900E-01
   7130.00  4.8578304E-01
   7130.33  4.8247250E-01
   7130.67  4.8193376E-01
   7131.00  4.8445452E-01
   7131.33  4.9066117E-01
   7131.67  4.9998656E-01
   7132.00  5.1185638E-01
   7132.33  5.2552192E-01
   7132.67  5.4011363E-01
   7133.00  5.5557091E-01
   7133.33  5.7234870E-01
   7133.67  5.9037969E-01
   7134.00  6.0911983E-01
   7134.33  6.2726883E-01
   7134.67  6.4367077E-01
   7135.00  6.5768261E-01
   7135.33  6.6875140E-01
   7135.67  6.7739099E-01
   7136.00  6.8395930E-01
   7136.33  6.8878356E-01
   7136.67  6.9258027E-01
   7137.00  6.9573341E-01
   7137.33  6.9853651E-01
   7137.67  7.0122780E-01
   7138.00  7.0388028E-01
   7138.33  7.0648016E-01
   7138.67  7.0895046E-01
   7139.00  7.1118016E-01
   7139.33  7.1296511E-01
   7139.67  7.1419199E-01
   7140.00  7.1472803E-01
   7140.33  7.1433820E-01
   7140.67  7.1303331E-01
   7141.00  7.1077862E-01
   7141.33  7.0747369E-01
   7141.67  7.0328616E-01
   7142.00  6.9826926E-01
   7142.33  6.9242459E-01
   7142.67  6.8598082E-01
   7143.00  6.7908115E-01
   7143.33  6.7187374E-01
   7143.67  6.6457735E-01
   7144.00  6.5734140E-01
   7144.33  6.5034390E-01
   7144.67  6.4367614E-01
   7145.00  6.3740716E-01
   7145.33  6.3163252E-01
   7145.67  6.2630140E-01
   7146.00  6.2139401E-01
   7146.33  6.1690538E-01
   7146.67  6.1271785E-01
   7147.00  6.0876472E-01
   7147.33  6.0498848E-01
   7147.67  6.0129954E-01
   7148.00  5.9764763E-01
   7148.33  5.9398681E-01
   7148.67  5.9028857E-01
   7149.00  5.8653901E-01
   7149.33  5.8272614E-01
   7149.67  5.7886190E-01
   7150.00  5.7495630E-01
   7150.33  5.7102104E-01
   7150.67  5.6707703E-01
   7151.00  5.6314013E-01
   7151.33  5.5922537E-01
   7151.67  5.5533504E-01
   7152.00  5.5146742E-01
   7152.33  5.4761566E-01
   7152.67  5.4376193E-01
   7153.00  5.3988483E-01
   7153.33  5.3594337E-01
   7153.67  5.3190176E-01
   7154.00  5.2771802E-01
   7154.33  5.2331504E-01
   7154.67  5.1866309E-01
   7155.00  5.1371706E-01
   7155.33  5.0838525E-01
   7155.67  5.0266967E-01
   7156.00  4.9654512E-01
   7156.33  4.8994404E-01
   7156.67  4.8292395E-01
   7157.00  4.7550628E-01
   7157.33  4.6769364E-01
   7157.67  4.5959925E-01
   7158.00  4.5129883E-01
   7158.33  4.4288224E-01
   7158.67  4.3447575E-01
   7159.00  4.2618081E-01
   7159.33  4.1814308E-01
   7159.67  4.1044326E-01
   7160.00  4.0316453E-01
   7160.33  3.9645155E-01
   7160.67  3.9030645E-01
   7161.00  3.8477111E-01
   7161.33  3.7995465E-01
   7161.67  3.7578584E-01
   7162.00  3.7226133E-01
   7162.33  3.6944484E-01
   7162.67  3.6723033E-01
   7163.00  3.6558234E-01
   7163.33  3.6450746E-01
   7163.67  3.6388171E-01
   7164.00  3.6365468E-01
   7164.33  3.6380815E-01
   7164.67  3.6423914E-01
   7165.00  3.6489673E-01
   7165.33  3.6574580E-01
   7165.67  3.6671369E-01
   7166.00  3.6776126E-01
   7166.33  3.6885419E-01
   7166.67  3.6995525E-01
   7167.00  3.7104320E-01
   7167.33  3.7209699E-01
   7167.67  3.7311073E-01
   7168.00  3.7408108E-01
   7168.33  3.7500357E-01
   7168.67  3.7588858E-01
   7169.00  3.7674274E-01
   7169.33  3.7757230E-01
   7169.67  3.7838855E-01
   7170.00  3.7919708E-01
   7170.33  3.8000089E-01
   7170.67  3.8079934E-01
   7171.00  3.8158577E-01
   7171.33  3.8233777E-01
   7171.67  3.8301985E-01
   7172.00  3.8357752E-01
