    FDMNES
    energy     <xanes>
   7097.00  4.7924937E-03
   7097.33  4.9037353E-03
   7097.67  5.0200367E-03
   7098.00  5.1417483E-03
   7098.33  5.2700547E-03
   7098.67  5.4047288E-03
   7099.00  5.5462522E-03
   7099.33  5.6961872E-03
   7099.67  5.8543074E-03
   7100.00  6.0212949E-03
   7100.33  6.1992675E-03
   7100.67  6.3880292E-03
   7101.00  6.5885777E-03
   7101.33  6.8038810E-03
   7101.67  7.0338379E-03
   7102.00  7.2799662E-03
   7102.33  7.5465947E-03
   7102.67  7.8338598E-03
   7103.00  8.1441827E-03
   7103.33  8.4841922E-03
   7103.67  8.8545903E-03
   7104.00  9.2594706E-03
   7104.33  9.7096204E-03
   7104.67  1.0207105E-02
   7105.00  1.0759373E-02
   7105.33  1.1385402E-02
   7105.67  1.2090735E-02
   7106.00  1.2890291E-02
   7106.33  1.3821098E-02
   7106.67  1.4898509E-02
   7107.00  1.6156602E-02
   7107.33  1.7678884E-02
   7107.67  1.9513190E-02
   7108.00  2.1753733E-02
   7108.33  2.4634467E-02
   7108.67  2.8341916E-02
   7109.00  3.3227697E-02
   7109.33  4.0224489E-02
   7109.67  5.0408509E-02
   7110.00  6.5895463E-02
   7110.33  9.2752195E-02
   7110.67  1.3683653E-01
   7111.00  1.9647744E-01
   7111.33  2.4769145E-01
   7111.67  2.8133334E-01
   7112.00  3.0580852E-01
   7112.33  3.2555149E-01
   7112.67  3.3420280E-01
   7113.00  3.3706563E-01
   7113.33  3.3704672E-01
   7113.67  3.1998547E-01
   7114.00  2.8079950E-01
   7114.33  2.3087847E-01
   7114.67  1.8621974E-01
   7115.00  1.5167268E-01
   7115.33  1.2760866E-01
   7115.67  1.1037000E-01
   7116.00  9.8282092E-02
   7116.33  9.0580131E-02
   7116.67  8.5876519E-02
   7117.00  8.3514008E-02
   7117.33  8.3028670E-02
   7117.67  8.3620578E-02
   7118.00  8.4911499E-02
   7118.33  8.6798272E-02
   7118.67  8.9261110E-02
   7119.00  9.2303805E-02
   7119.33  9.5619444E-02
   7119.67  9.8469910E-02
   7120.00  1.0050886E-01
   7120.33  1.0236676E-01
   7120.67  1.0546086E-01
   7121.00  1.1073913E-01
   7121.33  1.1900277E-01
   7121.67  1.3005375E-01
   7122.00  1.4399797E-01
   7122.33  1.6136021E-01
   7122.67  1.8165641E-01
   7123.00  2.0426518E-01
   7123.33  2.2758575E-01
   7123.67  2.4932136E-01
   7124.00  2.6834123E-01
   7124.33  2.8484505E-01
   7124.67  3.0079604E-01
   7125.00  3.1757128E-01
   7125.33  3.3593746E-01
   7125.67  3.5521558E-01
   7126.00  3.7493034E-01
   7126.33  3.9565832E-01
   7126.67  4.1866932E-01
   7127.00  4.4484170E-01
   7127.33  4.7409576E-01
   7127.67  5.0395476E-01
   7128.00  5.3177954E-01
   7128.33  5.5450084E-01
   7128.67  5.7246189E-01
   7129.00  5.8754209E-01
   7129.33  6.0298504E-01
   7129.67  6.2138999E-01
   7130.00  6.4370693E-01
   7130.33  6.6926337E-01
   7130.67  6.9450548E-01
   7131.00  7.1585965E-01
   7131.33  7.2895300E-01
   7131.67  7.3358246E-01
   7132.00  7.3129660E-01
   7132.33  7.2598526E-01
   7132.67  7.2286960E-01
   7133.00  7.2483563E-01
   7133.33  7.3320773E-01
   7133.67  7.4516855E-01
   7134.00  7.5793870E-01
   7134.33  7.6896845E-01
   7134.67  7.7787197E-01
   7135.00  7.8491863E-01
   7135.33  7.9033257E-01
   7135.67  7.9469446E-01
   7136.00  7.9822077E-01
   7136.33  8.0057924E-01
   7136.67  8.0122377E-01
   7137.00  7.9955654E-01
   7137.33  7.9504812E-01
   7137.67  7.8846831E-01
   7138.00  7.8056467E-01
   7138.33  7.7223362E-01
   7138.67  7.6426804E-01
   7139.00  7.5701901E-01
   7139.33  7.5056992E-01
   7139.67  7.4434737E-01
   7140.00  7.3757819E-01
   7140.33  7.2889673E-01
   7140.67  7.1746532E-01
   7141.00  7.0285832E-01
   7141.33  6.8516428E-01
   7141.67  6.6611516E-01
   7142.00  6.4724435E-01
   7142.33  6.3025817E-01
   7142.67  6.1568430E-01
   7143.00  6.0350163E-01
   7143.33  5.9339797E-01
   7143.67  5.8440201E-01
   7144.00  5.7596537E-01
   7144.33  5.6771934E-01
   7144.67  5.5952540E-01
   7145.00  5.5143909E-01
   7145.33  5.4364460E-01
   7145.67  5.3627759E-01
   7146.00  5.2945481E-01
   7146.33  5.2333184E-01
   7146.67  5.1783782E-01
   7147.00  5.1292586E-01
   7147.33  5.0855503E-01
   7147.67  5.0454704E-01
   7148.00  5.0081513E-01
   7148.33  4.9732212E-01
   7148.67  4.9402022E-01
   7149.00  4.9092361E-01
   7149.33  4.8811053E-01
   7149.67  4.8560983E-01
   7150.00  4.8346792E-01
   7150.33  4.8176598E-01
   7150.67  4.8045590E-01
   7151.00  4.7951308E-01
   7151.33  4.7892696E-01
   7151.67  4.7859845E-01
   7152.00  4.7848198E-01
   7152.33  4.7856781E-01
   7152.67  4.7883404E-01
   7153.00  4.7931040E-01
   7153.33  4.8009631E-01
   7153.67  4.8124291E-01
   7154.00  4.8282691E-01
   7154.33  4.8498911E-01
   7154.67  4.8771058E-01
   7155.00  4.9099278E-01
   7155.33  4.9484702E-01
   7155.67  4.9909430E-01
   7156.00  5.0358590E-01
   7156.33  5.0810074E-01
   7156.67  5.1236983E-01
   7157.00  5.1614360E-01
   7157.33  5.1903660E-01
   7157.67  5.2089215E-01
   7158.00  5.2153663E-01
   7158.33  5.2066771E-01
   7158.67  5.1840222E-01
   7159.00  5.1476389E-01
   7159.33  5.0969397E-01
   7159.67  5.0351646E-01
   7160.00  4.9640994E-01
   7160.33  4.8851997E-01
   7160.67  4.8017600E-01
   7161.00  4.7158440E-01
   7161.33  4.6297539E-01
   7161.67  4.5455818E-01
   7162.00  4.4647787E-01
   7162.33  4.3892627E-01
   7162.67  4.3195523E-01
   7163.00  4.2563971E-01
   7163.33  4.2012438E-01
   7163.67  4.1534217E-01
   7164.00  4.1128647E-01
   7164.33  4.0800979E-01
   7164.67  4.0536857E-01
   7165.00  4.0330135E-01
   7165.33  4.0179079E-01
   7165.67  4.0069252E-01
   7166.00  3.9993765E-01
   7166.33  3.9948916E-01
   7166.67  3.9925638E-01
   7167.00  3.9919996E-01
   7167.33  3.9930009E-01
   7167.67  3.9951284E-01
   7168.00  3.9982300E-01
   7168.33  4.0022979E-01
   7168.67  4.0071565E-01
   7169.00  4.0127735E-01
   7169.33  4.0192189E-01
   7169.67  4.0263775E-01
   7170.00  4.0342133E-01
   7170.33  4.0427263E-01
   7170.67  4.0517161E-01
   7171.00  4.0610097E-01
   7171.33  4.0702587E-01
   7171.67  4.0788390E-01
   7172.00  4.0859205E-01
