    FDMNES
    energy     <xanes>
   7097.00  4.5909234E-03
   7097.33  4.7011864E-03
   7097.67  4.8168339E-03
   7098.00  4.9382723E-03
   7098.33  5.0668209E-03
   7098.67  5.2022870E-03
   7099.00  5.3452451E-03
   7099.33  5.4974819E-03
   7099.67  5.6588284E-03
   7100.00  5.8301233E-03
   7100.33  6.0138648E-03
   7100.67  6.2099593E-03
   7101.00  6.4196766E-03
   7101.33  6.6466457E-03
   7101.67  6.8909594E-03
   7102.00  7.1546272E-03
   7102.33  7.4431663E-03
   7102.67  7.7571057E-03
   7103.00  8.0997977E-03
   7103.33  8.4801086E-03
   7103.67  8.8995899E-03
   7104.00  9.3642096E-03
   7104.33  9.8892312E-03
   7104.67  1.0478706E-02
   7105.00  1.1144164E-02
   7105.33  1.1914293E-02
   7105.67  1.2799742E-02
   7106.00  1.3825291E-02
   7106.33  1.5051488E-02
   7106.67  1.6508579E-02
   7107.00  1.8258090E-02
   7107.33  2.0450027E-02
   7107.67  2.3184080E-02
   7108.00  2.6648108E-02
   7108.33  3.1312268E-02
   7108.67  3.7598198E-02
   7109.00  4.6292395E-02
   7109.33  5.9524530E-02
   7109.67  7.9970659E-02
   7110.00  1.1294605E-01
   7110.33  1.7410079E-01
   7110.67  2.7992637E-01
   7111.00  4.2493666E-01
   7111.33  4.9489293E-01
   7111.67  4.2903301E-01
   7112.00  3.2285534E-01
   7112.33  2.5122981E-01
   7112.67  2.0064679E-01
   7113.00  1.6269295E-01
   7113.33  1.3459130E-01
   7113.67  1.1212809E-01
   7114.00  9.4454738E-02
   7114.33  8.2984227E-02
   7114.67  7.6217908E-02
   7115.00  7.0294469E-02
   7115.33  6.2750188E-02
   7115.67  5.6580271E-02
   7116.00  5.2621057E-02
   7116.33  4.9201224E-02
   7116.67  4.5746410E-02
   7117.00  4.3058377E-02
   7117.33  4.1479531E-02
   7117.67  4.0644015E-02
   7118.00  4.0515316E-02
   7118.33  4.1258273E-02
   7118.67  4.2835083E-02
   7119.00  4.5339464E-02
   7119.33  4.9177127E-02
   7119.67  5.4692483E-02
   7120.00  6.2518777E-02
   7120.33  7.3932409E-02
   7120.67  8.9149602E-02
   7121.00  1.0762143E-01
   7121.33  1.2442414E-01
   7121.67  1.3049756E-01
   7122.00  1.2350507E-01
   7122.33  1.1189959E-01
   7122.67  1.0434586E-01
   7123.00  1.0264841E-01
   7123.33  1.0725326E-01
   7123.67  1.1700138E-01
   7124.00  1.3182965E-01
   7124.33  1.5267993E-01
   7124.67  1.7924484E-01
   7125.00  2.1152940E-01
   7125.33  2.4911821E-01
   7125.67  2.8838418E-01
   7126.00  3.2431269E-01
   7126.33  3.4901869E-01
   7126.67  3.6252499E-01
   7127.00  3.6793927E-01
   7127.33  3.6745508E-01
   7127.67  3.6487548E-01
   7128.00  3.6457708E-01
   7128.33  3.7114514E-01
   7128.67  3.8441841E-01
   7129.00  4.0372765E-01
   7129.33  4.2935372E-01
   7129.67  4.6034628E-01
   7130.00  4.9618575E-01
   7130.33  5.3649053E-01
   7130.67  5.7994342E-01
   7131.00  6.2612237E-01
   7131.33  6.7528504E-01
   7131.67  7.2682118E-01
   7132.00  7.7836251E-01
   7132.33  8.1937697E-01
   7132.67  8.3868274E-01
   7133.00  8.3772626E-01
   7133.33  8.3289851E-01
   7133.67  8.3768864E-01
   7134.00  8.5627428E-01
   7134.33  8.9390598E-01
   7134.67  9.5322593E-01
   7135.00  1.0390404E+00
   7135.33  1.1543370E+00
   7135.67  1.2713589E+00
   7136.00  1.3388821E+00
   7136.33  1.2940568E+00
   7136.67  1.1759703E+00
   7137.00  1.0403506E+00
   7137.33  9.2711611E-01
   7137.67  8.4005496E-01
   7138.00  7.7504185E-01
   7138.33  7.2809742E-01
   7138.67  6.9258397E-01
   7139.00  6.6577951E-01
   7139.33  6.4640530E-01
   7139.67  6.3230908E-01
   7140.00  6.2276431E-01
   7140.33  6.1774148E-01
   7140.67  6.1643711E-01
   7141.00  6.1871669E-01
   7141.33  6.2494813E-01
   7141.67  6.3465239E-01
   7142.00  6.4776103E-01
   7142.33  6.6445706E-01
   7142.67  6.8386660E-01
   7143.00  7.0529986E-01
   7143.33  7.2760598E-01
   7143.67  7.4887317E-01
   7144.00  7.6717938E-01
   7144.33  7.7956737E-01
   7144.67  7.8491519E-01
   7145.00  7.8256328E-01
   7145.33  7.7209506E-01
   7145.67  7.5602848E-01
   7146.00  7.3622529E-01
   7146.33  7.1464033E-01
   7146.67  6.9320072E-01
   7147.00  6.7292081E-01
   7147.33  6.5469220E-01
   7147.67  6.3849043E-01
   7148.00  6.2423881E-01
   7148.33  6.1189929E-01
   7148.67  6.0092186E-01
   7149.00  5.9099588E-01
   7149.33  5.8186111E-01
   7149.67  5.7311662E-01
   7150.00  5.6453350E-01
   7150.33  5.5588649E-01
   7150.67  5.4701449E-01
   7151.00  5.3780746E-01
   7151.33  5.2810748E-01
   7151.67  5.1788379E-01
   7152.00  5.0708052E-01
   7152.33  4.9557044E-01
   7152.67  4.8338553E-01
   7153.00  4.7049295E-01
   7153.33  4.5678451E-01
   7153.67  4.4237352E-01
   7154.00  4.2733601E-01
   7154.33  4.1177710E-01
   7154.67  3.9596218E-01
   7155.00  3.8009843E-01
   7155.33  3.6449014E-01
   7155.67  3.4940129E-01
   7156.00  3.3507372E-01
   7156.33  3.2187714E-01
   7156.67  3.0987098E-01
   7157.00  2.9916030E-01
   7157.33  2.8997304E-01
   7157.67  2.8213753E-01
   7158.00  2.7561326E-01
   7158.33  2.7047648E-01
   7158.67  2.6647689E-01
   7159.00  2.6352753E-01
   7159.33  2.6164906E-01
   7159.67  2.6063229E-01
   7160.00  2.6040874E-01
   7160.33  2.6100240E-01
   7160.67  2.6227056E-01
   7161.00  2.6417989E-01
   7161.33  2.6677859E-01
   7161.67  2.6996866E-01
   7162.00  2.7373745E-01
   7162.33  2.7814498E-01
   7162.67  2.8310275E-01
   7163.00  2.8858053E-01
   7163.33  2.9456861E-01
   7163.67  3.0089606E-01
   7164.00  3.0742017E-01
   7164.33  3.1392638E-01
   7164.67  3.2017801E-01
   7165.00  3.2597907E-01
   7165.33  3.3107249E-01
   7165.67  3.3544014E-01
   7166.00  3.3907195E-01
   7166.33  3.4194890E-01
   7166.67  3.4427812E-01
   7167.00  3.4618928E-01
   7167.33  3.4780603E-01
   7167.67  3.4930781E-01
   7168.00  3.5080245E-01
   7168.33  3.5240139E-01
   7168.67  3.5416739E-01
   7169.00  3.5614501E-01
   7169.33  3.5839505E-01
   7169.67  3.6089641E-01
   7170.00  3.6364126E-01
   7170.33  3.6662876E-01
   7170.67  3.6978109E-01
   7171.00  3.7303032E-01
   7171.33  3.7624812E-01
   7171.67  3.7922847E-01
   7172.00  3.8171019E-01
