    FDMNES
    energy     <xanes>
   7097.00  3.7763930E-03
   7097.33  3.8476799E-03
   7097.67  3.9215922E-03
   7098.00  3.9982812E-03
   7098.33  4.0783108E-03
   7098.67  4.1615221E-03
   7099.00  4.2481144E-03
   7099.33  4.3387980E-03
   7099.67  4.4334019E-03
   7100.00  4.5321948E-03
   7100.33  4.6360913E-03
   7100.67  4.7449135E-03
   7101.00  4.8590333E-03
   7101.33  4.9796594E-03
   7101.67  5.1066189E-03
   7102.00  5.2404432E-03
   7102.33  5.3827802E-03
   7102.67  5.5334895E-03
   7103.00  5.6933592E-03
   7103.33  5.8647219E-03
   7103.67  6.0475312E-03
   7104.00  6.2430098E-03
   7104.33  6.4546155E-03
   7104.67  6.6825362E-03
   7105.00  6.9287774E-03
   7105.33  7.1987691E-03
   7105.67  7.4932719E-03
   7106.00  7.8158154E-03
   7106.33  8.1755849E-03
   7106.67  8.5747961E-03
   7107.00  9.0202645E-03
   7107.33  9.5291600E-03
   7107.67  1.0107754E-02
   7108.00  1.0771019E-02
   7108.33  1.1555965E-02
   7108.67  1.2482137E-02
   7109.00  1.3589475E-02
   7109.33  1.4977653E-02
   7109.67  1.6723329E-02
   7110.00  1.8973800E-02
   7110.33  2.2121906E-02
   7110.67  2.6603769E-02
   7111.00  3.3206380E-02
   7111.33  4.4035368E-02
   7111.67  6.0353261E-02
   7112.00  7.8079587E-02
   7112.33  8.9597293E-02
   7112.67  1.0944399E-01
   7113.00  1.4693965E-01
   7113.33  1.9542567E-01
   7113.67  2.1521760E-01
   7114.00  1.9641946E-01
   7114.33  1.7755564E-01
   7114.67  1.7313409E-01
   7115.00  1.7884376E-01
   7115.33  1.8737719E-01
   7115.67  1.8857068E-01
   7116.00  1.7578787E-01
   7116.33  1.5448815E-01
   7116.67  1.3204778E-01
   7117.00  1.1102915E-01
   7117.33  9.4232349E-02
   7117.67  8.1778131E-02
   7118.00  7.2948257E-02
   7118.33  6.7210721E-02
   7118.67  6.3609880E-02
   7119.00  6.1809953E-02
   7119.33  6.1780558E-02
   7119.67  6.3101707E-02
   7120.00  6.5382950E-02
   7120.33  6.7840672E-02
   7120.67  7.0288515E-02
   7121.00  7.3844637E-02
   7121.33  7.9700004E-02
   7121.67  8.7518178E-02
   7122.00  9.6538059E-02
   7122.33  1.0613696E-01
   7122.67  1.1688005E-01
   7123.00  1.2926865E-01
   7123.33  1.4305732E-01
   7123.67  1.5667383E-01
   7124.00  1.6825023E-01
   7124.33  1.7599369E-01
   7124.67  1.8071298E-01
   7125.00  1.8347645E-01
   7125.33  1.8671410E-01
   7125.67  1.9263986E-01
   7126.00  2.0172087E-01
   7126.33  2.1387872E-01
   7126.67  2.2816354E-01
   7127.00  2.4395458E-01
   7127.33  2.6043420E-01
   7127.67  2.7663884E-01
   7128.00  2.9204609E-01
   7128.33  3.0632040E-01
   7128.67  3.1977976E-01
   7129.00  3.3290853E-01
   7129.33  3.4666853E-01
   7129.67  3.6195927E-01
   7130.00  3.7937371E-01
   7130.33  3.9941291E-01
   7130.67  4.2153699E-01
   7131.00  4.4530315E-01
   7131.33  4.7016975E-01
   7131.67  4.9528863E-01
   7132.00  5.2009122E-01
   7132.33  5.4381117E-01
   7132.67  5.6550884E-01
   7133.00  5.8395044E-01
   7133.33  5.9776968E-01
   7133.67  6.0764080E-01
   7134.00  6.1419677E-01
   7134.33  6.1825575E-01
   7134.67  6.2139161E-01
   7135.00  6.2465077E-01
   7135.33  6.2910286E-01
   7135.67  6.3514192E-01
   7136.00  6.4284732E-01
   7136.33  6.5203326E-01
   7136.67  6.6198149E-01
   7137.00  6.7227804E-01
   7137.33  6.8248483E-01
   7137.67  6.9219923E-01
   7138.00  7.0108503E-01
   7138.33  7.0867836E-01
   7138.67  7.1487072E-01
   7139.00  7.1941331E-01
   7139.33  7.2183768E-01
   7139.67  7.2229644E-01
   7140.00  7.2086334E-01
   7140.33  7.1758630E-01
   7140.67  7.1308141E-01
   7141.00  7.0779044E-01
   7141.33  7.0220503E-01
   7141.67  6.9678248E-01
   7142.00  6.9176885E-01
   7142.33  6.8738844E-01
   7142.67  6.8359899E-01
   7143.00  6.8035109E-01
   7143.33  6.7760696E-01
   7143.67  6.7523537E-01
   7144.00  6.7322363E-01
   7144.33  6.7168469E-01
   7144.67  6.7068225E-01
   7145.00  6.7031630E-01
   7145.33  6.7072727E-01
   7145.67  6.7177086E-01
   7146.00  6.7330100E-01
   7146.33  6.7509570E-01
   7146.67  6.7684294E-01
   7147.00  6.7831912E-01
   7147.33  6.7926063E-01
   7147.67  6.7959681E-01
   7148.00  6.7927253E-01
   7148.33  6.7818127E-01
   7148.67  6.7640823E-01
   7149.00  6.7397238E-01
   7149.33  6.7084548E-01
   7149.67  6.6717647E-01
   7150.00  6.6304075E-01
   7150.33  6.5848888E-01
   7150.67  6.5366768E-01
   7151.00  6.4866266E-01
   7151.33  6.4355767E-01
   7151.67  6.3845154E-01
   7152.00  6.3341256E-01
   7152.33  6.2852792E-01
   7152.67  6.2383899E-01
   7153.00  6.1938518E-01
   7153.33  6.1523041E-01
   7153.67  6.1135381E-01
   7154.00  6.0775040E-01
   7154.33  6.0442629E-01
   7154.67  6.0130807E-01
   7155.00  5.9835027E-01
   7155.33  5.9550572E-01
   7155.67  5.9270000E-01
   7156.00  5.8988303E-01
   7156.33  5.8699714E-01
   7156.67  5.8401437E-01
   7157.00  5.8091956E-01
   7157.33  5.7769989E-01
   7157.67  5.7438728E-01
   7158.00  5.7100554E-01
   7158.33  5.6757813E-01
   7158.67  5.6413223E-01
   7159.00  5.6067807E-01
   7159.33  5.5721536E-01
   7159.67  5.5373597E-01
   7160.00  5.5022656E-01
   7160.33  5.4665963E-01
   7160.67  5.4301490E-01
   7161.00  5.3926559E-01
   7161.33  5.3535884E-01
   7161.67  5.3127457E-01
   7162.00  5.2698200E-01
   7162.33  5.2242256E-01
   7162.67  5.1761214E-01
   7163.00  5.1255612E-01
   7163.33  5.0725527E-01
   7163.67  5.0178617E-01
   7164.00  4.9620433E-01
   7164.33  4.9057895E-01
   7164.67  4.8499167E-01
   7165.00  4.7950433E-01
   7165.33  4.7419949E-01
   7165.67  4.6910632E-01
   7166.00  4.6425616E-01
   7166.33  4.5970489E-01
   7166.67  4.5542753E-01
   7167.00  4.5142098E-01
   7167.33  4.4770350E-01
   7167.67  4.4422073E-01
   7168.00  4.4094950E-01
   7168.33  4.3788414E-01
   7168.67  4.3497578E-01
   7169.00  4.3220709E-01
   7169.33  4.2958219E-01
   7169.67  4.2708457E-01
   7170.00  4.2472374E-01
   7170.33  4.2254033E-01
   7170.67  4.2054201E-01
   7171.00  4.1875387E-01
   7171.33  4.1723312E-01
   7171.67  4.1597339E-01
   7172.00  4.1498695E-01
