    FDMNES
    energy     <xanes>
   7097.00  5.0340247E-03
   7097.33  5.1576199E-03
   7097.67  5.2870308E-03
   7098.00  5.4226664E-03
   7098.33  5.5658990E-03
   7098.67  5.7164754E-03
   7099.00  5.8749589E-03
   7099.33  6.0431637E-03
   7099.67  6.2208385E-03
   7100.00  6.4087813E-03
   7100.33  6.6094568E-03
   7100.67  6.8226494E-03
   7101.00  7.0495262E-03
   7101.33  7.2935462E-03
   7101.67  7.5546032E-03
   7102.00  7.8344705E-03
   7102.33  8.1381940E-03
   7102.67  8.4659391E-03
   7103.00  8.8205266E-03
   7103.33  9.2096711E-03
   7103.67  9.6341785E-03
   7104.00  1.0098793E-02
   7104.33  1.0616014E-02
   7104.67  1.1188172E-02
   7105.00  1.1823819E-02
   7105.33  1.2544755E-02
   7105.67  1.3357124E-02
   7106.00  1.4277785E-02
   7106.33  1.5348595E-02
   7106.67  1.6586132E-02
   7107.00  1.8027863E-02
   7107.33  1.9765408E-02
   7107.67  2.1848227E-02
   7108.00  2.4374899E-02
   7108.33  2.7587902E-02
   7108.67  3.1665621E-02
   7109.00  3.6943205E-02
   7109.33  4.4285016E-02
   7109.67  5.4586881E-02
   7110.00  6.9571415E-02
   7110.33  9.4149482E-02
   7110.67  1.3458617E-01
   7111.00  1.9930112E-01
   7111.33  2.9311644E-01
   7111.67  3.9101076E-01
   7112.00  4.6662220E-01
   7112.33  4.8614397E-01
   7112.67  4.7604612E-01
   7113.00  4.2506606E-01
   7113.33  3.3333349E-01
   7113.67  2.6048012E-01
   7114.00  2.1885405E-01
   7114.33  1.9943732E-01
   7114.67  1.8182088E-01
   7115.00  1.6062170E-01
   7115.33  1.4425842E-01
   7115.67  1.4061390E-01
   7116.00  1.4981258E-01
   7116.33  1.5786285E-01
   7116.67  1.4661902E-01
   7117.00  1.2287327E-01
   7117.33  1.0318308E-01
   7117.67  9.0908436E-02
   7118.00  8.4628649E-02
   7118.33  8.3155541E-02
   7118.67  8.5022439E-02
   7119.00  8.9854139E-02
   7119.33  9.7554973E-02
   7119.67  1.0676404E-01
   7120.00  1.1586724E-01
   7120.33  1.2339379E-01
   7120.67  1.3068729E-01
   7121.00  1.3984755E-01
   7121.33  1.5286654E-01
   7121.67  1.6936676E-01
   7122.00  1.8839253E-01
   7122.33  2.0826939E-01
   7122.67  2.2719640E-01
   7123.00  2.4449986E-01
   7123.33  2.6086290E-01
   7123.67  2.7885021E-01
   7124.00  3.0145861E-01
   7124.33  3.3343185E-01
   7124.67  3.7630503E-01
   7125.00  4.2945943E-01
   7125.33  4.8594764E-01
   7125.67  5.3089878E-01
   7126.00  5.5307686E-01
   7126.33  5.4910896E-01
   7126.67  5.3309540E-01
   7127.00  5.1530357E-01
   7127.33  5.0370254E-01
   7127.67  5.0038747E-01
   7128.00  5.0531614E-01
   7128.33  5.1737799E-01
   7128.67  5.3267981E-01
   7129.00  5.4876938E-01
   7129.33  5.6415764E-01
   7129.67  5.7847975E-01
   7130.00  5.9126859E-01
   7130.33  6.0127201E-01
   7130.67  6.0787270E-01
   7131.00  6.1100183E-01
   7131.33  6.1161553E-01
   7131.67  6.1213633E-01
   7132.00  6.1421280E-01
   7132.33  6.1891255E-01
   7132.67  6.2540319E-01
   7133.00  6.3273966E-01
   7133.33  6.4020211E-01
   7133.67  6.4776365E-01
   7134.00  6.5564410E-01
   7134.33  6.6413058E-01
   7134.67  6.7367966E-01
   7135.00  6.8514535E-01
   7135.33  6.9999432E-01
   7135.67  7.1856124E-01
   7136.00  7.4100016E-01
   7136.33  7.6750785E-01
   7136.67  7.9695328E-01
   7137.00  8.2824001E-01
   7137.33  8.5904522E-01
   7137.67  8.8588177E-01
   7138.00  9.0503059E-01
   7138.33  9.1115688E-01
   7138.67  9.0403663E-01
   7139.00  8.8496850E-01
   7139.33  8.5727990E-01
   7139.67  8.2724911E-01
   7140.00  7.9865966E-01
   7140.33  7.7463583E-01
   7140.67  7.5550646E-01
   7141.00  7.4099063E-01
   7141.33  7.3052825E-01
   7141.67  7.2230346E-01
   7142.00  7.1512822E-01
   7142.33  7.0788807E-01
   7142.67  6.9999132E-01
   7143.00  6.9136046E-01
   7143.33  6.8222339E-01
   7143.67  6.7311553E-01
   7144.00  6.6446161E-01
   7144.33  6.5678044E-01
   7144.67  6.5024675E-01
   7145.00  6.4499961E-01
   7145.33  6.4125959E-01
   7145.67  6.3880866E-01
   7146.00  6.3752873E-01
   7146.33  6.3731901E-01
   7146.67  6.3775515E-01
   7147.00  6.3850671E-01
   7147.33  6.3910025E-01
   7147.67  6.3906276E-01
   7148.00  6.3799518E-01
   7148.33  6.3534379E-01
   7148.67  6.3105823E-01
   7149.00  6.2512494E-01
   7149.33  6.1758001E-01
   7149.67  6.0900412E-01
   7150.00  5.9982283E-01
   7150.33  5.9051810E-01
   7150.67  5.8150633E-01
   7151.00  5.7300661E-01
   7151.33  5.6518449E-01
   7151.67  5.5790776E-01
   7152.00  5.5105305E-01
   7152.33  5.4447151E-01
   7152.67  5.3796094E-01
   7153.00  5.3140219E-01
   7153.33  5.2467150E-01
   7153.67  5.1772597E-01
   7154.00  5.1055066E-01
   7154.33  5.0314375E-01
   7154.67  4.9559134E-01
   7155.00  4.8796413E-01
   7155.33  4.8035046E-01
   7155.67  4.7282215E-01
   7156.00  4.6542164E-01
   7156.33  4.5818606E-01
   7156.67  4.5108268E-01
   7157.00  4.4407943E-01
   7157.33  4.3713552E-01
   7157.67  4.3020005E-01
   7158.00  4.2324429E-01
   7158.33  4.1624766E-01
   7158.67  4.0922166E-01
   7159.00  4.0218707E-01
   7159.33  3.9518189E-01
   7159.67  3.8824325E-01
   7160.00  3.8140652E-01
   7160.33  3.7472704E-01
   7160.67  3.6822019E-01
   7161.00  3.6191111E-01
   7161.33  3.5585458E-01
   7161.67  3.5004672E-01
   7162.00  3.4450499E-01
   7162.33  3.3928135E-01
   7162.67  3.3435560E-01
   7163.00  3.2973847E-01
   7163.33  3.2547951E-01
   7163.67  3.2154929E-01
   7164.00  3.1795750E-01
   7164.33  3.1475669E-01
   7164.67  3.1191157E-01
   7165.00  3.0943146E-01
   7165.33  3.0737237E-01
   7165.67  3.0569300E-01
   7166.00  3.0439556E-01
   7166.33  3.0352721E-01
   7166.67  3.0303670E-01
   7167.00  3.0291915E-01
   7167.33  3.0321385E-01
   7167.67  3.0386895E-01
   7168.00  3.0487990E-01
   7168.33  3.0628512E-01
   7168.67  3.0803394E-01
   7169.00  3.1011824E-01
   7169.33  3.1256475E-01
   7169.67  3.1531303E-01
   7170.00  3.1833823E-01
   7170.33  3.2162893E-01
   7170.67  3.2509592E-01
   7171.00  3.2866457E-01
   7171.33  3.3219462E-01
   7171.67  3.3545796E-01
   7172.00  3.3815944E-01
