    FDMNES
    energy     <xanes>
   7097.00  4.4423642E-03
   7097.33  4.5405620E-03
   7097.67  4.6429106E-03
   7098.00  4.7496788E-03
   7098.33  4.8618079E-03
   7098.67  4.9790867E-03
   7099.00  5.1018805E-03
   7099.33  5.2314112E-03
   7099.67  5.3674622E-03
   7100.00  5.5105436E-03
   7100.33  5.6622858E-03
   7100.67  5.8224862E-03
   7101.00  5.9918813E-03
   7101.33  6.1727198E-03
   7101.67  6.3648566E-03
   7102.00  6.5693991E-03
   7102.33  6.7895751E-03
   7102.67  7.0253956E-03
   7103.00  7.2786078E-03
   7103.33  7.5540804E-03
   7103.67  7.8522079E-03
   7104.00  8.1759164E-03
   7104.33  8.5330206E-03
   7104.67  8.9248539E-03
   7105.00  9.3566996E-03
   7105.33  9.8421431E-03
   7105.67  1.0384931E-02
   7106.00  1.0995584E-02
   7106.33  1.1700353E-02
   7106.67  1.2509817E-02
   7107.00  1.3447885E-02
   7107.33  1.4573308E-02
   7107.67  1.5919245E-02
   7108.00  1.7551448E-02
   7108.33  1.9633230E-02
   7108.67  2.2293432E-02
   7109.00  2.5775114E-02
   7109.33  3.0721090E-02
   7109.67  3.7864333E-02
   7110.00  4.8642557E-02
   7110.33  6.7185288E-02
   7110.67  9.7714447E-02
   7111.00  1.4026058E-01
   7111.33  1.7919674E-01
   7111.67  2.0767146E-01
   7112.00  2.3835785E-01
   7112.33  2.6326357E-01
   7112.67  2.5708383E-01
   7113.00  2.2535295E-01
   7113.33  1.8561779E-01
   7113.67  1.5055467E-01
   7114.00  1.2436009E-01
   7114.33  1.0808531E-01
   7114.67  9.7291397E-02
   7115.00  8.8736005E-02
   7115.33  8.2516293E-02
   7115.67  7.9602759E-02
   7116.00  7.9368723E-02
   7116.33  8.1084366E-02
   7116.67  8.5041145E-02
   7117.00  9.2456933E-02
   7117.33  1.0548857E-01
   7117.67  1.2472180E-01
   7118.00  1.4928392E-01
   7118.33  1.7078879E-01
   7118.67  1.7707934E-01
   7119.00  1.6850537E-01
   7119.33  1.5799800E-01
   7119.67  1.5465688E-01
   7120.00  1.5945255E-01
   7120.33  1.7095935E-01
   7120.67  1.8582095E-01
   7121.00  2.0273881E-01
   7121.33  2.2216149E-01
   7121.67  2.4477154E-01
   7122.00  2.7089742E-01
   7122.33  3.0015353E-01
   7122.67  3.3007763E-01
   7123.00  3.5805262E-01
   7123.33  3.8089785E-01
   7123.67  3.9862894E-01
   7124.00  4.1291254E-01
   7124.33  4.2677298E-01
   7124.67  4.4199028E-01
   7125.00  4.5856465E-01
   7125.33  4.7636864E-01
   7125.67  4.9456428E-01
   7126.00  5.1138781E-01
   7126.33  5.2413056E-01
   7126.67  5.3243640E-01
   7127.00  5.3678235E-01
   7127.33  5.3810260E-01
   7127.67  5.3836474E-01
   7128.00  5.3882553E-01
   7128.33  5.4032801E-01
   7128.67  5.4257475E-01
   7129.00  5.4499950E-01
   7129.33  5.4692320E-01
   7129.67  5.4808533E-01
   7130.00  5.4851895E-01
   7130.33  5.4862842E-01
   7130.67  5.4923378E-01
   7131.00  5.5105532E-01
   7131.33  5.5495618E-01
   7131.67  5.6098894E-01
   7132.00  5.6900158E-01
   7132.33  5.7822553E-01
   7132.67  5.8691576E-01
   7133.00  5.9378384E-01
   7133.33  5.9808971E-01
   7133.67  6.0088268E-01
   7134.00  6.0334352E-01
   7134.33  6.0698470E-01
   7134.67  6.1255220E-01
   7135.00  6.2022465E-01
   7135.33  6.2993870E-01
   7135.67  6.4088240E-01
   7136.00  6.5244300E-01
   7136.33  6.6387147E-01
   7136.67  6.7452569E-01
   7137.00  6.8396189E-01
   7137.33  6.9163916E-01
   7137.67  6.9759762E-01
   7138.00  7.0185321E-01
   7138.33  7.0439242E-01
   7138.67  7.0572517E-01
   7139.00  7.0621346E-01
   7139.33  7.0623538E-01
   7139.67  7.0610505E-01
   7140.00  7.0576779E-01
   7140.33  7.0467835E-01
   7140.67  7.0217922E-01
   7141.00  6.9768248E-01
   7141.33  6.9060238E-01
   7141.67  6.8145150E-01
   7142.00  6.7073459E-01
   7142.33  6.5907324E-01
   7142.67  6.4727473E-01
   7143.00  6.3585118E-01
   7143.33  6.2538883E-01
   7143.67  6.1615879E-01
   7144.00  6.0836632E-01
   7144.33  6.0228274E-01
   7144.67  5.9768200E-01
   7145.00  5.9446467E-01
   7145.33  5.9261536E-01
   7145.67  5.9178211E-01
   7146.00  5.9177418E-01
   7146.33  5.9242635E-01
   7146.67  5.9342034E-01
   7147.00  5.9455158E-01
   7147.33  5.9559242E-01
   7147.67  5.9637201E-01
   7148.00  5.9677174E-01
   7148.33  5.9663826E-01
   7148.67  5.9597847E-01
   7149.00  5.9477201E-01
   7149.33  5.9294831E-01
   7149.67  5.9059405E-01
   7150.00  5.8773367E-01
   7150.33  5.8434022E-01
   7150.67  5.8050621E-01
   7151.00  5.7625935E-01
   7151.33  5.7157820E-01
   7151.67  5.6652038E-01
   7152.00  5.6107677E-01
   7152.33  5.5516956E-01
   7152.67  5.4881578E-01
   7153.00  5.4199078E-01
   7153.33  5.3462731E-01
   7153.67  5.2681337E-01
   7154.00  5.1860483E-01
   7154.33  5.1006092E-01
   7154.67  5.0133766E-01
   7155.00  4.9253689E-01
   7155.33  4.8375964E-01
   7155.67  4.7507248E-01
   7156.00  4.6650899E-01
   7156.33  4.5809467E-01
   7156.67  4.4979447E-01
   7157.00  4.4157717E-01
   7157.33  4.3340195E-01
   7157.67  4.2522091E-01
   7158.00  4.1700809E-01
   7158.33  4.0874887E-01
   7158.67  4.0046731E-01
   7159.00  3.9220397E-01
   7159.33  3.8404188E-01
   7159.67  3.7606029E-01
   7160.00  3.6834474E-01
   7160.33  3.6104170E-01
   7160.67  3.5419807E-01
   7161.00  3.4788096E-01
   7161.33  3.4222551E-01
   7161.67  3.3720184E-01
   7162.00  3.3283249E-01
   7162.33  3.2920850E-01
   7162.67  3.2623470E-01
   7163.00  3.2388850E-01
   7163.33  3.2220959E-01
   7163.67  3.2108020E-01
   7164.00  3.2045609E-01
   7164.33  3.2033585E-01
   7164.67  3.2060244E-01
   7165.00  3.2120173E-01
   7165.33  3.2210264E-01
   7165.67  3.2320699E-01
   7166.00  3.2446122E-01
   7166.33  3.2581934E-01
   7166.67  3.2722044E-01
   7167.00  3.2863119E-01
   7167.33  3.3002453E-01
   7167.67  3.3139344E-01
   7168.00  3.3274290E-01
   7168.33  3.3409113E-01
   7168.67  3.3546654E-01
   7169.00  3.3689793E-01
   7169.33  3.3843084E-01
   7169.67  3.4008373E-01
   7170.00  3.4187481E-01
   7170.33  3.4383107E-01
   7170.67  3.4592395E-01
   7171.00  3.4812286E-01
   7171.33  3.5035400E-01
   7171.67  3.5245944E-01
   7172.00  3.5423016E-01
