    FDMNES
    energy     <xanes>
   7097.00  5.2050881E-03
   7097.33  5.3247568E-03
   7097.67  5.4497095E-03
   7098.00  5.5802936E-03
   7098.33  5.7177148E-03
   7098.67  5.8617086E-03
   7099.00  6.0127440E-03
   7099.33  6.1723839E-03
   7099.67  6.3403517E-03
   7100.00  6.5172965E-03
   7100.33  6.7052935E-03
   7100.67  6.9040731E-03
   7101.00  7.1145600E-03
   7101.33  7.3395895E-03
   7101.67  7.5789421E-03
   7102.00  7.8339807E-03
   7102.33  8.1087140E-03
   7102.67  8.4030681E-03
   7103.00  8.7191361E-03
   7103.33  9.0628257E-03
   7103.67  9.4344235E-03
   7104.00  9.8373094E-03
   7104.33  1.0280651E-02
   7104.67  1.0765598E-02
   7105.00  1.1297965E-02
   7105.33  1.1892943E-02
   7105.67  1.2553813E-02
   7106.00  1.3291425E-02
   7106.33  1.4133236E-02
   7106.67  1.5088189E-02
   7107.00  1.6178913E-02
   7107.33  1.7461389E-02
   7107.67  1.8961692E-02
   7108.00  2.0735207E-02
   7108.33  2.2918515E-02
   7108.67  2.5601821E-02
   7109.00  2.8959439E-02
   7109.33  3.3438156E-02
   7109.67  3.9470850E-02
   7110.00  4.7894973E-02
   7110.33  6.1075075E-02
   7110.67  8.1885946E-02
   7111.00  1.1389897E-01
   7111.33  1.5749595E-01
   7111.67  2.0001557E-01
   7112.00  2.3707305E-01
   7112.33  2.7882216E-01
   7112.67  3.2089865E-01
   7113.00  3.6277137E-01
   7113.33  4.0744418E-01
   7113.67  4.3009664E-01
   7114.00  4.3085767E-01
   7114.33  4.1797805E-01
   7114.67  3.7953337E-01
   7115.00  3.2534793E-01
   7115.33  2.7934900E-01
   7115.67  2.4810094E-01
   7116.00  2.2994235E-01
   7116.33  2.2246550E-01
   7116.67  2.2067075E-01
   7117.00  2.1930617E-01
   7117.33  2.1003795E-01
   7117.67  1.9384239E-01
   7118.00  1.7709594E-01
   7118.33  1.6549652E-01
   7118.67  1.5900878E-01
   7119.00  1.5652170E-01
   7119.33  1.5666921E-01
   7119.67  1.5717804E-01
   7120.00  1.5632631E-01
   7120.33  1.5348265E-01
   7120.67  1.5054689E-01
   7121.00  1.4903655E-01
   7121.33  1.4985753E-01
   7121.67  1.5312800E-01
   7122.00  1.5961765E-01
   7122.33  1.7014827E-01
   7122.67  1.8371531E-01
   7123.00  1.9960970E-01
   7123.33  2.1714241E-01
   7123.67  2.3515710E-01
   7124.00  2.5283877E-01
   7124.33  2.6917722E-01
   7124.67  2.8335335E-01
   7125.00  2.9454759E-01
   7125.33  3.0231219E-01
   7125.67  3.0849256E-01
   7126.00  3.1516779E-01
   7126.33  3.2516847E-01
   7126.67  3.4010994E-01
   7127.00  3.6122990E-01
   7127.33  3.9026459E-01
   7127.67  4.2630317E-01
   7128.00  4.6828877E-01
   7128.33  5.1432601E-01
   7128.67  5.6097188E-01
   7129.00  6.0549460E-01
   7129.33  6.4472715E-01
   7129.67  6.7821955E-01
   7130.00  7.0631950E-01
   7130.33  7.2990708E-01
   7130.67  7.5126329E-01
   7131.00  7.7164631E-01
   7131.33  7.9196690E-01
   7131.67  8.1252459E-01
   7132.00  8.3310328E-01
   7132.33  8.5297469E-01
   7132.67  8.7135326E-01
   7133.00  8.8746058E-01
   7133.33  8.9995263E-01
   7133.67  9.0810313E-01
   7134.00  9.1072861E-01
   7134.33  9.0574575E-01
   7134.67  8.9391266E-01
   7135.00  8.7657296E-01
   7135.33  8.5560270E-01
   7135.67  8.3281219E-01
   7136.00  8.0831768E-01
   7136.33  7.8144716E-01
   7136.67  7.5228284E-01
   7137.00  7.2115961E-01
   7137.33  6.8891890E-01
   7137.67  6.5706499E-01
   7138.00  6.2688338E-01
   7138.33  6.0008493E-01
   7138.67  5.7723573E-01
   7139.00  5.5874442E-01
   7139.33  5.4518897E-01
   7139.67  5.3569151E-01
   7140.00  5.2981161E-01
   7140.33  5.2737512E-01
   7140.67  5.2749415E-01
   7141.00  5.2981069E-01
   7141.33  5.3421452E-01
   7141.67  5.4016256E-01
   7142.00  5.4736342E-01
   7142.33  5.5548630E-01
   7142.67  5.6384052E-01
   7143.00  5.7178930E-01
   7143.33  5.7834393E-01
   7143.67  5.8286691E-01
   7144.00  5.8484821E-01
   7144.33  5.8367174E-01
   7144.67  5.7981442E-01
   7145.00  5.7364428E-01
   7145.33  5.6554884E-01
   7145.67  5.5638838E-01
   7146.00  5.4666916E-01
   7146.33  5.3686365E-01
   7146.67  5.2733636E-01
   7147.00  5.1830032E-01
   7147.33  5.1000068E-01
   7147.67  5.0245263E-01
   7148.00  4.9570433E-01
   7148.33  4.8988795E-01
   7148.67  4.8490811E-01
   7149.00  4.8076157E-01
   7149.33  4.7754010E-01
   7149.67  4.7512584E-01
   7150.00  4.7350412E-01
   7150.33  4.7275212E-01
   7150.67  4.7274674E-01
   7151.00  4.7345629E-01
   7151.33  4.7492256E-01
   7151.67  4.7701025E-01
   7152.00  4.7966332E-01
   7152.33  4.8286018E-01
   7152.67  4.8643901E-01
   7153.00  4.9029706E-01
   7153.33  4.9431661E-01
   7153.67  4.9833370E-01
   7154.00  5.0222248E-01
   7154.33  5.0581324E-01
   7154.67  5.0902328E-01
   7155.00  5.1177555E-01
   7155.33  5.1394671E-01
   7155.67  5.1557820E-01
   7156.00  5.1667616E-01
   7156.33  5.1720930E-01
   7156.67  5.1729041E-01
   7157.00  5.1697159E-01
   7157.33  5.1627715E-01
   7157.67  5.1531678E-01
   7158.00  5.1414897E-01
   7158.33  5.1282447E-01
   7158.67  5.1142948E-01
   7159.00  5.1002412E-01
   7159.33  5.0868648E-01
   7159.67  5.0747844E-01
   7160.00  5.0646026E-01
   7160.33  5.0573605E-01
   7160.67  5.0534167E-01
   7161.00  5.0533051E-01
   7161.33  5.0580944E-01
   7161.67  5.0676148E-01
   7162.00  5.0820379E-01
   7162.33  5.1019763E-01
   7162.67  5.1265646E-01
   7163.00  5.1553737E-01
   7163.33  5.1881130E-01
   7163.67  5.2233914E-01
   7164.00  5.2601953E-01
   7164.33  5.2971102E-01
   7164.67  5.3326647E-01
   7165.00  5.3657271E-01
   7165.33  5.3946391E-01
   7165.67  5.4188263E-01
   7166.00  5.4375670E-01
   7166.33  5.4494887E-01
   7166.67  5.4549946E-01
   7167.00  5.4539835E-01
   7167.33  5.4457447E-01
   7167.67  5.4313681E-01
   7168.00  5.4112196E-01
   7168.33  5.3851717E-01
   7168.67  5.3544961E-01
   7169.00  5.3197655E-01
   7169.33  5.2812559E-01
   7169.67  5.2401161E-01
   7170.00  5.1970057E-01
   7170.33  5.1526024E-01
   7170.67  5.1079641E-01
   7171.00  5.0640125E-01
   7171.33  5.0224390E-01
   7171.67  4.9851758E-01
   7172.00  4.9548554E-01
