    FDMNES
    energy     <xanes>
   7097.00  5.1187565E-03
   7097.33  5.2369110E-03
   7097.67  5.3602604E-03
   7098.00  5.4891432E-03
   7098.33  5.6247397E-03
   7098.67  5.7667853E-03
   7099.00  5.9157356E-03
   7099.33  6.0731155E-03
   7099.67  6.2386466E-03
   7100.00  6.4129564E-03
   7100.33  6.5980625E-03
   7100.67  6.7936890E-03
   7101.00  7.0007253E-03
   7101.33  7.2219148E-03
   7101.67  7.4570226E-03
   7102.00  7.7073516E-03
   7102.33  7.9767570E-03
   7102.67  8.2651302E-03
   7103.00  8.5744559E-03
   7103.33  8.9103730E-03
   7103.67  9.2730890E-03
   7104.00  9.6657779E-03
   7104.33  1.0097104E-02
   7104.67  1.0568034E-02
   7105.00  1.1083958E-02
   7105.33  1.1659053E-02
   7105.67  1.2296141E-02
   7106.00  1.3005124E-02
   7106.33  1.3811188E-02
   7106.67  1.4722016E-02
   7107.00  1.5757814E-02
   7107.33  1.6968741E-02
   7107.67  1.8376834E-02
   7108.00  2.0030078E-02
   7108.33  2.2046722E-02
   7108.67  2.4500689E-02
   7109.00  2.7536428E-02
   7109.33  3.1521401E-02
   7109.67  3.6793307E-02
   7110.00  4.4002706E-02
   7110.33  5.4940446E-02
   7110.67  7.1524184E-02
   7111.00  9.5884801E-02
   7111.33  1.3231238E-01
   7111.67  1.8022605E-01
   7112.00  2.2983203E-01
   7112.33  2.8163598E-01
   7112.67  3.1571682E-01
   7113.00  3.2745144E-01
   7113.33  3.6632284E-01
   7113.67  4.1556913E-01
   7114.00  4.3180912E-01
   7114.33  4.0987953E-01
   7114.67  3.6632960E-01
   7115.00  3.2590345E-01
   7115.33  3.1385733E-01
   7115.67  3.2648270E-01
   7116.00  3.4453858E-01
   7116.33  3.3861913E-01
   7116.67  3.1524678E-01
   7117.00  2.8701086E-01
   7117.33  2.5620825E-01
   7117.67  2.2571973E-01
   7118.00  2.0005521E-01
   7118.33  1.8182138E-01
   7118.67  1.6932734E-01
   7119.00  1.6162159E-01
   7119.33  1.5799807E-01
   7119.67  1.5643373E-01
   7120.00  1.5547828E-01
   7120.33  1.5402076E-01
   7120.67  1.5229580E-01
   7121.00  1.5110280E-01
   7121.33  1.5128483E-01
   7121.67  1.5253066E-01
   7122.00  1.5400649E-01
   7122.33  1.5433655E-01
   7122.67  1.5308282E-01
   7123.00  1.5088332E-01
   7123.33  1.4957214E-01
   7123.67  1.5072962E-01
   7124.00  1.5519470E-01
   7124.33  1.6387627E-01
   7124.67  1.7655105E-01
   7125.00  1.9342599E-01
   7125.33  2.1525057E-01
   7125.67  2.4139995E-01
   7126.00  2.7132121E-01
   7126.33  3.0398715E-01
   7126.67  3.3741694E-01
   7127.00  3.7015565E-01
   7127.33  3.9995418E-01
   7127.67  4.2521197E-01
   7128.00  4.4520345E-01
   7128.33  4.6056888E-01
   7128.67  4.7460832E-01
   7129.00  4.8991648E-01
   7129.33  5.0925552E-01
   7129.67  5.3349267E-01
   7130.00  5.6302599E-01
   7130.33  5.9813761E-01
   7130.67  6.3720344E-01
   7131.00  6.7898439E-01
   7131.33  7.2151837E-01
   7131.67  7.6204903E-01
   7132.00  7.9809665E-01
   7132.33  8.2636671E-01
   7132.67  8.4648803E-01
   7133.00  8.5864210E-01
   7133.33  8.6355544E-01
   7133.67  8.6454684E-01
   7134.00  8.6418458E-01
   7134.33  8.6577960E-01
   7134.67  8.7189690E-01
   7135.00  8.8419436E-01
   7135.33  9.0361331E-01
   7135.67  9.2629335E-01
   7136.00  9.4631784E-01
   7136.33  9.5279747E-01
   7136.67  9.3987488E-01
   7137.00  9.0684999E-01
   7137.33  8.5803241E-01
   7137.67  8.0418393E-01
   7138.00  7.5178982E-01
   7138.33  7.0614592E-01
   7138.67  6.6832812E-01
   7139.00  6.3855078E-01
   7139.33  6.1719351E-01
   7139.67  6.0236613E-01
   7140.00  5.9314288E-01
   7140.33  5.8901145E-01
   7140.67  5.8838933E-01
   7141.00  5.9048067E-01
   7141.33  5.9466888E-01
   7141.67  5.9990732E-01
   7142.00  6.0549602E-01
   7142.33  6.1056042E-01
   7142.67  6.1439539E-01
   7143.00  6.1645808E-01
   7143.33  6.1605903E-01
   7143.67  6.1333815E-01
   7144.00  6.0839955E-01
   7144.33  6.0132064E-01
   7144.67  5.9277343E-01
   7145.00  5.8315654E-01
   7145.33  5.7282481E-01
   7145.67  5.6222659E-01
   7146.00  5.5161830E-01
   7146.33  5.4126254E-01
   7146.67  5.3131333E-01
   7147.00  5.2189775E-01
   7147.33  5.1321863E-01
   7147.67  5.0529127E-01
   7148.00  4.9818226E-01
   7148.33  4.9205854E-01
   7148.67  4.8684825E-01
   7149.00  4.8257403E-01
   7149.33  4.7936096E-01
   7149.67  4.7707224E-01
   7150.00  4.7568147E-01
   7150.33  4.7525336E-01
   7150.67  4.7563390E-01
   7151.00  4.7678537E-01
   7151.33  4.7875768E-01
   7151.67  4.8141458E-01
   7152.00  4.8471808E-01
   7152.33  4.8870208E-01
   7152.67  4.9324046E-01
   7153.00  4.9827641E-01
   7153.33  5.0377332E-01
   7153.67  5.0956530E-01
   7154.00  5.1553724E-01
   7154.33  5.2155038E-01
   7154.67  5.2745677E-01
   7155.00  5.3314084E-01
   7155.33  5.3844196E-01
   7155.67  5.4330732E-01
   7156.00  5.4767513E-01
   7156.33  5.5142926E-01
   7156.67  5.5461422E-01
   7157.00  5.5722715E-01
   7157.33  5.5921307E-01
   7157.67  5.6067251E-01
   7158.00  5.6164197E-01
   7158.33  5.6211707E-01
   7158.67  5.6220836E-01
   7159.00  5.6196489E-01
   7159.33  5.6140736E-01
   7159.67  5.6062163E-01
   7160.00  5.5964567E-01
   7160.33  5.5849641E-01
   7160.67  5.5722003E-01
   7161.00  5.5583195E-01
   7161.33  5.5432900E-01
   7161.67  5.5272545E-01
   7162.00  5.5101692E-01
   7162.33  5.4917868E-01
   7162.67  5.4721113E-01
   7163.00  5.4510036E-01
   7163.33  5.4280932E-01
   7163.67  5.4034235E-01
   7164.00  5.3768757E-01
   7164.33  5.3480572E-01
   7164.67  5.3171201E-01
   7165.00  5.2840584E-01
   7165.33  5.2486763E-01
   7165.67  5.2113581E-01
   7166.00  5.1722546E-01
   7166.33  5.1313761E-01
   7166.67  5.0891563E-01
   7167.00  5.0458141E-01
   7167.33  5.0014941E-01
   7167.67  4.9565511E-01
   7168.00  4.9111956E-01
   7168.33  4.8656467E-01
   7168.67  4.8201704E-01
   7169.00  4.7749847E-01
   7169.33  4.7303996E-01
   7169.67  4.6866028E-01
   7170.00  4.6438443E-01
   7170.33  4.6026313E-01
   7170.67  4.5632023E-01
   7171.00  4.5260003E-01
   7171.33  4.4921272E-01
   7171.67  4.4624445E-01
   7172.00  4.4384730E-01
