    FDMNES
    energy     <xanes>
   7097.00  4.8243377E-03
   7097.33  4.9331985E-03
   7097.67  5.0468410E-03
   7098.00  5.1655828E-03
   7098.33  5.2905202E-03
   7098.67  5.4214188E-03
   7099.00  5.5587091E-03
   7099.33  5.7038181E-03
   7099.67  5.8565035E-03
   7100.00  6.0173651E-03
   7100.33  6.1883076E-03
   7100.67  6.3691008E-03
   7101.00  6.5606059E-03
   7101.33  6.7654428E-03
   7101.67  6.9834385E-03
   7102.00  7.2158741E-03
   7102.33  7.4664863E-03
   7102.67  7.7352584E-03
   7103.00  8.0241809E-03
   7103.33  8.3388233E-03
   7103.67  8.6795499E-03
   7104.00  9.0496228E-03
   7104.33  9.4578122E-03
   7104.67  9.9053989E-03
   7105.00  1.0398100E-02
   7105.33  1.0950733E-02
   7105.67  1.1566872E-02
   7106.00  1.2257457E-02
   7106.33  1.3049987E-02
   7106.67  1.3954286E-02
   7107.00  1.4993965E-02
   7107.33  1.6227242E-02
   7107.67  1.7683638E-02
   7108.00  1.9423905E-02
   7108.33  2.1598354E-02
   7108.67  2.4315064E-02
   7109.00  2.7780562E-02
   7109.33  3.2533040E-02
   7109.67  3.9142139E-02
   7110.00  4.8721814E-02
   7110.33  6.4489437E-02
   7110.67  9.0346514E-02
   7111.00  1.2935543E-01
   7111.33  1.6856918E-01
   7111.67  1.8870610E-01
   7112.00  2.0989959E-01
   7112.33  2.6119268E-01
   7112.67  3.2312946E-01
   7113.00  3.4737930E-01
   7113.33  3.4571284E-01
   7113.67  3.6847492E-01
   7114.00  3.9008085E-01
   7114.33  3.4788057E-01
   7114.67  2.6716146E-01
   7115.00  2.0050632E-01
   7115.33  1.6764954E-01
   7115.67  1.5793927E-01
   7116.00  1.6203434E-01
   7116.33  1.6875905E-01
   7116.67  1.7663976E-01
   7117.00  1.9225295E-01
   7117.33  2.1580893E-01
   7117.67  2.2656830E-01
   7118.00  2.1264129E-01
   7118.33  1.8732980E-01
   7118.67  1.6671592E-01
   7119.00  1.5306873E-01
   7119.33  1.4480043E-01
   7119.67  1.3937657E-01
   7120.00  1.3600862E-01
   7120.33  1.3381619E-01
   7120.67  1.3109175E-01
   7121.00  1.2704813E-01
   7121.33  1.2205871E-01
   7121.67  1.1721038E-01
   7122.00  1.1334214E-01
   7122.33  1.1155853E-01
   7122.67  1.1205390E-01
   7123.00  1.1482094E-01
   7123.33  1.1998788E-01
   7123.67  1.2730646E-01
   7124.00  1.3696903E-01
   7124.33  1.4942745E-01
   7124.67  1.6411291E-01
   7125.00  1.8054146E-01
   7125.33  1.9837617E-01
   7125.67  2.1717041E-01
   7126.00  2.3674408E-01
   7126.33  2.5697013E-01
   7126.67  2.7735951E-01
   7127.00  2.9725002E-01
   7127.33  3.1593037E-01
   7127.67  3.3364716E-01
   7128.00  3.5084262E-01
   7128.33  3.6817267E-01
   7128.67  3.8664563E-01
   7129.00  4.0773005E-01
   7129.33  4.3430999E-01
   7129.67  4.6805460E-01
   7130.00  5.1036518E-01
   7130.33  5.6278657E-01
   7130.67  6.2310999E-01
   7131.00  6.8920102E-01
   7131.33  7.5724613E-01
   7131.67  8.2170701E-01
   7132.00  8.7788208E-01
   7132.33  9.1937180E-01
   7132.67  9.4460979E-01
   7133.00  9.5316103E-01
   7133.33  9.4626780E-01
   7133.67  9.3116506E-01
   7134.00  9.1292988E-01
   7134.33  8.9644162E-01
   7134.67  8.8403177E-01
   7135.00  8.7628831E-01
   7135.33  8.7397922E-01
   7135.67  8.7715836E-01
   7136.00  8.8596366E-01
   7136.33  8.9863514E-01
   7136.67  9.1007392E-01
   7137.00  9.1576387E-01
   7137.33  9.1077831E-01
   7137.67  8.9534010E-01
   7138.00  8.7068039E-01
   7138.33  8.3889048E-01
   7138.67  8.0422313E-01
   7139.00  7.6947569E-01
   7139.33  7.3753246E-01
   7139.67  7.0976916E-01
   7140.00  6.8692976E-01
   7140.33  6.6978376E-01
   7140.67  6.5721591E-01
   7141.00  6.4847145E-01
   7141.33  6.4279655E-01
   7141.67  6.3869570E-01
   7142.00  6.3524494E-01
   7142.33  6.3151180E-01
   7142.67  6.2687791E-01
   7143.00  6.2100487E-01
   7143.33  6.1356245E-01
   7143.67  6.0478310E-01
   7144.00  5.9484575E-01
   7144.33  5.8395351E-01
   7144.67  5.7258527E-01
   7145.00  5.6108017E-01
   7145.33  5.4984185E-01
   7145.67  5.3912740E-01
   7146.00  5.2909472E-01
   7146.33  5.1996286E-01
   7146.67  5.1170126E-01
   7147.00  5.0433560E-01
   7147.33  4.9797525E-01
   7147.67  4.9248616E-01
   7148.00  4.8785144E-01
   7148.33  4.8412399E-01
   7148.67  4.8109403E-01
   7149.00  4.7865063E-01
   7149.33  4.7671264E-01
   7149.67  4.7510098E-01
   7150.00  4.7374379E-01
   7150.33  4.7263428E-01
   7150.67  4.7175955E-01
   7151.00  4.7116012E-01
   7151.33  4.7094709E-01
   7151.67  4.7115747E-01
   7152.00  4.7185274E-01
   7152.33  4.7314646E-01
   7152.67  4.7498497E-01
   7153.00  4.7734504E-01
   7153.33  4.8021504E-01
   7153.67  4.8342914E-01
   7154.00  4.8686733E-01
   7154.33  4.9038150E-01
   7154.67  4.9380647E-01
   7155.00  4.9702136E-01
   7155.33  4.9987430E-01
   7155.67  5.0233332E-01
   7156.00  5.0436954E-01
   7156.33  5.0593101E-01
   7156.67  5.0709991E-01
   7157.00  5.0791700E-01
   7157.33  5.0840311E-01
   7157.67  5.0865641E-01
   7158.00  5.0872943E-01
   7158.33  5.0867311E-01
   7158.67  5.0856643E-01
   7159.00  5.0845092E-01
   7159.33  5.0836326E-01
   7159.67  5.0831980E-01
   7160.00  5.0832485E-01
   7160.33  5.0837172E-01
   7160.67  5.0842652E-01
   7161.00  5.0845134E-01
   7161.33  5.0837901E-01
   7161.67  5.0816260E-01
   7162.00  5.0775800E-01
   7162.33  5.0708581E-01
   7162.67  5.0613478E-01
   7163.00  5.0488205E-01
   7163.33  5.0327682E-01
   7163.67  5.0136076E-01
   7164.00  4.9914471E-01
   7164.33  4.9661406E-01
   7164.67  4.9382998E-01
   7165.00  4.9081825E-01
   7165.33  4.8758738E-01
   7165.67  4.8419849E-01
   7166.00  4.8068763E-01
   7166.33  4.7709325E-01
   7166.67  4.7347898E-01
   7167.00  4.6989582E-01
   7167.33  4.6641548E-01
   7167.67  4.6308525E-01
   7168.00  4.5995498E-01
   7168.33  4.5710541E-01
   7168.67  4.5453752E-01
   7169.00  4.5226853E-01
   7169.33  4.5034777E-01
   7169.67  4.4873801E-01
   7170.00  4.4743355E-01
   7170.33  4.4645704E-01
   7170.67  4.4575146E-01
   7171.00  4.4529301E-01
   7171.33  4.4506802E-01
   7171.67  4.4498769E-01
   7172.00  4.4497304E-01
