    FDMNES
    energy     <xanes>
   7097.00  5.0030966E-03
   7097.33  5.1164246E-03
   7097.67  5.2347334E-03
   7098.00  5.3583525E-03
   7098.33  5.4884223E-03
   7098.67  5.6246971E-03
   7099.00  5.7676238E-03
   7099.33  5.9186855E-03
   7099.67  6.0776285E-03
   7100.00  6.2450752E-03
   7100.33  6.4230046E-03
   7100.67  6.6111763E-03
   7101.00  6.8104845E-03
   7101.33  7.0236525E-03
   7101.67  7.2505010E-03
   7102.00  7.4923635E-03
   7102.33  7.7531298E-03
   7102.67  8.0327896E-03
   7103.00  8.3334235E-03
   7103.33  8.6608487E-03
   7103.67  9.0154715E-03
   7104.00  9.4007269E-03
   7104.33  9.8258340E-03
   7104.67  1.0292218E-02
   7105.00  1.0805971E-02
   7105.33  1.1382855E-02
   7105.67  1.2026897E-02
   7106.00  1.2749995E-02
   7106.33  1.3581996E-02
   7106.67  1.4534277E-02
   7107.00  1.5633369E-02
   7107.33  1.6944740E-02
   7107.67  1.8504148E-02
   7108.00  2.0383732E-02
   7108.33  2.2763459E-02
   7108.67  2.5784699E-02
   7109.00  2.9717157E-02
   7109.33  3.5281842E-02
   7109.67  4.3322567E-02
   7110.00  5.5509701E-02
   7110.33  7.6553868E-02
   7110.67  1.0972447E-01
   7111.00  1.4794696E-01
   7111.33  1.7014490E-01
   7111.67  1.9199022E-01
   7112.00  2.3055143E-01
   7112.33  2.7123097E-01
   7112.67  2.6859928E-01
   7113.00  2.5315860E-01
   7113.33  2.8018333E-01
   7113.67  3.3598604E-01
   7114.00  3.6412699E-01
   7114.33  3.1807308E-01
   7114.67  2.4777383E-01
   7115.00  1.9499490E-01
   7115.33  1.7301157E-01
   7115.67  1.7471800E-01
   7116.00  1.9724122E-01
   7116.33  2.2847306E-01
   7116.67  2.4394900E-01
   7117.00  2.4772625E-01
   7117.33  2.6082723E-01
   7117.67  2.7841953E-01
   7118.00  2.8646268E-01
   7118.33  2.7576216E-01
   7118.67  2.5464134E-01
   7119.00  2.3121484E-01
   7119.33  2.0999955E-01
   7119.67  1.9183262E-01
   7120.00  1.7862174E-01
   7120.33  1.7162089E-01
   7120.67  1.6787736E-01
   7121.00  1.6577668E-01
   7121.33  1.6563697E-01
   7121.67  1.6822299E-01
   7122.00  1.7393920E-01
   7122.33  1.8222962E-01
   7122.67  1.9081744E-01
   7123.00  1.9850433E-01
   7123.33  2.0585848E-01
   7123.67  2.1454148E-01
   7124.00  2.2530363E-01
   7124.33  2.3827045E-01
   7124.67  2.5322764E-01
   7125.00  2.7074316E-01
   7125.33  2.9145651E-01
   7125.67  3.1396322E-01
   7126.00  3.3647948E-01
   7126.33  3.5707383E-01
   7126.67  3.7548826E-01
   7127.00  3.9161725E-01
   7127.33  4.0429465E-01
   7127.67  4.1281931E-01
   7128.00  4.1758323E-01
   7128.33  4.2145837E-01
   7128.67  4.2781923E-01
   7129.00  4.3815538E-01
   7129.33  4.5379610E-01
   7129.67  4.7456095E-01
   7130.00  5.0056899E-01
   7130.33  5.3215791E-01
   7130.67  5.6803130E-01
   7131.00  6.0739683E-01
   7131.33  6.4948086E-01
   7131.67  6.9280219E-01
   7132.00  7.3617529E-01
   7132.33  7.7756705E-01
   7132.67  8.1481363E-01
   7133.00  8.4558996E-01
   7133.33  8.6624899E-01
   7133.67  8.7632457E-01
   7134.00  8.7569622E-01
   7134.33  8.6451107E-01
   7134.67  8.4619793E-01
   7135.00  8.2282349E-01
   7135.33  7.9610352E-01
   7135.67  7.6802058E-01
   7136.00  7.3963686E-01
   7136.33  7.1204799E-01
   7136.67  6.8604647E-01
   7137.00  6.6232788E-01
   7137.33  6.4196038E-01
   7137.67  6.2503592E-01
   7138.00  6.1168943E-01
   7138.33  6.0218930E-01
   7138.67  5.9571946E-01
   7139.00  5.9188092E-01
   7139.33  5.9050852E-01
   7139.67  5.9095169E-01
   7140.00  5.9291954E-01
   7140.33  5.9621406E-01
   7140.67  6.0030475E-01
   7141.00  6.0482236E-01
   7141.33  6.0927311E-01
   7141.67  6.1310683E-01
   7142.00  6.1579111E-01
   7142.33  6.1647399E-01
   7142.67  6.1486496E-01
   7143.00  6.1074025E-01
   7143.33  6.0388247E-01
   7143.67  5.9503052E-01
   7144.00  5.8473196E-01
   7144.33  5.7353747E-01
   7144.67  5.6203738E-01
   7145.00  5.5051560E-01
   7145.33  5.3925567E-01
   7145.67  5.2845644E-01
   7146.00  5.1831877E-01
   7146.33  5.0920978E-01
   7146.67  5.0128187E-01
   7147.00  4.9476481E-01
   7147.33  4.9010710E-01
   7147.67  4.8727551E-01
   7148.00  4.8633582E-01
   7148.33  4.8747504E-01
   7148.67  4.9028290E-01
   7149.00  4.9449958E-01
   7149.33  4.9986055E-01
   7149.67  5.0583192E-01
   7150.00  5.1209533E-01
   7150.33  5.1833109E-01
   7150.67  5.2429421E-01
   7151.00  5.2982728E-01
   7151.33  5.3473570E-01
   7151.67  5.3901405E-01
   7152.00  5.4262730E-01
   7152.33  5.4549235E-01
   7152.67  5.4774223E-01
   7153.00  5.4944653E-01
   7153.33  5.5064999E-01
   7153.67  5.5151919E-01
   7154.00  5.5214956E-01
   7154.33  5.5262731E-01
   7154.67  5.5305687E-01
   7155.00  5.5349749E-01
   7155.33  5.5400655E-01
   7155.67  5.5460597E-01
   7156.00  5.5530590E-01
   7156.33  5.5611515E-01
   7156.67  5.5700539E-01
   7157.00  5.5795526E-01
   7157.33  5.5893857E-01
   7157.67  5.5992024E-01
   7158.00  5.6087524E-01
   7158.33  5.6177315E-01
   7158.67  5.6260343E-01
   7159.00  5.6335762E-01
   7159.33  5.6402139E-01
   7159.67  5.6460538E-01
   7160.00  5.6511376E-01
   7160.33  5.6554610E-01
   7160.67  5.6591945E-01
   7161.00  5.6623950E-01
   7161.33  5.6650305E-01
   7161.67  5.6670978E-01
   7162.00  5.6684422E-01
   7162.33  5.6687535E-01
   7162.67  5.6679302E-01
   7163.00  5.6657493E-01
   7163.33  5.6617213E-01
   7163.67  5.6557739E-01
   7164.00  5.6476900E-01
   7164.33  5.6369498E-01
   7164.67  5.6236631E-01
   7165.00  5.6077207E-01
   7165.33  5.5887374E-01
   7165.67  5.5670735E-01
   7166.00  5.5427715E-01
   7166.33  5.5156050E-01
   7166.67  5.4860280E-01
   7167.00  5.4541779E-01
   7167.33  5.4199635E-01
   7167.67  5.3838170E-01
   7168.00  5.3458729E-01
   7168.33  5.3060978E-01
   7168.67  5.2648834E-01
   7169.00  5.2223713E-01
   7169.33  5.1785927E-01
   7169.67  5.1339023E-01
   7170.00  5.0885453E-01
   7170.33  5.0428743E-01
   7170.67  4.9974740E-01
   7171.00  4.9530205E-01
   7171.33  4.9110022E-01
   7171.67  4.8732209E-01
   7172.00  4.8422794E-01
