    FDMNES
    energy     <xanes>
   7097.00  4.7624007E-03
   7097.33  4.8696653E-03
   7097.67  4.9816333E-03
   7098.00  5.0986178E-03
   7098.33  5.2216990E-03
   7098.67  5.3506480E-03
   7099.00  5.4858907E-03
   7099.33  5.6288354E-03
   7099.67  5.7792473E-03
   7100.00  5.9377212E-03
   7100.33  6.1061419E-03
   7100.67  6.2842898E-03
   7101.00  6.4730227E-03
   7101.33  6.6749423E-03
   7101.67  6.8898918E-03
   7102.00  7.1191548E-03
   7102.33  7.3664604E-03
   7102.67  7.6318200E-03
   7103.00  7.9172428E-03
   7103.33  8.2283248E-03
   7103.67  8.5654871E-03
   7104.00  8.9320538E-03
   7104.33  9.3369192E-03
   7104.67  9.7814952E-03
   7105.00  1.0271682E-02
   7105.33  1.0822703E-02
   7105.67  1.1438478E-02
   7106.00  1.2130492E-02
   7106.33  1.2927515E-02
   7106.67  1.3840431E-02
   7107.00  1.4894631E-02
   7107.33  1.6152630E-02
   7107.67  1.7647876E-02
   7108.00  1.9447972E-02
   7108.33  2.1720677E-02
   7108.67  2.4593087E-02
   7109.00  2.8306785E-02
   7109.33  3.3498041E-02
   7109.67  4.0874429E-02
   7110.00  5.1825937E-02
   7110.33  7.0368720E-02
   7110.67  1.0097332E-01
   7111.00  1.4548469E-01
   7111.33  1.8667353E-01
   7111.67  2.0052045E-01
   7112.00  2.0725521E-01
   7112.33  2.3465193E-01
   7112.67  2.7661355E-01
   7113.00  3.2543052E-01
   7113.33  3.6556171E-01
   7113.67  3.6991892E-01
   7114.00  3.2111212E-01
   7114.33  2.4944072E-01
   7114.67  1.9752445E-01
   7115.00  1.7479060E-01
   7115.33  1.8261765E-01
   7115.67  2.0992718E-01
   7116.00  2.3834606E-01
   7116.33  2.3710896E-01
   7116.67  2.0727312E-01
   7117.00  1.6931282E-01
   7117.33  1.4106741E-01
   7117.67  1.2299835E-01
   7118.00  1.1239878E-01
   7118.33  1.0715622E-01
   7118.67  1.0519014E-01
   7119.00  1.0548832E-01
   7119.33  1.0729405E-01
   7119.67  1.0863808E-01
   7120.00  1.0784938E-01
   7120.33  1.0534014E-01
   7120.67  1.0303212E-01
   7121.00  1.0170157E-01
   7121.33  1.0187471E-01
   7121.67  1.0361777E-01
   7122.00  1.0714674E-01
   7122.33  1.1321167E-01
   7122.67  1.2233075E-01
   7123.00  1.3529281E-01
   7123.33  1.5328334E-01
   7123.67  1.7532595E-01
   7124.00  1.9945355E-01
   7124.33  2.2236011E-01
   7124.67  2.4352122E-01
   7125.00  2.6437512E-01
   7125.33  2.8557652E-01
   7125.67  3.0577130E-01
   7126.00  3.2367964E-01
   7126.33  3.3977530E-01
   7126.67  3.5743802E-01
   7127.00  3.7940481E-01
   7127.33  4.0789224E-01
   7127.67  4.4177053E-01
   7128.00  4.7940628E-01
   7128.33  5.1793775E-01
   7128.67  5.5405786E-01
   7129.00  5.8573350E-01
   7129.33  6.1155538E-01
   7129.67  6.3308326E-01
   7130.00  6.5179756E-01
   7130.33  6.6929641E-01
   7130.67  6.8747030E-01
   7131.00  7.0786077E-01
   7131.33  7.3160700E-01
   7131.67  7.5710291E-01
   7132.00  7.8231912E-01
   7132.33  8.0493734E-01
   7132.67  8.2414249E-01
   7133.00  8.3950369E-01
   7133.33  8.5031360E-01
   7133.67  8.5707206E-01
   7134.00  8.5977651E-01
   7134.33  8.5775984E-01
   7134.67  8.5152562E-01
   7135.00  8.4155419E-01
   7135.33  8.2870111E-01
   7135.67  8.1454017E-01
   7136.00  7.9974901E-01
   7136.33  7.8447325E-01
   7136.67  7.6860075E-01
   7137.00  7.5201209E-01
   7137.33  7.3477804E-01
   7137.67  7.1744916E-01
   7138.00  7.0058478E-01
   7138.33  6.8496073E-01
   7138.67  6.7094735E-01
   7139.00  6.5884479E-01
   7139.33  6.4910993E-01
   7139.67  6.4152344E-01
   7140.00  6.3601833E-01
   7140.33  6.3264556E-01
   7140.67  6.3087255E-01
   7141.00  6.3035544E-01
   7141.33  6.3067626E-01
   7141.67  6.3112689E-01
   7142.00  6.3113655E-01
   7142.33  6.2994622E-01
   7142.67  6.2722065E-01
   7143.00  6.2274224E-01
   7143.33  6.1622329E-01
   7143.67  6.0800783E-01
   7144.00  5.9832314E-01
   7144.33  5.8738887E-01
   7144.67  5.7574720E-01
   7145.00  5.6374884E-01
   7145.33  5.5178931E-01
   7145.67  5.4022230E-01
   7146.00  5.2931876E-01
   7146.33  5.1945425E-01
   7146.67  5.1070034E-01
   7147.00  5.0315065E-01
   7147.33  4.9698586E-01
   7147.67  4.9199957E-01
   7148.00  4.8810204E-01
   7148.33  4.8527913E-01
   7148.67  4.8325398E-01
   7149.00  4.8188527E-01
   7149.33  4.8108896E-01
   7149.67  4.8069110E-01
   7150.00  4.8063052E-01
   7150.33  4.8091019E-01
   7150.67  4.8150481E-01
   7151.00  4.8245655E-01
   7151.33  4.8388231E-01
   7151.67  4.8578965E-01
   7152.00  4.8821220E-01
   7152.33  4.9122055E-01
   7152.67  4.9471646E-01
   7153.00  4.9864214E-01
   7153.33  5.0294465E-01
   7153.67  5.0747252E-01
   7154.00  5.1213185E-01
   7154.33  5.1682382E-01
   7154.67  5.2146092E-01
   7155.00  5.2599221E-01
   7155.33  5.3036568E-01
   7155.67  5.3458531E-01
   7156.00  5.3864929E-01
   7156.33  5.4253948E-01
   7156.67  5.4627248E-01
   7157.00  5.4983867E-01
   7157.33  5.5319101E-01
   7157.67  5.5631470E-01
   7158.00  5.5916685E-01
   7158.33  5.6164957E-01
   7158.67  5.6374381E-01
   7159.00  5.6539916E-01
   7159.33  5.6650199E-01
   7159.67  5.6707263E-01
   7160.00  5.6708670E-01
   7160.33  5.6645703E-01
   7160.67  5.6525200E-01
   7161.00  5.6347781E-01
   7161.33  5.6107908E-01
   7161.67  5.5814187E-01
   7162.00  5.5468464E-01
   7162.33  5.5066919E-01
   7162.67  5.4617977E-01
   7163.00  5.4123848E-01
   7163.33  5.3582553E-01
   7163.67  5.3003559E-01
   7164.00  5.2391340E-01
   7164.33  5.1748602E-01
   7164.67  5.1085680E-01
   7165.00  5.0409199E-01
   7165.33  4.9726893E-01
   7165.67  4.9048218E-01
   7166.00  4.8380776E-01
   7166.33  4.7735597E-01
   7166.67  4.7118035E-01
   7167.00  4.6533806E-01
   7167.33  4.5992827E-01
   7167.67  4.5493669E-01
   7168.00  4.5037817E-01
   7168.33  4.4630974E-01
   7168.67  4.4266933E-01
   7169.00  4.3943953E-01
   7169.33  4.3663517E-01
   7169.67  4.3417334E-01
   7170.00  4.3202410E-01
   7170.33  4.3018968E-01
   7170.67  4.2860669E-01
   7171.00  4.2725517E-01
   7171.33  4.2614358E-01
   7171.67  4.2523228E-01
   7172.00  4.2451172E-01
