    FDMNES
    energy     <xanes>
   7097.00  5.0584392E-03
   7097.33  5.1793279E-03
   7097.67  5.3057176E-03
   7098.00  5.4379838E-03
   7098.33  5.5774065E-03
   7098.67  5.7237318E-03
   7099.00  5.8774752E-03
   7099.33  6.0403190E-03
   7099.67  6.2120091E-03
   7100.00  6.3932738E-03
   7100.33  6.5863878E-03
   7100.67  6.7911284E-03
   7101.00  7.0085605E-03
   7101.33  7.2418665E-03
   7101.67  7.4909260E-03
   7102.00  7.7573614E-03
   7102.33  8.0458136E-03
   7102.67  8.3564236E-03
   7103.00  8.6917900E-03
   7103.33  9.0590380E-03
   7103.67  9.4589403E-03
   7104.00  9.8959266E-03
   7104.33  1.0381667E-02
   7104.67  1.0918486E-02
   7105.00  1.1514552E-02
   7105.33  1.2190652E-02
   7105.67  1.2953157E-02
   7106.00  1.3818773E-02
   7106.33  1.4828915E-02
   7106.67  1.6001713E-02
   7107.00  1.7376528E-02
   7107.33  1.9049913E-02
   7107.67  2.1080482E-02
   7108.00  2.3582114E-02
   7108.33  2.6839391E-02
   7108.67  3.1093154E-02
   7109.00  3.6796924E-02
   7109.33  4.5172082E-02
   7109.67  5.7708499E-02
   7110.00  7.7357621E-02
   7110.33  1.1258186E-01
   7110.67  1.7034525E-01
   7111.00  2.4145681E-01
   7111.33  2.8174939E-01
   7111.67  2.9528220E-01
   7112.00  3.0302114E-01
   7112.33  3.0294806E-01
   7112.67  2.8554990E-01
   7113.00  2.5605935E-01
   7113.33  2.2664218E-01
   7113.67  2.0282228E-01
   7114.00  1.8592474E-01
   7114.33  1.7592492E-01
   7114.67  1.6748085E-01
   7115.00  1.5652074E-01
   7115.33  1.4365532E-01
   7115.67  1.3227410E-01
   7116.00  1.2393635E-01
   7116.33  1.1995409E-01
   7116.67  1.1997572E-01
   7117.00  1.2377772E-01
   7117.33  1.3145942E-01
   7117.67  1.4228452E-01
   7118.00  1.5548621E-01
   7118.33  1.6843416E-01
   7118.67  1.7815106E-01
   7119.00  1.8505130E-01
   7119.33  1.9302059E-01
   7119.67  2.0487273E-01
   7120.00  2.2105272E-01
   7120.33  2.4137529E-01
   7120.67  2.6447144E-01
   7121.00  2.8939712E-01
   7121.33  3.1545327E-01
   7121.67  3.4291981E-01
   7122.00  3.7317387E-01
   7122.33  4.0756090E-01
   7122.67  4.4216201E-01
   7123.00  4.7045148E-01
   7123.33  4.8710115E-01
   7123.67  4.9686502E-01
   7124.00  5.0421664E-01
   7124.33  5.1298488E-01
   7124.67  5.2585784E-01
   7125.00  5.4472949E-01
   7125.33  5.7069152E-01
   7125.67  5.9998974E-01
   7126.00  6.2770572E-01
   7126.33  6.4688846E-01
   7126.67  6.5540612E-01
   7127.00  6.5413725E-01
   7127.33  6.4641129E-01
   7127.67  6.3811175E-01
   7128.00  6.3328593E-01
   7128.33  6.3627647E-01
   7128.67  6.4763141E-01
   7129.00  6.6658561E-01
   7129.33  6.9080230E-01
   7129.67  7.1510762E-01
   7130.00  7.3475831E-01
   7130.33  7.4375681E-01
   7130.67  7.4143667E-01
   7131.00  7.2903630E-01
   7131.33  7.0906258E-01
   7131.67  6.8602655E-01
   7132.00  6.6245258E-01
   7132.33  6.4035814E-01
   7132.67  6.2049466E-01
   7133.00  6.0337225E-01
   7133.33  5.9020745E-01
   7133.67  5.8142022E-01
   7134.00  5.7725529E-01
   7134.33  5.7743600E-01
   7134.67  5.8002416E-01
   7135.00  5.8386129E-01
   7135.33  5.8814974E-01
   7135.67  5.9247874E-01
   7136.00  5.9676734E-01
   7136.33  6.0092087E-01
   7136.67  6.0460719E-01
   7137.00  6.0729830E-01
   7137.33  6.0810784E-01
   7137.67  6.0675113E-01
   7138.00  6.0310967E-01
   7138.33  5.9712583E-01
   7138.67  5.8948232E-01
   7139.00  5.8063987E-01
   7139.33  5.7117270E-01
   7139.67  5.6187141E-01
   7140.00  5.5331954E-01
   7140.33  5.4615997E-01
   7140.67  5.4041127E-01
   7141.00  5.3593993E-01
   7141.33  5.3239406E-01
   7141.67  5.2899789E-01
   7142.00  5.2513429E-01
   7142.33  5.2010286E-01
   7142.67  5.1377924E-01
   7143.00  5.0623342E-01
   7143.33  4.9768573E-01
   7143.67  4.8869256E-01
   7144.00  4.7961512E-01
   7144.33  4.7081831E-01
   7144.67  4.6251869E-01
   7145.00  4.5487995E-01
   7145.33  4.4815452E-01
   7145.67  4.4235978E-01
   7146.00  4.3757591E-01
   7146.33  4.3400600E-01
   7146.67  4.3153358E-01
   7147.00  4.3012237E-01
   7147.33  4.2980494E-01
   7147.67  4.3034932E-01
   7148.00  4.3165937E-01
   7148.33  4.3370958E-01
   7148.67  4.3630169E-01
   7149.00  4.3931411E-01
   7149.33  4.4261147E-01
   7149.67  4.4598643E-01
   7150.00  4.4930066E-01
   7150.33  4.5239976E-01
   7150.67  4.5521151E-01
   7151.00  4.5767217E-01
   7151.33  4.5966019E-01
   7151.67  4.6114755E-01
   7152.00  4.6204775E-01
   7152.33  4.6215916E-01
   7152.67  4.6146214E-01
   7153.00  4.5988792E-01
   7153.33  4.5728614E-01
   7153.67  4.5378884E-01
   7154.00  4.4945118E-01
   7154.33  4.4427920E-01
   7154.67  4.3848845E-01
   7155.00  4.3219450E-01
   7155.33  4.2549048E-01
   7155.67  4.1856045E-01
   7156.00  4.1151978E-01
   7156.33  4.0449698E-01
   7156.67  3.9760507E-01
   7157.00  3.9093053E-01
   7157.33  3.8459424E-01
   7157.67  3.7862281E-01
   7158.00  3.7305658E-01
   7158.33  3.6798107E-01
   7158.67  3.6335851E-01
   7159.00  3.5919495E-01
   7159.33  3.5554792E-01
   7159.67  3.5235554E-01
   7160.00  3.4960698E-01
   7160.33  3.4733027E-01
   7160.67  3.4543796E-01
   7161.00  3.4389256E-01
   7161.33  3.4268130E-01
   7161.67  3.4171349E-01
   7162.00  3.4094085E-01
   7162.33  3.4032665E-01
   7162.67  3.3981060E-01
   7163.00  3.3937072E-01
   7163.33  3.3900838E-01
   7163.67  3.3872547E-01
   7164.00  3.3854387E-01
   7164.33  3.3851850E-01
   7164.67  3.3867802E-01
   7165.00  3.3906495E-01
   7165.33  3.3976253E-01
   7165.67  3.4077975E-01
   7166.00  3.4214721E-01
   7166.33  3.4393879E-01
   7166.67  3.4612489E-01
   7167.00  3.4871369E-01
   7167.33  3.5175841E-01
   7167.67  3.5520411E-01
   7168.00  3.5904196E-01
   7168.33  3.6330323E-01
   7168.67  3.6791801E-01
   7169.00  3.7285964E-01
   7169.33  3.7812502E-01
   7169.67  3.8362956E-01
   7170.00  3.8932287E-01
   7170.33  3.9514935E-01
   7170.67  4.0100580E-01
   7171.00  4.0679152E-01
   7171.33  4.1230248E-01
   7171.67  4.1728012E-01
   7172.00  4.2136168E-01
