    FDMNES
    energy     <xanes>
   7097.00  4.7940180E-03
   7097.33  4.9059034E-03
   7097.67  5.0229252E-03
   7098.00  5.1454443E-03
   7098.33  5.2746725E-03
   7098.67  5.4103869E-03
   7099.00  5.5530867E-03
   7099.33  5.7043780E-03
   7099.67  5.8640433E-03
   7100.00  6.0327942E-03
   7100.33  6.2128220E-03
   7100.67  6.4039489E-03
   7101.00  6.6072243E-03
   7101.33  6.8257445E-03
   7101.67  7.0594451E-03
   7102.00  7.3099395E-03
   7102.33  7.5817893E-03
   7102.67  7.8752093E-03
   7103.00  8.1928058E-03
   7103.33  8.5416531E-03
   7103.67  8.9226291E-03
   7104.00  9.3402085E-03
   7104.33  9.8060886E-03
   7104.67  1.0322756E-02
   7105.00  1.0898508E-02
   7105.33  1.1554342E-02
   7105.67  1.2296901E-02
   7106.00  1.3143205E-02
   7106.33  1.4135281E-02
   7106.67  1.5291742E-02
   7107.00  1.6652623E-02
   7107.33  1.8315857E-02
   7107.67  2.0340766E-02
   7108.00  2.2842213E-02
   7108.33  2.6106313E-02
   7108.67  3.0372199E-02
   7109.00  3.6088778E-02
   7109.33  4.4457333E-02
   7109.67  5.6916265E-02
   7110.00  7.6304487E-02
   7110.33  1.1080928E-01
   7110.67  1.6816877E-01
   7111.00  2.4426069E-01
   7111.33  2.9921717E-01
   7111.67  3.1907333E-01
   7112.00  3.2271387E-01
   7112.33  3.2222654E-01
   7112.67  3.1131416E-01
   7113.00  2.9152284E-01
   7113.33  2.6143284E-01
   7113.67  2.2609217E-01
   7114.00  1.9183969E-01
   7114.33  1.6328007E-01
   7114.67  1.4105791E-01
   7115.00  1.2435288E-01
   7115.33  1.1041744E-01
   7115.67  9.7325670E-02
   7116.00  8.6161607E-02
   7116.33  7.8409651E-02
   7116.67  7.3681979E-02
   7117.00  7.1675039E-02
   7117.33  7.2427939E-02
   7117.67  7.5480497E-02
   7118.00  8.0704558E-02
   7118.33  8.8244217E-02
   7118.67  9.7386703E-02
   7119.00  1.0659660E-01
   7119.33  1.1314199E-01
   7119.67  1.1680144E-01
   7120.00  1.1895448E-01
   7120.33  1.2138944E-01
   7120.67  1.2508758E-01
   7121.00  1.3061124E-01
   7121.33  1.3864079E-01
   7121.67  1.4905216E-01
   7122.00  1.6206150E-01
   7122.33  1.7845082E-01
   7122.67  1.9795054E-01
   7123.00  2.2022288E-01
   7123.33  2.4501384E-01
   7123.67  2.7110560E-01
   7124.00  2.9690569E-01
   7124.33  3.2008398E-01
   7124.67  3.3971707E-01
   7125.00  3.5598340E-01
   7125.33  3.7040980E-01
   7125.67  3.8478117E-01
   7126.00  3.9944064E-01
   7126.33  4.1470596E-01
   7126.67  4.3112584E-01
   7127.00  4.4913245E-01
   7127.33  4.6935238E-01
   7127.67  4.9193312E-01
   7128.00  5.1668608E-01
   7128.33  5.4226073E-01
   7128.67  5.6662335E-01
   7129.00  5.8898625E-01
   7129.33  6.1001408E-01
   7129.67  6.3211191E-01
   7130.00  6.5782220E-01
   7130.33  6.9009394E-01
   7130.67  7.2677530E-01
   7131.00  7.6224369E-01
   7131.33  7.8697521E-01
   7131.67  7.9887588E-01
   7132.00  8.0072452E-01
   7132.33  7.9755661E-01
   7132.67  7.9429236E-01
   7133.00  7.9278307E-01
   7133.33  7.9366164E-01
   7133.67  7.9599194E-01
   7134.00  7.9900991E-01
   7134.33  8.0206953E-01
   7134.67  8.0476817E-01
   7135.00  8.0666515E-01
   7135.33  8.0667491E-01
   7135.67  8.0391107E-01
   7136.00  7.9766736E-01
   7136.33  7.8757618E-01
   7136.67  7.7530475E-01
   7137.00  7.6255942E-01
   7137.33  7.5154917E-01
   7137.67  7.4349676E-01
   7138.00  7.3890009E-01
   7138.33  7.3788957E-01
   7138.67  7.3896911E-01
   7139.00  7.4061972E-01
   7139.33  7.4039903E-01
   7139.67  7.3625646E-01
   7140.00  7.2678504E-01
   7140.33  7.1083099E-01
   7140.67  6.9012697E-01
   7141.00  6.6637427E-01
   7141.33  6.4173011E-01
   7141.67  6.1825189E-01
   7142.00  5.9715058E-01
   7142.33  5.7967416E-01
   7142.67  5.6575932E-01
   7143.00  5.5538707E-01
   7143.33  5.4866178E-01
   7143.67  5.4464092E-01
   7144.00  5.4272637E-01
   7144.33  5.4230237E-01
   7144.67  5.4242051E-01
   7145.00  5.4247401E-01
   7145.33  5.4181498E-01
   7145.67  5.4015570E-01
   7146.00  5.3737953E-01
   7146.33  5.3345618E-01
   7146.67  5.2879331E-01
   7147.00  5.2372028E-01
   7147.33  5.1862607E-01
   7147.67  5.1382421E-01
   7148.00  5.0950515E-01
   7148.33  5.0587016E-01
   7148.67  5.0286317E-01
   7149.00  5.0044164E-01
   7149.33  4.9858064E-01
   7149.67  4.9711780E-01
   7150.00  4.9597377E-01
   7150.33  4.9510573E-01
   7150.67  4.9443280E-01
   7151.00  4.9392811E-01
   7151.33  4.9359040E-01
   7151.67  4.9338445E-01
   7152.00  4.9329139E-01
   7152.33  4.9328679E-01
   7152.67  4.9331030E-01
   7153.00  4.9330711E-01
   7153.33  4.9319382E-01
   7153.67  4.9291423E-01
   7154.00  4.9242232E-01
   7154.33  4.9165994E-01
   7154.67  4.9066057E-01
   7155.00  4.8944877E-01
   7155.33  4.8804568E-01
   7155.67  4.8651449E-01
   7156.00  4.8487995E-01
   7156.33  4.8313757E-01
   7156.67  4.8128352E-01
   7157.00  4.7929086E-01
   7157.33  4.7710032E-01
   7157.67  4.7470058E-01
   7158.00  4.7207188E-01
   7158.33  4.6917381E-01
   7158.67  4.6603820E-01
   7159.00  4.6267439E-01
   7159.33  4.5907493E-01
   7159.67  4.5529249E-01
   7160.00  4.5135591E-01
   7160.33  4.4729302E-01
   7160.67  4.4316646E-01
   7161.00  4.3901971E-01
   7161.33  4.3490316E-01
   7161.67  4.3085250E-01
   7162.00  4.2689231E-01
   7162.33  4.2305180E-01
   7162.67  4.1932650E-01
   7163.00  4.1572428E-01
   7163.33  4.1227301E-01
   7163.67  4.0897087E-01
   7164.00  4.0583435E-01
   7164.33  4.0290849E-01
   7164.67  4.0019370E-01
   7165.00  3.9771118E-01
   7165.33  3.9551540E-01
   7165.67  3.9359325E-01
   7166.00  3.9195720E-01
   7166.33  3.9065299E-01
   7166.67  3.8964549E-01
   7167.00  3.8893073E-01
   7167.33  3.8853412E-01
   7167.67  3.8840617E-01
   7168.00  3.8853173E-01
   7168.33  3.8891882E-01
   7168.67  3.8951635E-01
   7169.00  3.9030621E-01
   7169.33  3.9129026E-01
   7169.67  3.9242826E-01
   7170.00  3.9370474E-01
   7170.33  3.9511609E-01
   7170.67  3.9662467E-01
   7171.00  3.9820226E-01
   7171.33  3.9979353E-01
   7171.67  4.0128810E-01
   7172.00  4.0253801E-01
