    FDMNES
    energy     <xanes>
   7097.00  4.7798443E-03
   7097.33  4.8911542E-03
   7097.67  5.0075215E-03
   7098.00  5.1292956E-03
   7098.33  5.2576597E-03
   7098.67  5.3923860E-03
   7099.00  5.5339548E-03
   7099.33  5.6839259E-03
   7099.67  5.8420722E-03
   7100.00  6.0090739E-03
   7100.33  6.1870448E-03
   7100.67  6.3757882E-03
   7101.00  6.5762991E-03
   7101.33  6.7915394E-03
   7101.67  7.0214068E-03
   7102.00  7.2674154E-03
   7102.33  7.5338847E-03
   7102.67  7.8209494E-03
   7103.00  8.1310251E-03
   7103.33  8.4707257E-03
   7103.67  8.8407503E-03
   7104.00  9.2451826E-03
   7104.33  9.6947837E-03
   7104.67  1.0191611E-02
   7105.00  1.0743091E-02
   7105.33  1.1368144E-02
   7105.67  1.2072280E-02
   7106.00  1.2870353E-02
   7106.33  1.3799216E-02
   7106.67  1.4874072E-02
   7107.00  1.6128714E-02
   7107.33  1.7645897E-02
   7107.67  1.9472604E-02
   7108.00  2.1701455E-02
   7108.33  2.4561944E-02
   7108.67  2.8234372E-02
   7109.00  3.3058061E-02
   7109.33  3.9927625E-02
   7109.67  4.9854019E-02
   7110.00  6.4815555E-02
   7110.33  9.0488634E-02
   7110.67  1.3281407E-01
   7111.00  1.9294009E-01
   7111.33  2.5391152E-01
   7111.67  2.9919624E-01
   7112.00  3.2911036E-01
   7112.33  3.5287502E-01
   7112.67  3.5761686E-01
   7113.00  3.3994209E-01
   7113.33  3.1367801E-01
   7113.67  2.7427081E-01
   7114.00  2.2661464E-01
   7114.33  1.8527709E-01
   7114.67  1.5450611E-01
   7115.00  1.3382990E-01
   7115.33  1.1991793E-01
   7115.67  1.0701770E-01
   7116.00  9.5123790E-02
   7116.33  8.5940971E-02
   7116.67  7.9408341E-02
   7117.00  7.5621685E-02
   7117.33  7.5171963E-02
   7117.67  7.7938275E-02
   7118.00  8.3862436E-02
   7118.33  9.2070920E-02
   7118.67  1.0012064E-01
   7119.00  1.0622967E-01
   7119.33  1.0947253E-01
   7119.67  1.1157022E-01
   7120.00  1.1377715E-01
   7120.33  1.1652056E-01
   7120.67  1.1991728E-01
   7121.00  1.2457300E-01
   7121.33  1.3166550E-01
   7121.67  1.4156479E-01
   7122.00  1.5459218E-01
   7122.33  1.7142444E-01
   7122.67  1.9196553E-01
   7123.00  2.1672496E-01
   7123.33  2.4670161E-01
   7123.67  2.8017382E-01
   7124.00  3.1387874E-01
   7124.33  3.4126989E-01
   7124.67  3.5936629E-01
   7125.00  3.6966693E-01
   7125.33  3.7653983E-01
   7125.67  3.8478155E-01
   7126.00  3.9695851E-01
   7126.33  4.1490348E-01
   7126.67  4.3752840E-01
   7127.00  4.6380066E-01
   7127.33  4.9236755E-01
   7127.67  5.2092175E-01
   7128.00  5.4781263E-01
   7128.33  5.7187947E-01
   7128.67  5.9404196E-01
   7129.00  6.1569913E-01
   7129.33  6.3880433E-01
   7129.67  6.6374983E-01
   7130.00  6.8934896E-01
   7130.33  7.1314289E-01
   7130.67  7.3390696E-01
   7131.00  7.5132405E-01
   7131.33  7.6447297E-01
   7131.67  7.7274394E-01
   7132.00  7.7558952E-01
   7132.33  7.7381366E-01
   7132.67  7.7108177E-01
   7133.00  7.7001360E-01
   7133.33  7.7207994E-01
   7133.67  7.7562224E-01
   7134.00  7.7851444E-01
   7134.33  7.7854345E-01
   7134.67  7.7593886E-01
   7135.00  7.7194607E-01
   7135.33  7.6807949E-01
   7135.67  7.6453489E-01
   7136.00  7.6051960E-01
   7136.33  7.5485652E-01
   7136.67  7.4748110E-01
   7137.00  7.3885318E-01
   7137.33  7.2989784E-01
   7137.67  7.2167241E-01
   7138.00  7.1487650E-01
   7138.33  7.1017789E-01
   7138.67  7.0724560E-01
   7139.00  7.0553420E-01
   7139.33  7.0398753E-01
   7139.67  7.0130949E-01
   7140.00  6.9651072E-01
   7140.33  6.8846567E-01
   7140.67  6.7732291E-01
   7141.00  6.6335513E-01
   7141.33  6.4706730E-01
   7141.67  6.2980357E-01
   7142.00  6.1258048E-01
   7142.33  5.9654425E-01
   7142.67  5.8217763E-01
   7143.00  5.6962670E-01
   7143.33  5.5888295E-01
   7143.67  5.4931829E-01
   7144.00  5.4057876E-01
   7144.33  5.3249841E-01
   7144.67  5.2497797E-01
   7145.00  5.1810655E-01
   7145.33  5.1211796E-01
   7145.67  5.0701624E-01
   7146.00  5.0283899E-01
   7146.33  4.9968583E-01
   7146.67  4.9737311E-01
   7147.00  4.9579837E-01
   7147.33  4.9487474E-01
   7147.67  4.9434264E-01
   7148.00  4.9404075E-01
   7148.33  4.9380138E-01
   7148.67  4.9346797E-01
   7149.00  4.9294870E-01
   7149.33  4.9214542E-01
   7149.67  4.9105946E-01
   7150.00  4.8969048E-01
   7150.33  4.8802983E-01
   7150.67  4.8615209E-01
   7151.00  4.8410261E-01
   7151.33  4.8192608E-01
   7151.67  4.7970087E-01
   7152.00  4.7748790E-01
   7152.33  4.7537834E-01
   7152.67  4.7345029E-01
   7153.00  4.7178684E-01
   7153.33  4.7053139E-01
   7153.67  4.6972825E-01
   7154.00  4.6943910E-01
   7154.33  4.6977734E-01
   7154.67  4.7067608E-01
   7155.00  4.7209820E-01
   7155.33  4.7400355E-01
   7155.67  4.7619097E-01
   7156.00  4.7849702E-01
   7156.33  4.8069067E-01
   7156.67  4.8255766E-01
   7157.00  4.8391493E-01
   7157.33  4.8450011E-01
   7157.67  4.8428573E-01
   7158.00  4.8323338E-01
   7158.33  4.8126063E-01
   7158.67  4.7854631E-01
   7159.00  4.7518819E-01
   7159.33  4.7125881E-01
   7159.67  4.6696735E-01
   7160.00  4.6243716E-01
   7160.33  4.5778803E-01
   7160.67  4.5315161E-01
   7161.00  4.4861566E-01
   7161.33  4.4428466E-01
   7161.67  4.4019141E-01
   7162.00  4.3635979E-01
   7162.33  4.3281769E-01
   7162.67  4.2950250E-01
   7163.00  4.2638057E-01
   7163.33  4.2342800E-01
   7163.67  4.2058597E-01
   7164.00  4.1782754E-01
   7164.33  4.1514164E-01
   7164.67  4.1251519E-01
   7165.00  4.0995327E-01
   7165.33  4.0748015E-01
   7165.67  4.0510867E-01
   7166.00  4.0286375E-01
   7166.33  4.0079798E-01
   7166.67  3.9892589E-01
   7167.00  3.9727620E-01
   7167.33  3.9590909E-01
   7167.67  3.9481324E-01
   7168.00  3.9399656E-01
   7168.33  3.9349146E-01
   7168.67  3.9325097E-01
   7169.00  3.9325839E-01
   7169.33  3.9351701E-01
   7169.67  3.9397084E-01
   7170.00  3.9459492E-01
   7170.33  3.9537799E-01
   7170.67  3.9627266E-01
   7171.00  3.9724962E-01
   7171.33  3.9826498E-01
   7171.67  3.9923224E-01
   7172.00  4.0004321E-01
