    FDMNES
    energy     <xanes>
   7097.00  4.3872453E-03
   7097.33  4.4823524E-03
   7097.67  4.5816150E-03
   7098.00  4.6853130E-03
   7098.33  4.7944062E-03
   7098.67  4.9086970E-03
   7099.00  5.0285673E-03
   7099.33  5.1552727E-03
   7099.67  5.2886119E-03
   7100.00  5.4291207E-03
   7100.33  5.5784853E-03
   7100.67  5.7365211E-03
   7101.00  5.9040028E-03
   7101.33  6.0832678E-03
   7101.67  6.2741915E-03
   7102.00  6.4779374E-03
   7102.33  6.6978686E-03
   7102.67  6.9340179E-03
   7103.00  7.1882116E-03
   7103.33  7.4655143E-03
   7103.67  7.7663367E-03
   7104.00  8.0937056E-03
   7104.33  8.4556919E-03
   7104.67  8.8536101E-03
   7105.00  9.2928314E-03
   7105.33  9.7871797E-03
   7105.67  1.0340230E-02
   7106.00  1.0962401E-02
   7106.33  1.1679736E-02
   7106.67  1.2501996E-02
   7107.00  1.3451981E-02
   7107.33  1.4585718E-02
   7107.67  1.5932530E-02
   7108.00  1.7551871E-02
   7108.33  1.9590627E-02
   7108.67  2.2156338E-02
   7109.00  2.5453220E-02
   7109.33  3.0013252E-02
   7109.67  3.6403067E-02
   7110.00  4.5726009E-02
   7110.33  6.1125226E-02
   7110.67  8.6041865E-02
   7111.00  1.2232812E-01
   7111.33  1.6404472E-01
   7111.67  2.0445388E-01
   7112.00  2.3975771E-01
   7112.33  2.5954477E-01
   7112.67  2.7260278E-01
   7113.00  2.9525851E-01
   7113.33  3.2942623E-01
   7113.67  3.3911562E-01
   7114.00  3.0331281E-01
   7114.33  2.4553932E-01
   7114.67  1.9612298E-01
   7115.00  1.6046021E-01
   7115.33  1.3829022E-01
   7115.67  1.2460827E-01
   7116.00  1.1490805E-01
   7116.33  1.0500965E-01
   7116.67  9.5451374E-02
   7117.00  8.7756896E-02
   7117.33  8.2915257E-02
   7117.67  8.0492558E-02
   7118.00  8.0136516E-02
   7118.33  8.1418851E-02
   7118.67  8.3404775E-02
   7119.00  8.5529092E-02
   7119.33  8.7263722E-02
   7119.67  8.8612517E-02
   7120.00  9.0113450E-02
   7120.33  9.2566008E-02
   7120.67  9.6123485E-02
   7121.00  1.0078700E-01
   7121.33  1.0664814E-01
   7121.67  1.1353671E-01
   7122.00  1.2146287E-01
   7122.33  1.3067983E-01
   7122.67  1.4117610E-01
   7123.00  1.5295426E-01
   7123.33  1.6606944E-01
   7123.67  1.8029560E-01
   7124.00  1.9546118E-01
   7124.33  2.1099298E-01
   7124.67  2.2621362E-01
   7125.00  2.4116162E-01
   7125.33  2.5639916E-01
   7125.67  2.7225165E-01
   7126.00  2.8872278E-01
   7126.33  3.0565845E-01
   7126.67  3.2275154E-01
   7127.00  3.3980046E-01
   7127.33  3.5625998E-01
   7127.67  3.7083324E-01
   7128.00  3.8162640E-01
   7128.33  3.8626232E-01
   7128.67  3.8592165E-01
   7129.00  3.8277978E-01
   7129.33  3.7998531E-01
   7129.67  3.7993980E-01
   7130.00  3.8387091E-01
   7130.33  3.9296813E-01
   7130.67  4.0662125E-01
   7131.00  4.2429618E-01
   7131.33  4.4505992E-01
   7131.67  4.6668922E-01
   7132.00  4.8750774E-01
   7132.33  5.0595608E-01
   7132.67  5.2190967E-01
   7133.00  5.3559816E-01
   7133.33  5.4757154E-01
   7133.67  5.5902912E-01
   7134.00  5.7080322E-01
   7134.33  5.8356665E-01
   7134.67  5.9700249E-01
   7135.00  6.1038006E-01
   7135.33  6.2262955E-01
   7135.67  6.3333858E-01
   7136.00  6.4241563E-01
   7136.33  6.4972253E-01
   7136.67  6.5550382E-01
   7137.00  6.5979244E-01
   7137.33  6.6254249E-01
   7137.67  6.6422054E-01
   7138.00  6.6521752E-01
   7138.33  6.6604361E-01
   7138.67  6.6718338E-01
   7139.00  6.6888426E-01
   7139.33  6.7129456E-01
   7139.67  6.7423504E-01
   7140.00  6.7758180E-01
   7140.33  6.8126154E-01
   7140.67  6.8513166E-01
   7141.00  6.8904741E-01
   7141.33  6.9273168E-01
   7141.67  6.9590868E-01
   7142.00  6.9833635E-01
   7142.33  6.9969510E-01
   7142.67  7.0002258E-01
   7143.00  6.9935046E-01
   7143.33  6.9770706E-01
   7143.67  6.9540754E-01
   7144.00  6.9265373E-01
   7144.33  6.8963244E-01
   7144.67  6.8652087E-01
   7145.00  6.8336581E-01
   7145.33  6.8012643E-01
   7145.67  6.7673244E-01
   7146.00  6.7312081E-01
   7146.33  6.6922937E-01
   7146.67  6.6511232E-01
   7147.00  6.6082392E-01
   7147.33  6.5644365E-01
   7147.67  6.5208830E-01
   7148.00  6.4782948E-01
   7148.33  6.4372815E-01
   7148.67  6.3979637E-01
   7149.00  6.3604609E-01
   7149.33  6.3248178E-01
   7149.67  6.2903424E-01
   7150.00  6.2564071E-01
   7150.33  6.2220986E-01
   7150.67  6.1865863E-01
   7151.00  6.1492371E-01
   7151.33  6.1092533E-01
   7151.67  6.0667290E-01
   7152.00  6.0217466E-01
   7152.33  5.9744006E-01
   7152.67  5.9255397E-01
   7153.00  5.8758086E-01
   7153.33  5.8260728E-01
   7153.67  5.7772771E-01
   7154.00  5.7302571E-01
   7154.33  5.6863038E-01
   7154.67  5.6459396E-01
   7155.00  5.6097761E-01
   7155.33  5.5788815E-01
   7155.67  5.5528512E-01
   7156.00  5.5315705E-01
   7156.33  5.5150754E-01
   7156.67  5.5019504E-01
   7157.00  5.4911902E-01
   7157.33  5.4815832E-01
   7157.67  5.4716230E-01
   7158.00  5.4602090E-01
   7158.33  5.4459495E-01
   7158.67  5.4283966E-01
   7159.00  5.4071833E-01
   7159.33  5.3817465E-01
   7159.67  5.3527772E-01
   7160.00  5.3206606E-01
   7160.33  5.2856850E-01
   7160.67  5.2488379E-01
   7161.00  5.2106452E-01
   7161.33  5.1715422E-01
   7161.67  5.1320990E-01
   7162.00  5.0926884E-01
   7162.33  5.0537426E-01
   7162.67  5.0154927E-01
   7163.00  4.9781119E-01
   7163.33  4.9419181E-01
   7163.67  4.9070034E-01
   7164.00  4.8735690E-01
   7164.33  4.8420220E-01
   7164.67  4.8123006E-01
   7165.00  4.7844967E-01
   7165.33  4.7589242E-01
   7165.67  4.7353723E-01
   7166.00  4.7138656E-01
   7166.33  4.6946968E-01
   7166.67  4.6776524E-01
   7167.00  4.6627829E-01
   7167.33  4.6504363E-01
   7167.67  4.6403982E-01
   7168.00  4.6327079E-01
   7168.33  4.6276753E-01
   7168.67  4.6249837E-01
   7169.00  4.6245866E-01
   7169.33  4.6266727E-01
   7169.67  4.6308415E-01
   7170.00  4.6369528E-01
   7170.33  4.6450122E-01
   7170.67  4.6545196E-01
   7171.00  4.6651381E-01
   7171.33  4.6763391E-01
   7171.67  4.6870694E-01
   7172.00  4.6960822E-01
