    FDMNES
    energy     <xanes>
   7097.00  4.8229705E-03
   7097.33  4.9342290E-03
   7097.67  5.0503637E-03
   7098.00  5.1716970E-03
   7098.33  5.2993455E-03
   7098.67  5.4330693E-03
   7099.00  5.5733075E-03
   7099.33  5.7215149E-03
   7099.67  5.8774469E-03
   7100.00  6.0417179E-03
   7100.33  6.2162768E-03
   7100.67  6.4008976E-03
   7101.00  6.5964698E-03
   7101.33  6.8056911E-03
   7101.67  7.0284077E-03
   7102.00  7.2659599E-03
   7102.33  7.5222340E-03
   7102.67  7.7972690E-03
   7103.00  8.0931846E-03
   7103.33  8.4158629E-03
   7103.67  8.7658150E-03
   7104.00  9.1465994E-03
   7104.33  9.5676898E-03
   7104.67  1.0030753E-02
   7105.00  1.0542232E-02
   7105.33  1.1118659E-02
   7105.67  1.1764678E-02
   7106.00  1.2493164E-02
   7106.33  1.3336212E-02
   7106.67  1.4306928E-02
   7107.00  1.5434737E-02
   7107.33  1.6791916E-02
   7107.67  1.8419750E-02
   7108.00  2.0399824E-02
   7108.33  2.2934971E-02
   7108.67  2.6187126E-02
   7109.00  3.0461622E-02
   7109.33  3.6568267E-02
   7109.67  4.5440874E-02
   7110.00  5.8913705E-02
   7110.33  8.2259233E-02
   7110.67  1.2078851E-01
   7111.00  1.7425647E-01
   7111.33  2.2350744E-01
   7111.67  2.5525774E-01
   7112.00  2.7778621E-01
   7112.33  2.8862852E-01
   7112.67  2.7161045E-01
   7113.00  2.3942643E-01
   7113.33  2.1162156E-01
   7113.67  1.8995934E-01
   7114.00  1.7274175E-01
   7114.33  1.6072422E-01
   7114.67  1.5339576E-01
   7115.00  1.4818814E-01
   7115.33  1.4054207E-01
   7115.67  1.3043880E-01
   7116.00  1.2036099E-01
   7116.33  1.1315691E-01
   7116.67  1.0961495E-01
   7117.00  1.0989548E-01
   7117.33  1.1429448E-01
   7117.67  1.2212711E-01
   7118.00  1.3309502E-01
   7118.33  1.4609790E-01
   7118.67  1.5768848E-01
   7119.00  1.6547372E-01
   7119.33  1.7102858E-01
   7119.67  1.7907006E-01
   7120.00  1.9144050E-01
   7120.33  2.0841655E-01
   7120.67  2.2968143E-01
   7121.00  2.5598432E-01
   7121.33  2.8756396E-01
   7121.67  3.2182617E-01
   7122.00  3.5660563E-01
   7122.33  3.9044428E-01
   7122.67  4.2266646E-01
   7123.00  4.5087981E-01
   7123.33  4.7143619E-01
   7123.67  4.8597546E-01
   7124.00  4.9641828E-01
   7124.33  5.0445971E-01
   7124.67  5.1314981E-01
   7125.00  5.2553092E-01
   7125.33  5.4495799E-01
   7125.67  5.7015655E-01
   7126.00  5.9741450E-01
   7126.33  6.1971453E-01
   7126.67  6.3356958E-01
   7127.00  6.3971231E-01
   7127.33  6.4062034E-01
   7127.67  6.3917105E-01
   7128.00  6.3695718E-01
   7128.33  6.3652611E-01
   7128.67  6.3987817E-01
   7129.00  6.4791274E-01
   7129.33  6.6064596E-01
   7129.67  6.7569209E-01
   7130.00  6.9090663E-01
   7130.33  7.0339843E-01
   7130.67  7.1101280E-01
   7131.00  7.1199307E-01
   7131.33  7.0464528E-01
   7131.67  6.9126987E-01
   7132.00  6.7438820E-01
   7132.33  6.5700245E-01
   7132.67  6.4122333E-01
   7133.00  6.2793872E-01
   7133.33  6.1814597E-01
   7133.67  6.1171319E-01
   7134.00  6.0815440E-01
   7134.33  6.0622160E-01
   7134.67  6.0441036E-01
   7135.00  6.0250776E-01
   7135.33  6.0135706E-01
   7135.67  6.0183730E-01
   7136.00  6.0435728E-01
   7136.33  6.0896843E-01
   7136.67  6.1470852E-01
   7137.00  6.2074524E-01
   7137.33  6.2613614E-01
   7137.67  6.3025410E-01
   7138.00  6.3257614E-01
   7138.33  6.3231079E-01
   7138.67  6.2954350E-01
   7139.00  6.2451152E-01
   7139.33  6.1774082E-01
   7139.67  6.1027586E-01
   7140.00  6.0264234E-01
   7140.33  5.9503260E-01
   7140.67  5.8723278E-01
   7141.00  5.7889875E-01
   7141.33  5.6955558E-01
   7141.67  5.5916935E-01
   7142.00  5.4783659E-01
   7142.33  5.3578857E-01
   7142.67  5.2350683E-01
   7143.00  5.1131924E-01
   7143.33  4.9957435E-01
   7143.67  4.8841796E-01
   7144.00  4.7794349E-01
   7144.33  4.6828701E-01
   7144.67  4.5936224E-01
   7145.00  4.5116217E-01
   7145.33  4.4378132E-01
   7145.67  4.3716185E-01
   7146.00  4.3135344E-01
   7146.33  4.2655228E-01
   7146.67  4.2275136E-01
   7147.00  4.2001359E-01
   7147.33  4.1848841E-01
   7147.67  4.1799573E-01
   7148.00  4.1845306E-01
   7148.33  4.1983058E-01
   7148.67  4.2187426E-01
   7149.00  4.2444746E-01
   7149.33  4.2743372E-01
   7149.67  4.3062187E-01
   7150.00  4.3386787E-01
   7150.33  4.3699132E-01
   7150.67  4.3984864E-01
   7151.00  4.4232192E-01
   7151.33  4.4424429E-01
   7151.67  4.4561419E-01
   7152.00  4.4641400E-01
   7152.33  4.4658888E-01
   7152.67  4.4624195E-01
   7153.00  4.4539751E-01
   7153.33  4.4399853E-01
   7153.67  4.4208148E-01
   7154.00  4.3960949E-01
   7154.33  4.3647012E-01
   7154.67  4.3272928E-01
   7155.00  4.2841581E-01
   7155.33  4.2354190E-01
   7155.67  4.1827617E-01
   7156.00  4.1272309E-01
   7156.33  4.0698491E-01
   7156.67  4.0119605E-01
   7157.00  3.9544233E-01
   7157.33  3.8982219E-01
   7157.67  3.8438739E-01
   7158.00  3.7918305E-01
   7158.33  3.7428331E-01
   7158.67  3.6968358E-01
   7159.00  3.6540327E-01
   7159.33  3.6150453E-01
   7159.67  3.5796587E-01
   7160.00  3.5480636E-01
   7160.33  3.5209332E-01
   7160.67  3.4978559E-01
   7161.00  3.4787973E-01
   7161.33  3.4640379E-01
   7161.67  3.4527610E-01
   7162.00  3.4445925E-01
   7162.33  3.4393607E-01
   7162.67  3.4362314E-01
   7163.00  3.4348074E-01
   7163.33  3.4348884E-01
   7163.67  3.4360440E-01
   7164.00  3.4381247E-01
   7164.33  3.4411606E-01
   7164.67  3.4450903E-01
   7165.00  3.4500511E-01
   7165.33  3.4564651E-01
   7165.67  3.4645186E-01
   7166.00  3.4745587E-01
   7166.33  3.4873171E-01
   7166.67  3.5029056E-01
   7167.00  3.5216342E-01
   7167.33  3.5442131E-01
   7167.67  3.5703907E-01
   7168.00  3.6002224E-01
   7168.33  3.6341100E-01
   7168.67  3.6714319E-01
   7169.00  3.7119497E-01
   7169.33  3.7556436E-01
   7169.67  3.8016897E-01
   7170.00  3.8495998E-01
   7170.33  3.8988374E-01
   7170.67  3.9484068E-01
   7171.00  3.9973731E-01
   7171.33  4.0439209E-01
   7171.67  4.0858455E-01
   7172.00  4.1201249E-01
