    FDMNES
    energy     <xanes>
   7097.00  5.0622781E-03
   7097.33  5.1856062E-03
   7097.67  5.3146493E-03
   7098.00  5.4498031E-03
   7098.33  5.5924059E-03
   7098.67  5.7422006E-03
   7099.00  5.8997311E-03
   7099.33  6.0667614E-03
   7099.67  6.2430354E-03
   7100.00  6.4293228E-03
   7100.33  6.6280146E-03
   7100.67  6.8388892E-03
   7101.00  7.0630732E-03
   7101.33  7.3039185E-03
   7101.67  7.5613126E-03
   7102.00  7.8369719E-03
   7102.33  8.1357917E-03
   7102.67  8.4579344E-03
   7103.00  8.8061472E-03
   7103.33  9.1879468E-03
   7103.67  9.6041565E-03
   7104.00  1.0059447E-02
   7104.33  1.0566114E-02
   7104.67  1.1126588E-02
   7105.00  1.1749447E-02
   7105.33  1.2456503E-02
   7105.67  1.3254353E-02
   7106.00  1.4160405E-02
   7106.33  1.5217809E-02
   7106.67  1.6445119E-02
   7107.00  1.7882885E-02
   7107.33  1.9630507E-02
   7107.67  2.1747100E-02
   7108.00  2.4348004E-02
   7108.33  2.7720709E-02
   7108.67  3.2103238E-02
   7109.00  3.7943740E-02
   7109.33  4.6441867E-02
   7109.67  5.9030766E-02
   7110.00  7.8541755E-02
   7110.33  1.1312118E-01
   7110.67  1.7020252E-01
   7111.00  2.4446959E-01
   7111.33  2.9469435E-01
   7111.67  3.1163896E-01
   7112.00  3.2203971E-01
   7112.33  3.4284151E-01
   7112.67  3.5249248E-01
   7113.00  3.3468627E-01
   7113.33  2.9343557E-01
   7113.67  2.5124236E-01
   7114.00  2.1581284E-01
   7114.33  1.9047477E-01
   7114.67  1.7321207E-01
   7115.00  1.6076758E-01
   7115.33  1.4898520E-01
   7115.67  1.3722509E-01
   7116.00  1.2714955E-01
   7116.33  1.2025707E-01
   7116.67  1.1665604E-01
   7117.00  1.1668499E-01
   7117.33  1.2074966E-01
   7117.67  1.2738258E-01
   7118.00  1.3484699E-01
   7118.33  1.4109181E-01
   7118.67  1.4609945E-01
   7119.00  1.5115790E-01
   7119.33  1.5782121E-01
   7119.67  1.6629699E-01
   7120.00  1.7660977E-01
   7120.33  1.8913576E-01
   7120.67  2.0434706E-01
   7121.00  2.2338257E-01
   7121.33  2.4820262E-01
   7121.67  2.7938627E-01
   7122.00  3.1773638E-01
   7122.33  3.6267917E-01
   7122.67  4.0757805E-01
   7123.00  4.4582301E-01
   7123.33  4.7544437E-01
   7123.67  5.0254048E-01
   7124.00  5.2890177E-01
   7124.33  5.5264926E-01
   7124.67  5.7265819E-01
   7125.00  5.8938972E-01
   7125.33  6.0410208E-01
   7125.67  6.1705160E-01
   7126.00  6.2601575E-01
   7126.33  6.2728256E-01
   7126.67  6.2229127E-01
   7127.00  6.1444966E-01
   7127.33  6.0883780E-01
   7127.67  6.0906437E-01
   7128.00  6.1647909E-01
   7128.33  6.2992285E-01
   7128.67  6.4421312E-01
   7129.00  6.5573339E-01
   7129.33  6.6262223E-01
   7129.67  6.6662317E-01
   7130.00  6.6879050E-01
   7130.33  6.6888422E-01
   7130.67  6.6672211E-01
   7131.00  6.6258038E-01
   7131.33  6.5748775E-01
   7131.67  6.5283385E-01
   7132.00  6.4920120E-01
   7132.33  6.4637115E-01
   7132.67  6.4346793E-01
   7133.00  6.4036103E-01
   7133.33  6.3789867E-01
   7133.67  6.3683074E-01
   7134.00  6.3725852E-01
   7134.33  6.3885412E-01
   7134.67  6.4069402E-01
   7135.00  6.4193025E-01
   7135.33  6.4162953E-01
   7135.67  6.3993704E-01
   7136.00  6.3742366E-01
   7136.33  6.3493318E-01
   7136.67  6.3287169E-01
   7137.00  6.3107052E-01
   7137.33  6.2907310E-01
   7137.67  6.2661790E-01
   7138.00  6.2372493E-01
   7138.33  6.2062228E-01
   7138.67  6.1760884E-01
   7139.00  6.1478379E-01
   7139.33  6.1202910E-01
   7139.67  6.0899080E-01
   7140.00  6.0529274E-01
   7140.33  6.0039531E-01
   7140.67  5.9410229E-01
   7141.00  5.8616264E-01
   7141.33  5.7607802E-01
   7141.67  5.6397394E-01
   7142.00  5.4998878E-01
   7142.33  5.3443297E-01
   7142.67  5.1822070E-01
   7143.00  5.0205094E-01
   7143.33  4.8674245E-01
   7143.67  4.7271375E-01
   7144.00  4.6021206E-01
   7144.33  4.4954007E-01
   7144.67  4.4044940E-01
   7145.00  4.3282676E-01
   7145.33  4.2665501E-01
   7145.67  4.2157966E-01
   7146.00  4.1744262E-01
   7146.33  4.1418042E-01
   7146.67  4.1157277E-01
   7147.00  4.0955369E-01
   7147.33  4.0816499E-01
   7147.67  4.0732653E-01
   7148.00  4.0702797E-01
   7148.33  4.0731648E-01
   7148.67  4.0809206E-01
   7149.00  4.0930696E-01
   7149.33  4.1093212E-01
   7149.67  4.1282461E-01
   7150.00  4.1488356E-01
   7150.33  4.1698584E-01
   7150.67  4.1899497E-01
   7151.00  4.2079876E-01
   7151.33  4.2223744E-01
   7151.67  4.2325974E-01
   7152.00  4.2381906E-01
   7152.33  4.2385026E-01
   7152.67  4.2346135E-01
   7153.00  4.2273500E-01
   7153.33  4.2177094E-01
   7153.67  4.2072472E-01
   7154.00  4.1968312E-01
   7154.33  4.1869875E-01
   7154.67  4.1773786E-01
   7155.00  4.1671891E-01
   7155.33  4.1546996E-01
   7155.67  4.1384447E-01
   7156.00  4.1170240E-01
   7156.33  4.0884085E-01
   7156.67  4.0528371E-01
   7157.00  4.0104463E-01
   7157.33  3.9613163E-01
   7157.67  3.9075834E-01
   7158.00  3.8507088E-01
   7158.33  3.7923120E-01
   7158.67  3.7342388E-01
   7159.00  3.6777440E-01
   7159.33  3.6243832E-01
   7159.67  3.5747414E-01
   7160.00  3.5294127E-01
   7160.33  3.4894610E-01
   7160.67  3.4545436E-01
   7161.00  3.4247319E-01
   7161.33  3.4006054E-01
   7161.67  3.3813770E-01
   7162.00  3.3668583E-01
   7162.33  3.3573456E-01
   7162.67  3.3519747E-01
   7163.00  3.3504632E-01
   7163.33  3.3529200E-01
   7163.67  3.3585872E-01
   7164.00  3.3672507E-01
   7164.33  3.3790372E-01
   7164.67  3.3933858E-01
   7165.00  3.4101161E-01
   7165.33  3.4292925E-01
   7165.67  3.4504438E-01
   7166.00  3.4734121E-01
   7166.33  3.4982428E-01
   7166.67  3.5245895E-01
   7167.00  3.5523476E-01
   7167.33  3.5815751E-01
   7167.67  3.6120220E-01
   7168.00  3.6436241E-01
   7168.33  3.6764482E-01
   7168.67  3.7102846E-01
   7169.00  3.7450583E-01
   7169.33  3.7807660E-01
   7169.67  3.8171634E-01
   7170.00  3.8540904E-01
   7170.33  3.8913283E-01
   7170.67  3.9284681E-01
   7171.00  3.9650169E-01
   7171.33  3.9998188E-01
   7171.67  4.0313216E-01
   7172.00  4.0572406E-01
