    FDMNES
    energy     <xanes>
   7097.00  4.2539434E-03
   7097.33  4.3360606E-03
   7097.67  4.4212157E-03
   7098.00  4.5095854E-03
   7098.33  4.6018250E-03
   7098.67  4.6977537E-03
   7099.00  4.7976064E-03
   7099.33  4.9022144E-03
   7099.67  5.0113873E-03
   7100.00  5.1254471E-03
   7100.33  5.2454766E-03
   7100.67  5.3712864E-03
   7101.00  5.5033333E-03
   7101.33  5.6430750E-03
   7101.67  5.7903475E-03
   7102.00  5.9458266E-03
   7102.33  6.1115569E-03
   7102.67  6.2874566E-03
   7103.00  6.4745781E-03
   7103.33  6.6759419E-03
   7103.67  6.8916817E-03
   7104.00  7.1235449E-03
   7104.33  7.3762990E-03
   7104.67  7.6506267E-03
   7105.00  7.9496739E-03
   7105.33  8.2816456E-03
   7105.67  8.6486762E-03
   7106.00  9.0570634E-03
   7106.33  9.5226601E-03
   7106.67  1.0051830E-02
   7107.00  1.0659129E-02
   7107.33  1.1380536E-02
   7107.67  1.2236900E-02
   7108.00  1.3269573E-02
   7108.33  1.4582022E-02
   7108.67  1.6259488E-02
   7109.00  1.8463215E-02
   7109.33  2.1625655E-02
   7109.67  2.6264285E-02
   7110.00  3.3403504E-02
   7110.33  4.6012334E-02
   7110.67  6.6990050E-02
   7111.00  9.5038190E-02
   7111.33  1.1361980E-01
   7111.67  1.1531460E-01
   7112.00  1.1126134E-01
   7112.33  1.1463623E-01
   7112.67  1.2246999E-01
   7113.00  1.2431496E-01
   7113.33  1.0995527E-01
   7113.67  8.9166750E-02
   7114.00  7.3024900E-02
   7114.33  6.3096715E-02
   7114.67  5.4740611E-02
   7115.00  4.8594538E-02
   7115.33  4.6052901E-02
   7115.67  4.6160640E-02
   7116.00  4.8502794E-02
   7116.33  5.3217487E-02
   7116.67  6.0130749E-02
   7117.00  6.9371099E-02
   7117.33  8.1273145E-02
   7117.67  9.5127349E-02
   7118.00  1.1006948E-01
   7118.33  1.2508326E-01
   7118.67  1.3953489E-01
   7119.00  1.5268278E-01
   7119.33  1.6256634E-01
   7119.67  1.6799251E-01
   7120.00  1.6911822E-01
   7120.33  1.6819264E-01
   7120.67  1.6861358E-01
   7121.00  1.7245006E-01
   7121.33  1.8197488E-01
   7121.67  1.9783524E-01
   7122.00  2.2089607E-01
   7122.33  2.5200657E-01
   7122.67  2.8767452E-01
   7123.00  3.2339152E-01
   7123.33  3.5171349E-01
   7123.67  3.6652288E-01
   7124.00  3.6558961E-01
   7124.33  3.5548941E-01
   7124.67  3.4889546E-01
   7125.00  3.5204401E-01
   7125.33  3.6880867E-01
   7125.67  3.9664207E-01
   7126.00  4.3261734E-01
   7126.33  4.7141262E-01
   7126.67  5.0725284E-01
   7127.00  5.3858741E-01
   7127.33  5.6675620E-01
   7127.67  5.9469166E-01
   7128.00  6.2397678E-01
   7128.33  6.5507372E-01
   7128.67  6.8531387E-01
   7129.00  7.1051990E-01
   7129.33  7.2488752E-01
   7129.67  7.2874391E-01
   7130.00  7.2452353E-01
   7130.33  7.1543409E-01
   7130.67  7.0516391E-01
   7131.00  6.9614049E-01
   7131.33  6.9101747E-01
   7131.67  6.9024978E-01
   7132.00  6.9394964E-01
   7132.33  7.0289729E-01
   7132.67  7.1645224E-01
   7133.00  7.3364594E-01
   7133.33  7.5225068E-01
   7133.67  7.6950224E-01
   7134.00  7.8416631E-01
   7134.33  7.9543372E-01
   7134.67  8.0255429E-01
   7135.00  8.0325872E-01
   7135.33  7.9393162E-01
   7135.67  7.7627901E-01
   7136.00  7.5351437E-01
   7136.33  7.2987285E-01
   7136.67  7.0853067E-01
   7137.00  6.9088555E-01
   7137.33  6.7795323E-01
   7137.67  6.6885436E-01
   7138.00  6.6290291E-01
   7138.33  6.5943849E-01
   7138.67  6.5730667E-01
   7139.00  6.5588362E-01
   7139.33  6.5464930E-01
   7139.67  6.5323526E-01
   7140.00  6.5146762E-01
   7140.33  6.4916215E-01
   7140.67  6.4625860E-01
   7141.00  6.4261851E-01
   7141.33  6.3794464E-01
   7141.67  6.3222246E-01
   7142.00  6.2543472E-01
   7142.33  6.1754285E-01
   7142.67  6.0878848E-01
   7143.00  5.9921962E-01
   7143.33  5.8865254E-01
   7143.67  5.7700885E-01
   7144.00  5.6412331E-01
   7144.33  5.4978898E-01
   7144.67  5.3439252E-01
   7145.00  5.1836021E-01
   7145.33  5.0236696E-01
   7145.67  4.8710116E-01
   7146.00  4.7305795E-01
   7146.33  4.6082850E-01
   7146.67  4.5039856E-01
   7147.00  4.4180055E-01
   7147.33  4.3520474E-01
   7147.67  4.3029414E-01
   7148.00  4.2698023E-01
   7148.33  4.2534409E-01
   7148.67  4.2506857E-01
   7149.00  4.2600024E-01
   7149.33  4.2800925E-01
   7149.67  4.3063870E-01
   7150.00  4.3354595E-01
   7150.33  4.3631302E-01
   7150.67  4.3859479E-01
   7151.00  4.4013586E-01
   7151.33  4.4060158E-01
   7151.67  4.3999268E-01
   7152.00  4.3828023E-01
   7152.33  4.3537284E-01
   7152.67  4.3150738E-01
   7153.00  4.2679709E-01
   7153.33  4.2128282E-01
   7153.67  4.1516962E-01
   7154.00  4.0854646E-01
   7154.33  4.0146414E-01
   7154.67  3.9408730E-01
   7155.00  3.8653005E-01
   7155.33  3.7893852E-01
   7155.67  3.7147249E-01
   7156.00  3.6425749E-01
   7156.33  3.5746177E-01
   7156.67  3.5112446E-01
   7157.00  3.4528694E-01
   7157.33  3.4002208E-01
   7157.67  3.3524006E-01
   7158.00  3.3089937E-01
   7158.33  3.2698793E-01
   7158.67  3.2339865E-01
   7159.00  3.2009144E-01
   7159.33  3.1707318E-01
   7159.67  3.1431485E-01
   7160.00  3.1184078E-01
   7160.33  3.0973659E-01
   7160.67  3.0801599E-01
   7161.00  3.0673101E-01
   7161.33  3.0600110E-01
   7161.67  3.0581856E-01
   7162.00  3.0622857E-01
   7162.33  3.0736358E-01
   7162.67  3.0919399E-01
   7163.00  3.1176106E-01
   7163.33  3.1520197E-01
   7163.67  3.1944355E-01
   7164.00  3.2448791E-01
   7164.33  3.3040963E-01
   7164.67  3.3705946E-01
   7165.00  3.4437158E-01
   7165.33  3.5232129E-01
   7165.67  3.6072952E-01
   7166.00  3.6949910E-01
   7166.33  3.7855003E-01
   7166.67  3.8774710E-01
   7167.00  3.9700962E-01
   7167.33  4.0625368E-01
   7167.67  4.1541172E-01
   7168.00  4.2443237E-01
   7168.33  4.3324147E-01
   7168.67  4.4181923E-01
   7169.00  4.5013201E-01
   7169.33  4.5810639E-01
   7169.67  4.6574611E-01
   7170.00  4.7302232E-01
   7170.33  4.7985029E-01
   7170.67  4.8623877E-01
   7171.00  4.9214103E-01
   7171.33  4.9740236E-01
   7171.67  5.0194763E-01
   7172.00  5.0559170E-01
