    FDMNES
    energy     <xanes>
   7097.00  4.8821528E-03
   7097.33  4.9898560E-03
   7097.67  5.1021356E-03
   7098.00  5.2192923E-03
   7098.33  5.3423715E-03
   7098.67  5.4711477E-03
   7099.00  5.6060329E-03
   7099.33  5.7483944E-03
   7099.67  5.8980072E-03
   7100.00  6.0554547E-03
   7100.33  6.2225813E-03
   7100.67  6.3991915E-03
   7101.00  6.5861440E-03
   7101.33  6.7860231E-03
   7101.67  6.9987279E-03
   7102.00  7.2255831E-03
   7102.33  7.4703844E-03
   7102.67  7.7332759E-03
   7103.00  8.0164205E-03
   7103.33  8.3257322E-03
   7103.67  8.6619606E-03
   7104.00  9.0288976E-03
   7104.33  9.4364741E-03
   7104.67  9.8869720E-03
   7105.00  1.0387664E-02
   7105.33  1.0956926E-02
   7105.67  1.1601205E-02
   7106.00  1.2336183E-02
   7106.33  1.3200545E-02
   7106.67  1.4213509E-02
   7107.00  1.5414710E-02
   7107.33  1.6901496E-02
   7107.67  1.8740275E-02
   7108.00  2.1056743E-02
   7108.33  2.4168930E-02
   7108.67  2.8375897E-02
   7109.00  3.4240837E-02
   7109.33  4.3321504E-02
   7109.67  5.7690437E-02
   7110.00  8.1501714E-02
   7110.33  1.2655227E-01
   7110.67  1.9882157E-01
   7111.00  2.6704939E-01
   7111.33  2.5304656E-01
   7111.67  2.0207681E-01
   7112.00  1.5465557E-01
   7112.33  1.2099036E-01
   7112.67  9.9699128E-02
   7113.00  8.7667622E-02
   7113.33  7.8946407E-02
   7113.67  7.0652250E-02
   7114.00  6.3713111E-02
   7114.33  5.9199620E-02
   7114.67  5.6500266E-02
   7115.00  5.5192092E-02
   7115.33  5.5095662E-02
   7115.67  5.5919031E-02
   7116.00  5.7633814E-02
   7116.33  6.0394351E-02
   7116.67  6.4163356E-02
   7117.00  6.9024688E-02
   7117.33  7.5208972E-02
   7117.67  8.2665968E-02
   7118.00  9.1657418E-02
   7118.33  1.0313851E-01
   7118.67  1.1780542E-01
   7119.00  1.3670204E-01
   7119.33  1.6215347E-01
   7119.67  1.9550850E-01
   7120.00  2.3880214E-01
   7120.33  2.9540599E-01
   7120.67  3.6277018E-01
   7121.00  4.3453152E-01
   7121.33  4.9567466E-01
   7121.67  5.3735468E-01
   7122.00  5.6288189E-01
   7122.33  5.8422401E-01
   7122.67  6.1146668E-01
   7123.00  6.4700581E-01
   7123.33  6.8898505E-01
   7123.67  7.3133713E-01
   7124.00  7.6927593E-01
   7124.33  7.9809476E-01
   7124.67  8.1877468E-01
   7125.00  8.3341811E-01
   7125.33  8.4281661E-01
   7125.67  8.4481140E-01
   7126.00  8.3473141E-01
   7126.33  8.0866630E-01
   7126.67  7.7389274E-01
   7127.00  7.3832974E-01
   7127.33  7.0958044E-01
   7127.67  6.8876341E-01
   7128.00  6.7411860E-01
   7128.33  6.6254652E-01
   7128.67  6.5148897E-01
   7129.00  6.4078800E-01
   7129.33  6.3162013E-01
   7129.67  6.2470778E-01
   7130.00  6.1992165E-01
   7130.33  6.1600862E-01
   7130.67  6.1099806E-01
   7131.00  6.0379478E-01
   7131.33  5.9406953E-01
   7131.67  5.8309873E-01
   7132.00  5.7202941E-01
   7132.33  5.6216961E-01
   7132.67  5.5419539E-01
   7133.00  5.4851047E-01
   7133.33  5.4557778E-01
   7133.67  5.4488521E-01
   7134.00  5.4591104E-01
   7134.33  5.4768327E-01
   7134.67  5.4875508E-01
   7135.00  5.4807191E-01
   7135.33  5.4462313E-01
   7135.67  5.3858261E-01
   7136.00  5.3019807E-01
   7136.33  5.1983732E-01
   7136.67  5.0845309E-01
   7137.00  4.9666620E-01
   7137.33  4.8512846E-01
   7137.67  4.7429901E-01
   7138.00  4.6449048E-01
   7138.33  4.5612391E-01
   7138.67  4.4920699E-01
   7139.00  4.4381926E-01
   7139.33  4.4017863E-01
   7139.67  4.3804765E-01
   7140.00  4.3734230E-01
   7140.33  4.3807708E-01
   7140.67  4.3990312E-01
   7141.00  4.4264463E-01
   7141.33  4.4621587E-01
   7141.67  4.5036369E-01
   7142.00  4.5493531E-01
   7142.33  4.5975688E-01
   7142.67  4.6457956E-01
   7143.00  4.6920579E-01
   7143.33  4.7335453E-01
   7143.67  4.7686552E-01
   7144.00  4.7957745E-01
   7144.33  4.8121992E-01
   7144.67  4.8180885E-01
   7145.00  4.8129944E-01
   7145.33  4.7955377E-01
   7145.67  4.7675944E-01
   7146.00  4.7299325E-01
   7146.33  4.6826657E-01
   7146.67  4.6282329E-01
   7147.00  4.5678842E-01
   7147.33  4.5025226E-01
   7147.67  4.4340950E-01
   7148.00  4.3637082E-01
   7148.33  4.2924460E-01
   7148.67  4.2214635E-01
   7149.00  4.1515555E-01
   7149.33  4.0837666E-01
   7149.67  4.0185819E-01
   7150.00  3.9565481E-01
   7150.33  3.8986722E-01
   7150.67  3.8449448E-01
   7151.00  3.7956935E-01
   7151.33  3.7518322E-01
   7151.67  3.7129999E-01
   7152.00  3.6793325E-01
   7152.33  3.6515476E-01
   7152.67  3.6289267E-01
   7153.00  3.6112790E-01
   7153.33  3.5987443E-01
   7153.67  3.5900051E-01
   7154.00  3.5841722E-01
   7154.33  3.5803591E-01
   7154.67  3.5772302E-01
   7155.00  3.5738681E-01
   7155.33  3.5692237E-01
   7155.67  3.5628122E-01
   7156.00  3.5543694E-01
   7156.33  3.5436687E-01
   7156.67  3.5313384E-01
   7157.00  3.5179664E-01
   7157.33  3.5044986E-01
   7157.67  3.4921549E-01
   7158.00  3.4821231E-01
   7158.33  3.4763356E-01
   7158.67  3.4757426E-01
   7159.00  3.4814324E-01
   7159.33  3.4953127E-01
   7159.67  3.5170720E-01
   7160.00  3.5468495E-01
   7160.33  3.5853150E-01
   7160.67  3.6307254E-01
   7161.00  3.6820632E-01
   7161.33  3.7383664E-01
   7161.67  3.7973420E-01
   7162.00  3.8574257E-01
   7162.33  3.9167212E-01
   7162.67  3.9735726E-01
   7163.00  4.0267664E-01
   7163.33  4.0749213E-01
   7163.67  4.1183536E-01
   7164.00  4.1572693E-01
   7164.33  4.1917846E-01
   7164.67  4.2231988E-01
   7165.00  4.2522836E-01
   7165.33  4.2797680E-01
   7165.67  4.3066699E-01
   7166.00  4.3336165E-01
   7166.33  4.3612954E-01
   7166.67  4.3900929E-01
   7167.00  4.4203056E-01
   7167.33  4.4523869E-01
   7167.67  4.4862846E-01
   7168.00  4.5220725E-01
   7168.33  4.5600207E-01
   7168.67  4.5998635E-01
   7169.00  4.6415377E-01
   7169.33  4.6851338E-01
   7169.67  4.7302451E-01
   7170.00  4.7766352E-01
   7170.33  4.8240303E-01
   7170.67  4.8717510E-01
   7171.00  4.9190726E-01
   7171.33  4.9644188E-01
   7171.67  5.0056343E-01
   7172.00  5.0396765E-01
