    FDMNES
    energy     <xanes>
   7097.00  4.3443628E-03
   7097.33  4.4336080E-03
   7097.67  4.5263400E-03
   7098.00  4.6227682E-03
   7098.33  4.7236558E-03
   7098.67  4.8288030E-03
   7099.00  4.9384890E-03
   7099.33  5.0536858E-03
   7099.67  5.1741823E-03
   7100.00  5.3003604E-03
   7100.33  5.4334894E-03
   7100.67  5.5733574E-03
   7101.00  5.7205037E-03
   7101.33  5.8766365E-03
   7101.67  6.0415684E-03
   7102.00  6.2160898E-03
   7102.33  6.4025861E-03
   7102.67  6.6009515E-03
   7103.00  6.8123985E-03
   7103.33  7.0404136E-03
   7103.67  7.2851044E-03
   7104.00  7.5484378E-03
   7104.33  7.8358119E-03
   7104.67  8.1478650E-03
   7105.00  8.4880207E-03
   7105.33  8.8652813E-03
   7105.67  9.2816375E-03
   7106.00  9.7436224E-03
   7106.33  1.0267806E-02
   7106.67  1.0859913E-02
   7107.00  1.1534066E-02
   7107.33  1.2325251E-02
   7107.67  1.3251082E-02
   7108.00  1.4348087E-02
   7108.33  1.5706888E-02
   7108.67  1.7392930E-02
   7109.00  1.9531521E-02
   7109.33  2.2450055E-02
   7109.67  2.6497824E-02
   7110.00  3.2357349E-02
   7110.33  4.1969857E-02
   7110.67  5.7359437E-02
   7111.00  7.9096446E-02
   7111.33  1.0219170E-01
   7111.67  1.2509641E-01
   7112.00  1.4983787E-01
   7112.33  1.6934425E-01
   7112.67  1.8353610E-01
   7113.00  2.0088447E-01
   7113.33  2.1276823E-01
   7113.67  2.0361275E-01
   7114.00  1.7934489E-01
   7114.33  1.4806276E-01
   7114.67  1.1422841E-01
   7115.00  8.6880966E-02
   7115.33  7.1220337E-02
   7115.67  6.2979043E-02
   7116.00  5.9713325E-02
   7116.33  6.0271902E-02
   7116.67  6.3506635E-02
   7117.00  6.9205457E-02
   7117.33  7.7764077E-02
   7117.67  8.8858868E-02
   7118.00  1.0196494E-01
   7118.33  1.1613184E-01
   7118.67  1.3067848E-01
   7119.00  1.4591215E-01
   7119.33  1.6221772E-01
   7119.67  1.7847997E-01
   7120.00  1.9345132E-01
   7120.33  2.0652503E-01
   7120.67  2.1876058E-01
   7121.00  2.3150192E-01
   7121.33  2.4691939E-01
   7121.67  2.6618010E-01
   7122.00  2.8912605E-01
   7122.33  3.1283917E-01
   7122.67  3.3306163E-01
   7123.00  3.4865868E-01
   7123.33  3.6099206E-01
   7123.67  3.7137736E-01
   7124.00  3.7915598E-01
   7124.33  3.8379216E-01
   7124.67  3.8574327E-01
   7125.00  3.8570150E-01
   7125.33  3.8697005E-01
   7125.67  3.9270808E-01
   7126.00  4.0381004E-01
   7126.33  4.1985841E-01
   7126.67  4.3832305E-01
   7127.00  4.5753475E-01
   7127.33  4.7624072E-01
   7127.67  4.9466065E-01
   7128.00  5.1444132E-01
   7128.33  5.3916210E-01
   7128.67  5.7017238E-01
   7129.00  6.0609117E-01
   7129.33  6.4137591E-01
   7129.67  6.7031342E-01
   7130.00  6.9157182E-01
   7130.33  7.0764653E-01
   7130.67  7.2352320E-01
   7131.00  7.4151739E-01
   7131.33  7.6200220E-01
   7131.67  7.8239135E-01
   7132.00  7.9949162E-01
   7132.33  8.0831618E-01
   7132.67  8.0644001E-01
   7133.00  7.9240449E-01
   7133.33  7.6544508E-01
   7133.67  7.3028195E-01
   7134.00  6.9123152E-01
   7134.33  6.5374697E-01
   7134.67  6.2138280E-01
   7135.00  5.9533437E-01
   7135.33  5.7589892E-01
   7135.67  5.6115983E-01
   7136.00  5.5027940E-01
   7136.33  5.4325426E-01
   7136.67  5.3973263E-01
   7137.00  5.3997067E-01
   7137.33  5.4469421E-01
   7137.67  5.5337483E-01
   7138.00  5.6573274E-01
   7138.33  5.8151826E-01
   7138.67  5.9941302E-01
   7139.00  6.1842256E-01
   7139.33  6.3726194E-01
   7139.67  6.5470390E-01
   7140.00  6.6979049E-01
   7140.33  6.8121555E-01
   7140.67  6.8878761E-01
   7141.00  6.9227944E-01
   7141.33  6.9130380E-01
   7141.67  6.8686329E-01
   7142.00  6.7963241E-01
   7142.33  6.7026567E-01
   7142.67  6.5987266E-01
   7143.00  6.4911761E-01
   7143.33  6.3866836E-01
   7143.67  6.2896965E-01
   7144.00  6.2032026E-01
   7144.33  6.1310961E-01
   7144.67  6.0727697E-01
   7145.00  6.0279212E-01
   7145.33  5.9962308E-01
   7145.67  5.9730817E-01
   7146.00  5.9550233E-01
   7146.33  5.9379328E-01
   7146.67  5.9180696E-01
   7147.00  5.8933545E-01
   7147.33  5.8621261E-01
   7147.67  5.8255902E-01
   7148.00  5.7848079E-01
   7148.33  5.7406673E-01
   7148.67  5.6943582E-01
   7149.00  5.6461660E-01
   7149.33  5.5960107E-01
   7149.67  5.5443565E-01
   7150.00  5.4915470E-01
   7150.33  5.4377503E-01
   7150.67  5.3829865E-01
   7151.00  5.3267988E-01
   7151.33  5.2679154E-01
   7151.67  5.2053347E-01
   7152.00  5.1378267E-01
   7152.33  5.0631280E-01
   7152.67  4.9807400E-01
   7153.00  4.8898777E-01
   7153.33  4.7889968E-01
   7153.67  4.6793910E-01
   7154.00  4.5617690E-01
   7154.33  4.4367866E-01
   7154.67  4.3073358E-01
   7155.00  4.1755199E-01
   7155.33  4.0439313E-01
   7155.67  3.9149933E-01
   7156.00  3.7905622E-01
   7156.33  3.6731865E-01
   7156.67  3.5634020E-01
   7157.00  3.4620243E-01
   7157.33  3.3708456E-01
   7157.67  3.2891732E-01
   7158.00  3.2172685E-01
   7158.33  3.1565836E-01
   7158.67  3.1059847E-01
   7159.00  3.0654858E-01
   7159.33  3.0362490E-01
   7159.67  3.0168129E-01
   7160.00  3.0068879E-01
   7160.33  3.0071274E-01
   7160.67  3.0157703E-01
   7161.00  3.0321586E-01
   7161.33  3.0562706E-01
   7161.67  3.0862499E-01
   7162.00  3.1211517E-01
   7162.33  3.1603067E-01
   7162.67  3.2021303E-01
   7163.00  3.2458015E-01
   7163.33  3.2906693E-01
   7163.67  3.3359472E-01
   7164.00  3.3811593E-01
   7164.33  3.4257686E-01
   7164.67  3.4694523E-01
   7165.00  3.5119478E-01
   7165.33  3.5528841E-01
   7165.67  3.5923769E-01
   7166.00  3.6304983E-01
   7166.33  3.6673339E-01
   7166.67  3.7033875E-01
   7167.00  3.7390418E-01
   7167.33  3.7747868E-01
   7167.67  3.8110558E-01
   7168.00  3.8481576E-01
   7168.33  3.8864716E-01
   7168.67  3.9259707E-01
   7169.00  3.9666571E-01
   7169.33  4.0085525E-01
   7169.67  4.0512793E-01
   7170.00  4.0945343E-01
   7170.33  4.1378744E-01
   7170.67  4.1807093E-01
   7171.00  4.2223815E-01
   7171.33  4.2614857E-01
   7171.67  4.2964606E-01
   7172.00  4.3250139E-01
