    FDMNES
    energy     <xanes>
   7097.00  5.0208378E-03
   7097.33  5.1382459E-03
   7097.67  5.2610000E-03
   7098.00  5.3894657E-03
   7098.33  5.5248867E-03
   7098.67  5.6670152E-03
   7099.00  5.8163507E-03
   7099.33  5.9745242E-03
   7099.67  6.1412841E-03
   7100.00  6.3173315E-03
   7100.33  6.5048622E-03
   7100.67  6.7036471E-03
   7101.00  6.9147018E-03
   7101.33  7.1410764E-03
   7101.67  7.3826227E-03
   7102.00  7.6408679E-03
   7102.33  7.9202111E-03
   7102.67  8.2207148E-03
   7103.00  8.5447815E-03
   7103.33  8.8990549E-03
   7103.67  9.2841050E-03
   7104.00  9.7039271E-03
   7104.33  1.0169151E-02
   7104.67  1.0681570E-02
   7105.00  1.1248315E-02
   7105.33  1.1887708E-02
   7105.67  1.2604637E-02
   7106.00  1.3413073E-02
   7106.33  1.4347908E-02
   7106.67  1.5422662E-02
   7107.00  1.6668448E-02
   7107.33  1.8161768E-02
   7107.67  1.9944276E-02
   7108.00  2.2099598E-02
   7108.33  2.4835316E-02
   7108.67  2.8310928E-02
   7109.00  3.2829011E-02
   7109.33  3.9188378E-02
   7109.67  4.8287610E-02
   7110.00  6.1892754E-02
   7110.33  8.5093135E-02
   7110.67  1.2327635E-01
   7111.00  1.7723904E-01
   7111.33  2.2697486E-01
   7111.67  2.5523205E-01
   7112.00  2.6731369E-01
   7112.33  2.7794376E-01
   7112.67  2.9380245E-01
   7113.00  3.1802547E-01
   7113.33  3.5709530E-01
   7113.67  4.0195507E-01
   7114.00  4.2807697E-01
   7114.33  4.0547952E-01
   7114.67  3.5269090E-01
   7115.00  2.9562158E-01
   7115.33  2.5195903E-01
   7115.67  2.2148642E-01
   7116.00  2.0058245E-01
   7116.33  1.8452756E-01
   7116.67  1.6851925E-01
   7117.00  1.5156167E-01
   7117.33  1.3583768E-01
   7117.67  1.2348059E-01
   7118.00  1.1497107E-01
   7118.33  1.0995047E-01
   7118.67  1.0678260E-01
   7119.00  1.0471299E-01
   7119.33  1.0392907E-01
   7119.67  1.0476598E-01
   7120.00  1.0721785E-01
   7120.33  1.1048019E-01
   7120.67  1.1349689E-01
   7121.00  1.1628446E-01
   7121.33  1.1983232E-01
   7121.67  1.2515549E-01
   7122.00  1.3289252E-01
   7122.33  1.4364035E-01
   7122.67  1.5655727E-01
   7123.00  1.7044214E-01
   7123.33  1.8458856E-01
   7123.67  2.0006388E-01
   7124.00  2.1813982E-01
   7124.33  2.3921587E-01
   7124.67  2.6084290E-01
   7125.00  2.8044216E-01
   7125.33  2.9607826E-01
   7125.67  3.0917892E-01
   7126.00  3.2167431E-01
   7126.33  3.3589179E-01
   7126.67  3.5293799E-01
   7127.00  3.7322856E-01
   7127.33  3.9710513E-01
   7127.67  4.2369937E-01
   7128.00  4.5232373E-01
   7128.33  4.8195167E-01
   7128.67  5.1122491E-01
   7129.00  5.3958687E-01
   7129.33  5.6759995E-01
   7129.67  5.9661877E-01
   7130.00  6.2707872E-01
   7130.33  6.5779993E-01
   7130.67  6.8629610E-01
   7131.00  7.1054283E-01
   7131.33  7.2861889E-01
   7131.67  7.4143108E-01
   7132.00  7.5019000E-01
   7132.33  7.5696818E-01
   7132.67  7.6465932E-01
   7133.00  7.7530075E-01
   7133.33  7.9098145E-01
   7133.67  8.1129256E-01
   7134.00  8.3486947E-01
   7134.33  8.5791092E-01
   7134.67  8.7446355E-01
   7135.00  8.7908088E-01
   7135.33  8.6761523E-01
   7135.67  8.4559724E-01
   7136.00  8.1839836E-01
   7136.33  7.9096900E-01
   7136.67  7.6597301E-01
   7137.00  7.4426996E-01
   7137.33  7.2637462E-01
   7137.67  7.1147998E-01
   7138.00  6.9912344E-01
   7138.33  6.8902672E-01
   7138.67  6.8051200E-01
   7139.00  6.7332770E-01
   7139.33  6.6745299E-01
   7139.67  6.6266532E-01
   7140.00  6.5890795E-01
   7140.33  6.5616441E-01
   7140.67  6.5411650E-01
   7141.00  6.5255400E-01
   7141.33  6.5124474E-01
   7141.67  6.4988989E-01
   7142.00  6.4824104E-01
   7142.33  6.4590085E-01
   7142.67  6.4259899E-01
   7143.00  6.3804337E-01
   7143.33  6.3176528E-01
   7143.67  6.2381237E-01
   7144.00  6.1420505E-01
   7144.33  6.0295679E-01
   7144.67  5.9059460E-01
   7145.00  5.7748592E-01
   7145.33  5.6404391E-01
   7145.67  5.5072840E-01
   7146.00  5.3785269E-01
   7146.33  5.2579937E-01
   7146.67  5.1468844E-01
   7147.00  5.0464297E-01
   7147.33  4.9587405E-01
   7147.67  4.8822976E-01
   7148.00  4.8167402E-01
   7148.33  4.7629407E-01
   7148.67  4.7191627E-01
   7149.00  4.6850351E-01
   7149.33  4.6612736E-01
   7149.67  4.6462836E-01
   7150.00  4.6396713E-01
   7150.33  4.6419163E-01
   7150.67  4.6514654E-01
   7151.00  4.6677928E-01
   7151.33  4.6910036E-01
   7151.67  4.7196211E-01
   7152.00  4.7529980E-01
   7152.33  4.7908310E-01
   7152.67  4.8317586E-01
   7153.00  4.8749599E-01
   7153.33  4.9195075E-01
   7153.67  4.9640184E-01
   7154.00  5.0073131E-01
   7154.33  5.0476044E-01
   7154.67  5.0837973E-01
   7155.00  5.1147879E-01
   7155.33  5.1387685E-01
   7155.67  5.1558592E-01
   7156.00  5.1658494E-01
   7156.33  5.1680328E-01
   7156.67  5.1637895E-01
   7157.00  5.1537445E-01
   7157.33  5.1380972E-01
   7157.67  5.1182801E-01
   7158.00  5.0949160E-01
   7158.33  5.0682676E-01
   7158.67  5.0392312E-01
   7159.00  5.0081924E-01
   7159.33  4.9753889E-01
   7159.67  4.9414867E-01
   7160.00  4.9069291E-01
   7160.33  4.8722518E-01
   7160.67  4.8380216E-01
   7161.00  4.8046831E-01
   7161.33  4.7728459E-01
   7161.67  4.7426930E-01
   7162.00  4.7144428E-01
   7162.33  4.6884709E-01
   7162.67  4.6645195E-01
   7163.00  4.6425727E-01
   7163.33  4.6228864E-01
   7163.67  4.6052228E-01
   7164.00  4.5895940E-01
   7164.33  4.5762468E-01
   7164.67  4.5649072E-01
   7165.00  4.5555892E-01
   7165.33  4.5485311E-01
   7165.67  4.5433578E-01
   7166.00  4.5399238E-01
   7166.33  4.5382372E-01
   7166.67  4.5378986E-01
   7167.00  4.5387223E-01
   7167.33  4.5406154E-01
   7167.67  4.5432590E-01
   7168.00  4.5464870E-01
   7168.33  4.5501599E-01
   7168.67  4.5540561E-01
   7169.00  4.5580481E-01
   7169.33  4.5620104E-01
   7169.67  4.5658516E-01
   7170.00  4.5695131E-01
   7170.33  4.5729331E-01
   7170.67  4.5761359E-01
   7171.00  4.5791323E-01
   7171.33  4.5818910E-01
   7171.67  4.5843541E-01
   7172.00  4.5863505E-01
