    FDMNES
    energy     <xanes>
   7097.00  5.0041321E-03
   7097.33  5.1215115E-03
   7097.67  5.2441503E-03
   7098.00  5.3723997E-03
   7098.33  5.5074690E-03
   7098.67  5.6491027E-03
   7099.00  5.7977771E-03
   7099.33  5.9550671E-03
   7099.67  6.1207083E-03
   7100.00  6.2953641E-03
   7100.33  6.4811372E-03
   7100.67  6.6777763E-03
   7101.00  6.8862330E-03
   7101.33  7.1093998E-03
   7101.67  7.3470874E-03
   7102.00  7.6007099E-03
   7102.33  7.8743911E-03
   7102.67  8.1681109E-03
   7103.00  8.4840633E-03
   7103.33  8.8283875E-03
   7103.67  9.2014764E-03
   7104.00  9.6069159E-03
   7104.33  1.0054351E-02
   7104.67  1.0545164E-02
   7105.00  1.1085611E-02
   7105.33  1.1691922E-02
   7105.67  1.2367924E-02
   7106.00  1.3125500E-02
   7106.33  1.3994532E-02
   7106.67  1.4985409E-02
   7107.00  1.6123411E-02
   7107.33  1.7470822E-02
   7107.67  1.9058095E-02
   7108.00  2.0948479E-02
   7108.33  2.3297688E-02
   7108.67  2.6212051E-02
   7109.00  2.9894879E-02
   7109.33  3.4867548E-02
   7109.67  4.1644082E-02
   7110.00  5.1214016E-02
   7110.33  6.6344864E-02
   7110.67  9.0151806E-02
   7111.00  1.2580564E-01
   7111.33  1.7666386E-01
   7111.67  2.4074634E-01
   7112.00  3.0237510E-01
   7112.33  3.5676204E-01
   7112.67  4.0474007E-01
   7113.00  4.1968972E-01
   7113.33  3.7887818E-01
   7113.67  3.1033772E-01
   7114.00  2.4195569E-01
   7114.33  1.9657183E-01
   7114.67  1.7694973E-01
   7115.00  1.8038352E-01
   7115.33  2.0729376E-01
   7115.67  2.5301890E-01
   7116.00  3.0676360E-01
   7116.33  3.3757298E-01
   7116.67  3.2956606E-01
   7117.00  2.9309005E-01
   7117.33  2.5192368E-01
   7117.67  2.1923634E-01
   7118.00  1.9618234E-01
   7118.33  1.8103397E-01
   7118.67  1.6991228E-01
   7119.00  1.6112105E-01
   7119.33  1.5368239E-01
   7119.67  1.4759896E-01
   7120.00  1.4344213E-01
   7120.33  1.4135956E-01
   7120.67  1.4061802E-01
   7121.00  1.4112936E-01
   7121.33  1.4339084E-01
   7121.67  1.4753683E-01
   7122.00  1.5372631E-01
   7122.33  1.6236090E-01
   7122.67  1.7330111E-01
   7123.00  1.8667709E-01
   7123.33  2.0286253E-01
   7123.67  2.2113035E-01
   7124.00  2.4034290E-01
   7124.33  2.5800698E-01
   7124.67  2.7216426E-01
   7125.00  2.8276822E-01
   7125.33  2.9208200E-01
   7125.67  3.0326678E-01
   7126.00  3.1780294E-01
   7126.33  3.3624739E-01
   7126.67  3.5732213E-01
   7127.00  3.8024839E-01
   7127.33  4.0483454E-01
   7127.67  4.3121889E-01
   7128.00  4.5997292E-01
   7128.33  4.9188409E-01
   7128.67  5.2627227E-01
   7129.00  5.6201339E-01
   7129.33  5.9674548E-01
   7129.67  6.2818243E-01
   7130.00  6.5527448E-01
   7130.33  6.7805876E-01
   7130.67  6.9909755E-01
   7131.00  7.2059910E-01
   7131.33  7.4483250E-01
   7131.67  7.7220249E-01
   7132.00  8.0224336E-01
   7132.33  8.3368997E-01
   7132.67  8.6455313E-01
   7133.00  8.9320759E-01
   7133.33  9.1718164E-01
   7133.67  9.3491578E-01
   7134.00  9.4467133E-01
   7134.33  9.4375841E-01
   7134.67  9.3290858E-01
   7135.00  9.1271929E-01
   7135.33  8.8383419E-01
   7135.67  8.4931889E-01
   7136.00  8.1098964E-01
   7136.33  7.7046828E-01
   7136.67  7.2952377E-01
   7137.00  6.8923034E-01
   7137.33  6.5085095E-01
   7137.67  6.1505126E-01
   7138.00  5.8243793E-01
   7138.33  5.5395764E-01
   7138.67  5.2941946E-01
   7139.00  5.0890538E-01
   7139.33  4.9283041E-01
   7139.67  4.8044922E-01
   7140.00  4.7143943E-01
   7140.33  4.6572755E-01
   7140.67  4.6250113E-01
   7141.00  4.6140477E-01
   7141.33  4.6228078E-01
   7141.67  4.6455706E-01
   7142.00  4.6793222E-01
   7142.33  4.7213273E-01
   7142.67  4.7668408E-01
   7143.00  4.8125191E-01
   7143.33  4.8541535E-01
   7143.67  4.8888782E-01
   7144.00  4.9144728E-01
   7144.33  4.9280253E-01
   7144.67  4.9304602E-01
   7145.00  4.9223371E-01
   7145.33  4.9044511E-01
   7145.67  4.8810341E-01
   7146.00  4.8555232E-01
   7146.33  4.8325004E-01
   7146.67  4.8156353E-01
   7147.00  4.8076588E-01
   7147.33  4.8121936E-01
   7147.67  4.8286530E-01
   7148.00  4.8565301E-01
   7148.33  4.8955652E-01
   7148.67  4.9426442E-01
   7149.00  4.9961787E-01
   7149.33  5.0551900E-01
   7149.67  5.1178644E-01
   7150.00  5.1834242E-01
   7150.33  5.2515652E-01
   7150.67  5.3217512E-01
   7151.00  5.3938795E-01
   7151.33  5.4680380E-01
   7151.67  5.5437379E-01
   7152.00  5.6205753E-01
   7152.33  5.6979096E-01
   7152.67  5.7748004E-01
   7153.00  5.8503835E-01
   7153.33  5.9233069E-01
   7153.67  5.9928300E-01
   7154.00  6.0581354E-01
   7154.33  6.1177907E-01
   7154.67  6.1718204E-01
   7155.00  6.2198863E-01
   7155.33  6.2610380E-01
   7155.67  6.2960584E-01
   7156.00  6.3250809E-01
   7156.33  6.3476364E-01
   7156.67  6.3647429E-01
   7157.00  6.3766592E-01
   7157.33  6.3830443E-01
   7157.67  6.3847305E-01
   7158.00  6.3818460E-01
   7158.33  6.3739028E-01
   7158.67  6.3614601E-01
   7159.00  6.3444652E-01
   7159.33  6.3222359E-01
   7159.67  6.2952370E-01
   7160.00  6.2633786E-01
   7160.33  6.2259626E-01
   7160.67  6.1835743E-01
   7161.00  6.1362580E-01
   7161.33  6.0835440E-01
   7161.67  6.0262160E-01
   7162.00  5.9644800E-01
   7162.33  5.8981252E-01
   7162.67  5.8280415E-01
   7163.00  5.7546030E-01
   7163.33  5.6779272E-01
   7163.67  5.5988944E-01
   7164.00  5.5179750E-01
   7164.33  5.4355576E-01
   7164.67  5.3523614E-01
   7165.00  5.2688476E-01
   7165.33  5.1855538E-01
   7165.67  5.1029424E-01
   7166.00  5.0213972E-01
   7166.33  4.9414875E-01
   7166.67  4.8633618E-01
   7167.00  4.7872517E-01
   7167.33  4.7136261E-01
   7167.67  4.6423415E-01
   7168.00  4.5734924E-01
   7168.33  4.5074985E-01
   7168.67  4.4441519E-01
   7169.00  4.3835637E-01
   7169.33  4.3262640E-01
   7169.67  4.2721137E-01
   7170.00  4.2213491E-01
   7170.33  4.1746769E-01
   7170.67  4.1318881E-01
   7171.00  4.0932294E-01
   7171.33  4.0596498E-01
   7171.67  4.0311985E-01
   7172.00  4.0085946E-01
