    FDMNES
    energy     <xanes>
   7097.00  4.8014126E-03
   7097.33  4.9157321E-03
   7097.67  5.0352170E-03
   7098.00  5.1602139E-03
   7098.33  5.2919136E-03
   7098.67  5.4300675E-03
   7099.00  5.5751461E-03
   7099.33  5.7287015E-03
   7099.67  5.8904765E-03
   7100.00  6.0611264E-03
   7100.33  6.2427248E-03
   7100.67  6.4350271E-03
   7101.00  6.6389730E-03
   7101.33  6.8574152E-03
   7101.67  7.0901686E-03
   7102.00  7.3386278E-03
   7102.33  7.6068567E-03
   7102.67  7.8948328E-03
   7103.00  8.2047138E-03
   7103.33  8.5425375E-03
   7103.67  8.9086759E-03
   7104.00  9.3066391E-03
   7104.33  9.7458776E-03
   7104.67  1.0227698E-02
   7105.00  1.0758183E-02
   7105.33  1.1353131E-02
   7105.67  1.2016142E-02
   7106.00  1.2758646E-02
   7106.33  1.3609436E-02
   7106.67  1.4578184E-02
   7107.00  1.5688856E-02
   7107.33  1.7000568E-02
   7107.67  1.8541282E-02
   7108.00  2.0369827E-02
   7108.33  2.2630992E-02
   7108.67  2.5420848E-02
   7109.00  2.8924369E-02
   7109.33  3.3615033E-02
   7109.67  3.9951034E-02
   7110.00  4.8816412E-02
   7110.33  6.2675250E-02
   7110.67  8.4231395E-02
   7111.00  1.1613440E-01
   7111.33  1.6012583E-01
   7111.67  2.1218490E-01
   7112.00  2.7193360E-01
   7112.33  3.2195276E-01
   7112.67  3.4180893E-01
   7113.00  3.7093548E-01
   7113.33  4.4358549E-01
   7113.67  5.2799712E-01
   7114.00  5.4858943E-01
   7114.33  4.3853439E-01
   7114.67  3.0922663E-01
   7115.00  2.2006905E-01
   7115.33  1.7540458E-01
   7115.67  1.5770136E-01
   7116.00  1.6162769E-01
   7116.33  1.8165496E-01
   7116.67  1.9071168E-01
   7117.00  1.6803680E-01
   7117.33  1.3115651E-01
   7117.67  1.0416903E-01
   7118.00  8.8332741E-02
   7118.33  8.1036889E-02
   7118.67  7.8832895E-02
   7119.00  8.0478181E-02
   7119.33  8.4775186E-02
   7119.67  8.9961580E-02
   7120.00  9.5965098E-02
   7120.33  1.0268123E-01
   7120.67  1.0848236E-01
   7121.00  1.1302355E-01
   7121.33  1.1734459E-01
   7121.67  1.2233519E-01
   7122.00  1.2851280E-01
   7122.33  1.3664796E-01
   7122.67  1.4703797E-01
   7123.00  1.6024101E-01
   7123.33  1.7774321E-01
   7123.67  1.9987636E-01
   7124.00  2.2637610E-01
   7124.33  2.5540880E-01
   7124.67  2.8274786E-01
   7125.00  3.0462903E-01
   7125.33  3.1766223E-01
   7125.67  3.2475870E-01
   7126.00  3.3044716E-01
   7126.33  3.3925915E-01
   7126.67  3.5146251E-01
   7127.00  3.6626663E-01
   7127.33  3.8305510E-01
   7127.67  4.0115024E-01
   7128.00  4.2076454E-01
   7128.33  4.4359986E-01
   7128.67  4.7156239E-01
   7129.00  5.0674985E-01
   7129.33  5.5217212E-01
   7129.67  6.0726135E-01
   7130.00  6.7110737E-01
   7130.33  7.4182332E-01
   7130.67  8.1476804E-01
   7131.00  8.8587420E-01
   7131.33  9.4776807E-01
   7131.67  9.9284934E-01
   7132.00  1.0140593E+00
   7132.33  1.0051341E+00
   7132.67  9.7405381E-01
   7133.00  9.2878836E-01
   7133.33  8.7878676E-01
   7133.67  8.3241792E-01
   7134.00  7.9359340E-01
   7134.33  7.6449397E-01
   7134.67  7.4246988E-01
   7135.00  7.2526861E-01
   7135.33  7.1086402E-01
   7135.67  6.9774470E-01
   7136.00  6.8583259E-01
   7136.33  6.7580130E-01
   7136.67  6.6780261E-01
   7137.00  6.6172217E-01
   7137.33  6.5714795E-01
   7137.67  6.5325837E-01
   7138.00  6.4978530E-01
   7138.33  6.4704627E-01
   7138.67  6.4570771E-01
   7139.00  6.4661668E-01
   7139.33  6.5108023E-01
   7139.67  6.5922600E-01
   7140.00  6.7100785E-01
   7140.33  6.8608093E-01
   7140.67  7.0277054E-01
   7141.00  7.1966542E-01
   7141.33  7.3476812E-01
   7141.67  7.4638239E-01
   7142.00  7.5282938E-01
   7142.33  7.5135476E-01
   7142.67  7.4148368E-01
   7143.00  7.2299623E-01
   7143.33  6.9628118E-01
   7143.67  6.6497051E-01
   7144.00  6.3177050E-01
   7144.33  5.9938814E-01
   7144.67  5.6938198E-01
   7145.00  5.4238521E-01
   7145.33  5.1887945E-01
   7145.67  4.9827188E-01
   7146.00  4.8033020E-01
   7146.33  4.6511317E-01
   7146.67  4.5213996E-01
   7147.00  4.4131302E-01
   7147.33  4.3281912E-01
   7147.67  4.2633889E-01
   7148.00  4.2181331E-01
   7148.33  4.1938004E-01
   7148.67  4.1862665E-01
   7149.00  4.1932934E-01
   7149.33  4.2133451E-01
   7149.67  4.2416016E-01
   7150.00  4.2750616E-01
   7150.33  4.3105740E-01
   7150.67  4.3449328E-01
   7151.00  4.3761611E-01
   7151.33  4.4021289E-01
   7151.67  4.4226809E-01
   7152.00  4.4377751E-01
   7152.33  4.4473049E-01
   7152.67  4.4528251E-01
   7153.00  4.4553340E-01
   7153.33  4.4558620E-01
   7153.67  4.4558725E-01
   7154.00  4.4563991E-01
   7154.33  4.4588200E-01
   7154.67  4.4639386E-01
   7155.00  4.4724636E-01
   7155.33  4.4855477E-01
   7155.67  4.5030930E-01
   7156.00  4.5252385E-01
   7156.33  4.5524573E-01
   7156.67  4.5838254E-01
   7157.00  4.6188332E-01
   7157.33  4.6570448E-01
   7157.67  4.6971485E-01
   7158.00  4.7382374E-01
   7158.33  4.7791954E-01
   7158.67  4.8189304E-01
   7159.00  4.8565124E-01
   7159.33  4.8904990E-01
   7159.67  4.9202987E-01
   7160.00  4.9451068E-01
   7160.33  4.9633176E-01
   7160.67  4.9748747E-01
   7161.00  4.9791800E-01
   7161.33  4.9746657E-01
   7161.67  4.9618870E-01
   7162.00  4.9406722E-01
   7162.33  4.9099728E-01
   7162.67  4.8710353E-01
   7163.00  4.8242272E-01
   7163.33  4.7692506E-01
   7163.67  4.7078038E-01
   7164.00  4.6407183E-01
   7164.33  4.5685568E-01
   7164.67  4.4931609E-01
   7165.00  4.4156436E-01
   7165.33  4.3371006E-01
   7165.67  4.2587613E-01
   7166.00  4.1814842E-01
   7166.33  4.1063715E-01
   7166.67  4.0339049E-01
   7167.00  3.9645975E-01
   7167.33  3.8993856E-01
   7167.67  3.8382053E-01
   7168.00  3.7813370E-01
   7168.33  3.7296121E-01
   7168.67  3.6826583E-01
   7169.00  3.6406033E-01
   7169.33  3.6041509E-01
   7169.67  3.5726684E-01
   7170.00  3.5460651E-01
   7170.33  3.5247196E-01
   7170.67  3.5077337E-01
   7171.00  3.4947453E-01
   7171.33  3.4856260E-01
   7171.67  3.4791789E-01
   7172.00  3.4745404E-01
