    FDMNES
    energy     <xanes>
   7097.00  4.8320832E-03
   7097.33  4.9430523E-03
   7097.67  5.0590424E-03
   7098.00  5.1803988E-03
   7098.33  5.3082931E-03
   7098.67  5.4424963E-03
   7099.00  5.5834822E-03
   7099.33  5.7327922E-03
   7099.67  5.8901969E-03
   7100.00  6.0563653E-03
   7100.33  6.2333824E-03
   7100.67  6.4210463E-03
   7101.00  6.6203335E-03
   7101.33  6.8341584E-03
   7101.67  7.0624092E-03
   7102.00  7.3065679E-03
   7102.33  7.5708752E-03
   7102.67  7.8554470E-03
   7103.00  8.1626439E-03
   7103.33  8.4989457E-03
   7103.67  8.8650165E-03
   7104.00  9.2648449E-03
   7104.33  9.7089623E-03
   7104.67  1.0199364E-02
   7105.00  1.0743318E-02
   7105.33  1.1359360E-02
   7105.67  1.2052916E-02
   7106.00  1.2838604E-02
   7106.33  1.3752743E-02
   7106.67  1.4810569E-02
   7107.00  1.6045808E-02
   7107.33  1.7541248E-02
   7107.67  1.9345320E-02
   7108.00  2.1553184E-02
   7108.33  2.4402271E-02
   7108.67  2.8087969E-02
   7109.00  3.2979755E-02
   7109.33  4.0069885E-02
   7109.67  5.0550680E-02
   7110.00  6.6780270E-02
   7110.33  9.5395399E-02
   7110.67  1.4069707E-01
   7111.00  1.9154786E-01
   7111.33  2.2225304E-01
   7111.67  2.6185455E-01
   7112.00  3.1120659E-01
   7112.33  3.1215980E-01
   7112.67  2.7234167E-01
   7113.00  2.4605799E-01
   7113.33  2.5218466E-01
   7113.67  2.6362032E-01
   7114.00  2.6723961E-01
   7114.33  2.6116652E-01
   7114.67  2.4972604E-01
   7115.00  2.4262939E-01
   7115.33  2.3469470E-01
   7115.67  2.0907806E-01
   7116.00  1.6738168E-01
   7116.33  1.3001443E-01
   7116.67  1.0532698E-01
   7117.00  9.1539044E-02
   7117.33  8.6109159E-02
   7117.67  8.5627534E-02
   7118.00  8.8520938E-02
   7118.33  9.3789821E-02
   7118.67  1.0127931E-01
   7119.00  1.1209453E-01
   7119.33  1.2774325E-01
   7119.67  1.4769309E-01
   7120.00  1.6921806E-01
   7120.33  1.8363745E-01
   7120.67  1.8889504E-01
   7121.00  1.9004686E-01
   7121.33  1.9201065E-01
   7121.67  1.9469170E-01
   7122.00  1.9723035E-01
   7122.33  2.0041747E-01
   7122.67  2.0600705E-01
   7123.00  2.1509528E-01
   7123.33  2.2853578E-01
   7123.67  2.4598667E-01
   7124.00  2.6741263E-01
   7124.33  2.9156828E-01
   7124.67  3.1455215E-01
   7125.00  3.3308286E-01
   7125.33  3.4463605E-01
   7125.67  3.5113462E-01
   7126.00  3.5527900E-01
   7126.33  3.6086036E-01
   7126.67  3.7037334E-01
   7127.00  3.8486303E-01
   7127.33  4.0485316E-01
   7127.67  4.2829482E-01
   7128.00  4.5325675E-01
   7128.33  4.7742502E-01
   7128.67  4.9908006E-01
   7129.00  5.1713631E-01
   7129.33  5.3063179E-01
   7129.67  5.4065272E-01
   7130.00  5.4825221E-01
   7130.33  5.5443187E-01
   7130.67  5.6009536E-01
   7131.00  5.6577946E-01
   7131.33  5.7250530E-01
   7131.67  5.8126764E-01
   7132.00  5.9270545E-01
   7132.33  6.0700218E-01
   7132.67  6.2289791E-01
   7133.00  6.3947729E-01
   7133.33  6.5627741E-01
   7133.67  6.7371051E-01
   7134.00  6.9266623E-01
   7134.33  7.1413217E-01
   7134.67  7.3677663E-01
   7135.00  7.5762625E-01
   7135.33  7.7147438E-01
   7135.67  7.7709097E-01
   7136.00  7.7614895E-01
   7136.33  7.7235366E-01
   7136.67  7.6928748E-01
   7137.00  7.6804444E-01
   7137.33  7.6842897E-01
   7137.67  7.6906827E-01
   7138.00  7.6894246E-01
   7138.33  7.6701301E-01
   7138.67  7.6297521E-01
   7139.00  7.5652162E-01
   7139.33  7.4703150E-01
   7139.67  7.3473108E-01
   7140.00  7.1975124E-01
   7140.33  7.0224757E-01
   7140.67  6.8314938E-01
   7141.00  6.6310835E-01
   7141.33  6.4299534E-01
   7141.67  6.2381236E-01
   7142.00  6.0641662E-01
   7142.33  5.9196341E-01
   7142.67  5.8059961E-01
   7143.00  5.7236670E-01
   7143.33  5.6722733E-01
   7143.67  5.6409195E-01
   7144.00  5.6216084E-01
   7144.33  5.6053097E-01
   7144.67  5.5838995E-01
   7145.00  5.5527285E-01
   7145.33  5.5073848E-01
   7145.67  5.4491315E-01
   7146.00  5.3793558E-01
   7146.33  5.3000527E-01
   7146.67  5.2163882E-01
   7147.00  5.1323287E-01
   7147.33  5.0530331E-01
   7147.67  4.9819706E-01
   7148.00  4.9215974E-01
   7148.33  4.8752573E-01
   7148.67  4.8422565E-01
   7149.00  4.8226870E-01
   7149.33  4.8176481E-01
   7149.67  4.8244565E-01
   7150.00  4.8418924E-01
   7150.33  4.8694680E-01
   7150.67  4.9043106E-01
   7151.00  4.9448267E-01
   7151.33  4.9894480E-01
   7151.67  5.0354433E-01
   7152.00  5.0806574E-01
   7152.33  5.1219969E-01
   7152.67  5.1572118E-01
   7153.00  5.1841544E-01
   7153.33  5.1995727E-01
   7153.67  5.2035913E-01
   7154.00  5.1959542E-01
   7154.33  5.1758519E-01
   7154.67  5.1460646E-01
   7155.00  5.1083053E-01
   7155.33  5.0642189E-01
   7155.67  5.0169938E-01
   7156.00  4.9686921E-01
   7156.33  4.9215323E-01
   7156.67  4.8769821E-01
   7157.00  4.8359605E-01
   7157.33  4.7995448E-01
   7157.67  4.7673275E-01
   7158.00  4.7391230E-01
   7158.33  4.7149626E-01
   7158.67  4.6938790E-01
   7159.00  4.6754337E-01
   7159.33  4.6594727E-01
   7159.67  4.6454384E-01
   7160.00  4.6332526E-01
   7160.33  4.6232393E-01
   7160.67  4.6153750E-01
   7161.00  4.6099251E-01
   7161.33  4.6075868E-01
   7161.67  4.6083804E-01
   7162.00  4.6125821E-01
   7162.33  4.6208430E-01
   7162.67  4.6327206E-01
   7163.00  4.6480238E-01
   7163.33  4.6666372E-01
   7163.67  4.6874317E-01
   7164.00  4.7095366E-01
   7164.33  4.7316999E-01
   7164.67  4.7524322E-01
   7165.00  4.7703708E-01
   7165.33  4.7834527E-01
   7165.67  4.7909147E-01
   7166.00  4.7919476E-01
   7166.33  4.7852839E-01
   7166.67  4.7720769E-01
   7167.00  4.7531873E-01
   7167.33  4.7297059E-01
   7167.67  4.7041739E-01
   7168.00  4.6784584E-01
   7168.33  4.6548237E-01
   7168.67  4.6346745E-01
   7169.00  4.6189785E-01
   7169.33  4.6089444E-01
   7169.67  4.6039851E-01
   7170.00  4.6037889E-01
   7170.33  4.6082082E-01
   7170.67  4.6158443E-01
   7171.00  4.6258058E-01
   7171.33  4.6370381E-01
   7171.67  4.6479506E-01
   7172.00  4.6570957E-01
