    FDMNES
    energy     <xanes>
   7097.00  4.2692990E-03
   7097.33  4.3504951E-03
   7097.67  4.4346282E-03
   7098.00  4.5218661E-03
   7098.33  4.6128382E-03
   7098.67  4.7073667E-03
   7099.00  4.8056749E-03
   7099.33  4.9085597E-03
   7099.67  5.0158340E-03
   7100.00  5.1278048E-03
   7100.33  5.2455084E-03
   7100.67  5.3687600E-03
   7101.00  5.4979954E-03
   7101.33  5.6346107E-03
   7101.67  5.7784470E-03
   7102.00  5.9301522E-03
   7102.33  6.0916879E-03
   7102.67  6.2629790E-03
   7103.00  6.4450400E-03
   7103.33  6.6407807E-03
   7103.67  6.8503441E-03
   7104.00  7.0754278E-03
   7104.33  7.3206536E-03
   7104.67  7.5867196E-03
   7105.00  7.8767102E-03
   7105.33  8.1986466E-03
   7105.67  8.5546949E-03
   7106.00  8.9510870E-03
   7106.33  9.4034662E-03
   7106.67  9.9182642E-03
   7107.00  1.0509987E-02
   7107.33  1.1214393E-02
   7107.67  1.2052405E-02
   7108.00  1.3065209E-02
   7108.33  1.4355489E-02
   7108.67  1.6007190E-02
   7109.00  1.8178103E-02
   7109.33  2.1287600E-02
   7109.67  2.5825034E-02
   7110.00  3.2750919E-02
   7110.33  4.4853813E-02
   7110.67  6.5247776E-02
   7111.00  9.5134101E-02
   7111.33  1.2619697E-01
   7111.67  1.4478858E-01
   7112.00  1.3990195E-01
   7112.33  1.1620914E-01
   7112.67  9.2563028E-02
   7113.00  7.3893047E-02
   7113.33  6.0892087E-02
   7113.67  5.2616827E-02
   7114.00  4.7998103E-02
   7114.33  4.4334482E-02
   7114.67  4.0694473E-02
   7115.00  3.8236824E-02
   7115.33  3.7457906E-02
   7115.67  3.7808856E-02
   7116.00  3.8923475E-02
   7116.33  4.0487169E-02
   7116.67  4.2330480E-02
   7117.00  4.4621591E-02
   7117.33  4.7812765E-02
   7117.67  5.2166206E-02
   7118.00  5.7993808E-02
   7118.33  6.5902478E-02
   7118.67  7.5924002E-02
   7119.00  8.7946576E-02
   7119.33  1.0128349E-01
   7119.67  1.1435593E-01
   7120.00  1.2604613E-01
   7120.33  1.3597536E-01
   7120.67  1.4552795E-01
   7121.00  1.5600286E-01
   7121.33  1.6840712E-01
   7121.67  1.8229456E-01
   7122.00  1.9709138E-01
   7122.33  2.1250305E-01
   7122.67  2.2918059E-01
   7123.00  2.4942177E-01
   7123.33  2.7912914E-01
   7123.67  3.2298240E-01
   7124.00  3.8478717E-01
   7124.33  4.6603301E-01
   7124.67  5.5159683E-01
   7125.00  6.2071980E-01
   7125.33  6.5279075E-01
   7125.67  6.5656528E-01
   7126.00  6.4562793E-01
   7126.33  6.3496905E-01
   7126.67  6.3352519E-01
   7127.00  6.4433786E-01
   7127.33  6.6732838E-01
   7127.67  6.9420218E-01
   7128.00  7.1709995E-01
   7128.33  7.3002871E-01
   7128.67  7.3623078E-01
   7129.00  7.3988570E-01
   7129.33  7.4428413E-01
   7129.67  7.4983045E-01
   7130.00  7.5573667E-01
   7130.33  7.6104651E-01
   7130.67  7.6564850E-01
   7131.00  7.6976171E-01
   7131.33  7.7324607E-01
   7131.67  7.7582643E-01
   7132.00  7.7783149E-01
   7132.33  7.8031315E-01
   7132.67  7.8305641E-01
   7133.00  7.8411539E-01
   7133.33  7.7981236E-01
   7133.67  7.6934482E-01
   7134.00  7.5386969E-01
   7134.33  7.3617868E-01
   7134.67  7.1951598E-01
   7135.00  7.0557675E-01
   7135.33  6.9567620E-01
   7135.67  6.8934116E-01
   7136.00  6.8611051E-01
   7136.33  6.8547888E-01
   7136.67  6.8627135E-01
   7137.00  6.8775209E-01
   7137.33  6.8915162E-01
   7137.67  6.8986335E-01
   7138.00  6.8949371E-01
   7138.33  6.8758315E-01
   7138.67  6.8420657E-01
   7139.00  6.7943480E-01
   7139.33  6.7336999E-01
   7139.67  6.6654115E-01
   7140.00  6.5935130E-01
   7140.33  6.5232483E-01
   7140.67  6.4593771E-01
   7141.00  6.4056083E-01
   7141.33  6.3665552E-01
   7141.67  6.3408717E-01
   7142.00  6.3251741E-01
   7142.33  6.3092862E-01
   7142.67  6.2768091E-01
   7143.00  6.2136287E-01
   7143.33  6.1089404E-01
   7143.67  5.9764903E-01
   7144.00  5.8311557E-01
   7144.33  5.6891664E-01
   7144.67  5.5595956E-01
   7145.00  5.4454497E-01
   7145.33  5.3480540E-01
   7145.67  5.2625201E-01
   7146.00  5.1853240E-01
   7146.33  5.1125906E-01
   7146.67  5.0397690E-01
   7147.00  4.9639852E-01
   7147.33  4.8821795E-01
   7147.67  4.7937734E-01
   7148.00  4.6985919E-01
   7148.33  4.5965702E-01
   7148.67  4.4899206E-01
   7149.00  4.3802889E-01
   7149.33  4.2696643E-01
   7149.67  4.1600908E-01
   7150.00  4.0528530E-01
   7150.33  3.9494309E-01
   7150.67  3.8500806E-01
   7151.00  3.7552098E-01
   7151.33  3.6657437E-01
   7151.67  3.5812894E-01
   7152.00  3.5019590E-01
   7152.33  3.4284595E-01
   7152.67  3.3601202E-01
   7153.00  3.2968452E-01
   7153.33  3.2390267E-01
   7153.67  3.1857466E-01
   7154.00  3.1366826E-01
   7154.33  3.0919069E-01
   7154.67  3.0505578E-01
   7155.00  3.0123533E-01
   7155.33  2.9773972E-01
   7155.67  2.9451528E-01
   7156.00  2.9155385E-01
   7156.33  2.8888732E-01
   7156.67  2.8648952E-01
   7157.00  2.8437255E-01
   7157.33  2.8259755E-01
   7157.67  2.8116076E-01
   7158.00  2.8009911E-01
   7158.33  2.7952435E-01
   7158.67  2.7946197E-01
   7159.00  2.7999241E-01
   7159.33  2.8130346E-01
   7159.67  2.8340699E-01
   7160.00  2.8637713E-01
   7160.33  2.9039770E-01
   7160.67  2.9539194E-01
   7161.00  3.0136474E-01
   7161.33  3.0840023E-01
   7161.67  3.1632250E-01
   7162.00  3.2506563E-01
   7162.33  3.3463264E-01
   7162.67  3.4483749E-01
   7163.00  3.5558831E-01
   7163.33  3.6681364E-01
   7163.67  3.7831449E-01
   7164.00  3.8994637E-01
   7164.33  4.0151538E-01
   7164.67  4.1282982E-01
   7165.00  4.2372069E-01
   7165.33  4.3393412E-01
   7165.67  4.4340032E-01
   7166.00  4.5203110E-01
   7166.33  4.5966221E-01
   7166.67  4.6640327E-01
   7167.00  4.7228831E-01
   7167.33  4.7729000E-01
   7167.67  4.8159855E-01
   7168.00  4.8529987E-01
   7168.33  4.8842976E-01
   7168.67  4.9114069E-01
   7169.00  4.9349639E-01
   7169.33  4.9552607E-01
   7169.67  4.9732056E-01
   7170.00  4.9891618E-01
   7170.33  5.0032342E-01
   7170.67  5.0158430E-01
   7171.00  5.0270966E-01
   7171.33  5.0368799E-01
   7171.67  5.0453048E-01
   7172.00  5.0522496E-01
