    FDMNES
    energy     <xanes>
   7097.00  4.9459764E-03
   7097.33  5.0655789E-03
   7097.67  5.1908043E-03
   7098.00  5.3220537E-03
   7098.33  5.4606640E-03
   7098.67  5.6063998E-03
   7099.00  5.7598184E-03
   7099.33  5.9226997E-03
   7099.67  6.0948181E-03
   7100.00  6.2769720E-03
   7100.33  6.4716032E-03
   7100.67  6.6785370E-03
   7101.00  6.8989591E-03
   7101.33  7.1363422E-03
   7101.67  7.3906526E-03
   7102.00  7.6637282E-03
   7102.33  7.9607287E-03
   7102.67  8.2819638E-03
   7103.00  8.6304342E-03
   7103.33  9.0142291E-03
   7103.67  9.4344765E-03
   7104.00  9.8963997E-03
   7104.33  1.0413565E-02
   7104.67  1.0989109E-02
   7105.00  1.1632891E-02
   7105.33  1.2369729E-02
   7105.67  1.3208037E-02
   7106.00  1.4168521E-02
   7106.33  1.5302142E-02
   7106.67  1.6632887E-02
   7107.00  1.8211021E-02
   7107.33  2.0159500E-02
   7107.67  2.2557079E-02
   7108.00  2.5554199E-02
   7108.33  2.9527629E-02
   7108.67  3.4808998E-02
   7109.00  4.2020273E-02
   7109.33  5.2847041E-02
   7109.67  6.9399799E-02
   7110.00  9.5872427E-02
   7110.33  1.4440941E-01
   7110.67  2.2561064E-01
   7111.00  3.2722992E-01
   7111.33  3.7303572E-01
   7111.67  3.4715763E-01
   7112.00  2.9602084E-01
   7112.33  2.6684826E-01
   7112.67  2.5438472E-01
   7113.00  2.4383188E-01
   7113.33  2.2512040E-01
   7113.67  2.0386664E-01
   7114.00  1.8384139E-01
   7114.33  1.6134309E-01
   7114.67  1.3636290E-01
   7115.00  1.1430035E-01
   7115.33  9.9308027E-02
   7115.67  8.9909519E-02
   7116.00  8.4787681E-02
   7116.33  8.3143727E-02
   7116.67  8.3826813E-02
   7117.00  8.6394968E-02
   7117.33  9.0693943E-02
   7117.67  9.6393063E-02
   7118.00  1.0359109E-01
   7118.33  1.1281604E-01
   7118.67  1.2391572E-01
   7119.00  1.3616642E-01
   7119.33  1.4786639E-01
   7119.67  1.5861771E-01
   7120.00  1.6966437E-01
   7120.33  1.8274641E-01
   7120.67  1.9789379E-01
   7121.00  2.1471819E-01
   7121.33  2.3337180E-01
   7121.67  2.5427862E-01
   7122.00  2.7823342E-01
   7122.33  3.0660147E-01
   7122.67  3.3929333E-01
   7123.00  3.7588745E-01
   7123.33  4.1508505E-01
   7123.67  4.5399104E-01
   7124.00  4.8969128E-01
   7124.33  5.1705964E-01
   7124.67  5.3254073E-01
   7125.00  5.3416739E-01
   7125.33  5.2376552E-01
   7125.67  5.1049839E-01
   7126.00  5.0068486E-01
   7126.33  4.9889381E-01
   7126.67  5.0471038E-01
   7127.00  5.1735052E-01
   7127.33  5.3562768E-01
   7127.67  5.5582925E-01
   7128.00  5.7444044E-01
   7128.33  5.8712851E-01
   7128.67  5.9328156E-01
   7129.00  5.9414737E-01
   7129.33  5.9203187E-01
   7129.67  5.8947394E-01
   7130.00  5.8747010E-01
   7130.33  5.8645486E-01
   7130.67  5.8622989E-01
   7131.00  5.8664302E-01
   7131.33  5.8754940E-01
   7131.67  5.8867353E-01
   7132.00  5.8986507E-01
   7132.33  5.9115041E-01
   7132.67  5.9286359E-01
   7133.00  5.9552239E-01
   7133.33  5.9985653E-01
   7133.67  6.0569661E-01
   7134.00  6.1247380E-01
   7134.33  6.1921072E-01
   7134.67  6.2527152E-01
   7135.00  6.3065555E-01
   7135.33  6.3584555E-01
   7135.67  6.4157159E-01
   7136.00  6.4834140E-01
   7136.33  6.5653537E-01
   7136.67  6.6569531E-01
   7137.00  6.7520297E-01
   7137.33  6.8409564E-01
   7137.67  6.9166499E-01
   7138.00  6.9751219E-01
   7138.33  7.0130362E-01
   7138.67  7.0345649E-01
   7139.00  7.0424910E-01
   7139.33  7.0388479E-01
   7139.67  7.0275182E-01
   7140.00  7.0099242E-01
   7140.33  6.9862350E-01
   7140.67  6.9574365E-01
   7141.00  6.9236447E-01
   7141.33  6.8845101E-01
   7141.67  6.8413651E-01
   7142.00  6.7952913E-01
   7142.33  6.7471211E-01
   7142.67  6.6978860E-01
   7143.00  6.6481483E-01
   7143.33  6.5982978E-01
   7143.67  6.5483613E-01
   7144.00  6.4980061E-01
   7144.33  6.4463724E-01
   7144.67  6.3926687E-01
   7145.00  6.3360500E-01
   7145.33  6.2751940E-01
   7145.67  6.2100851E-01
   7146.00  6.1407404E-01
   7146.33  6.0672689E-01
   7146.67  5.9911953E-01
   7147.00  5.9136789E-01
   7147.33  5.8361143E-01
   7147.67  5.7597487E-01
   7148.00  5.6854036E-01
   7148.33  5.6140225E-01
   7148.67  5.5455663E-01
   7149.00  5.4800789E-01
   7149.33  5.4177055E-01
   7149.67  5.3577104E-01
   7150.00  5.2996863E-01
   7150.33  5.2432892E-01
   7150.67  5.1877927E-01
   7151.00  5.1327491E-01
   7151.33  5.0776572E-01
   7151.67  5.0220486E-01
   7152.00  4.9655424E-01
   7152.33  4.9075529E-01
   7152.67  4.8478906E-01
   7153.00  4.7863327E-01
   7153.33  4.7224664E-01
   7153.67  4.6565179E-01
   7154.00  4.5885674E-01
   7154.33  4.5185950E-01
   7154.67  4.4471375E-01
   7155.00  4.3745432E-01
   7155.33  4.3012134E-01
   7155.67  4.2277780E-01
   7156.00  4.1547392E-01
   7156.33  4.0828047E-01
   7156.67  4.0124164E-01
   7157.00  3.9440336E-01
   7157.33  3.8784518E-01
   7157.67  3.8157747E-01
   7158.00  3.7563061E-01
   7158.33  3.7007920E-01
   7158.67  3.6490695E-01
   7159.00  3.6013535E-01
   7159.33  3.5583893E-01
   7159.67  3.5198120E-01
   7160.00  3.4856804E-01
   7160.33  3.4564961E-01
   7160.67  3.4315068E-01
   7161.00  3.4104283E-01
   7161.33  3.3932838E-01
   7161.67  3.3791359E-01
   7162.00  3.3675284E-01
   7162.33  3.3582467E-01
   7162.67  3.3506603E-01
   7163.00  3.3445437E-01
   7163.33  3.3399328E-01
   7163.67  3.3366618E-01
   7164.00  3.3348124E-01
   7164.33  3.3347384E-01
   7164.67  3.3364383E-01
   7165.00  3.3400900E-01
   7165.33  3.3461568E-01
   7165.67  3.3545321E-01
   7166.00  3.3653216E-01
   7166.33  3.3789233E-01
   7166.67  3.3950669E-01
   7167.00  3.4137504E-01
   7167.33  3.4352349E-01
   7167.67  3.4591030E-01
   7168.00  3.4852234E-01
   7168.33  3.5136691E-01
   7168.67  3.5439702E-01
   7169.00  3.5759275E-01
   7169.33  3.6094670E-01
   7169.67  3.6441445E-01
   7170.00  3.6797086E-01
   7170.33  3.7158902E-01
   7170.67  3.7521827E-01
   7171.00  3.7880536E-01
   7171.33  3.8223237E-01
   7171.67  3.8533803E-01
   7172.00  3.8788980E-01
