    FDMNES
    energy     <xanes>
   7097.00  4.5592142E-03
   7097.33  4.6605254E-03
   7097.67  4.7662634E-03
   7098.00  4.8767293E-03
   7098.33  4.9929513E-03
   7098.67  5.1147249E-03
   7099.00  5.2424647E-03
   7099.33  5.3775247E-03
   7099.67  5.5197025E-03
   7100.00  5.6695866E-03
   7100.33  5.8290129E-03
   7100.67  5.9978084E-03
   7101.00  6.1768380E-03
   7101.33  6.3686797E-03
   7101.67  6.5732495E-03
   7102.00  6.7918724E-03
   7102.33  7.0283243E-03
   7102.67  7.2827437E-03
   7103.00  7.5572626E-03
   7103.33  7.8577042E-03
   7103.67  8.1847370E-03
   7104.00  8.5420065E-03
   7104.33  8.9390853E-03
   7104.67  9.3779264E-03
   7105.00  9.8652558E-03
   7105.33  1.0418142E-02
   7105.67  1.1041839E-02
   7106.00  1.1750039E-02
   7106.33  1.2576609E-02
   7106.67  1.3536202E-02
   7107.00  1.4660654E-02
   7107.33  1.6027824E-02
   7107.67  1.7683734E-02
   7108.00  1.9717936E-02
   7108.33  2.2352667E-02
   7108.67  2.5768259E-02
   7109.00  3.0302600E-02
   7109.33  3.6850479E-02
   7109.67  4.6445897E-02
   7110.00  6.1115849E-02
   7110.33  8.6733072E-02
   7110.67  1.2979004E-01
   7111.00  1.9220618E-01
   7111.33  2.5290007E-01
   7111.67  2.8953355E-01
   7112.00  2.9623064E-01
   7112.33  2.8786811E-01
   7112.67  2.7157452E-01
   7113.00  2.5091163E-01
   7113.33  2.1983900E-01
   7113.67  1.7908401E-01
   7114.00  1.4086947E-01
   7114.33  1.1460528E-01
   7114.67  9.6007042E-02
   7115.00  8.1138926E-02
   7115.33  6.9272037E-02
   7115.67  6.0171704E-02
   7116.00  5.3832139E-02
   7116.33  5.0056854E-02
   7116.67  4.7977652E-02
   7117.00  4.7210439E-02
   7117.33  4.7582001E-02
   7117.67  4.8793311E-02
   7118.00  5.0808106E-02
   7118.33  5.3820713E-02
   7118.67  5.7835993E-02
   7119.00  6.2872575E-02
   7119.33  6.8838516E-02
   7119.67  7.5082922E-02
   7120.00  8.0880541E-02
   7120.33  8.5320537E-02
   7120.67  8.8386945E-02
   7121.00  9.0497236E-02
   7121.33  9.2447560E-02
   7121.67  9.5044855E-02
   7122.00  9.8816716E-02
   7122.33  1.0444945E-01
   7122.67  1.1216969E-01
   7123.00  1.2239970E-01
   7123.33  1.3617365E-01
   7123.67  1.5392131E-01
   7124.00  1.7645215E-01
   7124.33  2.0546469E-01
   7124.67  2.4123446E-01
   7125.00  2.8457554E-01
   7125.33  3.3648788E-01
   7125.67  3.9242868E-01
   7126.00  4.4450036E-01
   7126.33  4.8154939E-01
   7126.67  5.0631979E-01
   7127.00  5.2759921E-01
   7127.33  5.5647892E-01
   7127.67  5.9765885E-01
   7128.00  6.5206813E-01
   7128.33  7.1935152E-01
   7128.67  7.9442575E-01
   7129.00  8.7280613E-01
   7129.33  9.4729503E-01
   7129.67  1.0110396E+00
   7130.00  1.0589149E+00
   7130.33  1.0854251E+00
   7130.67  1.0931166E+00
   7131.00  1.0843126E+00
   7131.33  1.0619336E+00
   7131.67  1.0325527E+00
   7132.00  9.9999704E-01
   7132.33  9.6735953E-01
   7132.67  9.3619981E-01
   7133.00  9.0690162E-01
   7133.33  8.7959383E-01
   7133.67  8.5393954E-01
   7134.00  8.3004041E-01
   7134.33  8.0825682E-01
   7134.67  7.8811580E-01
   7135.00  7.6914694E-01
   7135.33  7.5089523E-01
   7135.67  7.3297648E-01
   7136.00  7.1534174E-01
   7136.33  6.9816585E-01
   7136.67  6.8162010E-01
   7137.00  6.6592387E-01
   7137.33  6.5146461E-01
   7137.67  6.3830925E-01
   7138.00  6.2657448E-01
   7138.33  6.1650158E-01
   7138.67  6.0788245E-01
   7139.00  6.0064495E-01
   7139.33  5.9481943E-01
   7139.67  5.9009830E-01
   7140.00  5.8634873E-01
   7140.33  5.8352907E-01
   7140.67  5.8141112E-01
   7141.00  5.7990634E-01
   7141.33  5.7899516E-01
   7141.67  5.7853559E-01
   7142.00  5.7845972E-01
   7142.33  5.7871649E-01
   7142.67  5.7918570E-01
   7143.00  5.7980143E-01
   7143.33  5.8048485E-01
   7143.67  5.8113988E-01
   7144.00  5.8169944E-01
   7144.33  5.8206761E-01
   7144.67  5.8220735E-01
   7145.00  5.8209248E-01
   7145.33  5.8168746E-01
   7145.67  5.8104182E-01
   7146.00  5.8017650E-01
   7146.33  5.7908492E-01
   7146.67  5.7779299E-01
   7147.00  5.7627613E-01
   7147.33  5.7443091E-01
   7147.67  5.7221278E-01
   7148.00  5.6955366E-01
   7148.33  5.6631237E-01
   7148.67  5.6248975E-01
   7149.00  5.5804832E-01
   7149.33  5.5288931E-01
   7149.67  5.4710055E-01
   7150.00  5.4070785E-01
   7150.33  5.3368575E-01
   7150.67  5.2615611E-01
   7151.00  5.1816425E-01
   7151.33  5.0970646E-01
   7151.67  5.0087510E-01
   7152.00  4.9170014E-01
   7152.33  4.8217367E-01
   7152.67  4.7236065E-01
   7153.00  4.6228108E-01
   7153.33  4.5192959E-01
   7153.67  4.4136621E-01
   7154.00  4.3062227E-01
   7154.33  4.1972513E-01
   7154.67  4.0874726E-01
   7155.00  3.9774528E-01
   7155.33  3.8679685E-01
   7155.67  3.7597252E-01
   7156.00  3.6534110E-01
   7156.33  3.5501805E-01
   7156.67  3.4505167E-01
   7157.00  3.3551297E-01
   7157.33  3.2654400E-01
   7157.67  3.1815537E-01
   7158.00  3.1040729E-01
   7158.33  3.0345376E-01
   7158.67  2.9726677E-01
   7159.00  2.9189266E-01
   7159.33  2.8748483E-01
   7159.67  2.8397093E-01
   7160.00  2.8136886E-01
   7160.33  2.7979591E-01
   7160.67  2.7912159E-01
   7161.00  2.7931753E-01
   7161.33  2.8043773E-01
   7161.67  2.8231633E-01
   7162.00  2.8488780E-01
   7162.33  2.8813403E-01
   7162.67  2.9187792E-01
   7163.00  2.9603631E-01
   7163.33  3.0055546E-01
   7163.67  3.0529907E-01
   7164.00  3.1018943E-01
   7164.33  3.1515230E-01
   7164.67  3.2010379E-01
   7165.00  3.2498860E-01
   7165.33  3.2973873E-01
   7165.67  3.3433482E-01
   7166.00  3.3876118E-01
   7166.33  3.4299031E-01
   7166.67  3.4705056E-01
   7167.00  3.5095586E-01
   7167.33  3.5471388E-01
   7167.67  3.5836864E-01
   7168.00  3.6194390E-01
   7168.33  3.6546129E-01
   7168.67  3.6895488E-01
   7169.00  3.7244456E-01
   7169.33  3.7594848E-01
   7169.67  3.7947328E-01
   7170.00  3.8301819E-01
   7170.33  3.8657268E-01
   7170.67  3.9010875E-01
   7171.00  3.9358439E-01
   7171.33  3.9689327E-01
   7171.67  3.9989079E-01
   7172.00  4.0236245E-01
