    FDMNES
    energy     <xanes>
   7097.00  4.3028045E-03
   7097.33  4.3901028E-03
   7097.67  4.4808510E-03
   7098.00  4.5752657E-03
   7098.33  4.6741183E-03
   7098.67  4.7772256E-03
   7099.00  4.8848815E-03
   7099.33  4.9980841E-03
   7099.67  5.1166463E-03
   7100.00  5.2409800E-03
   7100.33  5.3724143E-03
   7100.67  5.5107756E-03
   7101.00  5.6566616E-03
   7101.33  5.8119065E-03
   7101.67  5.9763890E-03
   7102.00  6.1510141E-03
   7102.33  6.3384252E-03
   7102.67  6.5386404E-03
   7103.00  6.7531036E-03
   7103.33  6.9858324E-03
   7103.67  7.2371901E-03
   7104.00  7.5096307E-03
   7104.33  7.8096850E-03
   7104.67  8.1385697E-03
   7105.00  8.5008050E-03
   7105.33  8.9079611E-03
   7105.67  9.3634910E-03
   7106.00  9.8766355E-03
   7106.33  1.0470376E-02
   7106.67  1.1154672E-02
   7107.00  1.1951305E-02
   7107.33  1.2913782E-02
   7107.67  1.4074502E-02
   7108.00  1.5496551E-02
   7108.33  1.7337723E-02
   7108.67  1.9731720E-02
   7109.00  2.2930621E-02
   7109.33  2.7614381E-02
   7109.67  3.4615845E-02
   7110.00  4.5586306E-02
   7110.33  6.5238130E-02
   7110.67  9.7129466E-02
   7111.00  1.3472433E-01
   7111.33  1.5350666E-01
   7111.67  1.6068208E-01
   7112.00  1.6607228E-01
   7112.33  1.7667043E-01
   7112.67  1.8608629E-01
   7113.00  1.7994932E-01
   7113.33  1.5530383E-01
   7113.67  1.2731676E-01
   7114.00  1.0341367E-01
   7114.33  8.5421641E-02
   7114.67  7.0232711E-02
   7115.00  5.7739753E-02
   7115.33  4.9439344E-02
   7115.67  4.4388263E-02
   7116.00  4.1690197E-02
   7116.33  4.0850439E-02
   7116.67  4.1333423E-02
   7117.00  4.3038008E-02
   7117.33  4.6035093E-02
   7117.67  4.9862346E-02
   7118.00  5.3773535E-02
   7118.33  5.6737090E-02
   7118.67  5.9323306E-02
   7119.00  6.2691087E-02
   7119.33  6.7585125E-02
   7119.67  7.3420174E-02
   7120.00  7.9440699E-02
   7120.33  8.4800881E-02
   7120.67  8.9458240E-02
   7121.00  9.3910437E-02
   7121.33  9.9139463E-02
   7121.67  1.0590578E-01
   7122.00  1.1479122E-01
   7122.33  1.2670340E-01
   7122.67  1.4184615E-01
   7123.00  1.6066529E-01
   7123.33  1.8407855E-01
   7123.67  2.1170701E-01
   7124.00  2.4325085E-01
   7124.33  2.7772816E-01
   7124.67  3.1196305E-01
   7125.00  3.4287749E-01
   7125.33  3.6856386E-01
   7125.67  3.9273244E-01
   7126.00  4.1981650E-01
   7126.33  4.5415662E-01
   7126.67  4.9536359E-01
   7127.00  5.4213196E-01
   7127.33  5.9340437E-01
   7127.67  6.4767220E-01
   7128.00  7.0422093E-01
   7128.33  7.6259414E-01
   7128.67  8.2203667E-01
   7129.00  8.8163191E-01
   7129.33  9.3846306E-01
   7129.67  9.8798924E-01
   7130.00  1.0250637E+00
   7130.33  1.0429247E+00
   7130.67  1.0426455E+00
   7131.00  1.0263770E+00
   7131.33  9.9774252E-01
   7131.67  9.6419530E-01
   7132.00  9.3046043E-01
   7132.33  9.0062345E-01
   7132.67  8.7561077E-01
   7133.00  8.5524282E-01
   7133.33  8.3901647E-01
   7133.67  8.2528362E-01
   7134.00  8.1317684E-01
   7134.33  8.0219493E-01
   7134.67  7.9177943E-01
   7135.00  7.8141149E-01
   7135.33  7.7022690E-01
   7135.67  7.5769642E-01
   7136.00  7.4363819E-01
   7136.33  7.2813685E-01
   7136.67  7.1194902E-01
   7137.00  6.9569512E-01
   7137.33  6.8010559E-01
   7137.67  6.6556667E-01
   7138.00  6.5229711E-01
   7138.33  6.4056323E-01
   7138.67  6.3017081E-01
   7139.00  6.2103987E-01
   7139.33  6.1318128E-01
   7139.67  6.0630718E-01
   7140.00  6.0029169E-01
   7140.33  5.9508557E-01
   7140.67  5.9047274E-01
   7141.00  5.8635738E-01
   7141.33  5.8269248E-01
   7141.67  5.7934673E-01
   7142.00  5.7626277E-01
   7142.33  5.7341309E-01
   7142.67  5.7073574E-01
   7143.00  5.6822280E-01
   7143.33  5.6590267E-01
   7143.67  5.6376132E-01
   7144.00  5.6181407E-01
   7144.33  5.6011654E-01
   7144.67  5.5865594E-01
   7145.00  5.5741605E-01
   7145.33  5.5634703E-01
   7145.67  5.5530157E-01
   7146.00  5.5413045E-01
   7146.33  5.5260286E-01
   7146.67  5.5058515E-01
   7147.00  5.4796382E-01
   7147.33  5.4459543E-01
   7147.67  5.4059543E-01
   7148.00  5.3604391E-01
   7148.33  5.3100971E-01
   7148.67  5.2567323E-01
   7149.00  5.2013008E-01
   7149.33  5.1444817E-01
   7149.67  5.0869137E-01
   7150.00  5.0287432E-01
   7150.33  4.9697841E-01
   7150.67  4.9098254E-01
   7151.00  4.8485348E-01
   7151.33  4.7853207E-01
   7151.67  4.7201402E-01
   7152.00  4.6529102E-01
   7152.33  4.5833370E-01
   7152.67  4.5116677E-01
   7153.00  4.4378792E-01
   7153.33  4.3615970E-01
   7153.67  4.2829100E-01
   7154.00  4.2016151E-01
   7154.33  4.1171423E-01
   7154.67  4.0297153E-01
   7155.00  3.9393537E-01
   7155.33  3.8459592E-01
   7155.67  3.7503900E-01
   7156.00  3.6533349E-01
   7156.33  3.5558030E-01
   7156.67  3.4591644E-01
   7157.00  3.3647352E-01
   7157.33  3.2746244E-01
   7157.67  3.1900055E-01
   7158.00  3.1122819E-01
   7158.33  3.0440194E-01
   7158.67  2.9854643E-01
   7159.00  2.9374954E-01
   7159.33  2.9021830E-01
   7159.67  2.8783602E-01
   7160.00  2.8659224E-01
   7160.33  2.8658184E-01
   7160.67  2.8760173E-01
   7161.00  2.8958337E-01
   7161.33  2.9254790E-01
   7161.67  2.9628777E-01
   7162.00  3.0070852E-01
   7162.33  3.0577649E-01
   7162.67  3.1132378E-01
   7163.00  3.1726750E-01
   7163.33  3.2354681E-01
   7163.67  3.3002903E-01
   7164.00  3.3663425E-01
   7164.33  3.4328343E-01
   7164.67  3.4989167E-01
   7165.00  3.5639019E-01
   7165.33  3.6269181E-01
   7165.67  3.6876877E-01
   7166.00  3.7458709E-01
   7166.33  3.8008192E-01
   7166.67  3.8527259E-01
   7167.00  3.9015464E-01
   7167.33  3.9469456E-01
   7167.67  3.9894020E-01
   7168.00  4.0290492E-01
   7168.33  4.0658238E-01
   7168.67  4.1003653E-01
   7169.00  4.1329608E-01
   7169.33  4.1637349E-01
   7169.67  4.1931815E-01
   7170.00  4.2215004E-01
   7170.33  4.2487207E-01
   7170.67  4.2749892E-01
   7171.00  4.3001764E-01
   7171.33  4.3236607E-01
   7171.67  4.3446952E-01
   7172.00  4.3620002E-01
