    FDMNES
    energy     <xanes>
   7097.00  4.2563539E-03
   7097.33  4.3413759E-03
   7097.67  4.4297256E-03
   7098.00  4.5216107E-03
   7098.33  4.6177732E-03
   7098.67  4.7180342E-03
   7099.00  4.8226753E-03
   7099.33  4.9326546E-03
   7099.67  5.0477894E-03
   7100.00  5.1684731E-03
   7100.33  5.2959796E-03
   7100.67  5.4301382E-03
   7101.00  5.5715186E-03
   7101.33  5.7218757E-03
   7101.67  5.8810868E-03
   7102.00  6.0500138E-03
   7102.33  6.2311797E-03
   7102.67  6.4245931E-03
   7103.00  6.6316262E-03
   7103.33  6.8561061E-03
   7103.67  7.0983661E-03
   7104.00  7.3607352E-03
   7104.33  7.6494224E-03
   7104.67  7.9655672E-03
   7105.00  8.3134545E-03
   7105.33  8.7040679E-03
   7105.67  9.1406629E-03
   7106.00  9.6319969E-03
   7106.33  1.0199867E-02
   7106.67  1.0853700E-02
   7107.00  1.1614147E-02
   7107.33  1.2531967E-02
   7107.67  1.3637905E-02
   7108.00  1.4991849E-02
   7108.33  1.6743644E-02
   7108.67  1.9020355E-02
   7109.00  2.2061505E-02
   7109.33  2.6513015E-02
   7109.67  3.3165603E-02
   7110.00  4.3587195E-02
   7110.33  6.2275058E-02
   7110.67  9.2881847E-02
   7111.00  1.3012594E-01
   7111.33  1.4951251E-01
   7111.67  1.5508944E-01
   7112.00  1.5720978E-01
   7112.33  1.5667064E-01
   7112.67  1.5191993E-01
   7113.00  1.4299133E-01
   7113.33  1.3400490E-01
   7113.67  1.2633208E-01
   7114.00  1.1664807E-01
   7114.33  1.0260914E-01
   7114.67  8.4799412E-02
   7115.00  6.7380509E-02
   7115.33  5.6063223E-02
   7115.67  4.9581771E-02
   7116.00  4.6355330E-02
   7116.33  4.5439324E-02
   7116.67  4.5974455E-02
   7117.00  4.7714069E-02
   7117.33  5.0670714E-02
   7117.67  5.4679355E-02
   7118.00  5.9734107E-02
   7118.33  6.5897459E-02
   7118.67  7.2852649E-02
   7119.00  8.0270586E-02
   7119.33  8.7520416E-02
   7119.67  9.3880270E-02
   7120.00  9.8887604E-02
   7120.33  1.0246885E-01
   7120.67  1.0561931E-01
   7121.00  1.0930310E-01
   7121.33  1.1462820E-01
   7121.67  1.2203880E-01
   7122.00  1.3196162E-01
   7122.33  1.4527748E-01
   7122.67  1.6215290E-01
   7123.00  1.8309959E-01
   7123.33  2.0941360E-01
   7123.67  2.4122155E-01
   7124.00  2.7876333E-01
   7124.33  3.2131702E-01
   7124.67  3.6401304E-01
   7125.00  4.0080180E-01
   7125.33  4.2398892E-01
   7125.67  4.3494944E-01
   7126.00  4.3851103E-01
   7126.33  4.4071089E-01
   7126.67  4.4548083E-01
   7127.00  4.5495113E-01
   7127.33  4.7180248E-01
   7127.67  4.9568022E-01
   7128.00  5.2603076E-01
   7128.33  5.6274527E-01
   7128.67  6.0416893E-01
   7129.00  6.4888415E-01
   7129.33  6.9441833E-01
   7129.67  7.3774562E-01
   7130.00  7.7677765E-01
   7130.33  8.0947828E-01
   7130.67  8.3645213E-01
   7131.00  8.5826371E-01
   7131.33  8.7516907E-01
   7131.67  8.8814646E-01
   7132.00  8.9705870E-01
   7132.33  9.0059433E-01
   7132.67  8.9836789E-01
   7133.00  8.8978226E-01
   7133.33  8.7433075E-01
   7133.67  8.5432933E-01
   7134.00  8.3171001E-01
   7134.33  8.0834048E-01
   7134.67  7.8542708E-01
   7135.00  7.6341906E-01
   7135.33  7.4273281E-01
   7135.67  7.2340752E-01
   7136.00  7.0558881E-01
   7136.33  6.8964343E-01
   7136.67  6.7549192E-01
   7137.00  6.6319946E-01
   7137.33  6.5299839E-01
   7137.67  6.4456643E-01
   7138.00  6.3776090E-01
   7138.33  6.3253406E-01
   7138.67  6.2845562E-01
   7139.00  6.2530494E-01
   7139.33  6.2292917E-01
   7139.67  6.2103668E-01
   7140.00  6.1948591E-01
   7140.33  6.1818261E-01
   7140.67  6.1701982E-01
   7141.00  6.1595758E-01
   7141.33  6.1498318E-01
   7141.67  6.1407926E-01
   7142.00  6.1324147E-01
   7142.33  6.1246160E-01
   7142.67  6.1169714E-01
   7143.00  6.1089400E-01
   7143.33  6.0994335E-01
   7143.67  6.0874155E-01
   7144.00  6.0717247E-01
   7144.33  6.0504147E-01
   7144.67  6.0230853E-01
   7145.00  5.9893149E-01
   7145.33  5.9485595E-01
   7145.67  5.9026446E-01
   7146.00  5.8529618E-01
   7146.33  5.8011115E-01
   7146.67  5.7489161E-01
   7147.00  5.6972643E-01
   7147.33  5.6468560E-01
   7147.67  5.5976680E-01
   7148.00  5.5494923E-01
   7148.33  5.5019091E-01
   7148.67  5.4542613E-01
   7149.00  5.4060757E-01
   7149.33  5.3568248E-01
   7149.67  5.3064426E-01
   7150.00  5.2549697E-01
   7150.33  5.2025700E-01
   7150.67  5.1498167E-01
   7151.00  5.0971994E-01
   7151.33  5.0453881E-01
   7151.67  4.9948373E-01
   7152.00  4.9459466E-01
   7152.33  4.8993144E-01
   7152.67  4.8548993E-01
   7153.00  4.8127726E-01
   7153.33  4.7731666E-01
   7153.67  4.7356395E-01
   7154.00  4.6999901E-01
   7154.33  4.6661387E-01
   7154.67  4.6335852E-01
   7155.00  4.6020650E-01
   7155.33  4.5713538E-01
   7155.67  4.5410493E-01
   7156.00  4.5108942E-01
   7156.33  4.4805902E-01
   7156.67  4.4499014E-01
   7157.00  4.4186406E-01
   7157.33  4.3865352E-01
   7157.67  4.3535621E-01
   7158.00  4.3196837E-01
   7158.33  4.2848292E-01
   7158.67  4.2492418E-01
   7159.00  4.2131159E-01
   7159.33  4.1767377E-01
   7159.67  4.1405457E-01
   7160.00  4.1049687E-01
   7160.33  4.0707334E-01
   7160.67  4.0383153E-01
   7161.00  4.0082511E-01
   7161.33  3.9815843E-01
   7161.67  3.9586661E-01
   7162.00  3.9401047E-01
   7162.33  3.9271051E-01
   7162.67  3.9194562E-01
   7163.00  3.9173166E-01
   7163.33  3.9212833E-01
   7163.67  3.9302911E-01
   7164.00  3.9438096E-01
   7164.33  3.9615411E-01
   7164.67  3.9821515E-01
   7165.00  4.0048814E-01
   7165.33  4.0290633E-01
   7165.67  4.0538275E-01
   7166.00  4.0786765E-01
   7166.33  4.1030919E-01
   7166.67  4.1268145E-01
   7167.00  4.1497133E-01
   7167.33  4.1716594E-01
   7167.67  4.1928368E-01
   7168.00  4.2133603E-01
   7168.33  4.2333275E-01
   7168.67  4.2529650E-01
   7169.00  4.2724063E-01
   7169.33  4.2917774E-01
   7169.67  4.3111813E-01
   7170.00  4.3306565E-01
   7170.33  4.3501865E-01
   7170.67  4.3696443E-01
   7171.00  4.3888094E-01
   7171.33  4.4070953E-01
   7171.67  4.4236772E-01
   7172.00  4.4373426E-01
