    FDMNES
    energy     <xanes>
   7097.00  4.6038143E-03
   7097.33  4.7050553E-03
   7097.67  4.8105831E-03
   7098.00  4.9206714E-03
   7098.33  5.0362846E-03
   7098.67  5.1571973E-03
   7099.00  5.2837767E-03
   7099.33  5.4172646E-03
   7099.67  5.5574234E-03
   7100.00  5.7047582E-03
   7100.33  5.8609063E-03
   7100.67  6.0256312E-03
   7101.00  6.1996481E-03
   7101.33  6.3851772E-03
   7101.67  6.5820145E-03
   7102.00  6.7912069E-03
   7102.33  7.0158686E-03
   7102.67  7.2558974E-03
   7103.00  7.5128896E-03
   7103.33  7.7913957E-03
   7103.67  8.0915719E-03
   7104.00  8.4159763E-03
   7104.33  8.7716062E-03
   7104.67  9.1592421E-03
   7105.00  9.5832485E-03
   7105.33  1.0055108E-02
   7105.67  1.0577144E-02
   7106.00  1.1157433E-02
   7106.33  1.1816513E-02
   7106.67  1.2560810E-02
   7107.00  1.3407013E-02
   7107.33  1.4396552E-02
   7107.67  1.5548243E-02
   7108.00  1.6902604E-02
   7108.33  1.8559746E-02
   7108.67  2.0584994E-02
   7109.00  2.3105437E-02
   7109.33  2.6447751E-02
   7109.67  3.0929483E-02
   7110.00  3.7167348E-02
   7110.33  4.6886335E-02
   7110.67  6.1914890E-02
   7111.00  8.3474788E-02
   7111.33  1.1095302E-01
   7111.67  1.4553908E-01
   7112.00  1.8198887E-01
   7112.33  2.1182951E-01
   7112.67  2.3748768E-01
   7113.00  2.5715492E-01
   7113.33  2.9212936E-01
   7113.67  3.3840516E-01
   7114.00  3.5180525E-01
   7114.33  3.3773252E-01
   7114.67  3.2157649E-01
   7115.00  2.8274410E-01
   7115.33  2.2530499E-01
   7115.67  1.8404768E-01
   7116.00  1.6887233E-01
   7116.33  1.7466172E-01
   7116.67  1.8668649E-01
   7117.00  2.0389475E-01
   7117.33  2.2600450E-01
   7117.67  2.3733667E-01
   7118.00  2.2847177E-01
   7118.33  2.0602502E-01
   7118.67  1.8374797E-01
   7119.00  1.6624928E-01
   7119.33  1.5486846E-01
   7119.67  1.4760661E-01
   7120.00  1.4285080E-01
   7120.33  1.3917165E-01
   7120.67  1.3570558E-01
   7121.00  1.3227394E-01
   7121.33  1.2906668E-01
   7121.67  1.2650437E-01
   7122.00  1.2498219E-01
   7122.33  1.2489809E-01
   7122.67  1.2605911E-01
   7123.00  1.2835943E-01
   7123.33  1.3192754E-01
   7123.67  1.3675266E-01
   7124.00  1.4298969E-01
   7124.33  1.5110440E-01
   7124.67  1.6129740E-01
   7125.00  1.7400494E-01
   7125.33  1.9015934E-01
   7125.67  2.0994728E-01
   7126.00  2.3380833E-01
   7126.33  2.6223664E-01
   7126.67  2.9314433E-01
   7127.00  3.2344827E-01
   7127.33  3.4811546E-01
   7127.67  3.6508465E-01
   7128.00  3.7462704E-01
   7128.33  3.7867553E-01
   7128.67  3.8135428E-01
   7129.00  3.8575311E-01
   7129.33  3.9562238E-01
   7129.67  4.1271447E-01
   7130.00  4.3846365E-01
   7130.33  4.7523698E-01
   7130.67  5.2223592E-01
   7131.00  5.7902187E-01
   7131.33  6.4524253E-01
   7131.67  7.1730778E-01
   7132.00  7.9208543E-01
   7132.33  8.6498714E-01
   7132.67  9.3178793E-01
   7133.00  9.8932675E-01
   7133.33  1.0338017E+00
   7133.67  1.0657917E+00
   7134.00  1.0853733E+00
   7134.33  1.0914587E+00
   7134.67  1.0859171E+00
   7135.00  1.0691578E+00
   7135.33  1.0410158E+00
   7135.67  1.0048087E+00
   7136.00  9.6285030E-01
   7136.33  9.1751435E-01
   7136.67  8.7146315E-01
   7137.00  8.2610328E-01
   7137.33  7.8266796E-01
   7137.67  7.4145576E-01
   7138.00  7.0264665E-01
   7138.33  6.6660169E-01
   7138.67  6.3301708E-01
   7139.00  6.0191678E-01
   7139.33  5.7370444E-01
   7139.67  5.4819802E-01
   7140.00  5.2553114E-01
   7140.33  5.0617193E-01
   7140.67  4.8971136E-01
   7141.00  4.7596557E-01
   7141.33  4.6486108E-01
   7141.67  4.5563492E-01
   7142.00  4.4786970E-01
   7142.33  4.4127368E-01
   7142.67  4.3543225E-01
   7143.00  4.3024273E-01
   7143.33  4.2584730E-01
   7143.67  4.2237845E-01
   7144.00  4.2012161E-01
   7144.33  4.1964780E-01
   7144.67  4.2107897E-01
   7145.00  4.2456327E-01
   7145.33  4.3027703E-01
   7145.67  4.3756981E-01
   7146.00  4.4583003E-01
   7146.33  4.5415287E-01
   7146.67  4.6164283E-01
   7147.00  4.6777596E-01
   7147.33  4.7219629E-01
   7147.67  4.7536013E-01
   7148.00  4.7768704E-01
   7148.33  4.7966846E-01
   7148.67  4.8179195E-01
   7149.00  4.8432379E-01
   7149.33  4.8746570E-01
   7149.67  4.9114875E-01
   7150.00  4.9531988E-01
   7150.33  4.9994600E-01
   7150.67  5.0489768E-01
   7151.00  5.1012944E-01
   7151.33  5.1564895E-01
   7151.67  5.2142397E-01
   7152.00  5.2746538E-01
   7152.33  5.3382256E-01
   7152.67  5.4046356E-01
   7153.00  5.4737352E-01
   7153.33  5.5453704E-01
   7153.67  5.6185265E-01
   7154.00  5.6923639E-01
   7154.33  5.7656827E-01
   7154.67  5.8373191E-01
   7155.00  5.9062225E-01
   7155.33  5.9707456E-01
   7155.67  6.0303646E-01
   7156.00  6.0843666E-01
   7156.33  6.1313259E-01
   7156.67  6.1715680E-01
   7157.00  6.2048291E-01
   7157.33  6.2300382E-01
   7157.67  6.2480304E-01
   7158.00  6.2588330E-01
   7158.33  6.2616746E-01
   7158.67  6.2576322E-01
   7159.00  6.2469290E-01
   7159.33  6.2290905E-01
   7159.67  6.2052779E-01
   7160.00  6.1758369E-01
   7160.33  6.1405460E-01
   7160.67  6.1005044E-01
   7161.00  6.0561072E-01
   7161.33  6.0073222E-01
   7161.67  5.9550723E-01
   7162.00  5.8997097E-01
   7162.33  5.8412775E-01
   7162.67  5.7804900E-01
   7163.00  5.7176418E-01
   7163.33  5.6528128E-01
   7163.67  5.5865072E-01
   7164.00  5.5189634E-01
   7164.33  5.4503228E-01
   7164.67  5.3809585E-01
   7165.00  5.3110954E-01
   7165.33  5.2409838E-01
   7165.67  5.1709555E-01
   7166.00  5.1012961E-01
   7166.33  5.0324415E-01
   7166.67  4.9646663E-01
   7167.00  4.8982916E-01
   7167.33  4.8338851E-01
   7167.67  4.7715356E-01
   7168.00  4.7114682E-01
   7168.33  4.6541850E-01
   7168.67  4.5994765E-01
   7169.00  4.5473655E-01
   7169.33  4.4981558E-01
   7169.67  4.4514865E-01
   7170.00  4.4073287E-01
   7170.33  4.3660032E-01
   7170.67  4.3273019E-01
   7171.00  4.2914344E-01
   7171.33  4.2592265E-01
   7171.67  4.2311238E-01
   7172.00  4.2083493E-01
