    FDMNES
    energy     <xanes>
   7097.00  4.3500461E-03
   7097.33  4.4346860E-03
   7097.67  4.5224132E-03
   7098.00  4.6134040E-03
   7098.33  4.7083199E-03
   7098.67  4.8069736E-03
   7099.00  4.9095998E-03
   7099.33  5.0170356E-03
   7099.67  5.1290848E-03
   7100.00  5.2460695E-03
   7100.33  5.3690796E-03
   7100.67  5.4979210E-03
   7101.00  5.6330529E-03
   7101.33  5.7759447E-03
   7101.67  5.9264319E-03
   7102.00  6.0851988E-03
   7102.33  6.2543158E-03
   7102.67  6.4337112E-03
   7103.00  6.6244631E-03
   7103.33  6.8296564E-03
   7103.67  7.0494632E-03
   7104.00  7.2857024E-03
   7104.33  7.5433121E-03
   7104.67  7.8230887E-03
   7105.00  8.1283777E-03
   7105.33  8.4678519E-03
   7105.67  8.8439804E-03
   7106.00  9.2636376E-03
   7106.33  9.7440381E-03
   7106.67  1.0292599E-02
   7107.00  1.0925692E-02
   7107.33  1.1683667E-02
   7107.67  1.2591158E-02
   7108.00  1.3696114E-02
   7108.33  1.5118508E-02
   7108.67  1.6960360E-02
   7109.00  1.9413178E-02
   7109.33  2.2990740E-02
   7109.67  2.8314059E-02
   7110.00  3.6608271E-02
   7110.33  5.1435711E-02
   7110.67  7.6537864E-02
   7111.00  1.1227020E-01
   7111.33  1.4534120E-01
   7111.67  1.5143606E-01
   7112.00  1.2638101E-01
   7112.33  9.4441461E-02
   7112.67  7.1996469E-02
   7113.00  5.7812485E-02
   7113.33  4.8951143E-02
   7113.67  4.3186293E-02
   7114.00  3.8709793E-02
   7114.33  3.5596167E-02
   7114.67  3.3826712E-02
   7115.00  3.3096079E-02
   7115.33  3.3196707E-02
   7115.67  3.3902218E-02
   7116.00  3.5204505E-02
   7116.33  3.7253711E-02
   7116.67  4.0018815E-02
   7117.00  4.3391872E-02
   7117.33  4.6983631E-02
   7117.67  5.0509670E-02
   7118.00  5.4307482E-02
   7118.33  5.9144991E-02
   7118.67  6.5365145E-02
   7119.00  7.3187039E-02
   7119.33  8.2885525E-02
   7119.67  9.4040053E-02
   7120.00  1.0632713E-01
   7120.33  1.1976093E-01
   7120.67  1.3465720E-01
   7121.00  1.5169282E-01
   7121.33  1.7213609E-01
   7121.67  1.9647887E-01
   7122.00  2.2539037E-01
   7122.33  2.6040391E-01
   7122.67  3.0191413E-01
   7123.00  3.5066294E-01
   7123.33  4.0781486E-01
   7123.67  4.7175225E-01
   7124.00  5.4099141E-01
   7124.33  6.1309214E-01
   7124.67  6.8416867E-01
   7125.00  7.5066917E-01
   7125.33  8.0705420E-01
   7125.67  8.5120956E-01
   7126.00  8.8281864E-01
   7126.33  9.0269853E-01
   7126.67  9.1339280E-01
   7127.00  9.1559398E-01
   7127.33  9.1231987E-01
   7127.67  9.0680160E-01
   7128.00  8.9906459E-01
   7128.33  8.8832471E-01
   7128.67  8.7374052E-01
   7129.00  8.5373770E-01
   7129.33  8.2718368E-01
   7129.67  7.9793731E-01
   7130.00  7.7111511E-01
   7130.33  7.5355052E-01
   7130.67  7.4659571E-01
   7131.00  7.4870776E-01
   7131.33  7.5616486E-01
   7131.67  7.6386957E-01
   7132.00  7.6910178E-01
   7132.33  7.6984023E-01
   7132.67  7.6612847E-01
   7133.00  7.5767936E-01
   7133.33  7.4348768E-01
   7133.67  7.2451954E-01
   7134.00  7.0208756E-01
   7134.33  6.7854618E-01
   7134.67  6.5687181E-01
   7135.00  6.3907898E-01
   7135.33  6.2624856E-01
   7135.67  6.1635708E-01
   7136.00  6.0780048E-01
   7136.33  5.9944266E-01
   7136.67  5.9085338E-01
   7137.00  5.8200094E-01
   7137.33  5.7295732E-01
   7137.67  5.6386927E-01
   7138.00  5.5483922E-01
   7138.33  5.4599210E-01
   7138.67  5.3739815E-01
   7139.00  5.2912700E-01
   7139.33  5.2130215E-01
   7139.67  5.1394940E-01
   7140.00  5.0715225E-01
   7140.33  5.0109052E-01
   7140.67  4.9574593E-01
   7141.00  4.9115212E-01
   7141.33  4.8742239E-01
   7141.67  4.8445409E-01
   7142.00  4.8221606E-01
   7142.33  4.8071461E-01
   7142.67  4.7974775E-01
   7143.00  4.7917904E-01
   7143.33  4.7884611E-01
   7143.67  4.7851893E-01
   7144.00  4.7802477E-01
   7144.33  4.7713630E-01
   7144.67  4.7574618E-01
   7145.00  4.7375769E-01
   7145.33  4.7101590E-01
   7145.67  4.6757702E-01
   7146.00  4.6344909E-01
   7146.33  4.5859136E-01
   7146.67  4.5315219E-01
   7147.00  4.4720625E-01
   7147.33  4.4080523E-01
   7147.67  4.3411526E-01
   7148.00  4.2724453E-01
   7148.33  4.2032128E-01
   7148.67  4.1349073E-01
   7149.00  4.0687301E-01
   7149.33  4.0064612E-01
   7149.67  3.9488807E-01
   7150.00  3.8968600E-01
   7150.33  3.8519246E-01
   7150.67  3.8136794E-01
   7151.00  3.7821668E-01
   7151.33  3.7578984E-01
   7151.67  3.7394660E-01
   7152.00  3.7262065E-01
   7152.33  3.7177415E-01
   7152.67  3.7124856E-01
   7153.00  3.7095276E-01
   7153.33  3.7080620E-01
   7153.67  3.7071047E-01
   7154.00  3.7060966E-01
   7154.33  3.7045180E-01
   7154.67  3.7021890E-01
   7155.00  3.6990629E-01
   7155.33  3.6951853E-01
   7155.67  3.6908846E-01
   7156.00  3.6863302E-01
   7156.33  3.6817059E-01
   7156.67  3.6772960E-01
   7157.00  3.6733081E-01
   7157.33  3.6699748E-01
   7157.67  3.6673189E-01
   7158.00  3.6653983E-01
   7158.33  3.6643368E-01
   7158.67  3.6640380E-01
   7159.00  3.6644972E-01
   7159.33  3.6658087E-01
   7159.67  3.6678759E-01
   7160.00  3.6706868E-01
   7160.33  3.6743021E-01
   7160.67  3.6785915E-01
   7161.00  3.6835139E-01
   7161.33  3.6890987E-01
   7161.67  3.6952515E-01
   7162.00  3.7019928E-01
   7162.33  3.7094956E-01
   7162.67  3.7178466E-01
   7163.00  3.7272595E-01
   7163.33  3.7382224E-01
   7163.67  3.7509290E-01
   7164.00  3.7657098E-01
   7164.33  3.7832422E-01
   7164.67  3.8035383E-01
   7165.00  3.8268047E-01
   7165.33  3.8535869E-01
   7165.67  3.8835545E-01
   7166.00  3.9166790E-01
   7166.33  3.9531684E-01
   7166.67  3.9923721E-01
   7167.00  4.0340521E-01
   7167.33  4.0781811E-01
   7167.67  4.1241684E-01
   7168.00  4.1717338E-01
   7168.33  4.2207063E-01
   7168.67  4.2706090E-01
   7169.00  4.3211691E-01
   7169.33  4.3721166E-01
   7169.67  4.4230959E-01
   7170.00  4.4738215E-01
   7170.33  4.5238236E-01
   7170.67  4.5726777E-01
   7171.00  4.6198049E-01
   7171.33  4.6638376E-01
   7171.67  4.7032173E-01
   7172.00  4.7354263E-01
