    FDMNES
    energy     <xanes>
   7097.00  4.9835713E-03
   7097.33  5.1008606E-03
   7097.67  5.2233831E-03
   7098.00  5.3514896E-03
   7098.33  5.4863866E-03
   7098.67  5.6278235E-03
   7099.00  5.7762798E-03
   7099.33  5.9333336E-03
   7099.67  6.0987313E-03
   7100.00  6.2731470E-03
   7100.33  6.4587035E-03
   7100.67  6.6551720E-03
   7101.00  6.8635330E-03
   7101.33  7.0867403E-03
   7101.67  7.3246520E-03
   7102.00  7.5787546E-03
   7102.33  7.8533299E-03
   7102.67  8.1484646E-03
   7103.00  8.4665269E-03
   7103.33  8.8140486E-03
   7103.67  9.1916743E-03
   7104.00  9.6034175E-03
   7104.33  1.0059906E-02
   7104.67  1.0563154E-02
   7105.00  1.1120522E-02
   7105.33  1.1750798E-02
   7105.67  1.2459570E-02
   7106.00  1.3261778E-02
   7106.33  1.4194547E-02
   7106.67  1.5273764E-02
   7107.00  1.6534302E-02
   7107.33  1.8061731E-02
   7107.67  1.9906948E-02
   7108.00  2.2169300E-02
   7108.33  2.5096350E-02
   7108.67  2.8892662E-02
   7109.00  3.3942672E-02
   7109.33  4.1272109E-02
   7109.67  5.2095008E-02
   7110.00  6.8803096E-02
   7110.33  9.8333868E-02
   7110.67  1.4795768E-01
   7111.00  2.1778183E-01
   7111.33  2.7843386E-01
   7111.67  3.0191891E-01
   7112.00  2.8934373E-01
   7112.33  2.5949293E-01
   7112.67  2.3060022E-01
   7113.00  2.0799270E-01
   7113.33  1.9129514E-01
   7113.67  1.7672136E-01
   7114.00  1.6266525E-01
   7114.33  1.4843538E-01
   7114.67  1.3452141E-01
   7115.00  1.2235669E-01
   7115.33  1.1443202E-01
   7115.67  1.1134154E-01
   7116.00  1.1325670E-01
   7116.33  1.2101384E-01
   7116.67  1.3441021E-01
   7117.00  1.5335741E-01
   7117.33  1.7527694E-01
   7117.67  1.9362176E-01
   7118.00  2.0558927E-01
   7118.33  2.1332829E-01
   7118.67  2.2033432E-01
   7119.00  2.2956777E-01
   7119.33  2.4500624E-01
   7119.67  2.6582598E-01
   7120.00  2.9109123E-01
   7120.33  3.2089497E-01
   7120.67  3.5279885E-01
   7121.00  3.8373099E-01
   7121.33  4.0947592E-01
   7121.67  4.2822993E-01
   7122.00  4.4018078E-01
   7122.33  4.4808394E-01
   7122.67  4.5700603E-01
   7123.00  4.7003637E-01
   7123.33  4.8922833E-01
   7123.67  5.1274806E-01
   7124.00  5.3780414E-01
   7124.33  5.5986866E-01
   7124.67  5.7672941E-01
   7125.00  5.8930199E-01
   7125.33  6.0066230E-01
   7125.67  6.1238307E-01
   7126.00  6.2296824E-01
   7126.33  6.2969415E-01
   7126.67  6.3263435E-01
   7127.00  6.3266105E-01
   7127.33  6.3011949E-01
   7127.67  6.2450130E-01
   7128.00  6.1429209E-01
   7128.33  5.9793593E-01
   7128.67  5.7738423E-01
   7129.00  5.5476892E-01
   7129.33  5.3252097E-01
   7129.67  5.1242957E-01
   7130.00  4.9573619E-01
   7130.33  4.8406034E-01
   7130.67  4.7704909E-01
   7131.00  4.7386806E-01
   7131.33  4.7287420E-01
   7131.67  4.7196583E-01
   7132.00  4.7038518E-01
   7132.33  4.6838634E-01
   7132.67  4.6698407E-01
   7133.00  4.6697275E-01
   7133.33  4.6917264E-01
   7133.67  4.7357116E-01
   7134.00  4.8019776E-01
   7134.33  4.8919623E-01
   7134.67  4.9991269E-01
   7135.00  5.1168823E-01
   7135.33  5.2349391E-01
   7135.67  5.3446719E-01
   7136.00  5.4434402E-01
   7136.33  5.5322622E-01
   7136.67  5.6167259E-01
   7137.00  5.7009370E-01
   7137.33  5.7902342E-01
   7137.67  5.8878830E-01
   7138.00  5.9949194E-01
   7138.33  6.1093460E-01
   7138.67  6.2232810E-01
   7139.00  6.3286630E-01
   7139.33  6.4142458E-01
   7139.67  6.4758840E-01
   7140.00  6.5109292E-01
   7140.33  6.5165001E-01
   7140.67  6.4994204E-01
   7141.00  6.4638612E-01
   7141.33  6.4133482E-01
   7141.67  6.3546646E-01
   7142.00  6.2919012E-01
   7142.33  6.2291216E-01
   7142.67  6.1692759E-01
   7143.00  6.1138068E-01
   7143.33  6.0636784E-01
   7143.67  6.0174501E-01
   7144.00  5.9737335E-01
   7144.33  5.9307823E-01
   7144.67  5.8871138E-01
   7145.00  5.8422431E-01
   7145.33  5.7964810E-01
   7145.67  5.7512557E-01
   7146.00  5.7081357E-01
   7146.33  5.6694344E-01
   7146.67  5.6360248E-01
   7147.00  5.6085182E-01
   7147.33  5.5877701E-01
   7147.67  5.5725493E-01
   7148.00  5.5620360E-01
   7148.33  5.5555092E-01
   7148.67  5.5512947E-01
   7149.00  5.5483410E-01
   7149.33  5.5454570E-01
   7149.67  5.5414631E-01
   7150.00  5.5353819E-01
   7150.33  5.5257369E-01
   7150.67  5.5119446E-01
   7151.00  5.4932775E-01
   7151.33  5.4683652E-01
   7151.67  5.4374391E-01
   7152.00  5.4002735E-01
   7152.33  5.3560112E-01
   7152.67  5.3056087E-01
   7153.00  5.2494046E-01
   7153.33  5.1873413E-01
   7153.67  5.1208362E-01
   7154.00  5.0506411E-01
   7154.33  4.9773233E-01
   7154.67  4.9021259E-01
   7155.00  4.8257573E-01
   7155.33  4.7488548E-01
   7155.67  4.6720206E-01
   7156.00  4.5956182E-01
   7156.33  4.5200802E-01
   7156.67  4.4455931E-01
   7157.00  4.3723758E-01
   7157.33  4.3008453E-01
   7157.67  4.2310161E-01
   7158.00  4.1630446E-01
   7158.33  4.0973466E-01
   7158.67  4.0338423E-01
   7159.00  3.9727063E-01
   7159.33  3.9144725E-01
   7159.67  3.8590324E-01
   7160.00  3.8065915E-01
   7160.33  3.7578153E-01
   7160.67  3.7125530E-01
   7161.00  3.6710099E-01
   7161.33  3.6338810E-01
   7161.67  3.6008429E-01
   7162.00  3.5719913E-01
   7162.33  3.5478943E-01
   7162.67  3.5279894E-01
   7163.00  3.5121926E-01
   7163.33  3.5008459E-01
   7163.67  3.4932729E-01
   7164.00  3.4893152E-01
   7164.33  3.4892277E-01
   7164.67  3.4924175E-01
   7165.00  3.4987546E-01
   7165.33  3.5084754E-01
   7165.67  3.5210655E-01
   7166.00  3.5363966E-01
   7166.33  3.5546157E-01
   7166.67  3.5751915E-01
   7167.00  3.5979144E-01
   7167.33  3.6227481E-01
   7167.67  3.6491604E-01
   7168.00  3.6768763E-01
   7168.33  3.7056807E-01
   7168.67  3.7351024E-01
   7169.00  3.7648333E-01
   7169.33  3.7945031E-01
   7169.67  3.8237508E-01
   7170.00  3.8522611E-01
   7170.33  3.8795332E-01
   7170.67  3.9053372E-01
   7171.00  3.9293316E-01
   7171.33  3.9507433E-01
   7171.67  3.9691543E-01
   7172.00  3.9837493E-01
