    FDMNES
    energy     <xanes>
   7097.00  4.3529270E-03
   7097.33  4.4422775E-03
   7097.67  4.5351174E-03
   7098.00  4.6316590E-03
   7098.33  4.7326714E-03
   7098.67  4.8379596E-03
   7099.00  4.9478094E-03
   7099.33  5.0632065E-03
   7099.67  5.1839485E-03
   7100.00  5.3104310E-03
   7100.33  5.4439531E-03
   7100.67  5.5843191E-03
   7101.00  5.7320960E-03
   7101.33  5.8890550E-03
   7101.67  6.0550397E-03
   7102.00  6.2308981E-03
   7102.33  6.4191466E-03
   7102.67  6.6197439E-03
   7103.00  6.8340231E-03
   7103.33  7.0657504E-03
   7103.67  7.3151747E-03
   7104.00  7.5845286E-03
   7104.33  7.8798290E-03
   7104.67  8.2020498E-03
   7105.00  8.5552375E-03
   7105.33  8.9498526E-03
   7105.67  9.3887632E-03
   7106.00  9.8800975E-03
   7106.33  1.0444199E-02
   7106.67  1.1089397E-02
   7107.00  1.1834455E-02
   7107.33  1.2725589E-02
   7107.67  1.3789604E-02
   7108.00  1.5079412E-02
   7108.33  1.6727006E-02
   7108.67  1.8840100E-02
   7109.00  2.1622004E-02
   7109.33  2.5615737E-02
   7109.67  3.1462907E-02
   7110.00  4.0428124E-02
   7110.33  5.6124520E-02
   7110.67  8.1714435E-02
   7111.00  1.1470909E-01
   7111.33  1.4163455E-01
   7111.67  1.6317573E-01
   7112.00  1.7714511E-01
   7112.33  1.7691013E-01
   7112.67  1.5811435E-01
   7113.00  1.3131380E-01
   7113.33  1.1241484E-01
   7113.67  1.0120754E-01
   7114.00  9.4512466E-02
   7114.33  9.2652022E-02
   7114.67  9.5892020E-02
   7115.00  9.7437724E-02
   7115.33  8.7530948E-02
   7115.67  7.4231044E-02
   7116.00  6.4171752E-02
   7116.33  5.8810004E-02
   7116.67  5.6311958E-02
   7117.00  5.5711141E-02
   7117.33  5.6392703E-02
   7117.67  5.7766992E-02
   7118.00  5.9710782E-02
   7118.33  6.2412035E-02
   7118.67  6.5970382E-02
   7119.00  7.0521674E-02
   7119.33  7.6374585E-02
   7119.67  8.3612512E-02
   7120.00  9.2508315E-02
   7120.33  1.0375097E-01
   7120.67  1.1765244E-01
   7121.00  1.3484608E-01
   7121.33  1.5678491E-01
   7121.67  1.8401914E-01
   7122.00  2.1744052E-01
   7122.33  2.5844578E-01
   7122.67  3.0537439E-01
   7123.00  3.5575384E-01
   7123.33  4.0484097E-01
   7123.67  4.4848571E-01
   7124.00  4.8518670E-01
   7124.33  5.1563125E-01
   7124.67  5.4362209E-01
   7125.00  5.7137322E-01
   7125.33  6.0006910E-01
   7125.67  6.2898821E-01
   7126.00  6.5599393E-01
   7126.33  6.7671294E-01
   7126.67  6.8997373E-01
   7127.00  6.9737363E-01
   7127.33  7.0171005E-01
   7127.67  7.0471108E-01
   7128.00  7.0607627E-01
   7128.33  7.0473589E-01
   7128.67  7.0063458E-01
   7129.00  6.9422536E-01
   7129.33  6.8699573E-01
   7129.67  6.8121964E-01
   7130.00  6.7851143E-01
   7130.33  6.8024498E-01
   7130.67  6.8559786E-01
   7131.00  6.9362577E-01
   7131.33  7.0317844E-01
   7131.67  7.1289938E-01
   7132.00  7.2197069E-01
   7132.33  7.2950165E-01
   7132.67  7.3520297E-01
   7133.00  7.3891797E-01
   7133.33  7.4053598E-01
   7133.67  7.4064877E-01
   7134.00  7.3961216E-01
   7134.33  7.3779099E-01
   7134.67  7.3575467E-01
   7135.00  7.3370770E-01
   7135.33  7.3142232E-01
   7135.67  7.2843596E-01
   7136.00  7.2435691E-01
   7136.33  7.1880064E-01
   7136.67  7.1197320E-01
   7137.00  7.0403675E-01
   7137.33  6.9509398E-01
   7137.67  6.8542004E-01
   7138.00  6.7510153E-01
   7138.33  6.6414124E-01
   7138.67  6.5271243E-01
   7139.00  6.4095949E-01
   7139.33  6.2911663E-01
   7139.67  6.1749811E-01
   7140.00  6.0638007E-01
   7140.33  5.9615415E-01
   7140.67  5.8694295E-01
   7141.00  5.7886157E-01
   7141.33  5.7210561E-01
   7141.67  5.6651912E-01
   7142.00  5.6208524E-01
   7142.33  5.5890924E-01
   7142.67  5.5678726E-01
   7143.00  5.5565815E-01
   7143.33  5.5556395E-01
   7143.67  5.5630868E-01
   7144.00  5.5781122E-01
   7144.33  5.6004063E-01
   7144.67  5.6278584E-01
   7145.00  5.6592240E-01
   7145.33  5.6932391E-01
   7145.67  5.7279621E-01
   7146.00  5.7619037E-01
   7146.33  5.7928555E-01
   7146.67  5.8190634E-01
   7147.00  5.8385542E-01
   7147.33  5.8476714E-01
   7147.67  5.8449910E-01
   7148.00  5.8284662E-01
   7148.33  5.7941878E-01
   7148.67  5.7429854E-01
   7149.00  5.6747017E-01
   7149.33  5.5881650E-01
   7149.67  5.4872934E-01
   7150.00  5.3743479E-01
   7150.33  5.2512574E-01
   7150.67  5.1223045E-01
   7151.00  4.9900282E-01
   7151.33  4.8568916E-01
   7151.67  4.7250074E-01
   7152.00  4.5956432E-01
   7152.33  4.4702262E-01
   7152.67  4.3489313E-01
   7153.00  4.2320111E-01
   7153.33  4.1200247E-01
   7153.67  4.0122832E-01
   7154.00  3.9086243E-01
   7154.33  3.8093332E-01
   7154.67  3.7137343E-01
   7155.00  3.6216846E-01
   7155.33  3.5334856E-01
   7155.67  3.4486188E-01
   7156.00  3.3670228E-01
   7156.33  3.2890321E-01
   7156.67  3.2141873E-01
   7157.00  3.1424521E-01
   7157.33  3.0741946E-01
   7157.67  3.0090548E-01
   7158.00  2.9471064E-01
   7158.33  2.8889185E-01
   7158.67  2.8342909E-01
   7159.00  2.7834652E-01
   7159.33  2.7373391E-01
   7159.67  2.6958916E-01
   7160.00  2.6596556E-01
   7160.33  2.6300983E-01
   7160.67  2.6072879E-01
   7161.00  2.5919526E-01
   7161.33  2.5859524E-01
   7161.67  2.5889647E-01
   7162.00  2.6014375E-01
   7162.33  2.6247705E-01
   7162.67  2.6575406E-01
   7163.00  2.6993352E-01
   7163.33  2.7504442E-01
   7163.67  2.8087090E-01
   7164.00  2.8729032E-01
   7164.33  2.9419771E-01
   7164.67  3.0138410E-01
   7165.00  3.0872743E-01
   7165.33  3.1610110E-01
   7165.67  3.2339019E-01
   7166.00  3.3051759E-01
   7166.33  3.3738983E-01
   7166.67  3.4399595E-01
   7167.00  3.5032020E-01
   7167.33  3.5632621E-01
   7167.67  3.6206185E-01
   7168.00  3.6754506E-01
   7168.33  3.7277390E-01
   7168.67  3.7780519E-01
   7169.00  3.8266296E-01
   7169.33  3.8735400E-01
   7169.67  3.9191719E-01
   7170.00  3.9636446E-01
   7170.33  4.0068722E-01
   7170.67  4.0488960E-01
   7171.00  4.0894308E-01
   7171.33  4.1274353E-01
   7171.67  4.1615938E-01
   7172.00  4.1897071E-01
