    FDMNES
    energy     <xanes>
   7097.00  4.3462548E-03
   7097.33  4.4353634E-03
   7097.67  4.5279458E-03
   7098.00  4.6242131E-03
   7098.33  4.7249303E-03
   7098.67  4.8299028E-03
   7099.00  4.9394144E-03
   7099.33  5.0544451E-03
   7099.67  5.1747927E-03
   7100.00  5.3008497E-03
   7100.33  5.4339073E-03
   7100.67  5.5737692E-03
   7101.00  5.7209982E-03
   7101.33  5.8773528E-03
   7101.67  6.0426758E-03
   7102.00  6.2178076E-03
   7102.33  6.4052451E-03
   7102.67  6.6049438E-03
   7103.00  6.8182244E-03
   7103.33  7.0488200E-03
   7103.67  7.2969718E-03
   7104.00  7.5648892E-03
   7104.33  7.8585298E-03
   7104.67  8.1788484E-03
   7105.00  8.5298440E-03
   7105.33  8.9218602E-03
   7105.67  9.3577152E-03
   7106.00  9.8454293E-03
   7106.33  1.0405085E-02
   7106.67  1.1044863E-02
   7107.00  1.1783245E-02
   7107.33  1.2665747E-02
   7107.67  1.3718667E-02
   7108.00  1.4993972E-02
   7108.33  1.6621266E-02
   7108.67  1.8705925E-02
   7109.00  2.1446882E-02
   7109.33  2.5374995E-02
   7109.67  3.1115392E-02
   7110.00  3.9899547E-02
   7110.33  5.5244569E-02
   7110.67  8.0248168E-02
   7111.00  1.1264063E-01
   7111.33  1.3979785E-01
   7111.67  1.6210183E-01
   7112.00  1.7682352E-01
   7112.33  1.7699516E-01
   7112.67  1.5814452E-01
   7113.00  1.3120403E-01
   7113.33  1.1229165E-01
   7113.67  1.0111110E-01
   7114.00  9.4447721E-02
   7114.33  9.2572605E-02
   7114.67  9.5822426E-02
   7115.00  9.7494569E-02
   7115.33  8.7699450E-02
   7115.67  7.4379921E-02
   7116.00  6.4258807E-02
   7116.33  5.8855366E-02
   7116.67  5.6333401E-02
   7117.00  5.5718162E-02
   7117.33  5.6387764E-02
   7117.67  5.7748895E-02
   7118.00  5.9677994E-02
   7118.33  6.2362659E-02
   7118.67  6.5901521E-02
   7119.00  7.0429272E-02
   7119.33  7.6253353E-02
   7119.67  8.3457676E-02
   7120.00  9.2314809E-02
   7120.33  1.0351146E-01
   7120.67  1.1735728E-01
   7121.00  1.3448143E-01
   7121.33  1.5632748E-01
   7121.67  1.8344034E-01
   7122.00  2.1670693E-01
   7122.33  2.5752312E-01
   7122.67  3.0425314E-01
   7123.00  3.5445852E-01
   7123.33  4.0343442E-01
   7123.67  4.4700386E-01
   7124.00  4.8361729E-01
   7124.33  5.1391209E-01
   7124.67  5.4165991E-01
   7125.00  5.6904343E-01
   7125.33  5.9728870E-01
   7125.67  6.2586346E-01
   7126.00  6.5277902E-01
   7126.33  6.7370464E-01
   7126.67  6.8728460E-01
   7127.00  6.9497898E-01
   7127.33  6.9955684E-01
   7127.67  7.0285427E-01
   7128.00  7.0464795E-01
   7128.33  7.0386571E-01
   7128.67  7.0031860E-01
   7129.00  6.9434189E-01
   7129.33  6.8732420E-01
   7129.67  6.8157915E-01
   7130.00  6.7877794E-01
   7130.33  6.8036031E-01
   7130.67  6.8556591E-01
   7131.00  6.9348123E-01
   7131.33  7.0298147E-01
   7131.67  7.1270782E-01
   7132.00  7.2183813E-01
   7132.33  7.2947662E-01
   7132.67  7.3531601E-01
   7133.00  7.3919095E-01
   7133.33  7.4099196E-01
   7133.67  7.4131591E-01
   7134.00  7.4051745E-01
   7134.33  7.3893001E-01
   7134.67  7.3708309E-01
   7135.00  7.3516719E-01
   7135.33  7.3295417E-01
   7135.67  7.3000099E-01
   7136.00  7.2592519E-01
   7136.33  7.2034742E-01
   7136.67  7.1348322E-01
   7137.00  7.0550006E-01
   7137.33  6.9650555E-01
   7137.67  6.8677978E-01
   7138.00  6.7641206E-01
   7138.33  6.6540756E-01
   7138.67  6.5393903E-01
   7139.00  6.4214911E-01
   7139.33  6.3026750E-01
   7139.67  6.1860284E-01
   7140.00  6.0742654E-01
   7140.33  5.9712510E-01
   7140.67  5.8782340E-01
   7141.00  5.7963953E-01
   7141.33  5.7277313E-01
   7141.67  5.6707388E-01
   7142.00  5.6252884E-01
   7142.33  5.5924837E-01
   7142.67  5.5703183E-01
   7143.00  5.5582125E-01
   7143.33  5.5566406E-01
   7143.67  5.5636472E-01
   7144.00  5.5784338E-01
   7144.33  5.6007181E-01
   7144.67  5.6283519E-01
   7145.00  5.6600708E-01
   7145.33  5.6945975E-01
   7145.67  5.7299373E-01
   7146.00  5.7645721E-01
   7146.33  5.7962740E-01
   7146.67  5.8232650E-01
   7147.00  5.8435628E-01
   7147.33  5.8535091E-01
   7147.67  5.8516771E-01
   7148.00  5.8360183E-01
   7148.33  5.8026130E-01
   7148.67  5.7522650E-01
   7149.00  5.6847876E-01
   7149.33  5.5989584E-01
   7149.67  5.4986702E-01
   7150.00  5.3861608E-01
   7150.33  5.2633269E-01
   7150.67  5.1344774E-01
   7151.00  5.0021672E-01
   7151.33  4.8688663E-01
   7151.67  4.7367298E-01
   7152.00  4.6070510E-01
   7152.33  4.4812791E-01
   7152.67  4.3596142E-01
   7153.00  4.2423217E-01
   7153.33  4.1299698E-01
   7153.67  4.0218717E-01
   7154.00  3.9178647E-01
   7154.33  3.8182322E-01
   7154.67  3.7222942E-01
   7155.00  3.6299039E-01
   7155.33  3.5413586E-01
   7155.67  3.4561374E-01
   7156.00  3.3741770E-01
   7156.33  3.2958088E-01
   7156.67  3.2205734E-01
   7157.00  3.1484336E-01
   7157.33  3.0797556E-01
   7157.67  3.0141811E-01
   7158.00  2.9517832E-01
   7158.33  2.8931295E-01
   7158.67  2.8380261E-01
   7159.00  2.7867181E-01
   7159.33  2.7401001E-01
   7159.67  2.6981457E-01
   7160.00  2.6613813E-01
   7160.33  2.6312623E-01
   7160.67  2.6078537E-01
   7161.00  2.5918812E-01
   7161.33  2.5852011E-01
   7161.67  2.5875039E-01
   7162.00  2.5992506E-01
   7162.33  2.6218602E-01
   7162.67  2.6539300E-01
   7163.00  2.6950630E-01
   7163.33  2.7455658E-01
   7163.67  2.8032760E-01
   7164.00  2.8669646E-01
   7164.33  2.9355814E-01
   7164.67  3.0070226E-01
   7165.00  3.0800602E-01
   7165.33  3.1534245E-01
   7165.67  3.2259621E-01
   7166.00  3.2969038E-01
   7166.33  3.3653225E-01
   7166.67  3.4311108E-01
   7167.00  3.4941160E-01
   7167.33  3.5539826E-01
   7167.67  3.6111853E-01
   7168.00  3.6659019E-01
   7168.33  3.7181128E-01
   7168.67  3.7683768E-01
   7169.00  3.8169286E-01
   7169.33  3.8638318E-01
   7169.67  3.9094672E-01
   7170.00  3.9539498E-01
   7170.33  3.9971898E-01
   7170.67  4.0392257E-01
   7171.00  4.0797713E-01
   7171.33  4.1177843E-01
   7171.67  4.1519487E-01
   7172.00  4.1800644E-01
