    FDMNES
    energy     <xanes>
   7097.00  4.3487928E-03
   7097.33  4.4380053E-03
   7097.67  4.5306992E-03
   7098.00  4.6270863E-03
   7098.33  4.7279335E-03
   7098.67  4.8330463E-03
   7099.00  4.9427094E-03
   7099.33  5.0579058E-03
   7099.67  5.1784333E-03
   7100.00  5.3046859E-03
   7100.33  5.4379590E-03
   7100.67  5.5780567E-03
   7101.00  5.7255439E-03
   7101.33  5.8821858E-03
   7101.67  6.0478256E-03
   7102.00  6.2233076E-03
   7102.33  6.4111389E-03
   7102.67  6.6112765E-03
   7103.00  6.8250475E-03
   7103.33  7.0562017E-03
   7103.67  7.3049840E-03
   7104.00  7.5736153E-03
   7104.33  7.8680826E-03
   7104.67  8.1893491E-03
   7105.00  8.5414363E-03
   7105.33  8.9347430E-03
   7105.67  9.3721087E-03
   7106.00  9.8616011E-03
   7106.33  1.0423418E-02
   7106.67  1.1065797E-02
   7107.00  1.1807334E-02
   7107.33  1.2693820E-02
   7107.67  1.3751723E-02
   7108.00  1.5033332E-02
   7108.33  1.6669031E-02
   7108.67  1.8764803E-02
   7109.00  2.1520672E-02
   7109.33  2.5470205E-02
   7109.67  3.1241082E-02
   7110.00  4.0069674E-02
   7110.33  5.5493742E-02
   7110.67  8.0708684E-02
   7111.00  1.1371460E-01
   7111.33  1.4140013E-01
   7111.67  1.6327734E-01
   7112.00  1.7716343E-01
   7112.33  1.7690195E-01
   7112.67  1.5831456E-01
   7113.00  1.3159033E-01
   7113.33  1.1261806E-01
   7113.67  1.0135766E-01
   7114.00  9.4663959E-02
   7114.33  9.2771556E-02
   7114.67  9.6022174E-02
   7115.00  9.7738716E-02
   7115.33  8.7952979E-02
   7115.67  7.4574311E-02
   7116.00  6.4378269E-02
   7116.33  5.8915931E-02
   7116.67  5.6348584E-02
   7117.00  5.5698185E-02
   7117.33  5.6342232E-02
   7117.67  5.7684516E-02
   7118.00  5.9598406E-02
   7118.33  6.2268653E-02
   7118.67  6.5793178E-02
   7119.00  7.0306619E-02
   7119.33  7.6114732E-02
   7119.67  8.3298014E-02
   7120.00  9.2124740E-02
   7120.33  1.0327407E-01
   7120.67  1.1705132E-01
   7121.00  1.3407999E-01
   7121.33  1.5579433E-01
   7121.67  1.8274450E-01
   7122.00  2.1583169E-01
   7122.33  2.5650262E-01
   7122.67  3.0320105E-01
   7123.00  3.5354948E-01
   7123.33  4.0282084E-01
   7123.67  4.4665704E-01
   7124.00  4.8337014E-01
   7124.33  5.1352412E-01
   7124.67  5.4103007E-01
   7125.00  5.6823829E-01
   7125.33  5.9647740E-01
   7125.67  6.2509863E-01
   7126.00  6.5204386E-01
   7126.33  6.7307751E-01
   7126.67  6.8700341E-01
   7127.00  6.9532707E-01
   7127.33  7.0065538E-01
   7127.67  7.0447846E-01
   7128.00  7.0635449E-01
   7128.33  7.0515669E-01
   7128.67  7.0099222E-01
   7129.00  6.9444558E-01
   7129.33  6.8710510E-01
   7129.67  6.8126467E-01
   7130.00  6.7852331E-01
   7130.33  6.8023120E-01
   7130.67  6.8554914E-01
   7131.00  6.9352711E-01
   7131.33  7.0301310E-01
   7131.67  7.1265789E-01
   7132.00  7.2165083E-01
   7132.33  7.2911339E-01
   7132.67  7.3477038E-01
   7133.00  7.3848083E-01
   7133.33  7.4015736E-01
   7133.67  7.4039033E-01
   7134.00  7.3952464E-01
   7134.33  7.3789477E-01
   7134.67  7.3603282E-01
   7135.00  7.3412693E-01
   7135.33  7.3194274E-01
   7135.67  7.2903255E-01
   7136.00  7.2501764E-01
   7136.33  7.1952795E-01
   7136.67  7.1278055E-01
   7137.00  7.0494328E-01
   7137.33  6.9612274E-01
   7137.67  6.8658727E-01
   7138.00  6.7641570E-01
   7138.33  6.6559749E-01
   7138.67  6.5429205E-01
   7139.00  6.4263281E-01
   7139.33  6.3084141E-01
   7139.67  6.1923611E-01
   7140.00  6.0809813E-01
   7140.33  5.9782704E-01
   7140.67  5.8856130E-01
   7141.00  5.8042673E-01
   7141.33  5.7362887E-01
   7141.67  5.6801379E-01
   7142.00  5.6356483E-01
   7142.33  5.6038711E-01
   7142.67  5.5827206E-01
   7143.00  5.5715514E-01
   7143.33  5.5707467E-01
   7143.67  5.5783113E-01
   7144.00  5.5934120E-01
   7144.33  5.6157137E-01
   7144.67  5.6431027E-01
   7145.00  5.6743309E-01
   7145.33  5.7081280E-01
   7145.67  5.7425731E-01
   7146.00  5.7761970E-01
   7146.33  5.8068306E-01
   7146.67  5.8327730E-01
   7147.00  5.8521025E-01
   7147.33  5.8612422E-01
   7147.67  5.8587959E-01
   7148.00  5.8427401E-01
   7148.33  5.8091781E-01
   7148.67  5.7588485E-01
   7149.00  5.6915095E-01
   7149.33  5.6058669E-01
   7149.67  5.5057300E-01
   7150.00  5.3932806E-01
   7150.33  5.2703525E-01
   7150.67  5.1412481E-01
   7151.00  5.0085257E-01
   7151.33  4.8746659E-01
   7151.67  4.7418752E-01
   7152.00  4.6114795E-01
   7152.33  4.4849625E-01
   7152.67  4.3625595E-01
   7153.00  4.2445581E-01
   7153.33  4.1315503E-01
   7153.67  4.0228534E-01
   7154.00  3.9183074E-01
   7154.33  3.8182009E-01
   7154.67  3.7218430E-01
   7155.00  3.6290827E-01
   7155.33  3.5402199E-01
   7155.67  3.4547276E-01
   7156.00  3.3725439E-01
   7156.33  3.2940089E-01
   7156.67  3.2186590E-01
   7157.00  3.1464577E-01
   7157.33  3.0777756E-01
   7157.67  3.0122430E-01
   7158.00  2.9499264E-01
   7158.33  2.8913872E-01
   7158.67  2.8364155E-01
   7159.00  2.7852452E-01
   7159.33  2.7387575E-01
   7159.67  2.6969154E-01
   7160.00  2.6602368E-01
   7160.33  2.6301653E-01
   7160.67  2.6067655E-01
   7161.00  2.5907615E-01
   7161.33  2.5840051E-01
   7161.67  2.5861953E-01
   7162.00  2.5977975E-01
   7162.33  2.6202349E-01
   7162.67  2.6521175E-01
   7163.00  2.6930583E-01
   7163.33  2.7433779E-01
   7163.67  2.8009276E-01
   7164.00  2.8644901E-01
   7164.33  2.9330318E-01
   7164.67  3.0044505E-01
   7165.00  3.0775207E-01
   7165.33  3.1509781E-01
   7165.67  3.2236561E-01
   7166.00  3.2947775E-01
   7166.33  3.3634078E-01
   7166.67  3.4294255E-01
   7167.00  3.4926704E-01
   7167.33  3.5527813E-01
   7167.67  3.6102298E-01
   7168.00  3.6651934E-01
   7168.33  3.7176547E-01
   7168.67  3.7681746E-01
   7169.00  3.8169899E-01
   7169.33  3.8641673E-01
   7169.67  3.9100865E-01
   7170.00  3.9548610E-01
   7170.33  3.9983976E-01
   7170.67  4.0407287E-01
   7171.00  4.0815624E-01
   7171.33  4.1198452E-01
   7171.67  4.1542491E-01
   7172.00  4.1825585E-01
