    FDMNES
    energy     <xanes>
   7097.00  4.4269497E-03
   7097.33  4.5242878E-03
   7097.67  4.6259159E-03
   7098.00  4.7321304E-03
   7098.33  4.8439359E-03
   7098.67  4.9611410E-03
   7099.00  5.0841563E-03
   7099.33  5.2143118E-03
   7099.67  5.3514223E-03
   7100.00  5.4960751E-03
   7100.33  5.6500864E-03
   7100.67  5.8133076E-03
   7101.00  5.9866107E-03
   7101.33  6.1725702E-03
   7101.67  6.3711416E-03
   7102.00  6.5836782E-03
   7102.33  6.8139989E-03
   7102.67  7.0623170E-03
   7103.00  7.3308480E-03
   7103.33  7.6255832E-03
   7103.67  7.9473549E-03
   7104.00  8.3000407E-03
   7104.33  8.6937234E-03
   7104.67  9.1307678E-03
   7105.00  9.6185541E-03
   7105.33  1.0175655E-02
   7105.67  1.0808508E-02
   7106.00  1.1532786E-02
   7106.33  1.2387052E-02
   7106.67  1.3389903E-02
   7107.00  1.4579958E-02
   7107.33  1.6051738E-02
   7107.67  1.7867216E-02
   7108.00  2.0144168E-02
   7108.33  2.3178241E-02
   7108.67  2.7234994E-02
   7109.00  3.2812192E-02
   7109.33  4.1264690E-02
   7109.67  5.4314696E-02
   7110.00  7.5390916E-02
   7110.33  1.1443596E-01
   7110.67  1.7992912E-01
   7111.00  2.6030620E-01
   7111.33  2.8975416E-01
   7111.67  2.6150801E-01
   7112.00  2.1131466E-01
   7112.33  1.6765871E-01
   7112.67  1.3583809E-01
   7113.00  1.1419589E-01
   7113.33  1.0069687E-01
   7113.67  9.2056039E-02
   7114.00  8.6713507E-02
   7114.33  8.3450999E-02
   7114.67  8.1223577E-02
   7115.00  7.9946418E-02
   7115.33  7.9780017E-02
   7115.67  8.0570270E-02
   7116.00  8.2295208E-02
   7116.33  8.5060818E-02
   7116.67  8.8707991E-02
   7117.00  9.3113511E-02
   7117.33  9.8120681E-02
   7117.67  1.0357581E-01
   7118.00  1.0958259E-01
   7118.33  1.1606455E-01
   7118.67  1.2233452E-01
   7119.00  1.2811555E-01
   7119.33  1.3403451E-01
   7119.67  1.4097568E-01
   7120.00  1.4937320E-01
   7120.33  1.5952320E-01
   7120.67  1.7113927E-01
   7121.00  1.8417299E-01
   7121.33  1.9896097E-01
   7121.67  2.1571913E-01
   7122.00  2.3495575E-01
   7122.33  2.5761859E-01
   7122.67  2.8355504E-01
   7123.00  3.1247054E-01
   7123.33  3.4348346E-01
   7123.67  3.7450360E-01
   7124.00  4.0377574E-01
   7124.33  4.2938484E-01
   7124.67  4.5117343E-01
   7125.00  4.6923018E-01
   7125.33  4.8336023E-01
   7125.67  4.9391522E-01
   7126.00  5.0054603E-01
   7126.33  5.0243411E-01
   7126.67  5.0041576E-01
   7127.00  4.9532906E-01
   7127.33  4.8829681E-01
   7127.67  4.8080718E-01
   7128.00  4.7364315E-01
   7128.33  4.6740255E-01
   7128.67  4.6216036E-01
   7129.00  4.5794762E-01
   7129.33  4.5486680E-01
   7129.67  4.5270188E-01
   7130.00  4.5130891E-01
   7130.33  4.5053590E-01
   7130.67  4.5009871E-01
   7131.00  4.4986495E-01
   7131.33  4.4978997E-01
   7131.67  4.4989260E-01
   7132.00  4.5024455E-01
   7132.33  4.5097212E-01
   7132.67  4.5210403E-01
   7133.00  4.5368441E-01
   7133.33  4.5580850E-01
   7133.67  4.5843920E-01
   7134.00  4.6159255E-01
   7134.33  4.6535579E-01
   7134.67  4.6968235E-01
   7135.00  4.7458701E-01
   7135.33  4.8014478E-01
   7135.67  4.8626041E-01
   7136.00  4.9289489E-01
   7136.33  5.0005065E-01
   7136.67  5.0762316E-01
   7137.00  5.1559451E-01
   7137.33  5.2402910E-01
   7137.67  5.3291535E-01
   7138.00  5.4229375E-01
   7138.33  5.5227053E-01
   7138.67  5.6280464E-01
   7139.00  5.7390699E-01
   7139.33  5.8565311E-01
   7139.67  5.9796391E-01
   7140.00  6.1081662E-01
   7140.33  6.2421424E-01
   7140.67  6.3798879E-01
   7141.00  6.5199658E-01
   7141.33  6.6600458E-01
   7141.67  6.7971363E-01
   7142.00  6.9282848E-01
   7142.33  7.0486880E-01
   7142.67  7.1561083E-01
   7143.00  7.2480647E-01
   7143.33  7.3203919E-01
   7143.67  7.3745055E-01
   7144.00  7.4107751E-01
   7144.33  7.4286674E-01
   7144.67  7.4325906E-01
   7145.00  7.4249435E-01
   7145.33  7.4074764E-01
   7145.67  7.3838445E-01
   7146.00  7.3558557E-01
   7146.33  7.3247264E-01
   7146.67  7.2917995E-01
   7147.00  7.2575329E-01
   7147.33  7.2219630E-01
   7147.67  7.1851637E-01
   7148.00  7.1469721E-01
   7148.33  7.1069774E-01
   7148.67  7.0652313E-01
   7149.00  7.0217061E-01
   7149.33  6.9762475E-01
   7149.67  6.9290450E-01
   7150.00  6.8799596E-01
   7150.33  6.8286100E-01
   7150.67  6.7752107E-01
   7151.00  6.7197886E-01
   7151.33  6.6621799E-01
   7151.67  6.6027569E-01
   7152.00  6.5416740E-01
   7152.33  6.4789764E-01
   7152.67  6.4151142E-01
   7153.00  6.3503522E-01
   7153.33  6.2849417E-01
   7153.67  6.2192702E-01
   7154.00  6.1535767E-01
   7154.33  6.0881021E-01
   7154.67  6.0229767E-01
   7155.00  5.9582858E-01
   7155.33  5.8941296E-01
   7155.67  5.8304550E-01
   7156.00  5.7672670E-01
   7156.33  5.7046051E-01
   7156.67  5.6423354E-01
   7157.00  5.5803812E-01
   7157.33  5.5186961E-01
   7157.67  5.4572015E-01
   7158.00  5.3959022E-01
   7158.33  5.3348636E-01
   7158.67  5.2741102E-01
   7159.00  5.2137336E-01
   7159.33  5.1539386E-01
   7159.67  5.0948109E-01
   7160.00  5.0364862E-01
   7160.33  4.9792518E-01
   7160.67  4.9231622E-01
   7161.00  4.8683665E-01
   7161.33  4.8151518E-01
   7161.67  4.7633985E-01
   7162.00  4.7131795E-01
   7162.33  4.6647712E-01
   7162.67  4.6180094E-01
   7163.00  4.5728996E-01
   7163.33  4.5296282E-01
   7163.67  4.4879579E-01
   7164.00  4.4478584E-01
   7164.33  4.4094851E-01
   7164.67  4.3726147E-01
   7165.00  4.3372335E-01
   7165.33  4.3035335E-01
   7165.67  4.2713637E-01
   7166.00  4.2407806E-01
   7166.33  4.2120868E-01
   7166.67  4.1851956E-01
   7167.00  4.1602372E-01
   7167.33  4.1376464E-01
   7167.67  4.1173479E-01
   7168.00  4.0995125E-01
   7168.33  4.0846767E-01
   7168.67  4.0727064E-01
   7169.00  4.0637574E-01
   7169.33  4.0583760E-01
   7169.67  4.0562668E-01
   7170.00  4.0574618E-01
   7170.33  4.0623107E-01
   7170.67  4.0702044E-01
   7171.00  4.0807838E-01
   7171.33  4.0934873E-01
   7171.67  4.1065653E-01
   7172.00  4.1179848E-01
