    FDMNES
    energy     <xanes>
   7097.00  4.3525086E-03
   7097.33  4.4435119E-03
   7097.67  4.5381246E-03
   7098.00  4.6365703E-03
   7098.33  4.7396505E-03
   7098.67  4.8471686E-03
   7099.00  4.9594267E-03
   7099.33  5.0774573E-03
   7099.67  5.2010584E-03
   7100.00  5.3306507E-03
   7100.33  5.4676035E-03
   7100.67  5.6117261E-03
   7101.00  5.7636269E-03
   7101.33  5.9251872E-03
   7101.67  6.0962668E-03
   7102.00  6.2777849E-03
   7102.33  6.4724422E-03
   7102.67  6.6802392E-03
   7103.00  6.9026413E-03
   7103.33  7.1437454E-03
   7103.67  7.4039057E-03
   7104.00  7.6856203E-03
   7104.33  7.9955561E-03
   7104.67  8.3349591E-03
   7105.00  8.7084655E-03
   7105.33  9.1279603E-03
   7105.67  9.5970729E-03
   7106.00  1.0125420E-02
   7106.33  1.0736939E-02
   7106.67  1.1442375E-02
   7107.00  1.2264945E-02
   7107.33  1.3261813E-02
   7107.67  1.4469093E-02
   7108.00  1.5956589E-02
   7108.33  1.7900023E-02
   7108.67  2.0455369E-02
   7109.00  2.3917210E-02
   7109.33  2.9091084E-02
   7109.67  3.7007695E-02
   7110.00  4.9724215E-02
   7110.33  7.3080319E-02
   7110.67  1.1046822E-01
   7111.00  1.4860570E-01
   7111.33  1.5185637E-01
   7111.67  1.4486552E-01
   7112.00  1.4437714E-01
   7112.33  1.5053194E-01
   7112.67  1.4828379E-01
   7113.00  1.3131025E-01
   7113.33  1.1208786E-01
   7113.67  9.6088102E-02
   7114.00  8.3751456E-02
   7114.33  7.2813222E-02
   7114.67  6.3504036E-02
   7115.00  5.7221374E-02
   7115.33  5.4077476E-02
   7115.67  5.2913804E-02
   7116.00  5.3240725E-02
   7116.33  5.4900537E-02
   7116.67  5.7600483E-02
   7117.00  6.1255753E-02
   7117.33  6.5965531E-02
   7117.67  7.1777451E-02
   7118.00  7.8968082E-02
   7118.33  8.8046686E-02
   7118.67  9.8902014E-02
   7119.00  1.1136617E-01
   7119.33  1.2502036E-01
   7119.67  1.3900504E-01
   7120.00  1.5306093E-01
   7120.33  1.6798773E-01
   7120.67  1.8524633E-01
   7121.00  2.0628940E-01
   7121.33  2.3305558E-01
   7121.67  2.6550010E-01
   7122.00  3.0336747E-01
   7122.33  3.4569711E-01
   7122.67  3.8923263E-01
   7123.00  4.3101568E-01
   7123.33  4.6758751E-01
   7123.67  4.9844801E-01
   7124.00  5.2431661E-01
   7124.33  5.4675452E-01
   7124.67  5.6781266E-01
   7125.00  5.8776571E-01
   7125.33  6.0536018E-01
   7125.67  6.1957173E-01
   7126.00  6.2997057E-01
   7126.33  6.3640233E-01
   7126.67  6.3974172E-01
   7127.00  6.4026686E-01
   7127.33  6.3788403E-01
   7127.67  6.3302327E-01
   7128.00  6.2577619E-01
   7128.33  6.1615021E-01
   7128.67  6.0521408E-01
   7129.00  5.9425421E-01
   7129.33  5.8513604E-01
   7129.67  5.7882213E-01
   7130.00  5.7570839E-01
   7130.33  5.7607683E-01
   7130.67  5.7911286E-01
   7131.00  5.8438353E-01
   7131.33  5.9165735E-01
   7131.67  6.0034726E-01
   7132.00  6.1019470E-01
   7132.33  6.2103154E-01
   7132.67  6.3245520E-01
   7133.00  6.4417034E-01
   7133.33  6.5583352E-01
   7133.67  6.6742606E-01
   7134.00  6.7929671E-01
   7134.33  6.9190124E-01
   7134.67  7.0499092E-01
   7135.00  7.1793918E-01
   7135.33  7.2953543E-01
   7135.67  7.3881339E-01
   7136.00  7.4497968E-01
   7136.33  7.4703753E-01
   7136.67  7.4544637E-01
   7137.00  7.4067617E-01
   7137.33  7.3345085E-01
   7137.67  7.2522088E-01
   7138.00  7.1683279E-01
   7138.33  7.0901900E-01
   7138.67  7.0205776E-01
   7139.00  6.9600377E-01
   7139.33  6.9081925E-01
   7139.67  6.8617302E-01
   7140.00  6.8186256E-01
   7140.33  6.7772567E-01
   7140.67  6.7363761E-01
   7141.00  6.6956091E-01
   7141.33  6.6549099E-01
   7141.67  6.6143837E-01
   7142.00  6.5741108E-01
   7142.33  6.5340781E-01
   7142.67  6.4940196E-01
   7143.00  6.4535557E-01
   7143.33  6.4119175E-01
   7143.67  6.3684385E-01
   7144.00  6.3223938E-01
   7144.33  6.2726189E-01
   7144.67  6.2190533E-01
   7145.00  6.1616096E-01
   7145.33  6.1001254E-01
   7145.67  6.0357457E-01
   7146.00  5.9693156E-01
   7146.33  5.9017970E-01
   7146.67  5.8343034E-01
   7147.00  5.7675087E-01
   7147.33  5.7020785E-01
   7147.67  5.6380662E-01
   7148.00  5.5753993E-01
   7148.33  5.5138989E-01
   7148.67  5.4530046E-01
   7149.00  5.3923061E-01
   7149.33  5.3313071E-01
   7149.67  5.2696661E-01
   7150.00  5.2071768E-01
   7150.33  5.1436497E-01
   7150.67  5.0793048E-01
   7151.00  5.0143471E-01
   7151.33  4.9490554E-01
   7151.67  4.8838022E-01
   7152.00  4.8188402E-01
   7152.33  4.7544367E-01
   7152.67  4.6906245E-01
   7153.00  4.6274091E-01
   7153.33  4.5647981E-01
   7153.67  4.5025729E-01
   7154.00  4.4405450E-01
   7154.33  4.3784536E-01
   7154.67  4.3160245E-01
   7155.00  4.2529925E-01
   7155.33  4.1888785E-01
   7155.67  4.1233665E-01
   7156.00  4.0560824E-01
   7156.33  3.9863863E-01
   7156.67  3.9142727E-01
   7157.00  3.8396391E-01
   7157.33  3.7622728E-01
   7157.67  3.6828342E-01
   7158.00  3.6018410E-01
   7158.33  3.5200039E-01
   7158.67  3.4383806E-01
   7159.00  3.3578648E-01
   7159.33  3.2797474E-01
   7159.67  3.2047136E-01
   7160.00  3.1335042E-01
   7160.33  3.0674493E-01
   7160.67  3.0066220E-01
   7161.00  2.9514950E-01
   7161.33  2.9032966E-01
   7161.67  2.8616188E-01
   7162.00  2.8266996E-01
   7162.33  2.7995717E-01
   7162.67  2.7793722E-01
   7163.00  2.7660195E-01
   7163.33  2.7602351E-01
   7163.67  2.7609688E-01
   7164.00  2.7679186E-01
   7164.33  2.7813446E-01
   7164.67  2.8000094E-01
   7165.00  2.8234010E-01
   7165.33  2.8514490E-01
   7165.67  2.8830740E-01
   7166.00  2.9178040E-01
   7166.33  2.9554468E-01
   7166.67  2.9952228E-01
   7167.00  3.0368014E-01
   7167.33  3.0800643E-01
   7167.67  3.1245984E-01
   7168.00  3.1702615E-01
   7168.33  3.2170617E-01
   7168.67  3.2647799E-01
   7169.00  3.3133363E-01
   7169.33  3.3627123E-01
   7169.67  3.4126656E-01
   7170.00  3.4630110E-01
   7170.33  3.5134469E-01
   7170.67  3.5634841E-01
   7171.00  3.6124847E-01
   7171.33  3.6589105E-01
   7171.67  3.7007707E-01
   7172.00  3.7350999E-01
