    FDMNES
    energy     <xanes>
   7097.00  4.9889519E-03
   7097.33  5.1035328E-03
   7097.67  5.2230314E-03
   7098.00  5.3477594E-03
   7098.33  5.4788191E-03
   7098.67  5.6159484E-03
   7099.00  5.7595642E-03
   7099.33  5.9110822E-03
   7099.67  6.0702250E-03
   7100.00  6.2375645E-03
   7100.33  6.4149628E-03
   7100.67  6.6021420E-03
   7101.00  6.7999102E-03
   7101.33  7.0107870E-03
   7101.67  7.2345303E-03
   7102.00  7.4723225E-03
   7102.33  7.7276937E-03
   7102.67  8.0005184E-03
   7103.00  8.2926042E-03
   7103.33  8.6091135E-03
   7103.67  8.9502264E-03
   7104.00  9.3188578E-03
   7104.33  9.7229853E-03
   7104.67  1.0163548E-02
   7105.00  1.0645586E-02
   7105.33  1.1182351E-02
   7105.67  1.1776728E-02
   7106.00  1.2438285E-02
   7106.33  1.3191324E-02
   7106.67  1.4044184E-02
   7107.00  1.5017572E-02
   7107.33  1.6162950E-02
   7107.67  1.7506553E-02
   7108.00  1.9102958E-02
   7108.33  2.1088578E-02
   7108.67  2.3566145E-02
   7109.00  2.6733793E-02
   7109.33  3.1119901E-02
   7109.67  3.7329803E-02
   7110.00  4.6565464E-02
   7110.33  6.2253299E-02
   7110.67  8.7191812E-02
   7111.00  1.1780615E-01
   7111.33  1.3561935E-01
   7111.67  1.4159893E-01
   7112.00  1.4853234E-01
   7112.33  1.7062236E-01
   7112.67  2.1279004E-01
   7113.00  2.7673281E-01
   7113.33  3.4544254E-01
   7113.67  3.7921872E-01
   7114.00  3.6413316E-01
   7114.33  3.0829811E-01
   7114.67  2.4616187E-01
   7115.00  1.9840452E-01
   7115.33  1.7248108E-01
   7115.67  1.6310743E-01
   7116.00  1.6874737E-01
   7116.33  1.9229834E-01
   7116.67  2.3238984E-01
   7117.00  2.7976324E-01
   7117.33  3.0498880E-01
   7117.67  3.1163686E-01
   7118.00  3.2362168E-01
   7118.33  3.4263990E-01
   7118.67  3.5012650E-01
   7119.00  3.4383683E-01
   7119.33  3.3913358E-01
   7119.67  3.4577442E-01
   7120.00  3.5791517E-01
   7120.33  3.5851030E-01
   7120.67  3.4495676E-01
   7121.00  3.2559888E-01
   7121.33  3.0914385E-01
   7121.67  2.9808423E-01
   7122.00  2.9244991E-01
   7122.33  2.9186554E-01
   7122.67  2.9448477E-01
   7123.00  2.9927334E-01
   7123.33  3.0561154E-01
   7123.67  3.1297510E-01
   7124.00  3.2114524E-01
   7124.33  3.3016797E-01
   7124.67  3.4086013E-01
   7125.00  3.5464443E-01
   7125.33  3.7312819E-01
   7125.67  3.9557602E-01
   7126.00  4.2105328E-01
   7126.33  4.4868267E-01
   7126.67  4.7758092E-01
   7127.00  5.0693598E-01
   7127.33  5.3413998E-01
   7127.67  5.5621473E-01
   7128.00  5.7140815E-01
   7128.33  5.7906416E-01
   7128.67  5.8197862E-01
   7129.00  5.8261868E-01
   7129.33  5.8376292E-01
   7129.67  5.8626566E-01
   7130.00  5.8928434E-01
   7130.33  5.9173039E-01
   7130.67  5.9408338E-01
   7131.00  5.9762999E-01
   7131.33  6.0407690E-01
   7131.67  6.1358661E-01
   7132.00  6.2582719E-01
   7132.33  6.4005380E-01
   7132.67  6.5465044E-01
   7133.00  6.6812816E-01
   7133.33  6.7824020E-01
   7133.67  6.8388105E-01
   7134.00  6.8456548E-01
   7134.33  6.8024711E-01
   7134.67  6.7281954E-01
   7135.00  6.6364145E-01
   7135.33  6.5387240E-01
   7135.67  6.4405429E-01
   7136.00  6.3403684E-01
   7136.33  6.2324825E-01
   7136.67  6.1135758E-01
   7137.00  5.9828008E-01
   7137.33  5.8416497E-01
   7137.67  5.6966586E-01
   7138.00  5.5534353E-01
   7138.33  5.4198068E-01
   7138.67  5.3010619E-01
   7139.00  5.2017300E-01
   7139.33  5.1284525E-01
   7139.67  5.0802269E-01
   7140.00  5.0571406E-01
   7140.33  5.0606496E-01
   7140.67  5.0851173E-01
   7141.00  5.1277786E-01
   7141.33  5.1870127E-01
   7141.67  5.2571444E-01
   7142.00  5.3343004E-01
   7142.33  5.4132298E-01
   7142.67  5.4875944E-01
   7143.00  5.5523712E-01
   7143.33  5.6015373E-01
   7143.67  5.6351145E-01
   7144.00  5.6536962E-01
   7144.33  5.6579629E-01
   7144.67  5.6523278E-01
   7145.00  5.6389326E-01
   7145.33  5.6188107E-01
   7145.67  5.5937286E-01
   7146.00  5.5641006E-01
   7146.33  5.5295335E-01
   7146.67  5.4906013E-01
   7147.00  5.4473513E-01
   7147.33  5.3994193E-01
   7147.67  5.3476180E-01
   7148.00  5.2923106E-01
   7148.33  5.2336546E-01
   7148.67  5.1726271E-01
   7149.00  5.1098003E-01
   7149.33  5.0457459E-01
   7149.67  4.9812360E-01
   7150.00  4.9167191E-01
   7150.33  4.8526380E-01
   7150.67  4.7892491E-01
   7151.00  4.7267831E-01
   7151.33  4.6656292E-01
   7151.67  4.6058838E-01
   7152.00  4.5477719E-01
   7152.33  4.4918118E-01
   7152.67  4.4380562E-01
   7153.00  4.3867574E-01
   7153.33  4.3385471E-01
   7153.67  4.2933741E-01
   7154.00  4.2514761E-01
   7154.33  4.2135404E-01
   7154.67  4.1793276E-01
   7155.00  4.1489517E-01
   7155.33  4.1229631E-01
   7155.67  4.1008653E-01
   7156.00  4.0826030E-01
   7156.33  4.0685469E-01
   7156.67  4.0581120E-01
   7157.00  4.0511770E-01
   7157.33  4.0479844E-01
   7157.67  4.0478941E-01
   7158.00  4.0506581E-01
   7158.33  4.0562286E-01
   7158.67  4.0638802E-01
   7159.00  4.0732727E-01
   7159.33  4.0842593E-01
   7159.67  4.0964294E-01
   7160.00  4.1096639E-01
   7160.33  4.1240145E-01
   7160.67  4.1393454E-01
   7161.00  4.1557154E-01
   7161.33  4.1733357E-01
   7161.67  4.1920793E-01
   7162.00  4.2118788E-01
   7162.33  4.2326219E-01
   7162.67  4.2538556E-01
   7163.00  4.2752107E-01
   7163.33  4.2961484E-01
   7163.67  4.3161799E-01
   7164.00  4.3348397E-01
   7164.33  4.3513837E-01
   7164.67  4.3656054E-01
   7165.00  4.3772069E-01
   7165.33  4.3856156E-01
   7165.67  4.3911259E-01
   7166.00  4.3938225E-01
   7166.33  4.3936388E-01
   7166.67  4.3912920E-01
   7167.00  4.3872151E-01
   7167.33  4.3818474E-01
   7167.67  4.3759557E-01
   7168.00  4.3700726E-01
   7168.33  4.3648533E-01
   7168.67  4.3607279E-01
   7169.00  4.3580392E-01
   7169.33  4.3572766E-01
   7169.67  4.3583656E-01
   7170.00  4.3613200E-01
   7170.33  4.3662557E-01
   7170.67  4.3727178E-01
   7171.00  4.3803928E-01
   7171.33  4.3888239E-01
   7171.67  4.3970832E-01
   7172.00  4.4041560E-01
