    FDMNES
    energy     <xanes>
   7097.00  4.9260215E-03
   7097.33  5.0374664E-03
   7097.67  5.1536246E-03
   7098.00  5.2747907E-03
   7098.33  5.4020146E-03
   7098.67  5.5350396E-03
   7099.00  5.6742590E-03
   7099.33  5.8210167E-03
   7099.67  5.9750397E-03
   7100.00  6.1368653E-03
   7100.33  6.3082546E-03
   7100.67  6.4889316E-03
   7101.00  6.6796523E-03
   7101.33  6.8827897E-03
   7101.67  7.0980966E-03
   7102.00  7.3266746E-03
   7102.33  7.5718319E-03
   7102.67  7.8334231E-03
   7103.00  8.1131228E-03
   7103.33  8.4157427E-03
   7103.67  8.7414070E-03
   7104.00  9.0928006E-03
   7104.33  9.4773099E-03
   7104.67  9.8957314E-03
   7105.00  1.0352674E-02
   7105.33  1.0860307E-02
   7105.67  1.1421144E-02
   7106.00  1.2043848E-02
   7106.33  1.2750490E-02
   7106.67  1.3548340E-02
   7107.00  1.4455864E-02
   7107.33  1.5519007E-02
   7107.67  1.6760275E-02
   7108.00  1.8227081E-02
   7108.33  2.0037482E-02
   7108.67  2.2276285E-02
   7109.00  2.5107161E-02
   7109.33  2.8960238E-02
   7109.67  3.4300682E-02
   7110.00  4.2043579E-02
   7110.33  5.4808486E-02
   7110.67  7.5302780E-02
   7111.00  1.0379672E-01
   7111.33  1.3067275E-01
   7111.67  1.5275568E-01
   7112.00  1.7423193E-01
   7112.33  1.9404334E-01
   7112.67  2.1319423E-01
   7113.00  2.2923917E-01
   7113.33  2.3158742E-01
   7113.67  2.2506600E-01
   7114.00  2.2364063E-01
   7114.33  2.3637010E-01
   7114.67  2.5384825E-01
   7115.00  2.6442145E-01
   7115.33  2.6605966E-01
   7115.67  2.6957276E-01
   7116.00  2.7487039E-01
   7116.33  2.7135403E-01
   7116.67  2.6225876E-01
   7117.00  2.5780794E-01
   7117.33  2.6176223E-01
   7117.67  2.6972134E-01
   7118.00  2.8468473E-01
   7118.33  3.1299136E-01
   7118.67  3.5108721E-01
   7119.00  3.9229338E-01
   7119.33  4.2018827E-01
   7119.67  4.2188576E-01
   7120.00  3.9960153E-01
   7120.33  3.6712938E-01
   7120.67  3.3691480E-01
   7121.00  3.1240070E-01
   7121.33  2.9478639E-01
   7121.67  2.8263021E-01
   7122.00  2.7531828E-01
   7122.33  2.7274377E-01
   7122.67  2.7366378E-01
   7123.00  2.7748339E-01
   7123.33  2.8407554E-01
   7123.67  2.9272418E-01
   7124.00  3.0280040E-01
   7124.33  3.1361547E-01
   7124.67  3.2474945E-01
   7125.00  3.3655621E-01
   7125.33  3.5038060E-01
   7125.67  3.6684589E-01
   7126.00  3.8579529E-01
   7126.33  4.0622638E-01
   7126.67  4.2588893E-01
   7127.00  4.4264254E-01
   7127.33  4.5453027E-01
   7127.67  4.6299799E-01
   7128.00  4.6989063E-01
   7128.33  4.7682374E-01
   7128.67  4.8468508E-01
   7129.00  4.9405007E-01
   7129.33  5.0524759E-01
   7129.67  5.1759807E-01
   7130.00  5.3084142E-01
   7130.33  5.4529231E-01
   7130.67  5.6117605E-01
   7131.00  5.7891868E-01
   7131.33  5.9936692E-01
   7131.67  6.2194986E-01
   7132.00  6.4532183E-01
   7132.33  6.6713333E-01
   7132.67  6.8589115E-01
   7133.00  7.0100586E-01
   7133.33  7.1209764E-01
   7133.67  7.1997681E-01
   7134.00  7.2486688E-01
   7134.33  7.2651474E-01
   7134.67  7.2552735E-01
   7135.00  7.2239179E-01
   7135.33  7.1754566E-01
   7135.67  7.1156197E-01
   7136.00  7.0462017E-01
   7136.33  6.9690960E-01
   7136.67  6.8892784E-01
   7137.00  6.8102897E-01
   7137.33  6.7351680E-01
   7137.67  6.6640806E-01
   7138.00  6.5963585E-01
   7138.33  6.5308306E-01
   7138.67  6.4656549E-01
   7139.00  6.3994336E-01
   7139.33  6.3300943E-01
   7139.67  6.2561783E-01
   7140.00  6.1762646E-01
   7140.33  6.0881382E-01
   7140.67  5.9920225E-01
   7141.00  5.8880637E-01
   7141.33  5.7764630E-01
   7141.67  5.6600186E-01
   7142.00  5.5410311E-01
   7142.33  5.4226706E-01
   7142.67  5.3079675E-01
   7143.00  5.1992040E-01
   7143.33  5.0992115E-01
   7143.67  5.0078670E-01
   7144.00  4.9251718E-01
   7144.33  4.8515465E-01
   7144.67  4.7851141E-01
   7145.00  4.7251493E-01
   7145.33  4.6717263E-01
   7145.67  4.6237149E-01
   7146.00  4.5809091E-01
   7146.33  4.5437049E-01
   7146.67  4.5111339E-01
   7147.00  4.4827593E-01
   7147.33  4.4584239E-01
   7147.67  4.4371463E-01
   7148.00  4.4186532E-01
   7148.33  4.4032562E-01
   7148.67  4.3910852E-01
   7149.00  4.3828905E-01
   7149.33  4.3801992E-01
   7149.67  4.3831451E-01
   7150.00  4.3921382E-01
   7150.33  4.4081073E-01
   7150.67  4.4300882E-01
   7151.00  4.4576932E-01
   7151.33  4.4909141E-01
   7151.67  4.5283720E-01
   7152.00  4.5693530E-01
   7152.33  4.6132996E-01
   7152.67  4.6589261E-01
   7153.00  4.7053245E-01
   7153.33  4.7512940E-01
   7153.67  4.7956483E-01
   7154.00  4.8372911E-01
   7154.33  4.8744695E-01
   7154.67  4.9065223E-01
   7155.00  4.9326065E-01
   7155.33  4.9511457E-01
   7155.67  4.9625498E-01
   7156.00  4.9667166E-01
   7156.33  4.9629255E-01
   7156.67  4.9524582E-01
   7157.00  4.9357849E-01
   7157.33  4.9128428E-01
   7157.67  4.8849894E-01
   7158.00  4.8527850E-01
   7158.33  4.8164017E-01
   7158.67  4.7769301E-01
   7159.00  4.7349175E-01
   7159.33  4.6908033E-01
   7159.67  4.6455238E-01
   7160.00  4.5997112E-01
   7160.33  4.5541328E-01
   7160.67  4.5094521E-01
   7161.00  4.4661822E-01
   7161.33  4.4249679E-01
   7161.67  4.3858381E-01
   7162.00  4.3489656E-01
   7162.33  4.3147873E-01
   7162.67  4.2830591E-01
   7163.00  4.2538137E-01
   7163.33  4.2274261E-01
   7163.67  4.2036721E-01
   7164.00  4.1826652E-01
   7164.33  4.1649255E-01
   7164.67  4.1502507E-01
   7165.00  4.1387624E-01
   7165.33  4.1309707E-01
   7165.67  4.1265048E-01
   7166.00  4.1253453E-01
   7166.33  4.1278067E-01
   7166.67  4.1333378E-01
   7167.00  4.1417637E-01
   7167.33  4.1531525E-01
   7167.67  4.1668591E-01
   7168.00  4.1825841E-01
   7168.33  4.2001701E-01
   7168.67  4.2190463E-01
   7169.00  4.2389174E-01
   7169.33  4.2595585E-01
   7169.67  4.2806065E-01
   7170.00  4.3018410E-01
   7170.33  4.3230095E-01
   7170.67  4.3438568E-01
   7171.00  4.3640972E-01
   7171.33  4.3830789E-01
   7171.67  4.4000468E-01
   7172.00  4.4138526E-01
