    FDMNES
    energy     <xanes>
   7097.00  4.8953383E-03
   7097.33  5.0079633E-03
   7097.67  5.1254415E-03
   7098.00  5.2480836E-03
   7098.33  5.3769828E-03
   7098.67  5.5118852E-03
   7099.00  5.6532081E-03
   7099.33  5.8023609E-03
   7099.67  5.9590766E-03
   7100.00  6.1239309E-03
   7100.33  6.2987855E-03
   7100.67  6.4833780E-03
   7101.00  6.6785266E-03
   7101.33  6.8867648E-03
   7101.67  7.1078740E-03
   7102.00  7.3430611E-03
   7102.33  7.5959005E-03
   7102.67  7.8663073E-03
   7103.00  8.1561424E-03
   7103.33  8.4706806E-03
   7103.67  8.8101779E-03
   7104.00  9.1776683E-03
   7104.33  9.5813921E-03
   7104.67  1.0022448E-02
   7105.00  1.0506148E-02
   7105.33  1.1046361E-02
   7105.67  1.1646345E-02
   7106.00  1.2316324E-02
   7106.33  1.3082119E-02
   7106.67  1.3953040E-02
   7107.00  1.4951513E-02
   7107.33  1.6133045E-02
   7107.67  1.7526737E-02
   7108.00  1.9192194E-02
   7108.33  2.1277843E-02
   7108.67  2.3895957E-02
   7109.00  2.7261076E-02
   7109.33  3.1940527E-02
   7109.67  3.8571115E-02
   7110.00  4.8408876E-02
   7110.33  6.5098532E-02
   7110.67  9.2631713E-02
   7111.00  1.3136936E-01
   7111.33  1.6171982E-01
   7111.67  1.7808746E-01
   7112.00  1.9431091E-01
   7112.33  2.0673289E-01
   7112.67  2.1381903E-01
   7113.00  2.2800926E-01
   7113.33  2.5706162E-01
   7113.67  2.8755671E-01
   7114.00  3.1128321E-01
   7114.33  3.2085987E-01
   7114.67  2.9026432E-01
   7115.00  2.3180425E-01
   7115.33  1.8453246E-01
   7115.67  1.5589754E-01
   7116.00  1.4217783E-01
   7116.33  1.4094545E-01
   7116.67  1.4931771E-01
   7117.00  1.6692644E-01
   7117.33  1.9253709E-01
   7117.67  2.1892990E-01
   7118.00  2.4215737E-01
   7118.33  2.6856700E-01
   7118.67  3.0783350E-01
   7119.00  3.6234512E-01
   7119.33  4.1857415E-01
   7119.67  4.5055440E-01
   7120.00  4.5076662E-01
   7120.33  4.2767434E-01
   7120.67  3.9337765E-01
   7121.00  3.5502948E-01
   7121.33  3.2183562E-01
   7121.67  2.9709467E-01
   7122.00  2.8072288E-01
   7122.33  2.7221989E-01
   7122.67  2.6905402E-01
   7123.00  2.6981851E-01
   7123.33  2.7406224E-01
   7123.67  2.8162881E-01
   7124.00  2.9273335E-01
   7124.33  3.0723578E-01
   7124.67  3.2393385E-01
   7125.00  3.4255630E-01
   7125.33  3.6279470E-01
   7125.67  3.8286803E-01
   7126.00  4.0114074E-01
   7126.33  4.1672423E-01
   7126.67  4.3102658E-01
   7127.00  4.4552202E-01
   7127.33  4.6187356E-01
   7127.67  4.8076356E-01
   7128.00  5.0237514E-01
   7128.33  5.2635093E-01
   7128.67  5.5092195E-01
   7129.00  5.7448709E-01
   7129.33  5.9531975E-01
   7129.67  6.1304034E-01
   7130.00  6.2725012E-01
   7130.33  6.3674626E-01
   7130.67  6.4152330E-01
   7131.00  6.4193327E-01
   7131.33  6.3938750E-01
   7131.67  6.3674091E-01
   7132.00  6.3589715E-01
   7132.33  6.3847430E-01
   7132.67  6.4423115E-01
   7133.00  6.5262142E-01
   7133.33  6.6276663E-01
   7133.67  6.7329006E-01
   7134.00  6.8334327E-01
   7134.33  6.9209506E-01
   7134.67  6.9917478E-01
   7135.00  7.0413130E-01
   7135.33  7.0612795E-01
   7135.67  7.0516258E-01
   7136.00  7.0115712E-01
   7136.33  6.9381027E-01
   7136.67  6.8358377E-01
   7137.00  6.7050717E-01
   7137.33  6.5428855E-01
   7137.67  6.3555886E-01
   7138.00  6.1490288E-01
   7138.33  5.9335691E-01
   7138.67  5.7240947E-01
   7139.00  5.5315490E-01
   7139.33  5.3680488E-01
   7139.67  5.2344081E-01
   7140.00  5.1308296E-01
   7140.33  5.0584548E-01
   7140.67  5.0099377E-01
   7141.00  4.9814941E-01
   7141.33  4.9709288E-01
   7141.67  4.9729764E-01
   7142.00  4.9858575E-01
   7142.33  5.0098522E-01
   7142.67  5.0435239E-01
   7143.00  5.0867535E-01
   7143.33  5.1398226E-01
   7143.67  5.1995304E-01
   7144.00  5.2629907E-01
   7144.33  5.3260484E-01
   7144.67  5.3842823E-01
   7145.00  5.4340590E-01
   7145.33  5.4708498E-01
   7145.67  5.4949886E-01
   7146.00  5.5072338E-01
   7146.33  5.5087959E-01
   7146.67  5.5040252E-01
   7147.00  5.4955908E-01
   7147.33  5.4859383E-01
   7147.67  5.4770691E-01
   7148.00  5.4700693E-01
   7148.33  5.4660975E-01
   7148.67  5.4652939E-01
   7149.00  5.4678059E-01
   7149.33  5.4738354E-01
   7149.67  5.4825286E-01
   7150.00  5.4933084E-01
   7150.33  5.5053880E-01
   7150.67  5.5174016E-01
   7151.00  5.5281104E-01
   7151.33  5.5355494E-01
   7151.67  5.5384485E-01
   7152.00  5.5355222E-01
   7152.33  5.5246385E-01
   7152.67  5.5057583E-01
   7153.00  5.4783558E-01
   7153.33  5.4410003E-01
   7153.67  5.3947654E-01
   7154.00  5.3398450E-01
   7154.33  5.2756847E-01
   7154.67  5.2040751E-01
   7155.00  5.1258913E-01
   7155.33  5.0417763E-01
   7155.67  4.9539704E-01
   7156.00  4.8639916E-01
   7156.33  4.7736159E-01
   7156.67  4.6846208E-01
   7157.00  4.5983436E-01
   7157.33  4.5165880E-01
   7157.67  4.4398376E-01
   7158.00  4.3687012E-01
   7158.33  4.3043887E-01
   7158.67  4.2463299E-01
   7159.00  4.1945359E-01
   7159.33  4.1496634E-01
   7159.67  4.1106869E-01
   7160.00  4.0772783E-01
   7160.33  4.0495663E-01
   7160.67  4.0263053E-01
   7161.00  4.0069194E-01
   7161.33  3.9911177E-01
   7161.67  3.9778089E-01
   7162.00  3.9664216E-01
   7162.33  3.9565388E-01
   7162.67  3.9475265E-01
   7163.00  3.9390758E-01
   7163.33  3.9309503E-01
   7163.67  3.9229579E-01
   7164.00  3.9150581E-01
   7164.33  3.9073015E-01
   7164.67  3.8997741E-01
   7165.00  3.8926009E-01
   7165.33  3.8860240E-01
   7165.67  3.8801710E-01
   7166.00  3.8752118E-01
   7166.33  3.8714701E-01
   7166.67  3.8689754E-01
   7167.00  3.8678436E-01
   7167.33  3.8683494E-01
   7167.67  3.8703529E-01
   7168.00  3.8738606E-01
   7168.33  3.8790413E-01
   7168.67  3.8856704E-01
   7169.00  3.8937037E-01
   7169.33  3.9032517E-01
   7169.67  3.9140768E-01
   7170.00  3.9261013E-01
   7170.33  3.9393390E-01
   7170.67  3.9534715E-01
   7171.00  3.9682402E-01
   7171.33  3.9831190E-01
   7171.67  3.9970793E-01
   7172.00  4.0087608E-01
