    FDMNES
    energy     <xanes>
   7097.00  5.0025932E-03
   7097.33  5.1199541E-03
   7097.67  5.2425620E-03
   7098.00  5.3707656E-03
   7098.33  5.5057686E-03
   7098.67  5.6473142E-03
   7099.00  5.7958753E-03
   7099.33  5.9530185E-03
   7099.67  6.1184782E-03
   7100.00  6.2929130E-03
   7100.33  6.4784141E-03
   7100.67  6.6747296E-03
   7101.00  6.8828055E-03
   7101.33  7.1055200E-03
   7101.67  7.3426855E-03
   7102.00  7.5957119E-03
   7102.33  7.8687097E-03
   7102.67  8.1616685E-03
   7103.00  8.4767863E-03
   7103.33  8.8202068E-03
   7103.67  9.1923557E-03
   7104.00  9.5968553E-03
   7104.33  1.0043429E-02
   7104.67  1.0533562E-02
   7105.00  1.1073660E-02
   7105.33  1.1680291E-02
   7105.67  1.2357625E-02
   7106.00  1.3118081E-02
   7106.33  1.3992822E-02
   7106.67  1.4993451E-02
   7107.00  1.6147279E-02
   7107.33  1.7521578E-02
   7107.67  1.9151828E-02
   7108.00  2.1110036E-02
   7108.33  2.3574556E-02
   7108.67  2.6678034E-02
   7109.00  3.0672401E-02
   7109.33  3.6216655E-02
   7109.67  4.4024525E-02
   7110.00  5.5487588E-02
   7110.33  7.4570155E-02
   7110.67  1.0550214E-01
   7111.00  1.5018174E-01
   7111.33  2.0244063E-01
   7111.67  2.5529894E-01
   7112.00  3.0169109E-01
   7112.33  3.1660272E-01
   7112.67  2.9517856E-01
   7113.00  2.6440451E-01
   7113.33  2.4982333E-01
   7113.67  2.4330414E-01
   7114.00  2.3173673E-01
   7114.33  2.2201524E-01
   7114.67  2.3657336E-01
   7115.00  2.8322368E-01
   7115.33  3.2495601E-01
   7115.67  2.9634001E-01
   7116.00  2.3003631E-01
   7116.33  1.8778605E-01
   7116.67  1.7315554E-01
   7117.00  1.8012629E-01
   7117.33  2.0164463E-01
   7117.67  2.2124505E-01
   7118.00  2.2815056E-01
   7118.33  2.2719371E-01
   7118.67  2.3138392E-01
   7119.00  2.4377765E-01
   7119.33  2.6129200E-01
   7119.67  2.7876380E-01
   7120.00  2.9439238E-01
   7120.33  3.0578196E-01
   7120.67  3.1285564E-01
   7121.00  3.1779360E-01
   7121.33  3.2335698E-01
   7121.67  3.2954392E-01
   7122.00  3.3479872E-01
   7122.33  3.3743264E-01
   7122.67  3.3802451E-01
   7123.00  3.3779447E-01
   7123.33  3.3818289E-01
   7123.67  3.3947488E-01
   7124.00  3.4131564E-01
   7124.33  3.4345159E-01
   7124.67  3.4568341E-01
   7125.00  3.4788600E-01
   7125.33  3.5020140E-01
   7125.67  3.5271520E-01
   7126.00  3.5550588E-01
   7126.33  3.5945782E-01
   7126.67  3.6556220E-01
   7127.00  3.7423142E-01
   7127.33  3.8510790E-01
   7127.67  3.9659678E-01
   7128.00  4.0750275E-01
   7128.33  4.1703988E-01
   7128.67  4.2623295E-01
   7129.00  4.3690334E-01
   7129.33  4.5154983E-01
   7129.67  4.7014859E-01
   7130.00  4.9151372E-01
   7130.33  5.1378815E-01
   7130.67  5.3512741E-01
   7131.00  5.5403426E-01
   7131.33  5.6863976E-01
   7131.67  5.7936993E-01
   7132.00  5.8715148E-01
   7132.33  5.9272664E-01
   7132.67  5.9653882E-01
   7133.00  5.9847984E-01
   7133.33  5.9857209E-01
   7133.67  5.9778037E-01
   7134.00  5.9709770E-01
   7134.33  5.9812342E-01
   7134.67  6.0190393E-01
   7135.00  6.0894895E-01
   7135.33  6.1953739E-01
   7135.67  6.3266348E-01
   7136.00  6.4761534E-01
   7136.33  6.6363313E-01
   7136.67  6.7975467E-01
   7137.00  6.9530417E-01
   7137.33  7.0940327E-01
   7137.67  7.2161129E-01
   7138.00  7.3153743E-01
   7138.33  7.3853729E-01
   7138.67  7.4268319E-01
   7139.00  7.4374244E-01
   7139.33  7.4101311E-01
   7139.67  7.3477977E-01
   7140.00  7.2521207E-01
   7140.33  7.1260345E-01
   7140.67  6.9827405E-01
   7141.00  6.8314469E-01
   7141.33  6.6815533E-01
   7141.67  6.5392611E-01
   7142.00  6.4074947E-01
   7142.33  6.2885693E-01
   7142.67  6.1797220E-01
   7143.00  6.0784246E-01
   7143.33  5.9813100E-01
   7143.67  5.8840806E-01
   7144.00  5.7841355E-01
   7144.33  5.6792451E-01
   7144.67  5.5700181E-01
   7145.00  5.4579006E-01
   7145.33  5.3459108E-01
   7145.67  5.2378727E-01
   7146.00  5.1371829E-01
   7146.33  5.0486455E-01
   7146.67  4.9733710E-01
   7147.00  4.9124917E-01
   7147.33  4.8680829E-01
   7147.67  4.8376018E-01
   7148.00  4.8197941E-01
   7148.33  4.8138868E-01
   7148.67  4.8158991E-01
   7149.00  4.8232978E-01
   7149.33  4.8337889E-01
   7149.67  4.8449577E-01
   7150.00  4.8552253E-01
   7150.33  4.8626905E-01
   7150.67  4.8664905E-01
   7151.00  4.8660114E-01
   7151.33  4.8604489E-01
   7151.67  4.8506165E-01
   7152.00  4.8370569E-01
   7152.33  4.8203374E-01
   7152.67  4.8019230E-01
   7153.00  4.7828219E-01
   7153.33  4.7641906E-01
   7153.67  4.7468573E-01
   7154.00  4.7312850E-01
   7154.33  4.7177817E-01
   7154.67  4.7056139E-01
   7155.00  4.6938701E-01
   7155.33  4.6808642E-01
   7155.67  4.6648685E-01
   7156.00  4.6442630E-01
   7156.33  4.6167054E-01
   7156.67  4.5820716E-01
   7157.00  4.5403019E-01
   7157.33  4.4913793E-01
   7157.67  4.4376514E-01
   7158.00  4.3808565E-01
   7158.33  4.3230767E-01
   7158.67  4.2665287E-01
   7159.00  4.2128072E-01
   7159.33  4.1639823E-01
   7159.67  4.1206784E-01
   7160.00  4.0836208E-01
   7160.33  4.0541695E-01
   7160.67  4.0316839E-01
   7161.00  4.0161323E-01
   7161.33  4.0080071E-01
   7161.67  4.0058015E-01
   7162.00  4.0086564E-01
   7162.33  4.0158834E-01
   7162.67  4.0258489E-01
   7163.00  4.0376499E-01
   7163.33  4.0505330E-01
   7163.67  4.0637651E-01
   7164.00  4.0770346E-01
   7164.33  4.0901661E-01
   7164.67  4.1031571E-01
   7165.00  4.1160516E-01
   7165.33  4.1289362E-01
   7165.67  4.1419282E-01
   7166.00  4.1551528E-01
   7166.33  4.1688371E-01
   7166.67  4.1831148E-01
   7167.00  4.1981322E-01
   7167.33  4.2141468E-01
   7167.67  4.2311428E-01
   7168.00  4.2491393E-01
   7168.33  4.2681904E-01
   7168.67  4.2880227E-01
   7169.00  4.3084355E-01
   7169.33  4.3291767E-01
   7169.67  4.3498853E-01
   7170.00  4.3702712E-01
   7170.33  4.3899148E-01
   7170.67  4.4085623E-01
   7171.00  4.4259170E-01
   7171.33  4.4413794E-01
   7171.67  4.4546432E-01
   7172.00  4.4651481E-01
