    FDMNES
    energy     <xanes>
   7097.00  4.7075510E-03
   7097.33  4.8120627E-03
   7097.67  4.9210243E-03
   7098.00  5.0347223E-03
   7098.33  5.1541626E-03
   7098.67  5.2791155E-03
   7099.00  5.4099679E-03
   7099.33  5.5480205E-03
   7099.67  5.6930343E-03
   7100.00  5.8455457E-03
   7100.33  6.0072803E-03
   7100.67  6.1780076E-03
   7101.00  6.3584948E-03
   7101.33  6.5511032E-03
   7101.67  6.7556504E-03
   7102.00  6.9732765E-03
   7102.33  7.2073349E-03
   7102.67  7.4577821E-03
   7103.00  7.7263900E-03
   7103.33  8.0181469E-03
   7103.67  8.3333544E-03
   7104.00  8.6749266E-03
   7104.33  9.0507253E-03
   7104.67  9.4618972E-03
   7105.00  9.9135867E-03
   7105.33  1.0419147E-02
   7105.67  1.0981872E-02
   7106.00  1.1611729E-02
   7106.33  1.2333774E-02
   7106.67  1.3157263E-02
   7107.00  1.4104113E-02
   7107.33  1.5228374E-02
   7107.67  1.6558515E-02
   7108.00  1.8152437E-02
   7108.33  2.0153762E-02
   7108.67  2.2669813E-02
   7109.00  2.5904850E-02
   7109.33  3.0395264E-02
   7109.67  3.6729580E-02
   7110.00  4.6059959E-02
   7110.33  6.1666868E-02
   7110.67  8.6817643E-02
   7111.00  1.2160245E-01
   7111.33  1.5636853E-01
   7111.67  1.8689156E-01
   7112.00  2.1672279E-01
   7112.33  2.5372315E-01
   7112.67  2.9277216E-01
   7113.00  3.0716362E-01
   7113.33  2.7681655E-01
   7113.67  2.3016268E-01
   7114.00  1.8349014E-01
   7114.33  1.4865575E-01
   7114.67  1.2522797E-01
   7115.00  1.1039131E-01
   7115.33  1.0349163E-01
   7115.67  1.0359423E-01
   7116.00  1.1117310E-01
   7116.33  1.2833259E-01
   7116.67  1.5204448E-01
   7117.00  1.7230062E-01
   7117.33  1.7478608E-01
   7117.67  1.7081944E-01
   7118.00  1.7341348E-01
   7118.33  1.8954855E-01
   7118.67  2.1603044E-01
   7119.00  2.4663434E-01
   7119.33  2.7069800E-01
   7119.67  2.8570872E-01
   7120.00  2.9507254E-01
   7120.33  3.0247719E-01
   7120.67  3.0960751E-01
   7121.00  3.1682530E-01
   7121.33  3.2431426E-01
   7121.67  3.3169007E-01
   7122.00  3.3823736E-01
   7122.33  3.4286895E-01
   7122.67  3.4527261E-01
   7123.00  3.4564495E-01
   7123.33  3.4443738E-01
   7123.67  3.4186979E-01
   7124.00  3.3816530E-01
   7124.33  3.3489241E-01
   7124.67  3.3402953E-01
   7125.00  3.3674205E-01
   7125.33  3.4359807E-01
   7125.67  3.5317046E-01
   7126.00  3.6465890E-01
   7126.33  3.7812467E-01
   7126.67  3.9371912E-01
   7127.00  4.1147807E-01
   7127.33  4.3043398E-01
   7127.67  4.4847182E-01
   7128.00  4.6423864E-01
   7128.33  4.7744426E-01
   7128.67  4.8988659E-01
   7129.00  5.0299404E-01
   7129.33  5.1767796E-01
   7129.67  5.3319003E-01
   7130.00  5.4807260E-01
   7130.33  5.5966284E-01
   7130.67  5.6658756E-01
   7131.00  5.6884032E-01
   7131.33  5.6799340E-01
   7131.67  5.6709209E-01
   7132.00  5.6789300E-01
   7132.33  5.7170796E-01
   7132.67  5.7839438E-01
   7133.00  5.8779087E-01
   7133.33  5.9972197E-01
   7133.67  6.1313631E-01
   7134.00  6.2711847E-01
   7134.33  6.4019093E-01
   7134.67  6.5081230E-01
   7135.00  6.5772222E-01
   7135.33  6.5967416E-01
   7135.67  6.5750145E-01
   7136.00  6.5196115E-01
   7136.33  6.4378582E-01
   7136.67  6.3415439E-01
   7137.00  6.2367286E-01
   7137.33  6.1294447E-01
   7137.67  6.0266173E-01
   7138.00  5.9345763E-01
   7138.33  5.8633550E-01
   7138.67  5.8176716E-01
   7139.00  5.8017354E-01
   7139.33  5.8203686E-01
   7139.67  5.8652198E-01
   7140.00  5.9281038E-01
   7140.33  5.9967171E-01
   7140.67  6.0564186E-01
   7141.00  6.0966184E-01
   7141.33  6.1055791E-01
   7141.67  6.0842576E-01
   7142.00  6.0350254E-01
   7142.33  5.9619116E-01
   7142.67  5.8765023E-01
   7143.00  5.7868404E-01
   7143.33  5.7021328E-01
   7143.67  5.6290215E-01
   7144.00  5.5721861E-01
   7144.33  5.5376330E-01
   7144.67  5.5243711E-01
   7145.00  5.5322237E-01
   7145.33  5.5621022E-01
   7145.67  5.6089953E-01
   7146.00  5.6701538E-01
   7146.33  5.7432791E-01
   7146.67  5.8230922E-01
   7147.00  5.9061170E-01
   7147.33  5.9885591E-01
   7147.67  6.0672425E-01
   7148.00  6.1396070E-01
   7148.33  6.2018594E-01
   7148.67  6.2529843E-01
   7149.00  6.2916598E-01
   7149.33  6.3154133E-01
   7149.67  6.3259233E-01
   7150.00  6.3238966E-01
   7150.33  6.3093216E-01
   7150.67  6.2852886E-01
   7151.00  6.2532988E-01
   7151.33  6.2141285E-01
   7151.67  6.1697868E-01
   7152.00  6.1209654E-01
   7152.33  6.0676320E-01
   7152.67  6.0105987E-01
   7153.00  5.9501059E-01
   7153.33  5.8861334E-01
   7153.67  5.8196740E-01
   7154.00  5.7514513E-01
   7154.33  5.6823052E-01
   7154.67  5.6132100E-01
   7155.00  5.5447759E-01
   7155.33  5.4776528E-01
   7155.67  5.4119569E-01
   7156.00  5.3477205E-01
   7156.33  5.2849585E-01
   7156.67  5.2232341E-01
   7157.00  5.1622760E-01
   7157.33  5.1018391E-01
   7157.67  5.0416234E-01
   7158.00  4.9815016E-01
   7158.33  4.9214470E-01
   7158.67  4.8615382E-01
   7159.00  4.8019343E-01
   7159.33  4.7429446E-01
   7159.67  4.6847635E-01
   7160.00  4.6276356E-01
   7160.33  4.5720249E-01
   7160.67  4.5180535E-01
   7161.00  4.4659682E-01
   7161.33  4.4163158E-01
   7161.67  4.3690752E-01
   7162.00  4.3244273E-01
   7162.33  4.2828832E-01
   7162.67  4.2442272E-01
   7163.00  4.2085555E-01
   7163.33  4.1763602E-01
   7163.67  4.1473792E-01
   7164.00  4.1217509E-01
   7164.33  4.1000917E-01
   7164.67  4.0820924E-01
   7165.00  4.0678592E-01
   7165.33  4.0580148E-01
   7165.67  4.0521536E-01
   7166.00  4.0502775E-01
   7166.33  4.0527841E-01
   7166.67  4.0589904E-01
   7167.00  4.0686454E-01
   7167.33  4.0817487E-01
   7167.67  4.0974388E-01
   7168.00  4.1152360E-01
   7168.33  4.1346970E-01
   7168.67  4.1549532E-01
   7169.00  4.1753986E-01
   7169.33  4.1952825E-01
   7169.67  4.2140392E-01
   7170.00  4.2312089E-01
   7170.33  4.2461352E-01
   7170.67  4.2588230E-01
   7171.00  4.2692020E-01
   7171.33  4.2770722E-01
   7171.67  4.2829410E-01
   7172.00  4.2870966E-01
