    FDMNES
    energy     <xanes>
   7097.00  5.1248572E-03
   7097.33  5.2411594E-03
   7097.67  5.3626069E-03
   7098.00  5.4895425E-03
   7098.33  5.6231482E-03
   7098.67  5.7631737E-03
   7099.00  5.9100847E-03
   7099.33  6.0654213E-03
   7099.67  6.2289254E-03
   7100.00  6.4012466E-03
   7100.33  6.5844433E-03
   7100.67  6.7782723E-03
   7101.00  6.9836676E-03
   7101.33  7.2034661E-03
   7101.67  7.4374889E-03
   7102.00  7.6871295E-03
   7102.33  7.9564435E-03
   7102.67  8.2454279E-03
   7103.00  8.5562553E-03
   7103.33  8.8949904E-03
   7103.67  9.2620595E-03
   7104.00  9.6610398E-03
   7104.33  1.0101526E-02
   7104.67  1.0584981E-02
   7105.00  1.1117717E-02
   7105.33  1.1716054E-02
   7105.67  1.2384070E-02
   7106.00  1.3133957E-02
   7106.33  1.3996309E-02
   7106.67  1.4982413E-02
   7107.00  1.6118951E-02
   7107.33  1.7471672E-02
   7107.67  1.9074982E-02
   7108.00  2.0998954E-02
   7108.33  2.3417303E-02
   7108.67  2.6458983E-02
   7109.00  3.0369663E-02
   7109.33  3.5793879E-02
   7109.67  4.3435430E-02
   7110.00  5.4673653E-02
   7110.33  7.3471629E-02
   7110.67  1.0416512E-01
   7111.00  1.4841443E-01
   7111.33  1.9307394E-01
   7111.67  2.2301987E-01
   7112.00  2.3981716E-01
   7112.33  2.6188877E-01
   7112.67  3.0067106E-01
   7113.00  3.4082595E-01
   7113.33  3.6344018E-01
   7113.67  3.7379254E-01
   7114.00  3.6654833E-01
   7114.33  3.3272070E-01
   7114.67  2.9003938E-01
   7115.00  2.5300937E-01
   7115.33  2.2873434E-01
   7115.67  2.1473085E-01
   7116.00  2.0879957E-01
   7116.33  2.0839578E-01
   7116.67  2.0743317E-01
   7117.00  2.0037075E-01
   7117.33  1.8562495E-01
   7117.67  1.6970942E-01
   7118.00  1.5676482E-01
   7118.33  1.4872543E-01
   7118.67  1.4440129E-01
   7119.00  1.4273066E-01
   7119.33  1.4266071E-01
   7119.67  1.4326815E-01
   7120.00  1.4455113E-01
   7120.33  1.4719762E-01
   7120.67  1.5123585E-01
   7121.00  1.5546106E-01
   7121.33  1.5714008E-01
   7121.67  1.5653741E-01
   7122.00  1.5603075E-01
   7122.33  1.5824021E-01
   7122.67  1.6363058E-01
   7123.00  1.7220589E-01
   7123.33  1.8409035E-01
   7123.67  1.9851624E-01
   7124.00  2.1503406E-01
   7124.33  2.3323901E-01
   7124.67  2.5239324E-01
   7125.00  2.7216025E-01
   7125.33  2.9241899E-01
   7125.67  3.1308549E-01
   7126.00  3.3409355E-01
   7126.33  3.5523757E-01
   7126.67  3.7641314E-01
   7127.00  3.9804744E-01
   7127.33  4.2125203E-01
   7127.67  4.4608069E-01
   7128.00  4.7198669E-01
   7128.33  4.9938449E-01
   7128.67  5.3002228E-01
   7129.00  5.6587396E-01
   7129.33  6.0878248E-01
   7129.67  6.5700355E-01
   7130.00  7.0837273E-01
   7130.33  7.5946651E-01
   7130.67  8.0657137E-01
   7131.00  8.4662194E-01
   7131.33  8.7525847E-01
   7131.67  8.9201285E-01
   7132.00  8.9881632E-01
   7132.33  9.0079650E-01
   7132.67  9.0169519E-01
   7133.00  9.0153306E-01
   7133.33  8.9920804E-01
   7133.67  8.9420126E-01
   7134.00  8.8615385E-01
   7134.33  8.7457941E-01
   7134.67  8.5998993E-01
   7135.00  8.4254728E-01
   7135.33  8.2215210E-01
   7135.67  7.9950314E-01
   7136.00  7.7508585E-01
   7136.33  7.4944153E-01
   7136.67  7.2341751E-01
   7137.00  6.9768318E-01
   7137.33  6.7324608E-01
   7137.67  6.5076134E-01
   7138.00  6.3073494E-01
   7138.33  6.1386386E-01
   7138.67  5.9992144E-01
   7139.00  5.8887410E-01
   7139.33  5.8090343E-01
   7139.67  5.7542041E-01
   7140.00  5.7217777E-01
   7140.33  5.7110648E-01
   7140.67  5.7162009E-01
   7141.00  5.7337523E-01
   7141.33  5.7598854E-01
   7141.67  5.7879218E-01
   7142.00  5.8123251E-01
   7142.33  5.8251066E-01
   7142.67  5.8214479E-01
   7143.00  5.7973880E-01
   7143.33  5.7478364E-01
   7143.67  5.6763524E-01
   7144.00  5.5858161E-01
   7144.33  5.4797449E-01
   7144.67  5.3660527E-01
   7145.00  5.2499637E-01
   7145.33  5.1370974E-01
   7145.67  5.0311177E-01
   7146.00  4.9344473E-01
   7146.33  4.8500956E-01
   7146.67  4.7771355E-01
   7147.00  4.7153685E-01
   7147.33  4.6656974E-01
   7147.67  4.6262664E-01
   7148.00  4.5966177E-01
   7148.33  4.5773656E-01
   7148.67  4.5668125E-01
   7149.00  4.5644848E-01
   7149.33  4.5707328E-01
   7149.67  4.5838818E-01
   7150.00  4.6032324E-01
   7150.33  4.6285532E-01
   7150.67  4.6581786E-01
   7151.00  4.6911759E-01
   7151.33  4.7267497E-01
   7151.67  4.7636483E-01
   7152.00  4.8011436E-01
   7152.33  4.8384954E-01
   7152.67  4.8751267E-01
   7153.00  4.9106129E-01
   7153.33  4.9443281E-01
   7153.67  4.9760845E-01
   7154.00  5.0055747E-01
   7154.33  5.0321297E-01
   7154.67  5.0557637E-01
   7155.00  5.0762579E-01
   7155.33  5.0930163E-01
   7155.67  5.1063566E-01
   7156.00  5.1162624E-01
   7156.33  5.1223749E-01
   7156.67  5.1252651E-01
   7157.00  5.1251242E-01
   7157.33  5.1218903E-01
   7157.67  5.1162298E-01
   7158.00  5.1084446E-01
   7158.33  5.0986877E-01
   7158.67  5.0875527E-01
   7159.00  5.0753559E-01
   7159.33  5.0623716E-01
   7159.67  5.0490340E-01
   7160.00  5.0356172E-01
   7160.33  5.0224497E-01
   7160.67  5.0097927E-01
   7161.00  4.9978854E-01
   7161.33  4.9871218E-01
   7161.67  4.9776255E-01
   7162.00  4.9695966E-01
   7162.33  4.9634617E-01
   7162.67  4.9591848E-01
   7163.00  4.9568493E-01
   7163.33  4.9567686E-01
   7163.67  4.9587524E-01
   7164.00  4.9628179E-01
   7164.33  4.9691868E-01
   7164.67  4.9774832E-01
   7165.00  4.9875295E-01
   7165.33  4.9992992E-01
   7165.67  5.0123750E-01
   7166.00  5.0265388E-01
   7166.33  5.0416129E-01
   7166.67  5.0572083E-01
   7167.00  5.0730819E-01
   7167.33  5.0889622E-01
   7167.67  5.1045854E-01
   7168.00  5.1197402E-01
   7168.33  5.1340843E-01
   7168.67  5.1474551E-01
   7169.00  5.1596963E-01
   7169.33  5.1705076E-01
   7169.67  5.1799163E-01
   7170.00  5.1878326E-01
   7170.33  5.1939925E-01
   7170.67  5.1985690E-01
   7171.00  5.2015942E-01
   7171.33  5.2030332E-01
   7171.67  5.2034125E-01
   7172.00  5.2032667E-01
