    FDMNES
    energy     <xanes>
   7097.00  5.1872189E-03
   7097.33  5.3130569E-03
   7097.67  5.4446781E-03
   7098.00  5.5824716E-03
   7098.33  5.7277712E-03
   7098.67  5.8802984E-03
   7099.00  6.0405795E-03
   7099.33  6.2103499E-03
   7099.67  6.3893184E-03
   7100.00  6.5782143E-03
   7100.33  6.7793493E-03
   7100.67  6.9924402E-03
   7101.00  7.2185257E-03
   7101.33  7.4607708E-03
   7101.67  7.7189472E-03
   7102.00  7.9945836E-03
   7102.33  8.2921574E-03
   7102.67  8.6115976E-03
   7103.00  8.9552438E-03
   7103.33  9.3296859E-03
   7103.67  9.7352393E-03
   7104.00  1.0175660E-02
   7104.33  1.0661136E-02
   7104.67  1.1192899E-02
   7105.00  1.1777358E-02
   7105.33  1.2431275E-02
   7105.67  1.3158134E-02
   7106.00  1.3969760E-02
   7106.33  1.4896143E-02
   7106.67  1.5946713E-02
   7107.00  1.7145832E-02
   7107.33  1.8553930E-02
   7107.67  2.0198491E-02
   7108.00  2.2138735E-02
   7108.33  2.4521341E-02
   7108.67  2.7443491E-02
   7109.00  3.1095289E-02
   7109.33  3.5971537E-02
   7109.67  4.2576846E-02
   7110.00  5.1904224E-02
   7110.33  6.6719081E-02
   7110.67  8.9237105E-02
   7111.00  1.1761791E-01
   7111.33  1.4378839E-01
   7111.67  1.7171271E-01
   7112.00  2.0505156E-01
   7112.33  2.5162037E-01
   7112.67  3.2173509E-01
   7113.00  4.2157700E-01
   7113.33  5.5713309E-01
   7113.67  6.9469741E-01
   7114.00  7.5559106E-01
   7114.33  6.6948965E-01
   7114.67  5.3144868E-01
   7115.00  4.1007578E-01
   7115.33  3.2813828E-01
   7115.67  2.7342605E-01
   7116.00  2.3810764E-01
   7116.33  2.1788990E-01
   7116.67  2.0769745E-01
   7117.00  2.0496066E-01
   7117.33  2.0478176E-01
   7117.67  2.0031891E-01
   7118.00  1.8935466E-01
   7118.33  1.7443054E-01
   7118.67  1.6015574E-01
   7119.00  1.4838977E-01
   7119.33  1.3975713E-01
   7119.67  1.3320480E-01
   7120.00  1.2798277E-01
   7120.33  1.2361289E-01
   7120.67  1.2001209E-01
   7121.00  1.1753728E-01
   7121.33  1.1668234E-01
   7121.67  1.1720953E-01
   7122.00  1.1885083E-01
   7122.33  1.2133310E-01
   7122.67  1.2431543E-01
   7123.00  1.2771641E-01
   7123.33  1.3159185E-01
   7123.67  1.3594080E-01
   7124.00  1.4083353E-01
   7124.33  1.4650363E-01
   7124.67  1.5311404E-01
   7125.00  1.6095117E-01
   7125.33  1.7054827E-01
   7125.67  1.8194337E-01
   7126.00  1.9523777E-01
   7126.33  2.1074730E-01
   7126.67  2.2824786E-01
   7127.00  2.4766599E-01
   7127.33  2.6905164E-01
   7127.67  2.9209695E-01
   7128.00  3.1689310E-01
   7128.33  3.4391565E-01
   7128.67  3.7308071E-01
   7129.00  4.0443266E-01
   7129.33  4.3854613E-01
   7129.67  4.7603047E-01
   7130.00  5.1802666E-01
   7130.33  5.6627860E-01
   7130.67  6.2058927E-01
   7131.00  6.8134262E-01
   7131.33  7.4990681E-01
   7131.67  8.2486143E-01
   7132.00  9.0383328E-01
   7132.33  9.8141267E-01
   7132.67  1.0509116E+00
   7133.00  1.1066669E+00
   7133.33  1.1413853E+00
   7133.67  1.1546016E+00
   7134.00  1.1457140E+00
   7134.33  1.1139911E+00
   7134.67  1.0664274E+00
   7135.00  1.0080543E+00
   7135.33  9.4388923E-01
   7135.67  8.7893072E-01
   7136.00  8.1566816E-01
   7136.33  7.5627947E-01
   7136.67  7.0129473E-01
   7137.00  6.5120902E-01
   7137.33  6.0709202E-01
   7137.67  5.6859779E-01
   7138.00  5.3593002E-01
   7138.33  5.0992112E-01
   7138.67  4.8969678E-01
   7139.00  4.7495051E-01
   7139.33  4.6575218E-01
   7139.67  4.6080026E-01
   7140.00  4.5946762E-01
   7140.33  4.6142865E-01
   7140.67  4.6573137E-01
   7141.00  4.7197932E-01
   7141.33  4.8002434E-01
   7141.67  4.8940718E-01
   7142.00  4.9994121E-01
   7142.33  5.1153039E-01
   7142.67  5.2381948E-01
   7143.00  5.3657308E-01
   7143.33  5.4950475E-01
   7143.67  5.6227175E-01
   7144.00  5.7460339E-01
   7144.33  5.8612573E-01
   7144.67  5.9669348E-01
   7145.00  6.0614811E-01
   7145.33  6.1419715E-01
   7145.67  6.2090037E-01
   7146.00  6.2619825E-01
   7146.33  6.2986480E-01
   7146.67  6.3206449E-01
   7147.00  6.3280779E-01
   7147.33  6.3196291E-01
   7147.67  6.2978743E-01
   7148.00  6.2637902E-01
   7148.33  6.2174429E-01
   7148.67  6.1618747E-01
   7149.00  6.0986664E-01
   7149.33  6.0290235E-01
   7149.67  5.9555870E-01
   7150.00  5.8799699E-01
   7150.33  5.8039651E-01
   7150.67  5.7293497E-01
   7151.00  5.6574297E-01
   7151.33  5.5900593E-01
   7151.67  5.5279706E-01
   7152.00  5.4721470E-01
   7152.33  5.4244954E-01
   7152.67  5.3849963E-01
   7153.00  5.3543359E-01
   7153.33  5.3343709E-01
   7153.67  5.3243997E-01
   7154.00  5.3246636E-01
   7154.33  5.3364664E-01
   7154.67  5.3582015E-01
   7155.00  5.3892695E-01
   7155.33  5.4296020E-01
   7155.67  5.4766522E-01
   7156.00  5.5288322E-01
   7156.33  5.5844630E-01
   7156.67  5.6410295E-01
   7157.00  5.6967763E-01
   7157.33  5.7495456E-01
   7157.67  5.7981605E-01
   7158.00  5.8416067E-01
   7158.33  5.8782618E-01
   7158.67  5.9082986E-01
   7159.00  5.9313937E-01
   7159.33  5.9464286E-01
   7159.67  5.9541995E-01
   7160.00  5.9546947E-01
   7160.33  5.9470717E-01
   7160.67  5.9323657E-01
   7161.00  5.9107502E-01
   7161.33  5.8816176E-01
   7161.67  5.8460326E-01
   7162.00  5.8042931E-01
   7162.33  5.7561551E-01
   7162.67  5.7027938E-01
   7163.00  5.6446236E-01
   7163.33  5.5816511E-01
   7163.67  5.5149803E-01
   7164.00  5.4451141E-01
   7164.33  5.3723032E-01
   7164.67  5.2974393E-01
   7165.00  5.2209937E-01
   7165.33  5.1433617E-01
   7165.67  5.0651929E-01
   7166.00  4.9869233E-01
   7166.33  4.9090867E-01
   7166.67  4.8321018E-01
   7167.00  4.7563469E-01
   7167.33  4.6824208E-01
   7167.67  4.6104845E-01
   7168.00  4.5408320E-01
   7168.33  4.4740889E-01
   7168.67  4.4102120E-01
   7169.00  4.3494645E-01
   7169.33  4.2925567E-01
   7169.67  4.2392375E-01
   7170.00  4.1896117E-01
   7170.33  4.1442798E-01
   7170.67  4.1029095E-01
   7171.00  4.0656622E-01
   7171.33  4.0333778E-01
   7171.67  4.0060350E-01
   7172.00  3.9843026E-01
