    FDMNES
    energy     <xanes>
   7097.00  5.1444362E-03
   7097.33  5.2690283E-03
   7097.67  5.3993458E-03
   7098.00  5.5357739E-03
   7098.33  5.6796328E-03
   7098.67  5.8306466E-03
   7099.00  5.9893361E-03
   7099.33  6.1574191E-03
   7099.67  6.3346069E-03
   7100.00  6.5216209E-03
   7100.33  6.7207484E-03
   7100.67  6.9317084E-03
   7101.00  7.1555279E-03
   7101.33  7.3953374E-03
   7101.67  7.6509090E-03
   7102.00  7.9237532E-03
   7102.33  8.2182957E-03
   7102.67  8.5344622E-03
   7103.00  8.8745619E-03
   7103.33  9.2451022E-03
   7103.67  9.6463856E-03
   7104.00  1.0082113E-02
   7104.33  1.0562329E-02
   7104.67  1.1088230E-02
   7105.00  1.1666111E-02
   7105.33  1.2312460E-02
   7105.67  1.3030650E-02
   7106.00  1.3832254E-02
   7106.33  1.4746641E-02
   7106.67  1.5782890E-02
   7107.00  1.6964666E-02
   7107.33  1.8350676E-02
   7107.67  1.9967057E-02
   7108.00  2.1870511E-02
   7108.33  2.4201173E-02
   7108.67  2.7049142E-02
   7109.00  3.0590910E-02
   7109.33  3.5281650E-02
   7109.67  4.1566215E-02
   7110.00  5.0315868E-02
   7110.33  6.3981281E-02
   7110.67  8.5062012E-02
   7111.00  1.1431058E-01
   7111.33  1.4528417E-01
   7111.67  1.7700057E-01
   7112.00  2.0836401E-01
   7112.33  2.4201867E-01
   7112.67  3.0321698E-01
   7113.00  4.0830920E-01
   7113.33  5.6339611E-01
   7113.67  7.1176627E-01
   7114.00  7.7425474E-01
   7114.33  6.8907092E-01
   7114.67  5.3782432E-01
   7115.00  4.0194565E-01
   7115.33  3.1258849E-01
   7115.67  2.5443982E-01
   7116.00  2.1775664E-01
   7116.33  1.9761636E-01
   7116.67  1.8906268E-01
   7117.00  1.9021345E-01
   7117.33  1.9688377E-01
   7117.67  1.9976442E-01
   7118.00  1.9351222E-01
   7118.33  1.7954294E-01
   7118.67  1.6469009E-01
   7119.00  1.5194488E-01
   7119.33  1.4246882E-01
   7119.67  1.3538003E-01
   7120.00  1.2995806E-01
   7120.33  1.2561134E-01
   7120.67  1.2193523E-01
   7121.00  1.1913750E-01
   7121.33  1.1788499E-01
   7121.67  1.1821212E-01
   7122.00  1.1992670E-01
   7122.33  1.2273926E-01
   7122.67  1.2620660E-01
   7123.00  1.3020909E-01
   7123.33  1.3476126E-01
   7123.67  1.3973082E-01
   7124.00  1.4501964E-01
   7124.33  1.5064612E-01
   7124.67  1.5683203E-01
   7125.00  1.6401804E-01
   7125.33  1.7299280E-01
   7125.67  1.8402374E-01
   7126.00  1.9720046E-01
   7126.33  2.1232971E-01
   7126.67  2.2860556E-01
   7127.00  2.4585150E-01
   7127.33  2.6445381E-01
   7127.67  2.8462588E-01
   7128.00  3.0659636E-01
   7128.33  3.3082982E-01
   7128.67  3.5744035E-01
   7129.00  3.8700330E-01
   7129.33  4.2082213E-01
   7129.67  4.5885341E-01
   7130.00  5.0103781E-01
   7130.33  5.4784401E-01
   7130.67  5.9904057E-01
   7131.00  6.5525896E-01
   7131.33  7.1824156E-01
   7131.67  7.8710574E-01
   7132.00  8.5944163E-01
   7132.33  9.2933131E-01
   7132.67  9.9055652E-01
   7133.00  1.0392347E+00
   7133.33  1.0721229E+00
   7133.67  1.0911692E+00
   7134.00  1.0961173E+00
   7134.33  1.0837836E+00
   7134.67  1.0554807E+00
   7135.00  1.0128263E+00
   7135.33  9.5891443E-01
   7135.67  9.0002614E-01
   7136.00  8.3969499E-01
   7136.33  7.8091746E-01
   7136.67  7.2526481E-01
   7137.00  6.7369097E-01
   7137.33  6.2754188E-01
   7137.67  5.8670599E-01
   7138.00  5.5145066E-01
   7138.33  5.2261792E-01
   7138.67  4.9940676E-01
   7139.00  4.8156550E-01
   7139.33  4.6923262E-01
   7139.67  4.6119703E-01
   7140.00  4.5691262E-01
   7140.33  4.5616925E-01
   7140.67  4.5804950E-01
   7141.00  4.6217940E-01
   7141.33  4.6844250E-01
   7141.67  4.7631444E-01
   7142.00  4.8557710E-01
   7142.33  4.9612161E-01
   7142.67  5.0753515E-01
   7143.00  5.1956558E-01
   7143.33  5.3194092E-01
   7143.67  5.4431063E-01
   7144.00  5.5642116E-01
   7144.33  5.6794747E-01
   7144.67  5.7874279E-01
   7145.00  5.8866504E-01
   7145.33  5.9746313E-01
   7145.67  6.0516529E-01
   7146.00  6.1170238E-01
   7146.33  6.1684928E-01
   7146.67  6.2070007E-01
   7147.00  6.2321586E-01
   7147.33  6.2420857E-01
   7147.67  6.2386830E-01
   7148.00  6.2224512E-01
   7148.33  6.1927830E-01
   7148.67  6.1523860E-01
   7149.00  6.1025557E-01
   7149.33  6.0440709E-01
   7149.67  5.9798531E-01
   7150.00  5.9117530E-01
   7150.33  5.8416939E-01
   7150.67  5.7718639E-01
   7151.00  5.7038519E-01
   7151.33  5.6398341E-01
   7151.67  5.5808626E-01
   7152.00  5.5280158E-01
   7152.33  5.4832305E-01
   7152.67  5.4464320E-01
   7153.00  5.4181622E-01
   7153.33  5.3999962E-01
   7153.67  5.3910781E-01
   7154.00  5.3914799E-01
   7154.33  5.4022303E-01
   7154.67  5.4218046E-01
   7155.00  5.4496465E-01
   7155.33  5.4857209E-01
   7155.67  5.5278304E-01
   7156.00  5.5746030E-01
   7156.33  5.6245124E-01
   7156.67  5.6751955E-01
   7157.00  5.7249540E-01
   7157.33  5.7716489E-01
   7157.67  5.8141209E-01
   7158.00  5.8513685E-01
   7158.33  5.8818065E-01
   7158.67  5.9056903E-01
   7159.00  5.9227988E-01
   7159.33  5.9321852E-01
   7159.67  5.9347394E-01
   7160.00  5.9305498E-01
   7160.33  5.9189373E-01
   7160.67  5.9008874E-01
   7161.00  5.8765034E-01
   7161.33  5.8451149E-01
   7161.67  5.8077092E-01
   7162.00  5.7645170E-01
   7162.33  5.7151322E-01
   7162.67  5.6606019E-01
   7163.00  5.6013210E-01
   7163.33  5.5373074E-01
   7163.67  5.4697101E-01
   7164.00  5.3991176E-01
   7164.33  5.3259705E-01
   7164.67  5.2513024E-01
   7165.00  5.1757647E-01
   7165.33  5.1000549E-01
   7165.67  5.0248221E-01
   7166.00  4.9505379E-01
   7166.33  4.8778424E-01
   7166.67  4.8069255E-01
   7167.00  4.7380327E-01
   7167.33  4.6716453E-01
   7167.67  4.6075984E-01
   7168.00  4.5459403E-01
   7168.33  4.4870290E-01
   7168.67  4.4306466E-01
   7169.00  4.3768497E-01
   7169.33  4.3259869E-01
   7169.67  4.2777655E-01
   7170.00  4.2322496E-01
   7170.33  4.1899124E-01
   7170.67  4.1505920E-01
   7171.00  4.1145418E-01
   7171.33  4.0826940E-01
   7171.67  4.0553624E-01
   7172.00  4.0334812E-01
