    FDMNES
    energy     <xanes>
   7097.00  5.0123607E-03
   7097.33  5.1302383E-03
   7097.67  5.2534243E-03
   7098.00  5.3822730E-03
   7098.33  5.5180041E-03
   7098.67  5.6603589E-03
   7099.00  5.8098169E-03
   7099.33  5.9679646E-03
   7099.67  6.1345329E-03
   7100.00  6.3101877E-03
   7100.33  6.4970435E-03
   7100.67  6.6948417E-03
   7101.00  6.9045342E-03
   7101.33  7.1290228E-03
   7101.67  7.3681058E-03
   7102.00  7.6231934E-03
   7102.33  7.8984090E-03
   7102.67  8.1937127E-03
   7103.00  8.5112838E-03
   7103.33  8.8572392E-03
   7103.67  9.2319389E-03
   7104.00  9.6389336E-03
   7104.33  1.0087804E-02
   7104.67  1.0579878E-02
   7105.00  1.1121349E-02
   7105.33  1.1728318E-02
   7105.67  1.2404564E-02
   7106.00  1.3161907E-02
   7106.33  1.4030147E-02
   7106.67  1.5019858E-02
   7107.00  1.6156671E-02
   7107.33  1.7504018E-02
   7107.67  1.9094601E-02
   7108.00  2.0995885E-02
   7108.33  2.3376167E-02
   7108.67  2.6362410E-02
   7109.00  3.0199139E-02
   7109.33  3.5538760E-02
   7109.67  4.3130775E-02
   7110.00  5.4462535E-02
   7110.33  7.3708287E-02
   7110.67  1.0353962E-01
   7111.00  1.3681144E-01
   7111.33  1.5363921E-01
   7111.67  1.6725551E-01
   7112.00  1.9265130E-01
   7112.33  2.4637219E-01
   7112.67  3.1752423E-01
   7113.00  3.6888451E-01
   7113.33  3.7971964E-01
   7113.67  3.8063984E-01
   7114.00  3.8983912E-01
   7114.33  4.1932572E-01
   7114.67  4.4099938E-01
   7115.00  4.1581648E-01
   7115.33  3.5392126E-01
   7115.67  2.9868625E-01
   7116.00  2.6349098E-01
   7116.33  2.5448009E-01
   7116.67  2.6464291E-01
   7117.00  2.8167005E-01
   7117.33  2.8555734E-01
   7117.67  2.7181876E-01
   7118.00  2.4757023E-01
   7118.33  2.2342305E-01
   7118.67  2.0408046E-01
   7119.00  1.9006387E-01
   7119.33  1.8119459E-01
   7119.67  1.7531838E-01
   7120.00  1.7070537E-01
   7120.33  1.6538701E-01
   7120.67  1.5819710E-01
   7121.00  1.4912842E-01
   7121.33  1.4002759E-01
   7121.67  1.3345085E-01
   7122.00  1.3045689E-01
   7122.33  1.3124491E-01
   7122.67  1.3444431E-01
   7123.00  1.3892126E-01
   7123.33  1.4341456E-01
   7123.67  1.4744227E-01
   7124.00  1.5133448E-01
   7124.33  1.5591807E-01
   7124.67  1.6180448E-01
   7125.00  1.6935289E-01
   7125.33  1.7880130E-01
   7125.67  1.8955735E-01
   7126.00  2.0128725E-01
   7126.33  2.1441497E-01
   7126.67  2.2991040E-01
   7127.00  2.4895871E-01
   7127.33  2.7306516E-01
   7127.67  3.0152837E-01
   7128.00  3.3271597E-01
   7128.33  3.6243443E-01
   7128.67  3.8680113E-01
   7129.00  4.0547577E-01
   7129.33  4.2142270E-01
   7129.67  4.3854520E-01
   7130.00  4.5884179E-01
   7130.33  4.8448478E-01
   7130.67  5.1600822E-01
   7131.00  5.5391851E-01
   7131.33  5.9907523E-01
   7131.67  6.5047526E-01
   7132.00  7.0797144E-01
   7132.33  7.7177469E-01
   7132.67  8.3935087E-01
   7133.00  9.0753016E-01
   7133.33  9.7131978E-01
   7133.67  1.0282437E+00
   7134.00  1.0777972E+00
   7134.33  1.1181569E+00
   7134.67  1.1449987E+00
   7135.00  1.1496610E+00
   7135.33  1.1203411E+00
   7135.67  1.0629843E+00
   7136.00  9.8718910E-01
   7136.33  9.0491058E-01
   7136.67  8.2554479E-01
   7137.00  7.5268713E-01
   7137.33  6.8865197E-01
   7137.67  6.3240028E-01
   7138.00  5.8358268E-01
   7138.33  5.4271815E-01
   7138.67  5.0868070E-01
   7139.00  4.8131287E-01
   7139.33  4.6118960E-01
   7139.67  4.4715067E-01
   7140.00  4.3874909E-01
   7140.33  4.3585242E-01
   7140.67  4.3684420E-01
   7141.00  4.4069565E-01
   7141.33  4.4635294E-01
   7141.67  4.5251153E-01
   7142.00  4.5850305E-01
   7142.33  4.6390200E-01
   7142.67  4.6882103E-01
   7143.00  4.7350907E-01
   7143.33  4.7834354E-01
   7143.67  4.8359793E-01
   7144.00  4.8939049E-01
   7144.33  4.9573751E-01
   7144.67  5.0234454E-01
   7145.00  5.0889103E-01
   7145.33  5.1485317E-01
   7145.67  5.1981417E-01
   7146.00  5.2339818E-01
   7146.33  5.2507195E-01
   7146.67  5.2493860E-01
   7147.00  5.2311568E-01
   7147.33  5.1978606E-01
   7147.67  5.1565506E-01
   7148.00  5.1128272E-01
   7148.33  5.0739662E-01
   7148.67  5.0454239E-01
   7149.00  5.0311812E-01
   7149.33  5.0363690E-01
   7149.67  5.0601284E-01
   7150.00  5.1024247E-01
   7150.33  5.1640521E-01
   7150.67  5.2405007E-01
   7151.00  5.3292758E-01
   7151.33  5.4282700E-01
   7151.67  5.5329499E-01
   7152.00  5.6404974E-01
   7152.33  5.7479318E-01
   7152.67  5.8527595E-01
   7153.00  5.9532588E-01
   7153.33  6.0472386E-01
   7153.67  6.1345674E-01
   7154.00  6.2149798E-01
   7154.33  6.2877582E-01
   7154.67  6.3541865E-01
   7155.00  6.4147395E-01
   7155.33  6.4692740E-01
   7155.67  6.5188326E-01
   7156.00  6.5635555E-01
   7156.33  6.6027708E-01
   7156.67  6.6368082E-01
   7157.00  6.6652800E-01
   7157.33  6.6868579E-01
   7157.67  6.7016941E-01
   7158.00  6.7092731E-01
   7158.33  6.7080908E-01
   7158.67  6.6987240E-01
   7159.00  6.6809759E-01
   7159.33  6.6537593E-01
   7159.67  6.6183145E-01
   7160.00  6.5749732E-01
   7160.33  6.5233812E-01
   7160.67  6.4652142E-01
   7161.00  6.4012605E-01
   7161.33  6.3318671E-01
   7161.67  6.2585853E-01
   7162.00  6.1822137E-01
   7162.33  6.1033643E-01
   7162.67  6.0231293E-01
   7163.00  5.9421423E-01
   7163.33  5.8610442E-01
   7163.67  5.7804084E-01
   7164.00  5.7006421E-01
   7164.33  5.6222688E-01
   7164.67  5.5453979E-01
   7165.00  5.4701824E-01
   7165.33  5.3969263E-01
   7165.67  5.3254062E-01
   7166.00  5.2555485E-01
   7166.33  5.1873878E-01
   7166.67  5.1205234E-01
   7167.00  5.0547363E-01
   7167.33  4.9898960E-01
   7167.67  4.9257114E-01
   7168.00  4.8620620E-01
   7168.33  4.7989215E-01
   7168.67  4.7362460E-01
   7169.00  4.6741334E-01
   7169.33  4.6128835E-01
   7169.67  4.5527099E-01
   7170.00  4.4939824E-01
   7170.33  4.4375076E-01
   7170.67  4.3836440E-01
   7171.00  4.3329856E-01
   7171.33  4.2870272E-01
   7171.67  4.2468463E-01
   7172.00  4.2143887E-01
