    FDMNES
    energy     <xanes>
   7097.00  5.5643710E-03
   7097.33  5.7154553E-03
   7097.67  5.8741196E-03
   7098.00  6.0409126E-03
   7098.33  6.2176482E-03
   7098.67  6.4040158E-03
   7099.00  6.6007731E-03
   7099.33  6.8103305E-03
   7099.67  7.0323826E-03
   7100.00  7.2680053E-03
   7100.33  7.5204889E-03
   7100.67  7.7895792E-03
   7101.00  8.0768538E-03
   7101.33  8.3869503E-03
   7101.67  8.7197677E-03
   7102.00  9.0777087E-03
   7102.33  9.4675677E-03
   7102.67  9.8896216E-03
   7103.00  1.0347705E-02
   7103.33  1.0852255E-02
   7103.67  1.1404442E-02
   7104.00  1.2010748E-02
   7104.33  1.2688190E-02
   7104.67  1.3440089E-02
   7105.00  1.4278229E-02
   7105.33  1.5232570E-02
   7105.67  1.6311922E-02
   7106.00  1.7539869E-02
   7106.33  1.8974887E-02
   7106.67  2.0641279E-02
   7107.00  2.2592903E-02
   7107.33  2.4961705E-02
   7107.67  2.7823378E-02
   7108.00  3.1326923E-02
   7108.33  3.5842364E-02
   7108.67  4.1664938E-02
   7109.00  4.9350854E-02
   7109.33  6.0374305E-02
   7109.67  7.6432649E-02
   7110.00  1.0086010E-01
   7110.33  1.4326872E-01
   7110.67  2.1366385E-01
   7111.00  3.1294590E-01
   7111.33  4.0862280E-01
   7111.67  4.7076380E-01
   7112.00  4.8007261E-01
   7112.33  4.3213551E-01
   7112.67  3.8498702E-01
   7113.00  3.8090591E-01
   7113.33  4.3331415E-01
   7113.67  4.9222393E-01
   7114.00  5.2491201E-01
   7114.33  5.1682194E-01
   7114.67  4.7931226E-01
   7115.00  4.3192135E-01
   7115.33  3.7788266E-01
   7115.67  3.2124425E-01
   7116.00  2.6992866E-01
   7116.33  2.3146544E-01
   7116.67  2.0349893E-01
   7117.00  1.8015921E-01
   7117.33  1.5812167E-01
   7117.67  1.4244893E-01
   7118.00  1.3634304E-01
   7118.33  1.4004314E-01
   7118.67  1.4913836E-01
   7119.00  1.5997363E-01
   7119.33  1.6899244E-01
   7119.67  1.7564372E-01
   7120.00  1.8115832E-01
   7120.33  1.8755831E-01
   7120.67  1.9576704E-01
   7121.00  2.0586013E-01
   7121.33  2.1780105E-01
   7121.67  2.3101353E-01
   7122.00  2.4535573E-01
   7122.33  2.6118826E-01
   7122.67  2.7812279E-01
   7123.00  2.9534319E-01
   7123.33  3.1202944E-01
   7123.67  3.2833629E-01
   7124.00  3.4457754E-01
   7124.33  3.6140487E-01
   7124.67  3.7981356E-01
   7125.00  4.0012865E-01
   7125.33  4.2159284E-01
   7125.67  4.4308549E-01
   7126.00  4.6440575E-01
   7126.33  4.8578913E-01
   7126.67  5.0764963E-01
   7127.00  5.3058230E-01
   7127.33  5.5591912E-01
   7127.67  5.8455571E-01
   7128.00  6.1700595E-01
   7128.33  6.5282549E-01
   7128.67  6.8868736E-01
   7129.00  7.2044043E-01
   7129.33  7.4138448E-01
   7129.67  7.4890829E-01
   7130.00  7.4287175E-01
   7130.33  7.2535989E-01
   7130.67  7.0219015E-01
   7131.00  6.7622472E-01
   7131.33  6.4887641E-01
   7131.67  6.2076455E-01
   7132.00  5.9225712E-01
   7132.33  5.6444257E-01
   7132.67  5.3877235E-01
   7133.00  5.1649825E-01
   7133.33  4.9913013E-01
   7133.67  4.8648493E-01
   7134.00  4.7843169E-01
   7134.33  4.7487966E-01
   7134.67  4.7441621E-01
   7135.00  4.7616818E-01
   7135.33  4.7934405E-01
   7135.67  4.8300139E-01
   7136.00  4.8662020E-01
   7136.33  4.8970761E-01
   7136.67  4.9207022E-01
   7137.00  4.9364316E-01
   7137.33  4.9444377E-01
   7137.67  4.9480021E-01
   7138.00  4.9493769E-01
   7138.33  4.9502638E-01
   7138.67  4.9517144E-01
   7139.00  4.9550687E-01
   7139.33  4.9641107E-01
   7139.67  4.9827283E-01
   7140.00  5.0148594E-01
   7140.33  5.0660528E-01
   7140.67  5.1364243E-01
   7141.00  5.2262773E-01
   7141.33  5.3351316E-01
   7141.67  5.4553941E-01
   7142.00  5.5809918E-01
   7142.33  5.7043526E-01
   7142.67  5.8190750E-01
   7143.00  5.9203993E-01
   7143.33  6.0019097E-01
   7143.67  6.0631595E-01
   7144.00  6.1032566E-01
   7144.33  6.1203827E-01
   7144.67  6.1197424E-01
   7145.00  6.1049402E-01
   7145.33  6.0800415E-01
   7145.67  6.0515074E-01
   7146.00  6.0231830E-01
   7146.33  5.9981287E-01
   7146.67  5.9762551E-01
   7147.00  5.9559308E-01
   7147.33  5.9333652E-01
   7147.67  5.9046623E-01
   7148.00  5.8671494E-01
   7148.33  5.8181836E-01
   7148.67  5.7596015E-01
   7149.00  5.6933306E-01
   7149.33  5.6222692E-01
   7149.67  5.5508617E-01
   7150.00  5.4822254E-01
   7150.33  5.4198998E-01
   7150.67  5.3650113E-01
   7151.00  5.3184296E-01
   7151.33  5.2817190E-01
   7151.67  5.2539236E-01
   7152.00  5.2350356E-01
   7152.33  5.2260433E-01
   7152.67  5.2256095E-01
   7153.00  5.2333993E-01
   7153.33  5.2497923E-01
   7153.67  5.2730396E-01
   7154.00  5.3022882E-01
   7154.33  5.3369676E-01
   7154.67  5.3751250E-01
   7155.00  5.4154570E-01
   7155.33  5.4564047E-01
   7155.67  5.4962722E-01
   7156.00  5.5337186E-01
   7156.33  5.5667950E-01
   7156.67  5.5946570E-01
   7157.00  5.6162994E-01
   7157.33  5.6297913E-01
   7157.67  5.6351644E-01
   7158.00  5.6318572E-01
   7158.33  5.6183778E-01
   7158.67  5.5958610E-01
   7159.00  5.5646235E-01
   7159.33  5.5243807E-01
   7159.67  5.4771506E-01
   7160.00  5.4239672E-01
   7160.33  5.3655024E-01
   7160.67  5.3034662E-01
   7161.00  5.2386070E-01
   7161.33  5.1711903E-01
   7161.67  5.1017135E-01
   7162.00  5.0301600E-01
   7162.33  4.9560803E-01
   7162.67  4.8795192E-01
   7163.00  4.8002985E-01
   7163.33  4.7179607E-01
   7163.67  4.6328766E-01
   7164.00  4.5451864E-01
   7164.33  4.4549195E-01
   7164.67  4.3628536E-01
   7165.00  4.2695349E-01
   7165.33  4.1756368E-01
   7165.67  4.0820470E-01
   7166.00  3.9895145E-01
   7166.33  3.8991378E-01
   7166.67  3.8114692E-01
   7167.00  3.7271019E-01
   7167.33  3.6470848E-01
   7167.67  3.5713664E-01
   7168.00  3.5002142E-01
   7168.33  3.4344138E-01
   7168.67  3.3734457E-01
   7169.00  3.3173000E-01
   7169.33  3.2664940E-01
   7169.67  3.2203159E-01
   7170.00  3.1786483E-01
   7170.33  3.1418894E-01
   7170.67  3.1093479E-01
   7171.00  3.0809169E-01
   7171.33  3.0570269E-01
   7171.67  3.0371988E-01
   7172.00  3.0215128E-01
