    FDMNES
    energy     <xanes>
   7097.00  5.3021360E-03
   7097.33  5.4347405E-03
   7097.67  5.5736417E-03
   7098.00  5.7192761E-03
   7098.33  5.8731180E-03
   7098.67  6.0348820E-03
   7099.00  6.2051637E-03
   7099.33  6.3858970E-03
   7099.67  6.5767896E-03
   7100.00  6.7786741E-03
   7100.33  6.9941513E-03
   7100.67  7.2229493E-03
   7101.00  7.4662668E-03
   7101.33  7.7277037E-03
   7101.67  8.0070701E-03
   7102.00  8.3061520E-03
   7102.33  8.6301066E-03
   7102.67  8.9789610E-03
   7103.00  9.3554872E-03
   7103.33  9.7673886E-03
   7103.67  1.0215211E-02
   7104.00  1.0703478E-02
   7104.33  1.1244305E-02
   7104.67  1.1839463E-02
   7105.00  1.2496815E-02
   7105.33  1.3236708E-02
   7105.67  1.4063919E-02
   7106.00  1.4993276E-02
   7106.33  1.6062051E-02
   7106.67  1.7283006E-02
   7107.00  1.8687407E-02
   7107.33  2.0352303E-02
   7107.67  2.2314767E-02
   7108.00  2.4652332E-02
   7108.33  2.7556067E-02
   7108.67  3.1155496E-02
   7109.00  3.5699739E-02
   7109.33  4.1830570E-02
   7109.67  5.0188419E-02
   7110.00  6.2016437E-02
   7110.33  8.0812850E-02
   7110.67  1.1039083E-01
   7111.00  1.5365911E-01
   7111.33  2.0856323E-01
   7111.67  2.6374474E-01
   7112.00  3.0864771E-01
   7112.33  3.5440807E-01
   7112.67  4.2556312E-01
   7113.00  5.3547767E-01
   7113.33  6.6505430E-01
   7113.67  7.2150175E-01
   7114.00  6.5354299E-01
   7114.33  5.2034491E-01
   7114.67  4.0295012E-01
   7115.00  3.1776813E-01
   7115.33  2.6313798E-01
   7115.67  2.2722074E-01
   7116.00  2.0459022E-01
   7116.33  1.9217836E-01
   7116.67  1.8596976E-01
   7117.00  1.8365836E-01
   7117.33  1.8220588E-01
   7117.67  1.7894901E-01
   7118.00  1.7350979E-01
   7118.33  1.6705933E-01
   7118.67  1.6091826E-01
   7119.00  1.5512781E-01
   7119.33  1.4896897E-01
   7119.67  1.4247123E-01
   7120.00  1.3654405E-01
   7120.33  1.3241880E-01
   7120.67  1.2993908E-01
   7121.00  1.2858419E-01
   7121.33  1.2810353E-01
   7121.67  1.2857553E-01
   7122.00  1.3020512E-01
   7122.33  1.3332770E-01
   7122.67  1.3802896E-01
   7123.00  1.4458809E-01
   7123.33  1.5378167E-01
   7123.67  1.6619477E-01
   7124.00  1.8299324E-01
   7124.33  2.0661738E-01
   7124.67  2.3737506E-01
   7125.00  2.7366407E-01
   7125.33  3.0701506E-01
   7125.67  3.2612097E-01
   7126.00  3.2866828E-01
   7126.33  3.2360946E-01
   7126.67  3.2251715E-01
   7127.00  3.2926723E-01
   7127.33  3.4477578E-01
   7127.67  3.6618483E-01
   7128.00  3.9135855E-01
   7128.33  4.1764694E-01
   7128.67  4.4298993E-01
   7129.00  4.6717193E-01
   7129.33  4.9136884E-01
   7129.67  5.1731166E-01
   7130.00  5.4590930E-01
   7130.33  5.7697930E-01
   7130.67  6.0863817E-01
   7131.00  6.3959665E-01
   7131.33  6.6920175E-01
   7131.67  6.9824526E-01
   7132.00  7.2774224E-01
   7132.33  7.5864980E-01
   7132.67  7.9020712E-01
   7133.00  8.2042995E-01
   7133.33  8.4547980E-01
   7133.67  8.6321700E-01
   7134.00  8.7263561E-01
   7134.33  8.7305699E-01
   7134.67  8.6654084E-01
   7135.00  8.5359006E-01
   7135.33  8.3251129E-01
   7135.67  8.0283488E-01
   7136.00  7.6485777E-01
   7136.33  7.2105805E-01
   7136.67  6.7658113E-01
   7137.00  6.3470997E-01
   7137.33  5.9842507E-01
   7137.67  5.6813774E-01
   7138.00  5.4408446E-01
   7138.33  5.2692251E-01
   7138.67  5.1554884E-01
   7139.00  5.0953610E-01
   7139.33  5.0881396E-01
   7139.67  5.1198122E-01
   7140.00  5.1825518E-01
   7140.33  5.2695776E-01
   7140.67  5.3689131E-01
   7141.00  5.4730875E-01
   7141.33  5.5738607E-01
   7141.67  5.6649439E-01
   7142.00  5.7418461E-01
   7142.33  5.7988348E-01
   7142.67  5.8365486E-01
   7143.00  5.8551049E-01
   7143.33  5.8538670E-01
   7143.67  5.8377309E-01
   7144.00  5.8095985E-01
   7144.33  5.7721916E-01
   7144.67  5.7304279E-01
   7145.00  5.6875701E-01
   7145.33  5.6474272E-01
   7145.67  5.6126527E-01
   7146.00  5.5851585E-01
   7146.33  5.5673397E-01
   7146.67  5.5583726E-01
   7147.00  5.5576467E-01
   7147.33  5.5645057E-01
   7147.67  5.5760678E-01
   7148.00  5.5904406E-01
   7148.33  5.6056898E-01
   7148.67  5.6201553E-01
   7149.00  5.6329965E-01
   7149.33  5.6435350E-01
   7149.67  5.6520525E-01
   7150.00  5.6588104E-01
   7150.33  5.6641177E-01
   7150.67  5.6686887E-01
   7151.00  5.6730076E-01
   7151.33  5.6776457E-01
   7151.67  5.6830461E-01
   7152.00  5.6895681E-01
   7152.33  5.6977615E-01
   7152.67  5.7077263E-01
   7153.00  5.7196455E-01
   7153.33  5.7339343E-01
   7153.67  5.7504160E-01
   7154.00  5.7691118E-01
   7154.33  5.7902555E-01
   7154.67  5.8134605E-01
   7155.00  5.8385647E-01
   7155.33  5.8655106E-01
   7155.67  5.8937555E-01
   7156.00  5.9229559E-01
   7156.33  5.9527423E-01
   7156.67  5.9826148E-01
   7157.00  6.0122246E-01
   7157.33  6.0411148E-01
   7157.67  6.0689971E-01
   7158.00  6.0955678E-01
   7158.33  6.1202489E-01
   7158.67  6.1427653E-01
   7159.00  6.1625703E-01
   7159.33  6.1783993E-01
   7159.67  6.1896078E-01
   7160.00  6.1950240E-01
   7160.33  6.1921307E-01
   7160.67  6.1801722E-01
   7161.00  6.1577780E-01
   7161.33  6.1221894E-01
   7161.67  6.0741657E-01
   7162.00  6.0137279E-01
   7162.33  5.9401741E-01
   7162.67  5.8564120E-01
   7163.00  5.7641159E-01
   7163.33  5.6647420E-01
   7163.67  5.5614082E-01
   7164.00  5.4560242E-01
   7164.33  5.3505545E-01
   7164.67  5.2466339E-01
   7165.00  5.1453518E-01
   7165.33  5.0480878E-01
   7165.67  4.9550096E-01
   7166.00  4.8664260E-01
   7166.33  4.7830758E-01
   7166.67  4.7043818E-01
   7167.00  4.6302824E-01
   7167.33  4.5612094E-01
   7167.67  4.4964178E-01
   7168.00  4.4356796E-01
   7168.33  4.3791635E-01
   7168.67  4.3261330E-01
   7169.00  4.2763999E-01
   7169.33  4.2301693E-01
   7169.67  4.1869050E-01
   7170.00  4.1465175E-01
   7170.33  4.1093073E-01
   7170.67  4.0749425E-01
   7171.00  4.0435222E-01
   7171.33  4.0157278E-01
   7171.67  3.9917555E-01
   7172.00  3.9724078E-01
