    FDMNES
    energy     <xanes>
   7097.00  5.2214437E-03
   7097.33  5.3440232E-03
   7097.67  5.4721187E-03
   7098.00  5.6060983E-03
   7098.33  5.7472297E-03
   7098.67  5.8952441E-03
   7099.00  6.0506402E-03
   7099.33  6.2150670E-03
   7099.67  6.3882455E-03
   7100.00  6.5708681E-03
   7100.33  6.7651334E-03
   7100.67  6.9707733E-03
   7101.00  7.1887782E-03
   7101.33  7.4221658E-03
   7101.67  7.6707273E-03
   7102.00  7.9359296E-03
   7102.33  8.2220608E-03
   7102.67  8.5290797E-03
   7103.00  8.8592514E-03
   7103.33  9.2189340E-03
   7103.67  9.6084970E-03
   7104.00  1.0031624E-02
   7104.33  1.0498255E-02
   7104.67  1.1009747E-02
   7105.00  1.1572494E-02
   7105.33  1.2203133E-02
   7105.67  1.2905477E-02
   7106.00  1.3691618E-02
   7106.33  1.4592055E-02
   7106.67  1.5617250E-02
   7107.00  1.6792935E-02
   7107.33  1.8182692E-02
   7107.67  1.9817749E-02
   7108.00  2.1763252E-02
   7108.33  2.4180488E-02
   7108.67  2.7182914E-02
   7109.00  3.0988828E-02
   7109.33  3.6167375E-02
   7109.67  4.3316353E-02
   7110.00  5.3604708E-02
   7110.33  7.0316957E-02
   7110.67  9.6486249E-02
   7111.00  1.3173163E-01
   7111.33  1.6975350E-01
   7111.67  2.1255341E-01
   7112.00  2.5883792E-01
   7112.33  3.0685091E-01
   7112.67  3.4911873E-01
   7113.00  3.6530882E-01
   7113.33  3.6393920E-01
   7113.67  3.7936004E-01
   7114.00  4.1517437E-01
   7114.33  4.3952984E-01
   7114.67  4.2995336E-01
   7115.00  3.9545662E-01
   7115.33  3.5245743E-01
   7115.67  3.1324980E-01
   7116.00  2.8380317E-01
   7116.33  2.6709284E-01
   7116.67  2.5761856E-01
   7117.00  2.4854054E-01
   7117.33  2.3141854E-01
   7117.67  2.0730756E-01
   7118.00  1.8208518E-01
   7118.33  1.6183636E-01
   7118.67  1.4738221E-01
   7119.00  1.3793758E-01
   7119.33  1.3229547E-01
   7119.67  1.2849464E-01
   7120.00  1.2598129E-01
   7120.33  1.2551608E-01
   7120.67  1.2772706E-01
   7121.00  1.3254748E-01
   7121.33  1.3866444E-01
   7121.67  1.4476248E-01
   7122.00  1.5103100E-01
   7122.33  1.5814605E-01
   7122.67  1.6641061E-01
   7123.00  1.7624798E-01
   7123.33  1.8860634E-01
   7123.67  2.0350430E-01
   7124.00  2.2032238E-01
   7124.33  2.3717804E-01
   7124.67  2.5200738E-01
   7125.00  2.6414355E-01
   7125.33  2.7431909E-01
   7125.67  2.8506528E-01
   7126.00  2.9881880E-01
   7126.33  3.1854487E-01
   7126.67  3.4437463E-01
   7127.00  3.7548074E-01
   7127.33  4.0975726E-01
   7127.67  4.4355944E-01
   7128.00  4.7429370E-01
   7128.33  4.9988697E-01
   7128.67  5.2145385E-01
   7129.00  5.4047843E-01
   7129.33  5.5885384E-01
   7129.67  5.7821321E-01
   7130.00  5.9950770E-01
   7130.33  6.2389260E-01
   7130.67  6.5158856E-01
   7131.00  6.8291858E-01
   7131.33  7.1847123E-01
   7131.67  7.5754199E-01
   7132.00  7.9957263E-01
   7132.33  8.4364835E-01
   7132.67  8.8785232E-01
   7133.00  9.3033853E-01
   7133.33  9.6806513E-01
   7133.67  9.9871631E-01
   7134.00  1.0196202E+00
   7134.33  1.0260786E+00
   7134.67  1.0174803E+00
   7135.00  9.9352834E-01
   7135.33  9.5465760E-01
   7135.67  9.0663583E-01
   7136.00  8.5350524E-01
   7136.33  7.9932779E-01
   7136.67  7.4732008E-01
   7137.00  6.9922991E-01
   7137.33  6.5684724E-01
   7137.67  6.2000518E-01
   7138.00  5.8873735E-01
   7138.33  5.6348023E-01
   7138.67  5.4316154E-01
   7139.00  5.2736346E-01
   7139.33  5.1606647E-01
   7139.67  5.0824887E-01
   7140.00  5.0347464E-01
   7140.33  5.0156696E-01
   7140.67  5.0172048E-01
   7141.00  5.0352214E-01
   7141.33  5.0664697E-01
   7141.67  5.1049526E-01
   7142.00  5.1470515E-01
   7142.33  5.1891590E-01
   7142.67  5.2285717E-01
   7143.00  5.2637810E-01
   7143.33  5.2933997E-01
   7143.67  5.3181034E-01
   7144.00  5.3382727E-01
   7144.33  5.3538558E-01
   7144.67  5.3654757E-01
   7145.00  5.3727680E-01
   7145.33  5.3741022E-01
   7145.67  5.3688188E-01
   7146.00  5.3558123E-01
   7146.33  5.3331639E-01
   7146.67  5.3018750E-01
   7147.00  5.2625905E-01
   7147.33  5.2159523E-01
   7147.67  5.1647386E-01
   7148.00  5.1108076E-01
   7148.33  5.0562476E-01
   7148.67  5.0031025E-01
   7149.00  4.9528124E-01
   7149.33  4.9072456E-01
   7149.67  4.8668939E-01
   7150.00  4.8324116E-01
   7150.33  4.8051644E-01
   7150.67  4.7847414E-01
   7151.00  4.7713710E-01
   7151.33  4.7661340E-01
   7151.67  4.7682166E-01
   7152.00  4.7775903E-01
   7152.33  4.7949548E-01
   7152.67  4.8190149E-01
   7153.00  4.8491895E-01
   7153.33  4.8851283E-01
   7153.67  4.9249048E-01
   7154.00  4.9672672E-01
   7154.33  5.0108846E-01
   7154.67  5.0543253E-01
   7155.00  5.0967524E-01
   7155.33  5.1373905E-01
   7155.67  5.1762966E-01
   7156.00  5.2136681E-01
   7156.33  5.2498989E-01
   7156.67  5.2858255E-01
   7157.00  5.3221147E-01
   7157.33  5.3596631E-01
   7157.67  5.3989874E-01
   7158.00  5.4405243E-01
   7158.33  5.4849172E-01
   7158.67  5.5319465E-01
   7159.00  5.5814971E-01
   7159.33  5.6334651E-01
   7159.67  5.6869479E-01
   7160.00  5.7411981E-01
   7160.33  5.7951012E-01
   7160.67  5.8474510E-01
   7161.00  5.8970785E-01
   7161.33  5.9420493E-01
   7161.67  5.9815006E-01
   7162.00  6.0143481E-01
   7162.33  6.0385570E-01
   7162.67  6.0542959E-01
   7163.00  6.0611486E-01
   7163.33  6.0578073E-01
   7163.67  6.0455576E-01
   7164.00  6.0247776E-01
   7164.33  5.9951359E-01
   7164.67  5.9584489E-01
   7165.00  5.9155244E-01
   7165.33  5.8666628E-01
   7165.67  5.8134349E-01
   7166.00  5.7565578E-01
   7166.33  5.6964074E-01
   7166.67  5.6339650E-01
   7167.00  5.5696669E-01
   7167.33  5.5037641E-01
   7167.67  5.4368171E-01
   7168.00  5.3691350E-01
   7168.33  5.3010124E-01
   7168.67  5.2328445E-01
   7169.00  5.1649576E-01
   7169.33  5.0979615E-01
   7169.67  5.0324321E-01
   7170.00  4.9688988E-01
   7170.33  4.9082205E-01
   7170.67  4.8506897E-01
   7171.00  4.7969614E-01
   7171.33  4.7486868E-01
   7171.67  4.7068767E-01
   7172.00  4.6734302E-01
