    FDMNES
    energy     <xanes>
   7097.00  4.1727144E-03
   7097.33  4.2557699E-03
   7097.67  4.3419602E-03
   7098.00  4.4314701E-03
   7098.33  4.5249801E-03
   7098.67  4.6223070E-03
   7099.00  4.7236976E-03
   7099.33  4.8300178E-03
   7099.67  4.9410758E-03
   7100.00  5.0572108E-03
   7100.33  5.1795557E-03
   7100.67  5.3079213E-03
   7101.00  5.4427915E-03
   7101.33  5.5856987E-03
   7101.67  5.7364846E-03
   7102.00  5.8958695E-03
   7102.33  6.0660166E-03
   7102.67  6.2468630E-03
   7103.00  6.4395398E-03
   7103.33  6.6472707E-03
   7103.67  6.8702419E-03
   7104.00  7.1103539E-03
   7104.33  7.3727576E-03
   7104.67  7.6582793E-03
   7105.00  7.9703992E-03
   7105.33  8.3181418E-03
   7105.67  8.7040588E-03
   7106.00  9.1352912E-03
   7106.33  9.6297436E-03
   7106.67  1.0195150E-02
   7107.00  1.0848622E-02
   7107.33  1.1632458E-02
   7107.67  1.2572953E-02
   7108.00  1.3721385E-02
   7108.33  1.5207083E-02
   7108.67  1.7144360E-02
   7109.00  1.9749675E-02
   7109.33  2.3615361E-02
   7109.67  2.9499152E-02
   7110.00  3.8914769E-02
   7110.33  5.6176901E-02
   7110.67  8.3979813E-02
   7111.00  1.1331981E-01
   7111.33  1.1753845E-01
   7111.67  1.0908608E-01
   7112.00  1.0114163E-01
   7112.33  9.6073802E-02
   7112.67  8.8904239E-02
   7113.00  7.9998643E-02
   7113.33  7.2995715E-02
   7113.67  6.8938071E-02
   7114.00  6.7299318E-02
   7114.33  6.7697607E-02
   7114.67  6.9395289E-02
   7115.00  7.1628817E-02
   7115.33  7.5449993E-02
   7115.67  8.1871947E-02
   7116.00  9.0779648E-02
   7116.33  1.0186581E-01
   7116.67  1.1409178E-01
   7117.00  1.2632220E-01
   7117.33  1.3630317E-01
   7117.67  1.4224271E-01
   7118.00  1.4360297E-01
   7118.33  1.4182466E-01
   7118.67  1.4043372E-01
   7119.00  1.4150558E-01
   7119.33  1.4609492E-01
   7119.67  1.5319673E-01
   7120.00  1.6217055E-01
   7120.33  1.7288287E-01
   7120.67  1.8507880E-01
   7121.00  1.9860445E-01
   7121.33  2.1318032E-01
   7121.67  2.2829040E-01
   7122.00  2.4381101E-01
   7122.33  2.6007882E-01
   7122.67  2.7775312E-01
   7123.00  2.9789067E-01
   7123.33  3.2262943E-01
   7123.67  3.5310502E-01
   7124.00  3.8965415E-01
   7124.33  4.2859879E-01
   7124.67  4.5922752E-01
   7125.00  4.7250964E-01
   7125.33  4.6771071E-01
   7125.67  4.5811041E-01
   7126.00  4.5145450E-01
   7126.33  4.5174086E-01
   7126.67  4.5795724E-01
   7127.00  4.6900673E-01
   7127.33  4.8424196E-01
   7127.67  5.0278569E-01
   7128.00  5.2498236E-01
   7128.33  5.5174394E-01
   7128.67  5.8073488E-01
   7129.00  6.0886917E-01
   7129.33  6.3273602E-01
   7129.67  6.5148708E-01
   7130.00  6.6522189E-01
   7130.33  6.7480020E-01
   7130.67  6.8256693E-01
   7131.00  6.8971929E-01
   7131.33  6.9650050E-01
   7131.67  7.0245195E-01
   7132.00  7.0726999E-01
   7132.33  7.1097738E-01
   7132.67  7.1395801E-01
   7133.00  7.1621725E-01
   7133.33  7.1745328E-01
   7133.67  7.1760702E-01
   7134.00  7.1665450E-01
   7134.33  7.1473293E-01
   7134.67  7.1268372E-01
   7135.00  7.1151164E-01
   7135.33  7.1247989E-01
   7135.67  7.1535239E-01
   7136.00  7.1902988E-01
   7136.33  7.2134914E-01
   7136.67  7.2066336E-01
   7137.00  7.1616069E-01
   7137.33  7.0734167E-01
   7137.67  6.9533792E-01
   7138.00  6.8093526E-01
   7138.33  6.6486236E-01
   7138.67  6.4808504E-01
   7139.00  6.3113398E-01
   7139.33  6.1451510E-01
   7139.67  5.9853209E-01
   7140.00  5.8340166E-01
   7140.33  5.6945539E-01
   7140.67  5.5674848E-01
   7141.00  5.4540656E-01
   7141.33  5.3570785E-01
   7141.67  5.2755667E-01
   7142.00  5.2102631E-01
   7142.33  5.1639812E-01
   7142.67  5.1349432E-01
   7143.00  5.1229497E-01
   7143.33  5.1289265E-01
   7143.67  5.1486736E-01
   7144.00  5.1793292E-01
   7144.33  5.2174490E-01
   7144.67  5.2574848E-01
   7145.00  5.2956798E-01
   7145.33  5.3281529E-01
   7145.67  5.3540128E-01
   7146.00  5.3733342E-01
   7146.33  5.3867248E-01
   7146.67  5.3966801E-01
   7147.00  5.4046877E-01
   7147.33  5.4118844E-01
   7147.67  5.4190405E-01
   7148.00  5.4264307E-01
   7148.33  5.4340969E-01
   7148.67  5.4418259E-01
   7149.00  5.4494639E-01
   7149.33  5.4569605E-01
   7149.67  5.4645113E-01
   7150.00  5.4724320E-01
   7150.33  5.4812690E-01
   7150.67  5.4911707E-01
   7151.00  5.5017029E-01
   7151.33  5.5115649E-01
   7151.67  5.5193981E-01
   7152.00  5.5236238E-01
   7152.33  5.5213226E-01
   7152.67  5.5110137E-01
   7153.00  5.4910979E-01
   7153.33  5.4589531E-01
   7153.67  5.4154407E-01
   7154.00  5.3607340E-01
   7154.33  5.2943046E-01
   7154.67  5.2186629E-01
   7155.00  5.1350385E-01
   7155.33  5.0441267E-01
   7155.67  4.9482365E-01
   7156.00  4.8486043E-01
   7156.33  4.7462389E-01
   7156.67  4.6425902E-01
   7157.00  4.5385162E-01
   7157.33  4.4349347E-01
   7157.67  4.3325030E-01
   7158.00  4.2317179E-01
   7158.33  4.1333241E-01
   7158.67  4.0374727E-01
   7159.00  3.9445081E-01
   7159.33  3.8552707E-01
   7159.67  3.7698513E-01
   7160.00  3.6887873E-01
   7160.33  3.6134779E-01
   7160.67  3.5441380E-01
   7161.00  3.4815050E-01
   7161.33  3.4272124E-01
   7161.67  3.3806699E-01
   7162.00  3.3417319E-01
   7162.33  3.3104800E-01
   7162.67  3.2847049E-01
   7163.00  3.2629889E-01
   7163.33  3.2440932E-01
   7163.67  3.2266229E-01
   7164.00  3.2102422E-01
   7164.33  3.1955159E-01
   7164.67  3.1833293E-01
   7165.00  3.1749340E-01
   7165.33  3.1725491E-01
   7165.67  3.1768925E-01
   7166.00  3.1888672E-01
   7166.33  3.2101062E-01
   7166.67  3.2396311E-01
   7167.00  3.2770239E-01
   7167.33  3.3221504E-01
   7167.67  3.3727229E-01
   7168.00  3.4273164E-01
   7168.33  3.4845811E-01
   7168.67  3.5428556E-01
   7169.00  3.6013632E-01
   7169.33  3.6597214E-01
   7169.67  3.7180669E-01
   7170.00  3.7767034E-01
   7170.33  3.8359889E-01
   7170.67  3.8957312E-01
   7171.00  3.9552575E-01
   7171.33  4.0125569E-01
   7171.67  4.0646072E-01
   7172.00  4.1073600E-01
