    FDMNES
    energy     <xanes>
   7097.00  5.1950825E-03
   7097.33  5.3150165E-03
   7097.67  5.4402637E-03
   7098.00  5.5711727E-03
   7098.33  5.7089545E-03
   7098.67  5.8533416E-03
   7099.00  6.0048037E-03
   7099.33  6.1649080E-03
   7099.67  6.3333733E-03
   7100.00  6.5108475E-03
   7100.33  6.6994070E-03
   7100.67  6.8987744E-03
   7101.00  7.1098692E-03
   7101.33  7.3355194E-03
   7101.67  7.5754917E-03
   7102.00  7.8311346E-03
   7102.33  8.1064294E-03
   7102.67  8.4012761E-03
   7103.00  8.7177325E-03
   7103.33  9.0616327E-03
   7103.67  9.4332099E-03
   7104.00  9.8357617E-03
   7104.33  1.0278273E-02
   7104.67  1.0761777E-02
   7105.00  1.1291892E-02
   7105.33  1.1883362E-02
   7105.67  1.2539188E-02
   7106.00  1.3269731E-02
   7106.33  1.4101317E-02
   7106.67  1.5042135E-02
   7107.00  1.6113493E-02
   7107.33  1.7368260E-02
   7107.67  1.8830196E-02
   7108.00  2.0550634E-02
   7108.33  2.2656308E-02
   7108.67  2.5228868E-02
   7109.00  2.8427446E-02
   7109.33  3.2660088E-02
   7109.67  3.8318116E-02
   7110.00  4.6161940E-02
   7110.33  5.8337316E-02
   7110.67  7.7344792E-02
   7111.00  1.0543765E-01
   7111.33  1.3871536E-01
   7111.67  1.7479331E-01
   7112.00  2.2215166E-01
   7112.33  2.8512281E-01
   7112.67  3.3442297E-01
   7113.00  3.4032910E-01
   7113.33  3.4091101E-01
   7113.67  3.8187141E-01
   7114.00  4.5051424E-01
   7114.33  4.7609427E-01
   7114.67  4.5393934E-01
   7115.00  4.1664541E-01
   7115.33  3.6975540E-01
   7115.67  3.2410433E-01
   7116.00  2.8997156E-01
   7116.33  2.6860508E-01
   7116.67  2.5510200E-01
   7117.00  2.5145736E-01
   7117.33  2.5979629E-01
   7117.67  2.7059094E-01
   7118.00  2.6896723E-01
   7118.33  2.4758299E-01
   7118.67  2.2100737E-01
   7119.00  1.9757036E-01
   7119.33  1.8026951E-01
   7119.67  1.6759012E-01
   7120.00  1.5863964E-01
   7120.33  1.5283902E-01
   7120.67  1.4879735E-01
   7121.00  1.4576715E-01
   7121.33  1.4394650E-01
   7121.67  1.4372188E-01
   7122.00  1.4442401E-01
   7122.33  1.4442046E-01
   7122.67  1.4351598E-01
   7123.00  1.4259028E-01
   7123.33  1.4298091E-01
   7123.67  1.4535841E-01
   7124.00  1.5012289E-01
   7124.33  1.5786849E-01
   7124.67  1.6842378E-01
   7125.00  1.8189498E-01
   7125.33  1.9877917E-01
   7125.67  2.1883715E-01
   7126.00  2.4234571E-01
   7126.33  2.7036008E-01
   7126.67  3.0246148E-01
   7127.00  3.3757128E-01
   7127.33  3.7308123E-01
   7127.67  4.0576658E-01
   7128.00  4.3336081E-01
   7128.33  4.5358890E-01
   7128.67  4.6756977E-01
   7129.00  4.7715827E-01
   7129.33  4.8550003E-01
   7129.67  4.9593870E-01
   7130.00  5.1044842E-01
   7130.33  5.3111695E-01
   7130.67  5.5801698E-01
   7131.00  5.9132466E-01
   7131.33  6.3127839E-01
   7131.67  6.7558935E-01
   7132.00  7.2199621E-01
   7132.33  7.6702827E-01
   7132.67  8.0754439E-01
   7133.00  8.4126946E-01
   7133.33  8.6547268E-01
   7133.67  8.8090352E-01
   7134.00  8.8852407E-01
   7134.33  8.8935872E-01
   7134.67  8.8586515E-01
   7135.00  8.7945901E-01
   7135.33  8.7142433E-01
   7135.67  8.6275715E-01
   7136.00  8.5343490E-01
   7136.33  8.4249291E-01
   7136.67  8.2886592E-01
   7137.00  8.1155249E-01
   7137.33  7.8949050E-01
   7137.67  7.6369321E-01
   7138.00  7.3535698E-01
   7138.33  7.0631002E-01
   7138.67  6.7856362E-01
   7139.00  6.5346440E-01
   7139.33  6.3248978E-01
   7139.67  6.1561551E-01
   7140.00  6.0284273E-01
   7140.33  5.9437445E-01
   7140.67  5.8931042E-01
   7141.00  5.8725290E-01
   7141.33  5.8804334E-01
   7141.67  5.9091269E-01
   7142.00  5.9551256E-01
   7142.33  6.0162357E-01
   7142.67  6.0866532E-01
   7143.00  6.1623295E-01
   7143.33  6.2377390E-01
   7143.67  6.3066793E-01
   7144.00  6.3635410E-01
   7144.33  6.3998760E-01
   7144.67  6.4130487E-01
   7145.00  6.4004551E-01
   7145.33  6.3580458E-01
   7145.67  6.2908300E-01
   7146.00  6.2018510E-01
   7146.33  6.0936820E-01
   7146.67  5.9736456E-01
   7147.00  5.8460711E-01
   7147.33  5.7150890E-01
   7147.67  5.5848693E-01
   7148.00  5.4580683E-01
   7148.33  5.3378266E-01
   7148.67  5.2252076E-01
   7149.00  5.1213927E-01
   7149.33  5.0288049E-01
   7149.67  4.9471762E-01
   7150.00  4.8770797E-01
   7150.33  4.8204768E-01
   7150.67  4.7761701E-01
   7151.00  4.7442709E-01
   7151.33  4.7262480E-01
   7151.67  4.7202584E-01
   7152.00  4.7258078E-01
   7152.33  4.7433586E-01
   7152.67  4.7704199E-01
   7153.00  4.8057922E-01
   7153.33  4.8488053E-01
   7153.67  4.8970164E-01
   7154.00  4.9490219E-01
   7154.33  5.0034444E-01
   7154.67  5.0583683E-01
   7155.00  5.1124225E-01
   7155.33  5.1638349E-01
   7155.67  5.2115839E-01
   7156.00  5.2546939E-01
   7156.33  5.2915548E-01
   7156.67  5.3222308E-01
   7157.00  5.3464451E-01
   7157.33  5.3634183E-01
   7157.67  5.3743697E-01
   7158.00  5.3799528E-01
   7158.33  5.3806810E-01
   7158.67  5.3783566E-01
   7159.00  5.3741333E-01
   7159.33  5.3692470E-01
   7159.67  5.3649327E-01
   7160.00  5.3620012E-01
   7160.33  5.3613974E-01
   7160.67  5.3632645E-01
   7161.00  5.3677394E-01
   7161.33  5.3751026E-01
   7161.67  5.3848245E-01
   7162.00  5.3966155E-01
   7162.33  5.4102318E-01
   7162.67  5.4249943E-01
   7163.00  5.4405007E-01
   7163.33  5.4563128E-01
   7163.67  5.4719235E-01
   7164.00  5.4869261E-01
   7164.33  5.5006798E-01
   7164.67  5.5127491E-01
   7165.00  5.5226416E-01
   7165.33  5.5294845E-01
   7165.67  5.5330945E-01
   7166.00  5.5330481E-01
   7166.33  5.5283953E-01
   7166.67  5.5192876E-01
   7167.00  5.5054977E-01
   7167.33  5.4862741E-01
   7167.67  5.4622042E-01
   7168.00  5.4333733E-01
   7168.33  5.3994310E-01
   7168.67  5.3612942E-01
   7169.00  5.3193568E-01
   7169.33  5.2737844E-01
   7169.67  5.2257436E-01
   7170.00  5.1760087E-01
   7170.33  5.1253965E-01
   7170.67  5.0750032E-01
   7171.00  5.0258444E-01
   7171.33  4.9798173E-01
   7171.67  4.9388750E-01
   7172.00  4.9056992E-01
