    FDMNES
    energy     <xanes>
   7097.00  4.8939585E-03
   7097.33  5.0082694E-03
   7097.67  5.1277035E-03
   7098.00  5.2526085E-03
   7098.33  5.3841723E-03
   7098.67  5.5221556E-03
   7099.00  5.6670349E-03
   7099.33  5.8203695E-03
   7099.67  5.9819192E-03
   7100.00  6.1523564E-03
   7100.33  6.3337868E-03
   7100.67  6.5259979E-03
   7101.00  6.7299716E-03
   7101.33  6.9486487E-03
   7101.67  7.1819087E-03
   7102.00  7.4312444E-03
   7102.33  7.7009353E-03
   7102.67  7.9910958E-03
   7103.00  8.3041098E-03
   7103.33  8.6465268E-03
   7103.67  9.0190269E-03
   7104.00  9.4256547E-03
   7104.33  9.8770862E-03
   7104.67  1.0375380E-02
   7105.00  1.0927938E-02
   7105.33  1.1553632E-02
   7105.67  1.2258066E-02
   7106.00  1.3056202E-02
   7106.33  1.3985158E-02
   7106.67  1.5060645E-02
   7107.00  1.6317226E-02
   7107.33  1.7839584E-02
   7107.67  1.9677156E-02
   7108.00  2.1926704E-02
   7108.33  2.4828557E-02
   7108.67  2.8576713E-02
   7109.00  3.3535540E-02
   7109.33  4.0670752E-02
   7109.67  5.1098334E-02
   7110.00  6.7007087E-02
   7110.33  9.4705108E-02
   7110.67  1.4079410E-01
   7111.00  2.0605325E-01
   7111.33  2.6953408E-01
   7111.67  3.1327864E-01
   7112.00  3.3245935E-01
   7112.33  3.2417144E-01
   7112.67  2.9425373E-01
   7113.00  2.5125336E-01
   7113.33  2.1508553E-01
   7113.67  1.9179245E-01
   7114.00  1.7422120E-01
   7114.33  1.5304880E-01
   7114.67  1.3149685E-01
   7115.00  1.1434262E-01
   7115.33  1.0335170E-01
   7115.67  9.6439650E-02
   7116.00  9.2381319E-02
   7116.33  9.0711879E-02
   7116.67  9.0892671E-02
   7117.00  9.2734580E-02
   7117.33  9.6119280E-02
   7117.67  1.0055990E-01
   7118.00  1.0593420E-01
   7118.33  1.1262501E-01
   7118.67  1.2088353E-01
   7119.00  1.3075072E-01
   7119.33  1.4196944E-01
   7119.67  1.5420550E-01
   7120.00  1.6804954E-01
   7120.33  1.8523883E-01
   7120.67  2.0658840E-01
   7121.00  2.3224087E-01
   7121.33  2.6123801E-01
   7121.67  2.9070608E-01
   7122.00  3.1894432E-01
   7122.33  3.4614672E-01
   7122.67  3.7479197E-01
   7123.00  4.0695713E-01
   7123.33  4.4415521E-01
   7123.67  4.8471923E-01
   7124.00  5.2635875E-01
   7124.33  5.6569360E-01
   7124.67  6.0042927E-01
   7125.00  6.2921059E-01
   7125.33  6.5045083E-01
   7125.67  6.6489023E-01
   7126.00  6.7299375E-01
   7126.33  6.7529830E-01
   7126.67  6.7395923E-01
   7127.00  6.7026007E-01
   7127.33  6.6538976E-01
   7127.67  6.6050373E-01
   7128.00  6.5616101E-01
   7128.33  6.5265212E-01
   7128.67  6.4957760E-01
   7129.00  6.4634487E-01
   7129.33  6.4212293E-01
   7129.67  6.3696144E-01
   7130.00  6.3174012E-01
   7130.33  6.2820564E-01
   7130.67  6.2702196E-01
   7131.00  6.2794595E-01
   7131.33  6.3027701E-01
   7131.67  6.3297918E-01
   7132.00  6.3541720E-01
   7132.33  6.3680709E-01
   7132.67  6.3661281E-01
   7133.00  6.3432819E-01
   7133.33  6.2933134E-01
   7133.67  6.2214412E-01
   7134.00  6.1343617E-01
   7134.33  6.0424809E-01
   7134.67  5.9567989E-01
   7135.00  5.8838080E-01
   7135.33  5.8296480E-01
   7135.67  5.7931419E-01
   7136.00  5.7733964E-01
   7136.33  5.7699855E-01
   7136.67  5.7778927E-01
   7137.00  5.7936401E-01
   7137.33  5.8129642E-01
   7137.67  5.8311887E-01
   7138.00  5.8456729E-01
   7138.33  5.8542388E-01
   7138.67  5.8576360E-01
   7139.00  5.8568790E-01
   7139.33  5.8533411E-01
   7139.67  5.8489731E-01
   7140.00  5.8448000E-01
   7140.33  5.8414281E-01
   7140.67  5.8385046E-01
   7141.00  5.8352497E-01
   7141.33  5.8300999E-01
   7141.67  5.8217484E-01
   7142.00  5.8090806E-01
   7142.33  5.7907221E-01
   7142.67  5.7672645E-01
   7143.00  5.7391797E-01
   7143.33  5.7069700E-01
   7143.67  5.6722452E-01
   7144.00  5.6359596E-01
   7144.33  5.5989462E-01
   7144.67  5.5618837E-01
   7145.00  5.5250011E-01
   7145.33  5.4882850E-01
   7145.67  5.4514422E-01
   7146.00  5.4141240E-01
   7146.33  5.3757777E-01
   7146.67  5.3361404E-01
   7147.00  5.2949884E-01
   7147.33  5.2519856E-01
   7147.67  5.2073335E-01
   7148.00  5.1611058E-01
   7148.33  5.1132640E-01
   7148.67  5.0641681E-01
   7149.00  5.0140064E-01
   7149.33  4.9629436E-01
   7149.67  4.9114090E-01
   7150.00  4.8597437E-01
   7150.33  4.8084266E-01
   7150.67  4.7578775E-01
   7151.00  4.7085018E-01
   7151.33  4.6609653E-01
   7151.67  4.6154142E-01
   7152.00  4.5720147E-01
   7152.33  4.5310579E-01
   7152.67  4.4920830E-01
   7153.00  4.4547552E-01
   7153.33  4.4186361E-01
   7153.67  4.3828741E-01
   7154.00  4.3467856E-01
   7154.33  4.3094296E-01
   7154.67  4.2702301E-01
   7155.00  4.2286839E-01
   7155.33  4.1840345E-01
   7155.67  4.1364398E-01
   7156.00  4.0859263E-01
   7156.33  4.0323851E-01
   7156.67  3.9765727E-01
   7157.00  3.9190010E-01
   7157.33  3.8602316E-01
   7157.67  3.8011050E-01
   7158.00  3.7422290E-01
   7158.33  3.6844008E-01
   7158.67  3.6281581E-01
   7159.00  3.5740235E-01
   7159.33  3.5228479E-01
   7159.67  3.4747179E-01
   7160.00  3.4299334E-01
   7160.33  3.3892195E-01
   7160.67  3.3523148E-01
   7161.00  3.3193432E-01
   7161.33  3.2909199E-01
   7161.67  3.2666182E-01
   7162.00  3.2464924E-01
   7162.33  3.2311253E-01
   7162.67  3.2200254E-01
   7163.00  3.2132109E-01
   7163.33  3.2112302E-01
   7163.67  3.2135432E-01
   7164.00  3.2201220E-01
   7164.33  3.2314129E-01
   7164.67  3.2467912E-01
   7165.00  3.2661553E-01
   7165.33  3.2898353E-01
   7165.67  3.3171637E-01
   7166.00  3.3479495E-01
   7166.33  3.3823467E-01
   7166.67  3.4196846E-01
   7167.00  3.4597159E-01
   7167.33  3.5024396E-01
   7167.67  3.5472506E-01
   7168.00  3.5938892E-01
   7168.33  3.6422600E-01
   7168.67  3.6918908E-01
   7169.00  3.7425320E-01
   7169.33  3.7939648E-01
   7169.67  3.8457819E-01
   7170.00  3.8976896E-01
   7170.33  3.9492563E-01
   7170.67  4.0000033E-01
   7171.00  4.0492956E-01
   7171.33  4.0956082E-01
   7171.67  4.1371314E-01
   7172.00  4.1710868E-01
