    FDMNES
    energy     <xanes>
   7097.00  4.5324708E-03
   7097.33  4.6321380E-03
   7097.67  4.7362211E-03
   7098.00  4.8450207E-03
   7098.33  4.9595619E-03
   7098.67  5.0796393E-03
   7099.00  5.2056641E-03
   7099.33  5.3389815E-03
   7099.67  5.4793835E-03
   7100.00  5.6274491E-03
   7100.33  5.7849908E-03
   7100.67  5.9518213E-03
   7101.00  6.1287813E-03
   7101.33  6.3183930E-03
   7101.67  6.5205398E-03
   7102.00  6.7364895E-03
   7102.33  6.9698895E-03
   7102.67  7.2208044E-03
   7103.00  7.4912365E-03
   7103.33  7.7867125E-03
   7103.67  8.1077320E-03
   7104.00  8.4576396E-03
   7104.33  8.8453144E-03
   7104.67  9.2723018E-03
   7105.00  9.7445997E-03
   7105.33  1.0277585E-02
   7105.67  1.0875450E-02
   7106.00  1.1549999E-02
   7106.33  1.2330666E-02
   7106.67  1.3229023E-02
   7107.00  1.4271475E-02
   7107.33  1.5522888E-02
   7107.67  1.7018918E-02
   7108.00  1.8830872E-02
   7108.33  2.1135787E-02
   7108.67  2.4070842E-02
   7109.00  2.7896311E-02
   7109.33  3.3301797E-02
   7109.67  4.1073153E-02
   7110.00  5.2756800E-02
   7110.33  7.2728430E-02
   7110.67  1.0457773E-01
   7111.00  1.4455857E-01
   7111.33  1.7567005E-01
   7111.67  2.0219777E-01
   7112.00  2.3420204E-01
   7112.33  2.8700306E-01
   7112.67  3.5275070E-01
   7113.00  3.8913397E-01
   7113.33  3.4657027E-01
   7113.67  2.7341055E-01
   7114.00  2.1224507E-01
   7114.33  1.7879598E-01
   7114.67  1.6211778E-01
   7115.00  1.5072322E-01
   7115.33  1.4370243E-01
   7115.67  1.4407966E-01
   7116.00  1.4236855E-01
   7116.33  1.2812784E-01
   7116.67  1.1243165E-01
   7117.00  1.0189813E-01
   7117.33  9.7449038E-02
   7117.67  9.6691745E-02
   7118.00  9.8369293E-02
   7118.33  1.0174700E-01
   7118.67  1.0589948E-01
   7119.00  1.0989132E-01
   7119.33  1.1319768E-01
   7119.67  1.1688490E-01
   7120.00  1.2165778E-01
   7120.33  1.2620352E-01
   7120.67  1.2847881E-01
   7121.00  1.2900447E-01
   7121.33  1.3013612E-01
   7121.67  1.3307303E-01
   7122.00  1.3799888E-01
   7122.33  1.4523153E-01
   7122.67  1.5477479E-01
   7123.00  1.6687896E-01
   7123.33  1.8199982E-01
   7123.67  1.9962174E-01
   7124.00  2.1916410E-01
   7124.33  2.3936029E-01
   7124.67  2.5843044E-01
   7125.00  2.7518078E-01
   7125.33  2.8874226E-01
   7125.67  3.0017065E-01
   7126.00  3.1078920E-01
   7126.33  3.2232174E-01
   7126.67  3.3575745E-01
   7127.00  3.5128994E-01
   7127.33  3.6837982E-01
   7127.67  3.8550369E-01
   7128.00  4.0161657E-01
   7128.33  4.1586605E-01
   7128.67  4.2808803E-01
   7129.00  4.3803456E-01
   7129.33  4.4546791E-01
   7129.67  4.5111185E-01
   7130.00  4.5548327E-01
   7130.33  4.5906603E-01
   7130.67  4.6247640E-01
   7131.00  4.6618806E-01
   7131.33  4.7090180E-01
   7131.67  4.7706118E-01
   7132.00  4.8502014E-01
   7132.33  4.9517885E-01
   7132.67  5.0709037E-01
   7133.00  5.2027620E-01
   7133.33  5.3392579E-01
   7133.67  5.4693131E-01
   7134.00  5.5838946E-01
   7134.33  5.6710162E-01
   7134.67  5.7270648E-01
   7135.00  5.7496321E-01
   7135.33  5.7390546E-01
   7135.67  5.7096488E-01
   7136.00  5.6724042E-01
   7136.33  5.6385807E-01
   7136.67  5.6149018E-01
   7137.00  5.6045720E-01
   7137.33  5.6105890E-01
   7137.67  5.6302185E-01
   7138.00  5.6612456E-01
   7138.33  5.7006212E-01
   7138.67  5.7426696E-01
   7139.00  5.7836631E-01
   7139.33  5.8204681E-01
   7139.67  5.8534051E-01
   7140.00  5.8842219E-01
   7140.33  5.9164552E-01
   7140.67  5.9536766E-01
   7141.00  5.9986037E-01
   7141.33  6.0545407E-01
   7141.67  6.1210969E-01
   7142.00  6.1981788E-01
   7142.33  6.2862836E-01
   7142.67  6.3830009E-01
   7143.00  6.4869852E-01
   7143.33  6.5968805E-01
   7143.67  6.7094497E-01
   7144.00  6.8220178E-01
   7144.33  6.9306242E-01
   7144.67  7.0319969E-01
   7145.00  7.1230301E-01
   7145.33  7.1988088E-01
   7145.67  7.2584710E-01
   7146.00  7.3003733E-01
   7146.33  7.3209396E-01
   7146.67  7.3222890E-01
   7147.00  7.3050058E-01
   7147.33  7.2684454E-01
   7147.67  7.2168989E-01
   7148.00  7.1525162E-01
   7148.33  7.0766318E-01
   7148.67  6.9930458E-01
   7149.00  6.9037251E-01
   7149.33  6.8101429E-01
   7149.67  6.7143291E-01
   7150.00  6.6173614E-01
   7150.33  6.5201847E-01
   7150.67  6.4235573E-01
   7151.00  6.3280241E-01
   7151.33  6.2344607E-01
   7151.67  6.1434687E-01
   7152.00  6.0559916E-01
   7152.33  5.9739082E-01
   7152.67  5.8978812E-01
   7153.00  5.8289042E-01
   7153.33  5.7689030E-01
   7153.67  5.7174665E-01
   7154.00  5.6747572E-01
   7154.33  5.6415848E-01
   7154.67  5.6162407E-01
   7155.00  5.5979538E-01
   7155.33  5.5864552E-01
   7155.67  5.5799341E-01
   7156.00  5.5775092E-01
   7156.33  5.5786627E-01
   7156.67  5.5822682E-01
   7157.00  5.5878399E-01
   7157.33  5.5951449E-01
   7157.67  5.6036943E-01
   7158.00  5.6133182E-01
   7158.33  5.6240099E-01
   7158.67  5.6355776E-01
   7159.00  5.6479801E-01
   7159.33  5.6612732E-01
   7159.67  5.6753032E-01
   7160.00  5.6900097E-01
   7160.33  5.7053391E-01
   7160.67  5.7209670E-01
   7161.00  5.7366195E-01
   7161.33  5.7519067E-01
   7161.67  5.7663943E-01
   7162.00  5.7795024E-01
   7162.33  5.7900732E-01
   7162.67  5.7973983E-01
   7163.00  5.8005081E-01
   7163.33  5.7974654E-01
   7163.67  5.7877227E-01
   7164.00  5.7703910E-01
   7164.33  5.7437529E-01
   7164.67  5.7086533E-01
   7165.00  5.6653859E-01
   7165.33  5.6139161E-01
   7165.67  5.5565328E-01
   7166.00  5.4947034E-01
   7166.33  5.4299649E-01
   7166.67  5.3645127E-01
   7167.00  5.2999124E-01
   7167.33  5.2380491E-01
   7167.67  5.1797450E-01
   7168.00  5.1256642E-01
   7168.33  5.0768842E-01
   7168.67  5.0330419E-01
   7169.00  4.9941622E-01
   7169.33  4.9607378E-01
   7169.67  4.9319525E-01
   7170.00  4.9075829E-01
   7170.33  4.8878542E-01
   7170.67  4.8719352E-01
   7171.00  4.8595272E-01
   7171.33  4.8505943E-01
   7171.67  4.8441676E-01
   7172.00  4.8395537E-01
