    FDMNES
    energy     <xanes>
   7097.00  4.5885711E-03
   7097.33  4.6981973E-03
   7097.67  4.8131019E-03
   7098.00  4.9336771E-03
   7098.33  5.0612048E-03
   7098.67  5.1954867E-03
   7099.00  5.3370742E-03
   7099.33  5.4876945E-03
   7099.67  5.6471680E-03
   7100.00  5.8162947E-03
   7100.33  5.9974755E-03
   7100.67  6.1905956E-03
   7101.00  6.3968580E-03
   7101.33  6.6197261E-03
   7101.67  6.8592493E-03
   7102.00  7.1173165E-03
   7102.33  7.3991499E-03
   7102.67  7.7051853E-03
   7103.00  8.0385454E-03
   7103.33  8.4075400E-03
   7103.67  8.8135101E-03
   7104.00  9.2619542E-03
   7104.33  9.7670095E-03
   7104.67  1.0332215E-02
   7105.00  1.0968055E-02
   7105.33  1.1700717E-02
   7105.67  1.2539481E-02
   7106.00  1.3506510E-02
   7106.33  1.4656086E-02
   7106.67  1.6014288E-02
   7107.00  1.7635022E-02
   7107.33  1.9649716E-02
   7107.67  2.2142798E-02
   7108.00  2.5274625E-02
   7108.33  2.9445240E-02
   7108.67  3.5002945E-02
   7109.00  4.2597893E-02
   7109.33  5.3978882E-02
   7109.67  7.1291642E-02
   7110.00  9.8774299E-02
   7110.33  1.4869013E-01
   7110.67  2.3270917E-01
   7111.00  3.4512816E-01
   7111.33  4.3122100E-01
   7111.67  4.5204397E-01
   7112.00  3.9421708E-01
   7112.33  3.1099615E-01
   7112.67  2.5211028E-01
   7113.00  2.0732707E-01
   7113.33  1.6564523E-01
   7113.67  1.3025260E-01
   7114.00  1.0370327E-01
   7114.33  8.7248834E-02
   7114.67  7.7507816E-02
   7115.00  7.1479142E-02
   7115.33  6.5335510E-02
   7115.67  5.9433785E-02
   7116.00  5.5704572E-02
   7116.33  5.4390239E-02
   7116.67  5.2951607E-02
   7117.00  4.9883476E-02
   7117.33  4.6350792E-02
   7117.67  4.3873083E-02
   7118.00  4.2667649E-02
   7118.33  4.2701766E-02
   7118.67  4.3660034E-02
   7119.00  4.5445152E-02
   7119.33  4.8102662E-02
   7119.67  5.1580476E-02
   7120.00  5.6069371E-02
   7120.33  6.2247015E-02
   7120.67  7.0657192E-02
   7121.00  8.2058329E-02
   7121.33  9.7637538E-02
   7121.67  1.1528255E-01
   7122.00  1.2945299E-01
   7122.33  1.3453238E-01
   7122.67  1.3580852E-01
   7123.00  1.3654432E-01
   7123.33  1.3628000E-01
   7123.67  1.3595288E-01
   7124.00  1.3846969E-01
   7124.33  1.4716920E-01
   7124.67  1.6245613E-01
   7125.00  1.8473541E-01
   7125.33  2.1526556E-01
   7125.67  2.5302843E-01
   7126.00  2.9665218E-01
   7126.33  3.4089498E-01
   7126.67  3.7596987E-01
   7127.00  3.9579926E-01
   7127.33  4.0051180E-01
   7127.67  3.9658664E-01
   7128.00  3.8814240E-01
   7128.33  3.8235337E-01
   7128.67  3.8411871E-01
   7129.00  3.9479997E-01
   7129.33  4.1536302E-01
   7129.67  4.4382594E-01
   7130.00  4.7910365E-01
   7130.33  5.2079178E-01
   7130.67  5.6766920E-01
   7131.00  6.2000640E-01
   7131.33  6.7969786E-01
   7131.67  7.4662891E-01
   7132.00  8.1807617E-01
   7132.33  8.7974816E-01
   7132.67  9.1251492E-01
   7133.00  9.1212008E-01
   7133.33  8.9696420E-01
   7133.67  8.9129217E-01
   7134.00  9.0361783E-01
   7134.33  9.3920872E-01
   7134.67  9.9724753E-01
   7135.00  1.0790476E+00
   7135.33  1.1824592E+00
   7135.67  1.2822167E+00
   7136.00  1.3403742E+00
   7136.33  1.3111589E+00
   7136.67  1.2172914E+00
   7137.00  1.0972953E+00
   7137.33  9.8623425E-01
   7137.67  8.9473461E-01
   7138.00  8.2256208E-01
   7138.33  7.6803174E-01
   7138.67  7.2547186E-01
   7139.00  6.9242874E-01
   7139.33  6.6780137E-01
   7139.67  6.4927510E-01
   7140.00  6.3602041E-01
   7140.33  6.2791962E-01
   7140.67  6.2392715E-01
   7141.00  6.2376774E-01
   7141.33  6.2769358E-01
   7141.67  6.3514871E-01
   7142.00  6.4608615E-01
   7142.33  6.6081606E-01
   7142.67  6.7854229E-01
   7143.00  6.9850526E-01
   7143.33  7.1911907E-01
   7143.67  7.3781043E-01
   7144.00  7.5211664E-01
   7144.33  7.5880076E-01
   7144.67  7.5766376E-01
   7145.00  7.4911074E-01
   7145.33  7.3402342E-01
   7145.67  7.1523974E-01
   7146.00  6.9447510E-01
   7146.33  6.7325187E-01
   7146.67  6.5266724E-01
   7147.00  6.3324205E-01
   7147.33  6.1547448E-01
   7147.67  5.9932159E-01
   7148.00  5.8482243E-01
   7148.33  5.7215778E-01
   7148.67  5.6104444E-01
   7149.00  5.5138086E-01
   7149.33  5.4318047E-01
   7149.67  5.3609675E-01
   7150.00  5.2994704E-01
   7150.33  5.2456918E-01
   7150.67  5.1960009E-01
   7151.00  5.1478503E-01
   7151.33  5.0978683E-01
   7151.67  5.0429942E-01
   7152.00  4.9805129E-01
   7152.33  4.9062844E-01
   7152.67  4.8194115E-01
   7153.00  4.7187268E-01
   7153.33  4.6021442E-01
   7153.67  4.4723466E-01
   7154.00  4.3309998E-01
   7154.33  4.1796140E-01
   7154.67  4.0223951E-01
   7155.00  3.8622101E-01
   7155.33  3.7024907E-01
   7155.67  3.5466092E-01
   7156.00  3.3974467E-01
   7156.33  3.2588548E-01
   7156.67  3.1315714E-01
   7157.00  3.0167326E-01
   7157.33  2.9167185E-01
   7157.67  2.8300421E-01
   7158.00  2.7564884E-01
   7158.33  2.6970397E-01
   7158.67  2.6492689E-01
   7159.00  2.6123300E-01
   7159.33  2.5864262E-01
   7159.67  2.5693334E-01
   7160.00  2.5602501E-01
   7160.33  2.5592245E-01
   7160.67  2.5646244E-01
   7161.00  2.5759169E-01
   7161.33  2.5932819E-01
   7161.67  2.6156890E-01
   7162.00  2.6429410E-01
   7162.33  2.6755118E-01
   7162.67  2.7127538E-01
   7163.00  2.7545581E-01
   7163.33  2.8011609E-01
   7163.67  2.8514644E-01
   7164.00  2.9046512E-01
   7164.33  2.9595007E-01
   7164.67  3.0140251E-01
   7165.00  3.0665535E-01
   7165.33  3.1148618E-01
   7165.67  3.1582046E-01
   7166.00  3.1961360E-01
   7166.33  3.2281906E-01
   7166.67  3.2558088E-01
   7167.00  3.2799559E-01
   7167.33  3.3016026E-01
   7167.67  3.3222320E-01
   7168.00  3.3427602E-01
   7168.33  3.3641765E-01
   7168.67  3.3870698E-01
   7169.00  3.4118763E-01
   7169.33  3.4392258E-01
   7169.67  3.4690098E-01
   7170.00  3.5012296E-01
   7170.33  3.5359737E-01
   7170.67  3.5725057E-01
   7171.00  3.6101365E-01
   7171.33  3.6474633E-01
   7171.67  3.6821125E-01
   7172.00  3.7110180E-01
