    FDMNES
    energy     <xanes>
   7097.00  5.4001445E-03
   7097.33  5.5410013E-03
   7097.67  5.6887807E-03
   7098.00  5.8439794E-03
   7098.33  6.0082467E-03
   7098.67  6.1812933E-03
   7099.00  6.3638041E-03
   7099.33  6.5579667E-03
   7099.67  6.7634949E-03
   7100.00  6.9813596E-03
   7100.33  7.2145406E-03
   7100.67  7.4627955E-03
   7101.00  7.7275447E-03
   7101.33  8.0129776E-03
   7101.67  8.3189842E-03
   7102.00  8.6477219E-03
   7102.33  9.0053085E-03
   7102.67  9.3919617E-03
   7103.00  9.8111092E-03
   7103.33  1.0272107E-02
   7103.67  1.0775946E-02
   7104.00  1.1328381E-02
   7104.33  1.1944568E-02
   7104.67  1.2627337E-02
   7105.00  1.3387053E-02
   7105.33  1.4250143E-02
   7105.67  1.5224057E-02
   7106.00  1.6329250E-02
   7106.33  1.7616531E-02
   7106.67  1.9106147E-02
   7107.00  2.0843830E-02
   7107.33  2.2941616E-02
   7107.67  2.5461106E-02
   7108.00  2.8525022E-02
   7108.33  3.2437197E-02
   7108.67  3.7430531E-02
   7109.00  4.3945662E-02
   7109.33  5.3143202E-02
   7109.67  6.6321023E-02
   7110.00  8.6023109E-02
   7110.33  1.1947151E-01
   7110.67  1.7327274E-01
   7111.00  2.4430863E-01
   7111.33  3.0545923E-01
   7111.67  3.6314870E-01
   7112.00  4.4298223E-01
   7112.33  5.4270724E-01
   7112.67  6.1474751E-01
   7113.00  6.3402340E-01
   7113.33  5.8320654E-01
   7113.67  4.9015036E-01
   7114.00  3.9857079E-01
   7114.33  3.2474355E-01
   7114.67  2.5670389E-01
   7115.00  2.0016287E-01
   7115.33  1.6220087E-01
   7115.67  1.3788587E-01
   7116.00  1.2396712E-01
   7116.33  1.1910298E-01
   7116.67  1.2066801E-01
   7117.00  1.2600661E-01
   7117.33  1.3013542E-01
   7117.67  1.3088565E-01
   7118.00  1.2987576E-01
   7118.33  1.3013539E-01
   7118.67  1.3151286E-01
   7119.00  1.3197881E-01
   7119.33  1.3092337E-01
   7119.67  1.3044479E-01
   7120.00  1.3190049E-01
   7120.33  1.3591374E-01
   7120.67  1.4211574E-01
   7121.00  1.5158663E-01
   7121.33  1.6728746E-01
   7121.67  1.9014297E-01
   7122.00  2.2042153E-01
   7122.33  2.5713114E-01
   7122.67  2.9639432E-01
   7123.00  3.3620100E-01
   7123.33  3.7493056E-01
   7123.67  4.1060435E-01
   7124.00  4.4177087E-01
   7124.33  4.6897669E-01
   7124.67  4.9586454E-01
   7125.00  5.2450374E-01
   7125.33  5.5368843E-01
   7125.67  5.7790294E-01
   7126.00  5.9240415E-01
   7126.33  5.9517535E-01
   7126.67  5.9095862E-01
   7127.00  5.8254381E-01
   7127.33  5.7126169E-01
   7127.67  5.5866547E-01
   7128.00  5.4601977E-01
   7128.33  5.3518589E-01
   7128.67  5.2780628E-01
   7129.00  5.2530256E-01
   7129.33  5.2913480E-01
   7129.67  5.3740969E-01
   7130.00  5.4709297E-01
   7130.33  5.5321051E-01
   7130.67  5.5360460E-01
   7131.00  5.4930105E-01
   7131.33  5.4363310E-01
   7131.67  5.3958888E-01
   7132.00  5.3768682E-01
   7132.33  5.3686987E-01
   7132.67  5.3554015E-01
   7133.00  5.3320795E-01
   7133.33  5.3016713E-01
   7133.67  5.2724506E-01
   7134.00  5.2506022E-01
   7134.33  5.2442092E-01
   7134.67  5.2562096E-01
   7135.00  5.2881478E-01
   7135.33  5.3415846E-01
   7135.67  5.4118608E-01
   7136.00  5.4962778E-01
   7136.33  5.5917961E-01
   7136.67  5.6919585E-01
   7137.00  5.7922026E-01
   7137.33  5.8874062E-01
   7137.67  5.9749134E-01
   7138.00  6.0532484E-01
   7138.33  6.1209858E-01
   7138.67  6.1801479E-01
   7139.00  6.2317918E-01
   7139.33  6.2762638E-01
   7139.67  6.3151006E-01
   7140.00  6.3483637E-01
   7140.33  6.3743374E-01
   7140.67  6.3917856E-01
   7141.00  6.3983145E-01
   7141.33  6.3895199E-01
   7141.67  6.3656726E-01
   7142.00  6.3273962E-01
   7142.33  6.2766263E-01
   7142.67  6.2204825E-01
   7143.00  6.1649719E-01
   7143.33  6.1180232E-01
   7143.67  6.0844112E-01
   7144.00  6.0672260E-01
   7144.33  6.0699005E-01
   7144.67  6.0895218E-01
   7145.00  6.1244716E-01
   7145.33  6.1736197E-01
   7145.67  6.2320429E-01
   7146.00  6.2965504E-01
   7146.33  6.3636102E-01
   7146.67  6.4293655E-01
   7147.00  6.4912312E-01
   7147.33  6.5462748E-01
   7147.67  6.5941045E-01
   7148.00  6.6344973E-01
   7148.33  6.6669860E-01
   7148.67  6.6933036E-01
   7149.00  6.7142911E-01
   7149.33  6.7301080E-01
   7149.67  6.7416292E-01
   7150.00  6.7487181E-01
   7150.33  6.7500653E-01
   7150.67  6.7450770E-01
   7151.00  6.7322915E-01
   7151.33  6.7084214E-01
   7151.67  6.6725010E-01
   7152.00  6.6228311E-01
   7152.33  6.5561593E-01
   7152.67  6.4739955E-01
   7153.00  6.3769262E-01
   7153.33  6.2649672E-01
   7153.67  6.1422189E-01
   7154.00  6.0111128E-01
   7154.33  5.8739938E-01
   7154.67  5.7344044E-01
   7155.00  5.5943273E-01
   7155.33  5.4557144E-01
   7155.67  5.3197690E-01
   7156.00  5.1873859E-01
   7156.33  5.0598750E-01
   7156.67  4.9372327E-01
   7157.00  4.8197741E-01
   7157.33  4.7083888E-01
   7157.67  4.6024866E-01
   7158.00  4.5020529E-01
   7158.33  4.4076321E-01
   7158.67  4.3183303E-01
   7159.00  4.2338925E-01
   7159.33  4.1545567E-01
   7159.67  4.0794095E-01
   7160.00  4.0081272E-01
   7160.33  3.9407621E-01
   7160.67  3.8765117E-01
   7161.00  3.8150717E-01
   7161.33  3.7564189E-01
   7161.67  3.6999765E-01
   7162.00  3.6455975E-01
   7162.33  3.5934934E-01
   7162.67  3.5435237E-01
   7163.00  3.4958954E-01
   7163.33  3.4512564E-01
   7163.67  3.4096132E-01
   7164.00  3.3712340E-01
   7164.33  3.3368189E-01
   7164.67  3.3061275E-01
   7165.00  3.2792856E-01
   7165.33  3.2568727E-01
   7165.67  3.2384289E-01
   7166.00  3.2239486E-01
   7166.33  3.2138838E-01
   7166.67  3.2076733E-01
   7167.00  3.2052283E-01
   7167.33  3.2068696E-01
   7167.67  3.2119838E-01
   7168.00  3.2204133E-01
   7168.33  3.2323339E-01
   7168.67  3.2471159E-01
   7169.00  3.2645348E-01
   7169.33  3.2846116E-01
   7169.67  3.3067592E-01
   7170.00  3.3307051E-01
   7170.33  3.3562646E-01
   7170.67  3.3827978E-01
   7171.00  3.4097641E-01
   7171.33  3.4361309E-01
   7171.67  3.4603132E-01
   7172.00  3.4802062E-01
