    FDMNES
    energy     <xanes>
   7097.00  5.6662913E-03
   7097.33  5.8139963E-03
   7097.67  5.9689035E-03
   7098.00  6.1315238E-03
   7098.33  6.3035636E-03
   7098.67  6.4847137E-03
   7099.00  6.6756769E-03
   7099.33  6.8787091E-03
   7099.67  7.0935018E-03
   7100.00  7.3210482E-03
   7100.33  7.5644118E-03
   7100.67  7.8233250E-03
   7101.00  8.0992371E-03
   7101.33  8.3964414E-03
   7101.67  8.7148012E-03
   7102.00  9.0565124E-03
   7102.33  9.4278275E-03
   7102.67  9.8289384E-03
   7103.00  1.0263330E-02
   7103.33  1.0740546E-02
   7103.67  1.1261561E-02
   7104.00  1.1832232E-02
   7104.33  1.2468008E-02
   7104.67  1.3171758E-02
   7105.00  1.3954059E-02
   7105.33  1.4841913E-02
   7105.67  1.5843004E-02
   7106.00  1.6978358E-02
   7106.33  1.8300254E-02
   7106.67  1.9829931E-02
   7107.00  2.1615042E-02
   7107.33  2.3772460E-02
   7107.67  2.6368109E-02
   7108.00  2.9532502E-02
   7108.33  3.3589397E-02
   7108.67  3.8792899E-02
   7109.00  4.5621545E-02
   7109.33  5.5335893E-02
   7109.67  6.9355686E-02
   7110.00  9.0465474E-02
   7110.33  1.2692034E-01
   7110.67  1.9030752E-01
   7111.00  2.9485097E-01
   7111.33  4.0234093E-01
   7111.67  4.0265701E-01
   7112.00  3.4485236E-01
   7112.33  3.0675264E-01
   7112.67  3.0287471E-01
   7113.00  3.4485944E-01
   7113.33  4.4339476E-01
   7113.67  5.5161770E-01
   7114.00  6.2318132E-01
   7114.33  6.3375603E-01
   7114.67  5.7504681E-01
   7115.00  4.6422206E-01
   7115.33  3.5046071E-01
   7115.67  2.6522529E-01
   7116.00  2.0849479E-01
   7116.33  1.7399049E-01
   7116.67  1.5240767E-01
   7117.00  1.4037867E-01
   7117.33  1.3696311E-01
   7117.67  1.4066668E-01
   7118.00  1.5079680E-01
   7118.33  1.6285313E-01
   7118.67  1.6825702E-01
   7119.00  1.6594608E-01
   7119.33  1.6286864E-01
   7119.67  1.6432480E-01
   7120.00  1.7118028E-01
   7120.33  1.8195268E-01
   7120.67  1.9243990E-01
   7121.00  2.0050087E-01
   7121.33  2.0622633E-01
   7121.67  2.1237829E-01
   7122.00  2.2135486E-01
   7122.33  2.3539947E-01
   7122.67  2.5472852E-01
   7123.00  2.7959762E-01
   7123.33  3.1001237E-01
   7123.67  3.4352179E-01
   7124.00  3.7840603E-01
   7124.33  4.1247898E-01
   7124.67  4.4269549E-01
   7125.00  4.6769887E-01
   7125.33  4.8843375E-01
   7125.67  5.0702354E-01
   7126.00  5.2361185E-01
   7126.33  5.3712772E-01
   7126.67  5.4731042E-01
   7127.00  5.5419516E-01
   7127.33  5.5812076E-01
   7127.67  5.6053867E-01
   7128.00  5.6250876E-01
   7128.33  5.6539164E-01
   7128.67  5.7039418E-01
   7129.00  5.7850486E-01
   7129.33  5.9077965E-01
   7129.67  6.0655799E-01
   7130.00  6.2520339E-01
   7130.33  6.4571822E-01
   7130.67  6.6630968E-01
   7131.00  6.8544093E-01
   7131.33  7.0088316E-01
   7131.67  7.1150863E-01
   7132.00  7.1658470E-01
   7132.33  7.1568118E-01
   7132.67  7.1088566E-01
   7133.00  7.0400158E-01
   7133.33  6.9714486E-01
   7133.67  6.9189572E-01
   7134.00  6.8900617E-01
   7134.33  6.8904715E-01
   7134.67  6.9145014E-01
   7135.00  6.9576274E-01
   7135.33  7.0146976E-01
   7135.67  7.0771062E-01
   7136.00  7.1393131E-01
   7136.33  7.1954261E-01
   7136.67  7.2422688E-01
   7137.00  7.2770547E-01
   7137.33  7.2940892E-01
   7137.67  7.2905506E-01
   7138.00  7.2620346E-01
   7138.33  7.2013709E-01
   7138.67  7.1120169E-01
   7139.00  6.9968456E-01
   7139.33  6.8587960E-01
   7139.67  6.7071972E-01
   7140.00  6.5483479E-01
   7140.33  6.3893494E-01
   7140.67  6.2364819E-01
   7141.00  6.0940223E-01
   7141.33  5.9669871E-01
   7141.67  5.8552138E-01
   7142.00  5.7588499E-01
   7142.33  5.6784809E-01
   7142.67  5.6104791E-01
   7143.00  5.5533424E-01
   7143.33  5.5068219E-01
   7143.67  5.4686463E-01
   7144.00  5.4380828E-01
   7144.33  5.4152947E-01
   7144.67  5.3988085E-01
   7145.00  5.3881088E-01
   7145.33  5.3831774E-01
   7145.67  5.3826013E-01
   7146.00  5.3855858E-01
   7146.33  5.3913269E-01
   7146.67  5.3982236E-01
   7147.00  5.4050823E-01
   7147.33  5.4103548E-01
   7147.67  5.4128869E-01
   7148.00  5.4115998E-01
   7148.33  5.4047437E-01
   7148.67  5.3919485E-01
   7149.00  5.3724710E-01
   7149.33  5.3446412E-01
   7149.67  5.3088051E-01
   7150.00  5.2646227E-01
   7150.33  5.2108657E-01
   7150.67  5.1487235E-01
   7151.00  5.0785499E-01
   7151.33  5.0001261E-01
   7151.67  4.9153528E-01
   7152.00  4.8252497E-01
   7152.33  4.7306191E-01
   7152.67  4.6333242E-01
   7153.00  4.5345209E-01
   7153.33  4.4354480E-01
   7153.67  4.3372827E-01
   7154.00  4.2409044E-01
   7154.33  4.1475371E-01
   7154.67  4.0575916E-01
   7155.00  3.9715921E-01
   7155.33  3.8905618E-01
   7155.67  3.8142902E-01
   7156.00  3.7429824E-01
   7156.33  3.6774048E-01
   7156.67  3.6169257E-01
   7157.00  3.5614485E-01
   7157.33  3.5113563E-01
   7157.67  3.4657554E-01
   7158.00  3.4243516E-01
   7158.33  3.3872549E-01
   7158.67  3.3536250E-01
   7159.00  3.3231886E-01
   7159.33  3.2960628E-01
   7159.67  3.2717196E-01
   7160.00  3.2500955E-01
   7160.33  3.2315277E-01
   7160.67  3.2157157E-01
   7161.00  3.2027180E-01
   7161.33  3.1929905E-01
   7161.67  3.1862654E-01
   7162.00  3.1825993E-01
   7162.33  3.1823899E-01
   7162.67  3.1852283E-01
   7163.00  3.1910274E-01
   7163.33  3.1999893E-01
   7163.67  3.2116350E-01
   7164.00  3.2258495E-01
   7164.33  3.2427810E-01
   7164.67  3.2619621E-01
   7165.00  3.2832548E-01
   7165.33  3.3067576E-01
   7165.67  3.3320853E-01
   7166.00  3.3591202E-01
   7166.33  3.3879368E-01
   7166.67  3.4182343E-01
   7167.00  3.4499373E-01
   7167.33  3.4831347E-01
   7167.67  3.5175838E-01
   7168.00  3.5532125E-01
   7168.33  3.5900666E-01
   7168.67  3.6279076E-01
   7169.00  3.6666295E-01
   7169.33  3.7061712E-01
   7169.67  3.7462451E-01
   7170.00  3.7866336E-01
   7170.33  3.8270078E-01
   7170.67  3.8669167E-01
   7171.00  3.9058025E-01
   7171.33  3.9423908E-01
   7171.67  3.9751869E-01
   7172.00  4.0019779E-01
