    FDMNES
    energy     <xanes>
   7097.00  5.0778305E-03
   7097.33  5.2053143E-03
   7097.67  5.3389782E-03
   7098.00  5.4792684E-03
   7098.33  5.6276630E-03
   7098.67  5.7839089E-03
   7099.00  5.9486252E-03
   7099.33  6.1237797E-03
   7099.67  6.3091279E-03
   7100.00  6.5055528E-03
   7100.33  6.7157504E-03
   7100.67  6.9395252E-03
   7101.00  7.1781805E-03
   7101.33  7.4355347E-03
   7101.67  7.7115318E-03
   7102.00  8.0081725E-03
   7102.33  8.3310875E-03
   7102.67  8.6805594E-03
   7103.00  9.0598090E-03
   7103.33  9.4775582E-03
   7103.67  9.9348855E-03
   7104.00  1.0437289E-02
   7104.33  1.0999131E-02
   7104.67  1.1623402E-02
   7105.00  1.2320207E-02
   7105.33  1.3115125E-02
   7105.67  1.4016026E-02
   7106.00  1.5043366E-02
   7106.33  1.6247693E-02
   7106.67  1.7650691E-02
   7107.00  1.9299599E-02
   7107.33  2.1309908E-02
   7107.67  2.3749266E-02
   7108.00  2.6749705E-02
   7108.33  3.0638966E-02
   7108.67  3.5681913E-02
   7109.00  4.2376240E-02
   7109.33  5.2043107E-02
   7109.67  6.6217159E-02
   7110.00  8.7913401E-02
   7110.33  1.2577807E-01
   7110.67  1.8814169E-01
   7111.00  2.7255021E-01
   7111.33  3.4524933E-01
   7111.67  3.9381794E-01
   7112.00  4.3283339E-01
   7112.33  4.6887948E-01
   7112.67  4.7273429E-01
   7113.00  4.3223412E-01
   7113.33  3.7097129E-01
   7113.67  3.0741714E-01
   7114.00  2.4534313E-01
   7114.33  2.0222176E-01
   7114.67  1.8318307E-01
   7115.00  1.8511819E-01
   7115.33  1.8764950E-01
   7115.67  1.6538888E-01
   7116.00  1.3094234E-01
   7116.33  1.0490362E-01
   7116.67  8.8164051E-02
   7117.00  7.8219329E-02
   7117.33  7.3342624E-02
   7117.67  7.1801208E-02
   7118.00  7.3157598E-02
   7118.33  7.7557780E-02
   7118.67  8.4215694E-02
   7119.00  9.1774031E-02
   7119.33  9.7435809E-02
   7119.67  1.0034121E-01
   7120.00  1.0153260E-01
   7120.33  1.0260289E-01
   7120.67  1.0491841E-01
   7121.00  1.0955332E-01
   7121.33  1.1801242E-01
   7121.67  1.3074429E-01
   7122.00  1.4849046E-01
   7122.33  1.7310999E-01
   7122.67  2.0490726E-01
   7123.00  2.4357756E-01
   7123.33  2.8546532E-01
   7123.67  3.2377982E-01
   7124.00  3.5726629E-01
   7124.33  3.9232474E-01
   7124.67  4.3422010E-01
   7125.00  4.8114452E-01
   7125.33  5.2409434E-01
   7125.67  5.5425490E-01
   7126.00  5.6869413E-01
   7126.33  5.6995357E-01
   7126.67  5.6630941E-01
   7127.00  5.6153363E-01
   7127.33  5.5698101E-01
   7127.67  5.5278620E-01
   7128.00  5.4950201E-01
   7128.33  5.4829616E-01
   7128.67  5.4905702E-01
   7129.00  5.5124929E-01
   7129.33  5.5446607E-01
   7129.67  5.5823322E-01
   7130.00  5.6193407E-01
   7130.33  5.6435801E-01
   7130.67  5.6515967E-01
   7131.00  5.6501433E-01
   7131.33  5.6551725E-01
   7131.67  5.6772779E-01
   7132.00  5.7172616E-01
   7132.33  5.7639033E-01
   7132.67  5.7938931E-01
   7133.00  5.7920447E-01
   7133.33  5.7639703E-01
   7133.67  5.7487698E-01
   7134.00  5.7802524E-01
   7134.33  5.8900196E-01
   7134.67  6.0701584E-01
   7135.00  6.3057361E-01
   7135.33  6.5689633E-01
   7135.67  6.8217216E-01
   7136.00  7.0420659E-01
   7136.33  7.2133793E-01
   7136.67  7.3390388E-01
   7137.00  7.4200585E-01
   7137.33  7.4556336E-01
   7137.67  7.4585405E-01
   7138.00  7.4366634E-01
   7138.33  7.3969049E-01
   7138.67  7.3499539E-01
   7139.00  7.3034503E-01
   7139.33  7.2659068E-01
   7139.67  7.2392398E-01
   7140.00  7.2208636E-01
   7140.33  7.2035086E-01
   7140.67  7.1792597E-01
   7141.00  7.1445698E-01
   7141.33  7.0995999E-01
   7141.67  7.0512148E-01
   7142.00  7.0051750E-01
   7142.33  6.9666502E-01
   7142.67  6.9345911E-01
   7143.00  6.9051872E-01
   7143.33  6.8712215E-01
   7143.67  6.8273813E-01
   7144.00  6.7717030E-01
   7144.33  6.7046980E-01
   7144.67  6.6326073E-01
   7145.00  6.5605223E-01
   7145.33  6.4938025E-01
   7145.67  6.4342295E-01
   7146.00  6.3818772E-01
   7146.33  6.3358353E-01
   7146.67  6.2928079E-01
   7147.00  6.2503783E-01
   7147.33  6.2057593E-01
   7147.67  6.1572629E-01
   7148.00  6.1038111E-01
   7148.33  6.0439918E-01
   7148.67  5.9782448E-01
   7149.00  5.9066025E-01
   7149.33  5.8286128E-01
   7149.67  5.7454349E-01
   7150.00  5.6576232E-01
   7150.33  5.5655619E-01
   7150.67  5.4708216E-01
   7151.00  5.3745222E-01
   7151.33  5.2780910E-01
   7151.67  5.1830095E-01
   7152.00  5.0904290E-01
   7152.33  5.0018631E-01
   7152.67  4.9175461E-01
   7153.00  4.8377405E-01
   7153.33  4.7629972E-01
   7153.67  4.6924986E-01
   7154.00  4.6259178E-01
   7154.33  4.5632475E-01
   7154.67  4.5035789E-01
   7155.00  4.4464941E-01
   7155.33  4.3917642E-01
   7155.67  4.3386615E-01
   7156.00  4.2868240E-01
   7156.33  4.2360308E-01
   7156.67  4.1859696E-01
   7157.00  4.1365870E-01
   7157.33  4.0879966E-01
   7157.67  4.0401787E-01
   7158.00  3.9932029E-01
   7158.33  3.9472639E-01
   7158.67  3.9023284E-01
   7159.00  3.8584640E-01
   7159.33  3.8158702E-01
   7159.67  3.7744978E-01
   7160.00  3.7344592E-01
   7160.33  3.6960565E-01
   7160.67  3.6591975E-01
   7161.00  3.6239244E-01
   7161.33  3.5904292E-01
   7161.67  3.5584267E-01
   7162.00  3.5277632E-01
   7162.33  3.4983948E-01
   7162.67  3.4700495E-01
   7163.00  3.4426484E-01
   7163.33  3.4162372E-01
   7163.67  3.3906904E-01
   7164.00  3.3660518E-01
   7164.33  3.3425674E-01
   7164.67  3.3203009E-01
   7165.00  3.2994968E-01
   7165.33  3.2807595E-01
   7165.67  3.2642936E-01
   7166.00  3.2505172E-01
   7166.33  3.2403648E-01
   7166.67  3.2339690E-01
   7167.00  3.2317629E-01
   7167.33  3.2347596E-01
   7167.67  3.2427136E-01
   7168.00  3.2558131E-01
   7168.33  3.2748062E-01
   7168.67  3.2989820E-01
   7169.00  3.3281665E-01
   7169.33  3.3625933E-01
   7169.67  3.4011697E-01
   7170.00  3.4433230E-01
   7170.33  3.4885578E-01
   7170.67  3.5354683E-01
   7171.00  3.5828874E-01
   7171.33  3.6287780E-01
   7171.67  3.6704648E-01
   7172.00  3.7045842E-01
