    FDMNES
    energy     <xanes>
   7097.00  4.1207947E-03
   7097.33  4.1975470E-03
   7097.67  4.2770261E-03
   7098.00  4.3593852E-03
   7098.33  4.4452032E-03
   7098.67  4.5343105E-03
   7099.00  4.6269093E-03
   7099.33  4.7237279E-03
   7099.67  4.8245865E-03
   7100.00  4.9297595E-03
   7100.33  5.0401871E-03
   7100.67  5.1556870E-03
   7101.00  5.2766448E-03
   7101.33  5.4043131E-03
   7101.67  5.5385256E-03
   7102.00  5.6798468E-03
   7102.33  5.8300130E-03
   7102.67  5.9889172E-03
   7103.00  6.1574280E-03
   7103.33  6.3380756E-03
   7103.67  6.5309151E-03
   7104.00  6.7373690E-03
   7104.33  6.9613691E-03
   7104.67  7.2033868E-03
   7105.00  7.4659451E-03
   7105.33  7.7556915E-03
   7105.67  8.0741988E-03
   7106.00  8.4264336E-03
   7106.33  8.8249875E-03
   7106.67  9.2746226E-03
   7107.00  9.7866104E-03
   7107.33  1.0388910E-02
   7107.67  1.1097103E-02
   7108.00  1.1942575E-02
   7108.33  1.3003859E-02
   7108.67  1.4343981E-02
   7109.00  1.6082686E-02
   7109.33  1.8539993E-02
   7109.67  2.2092092E-02
   7110.00  2.7481978E-02
   7110.33  3.6846812E-02
   7110.67  5.2204099E-02
   7111.00  7.2670307E-02
   7111.33  8.9894445E-02
   7111.67  1.0118360E-01
   7112.00  1.0288373E-01
   7112.33  9.0231249E-02
   7112.67  7.5819091E-02
   7113.00  6.6980679E-02
   7113.33  6.5802225E-02
   7113.67  7.0140732E-02
   7114.00  8.0304249E-02
   7114.33  1.0142750E-01
   7114.67  1.3121375E-01
   7115.00  1.5334875E-01
   7115.33  1.4262406E-01
   7115.67  1.1594040E-01
   7116.00  8.9446612E-02
   7116.33  7.0899999E-02
   7116.67  5.9087205E-02
   7117.00  5.2005464E-02
   7117.33  4.8122199E-02
   7117.67  4.6003144E-02
   7118.00  4.5215812E-02
   7118.33  4.5742287E-02
   7118.67  4.7461497E-02
   7119.00  5.0464056E-02
   7119.33  5.5049064E-02
   7119.67  6.1108755E-02
   7120.00  6.8613940E-02
   7120.33  7.7740298E-02
   7120.67  8.8738008E-02
   7121.00  1.0250117E-01
   7121.33  1.2089652E-01
   7121.67  1.4451542E-01
   7122.00  1.7362720E-01
   7122.33  2.0748514E-01
   7122.67  2.4208470E-01
   7123.00  2.7369467E-01
   7123.33  2.9967945E-01
   7123.67  3.2355340E-01
   7124.00  3.5024594E-01
   7124.33  3.8350302E-01
   7124.67  4.1924142E-01
   7125.00  4.5128557E-01
   7125.33  4.7154555E-01
   7125.67  4.8046893E-01
   7126.00  4.8421192E-01
   7126.33  4.9083088E-01
   7126.67  5.0159112E-01
   7127.00  5.1484697E-01
   7127.33  5.2898028E-01
   7127.67  5.4214517E-01
   7128.00  5.5306494E-01
   7128.33  5.6018623E-01
   7128.67  5.6372454E-01
   7129.00  5.6538135E-01
   7129.33  5.6814668E-01
   7129.67  5.7298839E-01
   7130.00  5.7926796E-01
   7130.33  5.8686633E-01
   7130.67  5.9737360E-01
   7131.00  6.1312393E-01
   7131.33  6.3665642E-01
   7131.67  6.6631217E-01
   7132.00  6.9919009E-01
   7132.33  7.2972881E-01
   7132.67  7.5333124E-01
   7133.00  7.6929788E-01
   7133.33  7.8124352E-01
   7133.67  7.9412777E-01
   7134.00  8.0866040E-01
   7134.33  8.2250740E-01
   7134.67  8.3307119E-01
   7135.00  8.3926713E-01
   7135.33  8.4096286E-01
   7135.67  8.4000857E-01
   7136.00  8.3757384E-01
   7136.33  8.3432304E-01
   7136.67  8.3031298E-01
   7137.00  8.2504624E-01
   7137.33  8.1747277E-01
   7137.67  8.0716492E-01
   7138.00  7.9384408E-01
   7138.33  7.7735769E-01
   7138.67  7.5883309E-01
   7139.00  7.3924951E-01
   7139.33  7.1978789E-01
   7139.67  7.0129546E-01
   7140.00  6.8413525E-01
   7140.33  6.6850186E-01
   7140.67  6.5397672E-01
   7141.00  6.4026018E-01
   7141.33  6.2708290E-01
   7141.67  6.1415175E-01
   7142.00  6.0136765E-01
   7142.33  5.8874162E-01
   7142.67  5.7633770E-01
   7143.00  5.6426793E-01
   7143.33  5.5273975E-01
   7143.67  5.4183489E-01
   7144.00  5.3165405E-01
   7144.33  5.2236524E-01
   7144.67  5.1388879E-01
   7145.00  5.0621695E-01
   7145.33  4.9941655E-01
   7145.67  4.9334564E-01
   7146.00  4.8796211E-01
   7146.33  4.8330194E-01
   7146.67  4.7924908E-01
   7147.00  4.7577757E-01
   7147.33  4.7291873E-01
   7147.67  4.7054155E-01
   7148.00  4.6855499E-01
   7148.33  4.6682943E-01
   7148.67  4.6512873E-01
   7149.00  4.6325372E-01
   7149.33  4.6094878E-01
   7149.67  4.5814207E-01
   7150.00  4.5483960E-01
   7150.33  4.5114580E-01
   7150.67  4.4737112E-01
   7151.00  4.4378915E-01
   7151.33  4.4076725E-01
   7151.67  4.3847440E-01
   7152.00  4.3701688E-01
   7152.33  4.3650268E-01
   7152.67  4.3671499E-01
   7153.00  4.3749411E-01
   7153.33  4.3865520E-01
   7153.67  4.3991081E-01
   7154.00  4.4105374E-01
   7154.33  4.4181620E-01
   7154.67  4.4203699E-01
   7155.00  4.4155823E-01
   7155.33  4.4010342E-01
   7155.67  4.3763119E-01
   7156.00  4.3403525E-01
   7156.33  4.2908630E-01
   7156.67  4.2292957E-01
   7157.00  4.1563747E-01
   7157.33  4.0727397E-01
   7157.67  3.9824082E-01
   7158.00  3.8884349E-01
   7158.33  3.7948420E-01
   7158.67  3.7056751E-01
   7159.00  3.6242857E-01
   7159.33  3.5556062E-01
   7159.67  3.5012594E-01
   7160.00  3.4634444E-01
   7160.33  3.4464881E-01
   7160.67  3.4494524E-01
   7161.00  3.4730292E-01
   7161.33  3.5201646E-01
   7161.67  3.5880379E-01
   7162.00  3.6759716E-01
   7162.33  3.7848225E-01
   7162.67  3.9101201E-01
   7163.00  4.0495727E-01
   7163.33  4.2014704E-01
   7163.67  4.3609893E-01
   7164.00  4.5249850E-01
   7164.33  4.6897821E-01
   7164.67  4.8515297E-01
   7165.00  5.0070867E-01
   7165.33  5.1517846E-01
   7165.67  5.2836340E-01
   7166.00  5.4001379E-01
   7166.33  5.4964954E-01
   7166.67  5.5728276E-01
   7167.00  5.6277614E-01
   7167.33  5.6575926E-01
   7167.67  5.6651132E-01
   7168.00  5.6511641E-01
   7168.33  5.6153063E-01
   7168.67  5.5629756E-01
   7169.00  5.4974055E-01
   7169.33  5.4217600E-01
   7169.67  5.3416824E-01
   7170.00  5.2609859E-01
   7170.33  5.1841641E-01
   7170.67  5.1141743E-01
   7171.00  5.0532204E-01
   7171.33  5.0042404E-01
   7171.67  4.9663956E-01
   7172.00  4.9391510E-01
