    FDMNES
    energy     <xanes>
   7097.00  5.1422742E-03
   7097.33  5.2708151E-03
   7097.67  5.4053627E-03
   7098.00  5.5463228E-03
   7098.33  5.6950829E-03
   7098.67  5.8513550E-03
   7099.00  6.0156872E-03
   7099.33  6.1898843E-03
   7099.67  6.3736439E-03
   7100.00  6.5677237E-03
   7100.33  6.7745256E-03
   7100.67  6.9937530E-03
   7101.00  7.2264825E-03
   7101.33  7.4759967E-03
   7101.67  7.7420514E-03
   7102.00  8.0262254E-03
   7102.33  8.3331509E-03
   7102.67  8.6627376E-03
   7103.00  9.0173920E-03
   7103.33  9.4039078E-03
   7103.67  9.8225765E-03
   7104.00  1.0277243E-02
   7104.33  1.0778362E-02
   7104.67  1.1327137E-02
   7105.00  1.1930089E-02
   7105.33  1.2604329E-02
   7105.67  1.3353294E-02
   7106.00  1.4188950E-02
   7106.33  1.5141719E-02
   7106.67  1.6220935E-02
   7107.00  1.7451094E-02
   7107.33  1.8893050E-02
   7107.67  2.0573978E-02
   7108.00  2.2552920E-02
   7108.33  2.4976043E-02
   7108.67  2.7938353E-02
   7109.00  3.1625873E-02
   7109.33  3.6519388E-02
   7109.67  4.3093753E-02
   7110.00  5.2279372E-02
   7110.33  6.6722867E-02
   7110.67  8.9466546E-02
   7111.00  1.2321525E-01
   7111.33  1.6262249E-01
   7111.67  1.8861117E-01
   7112.00  2.0383476E-01
   7112.33  2.3478750E-01
   7112.67  2.8689888E-01
   7113.00  3.5886735E-01
   7113.33  4.6125371E-01
   7113.67  5.6088036E-01
   7114.00  6.3253900E-01
   7114.33  6.9065320E-01
   7114.67  6.9113015E-01
   7115.00  6.3369265E-01
   7115.33  5.7211883E-01
   7115.67  5.4074280E-01
   7116.00  5.0639155E-01
   7116.33  4.2559112E-01
   7116.67  3.3669886E-01
   7117.00  2.6664912E-01
   7117.33  2.2143555E-01
   7117.67  1.9290086E-01
   7118.00  1.7707814E-01
   7118.33  1.7080491E-01
   7118.67  1.6814866E-01
   7119.00  1.6643206E-01
   7119.33  1.6501259E-01
   7119.67  1.6276630E-01
   7120.00  1.5782962E-01
   7120.33  1.4948604E-01
   7120.67  1.3981482E-01
   7121.00  1.3015580E-01
   7121.33  1.2175911E-01
   7121.67  1.1513408E-01
   7122.00  1.1041132E-01
   7122.33  1.0810259E-01
   7122.67  1.0816335E-01
   7123.00  1.1004916E-01
   7123.33  1.1269482E-01
   7123.67  1.1564862E-01
   7124.00  1.1951841E-01
   7124.33  1.2523076E-01
   7124.67  1.3270478E-01
   7125.00  1.4175925E-01
   7125.33  1.5223596E-01
   7125.67  1.6359416E-01
   7126.00  1.7552127E-01
   7126.33  1.8792293E-01
   7126.67  2.0087923E-01
   7127.00  2.1441644E-01
   7127.33  2.2798204E-01
   7127.67  2.4046803E-01
   7128.00  2.5115552E-01
   7128.33  2.5994749E-01
   7128.67  2.6789453E-01
   7129.00  2.7578701E-01
   7129.33  2.8428401E-01
   7129.67  2.9364979E-01
   7130.00  3.0430203E-01
   7130.33  3.1716514E-01
   7130.67  3.3207555E-01
   7131.00  3.4797857E-01
   7131.33  3.6412335E-01
   7131.67  3.8347001E-01
   7132.00  4.0990292E-01
   7132.33  4.4666426E-01
   7132.67  4.9254782E-01
   7133.00  5.4704444E-01
   7133.33  6.0936330E-01
   7133.67  6.7466713E-01
   7134.00  7.3834183E-01
   7134.33  7.9574649E-01
   7134.67  8.4747075E-01
   7135.00  8.9564909E-01
   7135.33  9.4120588E-01
   7135.67  9.8207384E-01
   7136.00  1.0146051E+00
   7136.33  1.0331302E+00
   7136.67  1.0353300E+00
   7137.00  1.0189496E+00
   7137.33  9.8313083E-01
   7137.67  9.3544840E-01
   7138.00  8.8130115E-01
   7138.33  8.2523261E-01
   7138.67  7.7036616E-01
   7139.00  7.1833652E-01
   7139.33  6.7115769E-01
   7139.67  6.2942791E-01
   7140.00  5.9384078E-01
   7140.33  5.6570805E-01
   7140.67  5.4432165E-01
   7141.00  5.2950356E-01
   7141.33  5.2152888E-01
   7141.67  5.1893967E-01
   7142.00  5.2104717E-01
   7142.33  5.2751535E-01
   7142.67  5.3708565E-01
   7143.00  5.4915578E-01
   7143.33  5.6332545E-01
   7143.67  5.7877923E-01
   7144.00  5.9504277E-01
   7144.33  6.1162723E-01
   7144.67  6.2802189E-01
   7145.00  6.4388015E-01
   7145.33  6.5878400E-01
   7145.67  6.7262862E-01
   7146.00  6.8530227E-01
   7146.33  6.9657815E-01
   7146.67  7.0657437E-01
   7147.00  7.1526669E-01
   7147.33  7.2245803E-01
   7147.67  7.2827968E-01
   7148.00  7.3270013E-01
   7148.33  7.3551184E-01
   7148.67  7.3688274E-01
   7149.00  7.3682354E-01
   7149.33  7.3519953E-01
   7149.67  7.3225230E-01
   7150.00  7.2806020E-01
   7150.33  7.2259086E-01
   7150.67  7.1610865E-01
   7151.00  7.0872343E-01
   7151.33  7.0046655E-01
   7151.67  6.9156614E-01
   7152.00  6.8215157E-01
   7152.33  6.7233418E-01
   7152.67  6.6229028E-01
   7153.00  6.5212332E-01
   7153.33  6.4195262E-01
   7153.67  6.3189854E-01
   7154.00  6.2206012E-01
   7154.33  6.1258107E-01
   7154.67  6.0351008E-01
   7155.00  5.9491007E-01
   7155.33  5.8690389E-01
   7155.67  5.7946689E-01
   7156.00  5.7262260E-01
   7156.33  5.6645905E-01
   7156.67  5.6089793E-01
   7157.00  5.5592672E-01
   7157.33  5.5158997E-01
   7157.67  5.4778024E-01
   7158.00  5.4445930E-01
   7158.33  5.4163253E-01
   7158.67  5.3919306E-01
   7159.00  5.3709661E-01
   7159.33  5.3533185E-01
   7159.67  5.3382094E-01
   7160.00  5.3253626E-01
   7160.33  5.3148049E-01
   7160.67  5.3061489E-01
   7161.00  5.2993438E-01
   7161.33  5.2945885E-01
   7161.67  5.2915796E-01
   7162.00  5.2901654E-01
   7162.33  5.2901358E-01
   7162.67  5.2906659E-01
   7163.00  5.2909096E-01
   7163.33  5.2893557E-01
   7163.67  5.2845413E-01
   7164.00  5.2748249E-01
   7164.33  5.2573140E-01
   7164.67  5.2309418E-01
   7165.00  5.1943337E-01
   7165.33  5.1450152E-01
   7165.67  5.0840570E-01
   7166.00  5.0117754E-01
   7166.33  4.9278793E-01
   7166.67  4.8351786E-01
   7167.00  4.7352504E-01
   7167.33  4.6294143E-01
   7167.67  4.5203128E-01
   7168.00  4.4095885E-01
   7168.33  4.2990275E-01
   7168.67  4.1901916E-01
   7169.00  4.0842703E-01
   7169.33  3.9829740E-01
   7169.67  3.8868516E-01
   7170.00  3.7966564E-01
   7170.33  3.7138594E-01
   7170.67  3.6381622E-01
   7171.00  3.5700334E-01
   7171.33  3.5111868E-01
   7171.67  3.4616144E-01
   7172.00  3.4225229E-01
