    FDMNES
    energy     <xanes>
   7097.00  5.2022317E-03
   7097.33  5.3247753E-03
   7097.67  5.4529540E-03
   7098.00  5.5871544E-03
   7098.33  5.7286895E-03
   7098.67  5.8772995E-03
   7099.00  6.0335122E-03
   7099.33  6.1990490E-03
   7099.67  6.3736450E-03
   7100.00  6.5580399E-03
   7100.33  6.7545493E-03
   7100.67  6.9629297E-03
   7101.00  7.1842496E-03
   7101.33  7.4217199E-03
   7101.67  7.6751771E-03
   7102.00  7.9462217E-03
   7102.33  8.2394706E-03
   7102.67  8.5549699E-03
   7103.00  8.8952230E-03
   7103.33  9.2671691E-03
   7103.67  9.6713575E-03
   7104.00  1.0111918E-02
   7104.33  1.0599872E-02
   7104.67  1.1136969E-02
   7105.00  1.1730499E-02
   7105.33  1.2399243E-02
   7105.67  1.3147952E-02
   7106.00  1.3990670E-02
   7106.33  1.4962561E-02
   7106.67  1.6076553E-02
   7107.00  1.7363169E-02
   7107.33  1.8897490E-02
   7107.67  2.0718253E-02
   7108.00  2.2904489E-02
   7108.33  2.5651523E-02
   7108.67  2.9101058E-02
   7109.00  3.3522906E-02
   7109.33  3.9619720E-02
   7109.67  4.8136479E-02
   7110.00  6.0525256E-02
   7110.33  8.0935600E-02
   7110.67  1.1406035E-01
   7111.00  1.6309268E-01
   7111.33  2.2025628E-01
   7111.67  2.6816412E-01
   7112.00  2.9980772E-01
   7112.33  3.2350248E-01
   7112.67  3.5288128E-01
   7113.00  3.9488399E-01
   7113.33  4.4641835E-01
   7113.67  4.7514211E-01
   7114.00  4.5881684E-01
   7114.33  4.0343086E-01
   7114.67  3.4139376E-01
   7115.00  2.8930799E-01
   7115.33  2.5384093E-01
   7115.67  2.3046001E-01
   7116.00  2.1551328E-01
   7116.33  2.0560983E-01
   7116.67  1.9661379E-01
   7117.00  1.8549125E-01
   7117.33  1.7097075E-01
   7117.67  1.5627207E-01
   7118.00  1.4389201E-01
   7118.33  1.3550287E-01
   7118.67  1.3055997E-01
   7119.00  1.2851865E-01
   7119.33  1.2868557E-01
   7119.67  1.2960623E-01
   7120.00  1.3050392E-01
   7120.33  1.3118445E-01
   7120.67  1.3175636E-01
   7121.00  1.3190050E-01
   7121.33  1.3098743E-01
   7121.67  1.2985960E-01
   7122.00  1.3007162E-01
   7122.33  1.3316231E-01
   7122.67  1.3899141E-01
   7123.00  1.4728426E-01
   7123.33  1.5772860E-01
   7123.67  1.6966938E-01
   7124.00  1.8271376E-01
   7124.33  1.9542908E-01
   7124.67  2.0680305E-01
   7125.00  2.1787096E-01
   7125.33  2.3106932E-01
   7125.67  2.4732996E-01
   7126.00  2.6657447E-01
   7126.33  2.8802332E-01
   7126.67  3.1001292E-01
   7127.00  3.3205297E-01
   7127.33  3.5514144E-01
   7127.67  3.8059705E-01
   7128.00  4.0930339E-01
   7128.33  4.4167940E-01
   7128.67  4.7554223E-01
   7129.00  5.0832962E-01
   7129.33  5.3784091E-01
   7129.67  5.6499151E-01
   7130.00  5.9110394E-01
   7130.33  6.1752028E-01
   7130.67  6.4516985E-01
   7131.00  6.7453027E-01
   7131.33  7.0557063E-01
   7131.67  7.3743143E-01
   7132.00  7.7005597E-01
   7132.33  8.0451575E-01
   7132.67  8.4146716E-01
   7133.00  8.8056388E-01
   7133.33  9.1947234E-01
   7133.67  9.5434979E-01
   7134.00  9.8159692E-01
   7134.33  9.9624760E-01
   7134.67  9.9783678E-01
   7135.00  9.8684895E-01
   7135.33  9.6448351E-01
   7135.67  9.3512808E-01
   7136.00  9.0120098E-01
   7136.33  8.6457001E-01
   7136.67  8.2702926E-01
   7137.00  7.8945744E-01
   7137.33  7.5268988E-01
   7137.67  7.1725702E-01
   7138.00  6.8368392E-01
   7138.33  6.5291675E-01
   7138.67  6.2525228E-01
   7139.00  6.0111037E-01
   7139.33  5.8122972E-01
   7139.67  5.6510824E-01
   7140.00  5.5250215E-01
   7140.33  5.4333432E-01
   7140.67  5.3669136E-01
   7141.00  5.3214158E-01
   7141.33  5.2947203E-01
   7141.67  5.2815263E-01
   7142.00  5.2796691E-01
   7142.33  5.2878197E-01
   7142.67  5.3018576E-01
   7143.00  5.3183974E-01
   7143.33  5.3322584E-01
   7143.67  5.3384369E-01
   7144.00  5.3329169E-01
   7144.33  5.3110488E-01
   7144.67  5.2746648E-01
   7145.00  5.2260742E-01
   7145.33  5.1688214E-01
   7145.67  5.1090134E-01
   7146.00  5.0506588E-01
   7146.33  4.9979759E-01
   7146.67  4.9525792E-01
   7147.00  4.9154151E-01
   7147.33  4.8878452E-01
   7147.67  4.8684570E-01
   7148.00  4.8565375E-01
   7148.33  4.8516920E-01
   7148.67  4.8517518E-01
   7149.00  4.8554653E-01
   7149.33  4.8615816E-01
   7149.67  4.8683393E-01
   7150.00  4.8746204E-01
   7150.33  4.8792101E-01
   7150.67  4.8816643E-01
   7151.00  4.8818351E-01
   7151.33  4.8798056E-01
   7151.67  4.8766483E-01
   7152.00  4.8733905E-01
   7152.33  4.8716124E-01
   7152.67  4.8726188E-01
   7153.00  4.8775803E-01
   7153.33  4.8882885E-01
   7153.67  4.9049227E-01
   7154.00  4.9278514E-01
   7154.33  4.9578693E-01
   7154.67  4.9937435E-01
   7155.00  5.0347512E-01
   7155.33  5.0801896E-01
   7155.67  5.1280517E-01
   7156.00  5.1768616E-01
   7156.33  5.2247421E-01
   7156.67  5.2700790E-01
   7157.00  5.3115157E-01
   7157.33  5.3470932E-01
   7157.67  5.3765629E-01
   7158.00  5.3995048E-01
   7158.33  5.4149851E-01
   7158.67  5.4240777E-01
   7159.00  5.4272072E-01
   7159.33  5.4243800E-01
   7159.67  5.4170395E-01
   7160.00  5.4058948E-01
   7160.33  5.3913978E-01
   7160.67  5.3747038E-01
   7161.00  5.3564288E-01
   7161.33  5.3370973E-01
   7161.67  5.3173858E-01
   7162.00  5.2977114E-01
   7162.33  5.2785220E-01
   7162.67  5.2600201E-01
   7163.00  5.2424049E-01
   7163.33  5.2260918E-01
   7163.67  5.2111826E-01
   7164.00  5.1978570E-01
   7164.33  5.1865009E-01
   7164.67  5.1770083E-01
   7165.00  5.1694250E-01
   7165.33  5.1639630E-01
   7165.67  5.1602722E-01
   7166.00  5.1581774E-01
   7166.33  5.1575483E-01
   7166.67  5.1578549E-01
   7167.00  5.1587474E-01
   7167.33  5.1598193E-01
   7167.67  5.1606231E-01
   7168.00  5.1608132E-01
   7168.33  5.1599183E-01
   7168.67  5.1577976E-01
   7169.00  5.1543118E-01
   7169.33  5.1491649E-01
   7169.67  5.1424884E-01
   7170.00  5.1343058E-01
   7170.33  5.1245559E-01
   7170.67  5.1136242E-01
   7171.00  5.1017976E-01
   7171.33  5.0895783E-01
   7171.67  5.0779542E-01
   7172.00  5.0681275E-01
