    FDMNES
    energy     <xanes>
   7097.00  4.6139631E-03
   7097.33  4.7163264E-03
   7097.67  4.8230392E-03
   7098.00  4.9343824E-03
   7098.33  5.0513406E-03
   7098.67  5.1736908E-03
   7099.00  5.3018131E-03
   7099.33  5.4369827E-03
   7099.67  5.5789689E-03
   7100.00  5.7283002E-03
   7100.33  5.8866726E-03
   7100.67  6.0538661E-03
   7101.00  6.2306401E-03
   7101.33  6.4193228E-03
   7101.67  6.6197471E-03
   7102.00  6.8330469E-03
   7102.33  7.0625447E-03
   7102.67  7.3082215E-03
   7103.00  7.5718523E-03
   7103.33  7.8584113E-03
   7103.67  8.1682471E-03
   7104.00  8.5043060E-03
   7104.33  8.8745001E-03
   7104.67  9.2800824E-03
   7105.00  9.7263209E-03
   7105.33  1.0226829E-02
   7105.67  1.0785189E-02
   7106.00  1.1411789E-02
   7106.33  1.2132659E-02
   7106.67  1.2957984E-02
   7107.00  1.3911199E-02
   7107.33  1.5050057E-02
   7107.67  1.6406722E-02
   7108.00  1.8045537E-02
   7108.33  2.0126820E-02
   7108.67  2.2777461E-02
   7109.00  2.6238248E-02
   7109.33  3.1150420E-02
   7109.67  3.8259128E-02
   7110.00  4.9035849E-02
   7110.33  6.7707024E-02
   7110.67  9.8195659E-02
   7111.00  1.3802154E-01
   7111.33  1.6532357E-01
   7111.67  1.7913799E-01
   7112.00  1.9568052E-01
   7112.33  2.2233042E-01
   7112.67  2.4623463E-01
   7113.00  2.5827720E-01
   7113.33  2.5905949E-01
   7113.67  2.4266173E-01
   7114.00  2.0631586E-01
   7114.33  1.6666553E-01
   7114.67  1.3678554E-01
   7115.00  1.1756327E-01
   7115.33  1.0746753E-01
   7115.67  1.0340743E-01
   7116.00  1.0440965E-01
   7116.33  1.1040089E-01
   7116.67  1.2025852E-01
   7117.00  1.3312152E-01
   7117.33  1.4719284E-01
   7117.67  1.5939121E-01
   7118.00  1.6750094E-01
   7118.33  1.7103980E-01
   7118.67  1.7302439E-01
   7119.00  1.7603210E-01
   7119.33  1.8285555E-01
   7119.67  1.9400480E-01
   7120.00  2.0906820E-01
   7120.33  2.2675791E-01
   7120.67  2.4488961E-01
   7121.00  2.6247114E-01
   7121.33  2.7921681E-01
   7121.67  2.9555309E-01
   7122.00  3.1198358E-01
   7122.33  3.2921684E-01
   7122.67  3.4752703E-01
   7123.00  3.6702645E-01
   7123.33  3.8783446E-01
   7123.67  4.0945693E-01
   7124.00  4.3114535E-01
   7124.33  4.5135085E-01
   7124.67  4.6880384E-01
   7125.00  4.8282293E-01
   7125.33  4.9321557E-01
   7125.67  5.0145581E-01
   7126.00  5.0874454E-01
   7126.33  5.1602442E-01
   7126.67  5.2298247E-01
   7127.00  5.2837501E-01
   7127.33  5.3024271E-01
   7127.67  5.2857361E-01
   7128.00  5.2447947E-01
   7128.33  5.2031296E-01
   7128.67  5.1785452E-01
   7129.00  5.1709353E-01
   7129.33  5.1651741E-01
   7129.67  5.1426361E-01
   7130.00  5.0942487E-01
   7130.33  5.0177201E-01
   7130.67  4.9257585E-01
   7131.00  4.8287928E-01
   7131.33  4.7394786E-01
   7131.67  4.6680193E-01
   7132.00  4.6223035E-01
   7132.33  4.6122225E-01
   7132.67  4.6363879E-01
   7133.00  4.6939774E-01
   7133.33  4.7807534E-01
   7133.67  4.8782671E-01
   7134.00  4.9728025E-01
   7134.33  5.0540264E-01
   7134.67  5.1222613E-01
   7135.00  5.1795511E-01
   7135.33  5.2284618E-01
   7135.67  5.2735133E-01
   7136.00  5.3173076E-01
   7136.33  5.3622407E-01
   7136.67  5.4098473E-01
   7137.00  5.4612921E-01
   7137.33  5.5183016E-01
   7137.67  5.5809289E-01
   7138.00  5.6492619E-01
   7138.33  5.7234063E-01
   7138.67  5.8014095E-01
   7139.00  5.8815861E-01
   7139.33  5.9615202E-01
   7139.67  6.0385659E-01
   7140.00  6.1103510E-01
   7140.33  6.1733035E-01
   7140.67  6.2263141E-01
   7141.00  6.2681957E-01
   7141.33  6.2969387E-01
   7141.67  6.3143565E-01
   7142.00  6.3214166E-01
   7142.33  6.3188064E-01
   7142.67  6.3098975E-01
   7143.00  6.2969524E-01
   7143.33  6.2825887E-01
   7143.67  6.2696531E-01
   7144.00  6.2602083E-01
   7144.33  6.2568986E-01
   7144.67  6.2604459E-01
   7145.00  6.2716021E-01
   7145.33  6.2917393E-01
   7145.67  6.3196868E-01
   7146.00  6.3549512E-01
   7146.33  6.3976039E-01
   7146.67  6.4459328E-01
   7147.00  6.4990028E-01
   7147.33  6.5558585E-01
   7147.67  6.6143547E-01
   7148.00  6.6727815E-01
   7148.33  6.7286729E-01
   7148.67  6.7800409E-01
   7149.00  6.8250261E-01
   7149.33  6.8607538E-01
   7149.67  6.8869392E-01
   7150.00  6.9029740E-01
   7150.33  6.9074892E-01
   7150.67  6.9022389E-01
   7151.00  6.8879300E-01
   7151.33  6.8645399E-01
   7151.67  6.8340752E-01
   7152.00  6.7973044E-01
   7152.33  6.7543303E-01
   7152.67  6.7065723E-01
   7153.00  6.6546381E-01
   7153.33  6.5987862E-01
   7153.67  6.5401030E-01
   7154.00  6.4790516E-01
   7154.33  6.4157472E-01
   7154.67  6.3506132E-01
   7155.00  6.2836677E-01
   7155.33  6.2145798E-01
   7155.67  6.1434251E-01
   7156.00  6.0700555E-01
   7156.33  5.9940404E-01
   7156.67  5.9156162E-01
   7157.00  5.8348150E-01
   7157.33  5.7514821E-01
   7157.67  5.6661164E-01
   7158.00  5.5789780E-01
   7158.33  5.4902861E-01
   7158.67  5.4006992E-01
   7159.00  5.3106841E-01
   7159.33  5.2208516E-01
   7159.67  5.1318141E-01
   7160.00  5.0441212E-01
   7160.33  4.9586249E-01
   7160.67  4.8756245E-01
   7161.00  4.7955301E-01
   7161.33  4.7191192E-01
   7161.67  4.6461814E-01
   7162.00  4.5767496E-01
   7162.33  4.5111593E-01
   7162.67  4.4488023E-01
   7163.00  4.3894800E-01
   7163.33  4.3332838E-01
   7163.67  4.2796321E-01
   7164.00  4.2283687E-01
   7164.33  4.1796540E-01
   7164.67  4.1331467E-01
   7165.00  4.0888576E-01
   7165.33  4.0471668E-01
   7165.67  4.0079530E-01
   7166.00  3.9714018E-01
   7166.33  3.9380978E-01
   7166.67  3.9078754E-01
   7167.00  3.8808628E-01
   7167.33  3.8575599E-01
   7167.67  3.8375712E-01
   7168.00  3.8208583E-01
   7168.33  3.8077190E-01
   7168.67  3.7976115E-01
   7169.00  3.7903912E-01
   7169.33  3.7862166E-01
   7169.67  3.7845646E-01
   7170.00  3.7852714E-01
   7170.33  3.7883932E-01
   7170.67  3.7933966E-01
   7171.00  3.7999701E-01
   7171.33  3.8076806E-01
   7171.67  3.8154483E-01
   7172.00  3.8220521E-01
