    FDMNES
    energy     <xanes>
   7097.00  4.9161347E-03
   7097.33  5.0289092E-03
   7097.67  5.1466568E-03
   7098.00  5.2697070E-03
   7098.33  5.3991990E-03
   7098.67  5.5348881E-03
   7099.00  5.6772211E-03
   7099.33  5.8276799E-03
   7099.67  5.9860119E-03
   7100.00  6.1528394E-03
   7100.33  6.3301406E-03
   7100.67  6.5176760E-03
   7101.00  6.7163398E-03
   7101.33  6.9288546E-03
   7101.67  7.1550421E-03
   7102.00  7.3962358E-03
   7102.33  7.6563245E-03
   7102.67  7.9352983E-03
   7103.00  8.2352375E-03
   7103.33  8.5619561E-03
   7103.67  8.9158590E-03
   7104.00  9.3003769E-03
   7104.33  9.7247174E-03
   7104.67  1.0190294E-02
   7105.00  1.0703180E-02
   7105.33  1.1279085E-02
   7105.67  1.1921984E-02
   7106.00  1.2643683E-02
   7106.33  1.3473794E-02
   7106.67  1.4423437E-02
   7107.00  1.5518689E-02
   7107.33  1.6823823E-02
   7107.67  1.8373140E-02
   7108.00  2.0236102E-02
   7108.33  2.2585163E-02
   7108.67  2.5550959E-02
   7109.00  2.9381913E-02
   7109.33  3.4732491E-02
   7109.67  4.2330971E-02
   7110.00  5.3608824E-02
   7110.33  7.2708016E-02
   7110.67  1.0417599E-01
   7111.00  1.4841804E-01
   7111.33  1.8329472E-01
   7111.67  2.1014539E-01
   7112.00  2.4723416E-01
   7112.33  2.8903381E-01
   7112.67  3.1631547E-01
   7113.00  3.1309267E-01
   7113.33  2.9431465E-01
   7113.67  2.5657322E-01
   7114.00  2.1163878E-01
   7114.33  1.7882418E-01
   7114.67  1.5985082E-01
   7115.00  1.5472567E-01
   7115.33  1.6536432E-01
   7115.67  1.9181127E-01
   7116.00  2.3623283E-01
   7116.33  2.9652259E-01
   7116.67  3.5157532E-01
   7117.00  3.8598697E-01
   7117.33  3.9693977E-01
   7117.67  3.7979478E-01
   7118.00  3.3389468E-01
   7118.33  2.8051821E-01
   7118.67  2.3771524E-01
   7119.00  2.0793776E-01
   7119.33  1.8920777E-01
   7119.67  1.7603025E-01
   7120.00  1.6609636E-01
   7120.33  1.5913697E-01
   7120.67  1.5460792E-01
   7121.00  1.5142267E-01
   7121.33  1.4845260E-01
   7121.67  1.4613269E-01
   7122.00  1.4533615E-01
   7122.33  1.4750634E-01
   7122.67  1.5360225E-01
   7123.00  1.6417817E-01
   7123.33  1.7936237E-01
   7123.67  1.9766027E-01
   7124.00  2.1803332E-01
   7124.33  2.3916851E-01
   7124.67  2.5967461E-01
   7125.00  2.7899854E-01
   7125.33  2.9692976E-01
   7125.67  3.1301629E-01
   7126.00  3.2602067E-01
   7126.33  3.3431129E-01
   7126.67  3.3931489E-01
   7127.00  3.4325988E-01
   7127.33  3.4852502E-01
   7127.67  3.5622286E-01
   7128.00  3.6695923E-01
   7128.33  3.8120806E-01
   7128.67  3.9783679E-01
   7129.00  4.1561708E-01
   7129.33  4.3307521E-01
   7129.67  4.4982062E-01
   7130.00  4.6655561E-01
   7130.33  4.8491055E-01
   7130.67  5.0608419E-01
   7131.00  5.3082260E-01
   7131.33  5.5947966E-01
   7131.67  5.9027903E-01
   7132.00  6.2119985E-01
   7132.33  6.4930304E-01
   7132.67  6.7313337E-01
   7133.00  6.9255848E-01
   7133.33  7.0874622E-01
   7133.67  7.2458796E-01
   7134.00  7.4222287E-01
   7134.33  7.6361857E-01
   7134.67  7.8802973E-01
   7135.00  8.1347060E-01
   7135.33  8.3634647E-01
   7135.67  8.5407917E-01
   7136.00  8.6524569E-01
   7136.33  8.6842124E-01
   7136.67  8.6473394E-01
   7137.00  8.5477065E-01
   7137.33  8.3891418E-01
   7137.67  8.1920335E-01
   7138.00  7.9703437E-01
   7138.33  7.7402628E-01
   7138.67  7.5184810E-01
   7139.00  7.3151689E-01
   7139.33  7.1397309E-01
   7139.67  6.9906582E-01
   7140.00  6.8668683E-01
   7140.33  6.7681476E-01
   7140.67  6.6879088E-01
   7141.00  6.6229141E-01
   7141.33  6.5712877E-01
   7141.67  6.5286606E-01
   7142.00  6.4927972E-01
   7142.33  6.4616782E-01
   7142.67  6.4322225E-01
   7143.00  6.4023385E-01
   7143.33  6.3696902E-01
   7143.67  6.3333460E-01
   7144.00  6.2930598E-01
   7144.33  6.2490798E-01
   7144.67  6.2032624E-01
   7145.00  6.1571899E-01
   7145.33  6.1128748E-01
   7145.67  6.0715327E-01
   7146.00  6.0338775E-01
   7146.33  6.0006113E-01
   7146.67  5.9709036E-01
   7147.00  5.9441653E-01
   7147.33  5.9198378E-01
   7147.67  5.8968690E-01
   7148.00  5.8747268E-01
   7148.33  5.8530606E-01
   7148.67  5.8316443E-01
   7149.00  5.8104850E-01
   7149.33  5.7897715E-01
   7149.67  5.7696887E-01
   7150.00  5.7504889E-01
   7150.33  5.7326671E-01
   7150.67  5.7164636E-01
   7151.00  5.7022436E-01
   7151.33  5.6907031E-01
   7151.67  5.6819248E-01
   7152.00  5.6762714E-01
   7152.33  5.6745904E-01
   7152.67  5.6767631E-01
   7153.00  5.6829332E-01
   7153.33  5.6934957E-01
   7153.67  5.7077176E-01
   7154.00  5.7252951E-01
   7154.33  5.7460158E-01
   7154.67  5.7687473E-01
   7155.00  5.7926647E-01
   7155.33  5.8166729E-01
   7155.67  5.8395560E-01
   7156.00  5.8602483E-01
   7156.33  5.8771043E-01
   7156.67  5.8894148E-01
   7157.00  5.8963151E-01
   7157.33  5.8961825E-01
   7157.67  5.8891620E-01
   7158.00  5.8748806E-01
   7158.33  5.8521757E-01
   7158.67  5.8219872E-01
   7159.00  5.7845010E-01
   7159.33  5.7392763E-01
   7159.67  5.6877942E-01
   7160.00  5.6307364E-01
   7160.33  5.5684745E-01
   7160.67  5.5026799E-01
   7161.00  5.4343772E-01
   7161.33  5.3646506E-01
   7161.67  5.2948909E-01
   7162.00  5.2261039E-01
   7162.33  5.1596063E-01
   7162.67  5.0960158E-01
   7163.00  5.0358653E-01
   7163.33  4.9799805E-01
   7163.67  4.9279514E-01
   7164.00  4.8796206E-01
   7164.33  4.8350179E-01
   7164.67  4.7931555E-01
   7165.00  4.7534795E-01
   7165.33  4.7155753E-01
   7165.67  4.6787060E-01
   7166.00  4.6424856E-01
   7166.33  4.6066087E-01
   7166.67  4.5708132E-01
   7167.00  4.5349925E-01
   7167.33  4.4990939E-01
   7167.67  4.4631602E-01
   7168.00  4.4272696E-01
   7168.33  4.3915752E-01
   7168.67  4.3562292E-01
   7169.00  4.3214136E-01
   7169.33  4.2874686E-01
   7169.67  4.2545778E-01
   7170.00  4.2230147E-01
   7170.33  4.1933229E-01
   7170.67  4.1656031E-01
   7171.00  4.1401524E-01
   7171.33  4.1177458E-01
   7171.67  4.0986252E-01
   7172.00  4.0833984E-01
