    FDMNES
    energy     <xanes>
   7097.00  4.6552818E-03
   7097.33  4.7533315E-03
   7097.67  4.8553818E-03
   7098.00  4.9616858E-03
   7098.33  5.0731413E-03
   7098.67  5.1895377E-03
   7099.00  5.3112180E-03
   7099.33  5.4393430E-03
   7099.67  5.5736960E-03
   7100.00  5.7147558E-03
   7100.33  5.8640657E-03
   7100.67  6.0214220E-03
   7101.00  6.1875158E-03
   7101.33  6.3644712E-03
   7101.67  6.5521393E-03
   7102.00  6.7515612E-03
   7102.33  6.9657846E-03
   7102.67  7.1948129E-03
   7103.00  7.4402961E-03
   7103.33  7.7068422E-03
   7103.67  7.9948338E-03
   7104.00  8.3070583E-03
   7104.33  8.6509602E-03
   7104.67  9.0278678E-03
   7105.00  9.4428859E-03
   7105.33  9.9091253E-03
   7105.67  1.0430404E-02
   7106.00  1.1017118E-02
   7106.33  1.1695186E-02
   7106.67  1.2475717E-02
   7107.00  1.3383190E-02
   7107.33  1.4477859E-02
   7107.67  1.5796153E-02
   7108.00  1.7409217E-02
   7108.33  1.9495310E-02
   7108.67  2.2206142E-02
   7109.00  2.5828092E-02
   7109.33  3.1135002E-02
   7109.67  3.9079590E-02
   7110.00  5.1555778E-02
   7110.33  7.4046989E-02
   7110.67  1.1141149E-01
   7111.00  1.5837986E-01
   7111.33  1.7953852E-01
   7111.67  1.6924598E-01
   7112.00  1.5077950E-01
   7112.33  1.4553451E-01
   7112.67  1.5867251E-01
   7113.00  1.9107288E-01
   7113.33  2.1854588E-01
   7113.67  1.9641957E-01
   7114.00  1.4873189E-01
   7114.33  1.1539049E-01
   7114.67  9.5739947E-02
   7115.00  8.4702984E-02
   7115.33  7.8778900E-02
   7115.67  7.5096267E-02
   7116.00  7.2864405E-02
   7116.33  7.2459448E-02
   7116.67  7.4140740E-02
   7117.00  7.8099038E-02
   7117.33  8.4761510E-02
   7117.67  9.3953959E-02
   7118.00  1.0556622E-01
   7118.33  1.1897134E-01
   7118.67  1.3225880E-01
   7119.00  1.4390669E-01
   7119.33  1.5328184E-01
   7119.67  1.6189542E-01
   7120.00  1.7102408E-01
   7120.33  1.8154470E-01
   7120.67  1.9331718E-01
   7121.00  2.0619749E-01
   7121.33  2.2026993E-01
   7121.67  2.3545521E-01
   7122.00  2.5177396E-01
   7122.33  2.6961789E-01
   7122.67  2.8981297E-01
   7123.00  3.1402563E-01
   7123.33  3.4554280E-01
   7123.67  3.8577772E-01
   7124.00  4.3565405E-01
   7124.33  4.9451628E-01
   7124.67  5.5471521E-01
   7125.00  6.0695617E-01
   7125.33  6.4077432E-01
   7125.67  6.5799591E-01
   7126.00  6.6186824E-01
   7126.33  6.5610191E-01
   7126.67  6.4871438E-01
   7127.00  6.4428118E-01
   7127.33  6.4330999E-01
   7127.67  6.4258714E-01
   7128.00  6.4039140E-01
   7128.33  6.3654721E-01
   7128.67  6.3261573E-01
   7129.00  6.2988862E-01
   7129.33  6.2978685E-01
   7129.67  6.3293107E-01
   7130.00  6.3988616E-01
   7130.33  6.5103509E-01
   7130.67  6.6470866E-01
   7131.00  6.7915467E-01
   7131.33  6.9213314E-01
   7131.67  7.0279390E-01
   7132.00  7.1147815E-01
   7132.33  7.1885641E-01
   7132.67  7.2508558E-01
   7133.00  7.2953691E-01
   7133.33  7.3123665E-01
   7133.67  7.3039470E-01
   7134.00  7.2729799E-01
   7134.33  7.2220302E-01
   7134.67  7.1552041E-01
   7135.00  7.0678305E-01
   7135.33  6.9492899E-01
   7135.67  6.8055722E-01
   7136.00  6.6457447E-01
   7136.33  6.4798212E-01
   7136.67  6.3159624E-01
   7137.00  6.1581829E-01
   7137.33  6.0103328E-01
   7137.67  5.8725873E-01
   7138.00  5.7453270E-01
   7138.33  5.6299300E-01
   7138.67  5.5249348E-01
   7139.00  5.4301449E-01
   7139.33  5.3465645E-01
   7139.67  5.2727719E-01
   7140.00  5.2087068E-01
   7140.33  5.1556152E-01
   7140.67  5.1123665E-01
   7141.00  5.0790327E-01
   7141.33  5.0568504E-01
   7141.67  5.0444241E-01
   7142.00  5.0414709E-01
   7142.33  5.0486108E-01
   7142.67  5.0640681E-01
   7143.00  5.0871965E-01
   7143.33  5.1180555E-01
   7143.67  5.1549683E-01
   7144.00  5.1973430E-01
   7144.33  5.2454266E-01
   7144.67  5.2982979E-01
   7145.00  5.3556280E-01
   7145.33  5.4173326E-01
   7145.67  5.4820509E-01
   7146.00  5.5487181E-01
   7146.33  5.6157353E-01
   7146.67  5.6810254E-01
   7147.00  5.7425887E-01
   7147.33  5.7971702E-01
   7147.67  5.8430953E-01
   7148.00  5.8784346E-01
   7148.33  5.8997239E-01
   7148.67  5.9071207E-01
   7149.00  5.8999004E-01
   7149.33  5.8759670E-01
   7149.67  5.8375590E-01
   7150.00  5.7854436E-01
   7150.33  5.7193916E-01
   7150.67  5.6425580E-01
   7151.00  5.5564256E-01
   7151.33  5.4618879E-01
   7151.67  5.3619017E-01
   7152.00  5.2581267E-01
   7152.33  5.1517904E-01
   7152.67  5.0443989E-01
   7153.00  4.9368539E-01
   7153.33  4.8301161E-01
   7153.67  4.7247988E-01
   7154.00  4.6214079E-01
   7154.33  4.5208534E-01
   7154.67  4.4234354E-01
   7155.00  4.3295630E-01
   7155.33  4.2401760E-01
   7155.67  4.1552802E-01
   7156.00  4.0753628E-01
   7156.33  4.0017098E-01
   7156.67  3.9341914E-01
   7157.00  3.8732314E-01
   7157.33  3.8200577E-01
   7157.67  3.7739951E-01
   7158.00  3.7350669E-01
   7158.33  3.7040485E-01
   7158.67  3.6799100E-01
   7159.00  3.6625677E-01
   7159.33  3.6529108E-01
   7159.67  3.6503183E-01
   7160.00  3.6551416E-01
   7160.33  3.6688820E-01
   7160.67  3.6910159E-01
   7161.00  3.7217616E-01
   7161.33  3.7620373E-01
   7161.67  3.8100663E-01
   7162.00  3.8647444E-01
   7162.33  3.9249454E-01
   7162.67  3.9880502E-01
   7163.00  4.0525268E-01
   7163.33  4.1173047E-01
   7163.67  4.1818991E-01
   7164.00  4.2461842E-01
   7164.33  4.3099118E-01
   7164.67  4.3726986E-01
   7165.00  4.4339576E-01
   7165.33  4.4926702E-01
   7165.67  4.5485514E-01
   7166.00  4.6013636E-01
   7166.33  4.6507411E-01
   7166.67  4.6972517E-01
   7167.00  4.7410276E-01
   7167.33  4.7816670E-01
   7167.67  4.8191431E-01
   7168.00  4.8528889E-01
   7168.33  4.8815071E-01
   7168.67  4.9047397E-01
   7169.00  4.9220297E-01
   7169.33  4.9322917E-01
   7169.67  4.9364842E-01
   7170.00  4.9351667E-01
   7170.33  4.9288411E-01
   7170.67  4.9194111E-01
   7171.00  4.9081278E-01
   7171.33  4.8963879E-01
   7171.67  4.8856620E-01
   7172.00  4.8771416E-01
