    FDMNES
    energy     <xanes>
   7097.00  4.8278755E-03
   7097.33  4.9503050E-03
   7097.67  5.0789520E-03
   7098.00  5.2142937E-03
   7098.33  5.3578663E-03
   7098.67  5.5094571E-03
   7099.00  5.6697411E-03
   7099.33  5.8408037E-03
   7099.67  6.0224601E-03
   7100.00  6.2156950E-03
   7100.33  6.4234288E-03
   7100.67  6.6455632E-03
   7101.00  6.8835873E-03
   7101.33  7.1417442E-03
   7101.67  7.4201494E-03
   7102.00  7.7211523E-03
   7102.33  8.0511957E-03
   7102.67  8.4108920E-03
   7103.00  8.8041440E-03
   7103.33  9.2412723E-03
   7103.67  9.7240474E-03
   7104.00  1.0259374E-02
   7104.33  1.0864923E-02
   7104.67  1.1545275E-02
   7105.00  1.2313655E-02
   7105.33  1.3203006E-02
   7105.67  1.4225253E-02
   7106.00  1.5408500E-02
   7106.33  1.6821465E-02
   7106.67  1.8497641E-02
   7107.00  2.0505792E-02
   7107.33  2.3013489E-02
   7107.67  2.6129570E-02
   7108.00  3.0060158E-02
   7108.33  3.5319975E-02
   7108.67  4.2361641E-02
   7109.00  5.2030196E-02
   7109.33  6.6605381E-02
   7109.67  8.8911981E-02
   7110.00  1.2453870E-01
   7110.33  1.8962670E-01
   7110.67  2.9872256E-01
   7111.00  4.3998522E-01
   7111.33  5.3617072E-01
   7111.67  5.5401163E-01
   7112.00  4.8158020E-01
   7112.33  3.7639616E-01
   7112.67  3.0134428E-01
   7113.00  2.5036672E-01
   7113.33  2.0484669E-01
   7113.67  1.6197482E-01
   7114.00  1.2652029E-01
   7114.33  1.0233460E-01
   7114.67  8.6899009E-02
   7115.00  7.8043144E-02
   7115.33  7.2122766E-02
   7115.67  6.5105675E-02
   7116.00  5.8458468E-02
   7116.33  5.4627441E-02
   7116.67  5.2115565E-02
   7117.00  4.9198214E-02
   7117.33  4.5815111E-02
   7117.67  4.3075339E-02
   7118.00  4.1429402E-02
   7118.33  4.1077883E-02
   7118.67  4.1763467E-02
   7119.00  4.3383603E-02
   7119.33  4.5982482E-02
   7119.67  4.9491642E-02
   7120.00  5.4070747E-02
   7120.33  6.0264244E-02
   7120.67  6.8436517E-02
   7121.00  7.9190832E-02
   7121.33  9.3743075E-02
   7121.67  1.1132906E-01
   7122.00  1.2815171E-01
   7122.33  1.3581599E-01
   7122.67  1.3510302E-01
   7123.00  1.3109563E-01
   7123.33  1.2786378E-01
   7123.67  1.2726129E-01
   7124.00  1.3042382E-01
   7124.33  1.3892909E-01
   7124.67  1.5288601E-01
   7125.00  1.7285588E-01
   7125.33  2.0033223E-01
   7125.67  2.3469293E-01
   7126.00  2.7481777E-01
   7126.33  3.1622458E-01
   7126.67  3.5060699E-01
   7127.00  3.7255680E-01
   7127.33  3.8096790E-01
   7127.67  3.8053932E-01
   7128.00  3.7435906E-01
   7128.33  3.6861058E-01
   7128.67  3.6874435E-01
   7129.00  3.7660383E-01
   7129.33  3.9348026E-01
   7129.67  4.1803197E-01
   7130.00  4.4949060E-01
   7130.33  4.8742584E-01
   7130.67  5.3030045E-01
   7131.00  5.7803143E-01
   7131.33  6.3203894E-01
   7131.67  6.9271747E-01
   7132.00  7.5972524E-01
   7132.33  8.2593520E-01
   7132.67  8.7276139E-01
   7133.00  8.8551479E-01
   7133.33  8.7116252E-01
   7133.67  8.5912073E-01
   7134.00  8.6224569E-01
   7134.33  8.8591725E-01
   7134.67  9.2809240E-01
   7135.00  9.9027894E-01
   7135.33  1.0775284E+00
   7135.67  1.1831499E+00
   7136.00  1.2882664E+00
   7136.33  1.3403050E+00
   7136.67  1.3069707E+00
   7137.00  1.2024106E+00
   7137.33  1.0747512E+00
   7137.67  9.6151647E-01
   7138.00  8.7119371E-01
   7138.33  8.0445372E-01
   7138.67  7.5369565E-01
   7139.00  7.1513841E-01
   7139.33  6.8667084E-01
   7139.67  6.6500831E-01
   7140.00  6.4890708E-01
   7140.33  6.3796871E-01
   7140.67  6.3100887E-01
   7141.00  6.2771543E-01
   7141.33  6.2833871E-01
   7141.67  6.3237531E-01
   7142.00  6.3978649E-01
   7142.33  6.5085451E-01
   7142.67  6.6484421E-01
   7143.00  6.8121166E-01
   7143.33  6.9908612E-01
   7143.67  7.1679014E-01
   7144.00  7.3272838E-01
   7144.33  7.4449922E-01
   7144.67  7.5096023E-01
   7145.00  7.5132926E-01
   7145.33  7.4483668E-01
   7145.67  7.3312746E-01
   7146.00  7.1742249E-01
   7146.33  6.9900940E-01
   7146.67  6.7964491E-01
   7147.00  6.6032867E-01
   7147.33  6.4199306E-01
   7147.67  6.2501320E-01
   7148.00  6.0958434E-01
   7148.33  5.9594472E-01
   7148.67  5.8379419E-01
   7149.00  5.7297788E-01
   7149.33  5.6342710E-01
   7149.67  5.5477990E-01
   7150.00  5.4683555E-01
   7150.33  5.3941671E-01
   7150.67  5.3223313E-01
   7151.00  5.2509161E-01
   7151.33  5.1775852E-01
   7151.67  5.1006285E-01
   7152.00  5.0186135E-01
   7152.33  4.9293703E-01
   7152.67  4.8326884E-01
   7153.00  4.7280045E-01
   7153.33  4.6140859E-01
   7153.67  4.4922164E-01
   7154.00  4.3628564E-01
   7154.33  4.2260539E-01
   7154.67  4.0839401E-01
   7155.00  3.9379864E-01
   7155.33  3.7902199E-01
   7155.67  3.6434702E-01
   7156.00  3.4999321E-01
   7156.33  3.3627277E-01
   7156.67  3.2333684E-01
   7157.00  3.1135064E-01
   7157.33  3.0060390E-01
   7157.67  2.9105755E-01
   7158.00  2.8275344E-01
   7158.33  2.7585244E-01
   7158.67  2.7016469E-01
   7159.00  2.6563716E-01
   7159.33  2.6232332E-01
   7159.67  2.5999541E-01
   7160.00  2.5857153E-01
   7160.33  2.5806109E-01
   7160.67  2.5827897E-01
   7161.00  2.5916290E-01
   7161.33  2.6072926E-01
   7161.67  2.6285815E-01
   7162.00  2.6552402E-01
   7162.33  2.6877390E-01
   7162.67  2.7253075E-01
   7163.00  2.7678355E-01
   7163.33  2.8157250E-01
   7163.67  2.8679526E-01
   7164.00  2.9238181E-01
   7164.33  2.9823069E-01
   7164.67  3.0413240E-01
   7165.00  3.0990619E-01
   7165.33  3.1529682E-01
   7165.67  3.2016896E-01
   7166.00  3.2442476E-01
   7166.33  3.2794689E-01
   7166.67  3.3085822E-01
   7167.00  3.3324022E-01
   7167.33  3.3516800E-01
   7167.67  3.3682906E-01
   7168.00  3.3833709E-01
   7168.33  3.3980713E-01
   7168.67  3.4134368E-01
   7169.00  3.4301577E-01
   7169.33  3.4490835E-01
   7169.67  3.4703615E-01
   7170.00  3.4941518E-01
   7170.33  3.5207281E-01
   7170.67  3.5494612E-01
   7171.00  3.5797796E-01
   7171.33  3.6105252E-01
   7171.67  3.6394773E-01
   7172.00  3.6638405E-01
