    FDMNES
    energy     <xanes>
   7097.00  3.5635784E-03
   7097.33  3.6200407E-03
   7097.67  3.6782826E-03
   7098.00  3.7383983E-03
   7098.33  3.8007561E-03
   7098.67  3.8652384E-03
   7099.00  3.9319687E-03
   7099.33  4.0014064E-03
   7099.67  4.0734270E-03
   7100.00  4.1481977E-03
   7100.33  4.2263069E-03
   7100.67  4.3076278E-03
   7101.00  4.3923953E-03
   7101.33  4.4813876E-03
   7101.67  4.5744878E-03
   7102.00  4.6720394E-03
   7102.33  4.7751153E-03
   7102.67  4.8836352E-03
   7103.00  4.9981288E-03
   7103.33  5.1201537E-03
   7103.67  5.2497304E-03
   7104.00  5.3877284E-03
   7104.33  5.5365653E-03
   7104.67  5.6965201E-03
   7105.00  5.8691407E-03
   7105.33  6.0585163E-03
   7105.67  6.2656103E-03
   7106.00  6.4934801E-03
   7106.33  6.7498833E-03
   7106.67  7.0377579E-03
   7107.00  7.3640535E-03
   7107.33  7.7459991E-03
   7107.67  8.1931747E-03
   7108.00  8.7248485E-03
   7108.33  9.3891121E-03
   7108.67  1.0224102E-02
   7109.00  1.1301996E-02
   7109.33  1.2814167E-02
   7109.67  1.4980182E-02
   7110.00  1.8231587E-02
   7110.33  2.3830227E-02
   7110.67  3.3297971E-02
   7111.00  4.7618433E-02
   7111.33  6.1615316E-02
   7111.67  6.7129777E-02
   7112.00  6.7429684E-02
   7112.33  6.2873700E-02
   7112.67  5.2255956E-02
   7113.00  4.1139096E-02
   7113.33  3.4796101E-02
   7113.67  3.2490008E-02
   7114.00  3.3526267E-02
   7114.33  3.8348047E-02
   7114.67  4.7325684E-02
   7115.00  6.1872088E-02
   7115.33  8.1530918E-02
   7115.67  9.3070833E-02
   7116.00  9.1422677E-02
   7116.33  8.3971783E-02
   7116.67  7.1630008E-02
   7117.00  5.7941896E-02
   7117.33  4.8020984E-02
   7117.67  4.1494594E-02
   7118.00  3.7283404E-02
   7118.33  3.4676829E-02
   7118.67  3.3089838E-02
   7119.00  3.2344805E-02
   7119.33  3.2375818E-02
   7119.67  3.2819996E-02
   7120.00  3.3354701E-02
   7120.33  3.4056882E-02
   7120.67  3.5263716E-02
   7121.00  3.7191040E-02
   7121.33  4.0166999E-02
   7121.67  4.4297932E-02
   7122.00  4.9695599E-02
   7122.33  5.6419793E-02
   7122.67  6.4300234E-02
   7123.00  7.3730587E-02
   7123.33  8.5349881E-02
   7123.67  9.7939343E-02
   7124.00  1.0970645E-01
   7124.33  1.1980412E-01
   7124.67  1.2981377E-01
   7125.00  1.4067895E-01
   7125.33  1.5233788E-01
   7125.67  1.6471531E-01
   7126.00  1.7828751E-01
   7126.33  1.9310994E-01
   7126.67  2.0876246E-01
   7127.00  2.2547161E-01
   7127.33  2.4395842E-01
   7127.67  2.6431229E-01
   7128.00  2.8648802E-01
   7128.33  3.1045804E-01
   7128.67  3.3590887E-01
   7129.00  3.6327097E-01
   7129.33  3.9472991E-01
   7129.67  4.3258172E-01
   7130.00  4.7875095E-01
   7130.33  5.3415782E-01
   7130.67  5.9320757E-01
   7131.00  6.4690444E-01
   7131.33  6.7820065E-01
   7131.67  6.8078368E-01
   7132.00  6.5942038E-01
   7132.33  6.2787570E-01
   7132.67  6.0014108E-01
   7133.00  5.8157934E-01
   7133.33  5.7458093E-01
   7133.67  5.7599293E-01
   7134.00  5.8358070E-01
   7134.33  5.9570563E-01
   7134.67  6.1018126E-01
   7135.00  6.2574882E-01
   7135.33  6.4133466E-01
   7135.67  6.5654677E-01
   7136.00  6.7163041E-01
   7136.33  6.8741351E-01
   7136.67  7.0474292E-01
   7137.00  7.2427316E-01
   7137.33  7.4659077E-01
   7137.67  7.7082055E-01
   7138.00  7.9557071E-01
   7138.33  8.1771833E-01
   7138.67  8.3363351E-01
   7139.00  8.3973430E-01
   7139.33  8.3138114E-01
   7139.67  8.0979904E-01
   7140.00  7.7713131E-01
   7140.33  7.3692438E-01
   7140.67  6.9478008E-01
   7141.00  6.5404326E-01
   7141.33  6.1756022E-01
   7141.67  5.8573998E-01
   7142.00  5.5860111E-01
   7142.33  5.3632537E-01
   7142.67  5.1786306E-01
   7143.00  5.0276588E-01
   7143.33  4.9091810E-01
   7143.67  4.8155693E-01
   7144.00  4.7440392E-01
   7144.33  4.6945009E-01
   7144.67  4.6625672E-01
   7145.00  4.6468433E-01
   7145.33  4.6477421E-01
   7145.67  4.6623631E-01
   7146.00  4.6899987E-01
   7146.33  4.7312584E-01
   7146.67  4.7834887E-01
   7147.00  4.8454450E-01
   7147.33  4.9163642E-01
   7147.67  4.9932408E-01
   7148.00  5.0740991E-01
   7148.33  5.1564390E-01
   7148.67  5.2371055E-01
   7149.00  5.3133903E-01
   7149.33  5.3812222E-01
   7149.67  5.4386442E-01
   7150.00  5.4835229E-01
   7150.33  5.5121563E-01
   7150.67  5.5252433E-01
   7151.00  5.5225549E-01
   7151.33  5.5028097E-01
   7151.67  5.4693976E-01
   7152.00  5.4241975E-01
   7152.33  5.3688252E-01
   7152.67  5.3074727E-01
   7153.00  5.2427806E-01
   7153.33  5.1775771E-01
   7153.67  5.1144715E-01
   7154.00  5.0553891E-01
   7154.33  5.0031118E-01
   7154.67  4.9587406E-01
   7155.00  4.9236580E-01
   7155.33  4.9001714E-01
   7155.67  4.8867950E-01
   7156.00  4.8819114E-01
   7156.33  4.8822890E-01
   7156.67  4.8819598E-01
   7157.00  4.8760069E-01
   7157.33  4.8585369E-01
   7157.67  4.8286513E-01
   7158.00  4.7868051E-01
   7158.33  4.7347052E-01
   7158.67  4.6779373E-01
   7159.00  4.6208357E-01
   7159.33  4.5689218E-01
   7159.67  4.5259888E-01
   7160.00  4.4951265E-01
   7160.33  4.4809348E-01
   7160.67  4.4834007E-01
   7161.00  4.5034284E-01
   7161.33  4.5436291E-01
   7161.67  4.6015087E-01
   7162.00  4.6764330E-01
   7162.33  4.7692343E-01
   7162.67  4.8763540E-01
   7163.00  4.9961025E-01
   7163.33  5.1273253E-01
   7163.67  5.2657137E-01
   7164.00  5.4082744E-01
   7164.33  5.5512632E-01
   7164.67  5.6905831E-01
   7165.00  5.8227092E-01
   7165.33  5.9423773E-01
   7165.67  6.0476473E-01
   7166.00  6.1363183E-01
   7166.33  6.2045034E-01
   7166.67  6.2540446E-01
   7167.00  6.2855267E-01
   7167.33  6.2985691E-01
   7167.67  6.2977117E-01
   7168.00  6.2855256E-01
   7168.33  6.2642237E-01
   7168.67  6.2380191E-01
   7169.00  6.2094567E-01
   7169.33  6.1811441E-01
   7169.67  6.1551134E-01
   7170.00  6.1326732E-01
   7170.33  6.1153752E-01
   7170.67  6.1030589E-01
   7171.00  6.0956377E-01
   7171.33  6.0930237E-01
   7171.67  6.0934376E-01
   7172.00  6.0953201E-01
