    FDMNES
    energy     <xanes>
   7097.00  4.2142803E-03
   7097.33  4.2991828E-03
   7097.67  4.3872961E-03
   7098.00  4.4788097E-03
   7098.33  4.5744213E-03
   7098.67  4.6739440E-03
   7099.00  4.7776311E-03
   7099.33  4.8863714E-03
   7099.67  4.9999695E-03
   7100.00  5.1187748E-03
   7100.33  5.2439511E-03
   7100.67  5.3753069E-03
   7101.00  5.5133413E-03
   7101.33  5.6596316E-03
   7101.67  5.8140191E-03
   7102.00  5.9772484E-03
   7102.33  6.1515498E-03
   7102.67  6.3368650E-03
   7103.00  6.5343644E-03
   7103.33  6.7473767E-03
   7103.67  6.9761019E-03
   7104.00  7.2225063E-03
   7104.33  7.4919103E-03
   7104.67  7.7851705E-03
   7105.00  8.1058773E-03
   7105.33  8.4633310E-03
   7105.67  8.8601354E-03
   7106.00  9.3036037E-03
   7106.33  9.8120567E-03
   7106.67  1.0393256E-02
   7107.00  1.1064476E-02
   7107.33  1.1868346E-02
   7107.67  1.2830669E-02
   7108.00  1.4001968E-02
   7108.33  1.5509074E-02
   7108.67  1.7460688E-02
   7109.00  2.0062317E-02
   7109.33  2.3871129E-02
   7109.67  2.9579447E-02
   7110.00  3.8563752E-02
   7110.33  5.4750400E-02
   7110.67  8.0923090E-02
   7111.00  1.1065294E-01
   7111.33  1.2225034E-01
   7111.67  1.2513244E-01
   7112.00  1.2882530E-01
   7112.33  1.2939366E-01
   7112.67  1.2194364E-01
   7113.00  1.1032444E-01
   7113.33  1.0227239E-01
   7113.67  9.6332482E-02
   7114.00  8.5224644E-02
   7114.33  6.9569697E-02
   7114.67  5.7468496E-02
   7115.00  5.0437583E-02
   7115.33  4.7369227E-02
   7115.67  4.6450303E-02
   7116.00  4.7066507E-02
   7116.33  4.8996651E-02
   7116.67  5.1797501E-02
   7117.00  5.5096726E-02
   7117.33  5.8383350E-02
   7117.67  6.1522588E-02
   7118.00  6.4853379E-02
   7118.33  6.9011260E-02
   7118.67  7.4331043E-02
   7119.00  8.1099456E-02
   7119.33  8.9882935E-02
   7119.67  1.0086957E-01
   7120.00  1.1449327E-01
   7120.33  1.3174656E-01
   7120.67  1.5278545E-01
   7121.00  1.7787796E-01
   7121.33  2.0732276E-01
   7121.67  2.3982901E-01
   7122.00  2.7432284E-01
   7122.33  3.0934432E-01
   7122.67  3.4336873E-01
   7123.00  3.7584851E-01
   7123.33  4.0717785E-01
   7123.67  4.3823001E-01
   7124.00  4.6920236E-01
   7124.33  5.0006072E-01
   7124.67  5.2982072E-01
   7125.00  5.5550780E-01
   7125.33  5.7107552E-01
   7125.67  5.7629026E-01
   7126.00  5.7545522E-01
   7126.33  5.7658117E-01
   7126.67  5.8442201E-01
   7127.00  5.9908445E-01
   7127.33  6.1783565E-01
   7127.67  6.3778195E-01
   7128.00  6.5935391E-01
   7128.33  6.8386607E-01
   7128.67  7.0990303E-01
   7129.00  7.3548828E-01
   7129.33  7.5924588E-01
   7129.67  7.8202295E-01
   7130.00  8.0444244E-01
   7130.33  8.2491719E-01
   7130.67  8.3963145E-01
   7131.00  8.4456765E-01
   7131.33  8.3599825E-01
   7131.67  8.1750506E-01
   7132.00  7.9338517E-01
   7132.33  7.6889127E-01
   7132.67  7.4778938E-01
   7133.00  7.3161485E-01
   7133.33  7.2107020E-01
   7133.67  7.1420338E-01
   7134.00  7.0935203E-01
   7134.33  7.0487385E-01
   7134.67  6.9979528E-01
   7135.00  6.9394905E-01
   7135.33  6.8758315E-01
   7135.67  6.8122211E-01
   7136.00  6.7514229E-01
   7136.33  6.6946701E-01
   7136.67  6.6404276E-01
   7137.00  6.5871990E-01
   7137.33  6.5332643E-01
   7137.67  6.4774168E-01
   7138.00  6.4187833E-01
   7138.33  6.3560289E-01
   7138.67  6.2888724E-01
   7139.00  6.2168430E-01
   7139.33  6.1389349E-01
   7139.67  6.0556399E-01
   7140.00  5.9670448E-01
   7140.33  5.8731536E-01
   7140.67  5.7760491E-01
   7141.00  5.6779705E-01
   7141.33  5.5828878E-01
   7141.67  5.4945176E-01
   7142.00  5.4158559E-01
   7142.33  5.3509635E-01
   7142.67  5.2998728E-01
   7143.00  5.2631423E-01
   7143.33  5.2423635E-01
   7143.67  5.2348983E-01
   7144.00  5.2395868E-01
   7144.33  5.2559970E-01
   7144.67  5.2807732E-01
   7145.00  5.3119694E-01
   7145.33  5.3476879E-01
   7145.67  5.3849704E-01
   7146.00  5.4217276E-01
   7146.33  5.4552697E-01
   7146.67  5.4838465E-01
   7147.00  5.5059245E-01
   7147.33  5.5191471E-01
   7147.67  5.5235905E-01
   7148.00  5.5187636E-01
   7148.33  5.5033326E-01
   7148.67  5.4788639E-01
   7149.00  5.4459682E-01
   7149.33  5.4045897E-01
   7149.67  5.3566335E-01
   7150.00  5.3028987E-01
   7150.33  5.2435725E-01
   7150.67  5.1798807E-01
   7151.00  5.1121437E-01
   7151.33  5.0400068E-01
   7151.67  4.9638704E-01
   7152.00  4.8835296E-01
   7152.33  4.7981484E-01
   7152.67  4.7081111E-01
   7153.00  4.6133515E-01
   7153.33  4.5132648E-01
   7153.67  4.4085843E-01
   7154.00  4.2996437E-01
   7154.33  4.1866538E-01
   7154.67  4.0709787E-01
   7155.00  3.9535982E-01
   7155.33  3.8359076E-01
   7155.67  3.7196357E-01
   7156.00  3.6063504E-01
   7156.33  3.4984801E-01
   7156.67  3.3971416E-01
   7157.00  3.3036529E-01
   7157.33  3.2204294E-01
   7157.67  3.1472726E-01
   7158.00  3.0847022E-01
   7158.33  3.0343143E-01
   7158.67  2.9946327E-01
   7159.00  2.9653153E-01
   7159.33  2.9469640E-01
   7159.67  2.9375683E-01
   7160.00  2.9363573E-01
   7160.33  2.9432872E-01
   7160.67  2.9565008E-01
   7161.00  2.9752047E-01
   7161.33  2.9990996E-01
   7161.67  3.0267801E-01
   7162.00  3.0575537E-01
   7162.33  3.0908662E-01
   7162.67  3.1255663E-01
   7163.00  3.1609697E-01
   7163.33  3.1963819E-01
   7163.67  3.2312002E-01
   7164.00  3.2650057E-01
   7164.33  3.2973332E-01
   7164.67  3.3282438E-01
   7165.00  3.3577970E-01
   7165.33  3.3860132E-01
   7165.67  3.4132442E-01
   7166.00  3.4396595E-01
   7166.33  3.4653582E-01
   7166.67  3.4905710E-01
   7167.00  3.5154027E-01
   7167.33  3.5399123E-01
   7167.67  3.5642027E-01
   7168.00  3.5883157E-01
   7168.33  3.6122750E-01
   7168.67  3.6361340E-01
   7169.00  3.6599230E-01
   7169.33  3.6836789E-01
   7169.67  3.7074520E-01
   7170.00  3.7312857E-01
   7170.33  3.7552335E-01
   7170.67  3.7792679E-01
   7171.00  3.8032585E-01
   7171.33  3.8266693E-01
   7171.67  3.8483835E-01
   7172.00  3.8666168E-01
