    FDMNES
    energy     <xanes>
   7097.00  4.8804233E-03
   7097.33  4.9954565E-03
   7097.67  5.1158145E-03
   7098.00  5.2418687E-03
   7098.33  5.3748698E-03
   7098.67  5.5145812E-03
   7099.00  5.6615127E-03
   7099.33  5.8173136E-03
   7099.67  5.9817469E-03
   7100.00  6.1555326E-03
   7100.33  6.3409043E-03
   7100.67  6.5376542E-03
   7101.00  6.7468313E-03
   7101.33  6.9715591E-03
   7101.67  7.2117224E-03
   7102.00  7.4689091E-03
   7102.33  7.7476566E-03
   7102.67  8.0480834E-03
   7103.00  8.3727046E-03
   7103.33  8.7284249E-03
   7103.67  9.1159180E-03
   7104.00  9.5393940E-03
   7104.33  1.0009986E-02
   7104.67  1.0529693E-02
   7105.00  1.1106073E-02
   7105.33  1.1758448E-02
   7105.67  1.2492147E-02
   7106.00  1.3322025E-02
   7106.33  1.4285046E-02
   7106.67  1.5395705E-02
   7107.00  1.6687016E-02
   7107.33  1.8239871E-02
   7107.67  2.0098021E-02
   7108.00  2.2348949E-02
   7108.33  2.5208618E-02
   7108.67  2.8838523E-02
   7109.00  3.3543441E-02
   7109.33  4.0117357E-02
   7109.67  4.9412943E-02
   7110.00  6.3083952E-02
   7110.33  8.5805221E-02
   7110.67  1.2245342E-01
   7111.00  1.7543178E-01
   7111.33  2.4253252E-01
   7111.67  3.2390522E-01
   7112.00  4.0871343E-01
   7112.33  4.2148774E-01
   7112.67  3.5990107E-01
   7113.00  2.9764159E-01
   7113.33  2.7486046E-01
   7113.67  2.7283327E-01
   7114.00  2.7342915E-01
   7114.33  2.5867640E-01
   7114.67  2.3628204E-01
   7115.00  2.2553219E-01
   7115.33  2.2625247E-01
   7115.67  2.1843064E-01
   7116.00  2.0478997E-01
   7116.33  1.9323763E-01
   7116.67  1.8005724E-01
   7117.00  1.6562116E-01
   7117.33  1.5514462E-01
   7117.67  1.5041285E-01
   7118.00  1.5056661E-01
   7118.33  1.5245278E-01
   7118.67  1.5150967E-01
   7119.00  1.4588488E-01
   7119.33  1.3709046E-01
   7119.67  1.2865506E-01
   7120.00  1.2190082E-01
   7120.33  1.1697984E-01
   7120.67  1.1321297E-01
   7121.00  1.1057354E-01
   7121.33  1.0943999E-01
   7121.67  1.0964426E-01
   7122.00  1.1104076E-01
   7122.33  1.1370646E-01
   7122.67  1.1766580E-01
   7123.00  1.2317234E-01
   7123.33  1.3065882E-01
   7123.67  1.3974657E-01
   7124.00  1.4996607E-01
   7124.33  1.6117453E-01
   7124.67  1.7400788E-01
   7125.00  1.8943785E-01
   7125.33  2.0795651E-01
   7125.67  2.2760714E-01
   7126.00  2.4631640E-01
   7126.33  2.6249083E-01
   7126.67  2.7719493E-01
   7127.00  2.9223885E-01
   7127.33  3.0966468E-01
   7127.67  3.2965526E-01
   7128.00  3.5209810E-01
   7128.33  3.7727612E-01
   7128.67  4.0441916E-01
   7129.00  4.3275063E-01
   7129.33  4.6220448E-01
   7129.67  4.9370775E-01
   7130.00  5.2848157E-01
   7130.33  5.6784326E-01
   7130.67  6.1064113E-01
   7131.00  6.5494319E-01
   7131.33  6.9752644E-01
   7131.67  7.3603371E-01
   7132.00  7.6935624E-01
   7132.33  7.9696035E-01
   7132.67  8.2071820E-01
   7133.00  8.4207100E-01
   7133.33  8.6221228E-01
   7133.67  8.8151626E-01
   7134.00  8.9907430E-01
   7134.33  9.1227755E-01
   7134.67  9.1886459E-01
   7135.00  9.1657045E-01
   7135.33  9.0273771E-01
   7135.67  8.7933268E-01
   7136.00  8.4819929E-01
   7136.33  8.1143768E-01
   7136.67  7.7239088E-01
   7137.00  7.3309935E-01
   7137.33  6.9564700E-01
   7137.67  6.6114667E-01
   7138.00  6.3032215E-01
   7138.33  6.0413980E-01
   7138.67  5.8218804E-01
   7139.00  5.6433092E-01
   7139.33  5.5070926E-01
   7139.67  5.4043563E-01
   7140.00  5.3313854E-01
   7140.33  5.2874086E-01
   7140.67  5.2659468E-01
   7141.00  5.2649262E-01
   7141.33  5.2850259E-01
   7141.67  5.3227229E-01
   7142.00  5.3770348E-01
   7142.33  5.4482507E-01
   7142.67  5.5320363E-01
   7143.00  5.6254655E-01
   7143.33  5.7250457E-01
   7143.67  5.8256265E-01
   7144.00  5.9237221E-01
   7144.33  6.0156711E-01
   7144.67  6.1007479E-01
   7145.00  6.1789931E-01
   7145.33  6.2507805E-01
   7145.67  6.3183761E-01
   7146.00  6.3830184E-01
   7146.33  6.4454497E-01
   7146.67  6.5061952E-01
   7147.00  6.5648958E-01
   7147.33  6.6201953E-01
   7147.67  6.6711418E-01
   7148.00  6.7165394E-01
   7148.33  6.7543216E-01
   7148.67  6.7844417E-01
   7149.00  6.8063922E-01
   7149.33  6.8187235E-01
   7149.67  6.8223712E-01
   7150.00  6.8173610E-01
   7150.33  6.8026308E-01
   7150.67  6.7791887E-01
   7151.00  6.7468991E-01
   7151.33  6.7044773E-01
   7151.67  6.6530021E-01
   7152.00  6.5925465E-01
   7152.33  6.5222565E-01
   7152.67  6.4436681E-01
   7153.00  6.3573522E-01
   7153.33  6.2632908E-01
   7153.67  6.1633742E-01
   7154.00  6.0586855E-01
   7154.33  5.9499872E-01
   7154.67  5.8387334E-01
   7155.00  5.7257672E-01
   7155.33  5.6120143E-01
   7155.67  5.4986152E-01
   7156.00  5.3865114E-01
   7156.33  5.2771279E-01
   7156.67  5.1712890E-01
   7157.00  5.0699385E-01
   7157.33  4.9748053E-01
   7157.67  4.8861512E-01
   7158.00  4.8047045E-01
   7158.33  4.7321526E-01
   7158.67  4.6680076E-01
   7159.00  4.6125203E-01
   7159.33  4.5668447E-01
   7159.67  4.5297082E-01
   7160.00  4.5007733E-01
   7160.33  4.4804201E-01
   7160.67  4.4669804E-01
   7161.00  4.4597632E-01
   7161.33  4.4585764E-01
   7161.67  4.4619081E-01
   7162.00  4.4691152E-01
   7162.33  4.4799535E-01
   7162.67  4.4934595E-01
   7163.00  4.5091737E-01
   7163.33  4.5268076E-01
   7163.67  4.5457342E-01
   7164.00  4.5656169E-01
   7164.33  4.5860994E-01
   7164.67  4.6066305E-01
   7165.00  4.6267360E-01
   7165.33  4.6456646E-01
   7165.67  4.6628631E-01
   7166.00  4.6777138E-01
   7166.33  4.6891082E-01
   7166.67  4.6967411E-01
   7167.00  4.7000879E-01
   7167.33  4.6980582E-01
   7167.67  4.6909130E-01
   7168.00  4.6785201E-01
   7168.33  4.6603443E-01
   7168.67  4.6373919E-01
   7169.00  4.6100605E-01
   7169.33  4.5784338E-01
   7169.67  4.5436846E-01
   7170.00  4.5065090E-01
   7170.33  4.4676221E-01
   7170.67  4.4282193E-01
   7171.00  4.3892821E-01
   7171.33  4.3524693E-01
   7171.67  4.3195562E-01
   7172.00  4.2928205E-01
