    FDMNES
    energy     <xanes>
   7097.00  4.4390398E-03
   7097.33  4.5286213E-03
   7097.67  4.6216154E-03
   7098.00  4.7182205E-03
   7098.33  4.8191724E-03
   7098.67  4.9242668E-03
   7099.00  5.0337658E-03
   7099.33  5.1485990E-03
   7099.67  5.2685484E-03
   7100.00  5.3939697E-03
   7100.33  5.5260660E-03
   7100.67  5.6646149E-03
   7101.00  5.8101145E-03
   7101.33  5.9641692E-03
   7101.67  6.1265739E-03
   7102.00  6.2980537E-03
   7102.33  6.4808292E-03
   7102.67  6.6747642E-03
   7103.00  6.8809654E-03
   7103.33  7.1026539E-03
   7103.67  7.3398846E-03
   7104.00  7.5944502E-03
   7104.33  7.8713163E-03
   7104.67  8.1710290E-03
   7105.00  8.4967244E-03
   7105.33  8.8566965E-03
   7105.67  9.2527844E-03
   7106.00  9.6910591E-03
   7106.33  1.0186967E-02
   7106.67  1.0746052E-02
   7107.00  1.1381806E-02
   7107.33  1.2127755E-02
   7107.67  1.3001782E-02
   7108.00  1.4040445E-02
   7108.33  1.5335010E-02
   7108.67  1.6955915E-02
   7109.00  1.9037365E-02
   7109.33  2.1934835E-02
   7109.67  2.6051269E-02
   7110.00  3.2179275E-02
   7110.33  4.2612408E-02
   7110.67  5.9864174E-02
   7111.00  8.4649885E-02
   7111.33  1.0835062E-01
   7111.67  1.2240789E-01
   7112.00  1.2842097E-01
   7112.33  1.3156240E-01
   7112.67  1.3173389E-01
   7113.00  1.2238542E-01
   7113.33  1.0202469E-01
   7113.67  8.3329096E-02
   7114.00  7.1628237E-02
   7114.33  6.7148229E-02
   7114.67  6.7585571E-02
   7115.00  7.2253891E-02
   7115.33  8.1008059E-02
   7115.67  9.2515454E-02
   7116.00  1.0606208E-01
   7116.33  1.2142617E-01
   7116.67  1.3819571E-01
   7117.00  1.5703256E-01
   7117.33  1.8110516E-01
   7117.67  2.1238711E-01
   7118.00  2.4932647E-01
   7118.33  2.8128190E-01
   7118.67  2.9756188E-01
   7119.00  2.9824875E-01
   7119.33  2.9158943E-01
   7119.67  2.8672920E-01
   7120.00  2.8700025E-01
   7120.33  2.9347908E-01
   7120.67  3.0318679E-01
   7121.00  3.1290499E-01
   7121.33  3.1911036E-01
   7121.67  3.2157723E-01
   7122.00  3.2151830E-01
   7122.33  3.2026535E-01
   7122.67  3.1834531E-01
   7123.00  3.1585702E-01
   7123.33  3.1386507E-01
   7123.67  3.1379423E-01
   7124.00  3.1615257E-01
   7124.33  3.2080839E-01
   7124.67  3.2780284E-01
   7125.00  3.3885147E-01
   7125.33  3.5723441E-01
   7125.67  3.8285502E-01
   7126.00  4.1467486E-01
   7126.33  4.5244561E-01
   7126.67  4.9539718E-01
   7127.00  5.4201108E-01
   7127.33  5.8616081E-01
   7127.67  6.1980412E-01
   7128.00  6.3902532E-01
   7128.33  6.4609451E-01
   7128.67  6.5091398E-01
   7129.00  6.5907997E-01
   7129.33  6.7258685E-01
   7129.67  6.8757524E-01
   7130.00  6.9953687E-01
   7130.33  7.0270862E-01
   7130.67  6.9538570E-01
   7131.00  6.7835702E-01
   7131.33  6.5617254E-01
   7131.67  6.3589186E-01
   7132.00  6.2101133E-01
   7132.33  6.1317642E-01
   7132.67  6.1065673E-01
   7133.00  6.1225349E-01
   7133.33  6.1620665E-01
   7133.67  6.1952469E-01
   7134.00  6.2016229E-01
   7134.33  6.1644320E-01
   7134.67  6.0892377E-01
   7135.00  5.9846958E-01
   7135.33  5.8639444E-01
   7135.67  5.7410051E-01
   7136.00  5.6206605E-01
   7136.33  5.5055606E-01
   7136.67  5.3979858E-01
   7137.00  5.3015699E-01
   7137.33  5.2217709E-01
   7137.67  5.1582795E-01
   7138.00  5.1107709E-01
   7138.33  5.0794405E-01
   7138.67  5.0601948E-01
   7139.00  5.0510258E-01
   7139.33  5.0517901E-01
   7139.67  5.0625754E-01
   7140.00  5.0861221E-01
   7140.33  5.1264706E-01
   7140.67  5.1788321E-01
   7141.00  5.2356838E-01
   7141.33  5.2850430E-01
   7141.67  5.3195241E-01
   7142.00  5.3371640E-01
   7142.33  5.3396441E-01
   7142.67  5.3351990E-01
   7143.00  5.3293832E-01
   7143.33  5.3273144E-01
   7143.67  5.3314971E-01
   7144.00  5.3437510E-01
   7144.33  5.3672545E-01
   7144.67  5.4023809E-01
   7145.00  5.4498796E-01
   7145.33  5.5110090E-01
   7145.67  5.5826687E-01
   7146.00  5.6623172E-01
   7146.33  5.7458722E-01
   7146.67  5.8266562E-01
   7147.00  5.8980803E-01
   7147.33  5.9492273E-01
   7147.67  5.9736788E-01
   7148.00  5.9653999E-01
   7148.33  5.9166747E-01
   7148.67  5.8345100E-01
   7149.00  5.7255575E-01
   7149.33  5.5987114E-01
   7149.67  5.4671240E-01
   7150.00  5.3385817E-01
   7150.33  5.2200662E-01
   7150.67  5.1129993E-01
   7151.00  5.0176036E-01
   7151.33  4.9344034E-01
   7151.67  4.8611682E-01
   7152.00  4.7976962E-01
   7152.33  4.7458527E-01
   7152.67  4.7055196E-01
   7153.00  4.6777701E-01
   7153.33  4.6650847E-01
   7153.67  4.6657042E-01
   7154.00  4.6786652E-01
   7154.33  4.7032592E-01
   7154.67  4.7355178E-01
   7155.00  4.7727162E-01
   7155.33  4.8115983E-01
   7155.67  4.8485868E-01
   7156.00  4.8810440E-01
   7156.33  4.9054704E-01
   7156.67  4.9207178E-01
   7157.00  4.9255417E-01
   7157.33  4.9177414E-01
   7157.67  4.8987021E-01
   7158.00  4.8691070E-01
   7158.33  4.8294396E-01
   7158.67  4.7831367E-01
   7159.00  4.7325416E-01
   7159.33  4.6802878E-01
   7159.67  4.6290906E-01
   7160.00  4.5806652E-01
   7160.33  4.5369511E-01
   7160.67  4.4982607E-01
   7161.00  4.4649308E-01
   7161.33  4.4377085E-01
   7161.67  4.4157422E-01
   7162.00  4.3987560E-01
   7162.33  4.3869202E-01
   7162.67  4.3792446E-01
   7163.00  4.3754023E-01
   7163.33  4.3755272E-01
   7163.67  4.3789663E-01
   7164.00  4.3855992E-01
   7164.33  4.3956929E-01
   7164.67  4.4087379E-01
   7165.00  4.4245982E-01
   7165.33  4.4433725E-01
   7165.67  4.4644224E-01
   7166.00  4.4874138E-01
   7166.33  4.5120901E-01
   7166.67  4.5377819E-01
   7167.00  4.5640569E-01
   7167.33  4.5904067E-01
   7167.67  4.6162966E-01
   7168.00  4.6412759E-01
   7168.33  4.6646617E-01
   7168.67  4.6861714E-01
   7169.00  4.7054740E-01
   7169.33  4.7219864E-01
   7169.67  4.7358940E-01
   7170.00  4.7472213E-01
   7170.33  4.7558583E-01
   7170.67  4.7624405E-01
   7171.00  4.7673347E-01
   7171.33  4.7708446E-01
   7171.67  4.7735341E-01
   7172.00  4.7756451E-01
