    FDMNES
    energy     <xanes>
   7097.00  4.7855568E-03
   7097.33  4.8910653E-03
   7097.67  5.0010642E-03
   7098.00  5.1158413E-03
   7098.33  5.2364093E-03
   7098.67  5.3625341E-03
   7099.00  5.4946030E-03
   7099.33  5.6339219E-03
   7099.67  5.7802454E-03
   7100.00  5.9341076E-03
   7100.33  6.0972351E-03
   7100.67  6.2693862E-03
   7101.00  6.4513209E-03
   7101.33  6.6453891E-03
   7101.67  6.8513900E-03
   7102.00  7.0704435E-03
   7102.33  7.3058650E-03
   7102.67  7.5575763E-03
   7103.00  7.8273025E-03
   7103.33  8.1199327E-03
   7103.67  8.4357005E-03
   7104.00  8.7774131E-03
   7104.33  9.1526972E-03
   7104.67  9.5625562E-03
   7105.00  1.0011893E-02
   7105.33  1.0513515E-02
   7105.67  1.1070396E-02
   7106.00  1.1691948E-02
   7106.33  1.2401954E-02
   7106.67  1.3208928E-02
   7107.00  1.4133474E-02
   7107.33  1.5226641E-02
   7107.67  1.6515152E-02
   7108.00  1.8053876E-02
   7108.33  1.9979667E-02
   7108.67  2.2396627E-02
   7109.00  2.5504084E-02
   7109.33  2.9831048E-02
   7109.67  3.5978248E-02
   7110.00  4.5135887E-02
   7110.33  6.0796941E-02
   7110.67  8.6990286E-02
   7111.00  1.2409977E-01
   7111.33  1.4642101E-01
   7111.67  1.4828898E-01
   7112.00  1.6005130E-01
   7112.33  1.8355235E-01
   7112.67  1.8528104E-01
   7113.00  1.8618506E-01
   7113.33  2.1517135E-01
   7113.67  2.5181009E-01
   7114.00  2.7761771E-01
   7114.33  2.9875543E-01
   7114.67  3.3018535E-01
   7115.00  3.5813622E-01
   7115.33  3.4954360E-01
   7115.67  2.8968975E-01
   7116.00  2.2403927E-01
   7116.33  1.9331551E-01
   7116.67  1.9397318E-01
   7117.00  2.2115869E-01
   7117.33  2.6356746E-01
   7117.67  2.9910044E-01
   7118.00  3.2041781E-01
   7118.33  3.1524796E-01
   7118.67  2.8349997E-01
   7119.00  2.4352833E-01
   7119.33  2.1277835E-01
   7119.67  1.9239993E-01
   7120.00  1.7960329E-01
   7120.33  1.7122946E-01
   7120.67  1.6493066E-01
   7121.00  1.6039578E-01
   7121.33  1.5694861E-01
   7121.67  1.5335311E-01
   7122.00  1.4957320E-01
   7122.33  1.4700649E-01
   7122.67  1.4703929E-01
   7123.00  1.5037043E-01
   7123.33  1.5726987E-01
   7123.67  1.6659624E-01
   7124.00  1.7767804E-01
   7124.33  1.9002905E-01
   7124.67  2.0285335E-01
   7125.00  2.1549923E-01
   7125.33  2.2742414E-01
   7125.67  2.3897453E-01
   7126.00  2.5057403E-01
   7126.33  2.6244919E-01
   7126.67  2.7473610E-01
   7127.00  2.8818144E-01
   7127.33  3.0512833E-01
   7127.67  3.2737679E-01
   7128.00  3.5573746E-01
   7128.33  3.8972480E-01
   7128.67  4.2567099E-01
   7129.00  4.6021527E-01
   7129.33  4.8965757E-01
   7129.67  5.1406478E-01
   7130.00  5.3517195E-01
   7130.33  5.5557460E-01
   7130.67  5.7687534E-01
   7131.00  5.9914487E-01
   7131.33  6.2190056E-01
   7131.67  6.4474114E-01
   7132.00  6.6770305E-01
   7132.33  6.9099560E-01
   7132.67  7.1440165E-01
   7133.00  7.3737575E-01
   7133.33  7.5883346E-01
   7133.67  7.7804905E-01
   7134.00  7.9440121E-01
   7134.33  8.0684283E-01
   7134.67  8.1534135E-01
   7135.00  8.1978212E-01
   7135.33  8.2009369E-01
   7135.67  8.1764242E-01
   7136.00  8.1343027E-01
   7136.33  8.0847239E-01
   7136.67  8.0353541E-01
   7137.00  7.9869617E-01
   7137.33  7.9334173E-01
   7137.67  7.8639133E-01
   7138.00  7.7663196E-01
   7138.33  7.6228353E-01
   7138.67  7.4319734E-01
   7139.00  7.1955318E-01
   7139.33  6.9204190E-01
   7139.67  6.6292981E-01
   7140.00  6.3398919E-01
   7140.33  6.0727364E-01
   7140.67  5.8373552E-01
   7141.00  5.6385797E-01
   7141.33  5.4816615E-01
   7141.67  5.3593096E-01
   7142.00  5.2679566E-01
   7142.33  5.2060045E-01
   7142.67  5.1656333E-01
   7143.00  5.1436862E-01
   7143.33  5.1391319E-01
   7143.67  5.1474935E-01
   7144.00  5.1666567E-01
   7144.33  5.1949720E-01
   7144.67  5.2283184E-01
   7145.00  5.2635822E-01
   7145.33  5.2963698E-01
   7145.67  5.3225708E-01
   7146.00  5.3385915E-01
   7146.33  5.3394243E-01
   7146.67  5.3251351E-01
   7147.00  5.2961528E-01
   7147.33  5.2537089E-01
   7147.67  5.2039327E-01
   7148.00  5.1515862E-01
   7148.33  5.1024685E-01
   7148.67  5.0606440E-01
   7149.00  5.0286703E-01
   7149.33  5.0094412E-01
   7149.67  5.0016644E-01
   7150.00  5.0046904E-01
   7150.33  5.0184722E-01
   7150.67  5.0403047E-01
   7151.00  5.0688946E-01
   7151.33  5.1036969E-01
   7151.67  5.1431171E-01
   7152.00  5.1865960E-01
   7152.33  5.2340744E-01
   7152.67  5.2846397E-01
   7153.00  5.3378429E-01
   7153.33  5.3933247E-01
   7153.67  5.4501154E-01
   7154.00  5.5075522E-01
   7154.33  5.5649208E-01
   7154.67  5.6216067E-01
   7155.00  5.6771093E-01
   7155.33  5.7306523E-01
   7155.67  5.7819329E-01
   7156.00  5.8305408E-01
   7156.33  5.8756748E-01
   7156.67  5.9173959E-01
   7157.00  5.9555110E-01
   7157.33  5.9894353E-01
   7157.67  6.0196084E-01
   7158.00  6.0460549E-01
   7158.33  6.0683654E-01
   7158.67  6.0870383E-01
   7159.00  6.1020788E-01
   7159.33  6.1129951E-01
   7159.67  6.1201722E-01
   7160.00  6.1235277E-01
   7160.33  6.1224806E-01
   7160.67  6.1174596E-01
   7161.00  6.1084551E-01
   7161.33  6.0950229E-01
   7161.67  6.0777661E-01
   7162.00  6.0568306E-01
   7162.33  6.0320064E-01
   7162.67  6.0039907E-01
   7163.00  5.9730329E-01
   7163.33  5.9391004E-01
   7163.67  5.9028153E-01
   7164.00  5.8644182E-01
   7164.33  5.8239119E-01
   7164.67  5.7817100E-01
   7165.00  5.7379299E-01
   7165.33  5.6924794E-01
   7165.67  5.6456104E-01
   7166.00  5.5973647E-01
   7166.33  5.5476141E-01
   7166.67  5.4965865E-01
   7167.00  5.4443607E-01
   7167.33  5.3909112E-01
   7167.67  5.3365040E-01
   7168.00  5.2812623E-01
   7168.33  5.2252227E-01
   7168.67  5.1685622E-01
   7169.00  5.1113414E-01
   7169.33  5.0535724E-01
   7169.67  4.9954237E-01
   7170.00  4.9370517E-01
   7170.33  4.8787905E-01
   7170.67  4.8211961E-01
   7171.00  4.7650556E-01
   7171.33  4.7122375E-01
   7171.67  4.6649204E-01
   7172.00  4.6262241E-01
