    FDMNES
    energy     <xanes>
   7097.00  4.9056723E-03
   7097.33  5.0192351E-03
   7097.67  5.1378300E-03
   7098.00  5.2617912E-03
   7098.33  5.3922726E-03
   7098.67  5.5290274E-03
   7099.00  5.6725085E-03
   7099.33  5.8242171E-03
   7099.67  5.9838978E-03
   7100.00  6.1521811E-03
   7100.33  6.3310697E-03
   7100.67  6.5203202E-03
   7101.00  6.7208368E-03
   7101.33  6.9353725E-03
   7101.67  7.1637421E-03
   7102.00  7.4072893E-03
   7102.33  7.6699359E-03
   7102.67  7.9516577E-03
   7103.00  8.2545384E-03
   7103.33  8.5844136E-03
   7103.67  8.9416508E-03
   7104.00  9.3296549E-03
   7104.33  9.7575905E-03
   7104.67  1.0226762E-02
   7105.00  1.0743110E-02
   7105.33  1.1322047E-02
   7105.67  1.1967199E-02
   7106.00  1.2689842E-02
   7106.33  1.3518343E-02
   7106.67  1.4462548E-02
   7107.00  1.5546438E-02
   7107.33  1.6829116E-02
   7107.67  1.8339452E-02
   7108.00  2.0137449E-02
   7108.33  2.2370860E-02
   7108.67  2.5140630E-02
   7109.00  2.8639877E-02
   7109.33  3.3364209E-02
   7109.67  3.9803660E-02
   7110.00  4.8903464E-02
   7110.33  6.3326749E-02
   7110.67  8.6221647E-02
   7111.00  1.2112937E-01
   7111.33  1.6848550E-01
   7111.67  2.1741984E-01
   7112.00  2.6638050E-01
   7112.33  3.3283513E-01
   7112.67  3.9607576E-01
   7113.00  4.1823011E-01
   7113.33  3.9528254E-01
   7113.67  3.4212476E-01
   7114.00  2.6749484E-01
   7114.33  2.0557764E-01
   7114.67  1.6918987E-01
   7115.00  1.5506530E-01
   7115.33  1.6109584E-01
   7115.67  1.8207946E-01
   7116.00  2.1184667E-01
   7116.33  2.3810891E-01
   7116.67  2.6013891E-01
   7117.00  2.8167304E-01
   7117.33  2.8274400E-01
   7117.67  2.5247795E-01
   7118.00  2.1005645E-01
   7118.33  1.7609974E-01
   7118.67  1.5226508E-01
   7119.00  1.3654694E-01
   7119.33  1.2728800E-01
   7119.67  1.2187756E-01
   7120.00  1.1883625E-01
   7120.33  1.1728567E-01
   7120.67  1.1739699E-01
   7121.00  1.1994042E-01
   7121.33  1.2584694E-01
   7121.67  1.3461895E-01
   7122.00  1.4565593E-01
   7122.33  1.5818706E-01
   7122.67  1.7132257E-01
   7123.00  1.8493471E-01
   7123.33  1.9958336E-01
   7123.67  2.1588085E-01
   7124.00  2.3430438E-01
   7124.33  2.5496732E-01
   7124.67  2.7630053E-01
   7125.00  2.9632897E-01
   7125.33  3.1233440E-01
   7125.67  3.2396833E-01
   7126.00  3.3224518E-01
   7126.33  3.3943047E-01
   7126.67  3.4813711E-01
   7127.00  3.6010516E-01
   7127.33  3.7750546E-01
   7127.67  4.0084795E-01
   7128.00  4.3061795E-01
   7128.33  4.6733658E-01
   7128.67  5.0889140E-01
   7129.00  5.5338312E-01
   7129.33  5.9846103E-01
   7129.67  6.4223990E-01
   7130.00  6.8406077E-01
   7130.33  7.2395677E-01
   7130.67  7.6277237E-01
   7131.00  8.0052181E-01
   7131.33  8.3567445E-01
   7131.67  8.6611757E-01
   7132.00  8.8953123E-01
   7132.33  9.0278780E-01
   7132.67  9.0641706E-01
   7133.00  9.0116965E-01
   7133.33  8.8852780E-01
   7133.67  8.7253672E-01
   7134.00  8.5568511E-01
   7134.33  8.3935225E-01
   7134.67  8.2266684E-01
   7135.00  8.0388869E-01
   7135.33  7.8107483E-01
   7135.67  7.5498093E-01
   7136.00  7.2711788E-01
   7136.33  6.9965554E-01
   7136.67  6.7421179E-01
   7137.00  6.5159102E-01
   7137.33  6.3246374E-01
   7137.67  6.1625314E-01
   7138.00  6.0263045E-01
   7138.33  5.9150094E-01
   7138.67  5.8233516E-01
   7139.00  5.7502224E-01
   7139.33  5.6974118E-01
   7139.67  5.6623844E-01
   7140.00  5.6445778E-01
   7140.33  5.6447068E-01
   7140.67  5.6589509E-01
   7141.00  5.6856170E-01
   7141.33  5.7244238E-01
   7141.67  5.7730765E-01
   7142.00  5.8312181E-01
   7142.33  5.8994240E-01
   7142.67  5.9748169E-01
   7143.00  6.0540495E-01
   7143.33  6.1301116E-01
   7143.67  6.1939692E-01
   7144.00  6.2363999E-01
   7144.33  6.2435964E-01
   7144.67  6.2132784E-01
   7145.00  6.1448334E-01
   7145.33  6.0389937E-01
   7145.67  5.9090515E-01
   7146.00  5.7647690E-01
   7146.33  5.6174773E-01
   7146.67  5.4776409E-01
   7147.00  5.3517610E-01
   7147.33  5.2466931E-01
   7147.67  5.1620644E-01
   7148.00  5.0978287E-01
   7148.33  5.0547486E-01
   7148.67  5.0282434E-01
   7149.00  5.0163851E-01
   7149.33  5.0186593E-01
   7149.67  5.0316147E-01
   7150.00  5.0538110E-01
   7150.33  5.0847039E-01
   7150.67  5.1219405E-01
   7151.00  5.1643836E-01
   7151.33  5.2112397E-01
   7151.67  5.2607895E-01
   7152.00  5.3120368E-01
   7152.33  5.3640144E-01
   7152.67  5.4157419E-01
   7153.00  5.4665757E-01
   7153.33  5.5157834E-01
   7153.67  5.5632172E-01
   7154.00  5.6087221E-01
   7154.33  5.6519221E-01
   7154.67  5.6929165E-01
   7155.00  5.7314808E-01
   7155.33  5.7668722E-01
   7155.67  5.7989255E-01
   7156.00  5.8271252E-01
   7156.33  5.8502925E-01
   7156.67  5.8684181E-01
   7157.00  5.8811063E-01
   7157.33  5.8873290E-01
   7157.67  5.8876751E-01
   7158.00  5.8821698E-01
   7158.33  5.8702578E-01
   7158.67  5.8529043E-01
   7159.00  5.8303717E-01
   7159.33  5.8023749E-01
   7159.67  5.7698310E-01
   7160.00  5.7329652E-01
   7160.33  5.6914599E-01
   7160.67  5.6459998E-01
   7161.00  5.5967286E-01
   7161.33  5.5433705E-01
   7161.67  5.4865963E-01
   7162.00  5.4266409E-01
   7162.33  5.3635076E-01
   7162.67  5.2980088E-01
   7163.00  5.2305876E-01
   7163.33  5.1616178E-01
   7163.67  5.0918280E-01
   7164.00  5.0216856E-01
   7164.33  4.9516989E-01
   7164.67  4.8822561E-01
   7165.00  4.8136467E-01
   7165.33  4.7462906E-01
   7165.67  4.6802824E-01
   7166.00  4.6158073E-01
   7166.33  4.5533047E-01
   7166.67  4.4927820E-01
   7167.00  4.4344208E-01
   7167.33  4.3787245E-01
   7167.67  4.3256469E-01
   7168.00  4.2753603E-01
   7168.33  4.2283030E-01
   7168.67  4.1841258E-01
   7169.00  4.1428148E-01
   7169.33  4.1046975E-01
   7169.67  4.0693828E-01
   7170.00  4.0368377E-01
   7170.33  4.0073998E-01
   7170.67  3.9807642E-01
   7171.00  3.9570079E-01
   7171.33  3.9366630E-01
   7171.67  3.9196022E-01
   7172.00  3.9060898E-01
