    FDMNES
    energy     <xanes>
   7097.00  4.8673847E-03
   7097.33  4.9790230E-03
   7097.67  5.0956504E-03
   7098.00  5.2176046E-03
   7098.33  5.3460407E-03
   7098.67  5.4807236E-03
   7099.00  5.6221144E-03
   7099.33  5.7717258E-03
   7099.67  5.9293186E-03
   7100.00  6.0955402E-03
   7100.33  6.2724241E-03
   7100.67  6.4597519E-03
   7101.00  6.6584610E-03
   7101.33  6.8713736E-03
   7101.67  7.0983458E-03
   7102.00  7.3407870E-03
   7102.33  7.6027645E-03
   7102.67  7.8843287E-03
   7103.00  8.1876962E-03
   7103.33  8.5190050E-03
   7103.67  8.8787717E-03
   7104.00  9.2706799E-03
   7104.33  9.7045372E-03
   7104.67  1.0181977E-02
   7105.00  1.0709558E-02
   7105.33  1.1304136E-02
   7105.67  1.1970142E-02
   7106.00  1.2720346E-02
   7106.33  1.3586635E-02
   7106.67  1.4581101E-02
   7107.00  1.5731802E-02
   7107.33  1.7107619E-02
   7107.67  1.8744865E-02
   7108.00  2.0716888E-02
   7108.33  2.3204712E-02
   7108.67  2.6341051E-02
   7109.00  3.0377287E-02
   7109.33  3.5966778E-02
   7109.67  4.3801298E-02
   7110.00  5.5224139E-02
   7110.33  7.4059971E-02
   7110.67  1.0461134E-01
   7111.00  1.4984668E-01
   7111.33  2.0343666E-01
   7111.67  2.5586462E-01
   7112.00  3.0751572E-01
   7112.33  3.4899610E-01
   7112.67  3.8636104E-01
   7113.00  4.0779273E-01
   7113.33  3.6797190E-01
   7113.67  2.9131089E-01
   7114.00  2.1902227E-01
   7114.33  1.7404024E-01
   7114.67  1.5171590E-01
   7115.00  1.4555849E-01
   7115.33  1.5125939E-01
   7115.67  1.6630671E-01
   7116.00  1.8351936E-01
   7116.33  1.8315836E-01
   7116.67  1.6557204E-01
   7117.00  1.4438237E-01
   7117.33  1.3009065E-01
   7117.67  1.2270501E-01
   7118.00  1.2026533E-01
   7118.33  1.2023131E-01
   7118.67  1.2070071E-01
   7119.00  1.2156674E-01
   7119.33  1.2206189E-01
   7119.67  1.2107857E-01
   7120.00  1.1906814E-01
   7120.33  1.1794108E-01
   7120.67  1.1891772E-01
   7121.00  1.2242790E-01
   7121.33  1.2885323E-01
   7121.67  1.3783818E-01
   7122.00  1.4958821E-01
   7122.33  1.6516197E-01
   7122.67  1.8479206E-01
   7123.00  2.0837745E-01
   7123.33  2.3524571E-01
   7123.67  2.6358981E-01
   7124.00  2.9207532E-01
   7124.33  3.1860054E-01
   7124.67  3.4076962E-01
   7125.00  3.5610209E-01
   7125.33  3.6184853E-01
   7125.67  3.5996452E-01
   7126.00  3.5349102E-01
   7126.33  3.4779125E-01
   7126.67  3.4781036E-01
   7127.00  3.5619789E-01
   7127.33  3.7515142E-01
   7127.67  4.0291528E-01
   7128.00  4.3780912E-01
   7128.33  4.7687986E-01
   7128.67  5.1561452E-01
   7129.00  5.5157742E-01
   7129.33  5.8369357E-01
   7129.67  6.1311492E-01
   7130.00  6.4044588E-01
   7130.33  6.6592877E-01
   7130.67  6.9024028E-01
   7131.00  7.1373814E-01
   7131.33  7.3617296E-01
   7131.67  7.5659532E-01
   7132.00  7.7360849E-01
   7132.33  7.8555834E-01
   7132.67  7.9368126E-01
   7133.00  8.0007179E-01
   7133.33  8.0765551E-01
   7133.67  8.1757441E-01
   7134.00  8.2902479E-01
   7134.33  8.3947789E-01
   7134.67  8.4651583E-01
   7135.00  8.4854150E-01
   7135.33  8.4351076E-01
   7135.67  8.3176822E-01
   7136.00  8.1403882E-01
   7136.33  7.9196497E-01
   7136.67  7.6862178E-01
   7137.00  7.4577076E-01
   7137.33  7.2469649E-01
   7137.67  7.0547792E-01
   7138.00  6.8808504E-01
   7138.33  6.7274365E-01
   7138.67  6.5934337E-01
   7139.00  6.4803196E-01
   7139.33  6.3924987E-01
   7139.67  6.3280805E-01
   7140.00  6.2870899E-01
   7140.33  6.2714180E-01
   7140.67  6.2762478E-01
   7141.00  6.2988651E-01
   7141.33  6.3363932E-01
   7141.67  6.3810519E-01
   7142.00  6.4263815E-01
   7142.33  6.4627877E-01
   7142.67  6.4821755E-01
   7143.00  6.4771544E-01
   7143.33  6.4369149E-01
   7143.67  6.3616860E-01
   7144.00  6.2516694E-01
   7144.33  6.1073853E-01
   7144.67  5.9406413E-01
   7145.00  5.7600655E-01
   7145.33  5.5752854E-01
   7145.67  5.3954701E-01
   7146.00  5.2267874E-01
   7146.33  5.0768115E-01
   7146.67  4.9469330E-01
   7147.00  4.8386535E-01
   7147.33  4.7550795E-01
   7147.67  4.6924554E-01
   7148.00  4.6491501E-01
   7148.33  4.6251149E-01
   7148.67  4.6160842E-01
   7149.00  4.6203835E-01
   7149.33  4.6376515E-01
   7149.67  4.6647371E-01
   7150.00  4.7002318E-01
   7150.33  4.7433798E-01
   7150.67  4.7917184E-01
   7151.00  4.8438572E-01
   7151.33  4.8985272E-01
   7151.67  4.9540079E-01
   7152.00  5.0091769E-01
   7152.33  5.0627150E-01
   7152.67  5.1138440E-01
   7153.00  5.1618789E-01
   7153.33  5.2057524E-01
   7153.67  5.2455190E-01
   7154.00  5.2809503E-01
   7154.33  5.3113169E-01
   7154.67  5.3370698E-01
   7155.00  5.3581220E-01
   7155.33  5.3737632E-01
   7155.67  5.3844761E-01
   7156.00  5.3901615E-01
   7156.33  5.3900974E-01
   7156.67  5.3849075E-01
   7157.00  5.3746608E-01
   7157.33  5.3589514E-01
   7157.67  5.3387309E-01
   7158.00  5.3144090E-01
   7158.33  5.2861431E-01
   7158.67  5.2550756E-01
   7159.00  5.2218771E-01
   7159.33  5.1872104E-01
   7159.67  5.1520730E-01
   7160.00  5.1171527E-01
   7160.33  5.0832932E-01
   7160.67  5.0509953E-01
   7161.00  5.0206923E-01
   7161.33  4.9930594E-01
   7161.67  4.9679912E-01
   7162.00  4.9454707E-01
   7162.33  4.9255913E-01
   7162.67  4.9076980E-01
   7163.00  4.8913617E-01
   7163.33  4.8761182E-01
   7163.67  4.8612362E-01
   7164.00  4.8462128E-01
   7164.33  4.8304462E-01
   7164.67  4.8136099E-01
   7165.00  4.7954738E-01
   7165.33  4.7757500E-01
   7165.67  4.7546565E-01
   7166.00  4.7323326E-01
   7166.33  4.7089044E-01
   7166.67  4.6847826E-01
   7167.00  4.6601984E-01
   7167.33  4.6353388E-01
   7167.67  4.6103887E-01
   7168.00  4.5854288E-01
   7168.33  4.5605224E-01
   7168.67  4.5357420E-01
   7169.00  4.5111428E-01
   7169.33  4.4868012E-01
   7169.67  4.4627923E-01
   7170.00  4.4392516E-01
   7170.33  4.4164666E-01
   7170.67  4.3946139E-01
   7171.00  4.3739778E-01
   7171.33  4.3552191E-01
   7171.67  4.3388206E-01
   7172.00  4.3255895E-01
