    FDMNES
    energy     <xanes>
   7097.00  4.7669882E-03
   7097.33  4.8769787E-03
   7097.67  4.9918600E-03
   7098.00  5.1119634E-03
   7098.33  5.2384223E-03
   7098.67  5.3710075E-03
   7099.00  5.5101732E-03
   7099.33  5.6574070E-03
   7099.67  5.8124788E-03
   7100.00  5.9760296E-03
   7100.33  6.1500671E-03
   7100.67  6.3343876E-03
   7101.00  6.5299265E-03
   7101.33  6.7394862E-03
   7101.67  6.9629494E-03
   7102.00  7.2017362E-03
   7102.33  7.4599205E-03
   7102.67  7.7376044E-03
   7103.00  8.0370509E-03
   7103.33  8.3644818E-03
   7103.67  8.7205257E-03
   7104.00  9.1090070E-03
   7104.33  9.5400315E-03
   7104.67  1.0015500E-02
   7105.00  1.0542371E-02
   7105.33  1.1138399E-02
   7105.67  1.1808729E-02
   7106.00  1.2567291E-02
   7106.33  1.3448672E-02
   7106.67  1.4467131E-02
   7107.00  1.5654394E-02
   7107.33  1.7088165E-02
   7107.67  1.8812562E-02
   7108.00  2.0914537E-02
   7108.33  2.3609454E-02
   7108.67  2.7066208E-02
   7109.00  3.1602395E-02
   7109.33  3.8054092E-02
   7109.67  4.7361744E-02
   7110.00  6.1362676E-02
   7110.33  8.5319071E-02
   7110.67  1.2473154E-01
   7111.00  1.8065553E-01
   7111.33  2.3780687E-01
   7111.67  2.8791253E-01
   7112.00  3.3762954E-01
   7112.33  3.7398829E-01
   7112.67  3.6282900E-01
   7113.00  3.0498097E-01
   7113.33  2.3437078E-01
   7113.67  1.7990120E-01
   7114.00  1.4426532E-01
   7114.33  1.2327070E-01
   7114.67  1.0876826E-01
   7115.00  9.9019379E-02
   7115.33  9.3239792E-02
   7115.67  8.7885355E-02
   7116.00  8.2625979E-02
   7116.33  7.8951420E-02
   7116.67  7.7514036E-02
   7117.00  7.8608231E-02
   7117.33  8.2534414E-02
   7117.67  8.8435421E-02
   7118.00  9.5472569E-02
   7118.33  1.0291686E-01
   7118.67  1.1081482E-01
   7119.00  1.1922956E-01
   7119.33  1.2695028E-01
   7119.67  1.3270186E-01
   7120.00  1.3600903E-01
   7120.33  1.3742367E-01
   7120.67  1.3920340E-01
   7121.00  1.4321652E-01
   7121.33  1.5166089E-01
   7121.67  1.6563683E-01
   7122.00  1.8672697E-01
   7122.33  2.1768815E-01
   7122.67  2.5807550E-01
   7123.00  3.0748578E-01
   7123.33  3.6383658E-01
   7123.67  4.1836309E-01
   7124.00  4.6148062E-01
   7124.33  4.8402898E-01
   7124.67  4.9008248E-01
   7125.00  4.8518912E-01
   7125.33  4.7500113E-01
   7125.67  4.6489067E-01
   7126.00  4.5847507E-01
   7126.33  4.6034788E-01
   7126.67  4.7153323E-01
   7127.00  4.9172707E-01
   7127.33  5.2079846E-01
   7127.67  5.5791627E-01
   7128.00  6.0324250E-01
   7128.33  6.5476502E-01
   7128.67  7.0517145E-01
   7129.00  7.4780582E-01
   7129.33  7.7717178E-01
   7129.67  7.9660207E-01
   7130.00  8.1007877E-01
   7130.33  8.2088599E-01
   7130.67  8.2978906E-01
   7131.00  8.3530351E-01
   7131.33  8.3573208E-01
   7131.67  8.3285061E-01
   7132.00  8.2867499E-01
   7132.33  8.2436945E-01
   7132.67  8.1920982E-01
   7133.00  8.1229360E-01
   7133.33  8.0371190E-01
   7133.67  7.9482791E-01
   7134.00  7.8621902E-01
   7134.33  7.7809817E-01
   7134.67  7.7090094E-01
   7135.00  7.6518050E-01
   7135.33  7.6098728E-01
   7135.67  7.5711766E-01
   7136.00  7.5258118E-01
   7136.33  7.4663250E-01
   7136.67  7.3948751E-01
   7137.00  7.3145750E-01
   7137.33  7.2286715E-01
   7137.67  7.1402330E-01
   7138.00  7.0495010E-01
   7138.33  6.9544128E-01
   7138.67  6.8533763E-01
   7139.00  6.7454867E-01
   7139.33  6.6304779E-01
   7139.67  6.5109192E-01
   7140.00  6.3888766E-01
   7140.33  6.2668397E-01
   7140.67  6.1468487E-01
   7141.00  6.0300925E-01
   7141.33  5.9177230E-01
   7141.67  5.8088160E-01
   7142.00  5.7022433E-01
   7142.33  5.5963736E-01
   7142.67  5.4893999E-01
   7143.00  5.3801236E-01
   7143.33  5.2673963E-01
   7143.67  5.1517284E-01
   7144.00  5.0339878E-01
   7144.33  4.9159045E-01
   7144.67  4.7998393E-01
   7145.00  4.6879724E-01
   7145.33  4.5835865E-01
   7145.67  4.4879499E-01
   7146.00  4.4024154E-01
   7146.33  4.3292438E-01
   7146.67  4.2671538E-01
   7147.00  4.2156356E-01
   7147.33  4.1746112E-01
   7147.67  4.1411647E-01
   7148.00  4.1136135E-01
   7148.33  4.0905789E-01
   7148.67  4.0701174E-01
   7149.00  4.0514784E-01
   7149.33  4.0344502E-01
   7149.67  4.0187678E-01
   7150.00  4.0044893E-01
   7150.33  3.9918930E-01
   7150.67  3.9808274E-01
   7151.00  3.9712755E-01
   7151.33  3.9633994E-01
   7151.67  3.9570572E-01
   7152.00  3.9523817E-01
   7152.33  3.9498761E-01
   7152.67  3.9496089E-01
   7153.00  3.9517904E-01
   7153.33  3.9567940E-01
   7153.67  3.9640782E-01
   7154.00  3.9731810E-01
   7154.33  3.9833997E-01
   7154.67  3.9935787E-01
   7155.00  4.0027697E-01
   7155.33  4.0096579E-01
   7155.67  4.0135982E-01
   7156.00  4.0140125E-01
   7156.33  4.0100272E-01
   7156.67  4.0020972E-01
   7157.00  3.9904775E-01
   7157.33  3.9753746E-01
   7157.67  3.9580201E-01
   7158.00  3.9392718E-01
   7158.33  3.9201601E-01
   7158.67  3.9017965E-01
   7159.00  3.8850534E-01
   7159.33  3.8711608E-01
   7159.67  3.8605515E-01
   7160.00  3.8537210E-01
   7160.33  3.8515942E-01
   7160.67  3.8538485E-01
   7161.00  3.8604991E-01
   7161.33  3.8719035E-01
   7161.67  3.8871116E-01
   7162.00  3.9055741E-01
   7162.33  3.9267364E-01
   7162.67  3.9492599E-01
   7163.00  3.9721999E-01
   7163.33  3.9943859E-01
   7163.67  4.0149034E-01
   7164.00  4.0330260E-01
   7164.33  4.0477230E-01
   7164.67  4.0589540E-01
   7165.00  4.0665487E-01
   7165.33  4.0700713E-01
   7165.67  4.0701890E-01
   7166.00  4.0672105E-01
   7166.33  4.0612762E-01
   7166.67  4.0532590E-01
   7167.00  4.0436511E-01
   7167.33  4.0328862E-01
   7167.67  4.0216161E-01
   7168.00  4.0102461E-01
   7168.33  3.9992282E-01
   7168.67  3.9888739E-01
   7169.00  3.9794379E-01
   7169.33  3.9713192E-01
   7169.67  3.9645852E-01
   7170.00  3.9593884E-01
   7170.33  3.9560701E-01
   7170.67  3.9544821E-01
   7171.00  3.9545847E-01
   7171.33  3.9563342E-01
   7171.67  3.9589890E-01
   7172.00  3.9617237E-01
