    FDMNES
    energy     <xanes>
   7097.00  4.2595161E-03
   7097.33  4.3518206E-03
   7097.67  4.4480143E-03
   7098.00  4.5483447E-03
   7098.33  4.6536847E-03
   7098.67  4.7638283E-03
   7099.00  4.8791066E-03
   7099.33  5.0006416E-03
   7099.67  5.1282149E-03
   7100.00  5.2622802E-03
   7100.33  5.4043134E-03
   7100.67  5.5540944E-03
   7101.00  5.7122628E-03
   7101.33  5.8808125E-03
   7101.67  6.0595478E-03
   7102.00  6.2493995E-03
   7102.33  6.4531496E-03
   7102.67  6.6706837E-03
   7103.00  6.9034099E-03
   7103.33  7.1553640E-03
   7103.67  7.4266404E-03
   7104.00  7.7194720E-03
   7104.33  8.0400022E-03
   7104.67  8.3888292E-03
   7105.00  8.7697084E-03
   7105.33  9.1925815E-03
   7105.67  9.6592785E-03
   7106.00  1.0176618E-02
   7106.33  1.0762042E-02
   7106.67  1.1420598E-02
   7107.00  1.2166034E-02
   7107.33  1.3032619E-02
   7107.67  1.4034933E-02
   7108.00  1.5205346E-02
   7108.33  1.6623978E-02
   7108.67  1.8340659E-02
   7109.00  2.0453991E-02
   7109.33  2.3217887E-02
   7109.67  2.6875222E-02
   7110.00  3.1902068E-02
   7110.33  3.9616220E-02
   7110.67  5.1168739E-02
   7111.00  6.6334242E-02
   7111.33  8.2558040E-02
   7111.67  1.0123225E-01
   7112.00  1.2226513E-01
   7112.33  1.5293909E-01
   7112.67  2.0576908E-01
   7113.00  2.8939066E-01
   7113.33  3.8996389E-01
   7113.67  4.3584996E-01
   7114.00  3.8034939E-01
   7114.33  2.7829939E-01
   7114.67  2.1312549E-01
   7115.00  1.9040036E-01
   7115.33  2.0354416E-01
   7115.67  2.3886495E-01
   7116.00  2.8590661E-01
   7116.33  3.0651556E-01
   7116.67  2.6443462E-01
   7117.00  1.9183318E-01
   7117.33  1.3848199E-01
   7117.67  1.0579641E-01
   7118.00  8.6805537E-02
   7118.33  7.6830946E-02
   7118.67  7.2152893E-02
   7119.00  7.1855638E-02
   7119.33  7.5979931E-02
   7119.67  8.3166004E-02
   7120.00  9.2090582E-02
   7120.33  1.0095844E-01
   7120.67  1.0852555E-01
   7121.00  1.1542560E-01
   7121.33  1.2254430E-01
   7121.67  1.2949995E-01
   7122.00  1.3624133E-01
   7122.33  1.4437677E-01
   7122.67  1.5591641E-01
   7123.00  1.7155472E-01
   7123.33  1.9027225E-01
   7123.67  2.0988995E-01
   7124.00  2.2903079E-01
   7124.33  2.4639664E-01
   7124.67  2.6303632E-01
   7125.00  2.7944768E-01
   7125.33  2.9434931E-01
   7125.67  3.0930876E-01
   7126.00  3.2847071E-01
   7126.33  3.5581985E-01
   7126.67  3.8768555E-01
   7127.00  4.1648378E-01
   7127.33  4.2948239E-01
   7127.67  4.2603105E-01
   7128.00  4.1481280E-01
   7128.33  4.0886534E-01
   7128.67  4.1270157E-01
   7129.00  4.2437398E-01
   7129.33  4.3872673E-01
   7129.67  4.5106828E-01
   7130.00  4.6021577E-01
   7130.33  4.6654070E-01
   7130.67  4.7134176E-01
   7131.00  4.7484504E-01
   7131.33  4.7633859E-01
   7131.67  4.7544226E-01
   7132.00  4.7234046E-01
   7132.33  4.6806926E-01
   7132.67  4.6394720E-01
   7133.00  4.6068380E-01
   7133.33  4.5901737E-01
   7133.67  4.5862257E-01
   7134.00  4.5883875E-01
   7134.33  4.5882757E-01
   7134.67  4.5813219E-01
   7135.00  4.5661225E-01
   7135.33  4.5414225E-01
   7135.67  4.5083419E-01
   7136.00  4.4672590E-01
   7136.33  4.4192403E-01
   7136.67  4.3688122E-01
   7137.00  4.3200081E-01
   7137.33  4.2780151E-01
   7137.67  4.2454808E-01
   7138.00  4.2242260E-01
   7138.33  4.2168758E-01
   7138.67  4.2219821E-01
   7139.00  4.2388647E-01
   7139.33  4.2677556E-01
   7139.67  4.3070370E-01
   7140.00  4.3573721E-01
   7140.33  4.4220867E-01
   7140.67  4.5023775E-01
   7141.00  4.6013273E-01
   7141.33  4.7253674E-01
   7141.67  4.8742041E-01
   7142.00  5.0480855E-01
   7142.33  5.2470593E-01
   7142.67  5.4621737E-01
   7143.00  5.6857874E-01
   7143.33  5.9066784E-01
   7143.67  6.1133952E-01
   7144.00  6.2967258E-01
   7144.33  6.4450381E-01
   7144.67  6.5592059E-01
   7145.00  6.6407160E-01
   7145.33  6.6916787E-01
   7145.67  6.7233083E-01
   7146.00  6.7422624E-01
   7146.33  6.7533176E-01
   7146.67  6.7598929E-01
   7147.00  6.7619878E-01
   7147.33  6.7576293E-01
   7147.67  6.7465036E-01
   7148.00  6.7288431E-01
   7148.33  6.7060390E-01
   7148.67  6.6821974E-01
   7149.00  6.6611724E-01
   7149.33  6.6487922E-01
   7149.67  6.6487442E-01
   7150.00  6.6642846E-01
   7150.33  6.6999145E-01
   7150.67  6.7537730E-01
   7151.00  6.8246725E-01
   7151.33  6.9111343E-01
   7151.67  7.0063726E-01
   7152.00  7.1049772E-01
   7152.33  7.1999689E-01
   7152.67  7.2862838E-01
   7153.00  7.3612179E-01
   7153.33  7.4231515E-01
   7153.67  7.4760922E-01
   7154.00  7.5233651E-01
   7154.33  7.5684163E-01
   7154.67  7.6139136E-01
   7155.00  7.6606117E-01
   7155.33  7.7081450E-01
   7155.67  7.7549541E-01
   7156.00  7.7993012E-01
   7156.33  7.8382968E-01
   7156.67  7.8701514E-01
   7157.00  7.8928746E-01
   7157.33  7.9029511E-01
   7157.67  7.9000341E-01
   7158.00  7.8829834E-01
   7158.33  7.8490701E-01
   7158.67  7.7998591E-01
   7159.00  7.7355379E-01
   7159.33  7.6550394E-01
   7159.67  7.5613665E-01
   7160.00  7.4558192E-01
   7160.33  7.3388160E-01
   7160.67  7.2133943E-01
   7161.00  7.0810509E-01
   7161.33  6.9427756E-01
   7161.67  6.8007440E-01
   7162.00  6.6561373E-01
   7162.33  6.5099991E-01
   7162.67  6.3635478E-01
   7163.00  6.2175544E-01
   7163.33  6.0729032E-01
   7163.67  5.9300177E-01
   7164.00  5.7892717E-01
   7164.33  5.6512838E-01
   7164.67  5.5159907E-01
   7165.00  5.3835961E-01
   7165.33  5.2547638E-01
   7165.67  5.1294464E-01
   7166.00  5.0080303E-01
   7166.33  4.8916071E-01
   7166.67  4.7802336E-01
   7167.00  4.6744649E-01
   7167.33  4.5756857E-01
   7167.67  4.4836292E-01
   7168.00  4.3986117E-01
   7168.33  4.3216980E-01
   7168.67  4.2519235E-01
   7169.00  4.1890774E-01
   7169.33  4.1335987E-01
   7169.67  4.0842087E-01
   7170.00  4.0404938E-01
   7170.33  4.0026322E-01
   7170.67  3.9695378E-01
   7171.00  3.9408892E-01
   7171.33  3.9169205E-01
   7171.67  3.8969681E-01
   7172.00  3.8810164E-01
