    FDMNES
    energy     <xanes>
   7097.00  4.3296577E-03
   7097.33  4.4164750E-03
   7097.67  4.5066297E-03
   7098.00  4.6003248E-03
   7098.33  4.6982956E-03
   7098.67  4.8003563E-03
   7099.00  4.9067809E-03
   7099.33  5.0185140E-03
   7099.67  5.1353643E-03
   7100.00  5.2577136E-03
   7100.33  5.3868116E-03
   7100.67  5.5224772E-03
   7101.00  5.6652621E-03
   7101.33  5.8168804E-03
   7101.67  5.9771971E-03
   7102.00  6.1470456E-03
   7102.33  6.3288840E-03
   7102.67  6.5227050E-03
   7103.00  6.7298382E-03
   7103.33  6.9540089E-03
   7103.67  7.1955313E-03
   7104.00  7.4566720E-03
   7104.33  7.7434871E-03
   7104.67  8.0570966E-03
   7105.00  8.4017010E-03
   7105.33  8.7880718E-03
   7105.67  9.2194627E-03
   7106.00  9.7045414E-03
   7106.33  1.0264873E-02
   7106.67  1.0909974E-02
   7107.00  1.1660506E-02
   7107.33  1.2567214E-02
   7107.67  1.3661288E-02
   7108.00  1.5003105E-02
   7108.33  1.6743486E-02
   7108.67  1.9010576E-02
   7109.00  2.2044555E-02
   7109.33  2.6489013E-02
   7109.67  3.3120004E-02
   7110.00  4.3468706E-02
   7110.33  6.2006362E-02
   7110.67  9.3628959E-02
   7111.00  1.3942119E-01
   7111.33  1.7973515E-01
   7111.67  1.7955569E-01
   7112.00  1.4518271E-01
   7112.33  1.2024459E-01
   7112.67  1.1003188E-01
   7113.00  1.0212928E-01
   7113.33  8.6937021E-02
   7113.67  7.0324714E-02
   7114.00  5.8183868E-02
   7114.33  5.0250869E-02
   7114.67  4.4493849E-02
   7115.00  4.1080684E-02
   7115.33  3.9783500E-02
   7115.67  3.9799453E-02
   7116.00  4.0842087E-02
   7116.33  4.2761235E-02
   7116.67  4.5135716E-02
   7117.00  4.7685509E-02
   7117.33  5.0454388E-02
   7117.67  5.3769112E-02
   7118.00  5.7875241E-02
   7118.33  6.3005430E-02
   7118.67  6.9128072E-02
   7119.00  7.6377890E-02
   7119.33  8.5169409E-02
   7119.67  9.5616455E-02
   7120.00  1.0796941E-01
   7120.33  1.2277996E-01
   7120.67  1.3994957E-01
   7121.00  1.5942392E-01
   7121.33  1.8100291E-01
   7121.67  2.0357658E-01
   7122.00  2.2613355E-01
   7122.33  2.4736475E-01
   7122.67  2.6679162E-01
   7123.00  2.8474028E-01
   7123.33  3.0285176E-01
   7123.67  3.2376478E-01
   7124.00  3.5007055E-01
   7124.33  3.8561107E-01
   7124.67  4.3160798E-01
   7125.00  4.8927139E-01
   7125.33  5.5993972E-01
   7125.67  6.3896313E-01
   7126.00  7.1891746E-01
   7126.33  7.8200313E-01
   7126.67  8.1359744E-01
   7127.00  8.1128688E-01
   7127.33  7.8853711E-01
   7127.67  7.6807628E-01
   7128.00  7.5971375E-01
   7128.33  7.6636647E-01
   7128.67  7.8121370E-01
   7129.00  7.9841759E-01
   7129.33  8.1262384E-01
   7129.67  8.2229338E-01
   7130.00  8.2755756E-01
   7130.33  8.2888188E-01
   7130.67  8.2773278E-01
   7131.00  8.2457104E-01
   7131.33  8.1897841E-01
   7131.67  8.1085327E-01
   7132.00  8.0012025E-01
   7132.33  7.8708785E-01
   7132.67  7.7342568E-01
   7133.00  7.6072410E-01
   7133.33  7.5053959E-01
   7133.67  7.4243567E-01
   7134.00  7.3540683E-01
   7134.33  7.2830505E-01
   7134.67  7.2064771E-01
   7135.00  7.1250153E-01
   7135.33  7.0417115E-01
   7135.67  6.9597297E-01
   7136.00  6.8801018E-01
   7136.33  6.8019593E-01
   7136.67  6.7219609E-01
   7137.00  6.6369281E-01
   7137.33  6.5435629E-01
   7137.67  6.4424334E-01
   7138.00  6.3345031E-01
   7138.33  6.2211688E-01
   7138.67  6.1054470E-01
   7139.00  5.9894425E-01
   7139.33  5.8756661E-01
   7139.67  5.7658222E-01
   7140.00  5.6613052E-01
   7140.33  5.5642274E-01
   7140.67  5.4746963E-01
   7141.00  5.3932445E-01
   7141.33  5.3212675E-01
   7141.67  5.2578368E-01
   7142.00  5.2027588E-01
   7142.33  5.1563269E-01
   7142.67  5.1165914E-01
   7143.00  5.0825510E-01
   7143.33  5.0535477E-01
   7143.67  5.0279251E-01
   7144.00  5.0050020E-01
   7144.33  4.9846538E-01
   7144.67  4.9664935E-01
   7145.00  4.9505710E-01
   7145.33  4.9372545E-01
   7145.67  4.9262506E-01
   7146.00  4.9174395E-01
   7146.33  4.9107509E-01
   7146.67  4.9054635E-01
   7147.00  4.9010390E-01
   7147.33  4.8967668E-01
   7147.67  4.8918457E-01
   7148.00  4.8855962E-01
   7148.33  4.8769920E-01
   7148.67  4.8655935E-01
   7149.00  4.8508653E-01
   7149.33  4.8317855E-01
   7149.67  4.8084032E-01
   7150.00  4.7804305E-01
   7150.33  4.7470134E-01
   7150.67  4.7086009E-01
   7151.00  4.6651305E-01
   7151.33  4.6159775E-01
   7151.67  4.5618835E-01
   7152.00  4.5030711E-01
   7152.33  4.4394652E-01
   7152.67  4.3721382E-01
   7153.00  4.3015925E-01
   7153.33  4.2282010E-01
   7153.67  4.1530823E-01
   7154.00  4.0769997E-01
   7154.33  4.0009027E-01
   7154.67  3.9257845E-01
   7155.00  3.8524659E-01
   7155.33  3.7821255E-01
   7155.67  3.7152635E-01
   7156.00  3.6525798E-01
   7156.33  3.5954036E-01
   7156.67  3.5437031E-01
   7157.00  3.4978375E-01
   7157.33  3.4588148E-01
   7157.67  3.4259650E-01
   7158.00  3.3992574E-01
   7158.33  3.3793108E-01
   7158.67  3.3651392E-01
   7159.00  3.3564509E-01
   7159.33  3.3534876E-01
   7159.67  3.3551983E-01
   7160.00  3.3612358E-01
   7160.33  3.3717210E-01
   7160.67  3.3858225E-01
   7161.00  3.4032822E-01
   7161.33  3.4242223E-01
   7161.67  3.4480146E-01
   7162.00  3.4744555E-01
   7162.33  3.5035995E-01
   7162.67  3.5348758E-01
   7163.00  3.5680227E-01
   7163.33  3.6028939E-01
   7163.67  3.6389020E-01
   7164.00  3.6756654E-01
   7164.33  3.7128044E-01
   7164.67  3.7499312E-01
   7165.00  3.7869138E-01
   7165.33  3.8237185E-01
   7165.67  3.8604242E-01
   7166.00  3.8971069E-01
   7166.33  3.9338572E-01
   7166.67  3.9707054E-01
   7167.00  4.0076257E-01
   7167.33  4.0445215E-01
   7167.67  4.0812521E-01
   7168.00  4.1176448E-01
   7168.33  4.1533486E-01
   7168.67  4.1882037E-01
   7169.00  4.2220723E-01
   7169.33  4.2546997E-01
   7169.67  4.2861443E-01
   7170.00  4.3163584E-01
   7170.33  4.3451431E-01
   7170.67  4.3726341E-01
   7171.00  4.3987481E-01
   7171.33  4.4228944E-01
   7171.67  4.4444102E-01
   7172.00  4.4620433E-01
