    FDMNES
    energy     <xanes>
   7097.00  5.3897028E-03
   7097.33  5.5216516E-03
   7097.67  5.6597583E-03
   7098.00  5.8044430E-03
   7098.33  5.9571356E-03
   7098.67  6.1175474E-03
   7099.00  6.2862487E-03
   7099.33  6.4651067E-03
   7099.67  6.6538218E-03
   7100.00  6.8531870E-03
   7100.33  7.0656994E-03
   7100.67  7.2910724E-03
   7101.00  7.5304401E-03
   7101.33  7.7872364E-03
   7101.67  8.0612410E-03
   7102.00  8.3541305E-03
   7102.33  8.6707858E-03
   7102.67  9.0111701E-03
   7103.00  9.3778609E-03
   7103.33  9.7780796E-03
   7103.67  1.0212232E-02
   7104.00  1.0684478E-02
   7104.33  1.1206039E-02
   7104.67  1.1778368E-02
   7105.00  1.2408590E-02
   7105.33  1.3115275E-02
   7105.67  1.3902419E-02
   7106.00  1.4783225E-02
   7106.33  1.5791070E-02
   7106.67  1.6936636E-02
   7107.00  1.8247171E-02
   7107.33  1.9790100E-02
   7107.67  2.1596249E-02
   7108.00  2.3731703E-02
   7108.33  2.6359839E-02
   7108.67  2.9588523E-02
   7109.00  3.3628512E-02
   7109.33  3.9027729E-02
   7109.67  4.6342926E-02
   7110.00  5.6669415E-02
   7110.33  7.3023461E-02
   7110.67  9.7408785E-02
   7111.00  1.2579534E-01
   7111.33  1.4636956E-01
   7111.67  1.7379969E-01
   7112.00  2.2588068E-01
   7112.33  3.2091624E-01
   7112.67  4.6799317E-01
   7113.00  6.6014515E-01
   7113.33  7.9716437E-01
   7113.67  7.6959369E-01
   7114.00  6.3770645E-01
   7114.33  5.0709651E-01
   7114.67  4.0199218E-01
   7115.00  3.2051995E-01
   7115.33  2.6206431E-01
   7115.67  2.2080419E-01
   7116.00  1.9347567E-01
   7116.33  1.7799623E-01
   7116.67  1.7047923E-01
   7117.00  1.6898361E-01
   7117.33  1.7124839E-01
   7117.67  1.7382202E-01
   7118.00  1.7450384E-01
   7118.33  1.7210959E-01
   7118.67  1.6827379E-01
   7119.00  1.6455065E-01
   7119.33  1.6221406E-01
   7119.67  1.6157380E-01
   7120.00  1.6210862E-01
   7120.33  1.6200385E-01
   7120.67  1.6007440E-01
   7121.00  1.5674652E-01
   7121.33  1.5336120E-01
   7121.67  1.5087799E-01
   7122.00  1.4967433E-01
   7122.33  1.4997329E-01
   7122.67  1.5120358E-01
   7123.00  1.5282336E-01
   7123.33  1.5457829E-01
   7123.67  1.5715591E-01
   7124.00  1.6170395E-01
   7124.33  1.6978498E-01
   7124.67  1.8191676E-01
   7125.00  1.9902686E-01
   7125.33  2.2342263E-01
   7125.67  2.5574278E-01
   7126.00  2.9560618E-01
   7126.33  3.3689673E-01
   7126.67  3.6638049E-01
   7127.00  3.7669719E-01
   7127.33  3.7332952E-01
   7127.67  3.7229488E-01
   7128.00  3.8227054E-01
   7128.33  4.1027086E-01
   7128.67  4.5686183E-01
   7129.00  5.2298724E-01
   7129.33  6.0843378E-01
   7129.67  7.0064795E-01
   7130.00  7.8301604E-01
   7130.33  8.3371868E-01
   7130.67  8.5365656E-01
   7131.00  8.5306929E-01
   7131.33  8.4528451E-01
   7131.67  8.3943241E-01
   7132.00  8.3762671E-01
   7132.33  8.3932026E-01
   7132.67  8.4172401E-01
   7133.00  8.4268388E-01
   7133.33  8.3976998E-01
   7133.67  8.3216384E-01
   7134.00  8.1936211E-01
   7134.33  8.0065284E-01
   7134.67  7.7708804E-01
   7135.00  7.4929439E-01
   7135.33  7.1784512E-01
   7135.67  6.8429084E-01
   7136.00  6.4965548E-01
   7136.33  6.1508906E-01
   7136.67  5.8160125E-01
   7137.00  5.4993704E-01
   7137.33  5.2112825E-01
   7137.67  4.9542058E-01
   7138.00  4.7317856E-01
   7138.33  4.5511949E-01
   7138.67  4.4080173E-01
   7139.00  4.3007311E-01
   7139.33  4.2305411E-01
   7139.67  4.1904511E-01
   7140.00  4.1788297E-01
   7140.33  4.1983699E-01
   7140.67  4.2454732E-01
   7141.00  4.3198527E-01
   7141.33  4.4235351E-01
   7141.67  4.5506379E-01
   7142.00  4.6976719E-01
   7142.33  4.8610764E-01
   7142.67  5.0325871E-01
   7143.00  5.2062357E-01
   7143.33  5.3745963E-01
   7143.67  5.5321973E-01
   7144.00  5.6749092E-01
   7144.33  5.7972776E-01
   7144.67  5.9002159E-01
   7145.00  5.9838255E-01
   7145.33  6.0467743E-01
   7145.67  6.0928629E-01
   7146.00  6.1237155E-01
   7146.33  6.1397617E-01
   7146.67  6.1446952E-01
   7147.00  6.1401369E-01
   7147.33  6.1267841E-01
   7147.67  6.1070609E-01
   7148.00  6.0820579E-01
   7148.33  6.0524109E-01
   7148.67  6.0197190E-01
   7149.00  5.9848845E-01
   7149.33  5.9487792E-01
   7149.67  5.9124709E-01
   7150.00  5.8766381E-01
   7150.33  5.8420713E-01
   7150.67  5.8090575E-01
   7151.00  5.7776543E-01
   7151.33  5.7478038E-01
   7151.67  5.7189160E-01
   7152.00  5.6905946E-01
   7152.33  5.6625182E-01
   7152.67  5.6346005E-01
   7153.00  5.6071168E-01
   7153.33  5.5809364E-01
   7153.67  5.5570120E-01
   7154.00  5.5364781E-01
   7154.33  5.5212980E-01
   7154.67  5.5121053E-01
   7155.00  5.5097254E-01
   7155.33  5.5157036E-01
   7155.67  5.5293328E-01
   7156.00  5.5505056E-01
   7156.33  5.5796971E-01
   7156.67  5.6153526E-01
   7157.00  5.6567535E-01
   7157.33  5.7035362E-01
   7157.67  5.7540463E-01
   7158.00  5.8073240E-01
   7158.33  5.8624145E-01
   7158.67  5.9179328E-01
   7159.00  5.9728479E-01
   7159.33  6.0257330E-01
   7159.67  6.0756354E-01
   7160.00  6.1215832E-01
   7160.33  6.1618445E-01
   7160.67  6.1959902E-01
   7161.00  6.2231900E-01
   7161.33  6.2415567E-01
   7161.67  6.2514230E-01
   7162.00  6.2524893E-01
   7162.33  6.2435161E-01
   7162.67  6.2257237E-01
   7163.00  6.1993791E-01
   7163.33  6.1639764E-01
   7163.67  6.1211973E-01
   7164.00  6.0717314E-01
   7164.33  6.0157405E-01
   7164.67  5.9548679E-01
   7165.00  5.8898833E-01
   7165.33  5.8212392E-01
   7165.67  5.7501554E-01
   7166.00  5.6772834E-01
   7166.33  5.6031647E-01
   7166.67  5.5285318E-01
   7167.00  5.4538266E-01
   7167.33  5.3795350E-01
   7167.67  5.3059858E-01
   7168.00  5.2334581E-01
   7168.33  5.1624185E-01
   7168.67  5.0930074E-01
   7169.00  5.0254503E-01
   7169.33  4.9602103E-01
   7169.67  4.8972254E-01
   7170.00  4.8366811E-01
   7170.33  4.7791636E-01
   7170.67  4.7246708E-01
   7171.00  4.6736207E-01
   7171.33  4.6273549E-01
   7171.67  4.5868508E-01
   7172.00  4.5540866E-01
