    FDMNES
    energy     <xanes>
   7097.00  4.6015979E-03
   7097.33  4.7049073E-03
   7097.67  4.8127028E-03
   7098.00  4.9252841E-03
   7098.33  5.0436836E-03
   7098.67  5.1676858E-03
   7099.00  5.2977012E-03
   7099.33  5.4350819E-03
   7099.67  5.5796115E-03
   7100.00  5.7318690E-03
   7100.33  5.8936771E-03
   7100.67  6.0648438E-03
   7101.00  6.2462152E-03
   7101.33  6.4403347E-03
   7101.67  6.6470913E-03
   7102.00  6.8677741E-03
   7102.33  7.1060853E-03
   7102.67  7.3621217E-03
   7103.00  7.6379483E-03
   7103.33  7.9392415E-03
   7103.67  8.2666006E-03
   7104.00  8.6235452E-03
   7104.33  9.0193615E-03
   7104.67  9.4558781E-03
   7105.00  9.9395779E-03
   7105.33  1.0486967E-02
   7105.67  1.1103056E-02
   7106.00  1.1801047E-02
   7106.33  1.2613666E-02
   7106.67  1.3555031E-02
   7107.00  1.4655927E-02
   7107.33  1.5991721E-02
   7107.67  1.7607089E-02
   7108.00  1.9588985E-02
   7108.33  2.2153344E-02
   7108.67  2.5475976E-02
   7109.00  2.9886081E-02
   7109.33  3.6255184E-02
   7109.67  4.5590139E-02
   7110.00  5.9861979E-02
   7110.33  8.4782391E-02
   7110.67  1.2680928E-01
   7111.00  1.8904750E-01
   7111.33  2.5555256E-01
   7111.67  2.9686926E-01
   7112.00  3.0021257E-01
   7112.33  2.7131017E-01
   7112.67  2.2659566E-01
   7113.00  1.7807124E-01
   7113.33  1.3938405E-01
   7113.67  1.1252555E-01
   7114.00  9.5055711E-02
   7114.33  8.4331078E-02
   7114.67  7.7239935E-02
   7115.00  7.2786986E-02
   7115.33  7.0646627E-02
   7115.67  7.0042877E-02
   7116.00  7.0528959E-02
   7116.33  7.2014652E-02
   7116.67  7.4627158E-02
   7117.00  7.8563998E-02
   7117.33  8.4051266E-02
   7117.67  9.1030458E-02
   7118.00  9.9742273E-02
   7118.33  1.1071095E-01
   7118.67  1.2375851E-01
   7119.00  1.3879688E-01
   7119.33  1.5602748E-01
   7119.67  1.7546089E-01
   7120.00  1.9748268E-01
   7120.33  2.2259370E-01
   7120.67  2.4974119E-01
   7121.00  2.7762821E-01
   7121.33  3.0475277E-01
   7121.67  3.3098596E-01
   7122.00  3.5701374E-01
   7122.33  3.8285500E-01
   7122.67  4.0586674E-01
   7123.00  4.2231815E-01
   7123.33  4.3023332E-01
   7123.67  4.3584989E-01
   7124.00  4.4462287E-01
   7124.33  4.5919460E-01
   7124.67  4.7656452E-01
   7125.00  4.9334349E-01
   7125.33  5.0535981E-01
   7125.67  5.1115978E-01
   7126.00  5.1116612E-01
   7126.33  5.0734012E-01
   7126.67  5.0287063E-01
   7127.00  4.9954949E-01
   7127.33  4.9903978E-01
   7127.67  5.0185785E-01
   7128.00  5.0836248E-01
   7128.33  5.1888950E-01
   7128.67  5.3235955E-01
   7129.00  5.4802380E-01
   7129.33  5.6506164E-01
   7129.67  5.8214164E-01
   7130.00  5.9795849E-01
   7130.33  6.1030804E-01
   7130.67  6.1804787E-01
   7131.00  6.2090667E-01
   7131.33  6.1972128E-01
   7131.67  6.1708135E-01
   7132.00  6.1452088E-01
   7132.33  6.1301092E-01
   7132.67  6.1242398E-01
   7133.00  6.1248795E-01
   7133.33  6.1321044E-01
   7133.67  6.1486471E-01
   7134.00  6.1771486E-01
   7134.33  6.2166601E-01
   7134.67  6.2605893E-01
   7135.00  6.3054214E-01
   7135.33  6.3484398E-01
   7135.67  6.3881849E-01
   7136.00  6.4241101E-01
   7136.33  6.4568504E-01
   7136.67  6.4895120E-01
   7137.00  6.5252601E-01
   7137.33  6.5683867E-01
   7137.67  6.6203047E-01
   7138.00  6.6815802E-01
   7138.33  6.7525282E-01
   7138.67  6.8302404E-01
   7139.00  6.9126019E-01
   7139.33  6.9967850E-01
   7139.67  7.0785383E-01
   7140.00  7.1530665E-01
   7140.33  7.2111232E-01
   7140.67  7.2458246E-01
   7141.00  7.2500746E-01
   7141.33  7.2140407E-01
   7141.67  7.1418903E-01
   7142.00  7.0375699E-01
   7142.33  6.9065383E-01
   7142.67  6.7620641E-01
   7143.00  6.6124995E-01
   7143.33  6.4659272E-01
   7143.67  6.3272462E-01
   7144.00  6.1991160E-01
   7144.33  6.0844712E-01
   7144.67  5.9819658E-01
   7145.00  5.8910337E-01
   7145.33  5.8117643E-01
   7145.67  5.7412922E-01
   7146.00  5.6781764E-01
   7146.33  5.6215279E-01
   7146.67  5.5691890E-01
   7147.00  5.5200953E-01
   7147.33  5.4734910E-01
   7147.67  5.4282796E-01
   7148.00  5.3838975E-01
   7148.33  5.3398342E-01
   7148.67  5.2955781E-01
   7149.00  5.2507489E-01
   7149.33  5.2048239E-01
   7149.67  5.1575945E-01
   7150.00  5.1088123E-01
   7150.33  5.0579976E-01
   7150.67  5.0052207E-01
   7151.00  4.9504568E-01
   7151.33  4.8935184E-01
   7151.67  4.8347644E-01
   7152.00  4.7743294E-01
   7152.33  4.7121961E-01
   7152.67  4.6487195E-01
   7153.00  4.5840207E-01
   7153.33  4.5180589E-01
   7153.67  4.4510397E-01
   7154.00  4.3830088E-01
   7154.33  4.3139092E-01
   7154.67  4.2439653E-01
   7155.00  4.1733347E-01
   7155.33  4.1022546E-01
   7155.67  4.0311885E-01
   7156.00  3.9605925E-01
   7156.33  3.8912310E-01
   7156.67  3.8236782E-01
   7157.00  3.7585940E-01
   7157.33  3.6971622E-01
   7157.67  3.6396998E-01
   7158.00  3.5867446E-01
   7158.33  3.5394286E-01
   7158.67  3.4974867E-01
   7159.00  3.4611101E-01
   7159.33  3.4310942E-01
   7159.67  3.4066886E-01
   7160.00  3.3877621E-01
   7160.33  3.3747095E-01
   7160.67  3.3665423E-01
   7161.00  3.3629672E-01
   7161.33  3.3641765E-01
   7161.67  3.3692746E-01
   7162.00  3.3778565E-01
   7162.33  3.3896380E-01
   7162.67  3.4036635E-01
   7163.00  3.4194884E-01
   7163.33  3.4367540E-01
   7163.67  3.4547925E-01
   7164.00  3.4732100E-01
   7164.33  3.4916441E-01
   7164.67  3.5098658E-01
   7165.00  3.5277951E-01
   7165.33  3.5454228E-01
   7165.67  3.5628974E-01
   7166.00  3.5803634E-01
   7166.33  3.5980373E-01
   7166.67  3.6160881E-01
   7167.00  3.6346618E-01
   7167.33  3.6539787E-01
   7167.67  3.6740577E-01
   7168.00  3.6949580E-01
   7168.33  3.7168247E-01
   7168.67  3.7395505E-01
   7169.00  3.7631044E-01
   7169.33  3.7875122E-01
   7169.67  3.8125724E-01
   7170.00  3.8381570E-01
   7170.33  3.8641051E-01
   7170.67  3.8900875E-01
   7171.00  3.9157339E-01
   7171.33  3.9402089E-01
   7171.67  3.9623825E-01
   7172.00  3.9806210E-01
