    FDMNES
    energy     <xanes>
   7097.00  4.1381134E-03
   7097.33  4.2168099E-03
   7097.67  4.2984044E-03
   7098.00  4.3830687E-03
   7098.33  4.4714339E-03
   7098.67  4.5633330E-03
   7099.00  4.6589969E-03
   7099.33  4.7592323E-03
   7099.67  4.8638660E-03
   7100.00  4.9732181E-03
   7100.33  5.0883495E-03
   7100.67  5.2090931E-03
   7101.00  5.3359089E-03
   7101.33  5.4702414E-03
   7101.67  5.6119573E-03
   7102.00  5.7617462E-03
   7102.33  5.9216612E-03
   7102.67  6.0916652E-03
   7103.00  6.2728460E-03
   7103.33  6.4682795E-03
   7103.67  6.6781699E-03
   7104.00  6.9043435E-03
   7104.33  7.1517204E-03
   7104.67  7.4211007E-03
   7105.00  7.7157950E-03
   7105.33  8.0443536E-03
   7105.67  8.4091101E-03
   7106.00  8.8166807E-03
   7106.33  9.2836017E-03
   7106.67  9.8165174E-03
   7107.00  1.0430463E-02
   7107.33  1.1162341E-02
   7107.67  1.2032769E-02
   7108.00  1.3082570E-02
   7108.33  1.4412575E-02
   7108.67  1.6099946E-02
   7109.00  1.8289169E-02
   7109.33  2.1355587E-02
   7109.67  2.5701986E-02
   7110.00  3.2104248E-02
   7110.33  4.2778518E-02
   7110.67  6.0470472E-02
   7111.00  8.8574307E-02
   7111.33  1.3134428E-01
   7111.67  1.8127509E-01
   7112.00  2.0696071E-01
   7112.33  1.7410635E-01
   7112.67  1.2777837E-01
   7113.00  9.2314150E-02
   7113.33  7.0813326E-02
   7113.67  5.8139184E-02
   7114.00  5.0777053E-02
   7114.33  4.4324640E-02
   7114.67  3.8419847E-02
   7115.00  3.4416308E-02
   7115.33  3.2336180E-02
   7115.67  3.1273893E-02
   7116.00  3.0858387E-02
   7116.33  3.0983870E-02
   7116.67  3.1553240E-02
   7117.00  3.2557324E-02
   7117.33  3.4084243E-02
   7117.67  3.6206182E-02
   7118.00  3.9106844E-02
   7118.33  4.3058133E-02
   7118.67  4.7857102E-02
   7119.00  5.3207848E-02
   7119.33  5.8705748E-02
   7119.67  6.4104447E-02
   7120.00  6.9436612E-02
   7120.33  7.4798373E-02
   7120.67  8.0017220E-02
   7121.00  8.4731460E-02
   7121.33  8.8636046E-02
   7121.67  9.2288021E-02
   7122.00  9.6472377E-02
   7122.33  1.0215232E-01
   7122.67  1.0968876E-01
   7123.00  1.1944844E-01
   7123.33  1.3226665E-01
   7123.67  1.4846625E-01
   7124.00  1.6884196E-01
   7124.33  1.9543006E-01
   7124.67  2.2949520E-01
   7125.00  2.7325618E-01
   7125.33  3.3108810E-01
   7125.67  4.0254563E-01
   7126.00  4.8393463E-01
   7126.33  5.6120954E-01
   7126.67  6.1602953E-01
   7127.00  6.3982204E-01
   7127.33  6.3589848E-01
   7127.67  6.2309262E-01
   7128.00  6.1383670E-01
   7128.33  6.1935197E-01
   7128.67  6.4385318E-01
   7129.00  6.9153707E-01
   7129.33  7.7122110E-01
   7129.67  8.8401822E-01
   7130.00  1.0297722E+00
   7130.33  1.1958670E+00
   7130.67  1.3402857E+00
   7131.00  1.4181543E+00
   7131.33  1.3902664E+00
   7131.67  1.2879165E+00
   7132.00  1.1488216E+00
   7132.33  1.0113053E+00
   7132.67  8.9505846E-01
   7133.00  8.0506517E-01
   7133.33  7.4279109E-01
   7133.67  6.9980086E-01
   7134.00  6.7064865E-01
   7134.33  6.5095336E-01
   7134.67  6.3607972E-01
   7135.00  6.2432739E-01
   7135.33  6.1503519E-01
   7135.67  6.0760086E-01
   7136.00  6.0195128E-01
   7136.33  5.9829013E-01
   7136.67  5.9636950E-01
   7137.00  5.9613408E-01
   7137.33  5.9767904E-01
   7137.67  6.0067437E-01
   7138.00  6.0499402E-01
   7138.33  6.1063293E-01
   7138.67  6.1729009E-01
   7139.00  6.2482606E-01
   7139.33  6.3314386E-01
   7139.67  6.4193017E-01
   7140.00  6.5094199E-01
   7140.33  6.5982223E-01
   7140.67  6.6821157E-01
   7141.00  6.7578858E-01
   7141.33  6.8203815E-01
   7141.67  6.8677620E-01
   7142.00  6.8977734E-01
   7142.33  6.9063221E-01
   7142.67  6.8952672E-01
   7143.00  6.8652259E-01
   7143.33  6.8158190E-01
   7143.67  6.7517948E-01
   7144.00  6.6757760E-01
   7144.33  6.5898172E-01
   7144.67  6.4979048E-01
   7145.00  6.4019913E-01
   7145.33  6.3030992E-01
   7145.67  6.2017343E-01
   7146.00  6.0971248E-01
   7146.33  5.9870106E-01
   7146.67  5.8702417E-01
   7147.00  5.7459051E-01
   7147.33  5.6134089E-01
   7147.67  5.4756693E-01
   7148.00  5.3353486E-01
   7148.33  5.1958539E-01
   7148.67  5.0602328E-01
   7149.00  4.9308274E-01
   7149.33  4.8107224E-01
   7149.67  4.7001164E-01
   7150.00  4.5994555E-01
   7150.33  4.5098935E-01
   7150.67  4.4296173E-01
   7151.00  4.3578399E-01
   7151.33  4.2943176E-01
   7151.67  4.2367942E-01
   7152.00  4.1840414E-01
   7152.33  4.1350109E-01
   7152.67  4.0878172E-01
   7153.00  4.0411935E-01
   7153.33  3.9936255E-01
   7153.67  3.9439437E-01
   7154.00  3.8911989E-01
   7154.33  3.8340031E-01
   7154.67  3.7722452E-01
   7155.00  3.7056779E-01
   7155.33  3.6337689E-01
   7155.67  3.5575776E-01
   7156.00  3.4778386E-01
   7156.33  3.3955017E-01
   7156.67  3.3124466E-01
   7157.00  3.2302217E-01
   7157.33  3.1510522E-01
   7157.67  3.0764553E-01
   7158.00  3.0079127E-01
   7158.33  2.9478720E-01
   7158.67  2.8965862E-01
   7159.00  2.8548120E-01
   7159.33  2.8243708E-01
   7159.67  2.8042418E-01
   7160.00  2.7943898E-01
   7160.33  2.7957661E-01
   7160.67  2.8066094E-01
   7161.00  2.8263609E-01
   7161.33  2.8552799E-01
   7161.67  2.8914290E-01
   7162.00  2.9339532E-01
   7162.33  2.9823715E-01
   7162.67  3.0348139E-01
   7163.00  3.0905414E-01
   7163.33  3.1492144E-01
   7163.67  3.2098865E-01
   7164.00  3.2720937E-01
   7164.33  3.3355535E-01
   7164.67  3.3998123E-01
   7165.00  3.4646714E-01
   7165.33  3.5300011E-01
   7165.67  3.5956005E-01
   7166.00  3.6613556E-01
   7166.33  3.7271102E-01
   7166.67  3.7927406E-01
   7167.00  3.8581690E-01
   7167.33  3.9232542E-01
   7167.67  3.9878981E-01
   7168.00  4.0519515E-01
   7168.33  4.1151091E-01
   7168.67  4.1772327E-01
   7169.00  4.2380889E-01
   7169.33  4.2971807E-01
   7169.67  4.3543712E-01
   7170.00  4.4093473E-01
   7170.33  4.4613833E-01
   7170.67  4.5103505E-01
   7171.00  4.5557716E-01
   7171.33  4.5963414E-01
   7171.67  4.6313833E-01
   7172.00  4.6594395E-01
