    FDMNES
    energy     <xanes>
   7097.00  4.7671059E-03
   7097.33  4.8779704E-03
   7097.67  4.9940174E-03
   7098.00  5.1156153E-03
   7098.33  5.2439940E-03
   7098.67  5.3789336E-03
   7099.00  5.5209439E-03
   7099.33  5.6716567E-03
   7099.67  5.8308573E-03
   7100.00  5.9992710E-03
   7100.33  6.1791254E-03
   7100.67  6.3702433E-03
   7101.00  6.5736921E-03
   7101.33  6.7926152E-03
   7101.67  7.0269453E-03
   7102.00  7.2783154E-03
   7102.33  7.5513430E-03
   7102.67  7.8462294E-03
   7103.00  8.1655946E-03
   7103.33  8.5165604E-03
   7103.67  8.8999610E-03
   7104.00  9.3202508E-03
   7104.33  9.7891011E-03
   7104.67  1.0308864E-02
   7105.00  1.0887687E-02
   7105.33  1.1546237E-02
   7105.67  1.2290724E-02
   7106.00  1.3137534E-02
   7106.33  1.4127205E-02
   7106.67  1.5276789E-02
   7107.00  1.6623767E-02
   7107.33  1.8259788E-02
   7107.67  2.0237491E-02
   7108.00  2.2660106E-02
   7108.33  2.5783258E-02
   7108.67  2.9808925E-02
   7109.00  3.5116364E-02
   7109.33  4.2704828E-02
   7109.67  5.3703956E-02
   7110.00  7.0322139E-02
   7110.33  9.8912818E-02
   7110.67  1.4636773E-01
   7111.00  2.1501661E-01
   7111.33  2.8590338E-01
   7111.67  3.3817420E-01
   7112.00  3.7431026E-01
   7112.33  3.9112505E-01
   7112.67  3.7834974E-01
   7113.00  3.4924202E-01
   7113.33  3.1130305E-01
   7113.67  2.6421611E-01
   7114.00  2.1398469E-01
   7114.33  1.7235264E-01
   7114.67  1.4445730E-01
   7115.00  1.2715535E-01
   7115.33  1.1149107E-01
   7115.67  9.6619806E-02
   7116.00  8.5124442E-02
   7116.33  7.8615483E-02
   7116.67  7.7134817E-02
   7117.00  8.0641423E-02
   7117.33  8.9027048E-02
   7117.67  9.9461226E-02
   7118.00  1.0865231E-01
   7118.33  1.1394547E-01
   7118.67  1.1732996E-01
   7119.00  1.2144329E-01
   7119.33  1.2805743E-01
   7119.67  1.3646328E-01
   7120.00  1.4596719E-01
   7120.33  1.5628803E-01
   7120.67  1.6705469E-01
   7121.00  1.7805778E-01
   7121.33  1.8972626E-01
   7121.67  2.0223438E-01
   7122.00  2.1411685E-01
   7122.33  2.2225489E-01
   7122.67  2.2805663E-01
   7123.00  2.3503045E-01
   7123.33  2.4645905E-01
   7123.67  2.6299686E-01
   7124.00  2.8476254E-01
   7124.33  3.1033105E-01
   7124.67  3.3490617E-01
   7125.00  3.5366247E-01
   7125.33  3.6149668E-01
   7125.67  3.6034086E-01
   7126.00  3.5369282E-01
   7126.33  3.4530571E-01
   7126.67  3.3774922E-01
   7127.00  3.3230383E-01
   7127.33  3.3005793E-01
   7127.67  3.3017582E-01
   7128.00  3.3167262E-01
   7128.33  3.3382870E-01
   7128.67  3.3679257E-01
   7129.00  3.4142917E-01
   7129.33  3.4885827E-01
   7129.67  3.5840160E-01
   7130.00  3.6889317E-01
   7130.33  3.7892054E-01
   7130.67  3.8789809E-01
   7131.00  3.9596589E-01
   7131.33  4.0386789E-01
   7131.67  4.1262436E-01
   7132.00  4.2299093E-01
   7132.33  4.3588679E-01
   7132.67  4.5134906E-01
   7133.00  4.6920867E-01
   7133.33  4.8857100E-01
   7133.67  5.0721594E-01
   7134.00  5.2314213E-01
   7134.33  5.3475669E-01
   7134.67  5.4368395E-01
   7135.00  5.5196587E-01
   7135.33  5.6181978E-01
   7135.67  5.7413895E-01
   7136.00  5.8913454E-01
   7136.33  6.0666612E-01
   7136.67  6.2537733E-01
   7137.00  6.4393747E-01
   7137.33  6.6044803E-01
   7137.67  6.7387878E-01
   7138.00  6.8382351E-01
   7138.33  6.9020720E-01
   7138.67  6.9422429E-01
   7139.00  6.9659061E-01
   7139.33  6.9773046E-01
   7139.67  6.9784515E-01
   7140.00  6.9659893E-01
   7140.33  6.9328087E-01
   7140.67  6.8810023E-01
   7141.00  6.8163717E-01
   7141.33  6.7506569E-01
   7141.67  6.6968132E-01
   7142.00  6.6633515E-01
   7142.33  6.6587260E-01
   7142.67  6.6801043E-01
   7143.00  6.7244130E-01
   7143.33  6.7869939E-01
   7143.67  6.8570829E-01
   7144.00  6.9269777E-01
   7144.33  6.9886477E-01
   7144.67  7.0397758E-01
   7145.00  7.0812762E-01
   7145.33  7.1169068E-01
   7145.67  7.1529441E-01
   7146.00  7.1930517E-01
   7146.33  7.2391041E-01
   7146.67  7.2880424E-01
   7147.00  7.3355545E-01
   7147.33  7.3744697E-01
   7147.67  7.3998834E-01
   7148.00  7.4082029E-01
   7148.33  7.3952609E-01
   7148.67  7.3639267E-01
   7149.00  7.3157636E-01
   7149.33  7.2511093E-01
   7149.67  7.1736317E-01
   7150.00  7.0844740E-01
   7150.33  6.9838762E-01
   7150.67  6.8754496E-01
   7151.00  6.7618726E-01
   7151.33  6.6464745E-01
   7151.67  6.5328593E-01
   7152.00  6.4232980E-01
   7152.33  6.3200691E-01
   7152.67  6.2230607E-01
   7153.00  6.1321811E-01
   7153.33  6.0475901E-01
   7153.67  5.9677954E-01
   7154.00  5.8920197E-01
   7154.33  5.8197648E-01
   7154.67  5.7498516E-01
   7155.00  5.6817246E-01
   7155.33  5.6150620E-01
   7155.67  5.5494194E-01
   7156.00  5.4847284E-01
   7156.33  5.4212165E-01
   7156.67  5.3589938E-01
   7157.00  5.2983391E-01
   7157.33  5.2398589E-01
   7157.67  5.1837238E-01
   7158.00  5.1303626E-01
   7158.33  5.0808316E-01
   7158.67  5.0354473E-01
   7159.00  4.9948899E-01
   7159.33  4.9606721E-01
   7159.67  4.9328310E-01
   7160.00  4.9118572E-01
   7160.33  4.8989871E-01
   7160.67  4.8934104E-01
   7161.00  4.8949848E-01
   7161.33  4.9041022E-01
   7161.67  4.9192097E-01
   7162.00  4.9394347E-01
   7162.33  4.9639777E-01
   7162.67  4.9907588E-01
   7163.00  5.0181287E-01
   7163.33  5.0437437E-01
   7163.67  5.0656007E-01
   7164.00  5.0819791E-01
   7164.33  5.0904513E-01
   7164.67  5.0910640E-01
   7165.00  5.0837726E-01
   7165.33  5.0683822E-01
   7165.67  5.0471487E-01
   7166.00  5.0215599E-01
   7166.33  4.9931561E-01
   7166.67  4.9639938E-01
   7167.00  4.9353403E-01
   7167.33  4.9085123E-01
   7167.67  4.8840050E-01
   7168.00  4.8621087E-01
   7168.33  4.8431796E-01
   7168.67  4.8266419E-01
   7169.00  4.8121270E-01
   7169.33  4.7992831E-01
   7169.67  4.7873504E-01
   7170.00  4.7758653E-01
   7170.33  4.7643745E-01
   7170.67  4.7525841E-01
   7171.00  4.7404305E-01
   7171.33  4.7281419E-01
   7171.67  4.7164721E-01
   7172.00  4.7065018E-01
