    FDMNES
    energy     <xanes>
   7097.00  4.3329556E-03
   7097.33  4.4242513E-03
   7097.67  4.5193051E-03
   7098.00  4.6183628E-03
   7098.33  4.7222816E-03
   7098.67  4.8308760E-03
   7099.00  4.9444838E-03
   7099.33  5.0642271E-03
   7099.67  5.1899217E-03
   7100.00  5.3220472E-03
   7100.33  5.4621188E-03
   7100.67  5.6099776E-03
   7101.00  5.7663307E-03
   7101.33  5.9333030E-03
   7101.67  6.1108141E-03
   7102.00  6.2999546E-03
   7102.33  6.5038456E-03
   7102.67  6.7226059E-03
   7103.00  6.9580119E-03
   7103.33  7.2149170E-03
   7103.67  7.4939243E-03
   7104.00  7.7981283E-03
   7104.33  8.1356349E-03
   7104.67  8.5082509E-03
   7105.00  8.9218431E-03
   7105.33  9.3912431E-03
   7105.67  9.9214598E-03
   7106.00  1.0524904E-02
   7106.33  1.1232189E-02
   7106.67  1.2057867E-02
   7107.00  1.3032390E-02
   7107.33  1.4230353E-02
   7107.67  1.5700218E-02
   7108.00  1.7534343E-02
   7108.33  1.9964423E-02
   7108.67  2.3197013E-02
   7109.00  2.7619194E-02
   7109.33  3.4282067E-02
   7109.67  4.4512030E-02
   7110.00  6.0949506E-02
   7110.33  9.1326751E-02
   7110.67  1.4309988E-01
   7111.00  2.1009251E-01
   7111.33  2.3539502E-01
   7111.67  2.0686597E-01
   7112.00  1.6056571E-01
   7112.33  1.2996625E-01
   7112.67  1.1344102E-01
   7113.00  1.0433695E-01
   7113.33  1.0424751E-01
   7113.67  1.0800677E-01
   7114.00  1.1065294E-01
   7114.33  1.0360313E-01
   7114.67  8.7190666E-02
   7115.00  6.9468966E-02
   7115.33  5.6769272E-02
   7115.67  4.7758419E-02
   7116.00  4.1524406E-02
   7116.33  3.7773312E-02
   7116.67  3.5565298E-02
   7117.00  3.4486119E-02
   7117.33  3.4336611E-02
   7117.67  3.4763689E-02
   7118.00  3.5534867E-02
   7118.33  3.6531068E-02
   7118.67  3.7849424E-02
   7119.00  3.9670174E-02
   7119.33  4.2228617E-02
   7119.67  4.5569919E-02
   7120.00  4.9831790E-02
   7120.33  5.5387138E-02
   7120.67  6.2424563E-02
   7121.00  7.1342822E-02
   7121.33  8.3103124E-02
   7121.67  9.8231864E-02
   7122.00  1.1739889E-01
   7122.33  1.4074927E-01
   7122.67  1.6577499E-01
   7123.00  1.9189712E-01
   7123.33  2.2276583E-01
   7123.67  2.5916357E-01
   7124.00  2.9778099E-01
   7124.33  3.3319123E-01
   7124.67  3.6442041E-01
   7125.00  3.9426643E-01
   7125.33  4.2660798E-01
   7125.67  4.6282883E-01
   7126.00  5.0469270E-01
   7126.33  5.5615349E-01
   7126.67  6.1843724E-01
   7127.00  6.9255205E-01
   7127.33  7.7874619E-01
   7127.67  8.7055964E-01
   7128.00  9.6100419E-01
   7128.33  1.0406315E+00
   7128.67  1.1033951E+00
   7129.00  1.1434966E+00
   7129.33  1.1525950E+00
   7129.67  1.1336928E+00
   7130.00  1.0901942E+00
   7130.33  1.0284156E+00
   7130.67  9.6205425E-01
   7131.00  9.0011936E-01
   7131.33  8.4981820E-01
   7131.67  8.1124647E-01
   7132.00  7.8346505E-01
   7132.33  7.6542793E-01
   7132.67  7.5369294E-01
   7133.00  7.4639399E-01
   7133.33  7.4191154E-01
   7133.67  7.3821181E-01
   7134.00  7.3402088E-01
   7134.33  7.2800767E-01
   7134.67  7.1975894E-01
   7135.00  7.0925088E-01
   7135.33  6.9675832E-01
   7135.67  6.8325814E-01
   7136.00  6.6938947E-01
   7136.33  6.5579585E-01
   7136.67  6.4287710E-01
   7137.00  6.3085442E-01
   7137.33  6.1997615E-01
   7137.67  6.1014587E-01
   7138.00  6.0134643E-01
   7138.33  5.9362952E-01
   7138.67  5.8675848E-01
   7139.00  5.8061002E-01
   7139.33  5.7511621E-01
   7139.67  5.7010632E-01
   7140.00  5.6554962E-01
   7140.33  5.6151851E-01
   7140.67  5.5798162E-01
   7141.00  5.5494514E-01
   7141.33  5.5243586E-01
   7141.67  5.5033905E-01
   7142.00  5.4862891E-01
   7142.33  5.4737492E-01
   7142.67  5.4657979E-01
   7143.00  5.4628757E-01
   7143.33  5.4658033E-01
   7143.67  5.4735869E-01
   7144.00  5.4855783E-01
   7144.33  5.5013659E-01
   7144.67  5.5200955E-01
   7145.00  5.5417501E-01
   7145.33  5.5667676E-01
   7145.67  5.5946255E-01
   7146.00  5.6247634E-01
   7146.33  5.6557306E-01
   7146.67  5.6845111E-01
   7147.00  5.7073390E-01
   7147.33  5.7174158E-01
   7147.67  5.7110648E-01
   7148.00  5.6854425E-01
   7148.33  5.6372783E-01
   7148.67  5.5704751E-01
   7149.00  5.4871170E-01
   7149.33  5.3881094E-01
   7149.67  5.2777905E-01
   7150.00  5.1584898E-01
   7150.33  5.0322246E-01
   7150.67  4.9025847E-01
   7151.00  4.7718285E-01
   7151.33  4.6421658E-01
   7151.67  4.5146780E-01
   7152.00  4.3896112E-01
   7152.33  4.2667612E-01
   7152.67  4.1450069E-01
   7153.00  4.0235561E-01
   7153.33  3.9017542E-01
   7153.67  3.7794962E-01
   7154.00  3.6569304E-01
   7154.33  3.5346481E-01
   7154.67  3.4136419E-01
   7155.00  3.2950766E-01
   7155.33  3.1810020E-01
   7155.67  3.0725537E-01
   7156.00  2.9711116E-01
   7156.33  2.8792063E-01
   7156.67  2.7970071E-01
   7157.00  2.7253173E-01
   7157.33  2.6661218E-01
   7157.67  2.6182740E-01
   7158.00  2.5817381E-01
   7158.33  2.5576256E-01
   7158.67  2.5441036E-01
   7159.00  2.5406716E-01
   7159.33  2.5477899E-01
   7159.67  2.5634576E-01
   7160.00  2.5869030E-01
   7160.33  2.6180273E-01
   7160.67  2.6549871E-01
   7161.00  2.6969255E-01
   7161.33  2.7433592E-01
   7161.67  2.7928398E-01
   7162.00  2.8445979E-01
   7162.33  2.8979910E-01
   7162.67  2.9520116E-01
   7163.00  3.0058634E-01
   7163.33  3.0586567E-01
   7163.67  3.1100327E-01
   7164.00  3.1596994E-01
   7164.33  3.2071965E-01
   7164.67  3.2526958E-01
   7165.00  3.2962341E-01
   7165.33  3.3377076E-01
   7165.67  3.3775283E-01
   7166.00  3.4158757E-01
   7166.33  3.4528105E-01
   7166.67  3.4886978E-01
   7167.00  3.5237050E-01
   7167.33  3.5579415E-01
   7167.67  3.5916939E-01
   7168.00  3.6251435E-01
   7168.33  3.6585114E-01
   7168.67  3.6920530E-01
   7169.00  3.7259841E-01
   7169.33  3.7606231E-01
   7169.67  3.7960864E-01
   7170.00  3.8324739E-01
   7170.33  3.8698960E-01
   7170.67  3.9080280E-01
   7171.00  3.9464278E-01
   7171.33  3.9839380E-01
   7171.67  4.0185588E-01
   7172.00  4.0474573E-01
