    FDMNES
    energy     <xanes>
   7097.00  4.0762167E-03
   7097.33  4.1523187E-03
   7097.67  4.2311618E-03
   7098.00  4.3129046E-03
   7098.33  4.3981379E-03
   7098.67  4.4866988E-03
   7099.00  4.5787996E-03
   7099.33  4.6751914E-03
   7099.67  4.7757045E-03
   7100.00  4.8806321E-03
   7100.33  4.9909568E-03
   7100.67  5.1065128E-03
   7101.00  5.2277198E-03
   7101.33  5.3559093E-03
   7101.67  5.4909447E-03
   7102.00  5.6334538E-03
   7102.33  5.7853207E-03
   7102.67  5.9464958E-03
   7103.00  6.1179690E-03
   7103.33  6.3025561E-03
   7103.67  6.5004298E-03
   7104.00  6.7132569E-03
   7104.33  6.9455448E-03
   7104.67  7.1980256E-03
   7105.00  7.4737453E-03
   7105.33  7.7805854E-03
   7105.67  8.1207529E-03
   7106.00  8.5004343E-03
   7106.33  8.9351106E-03
   7106.67  9.4312788E-03
   7107.00  1.0003422E-02
   7107.33  1.0687206E-02
   7107.67  1.1503807E-02
   7108.00  1.2494740E-02
   7108.33  1.3763695E-02
   7108.67  1.5396924E-02
   7109.00  1.7556878E-02
   7109.33  2.0678732E-02
   7109.67  2.5283468E-02
   7110.00  3.2399059E-02
   7110.33  4.4972927E-02
   7110.67  6.5622422E-02
   7111.00  9.2328866E-02
   7111.33  1.1355025E-01
   7111.67  1.2902152E-01
   7112.00  1.3114689E-01
   7112.33  1.1583120E-01
   7112.67  1.0526921E-01
   7113.00  1.0154105E-01
   7113.33  9.2022314E-02
   7113.67  7.5678717E-02
   7114.00  6.0395202E-02
   7114.33  5.0460775E-02
   7114.67  4.3704000E-02
   7115.00  3.8754148E-02
   7115.33  3.4703125E-02
   7115.67  3.1830607E-02
   7116.00  3.0201004E-02
   7116.33  2.9540830E-02
   7116.67  2.9422459E-02
   7117.00  2.9683422E-02
   7117.33  3.0289557E-02
   7117.67  3.1216506E-02
   7118.00  3.2503179E-02
   7118.33  3.4258026E-02
   7118.67  3.6513125E-02
   7119.00  3.9384530E-02
   7119.33  4.3179290E-02
   7119.67  4.8068483E-02
   7120.00  5.4279146E-02
   7120.33  6.1973943E-02
   7120.67  7.0526521E-02
   7121.00  7.9815599E-02
   7121.33  9.1345614E-02
   7121.67  1.0686975E-01
   7122.00  1.2781237E-01
   7122.33  1.5617800E-01
   7122.67  1.9142715E-01
   7123.00  2.3151578E-01
   7123.33  2.6961185E-01
   7123.67  3.0071966E-01
   7124.00  3.2777590E-01
   7124.33  3.5717465E-01
   7124.67  3.8739604E-01
   7125.00  4.1083451E-01
   7125.33  4.2158692E-01
   7125.67  4.2969994E-01
   7126.00  4.4420909E-01
   7126.33  4.6601394E-01
   7126.67  4.8671157E-01
   7127.00  5.0482590E-01
   7127.33  5.2685929E-01
   7127.67  5.5560006E-01
   7128.00  5.8990408E-01
   7128.33  6.2891146E-01
   7128.67  6.7095672E-01
   7129.00  7.1492780E-01
   7129.33  7.6073355E-01
   7129.67  8.0850949E-01
   7130.00  8.5708212E-01
   7130.33  9.0145682E-01
   7130.67  9.3577968E-01
   7131.00  9.5547409E-01
   7131.33  9.5579272E-01
   7131.67  9.3992374E-01
   7132.00  9.1165342E-01
   7132.33  8.7679376E-01
   7132.67  8.4243209E-01
   7133.00  8.1207325E-01
   7133.33  7.8756493E-01
   7133.67  7.6737514E-01
   7134.00  7.5051218E-01
   7134.33  7.3759803E-01
   7134.67  7.3039536E-01
   7135.00  7.3174925E-01
   7135.33  7.4587606E-01
   7135.67  7.7189933E-01
   7136.00  8.0728313E-01
   7136.33  8.4490815E-01
   7136.67  8.7365301E-01
   7137.00  8.8503324E-01
   7137.33  8.7305397E-01
   7137.67  8.4499690E-01
   7138.00  8.0800565E-01
   7138.33  7.6908074E-01
   7138.67  7.3263505E-01
   7139.00  7.0023056E-01
   7139.33  6.7291008E-01
   7139.67  6.4987152E-01
   7140.00  6.3064219E-01
   7140.33  6.1493162E-01
   7140.67  6.0165940E-01
   7141.00  5.9030362E-01
   7141.33  5.8056649E-01
   7141.67  5.7194792E-01
   7142.00  5.6428907E-01
   7142.33  5.5761296E-01
   7142.67  5.5178660E-01
   7143.00  5.4680389E-01
   7143.33  5.4273012E-01
   7143.67  5.3936445E-01
   7144.00  5.3655809E-01
   7144.33  5.3410714E-01
   7144.67  5.3167611E-01
   7145.00  5.2899757E-01
   7145.33  5.2571802E-01
   7145.67  5.2168523E-01
   7146.00  5.1678923E-01
   7146.33  5.1089175E-01
   7146.67  5.0417590E-01
   7147.00  4.9675949E-01
   7147.33  4.8875119E-01
   7147.67  4.8041061E-01
   7148.00  4.7190101E-01
   7148.33  4.6339164E-01
   7148.67  4.5501922E-01
   7149.00  4.4687624E-01
   7149.33  4.3909144E-01
   7149.67  4.3170326E-01
   7150.00  4.2474835E-01
   7150.33  4.1828028E-01
   7150.67  4.1220634E-01
   7151.00  4.0646077E-01
   7151.33  4.0095635E-01
   7151.67  3.9552086E-01
   7152.00  3.9002144E-01
   7152.33  3.8430418E-01
   7152.67  3.7831706E-01
   7153.00  3.7204167E-01
   7153.33  3.6546761E-01
   7153.67  3.5867893E-01
   7154.00  3.5172868E-01
   7154.33  3.4467147E-01
   7154.67  3.3759311E-01
   7155.00  3.3056603E-01
   7155.33  3.2370064E-01
   7155.67  3.1706803E-01
   7156.00  3.1072551E-01
   7156.33  3.0473444E-01
   7156.67  2.9901899E-01
   7157.00  2.9350577E-01
   7157.33  2.8809636E-01
   7157.67  2.8268008E-01
   7158.00  2.7720851E-01
   7158.33  2.7168269E-01
   7158.67  2.6619038E-01
   7159.00  2.6085616E-01
   7159.33  2.5591594E-01
   7159.67  2.5154779E-01
   7160.00  2.4795131E-01
   7160.33  2.4547925E-01
   7160.67  2.4421531E-01
   7161.00  2.4431460E-01
   7161.33  2.4611351E-01
   7161.67  2.4953288E-01
   7162.00  2.5463356E-01
   7162.33  2.6164772E-01
   7162.67  2.7032645E-01
   7163.00  2.8061380E-01
   7163.33  2.9260159E-01
   7163.67  3.0595690E-01
   7164.00  3.2051414E-01
   7164.33  3.3614799E-01
   7164.67  3.5243456E-01
   7165.00  3.6906504E-01
   7165.33  3.8562220E-01
   7165.67  4.0166600E-01
   7166.00  4.1680027E-01
   7166.33  4.3041708E-01
   7166.67  4.4231332E-01
   7167.00  4.5226065E-01
   7167.33  4.5987917E-01
   7167.67  4.6548500E-01
   7168.00  4.6926904E-01
   7168.33  4.7141010E-01
   7168.67  4.7255193E-01
   7169.00  4.7312163E-01
   7169.33  4.7358135E-01
   7169.67  4.7433810E-01
   7170.00  4.7563608E-01
   7170.33  4.7771799E-01
   7170.67  4.8050874E-01
   7171.00  4.8390649E-01
   7171.33  4.8770707E-01
   7171.67  4.9146067E-01
   7172.00  4.9470489E-01
