    FDMNES
    energy     <xanes>
   7097.00  5.2341378E-03
   7097.33  5.3590327E-03
   7097.67  5.4895679E-03
   7098.00  5.6261184E-03
   7098.33  5.7699779E-03
   7098.67  5.9208696E-03
   7099.00  6.0793003E-03
   7099.33  6.2469504E-03
   7099.67  6.4235305E-03
   7100.00  6.6097430E-03
   7100.33  6.8078231E-03
   7100.67  7.0174897E-03
   7101.00  7.2397440E-03
   7101.33  7.4776447E-03
   7101.67  7.7309656E-03
   7102.00  8.0011825E-03
   7102.33  8.2926251E-03
   7102.67  8.6052246E-03
   7103.00  8.9412469E-03
   7103.33  9.3070770E-03
   7103.67  9.7030339E-03
   7104.00  1.0132774E-02
   7104.33  1.0606203E-02
   7104.67  1.1124567E-02
   7105.00  1.1694143E-02
   7105.33  1.2331329E-02
   7105.67  1.3039648E-02
   7106.00  1.3830785E-02
   7106.33  1.4734306E-02
   7106.67  1.5759769E-02
   7107.00  1.6931451E-02
   7107.33  1.8309431E-02
   7107.67  1.9921496E-02
   7108.00  2.1826880E-02
   7108.33  2.4171798E-02
   7108.67  2.7052792E-02
   7109.00  3.0657188E-02
   7109.33  3.5467664E-02
   7109.67  4.1960326E-02
   7110.00  5.1061248E-02
   7110.33  6.5337176E-02
   7110.67  8.7126525E-02
   7111.00  1.1644817E-01
   7111.33  1.5019724E-01
   7111.67  1.9675185E-01
   7112.00  2.6340010E-01
   7112.33  3.3019868E-01
   7112.67  3.7379085E-01
   7113.00  4.1317103E-01
   7113.33  4.7423774E-01
   7113.67  5.1818416E-01
   7114.00  4.9432867E-01
   7114.33  4.1682594E-01
   7114.67  3.4744810E-01
   7115.00  3.0290799E-01
   7115.33  2.8436986E-01
   7115.67  2.8176907E-01
   7116.00  2.8585069E-01
   7116.33  2.8200719E-01
   7116.67  2.6486951E-01
   7117.00  2.3996593E-01
   7117.33  2.1637317E-01
   7117.67  1.9792311E-01
   7118.00  1.8469193E-01
   7118.33  1.7566851E-01
   7118.67  1.6863011E-01
   7119.00  1.6247437E-01
   7119.33  1.5666972E-01
   7119.67  1.5123294E-01
   7120.00  1.4646182E-01
   7120.33  1.4286683E-01
   7120.67  1.4060381E-01
   7121.00  1.3986235E-01
   7121.33  1.4121707E-01
   7121.67  1.4482952E-01
   7122.00  1.5082513E-01
   7122.33  1.5940100E-01
   7122.67  1.7032190E-01
   7123.00  1.8403024E-01
   7123.33  2.0207724E-01
   7123.67  2.2554473E-01
   7124.00  2.5591472E-01
   7124.33  2.9505773E-01
   7124.67  3.3960965E-01
   7125.00  3.8277598E-01
   7125.33  4.1193127E-01
   7125.67  4.2412800E-01
   7126.00  4.2477222E-01
   7126.33  4.2333945E-01
   7126.67  4.2628492E-01
   7127.00  4.3571186E-01
   7127.33  4.5297846E-01
   7127.67  4.7667795E-01
   7128.00  5.0582792E-01
   7128.33  5.3924570E-01
   7128.67  5.7435999E-01
   7129.00  6.0915046E-01
   7129.33  6.4096203E-01
   7129.67  6.6851578E-01
   7130.00  6.9146017E-01
   7130.33  7.0990915E-01
   7130.67  7.2555957E-01
   7131.00  7.3953443E-01
   7131.33  7.5295791E-01
   7131.67  7.6689823E-01
   7132.00  7.8209979E-01
   7132.33  7.9954721E-01
   7132.67  8.1952108E-01
   7133.00  8.4221992E-01
   7133.33  8.6772560E-01
   7133.67  8.9462467E-01
   7134.00  9.2066191E-01
   7134.33  9.4000432E-01
   7134.67  9.4586098E-01
   7135.00  9.3202746E-01
   7135.33  8.9332220E-01
   7135.67  8.3731974E-01
   7136.00  7.7171366E-01
   7136.33  7.0485232E-01
   7136.67  6.4229109E-01
   7137.00  5.8620517E-01
   7137.33  5.3820400E-01
   7137.67  4.9715258E-01
   7138.00  4.6264202E-01
   7138.33  4.3498944E-01
   7138.67  4.1305232E-01
   7139.00  3.9650799E-01
   7139.33  3.8552302E-01
   7139.67  3.7890243E-01
   7140.00  3.7605468E-01
   7140.33  3.7660585E-01
   7140.67  3.7943605E-01
   7141.00  3.8397173E-01
   7141.33  3.8980317E-01
   7141.67  3.9636934E-01
   7142.00  4.0341559E-01
   7142.33  4.1078188E-01
   7142.67  4.1832096E-01
   7143.00  4.2598418E-01
   7143.33  4.3376270E-01
   7143.67  4.4164092E-01
   7144.00  4.4961935E-01
   7144.33  4.5770631E-01
   7144.67  4.6587758E-01
   7145.00  4.7411454E-01
   7145.33  4.8239091E-01
   7145.67  4.9066332E-01
   7146.00  4.9889410E-01
   7146.33  5.0702789E-01
   7146.67  5.1503297E-01
   7147.00  5.2287735E-01
   7147.33  5.3051304E-01
   7147.67  5.3795094E-01
   7148.00  5.4518288E-01
   7148.33  5.5217612E-01
   7148.67  5.5895100E-01
   7149.00  5.6550605E-01
   7149.33  5.7182084E-01
   7149.67  5.7793038E-01
   7150.00  5.8384082E-01
   7150.33  5.8953289E-01
   7150.67  5.9503087E-01
   7151.00  6.0032743E-01
   7151.33  6.0537793E-01
   7151.67  6.1018569E-01
   7152.00  6.1472641E-01
   7152.33  6.1893329E-01
   7152.67  6.2281492E-01
   7153.00  6.2634936E-01
   7153.33  6.2946987E-01
   7153.67  6.3220844E-01
   7154.00  6.3455898E-01
   7154.33  6.3647239E-01
   7154.67  6.3800246E-01
   7155.00  6.3915737E-01
   7155.33  6.3990457E-01
   7155.67  6.4030380E-01
   7156.00  6.4036762E-01
   7156.33  6.4007018E-01
   7156.67  6.3946500E-01
   7157.00  6.3856239E-01
   7157.33  6.3733623E-01
   7157.67  6.3582931E-01
   7158.00  6.3404510E-01
   7158.33  6.3195061E-01
   7158.67  6.2957983E-01
   7159.00  6.2693146E-01
   7159.33  6.2396792E-01
   7159.67  6.2072135E-01
   7160.00  6.1719028E-01
   7160.33  6.1333980E-01
   7160.67  6.0920900E-01
   7161.00  6.0480160E-01
   7161.33  6.0008734E-01
   7161.67  5.9511032E-01
   7162.00  5.8988636E-01
   7162.33  5.8441741E-01
   7162.67  5.7876467E-01
   7163.00  5.7295266E-01
   7163.33  5.6699223E-01
   7163.67  5.6092738E-01
   7164.00  5.5478038E-01
   7164.33  5.4856802E-01
   7164.67  5.4231896E-01
   7165.00  5.3604843E-01
   7165.33  5.2976989E-01
   7165.67  5.2349635E-01
   7166.00  5.1723611E-01
   7166.33  5.1099742E-01
   7166.67  5.0478209E-01
   7167.00  4.9859440E-01
   7167.33  4.9244433E-01
   7167.67  4.8633452E-01
   7168.00  4.8027274E-01
   7168.33  4.7427909E-01
   7168.67  4.6836300E-01
   7169.00  4.6254231E-01
   7169.33  4.5685571E-01
   7169.67  4.5131649E-01
   7170.00  4.4594950E-01
   7170.33  4.4080481E-01
   7170.67  4.3589431E-01
   7171.00  4.3126537E-01
   7171.33  4.2704800E-01
   7171.67  4.2334531E-01
   7172.00  4.2034423E-01
