    FDMNES
    energy     <xanes>
   7097.00  4.5599195E-03
   7097.33  4.6561557E-03
   7097.67  4.7562453E-03
   7098.00  4.8604232E-03
   7098.33  4.9695388E-03
   7098.67  5.0833761E-03
   7099.00  5.2022492E-03
   7099.33  5.3272433E-03
   7099.67  5.4581308E-03
   7100.00  5.5953431E-03
   7100.33  5.7403028E-03
   7100.67  5.8927839E-03
   7101.00  6.0533982E-03
   7101.33  6.2240697E-03
   7101.67  6.4046049E-03
   7102.00  6.5959064E-03
   7102.33  6.8006787E-03
   7102.67  7.0188320E-03
   7103.00  7.2517641E-03
   7103.33  7.5034657E-03
   7103.67  7.7741183E-03
   7104.00  8.0660223E-03
   7104.33  8.3854453E-03
   7104.67  8.7332545E-03
   7105.00  9.1135436E-03
   7105.33  9.5369986E-03
   7105.67  1.0006289E-02
   7106.00  1.0529491E-02
   7106.33  1.1126972E-02
   7106.67  1.1806611E-02
   7107.00  1.2586769E-02
   7107.33  1.3512878E-02
   7107.67  1.4610506E-02
   7108.00  1.5930888E-02
   7108.33  1.7602162E-02
   7108.67  1.9727695E-02
   7109.00  2.2503674E-02
   7109.33  2.6454786E-02
   7109.67  3.2200090E-02
   7110.00  4.0962473E-02
   7110.33  5.6256924E-02
   7110.67  8.1372793E-02
   7111.00  1.1499320E-01
   7111.33  1.4483414E-01
   7111.67  1.5890095E-01
   7112.00  1.4879943E-01
   7112.33  1.2882355E-01
   7112.67  1.1749380E-01
   7113.00  1.1761120E-01
   7113.33  1.2500337E-01
   7113.67  1.3595481E-01
   7114.00  1.5328521E-01
   7114.33  1.7329776E-01
   7114.67  1.7135891E-01
   7115.00  1.4227341E-01
   7115.33  1.1337658E-01
   7115.67  9.6715794E-02
   7116.00  9.0665516E-02
   7116.33  9.3697512E-02
   7116.67  1.0431825E-01
   7117.00  1.2377284E-01
   7117.33  1.5645936E-01
   7117.67  2.0279654E-01
   7118.00  2.5730592E-01
   7118.33  2.9735899E-01
   7118.67  3.0805879E-01
   7119.00  2.9700171E-01
   7119.33  2.8058848E-01
   7119.67  2.6922487E-01
   7120.00  2.6651006E-01
   7120.33  2.7524800E-01
   7120.67  2.9375887E-01
   7121.00  3.1938970E-01
   7121.33  3.4524605E-01
   7121.67  3.6372929E-01
   7122.00  3.7269904E-01
   7122.33  3.7468147E-01
   7122.67  3.7584470E-01
   7123.00  3.7947916E-01
   7123.33  3.8652278E-01
   7123.67  3.9445177E-01
   7124.00  4.0137858E-01
   7124.33  4.0626829E-01
   7124.67  4.0935424E-01
   7125.00  4.1085890E-01
   7125.33  4.1140023E-01
   7125.67  4.1215667E-01
   7126.00  4.1383388E-01
   7126.33  4.1685089E-01
   7126.67  4.2106902E-01
   7127.00  4.2663570E-01
   7127.33  4.3402687E-01
   7127.67  4.4303720E-01
   7128.00  4.5332515E-01
   7128.33  4.6454373E-01
   7128.67  4.7672376E-01
   7129.00  4.9056155E-01
   7129.33  5.0694378E-01
   7129.67  5.2511476E-01
   7130.00  5.4390994E-01
   7130.33  5.6172061E-01
   7130.67  5.7759020E-01
   7131.00  5.9103081E-01
   7131.33  6.0149080E-01
   7131.67  6.0943747E-01
   7132.00  6.1527397E-01
   7132.33  6.1929221E-01
   7132.67  6.2178403E-01
   7133.00  6.2250612E-01
   7133.33  6.2117533E-01
   7133.67  6.1867977E-01
   7134.00  6.1597405E-01
   7134.33  6.1407025E-01
   7134.67  6.1307859E-01
   7135.00  6.1258925E-01
   7135.33  6.1199309E-01
   7135.67  6.1110544E-01
   7136.00  6.1013110E-01
   7136.33  6.0953841E-01
   7136.67  6.0964261E-01
   7137.00  6.1056273E-01
   7137.33  6.1227809E-01
   7137.67  6.1441913E-01
   7138.00  6.1673426E-01
   7138.33  6.1905972E-01
   7138.67  6.2142230E-01
   7139.00  6.2395897E-01
   7139.33  6.2687202E-01
   7139.67  6.3014368E-01
   7140.00  6.3364157E-01
   7140.33  6.3708512E-01
   7140.67  6.4019595E-01
   7141.00  6.4279654E-01
   7141.33  6.4473230E-01
   7141.67  6.4613265E-01
   7142.00  6.4710836E-01
   7142.33  6.4775899E-01
   7142.67  6.4820294E-01
   7143.00  6.4843841E-01
   7143.33  6.4833589E-01
   7143.67  6.4776204E-01
   7144.00  6.4653452E-01
   7144.33  6.4433490E-01
   7144.67  6.4111262E-01
   7145.00  6.3680831E-01
   7145.33  6.3134195E-01
   7145.67  6.2501751E-01
   7146.00  6.1805319E-01
   7146.33  6.1066652E-01
   7146.67  6.0312521E-01
   7147.00  5.9558372E-01
   7147.33  5.8820328E-01
   7147.67  5.8106930E-01
   7148.00  5.7424226E-01
   7148.33  5.6781170E-01
   7148.67  5.6174957E-01
   7149.00  5.5603597E-01
   7149.33  5.5064810E-01
   7149.67  5.4545839E-01
   7150.00  5.4036830E-01
   7150.33  5.3525146E-01
   7150.67  5.2998911E-01
   7151.00  5.2448640E-01
   7151.33  5.1861879E-01
   7151.67  5.1238237E-01
   7152.00  5.0577752E-01
   7152.33  4.9880887E-01
   7152.67  4.9160279E-01
   7153.00  4.8426043E-01
   7153.33  4.7691967E-01
   7153.67  4.6972498E-01
   7154.00  4.6279705E-01
   7154.33  4.5631277E-01
   7154.67  4.5032874E-01
   7155.00  4.4491559E-01
   7155.33  4.4020952E-01
   7155.67  4.3616207E-01
   7156.00  4.3277704E-01
   7156.33  4.3011784E-01
   7156.67  4.2806875E-01
   7157.00  4.2658845E-01
   7157.33  4.2568222E-01
   7157.67  4.2522064E-01
   7158.00  4.2514513E-01
   7158.33  4.2542667E-01
   7158.67  4.2595897E-01
   7159.00  4.2668836E-01
   7159.33  4.2757245E-01
   7159.67  4.2853646E-01
   7160.00  4.2953622E-01
   7160.33  4.3052830E-01
   7160.67  4.3147818E-01
   7161.00  4.3235534E-01
   7161.33  4.3311217E-01
   7161.67  4.3373071E-01
   7162.00  4.3418537E-01
   7162.33  4.3442117E-01
   7162.67  4.3443309E-01
   7163.00  4.3420457E-01
   7163.33  4.3370112E-01
   7163.67  4.3296843E-01
   7164.00  4.3203536E-01
   7164.33  4.3093422E-01
   7164.67  4.2974974E-01
   7165.00  4.2854554E-01
   7165.33  4.2740375E-01
   7165.67  4.2638672E-01
   7166.00  4.2554470E-01
   7166.33  4.2495068E-01
   7166.67  4.2460778E-01
   7167.00  4.2453078E-01
   7167.33  4.2475815E-01
   7167.67  4.2524844E-01
   7168.00  4.2598650E-01
   7168.33  4.2697425E-01
   7168.67  4.2815096E-01
   7169.00  4.2948415E-01
   7169.33  4.3094780E-01
   7169.67  4.3248546E-01
   7170.00  4.3406086E-01
   7170.33  4.3563210E-01
   7170.67  4.3715958E-01
   7171.00  4.3860910E-01
   7171.33  4.3992189E-01
   7171.67  4.4105746E-01
   7172.00  4.4195680E-01
