    FDMNES
    energy     <xanes>
   7097.00  4.4352431E-03
   7097.33  4.5242888E-03
   7097.67  4.6166064E-03
   7098.00  4.7123763E-03
   7098.33  4.8122879E-03
   7098.67  4.9161323E-03
   7099.00  5.0241449E-03
   7099.33  5.1371852E-03
   7099.67  5.2550277E-03
   7100.00  5.3779869E-03
   7100.33  5.5071590E-03
   7100.67  5.6423076E-03
   7101.00  5.7838659E-03
   7101.33  5.9332711E-03
   7101.67  6.0902918E-03
   7102.00  6.2555470E-03
   7102.33  6.4309877E-03
   7102.67  6.6164252E-03
   7103.00  6.8127858E-03
   7103.33  7.0228384E-03
   7103.67  7.2465273E-03
   7104.00  7.4853216E-03
   7104.33  7.7433865E-03
   7104.67  8.0210213E-03
   7105.00  8.3207379E-03
   7105.33  8.6493060E-03
   7105.67  9.0079680E-03
   7106.00  9.4014652E-03
   7106.33  9.8420255E-03
   7106.67  1.0333573E-02
   7107.00  1.0886344E-02
   7107.33  1.1525955E-02
   7107.67  1.2265076E-02
   7108.00  1.3130446E-02
   7108.33  1.4188791E-02
   7108.67  1.5488683E-02
   7109.00  1.7123477E-02
   7109.33  1.9337948E-02
   7109.67  2.2395846E-02
   7110.00  2.6812028E-02
   7110.33  3.4047098E-02
   7110.67  4.5607953E-02
   7111.00  6.2093935E-02
   7111.33  8.2919276E-02
   7111.67  1.0730362E-01
   7112.00  1.2489900E-01
   7112.33  1.2600166E-01
   7112.67  1.1243923E-01
   7113.00  9.5206390E-02
   7113.33  8.3277340E-02
   7113.67  7.2973219E-02
   7114.00  6.3753906E-02
   7114.33  5.7563633E-02
   7114.67  5.4309461E-02
   7115.00  5.3508407E-02
   7115.33  5.4931731E-02
   7115.67  5.8151813E-02
   7116.00  6.3240304E-02
   7116.33  7.0789771E-02
   7116.67  8.1108092E-02
   7117.00  9.4943409E-02
   7117.33  1.1410668E-01
   7117.67  1.3964003E-01
   7118.00  1.7326316E-01
   7118.33  2.1797337E-01
   7118.67  2.7174099E-01
   7119.00  3.2907913E-01
   7119.33  3.7804837E-01
   7119.67  4.1097137E-01
   7120.00  4.2630314E-01
   7120.33  4.2653349E-01
   7120.67  4.1978082E-01
   7121.00  4.1069154E-01
   7121.33  4.0318100E-01
   7121.67  3.9939073E-01
   7122.00  4.0034691E-01
   7122.33  4.0708817E-01
   7122.67  4.1881662E-01
   7123.00  4.3473859E-01
   7123.33  4.5303185E-01
   7123.67  4.7060583E-01
   7124.00  4.8584998E-01
   7124.33  4.9873760E-01
   7124.67  5.1085069E-01
   7125.00  5.2280697E-01
   7125.33  5.3405841E-01
   7125.67  5.4334164E-01
   7126.00  5.4946154E-01
   7126.33  5.5131498E-01
   7126.67  5.4995661E-01
   7127.00  5.4667035E-01
   7127.33  5.4321681E-01
   7127.67  5.4111406E-01
   7128.00  5.4122216E-01
   7128.33  5.4442662E-01
   7128.67  5.5056378E-01
   7129.00  5.5957077E-01
   7129.33  5.7145391E-01
   7129.67  5.8530689E-01
   7130.00  6.0042599E-01
   7130.33  6.1588703E-01
   7130.67  6.3065726E-01
   7131.00  6.4392164E-01
   7131.33  6.5450793E-01
   7131.67  6.6198948E-01
   7132.00  6.6589783E-01
   7132.33  6.6539120E-01
   7132.67  6.6090662E-01
   7133.00  6.5272918E-01
   7133.33  6.4124483E-01
   7133.67  6.2791278E-01
   7134.00  6.1376666E-01
   7134.33  5.9994196E-01
   7134.67  5.8723223E-01
   7135.00  5.7609691E-01
   7135.33  5.6706520E-01
   7135.67  5.6001245E-01
   7136.00  5.5493381E-01
   7136.33  5.5198933E-01
   7136.67  5.5081031E-01
   7137.00  5.5124146E-01
   7137.33  5.5321053E-01
   7137.67  5.5622783E-01
   7138.00  5.5996787E-01
   7138.33  5.6406815E-01
   7138.67  5.6811778E-01
   7139.00  5.7186357E-01
   7139.33  5.7504577E-01
   7139.67  5.7763023E-01
   7140.00  5.7959791E-01
   7140.33  5.8089991E-01
   7140.67  5.8165274E-01
   7141.00  5.8188717E-01
   7141.33  5.8156326E-01
   7141.67  5.8075660E-01
   7142.00  5.7948334E-01
   7142.33  5.7771742E-01
   7142.67  5.7554190E-01
   7143.00  5.7301408E-01
   7143.33  5.7022675E-01
   7143.67  5.6734505E-01
   7144.00  5.6447485E-01
   7144.33  5.6172608E-01
   7144.67  5.5914873E-01
   7145.00  5.5677286E-01
   7145.33  5.5463758E-01
   7145.67  5.5271165E-01
   7146.00  5.5098308E-01
   7146.33  5.4945542E-01
   7146.67  5.4808500E-01
   7147.00  5.4685225E-01
   7147.33  5.4574655E-01
   7147.67  5.4472549E-01
   7148.00  5.4376102E-01
   7148.33  5.4281772E-01
   7148.67  5.4185008E-01
   7149.00  5.4081765E-01
   7149.33  5.3965743E-01
   7149.67  5.3833634E-01
   7150.00  5.3681740E-01
   7150.33  5.3503546E-01
   7150.67  5.3299479E-01
   7151.00  5.3068442E-01
   7151.33  5.2807039E-01
   7151.67  5.2519921E-01
   7152.00  5.2209136E-01
   7152.33  5.1875393E-01
   7152.67  5.1525125E-01
   7153.00  5.1161796E-01
   7153.33  5.0787699E-01
   7153.67  5.0406296E-01
   7154.00  5.0018270E-01
   7154.33  4.9621728E-01
   7154.67  4.9214812E-01
   7155.00  4.8794047E-01
   7155.33  4.8352806E-01
   7155.67  4.7890074E-01
   7156.00  4.7404919E-01
   7156.33  4.6896399E-01
   7156.67  4.6371668E-01
   7157.00  4.5836367E-01
   7157.33  4.5297457E-01
   7157.67  4.4762563E-01
   7158.00  4.4237245E-01
   7158.33  4.3728637E-01
   7158.67  4.3238848E-01
   7159.00  4.2770458E-01
   7159.33  4.2328732E-01
   7159.67  4.1912473E-01
   7160.00  4.1522898E-01
   7160.33  4.1164631E-01
   7160.67  4.0835135E-01
   7161.00  4.0535136E-01
   7161.33  4.0268997E-01
   7161.67  4.0033193E-01
   7162.00  3.9827646E-01
   7162.33  3.9655602E-01
   7162.67  3.9512432E-01
   7163.00  3.9397009E-01
   7163.33  3.9310966E-01
   7163.67  3.9249248E-01
   7164.00  3.9210319E-01
   7164.33  3.9195119E-01
   7164.67  3.9199496E-01
   7165.00  3.9222331E-01
   7165.33  3.9264766E-01
   7165.67  3.9323850E-01
   7166.00  3.9399088E-01
   7166.33  3.9492024E-01
   7166.67  3.9600322E-01
   7167.00  3.9723627E-01
   7167.33  3.9863251E-01
   7167.67  4.0016741E-01
   7168.00  4.0183405E-01
   7168.33  4.0363771E-01
   7168.67  4.0555021E-01
   7169.00  4.0755743E-01
   7169.33  4.0964919E-01
   7169.67  4.1179346E-01
   7170.00  4.1396849E-01
   7170.33  4.1614638E-01
   7170.67  4.1829365E-01
   7171.00  4.2037471E-01
   7171.33  4.2231599E-01
   7171.67  4.2404084E-01
   7172.00  4.2543732E-01
