    FDMNES
    energy     <xanes>
   7097.00  5.0391411E-03
   7097.33  5.1530591E-03
   7097.67  5.2717414E-03
   7098.00  5.3954814E-03
   7098.33  5.5253325E-03
   7098.67  5.6610289E-03
   7099.00  5.8029597E-03
   7099.33  5.9524672E-03
   7099.67  6.1092659E-03
   7100.00  6.2738843E-03
   7100.33  6.4480700E-03
   7100.67  6.6315291E-03
   7101.00  6.8249982E-03
   7101.33  7.0308132E-03
   7101.67  7.2486972E-03
   7102.00  7.4797104E-03
   7102.33  7.7270734E-03
   7102.67  7.9905851E-03
   7103.00  8.2718305E-03
   7103.33  8.5754212E-03
   7103.67  8.9013645E-03
   7104.00  9.2521423E-03
   7104.33  9.6346769E-03
   7104.67  1.0049490E-02
   7105.00  1.0500703E-02
   7105.33  1.0999348E-02
   7105.67  1.1547218E-02
   7106.00  1.2151692E-02
   7106.33  1.2831814E-02
   7106.67  1.3592692E-02
   7107.00  1.4448980E-02
   7107.33  1.5437416E-02
   7107.67  1.6572842E-02
   7108.00  1.7889103E-02
   7108.33  1.9470087E-02
   7108.67  2.1365739E-02
   7109.00  2.3675849E-02
   7109.33  2.6655353E-02
   7109.67  3.0535887E-02
   7110.00  3.5769932E-02
   7110.33  4.3626320E-02
   7110.67  5.5574979E-02
   7111.00  7.3229878E-02
   7111.33  9.4407920E-02
   7111.67  1.1221424E-01
   7112.00  1.3477714E-01
   7112.33  1.7950419E-01
   7112.67  2.4467878E-01
   7113.00  3.0189076E-01
   7113.33  3.0904156E-01
   7113.67  2.8988038E-01
   7114.00  2.9355417E-01
   7114.33  3.5253782E-01
   7114.67  4.4466667E-01
   7115.00  5.1004277E-01
   7115.33  4.7636146E-01
   7115.67  3.8922323E-01
   7116.00  3.0310198E-01
   7116.33  2.4316456E-01
   7116.67  2.0328253E-01
   7117.00  1.7760189E-01
   7117.33  1.6100866E-01
   7117.67  1.4806227E-01
   7118.00  1.3735829E-01
   7118.33  1.2911899E-01
   7118.67  1.2311233E-01
   7119.00  1.1921010E-01
   7119.33  1.1751412E-01
   7119.67  1.1774313E-01
   7120.00  1.1993826E-01
   7120.33  1.2441744E-01
   7120.67  1.3100563E-01
   7121.00  1.3989262E-01
   7121.33  1.5194626E-01
   7121.67  1.6765285E-01
   7122.00  1.8793327E-01
   7122.33  2.1465093E-01
   7122.67  2.4793098E-01
   7123.00  2.8791780E-01
   7123.33  3.3469942E-01
   7123.67  3.8612225E-01
   7124.00  4.4074029E-01
   7124.33  4.9720281E-01
   7124.67  5.5366034E-01
   7125.00  6.0733375E-01
   7125.33  6.5011179E-01
   7125.67  6.7424820E-01
   7126.00  6.7658619E-01
   7126.33  6.6047347E-01
   7126.67  6.3669449E-01
   7127.00  6.1074290E-01
   7127.33  5.8629296E-01
   7127.67  5.6475581E-01
   7128.00  5.4693702E-01
   7128.33  5.3434163E-01
   7128.67  5.2717358E-01
   7129.00  5.2580220E-01
   7129.33  5.3102746E-01
   7129.67  5.4185511E-01
   7130.00  5.5783567E-01
   7130.33  5.7889127E-01
   7130.67  6.0379423E-01
   7131.00  6.3204868E-01
   7131.33  6.6374140E-01
   7131.67  6.9874973E-01
   7132.00  7.3793488E-01
   7132.33  7.8402948E-01
   7132.67  8.3951282E-01
   7133.00  9.0839543E-01
   7133.33  9.9913427E-01
   7133.67  1.1155744E+00
   7134.00  1.2604225E+00
   7134.33  1.4279240E+00
   7134.67  1.5822422E+00
   7135.00  1.6729050E+00
   7135.33  1.6358868E+00
   7135.67  1.4951147E+00
   7136.00  1.3015112E+00
   7136.33  1.1115088E+00
   7136.67  9.5073068E-01
   7137.00  8.2283470E-01
   7137.33  7.2681308E-01
   7137.67  6.5252491E-01
   7138.00  5.9495344E-01
   7138.33  5.5104969E-01
   7138.67  5.1598621E-01
   7139.00  4.8773960E-01
   7139.33  4.6529197E-01
   7139.67  4.4678913E-01
   7140.00  4.3143478E-01
   7140.33  4.1883670E-01
   7140.67  4.0817369E-01
   7141.00  3.9910878E-01
   7141.33  3.9149622E-01
   7141.67  3.8493538E-01
   7142.00  3.7926152E-01
   7142.33  3.7440793E-01
   7142.67  3.7015325E-01
   7143.00  3.6640263E-01
   7143.33  3.6311052E-01
   7143.67  3.6013996E-01
   7144.00  3.5742329E-01
   7144.33  3.5491051E-01
   7144.67  3.5251273E-01
   7145.00  3.5017850E-01
   7145.33  3.4785645E-01
   7145.67  3.4550186E-01
   7146.00  3.4308592E-01
   7146.33  3.4057346E-01
   7146.67  3.3795837E-01
   7147.00  3.3523095E-01
   7147.33  3.3237080E-01
   7147.67  3.2939417E-01
   7148.00  3.2630897E-01
   7148.33  3.2312086E-01
   7148.67  3.1986660E-01
   7149.00  3.1657338E-01
   7149.33  3.1327541E-01
   7149.67  3.1000718E-01
   7150.00  3.0679433E-01
   7150.33  3.0367000E-01
   7150.67  3.0063994E-01
   7151.00  2.9771067E-01
   7151.33  2.9488999E-01
   7151.67  2.9215106E-01
   7152.00  2.8947563E-01
   7152.33  2.8684256E-01
   7152.67  2.8421841E-01
   7153.00  2.8157777E-01
   7153.33  2.7888618E-01
   7153.67  2.7612375E-01
   7154.00  2.7327301E-01
   7154.33  2.7030815E-01
   7154.67  2.6723970E-01
   7155.00  2.6407774E-01
   7155.33  2.6084355E-01
   7155.67  2.5759801E-01
   7156.00  2.5440907E-01
   7156.33  2.5140721E-01
   7156.67  2.4871667E-01
   7157.00  2.4648933E-01
   7157.33  2.4501113E-01
   7157.67  2.4441613E-01
   7158.00  2.4488724E-01
   7158.33  2.4676598E-01
   7158.67  2.5002280E-01
   7159.00  2.5469967E-01
   7159.33  2.6092822E-01
   7159.67  2.6840273E-01
   7160.00  2.7694741E-01
   7160.33  2.8641185E-01
   7160.67  2.9641835E-01
   7161.00  3.0673411E-01
   7161.33  3.1712184E-01
   7161.67  3.2736935E-01
   7162.00  3.3733890E-01
   7162.33  3.4686448E-01
   7162.67  3.5591967E-01
   7163.00  3.6446493E-01
   7163.33  3.7241209E-01
   7163.67  3.7982687E-01
   7164.00  3.8672019E-01
   7164.33  3.9305042E-01
   7164.67  3.9890681E-01
   7165.00  4.0431563E-01
   7165.33  4.0925822E-01
   7165.67  4.1382135E-01
   7166.00  4.1803361E-01
   7166.33  4.2187303E-01
   7166.67  4.2539493E-01
   7167.00  4.2862507E-01
   7167.33  4.3156693E-01
   7167.67  4.3428617E-01
   7168.00  4.3680995E-01
   7168.33  4.3914855E-01
   7168.67  4.4135272E-01
   7169.00  4.4344791E-01
   7169.33  4.4545343E-01
   7169.67  4.4740675E-01
   7170.00  4.4932882E-01
   7170.33  4.5123722E-01
   7170.67  4.5314273E-01
   7171.00  4.5504012E-01
   7171.33  4.5688994E-01
   7171.67  4.5860865E-01
   7172.00  4.6006422E-01
