    FDMNES
    energy     <xanes>
   7097.00  4.9948507E-03
   7097.33  5.1067318E-03
   7097.67  5.2232416E-03
   7098.00  5.3446623E-03
   7098.33  5.4720126E-03
   7098.67  5.6050308E-03
   7099.00  5.7440905E-03
   7099.33  5.8904871E-03
   7099.67  6.0439392E-03
   7100.00  6.2049533E-03
   7100.33  6.3752127E-03
   7100.67  6.5544269E-03
   7101.00  6.7433010E-03
   7101.33  6.9440809E-03
   7101.67  7.1564915E-03
   7102.00  7.3815474E-03
   7102.33  7.6223409E-03
   7102.67  7.8786699E-03
   7103.00  8.1520524E-03
   7103.33  8.4469157E-03
   7103.67  8.7632624E-03
   7104.00  9.1034775E-03
   7104.33  9.4742207E-03
   7104.67  9.8760108E-03
   7105.00  1.0312840E-02
   7105.33  1.0795395E-02
   7105.67  1.1325508E-02
   7106.00  1.1910452E-02
   7106.33  1.2568982E-02
   7106.67  1.3306527E-02
   7107.00  1.4138056E-02
   7107.33  1.5101145E-02
   7107.67  1.6212725E-02
   7108.00  1.7510079E-02
   7108.33  1.9086754E-02
   7108.67  2.1008016E-02
   7109.00  2.3402985E-02
   7109.33  2.6616759E-02
   7109.67  3.1036029E-02
   7110.00  3.7434289E-02
   7110.33  4.7953409E-02
   7110.67  6.3558016E-02
   7111.00  7.8860748E-02
   7111.33  8.3046429E-02
   7111.67  8.9219061E-02
   7112.00  1.0533576E-01
   7112.33  1.3537908E-01
   7112.67  1.8383575E-01
   7113.00  2.5135736E-01
   7113.33  3.0153707E-01
   7113.67  2.9970823E-01
   7114.00  2.8555850E-01
   7114.33  3.1951517E-01
   7114.67  4.0285790E-01
   7115.00  4.9730143E-01
   7115.33  5.0975298E-01
   7115.67  4.3880703E-01
   7116.00  3.4291702E-01
   7116.33  2.6942337E-01
   7116.67  2.1981871E-01
   7117.00  1.8802578E-01
   7117.33  1.6828605E-01
   7117.67  1.5365127E-01
   7118.00  1.4174353E-01
   7118.33  1.3240946E-01
   7118.67  1.2542365E-01
   7119.00  1.2067507E-01
   7119.33  1.1824866E-01
   7119.67  1.1781408E-01
   7120.00  1.1940682E-01
   7120.33  1.2337579E-01
   7120.67  1.2951082E-01
   7121.00  1.3788480E-01
   7121.33  1.4917023E-01
   7121.67  1.6381121E-01
   7122.00  1.8275041E-01
   7122.33  2.0793712E-01
   7122.67  2.3972458E-01
   7123.00  2.7850563E-01
   7123.33  3.2478683E-01
   7123.67  3.7663498E-01
   7124.00  4.3271843E-01
   7124.33  4.9173995E-01
   7124.67  5.5163940E-01
   7125.00  6.0963765E-01
   7125.33  6.5703030E-01
   7125.67  6.8506661E-01
   7126.00  6.9045710E-01
   7126.33  6.7630789E-01
   7126.67  6.5289919E-01
   7127.00  6.2550499E-01
   7127.33  5.9825855E-01
   7127.67  5.7371898E-01
   7128.00  5.5318778E-01
   7128.33  5.3830243E-01
   7128.67  5.2919092E-01
   7129.00  5.2623256E-01
   7129.33  5.3027056E-01
   7129.67  5.4025822E-01
   7130.00  5.5571169E-01
   7130.33  5.7645617E-01
   7130.67  6.0114984E-01
   7131.00  6.2927341E-01
   7131.33  6.6096987E-01
   7131.67  6.9621303E-01
   7132.00  7.3599059E-01
   7132.33  7.8323354E-01
   7132.67  8.4045192E-01
   7133.00  9.1170548E-01
   7133.33  1.0055823E+00
   7133.67  1.1258204E+00
   7134.00  1.2748361E+00
   7134.33  1.4454913E+00
   7134.67  1.5993761E+00
   7135.00  1.6839266E+00
   7135.33  1.6364747E+00
   7135.67  1.4871660E+00
   7136.00  1.2897052E+00
   7136.33  1.0999308E+00
   7136.67  9.4078706E-01
   7137.00  8.1476056E-01
   7137.33  7.2024943E-01
   7137.67  6.4699436E-01
   7138.00  5.9000470E-01
   7138.33  5.4633342E-01
   7138.67  5.1133565E-01
   7139.00  4.8305216E-01
   7139.33  4.6048476E-01
   7139.67  4.4184932E-01
   7140.00  4.2638135E-01
   7140.33  4.1369995E-01
   7140.67  4.0298250E-01
   7141.00  3.9389289E-01
   7141.33  3.8628912E-01
   7141.67  3.7976611E-01
   7142.00  3.7415811E-01
   7142.33  3.6940023E-01
   7142.67  3.6526583E-01
   7143.00  3.6165784E-01
   7143.33  3.5853069E-01
   7143.67  3.5574341E-01
   7144.00  3.5322775E-01
   7144.33  3.5093457E-01
   7144.67  3.4877053E-01
   7145.00  3.4668098E-01
   7145.33  3.4461033E-01
   7145.67  3.4250732E-01
   7146.00  3.4033815E-01
   7146.33  3.3806120E-01
   7146.67  3.3566750E-01
   7147.00  3.3314494E-01
   7147.33  3.3046893E-01
   7147.67  3.2765655E-01
   7148.00  3.2471433E-01
   7148.33  3.2164235E-01
   7148.67  3.1847720E-01
   7149.00  3.1524438E-01
   7149.33  3.1197485E-01
   7149.67  3.0870966E-01
   7150.00  3.0547878E-01
   7150.33  3.0231921E-01
   7150.67  2.9924366E-01
   7151.00  2.9626342E-01
   7151.33  2.9339389E-01
   7151.67  2.9061325E-01
   7152.00  2.8790615E-01
   7152.33  2.8525511E-01
   7152.67  2.8262597E-01
   7153.00  2.7999302E-01
   7153.33  2.7732189E-01
   7153.67  2.7458893E-01
   7154.00  2.7177392E-01
   7154.33  2.6884734E-01
   7154.67  2.6581464E-01
   7155.00  2.6268113E-01
   7155.33  2.5946035E-01
   7155.67  2.5620844E-01
   7156.00  2.5298795E-01
   7156.33  2.4992005E-01
   7156.67  2.4712896E-01
   7157.00  2.4476544E-01
   7157.33  2.4311357E-01
   7157.67  2.4231860E-01
   7158.00  2.4257354E-01
   7158.33  2.4423554E-01
   7158.67  2.4729288E-01
   7159.00  2.5180236E-01
   7159.33  2.5791669E-01
   7159.67  2.6533528E-01
   7160.00  2.7388704E-01
   7160.33  2.8342929E-01
   7160.67  2.9357131E-01
   7161.00  3.0407211E-01
   7161.33  3.1468473E-01
   7161.67  3.2517710E-01
   7162.00  3.3539962E-01
   7162.33  3.4517431E-01
   7162.67  3.5446682E-01
   7163.00  3.6323406E-01
   7163.33  3.7138461E-01
   7163.67  3.7898622E-01
   7164.00  3.8605030E-01
   7164.33  3.9253474E-01
   7164.67  3.9853154E-01
   7165.00  4.0406774E-01
   7165.33  4.0912428E-01
   7165.67  4.1378981E-01
   7166.00  4.1809588E-01
   7166.33  4.2203646E-01
   7166.67  4.2567108E-01
   7167.00  4.2901200E-01
   7167.33  4.3205551E-01
   7167.67  4.3486901E-01
   7168.00  4.3747969E-01
   7168.33  4.3989534E-01
   7168.67  4.4216551E-01
   7169.00  4.4431357E-01
   7169.33  4.4635457E-01
   7169.67  4.4832598E-01
   7170.00  4.5024763E-01
   7170.33  4.5213437E-01
   7170.67  4.5400031E-01
   7171.00  4.5584243E-01
   7171.33  4.5762476E-01
   7171.67  4.5927369E-01
   7172.00  4.6066813E-01
