    FDMNES
    energy     <xanes>
   7097.00  4.9179172E-03
   7097.33  5.0326873E-03
   7097.67  5.1526247E-03
   7098.00  5.2780792E-03
   7098.33  5.4102468E-03
   7098.67  5.5488830E-03
   7099.00  5.6944648E-03
   7099.33  5.8485566E-03
   7099.67  6.0109090E-03
   7100.00  6.1821899E-03
   7100.33  6.3645001E-03
   7100.67  6.5576097E-03
   7101.00  6.7624836E-03
   7101.33  6.9820322E-03
   7101.67  7.2160991E-03
   7102.00  7.4661316E-03
   7102.33  7.7363146E-03
   7102.67  8.0266858E-03
   7103.00  8.3395154E-03
   7103.33  8.6811017E-03
   7103.67  9.0519511E-03
   7104.00  9.4558250E-03
   7104.33  9.9027588E-03
   7104.67  1.0394384E-02
   7105.00  1.0937381E-02
   7105.33  1.1548950E-02
   7105.67  1.2233552E-02
   7106.00  1.3004175E-02
   7106.33  1.3893295E-02
   7106.67  1.4913168E-02
   7107.00  1.6092354E-02
   7107.33  1.7501063E-02
   7107.67  1.9176421E-02
   7108.00  2.1193524E-02
   7108.33  2.3738133E-02
   7108.67  2.6947972E-02
   7109.00  3.1084364E-02
   7109.33  3.6829902E-02
   7109.67  4.4920850E-02
   7110.00  5.6795387E-02
   7110.33  7.6612627E-02
   7110.67  1.0938922E-01
   7111.00  1.5869990E-01
   7111.33  2.0827204E-01
   7111.67  2.4034264E-01
   7112.00  2.7453518E-01
   7112.33  3.2069657E-01
   7112.67  3.5747717E-01
   7113.00  3.8243343E-01
   7113.33  3.8611828E-01
   7113.67  3.6055574E-01
   7114.00  3.0534562E-01
   7114.33  2.3486518E-01
   7114.67  1.8461508E-01
   7115.00  1.6111077E-01
   7115.33  1.6307092E-01
   7115.67  1.8068658E-01
   7116.00  2.0108190E-01
   7116.33  2.1367649E-01
   7116.67  2.3136548E-01
   7117.00  2.5221009E-01
   7117.33  2.4150009E-01
   7117.67  2.0315085E-01
   7118.00  1.6501054E-01
   7118.33  1.4139334E-01
   7118.67  1.2808731E-01
   7119.00  1.2131336E-01
   7119.33  1.1764768E-01
   7119.67  1.1436595E-01
   7120.00  1.1137213E-01
   7120.33  1.1028941E-01
   7120.67  1.1143692E-01
   7121.00  1.1389782E-01
   7121.33  1.1711632E-01
   7121.67  1.2201979E-01
   7122.00  1.2982523E-01
   7122.33  1.4198827E-01
   7122.67  1.5857088E-01
   7123.00  1.7960352E-01
   7123.33  2.0436444E-01
   7123.67  2.2956446E-01
   7124.00  2.5295801E-01
   7124.33  2.7415405E-01
   7124.67  2.9382041E-01
   7125.00  3.1158512E-01
   7125.33  3.2658712E-01
   7125.67  3.3908631E-01
   7126.00  3.4970528E-01
   7126.33  3.5996843E-01
   7126.67  3.7191364E-01
   7127.00  3.8706920E-01
   7127.33  4.0711878E-01
   7127.67  4.3187973E-01
   7128.00  4.6111884E-01
   7128.33  4.9441522E-01
   7128.67  5.2975351E-01
   7129.00  5.6540537E-01
   7129.33  5.9956748E-01
   7129.67  6.3202678E-01
   7130.00  6.6332703E-01
   7130.33  6.9402934E-01
   7130.67  7.2408478E-01
   7131.00  7.5278005E-01
   7131.33  7.7871103E-01
   7131.67  8.0089374E-01
   7132.00  8.1795593E-01
   7132.33  8.2816057E-01
   7132.67  8.3320322E-01
   7133.00  8.3471648E-01
   7133.33  8.3288998E-01
   7133.67  8.2733151E-01
   7134.00  8.1821497E-01
   7134.33  8.0666050E-01
   7134.67  7.9318066E-01
   7135.00  7.7631126E-01
   7135.33  7.5406131E-01
   7135.67  7.2837167E-01
   7136.00  7.0221107E-01
   7136.33  6.7918946E-01
   7136.67  6.6056669E-01
   7137.00  6.4644177E-01
   7137.33  6.3658732E-01
   7137.67  6.2949761E-01
   7138.00  6.2423814E-01
   7138.33  6.1988318E-01
   7138.67  6.1556325E-01
   7139.00  6.1101034E-01
   7139.33  6.0643680E-01
   7139.67  6.0240963E-01
   7140.00  5.9941845E-01
   7140.33  5.9800150E-01
   7140.67  5.9811778E-01
   7141.00  5.9978414E-01
   7141.33  6.0320086E-01
   7141.67  6.0818422E-01
   7142.00  6.1468813E-01
   7142.33  6.2260379E-01
   7142.67  6.3111105E-01
   7143.00  6.3924623E-01
   7143.33  6.4528662E-01
   7143.67  6.4793337E-01
   7144.00  6.4623441E-01
   7144.33  6.3927531E-01
   7144.67  6.2812306E-01
   7145.00  6.1361629E-01
   7145.33  5.9669839E-01
   7145.67  5.7888959E-01
   7146.00  5.6119394E-01
   7146.33  5.4477783E-01
   7146.67  5.3030665E-01
   7147.00  5.1825319E-01
   7147.33  5.0922629E-01
   7147.67  5.0288396E-01
   7148.00  4.9905034E-01
   7148.33  4.9767443E-01
   7148.67  4.9807608E-01
   7149.00  4.9989980E-01
   7149.33  5.0290999E-01
   7149.67  5.0667746E-01
   7150.00  5.1100371E-01
   7150.33  5.1576559E-01
   7150.67  5.2079943E-01
   7151.00  5.2604203E-01
   7151.33  5.3146697E-01
   7151.67  5.3701604E-01
   7152.00  5.4266028E-01
   7152.33  5.4837765E-01
   7152.67  5.5412175E-01
   7153.00  5.5984807E-01
   7153.33  5.6548007E-01
   7153.67  5.7094851E-01
   7154.00  5.7617685E-01
   7154.33  5.8103043E-01
   7154.67  5.8545901E-01
   7155.00  5.8938827E-01
   7155.33  5.9266938E-01
   7155.67  5.9531028E-01
   7156.00  5.9726574E-01
   7156.33  5.9840133E-01
   7156.67  5.9877202E-01
   7157.00  5.9835099E-01
   7157.33  5.9700959E-01
   7157.67  5.9483073E-01
   7158.00  5.9180609E-01
   7158.33  5.8783393E-01
   7158.67  5.8304265E-01
   7159.00  5.7747138E-01
   7159.33  5.7110097E-01
   7159.67  5.6411619E-01
   7160.00  5.5661736E-01
   7160.33  5.4868384E-01
   7160.67  5.4049257E-01
   7161.00  5.3214734E-01
   7161.33  5.2374810E-01
   7161.67  5.1538415E-01
   7162.00  5.0710997E-01
   7162.33  4.9898945E-01
   7162.67  4.9103951E-01
   7163.00  4.8328472E-01
   7163.33  4.7577536E-01
   7163.67  4.6850403E-01
   7164.00  4.6149062E-01
   7164.33  4.5479639E-01
   7164.67  4.4841180E-01
   7165.00  4.4235835E-01
   7165.33  4.3670194E-01
   7165.67  4.3141452E-01
   7166.00  4.2650542E-01
   7166.33  4.2202961E-01
   7166.67  4.1794222E-01
   7167.00  4.1424294E-01
   7167.33  4.1097612E-01
   7167.67  4.0808884E-01
   7168.00  4.0557913E-01
   7168.33  4.0348820E-01
   7168.67  4.0175417E-01
   7169.00  4.0036042E-01
   7169.33  3.9932661E-01
   7169.67  3.9859033E-01
   7170.00  3.9812997E-01
   7170.33  3.9794787E-01
   7170.67  3.9798010E-01
   7171.00  3.9819252E-01
   7171.33  3.9854790E-01
   7171.67  3.9894974E-01
   7172.00  3.9930012E-01
