    FDMNES
    energy     <xanes>
   7097.00  5.0284391E-03
   7097.33  5.1453255E-03
   7097.67  5.2674163E-03
   7098.00  5.3950569E-03
   7098.33  5.5294408E-03
   7098.67  5.6703123E-03
   7099.00  5.8181396E-03
   7099.33  5.9744744E-03
   7099.67  6.1390515E-03
   7100.00  6.3125215E-03
   7100.33  6.4969527E-03
   7100.67  6.6920913E-03
   7101.00  6.8988689E-03
   7101.33  7.1201254E-03
   7101.67  7.3556649E-03
   7102.00  7.6068696E-03
   7102.33  7.8777798E-03
   7102.67  8.1683620E-03
   7103.00  8.4807566E-03
   7103.33  8.8209668E-03
   7103.67  9.1893578E-03
   7104.00  9.5894240E-03
   7104.33  1.0030583E-02
   7104.67  1.0514160E-02
   7105.00  1.1046254E-02
   7105.33  1.1642706E-02
   7105.67  1.2307246E-02
   7106.00  1.3051489E-02
   7106.33  1.3904686E-02
   7106.67  1.4877115E-02
   7107.00  1.5993725E-02
   7107.33  1.7316108E-02
   7107.67  1.8875159E-02
   7108.00  2.0734800E-02
   7108.33  2.3053322E-02
   7108.67  2.5944030E-02
   7109.00  2.9624118E-02
   7109.33  3.4660781E-02
   7109.67  4.1656955E-02
   7110.00  5.1793373E-02
   7110.33  6.8435094E-02
   7110.67  9.5087786E-02
   7111.00  1.3241799E-01
   7111.33  1.6735037E-01
   7111.67  1.9561790E-01
   7112.00  2.3878694E-01
   7112.33  3.0167310E-01
   7112.67  3.4670319E-01
   7113.00  3.7842278E-01
   7113.33  4.1620682E-01
   7113.67  4.0597690E-01
   7114.00  3.4025029E-01
   7114.33  2.6031086E-01
   7114.67  2.0409203E-01
   7115.00  1.7804895E-01
   7115.33  1.8111607E-01
   7115.67  2.0894084E-01
   7116.00  2.6111886E-01
   7116.33  3.2147419E-01
   7116.67  3.5580366E-01
   7117.00  3.5819932E-01
   7117.33  3.3124544E-01
   7117.67  2.8642883E-01
   7118.00  2.4045357E-01
   7118.33  2.0629730E-01
   7118.67  1.8235469E-01
   7119.00  1.6555812E-01
   7119.33  1.5351429E-01
   7119.67  1.4475896E-01
   7120.00  1.3918516E-01
   7120.33  1.3557412E-01
   7120.67  1.3182981E-01
   7121.00  1.2776053E-01
   7121.33  1.2479045E-01
   7121.67  1.2416485E-01
   7122.00  1.2635971E-01
   7122.33  1.3157716E-01
   7122.67  1.3914199E-01
   7123.00  1.4889524E-01
   7123.33  1.6120749E-01
   7123.67  1.7617455E-01
   7124.00  1.9400726E-01
   7124.33  2.1455054E-01
   7124.67  2.3619114E-01
   7125.00  2.5730547E-01
   7125.33  2.7584978E-01
   7125.67  2.9191761E-01
   7126.00  3.0712022E-01
   7126.33  3.2418894E-01
   7126.67  3.4445540E-01
   7127.00  3.6818638E-01
   7127.33  3.9537936E-01
   7127.67  4.2483205E-01
   7128.00  4.5542051E-01
   7128.33  4.8529291E-01
   7128.67  5.1281513E-01
   7129.00  5.3723534E-01
   7129.33  5.5872334E-01
   7129.67  5.7939094E-01
   7130.00  6.0128608E-01
   7130.33  6.2708888E-01
   7130.67  6.5787350E-01
   7131.00  6.9414958E-01
   7131.33  7.3593096E-01
   7131.67  7.8035569E-01
   7132.00  8.2408260E-01
   7132.33  8.6141071E-01
   7132.67  8.8844337E-01
   7133.00  9.0329701E-01
   7133.33  9.0601734E-01
   7133.67  9.0184167E-01
   7134.00  8.9371661E-01
   7134.33  8.8225176E-01
   7134.67  8.6664728E-01
   7135.00  8.4584951E-01
   7135.33  8.1965488E-01
   7135.67  7.9073673E-01
   7136.00  7.6122523E-01
   7136.33  7.3312165E-01
   7136.67  7.0712173E-01
   7137.00  6.8332630E-01
   7137.33  6.6170935E-01
   7137.67  6.4168429E-01
   7138.00  6.2313698E-01
   7138.33  6.0649631E-01
   7138.67  5.9197883E-01
   7139.00  5.7983690E-01
   7139.33  5.7030741E-01
   7139.67  5.6276053E-01
   7140.00  5.5685368E-01
   7140.33  5.5245704E-01
   7140.67  5.4927396E-01
   7141.00  5.4732376E-01
   7141.33  5.4690995E-01
   7141.67  5.4804606E-01
   7142.00  5.5085769E-01
   7142.33  5.5554384E-01
   7142.67  5.6158929E-01
   7143.00  5.6843790E-01
   7143.33  5.7510870E-01
   7143.67  5.8046959E-01
   7144.00  5.8359292E-01
   7144.33  5.8339271E-01
   7144.67  5.8009399E-01
   7145.00  5.7401353E-01
   7145.33  5.6558833E-01
   7145.67  5.5590258E-01
   7146.00  5.4563179E-01
   7146.33  5.3546630E-01
   7146.67  5.2594035E-01
   7147.00  5.1742031E-01
   7147.33  5.1038532E-01
   7147.67  5.0486701E-01
   7148.00  5.0094784E-01
   7148.33  4.9884451E-01
   7148.67  4.9827209E-01
   7149.00  4.9907639E-01
   7149.33  5.0116485E-01
   7149.67  5.0413466E-01
   7150.00  5.0776507E-01
   7150.33  5.1188013E-01
   7150.67  5.1624299E-01
   7151.00  5.2074265E-01
   7151.33  5.2531118E-01
   7151.67  5.2991267E-01
   7152.00  5.3454814E-01
   7152.33  5.3923507E-01
   7152.67  5.4397824E-01
   7153.00  5.4878001E-01
   7153.33  5.5364086E-01
   7153.67  5.5854123E-01
   7154.00  5.6346657E-01
   7154.33  5.6839916E-01
   7154.67  5.7331872E-01
   7155.00  5.7820848E-01
   7155.33  5.8304367E-01
   7155.67  5.8781184E-01
   7156.00  5.9249599E-01
   7156.33  5.9705874E-01
   7156.67  6.0148187E-01
   7157.00  6.0573095E-01
   7157.33  6.0972965E-01
   7157.67  6.1344754E-01
   7158.00  6.1682668E-01
   7158.33  6.1974009E-01
   7158.67  6.2215869E-01
   7159.00  6.2401179E-01
   7159.33  6.2513981E-01
   7159.67  6.2555288E-01
   7160.00  6.2520073E-01
   7160.33  6.2393873E-01
   7160.67  6.2184482E-01
   7161.00  6.1891752E-01
   7161.33  6.1507031E-01
   7161.67  6.1043730E-01
   7162.00  6.0505959E-01
   7162.33  5.9891487E-01
   7162.67  5.9216125E-01
   7163.00  5.8486808E-01
   7163.33  5.7706538E-01
   7163.67  5.6890200E-01
   7164.00  5.6046101E-01
   7164.33  5.5181534E-01
   7164.67  5.4308091E-01
   7165.00  5.3433543E-01
   7165.33  5.2567295E-01
   7165.67  5.1716189E-01
   7166.00  5.0886255E-01
   7166.33  5.0086849E-01
   7166.67  4.9319225E-01
   7167.00  4.8586306E-01
   7167.33  4.7894790E-01
   7167.67  4.7240861E-01
   7168.00  4.6624348E-01
   7168.33  4.6048904E-01
   7168.67  4.5508700E-01
   7169.00  4.5002739E-01
   7169.33  4.4533987E-01
   7169.67  4.4096797E-01
   7170.00  4.3690027E-01
   7170.33  4.3316561E-01
   7170.67  4.2972526E-01
   7171.00  4.2658525E-01
   7171.33  4.2381006E-01
   7171.67  4.2141684E-01
   7172.00  4.1948634E-01
