    FDMNES
    energy     <xanes>
   7097.00  4.6577615E-03
   7097.33  4.7590362E-03
   7097.67  4.8644778E-03
   7098.00  4.9743468E-03
   7098.33  5.0895725E-03
   7098.67  5.2099303E-03
   7099.00  5.3357708E-03
   7099.33  5.4682897E-03
   7099.67  5.6072529E-03
   7100.00  5.7531461E-03
   7100.33  5.9075492E-03
   7100.67  6.0702360E-03
   7101.00  6.2419019E-03
   7101.33  6.4247044E-03
   7101.67  6.6184642E-03
   7102.00  6.8242190E-03
   7102.33  7.0450366E-03
   7102.67  7.2808749E-03
   7103.00  7.5333621E-03
   7103.33  7.8070877E-03
   7103.67  8.1023588E-03
   7104.00  8.4218959E-03
   7104.33  8.7730257E-03
   7104.67  9.1569322E-03
   7105.00  9.5785401E-03
   7105.33  1.0050582E-02
   7105.67  1.0576550E-02
   7106.00  1.1166348E-02
   7106.33  1.1844778E-02
   7106.67  1.2622049E-02
   7107.00  1.3521145E-02
   7107.33  1.4598731E-02
   7107.67  1.5888051E-02
   7108.00  1.7454639E-02
   7108.33  1.9462350E-02
   7108.67  2.2046937E-02
   7109.00  2.5464721E-02
   7109.33  3.0403050E-02
   7109.67  3.7685664E-02
   7110.00  4.8941579E-02
   7110.33  6.8883075E-02
   7110.67  1.0207696E-01
   7111.00  1.4677464E-01
   7111.33  1.8046470E-01
   7111.67  1.8618151E-01
   7112.00  1.7262128E-01
   7112.33  1.6437759E-01
   7112.67  1.6227661E-01
   7113.00  1.5851843E-01
   7113.33  1.4886561E-01
   7113.67  1.3450576E-01
   7114.00  1.1634284E-01
   7114.33  9.8422840E-02
   7114.67  8.5296465E-02
   7115.00  7.7852263E-02
   7115.33  7.5850196E-02
   7115.67  7.7838827E-02
   7116.00  8.3526023E-02
   7116.33  9.3151700E-02
   7116.67  1.0550186E-01
   7117.00  1.1937717E-01
   7117.33  1.3492010E-01
   7117.67  1.5489552E-01
   7118.00  1.8270127E-01
   7118.33  2.2202318E-01
   7118.67  2.7054052E-01
   7119.00  3.2315186E-01
   7119.33  3.6947112E-01
   7119.67  4.0142972E-01
   7120.00  4.1617859E-01
   7120.33  4.1647451E-01
   7120.67  4.1136084E-01
   7121.00  4.0453728E-01
   7121.33  3.9715896E-01
   7121.67  3.8961127E-01
   7122.00  3.8252423E-01
   7122.33  3.7728714E-01
   7122.67  3.7467138E-01
   7123.00  3.7504209E-01
   7123.33  3.7884994E-01
   7123.67  3.8560429E-01
   7124.00  3.9503813E-01
   7124.33  4.0692995E-01
   7124.67  4.2060980E-01
   7125.00  4.3593505E-01
   7125.33  4.5304414E-01
   7125.67  4.7186769E-01
   7126.00  4.9269274E-01
   7126.33  5.1564401E-01
   7126.67  5.3917544E-01
   7127.00  5.6140890E-01
   7127.33  5.8000841E-01
   7127.67  5.9468432E-01
   7128.00  6.0582811E-01
   7128.33  6.1399170E-01
   7128.67  6.2021954E-01
   7129.00  6.2481607E-01
   7129.33  6.2756777E-01
   7129.67  6.2846425E-01
   7130.00  6.2759961E-01
   7130.33  6.2584914E-01
   7130.67  6.2495564E-01
   7131.00  6.2613865E-01
   7131.33  6.3029190E-01
   7131.67  6.3675153E-01
   7132.00  6.4477903E-01
   7132.33  6.5334915E-01
   7132.67  6.6130298E-01
   7133.00  6.6784211E-01
   7133.33  6.7211012E-01
   7133.67  6.7418045E-01
   7134.00  6.7410375E-01
   7134.33  6.7137845E-01
   7134.67  6.6550333E-01
   7135.00  6.5578592E-01
   7135.33  6.4181085E-01
   7135.67  6.2514565E-01
   7136.00  6.0714137E-01
   7136.33  5.8934959E-01
   7136.67  5.7293030E-01
   7137.00  5.5854259E-01
   7137.33  5.4685117E-01
   7137.67  5.3755093E-01
   7138.00  5.3040502E-01
   7138.33  5.2516896E-01
   7138.67  5.2108940E-01
   7139.00  5.1772106E-01
   7139.33  5.1469137E-01
   7139.67  5.1172508E-01
   7140.00  5.0876463E-01
   7140.33  5.0588810E-01
   7140.67  5.0323749E-01
   7141.00  5.0095133E-01
   7141.33  4.9919675E-01
   7141.67  4.9791965E-01
   7142.00  4.9702885E-01
   7142.33  4.9634975E-01
   7142.67  4.9561328E-01
   7143.00  4.9462180E-01
   7143.33  4.9316088E-01
   7143.67  4.9122329E-01
   7144.00  4.8883963E-01
   7144.33  4.8606852E-01
   7144.67  4.8308228E-01
   7145.00  4.7998641E-01
   7145.33  4.7688395E-01
   7145.67  4.7385700E-01
   7146.00  4.7096077E-01
   7146.33  4.6827537E-01
   7146.67  4.6583870E-01
   7147.00  4.6371666E-01
   7147.33  4.6205996E-01
   7147.67  4.6093755E-01
   7148.00  4.6046100E-01
   7148.33  4.6084453E-01
   7148.67  4.6207191E-01
   7149.00  4.6416784E-01
   7149.33  4.6720313E-01
   7149.67  4.7096351E-01
   7150.00  4.7530051E-01
   7150.33  4.8004064E-01
   7150.67  4.8489841E-01
   7151.00  4.8966858E-01
   7151.33  4.9408541E-01
   7151.67  4.9797826E-01
   7152.00  5.0117722E-01
   7152.33  5.0338710E-01
   7152.67  5.0456313E-01
   7153.00  5.0461188E-01
   7153.33  5.0333337E-01
   7153.67  5.0089323E-01
   7154.00  4.9736729E-01
   7154.33  4.9279463E-01
   7154.67  4.8750439E-01
   7155.00  4.8170679E-01
   7155.33  4.7562201E-01
   7155.67  4.6951929E-01
   7156.00  4.6357693E-01
   7156.33  4.5800164E-01
   7156.67  4.5287116E-01
   7157.00  4.4825170E-01
   7157.33  4.4425322E-01
   7157.67  4.4081497E-01
   7158.00  4.3792419E-01
   7158.33  4.3561503E-01
   7158.67  4.3378254E-01
   7159.00  4.3238981E-01
   7159.33  4.3144601E-01
   7159.67  4.3086403E-01
   7160.00  4.3061338E-01
   7160.33  4.3069598E-01
   7160.67  4.3103698E-01
   7161.00  4.3159677E-01
   7161.33  4.3234239E-01
   7161.67  4.3319342E-01
   7162.00  4.3409232E-01
   7162.33  4.3496485E-01
   7162.67  4.3574207E-01
   7163.00  4.3636566E-01
   7163.33  4.3674569E-01
   7163.67  4.3685748E-01
   7164.00  4.3667405E-01
   7164.33  4.3614341E-01
   7164.67  4.3531152E-01
   7165.00  4.3420446E-01
   7165.33  4.3284673E-01
   7165.67  4.3133753E-01
   7166.00  4.2974808E-01
   7166.33  4.2816752E-01
   7166.67  4.2668168E-01
   7167.00  4.2535887E-01
   7167.33  4.2429515E-01
   7167.67  4.2351212E-01
   7168.00  4.2303820E-01
   7168.33  4.2293012E-01
   7168.67  4.2314614E-01
   7169.00  4.2367310E-01
   7169.33  4.2451926E-01
   7169.67  4.2561150E-01
   7170.00  4.2691059E-01
   7170.33  4.2838317E-01
   7170.67  4.2995106E-01
   7171.00  4.3155776E-01
   7171.33  4.3311929E-01
   7171.67  4.3453440E-01
   7172.00  4.3568646E-01
