    FDMNES
    energy     <xanes>
   7097.00  5.0188319E-03
   7097.33  5.1398441E-03
   7097.67  5.2665106E-03
   7098.00  5.3992270E-03
   7098.33  5.5393242E-03
   7098.67  5.6865531E-03
   7099.00  5.8414580E-03
   7099.33  6.0057957E-03
   7099.67  6.1793184E-03
   7100.00  6.3627958E-03
   7100.33  6.5586114E-03
   7100.67  6.7665504E-03
   7101.00  6.9877374E-03
   7101.33  7.2255125E-03
   7101.67  7.4797643E-03
   7102.00  7.7522000E-03
   7102.33  8.0476854E-03
   7102.67  8.3663684E-03
   7103.00  8.7109626E-03
   7103.33  9.0888990E-03
   7103.67  9.5009407E-03
   7104.00  9.9516501E-03
   7104.33  1.0453063E-02
   7104.67  1.1007411E-02
   7105.00  1.1622928E-02
   7105.33  1.2320618E-02
   7105.67  1.3106413E-02
   7106.00  1.3996593E-02
   7106.33  1.5031596E-02
   7106.67  1.6227575E-02
   7107.00  1.7620944E-02
   7107.33  1.9300844E-02
   7107.67  2.1316116E-02
   7108.00  2.3763896E-02
   7108.33  2.6883862E-02
   7108.67  3.0856632E-02
   7109.00  3.6022156E-02
   7109.33  4.3265569E-02
   7109.67  5.3539114E-02
   7110.00  6.8690284E-02
   7110.33  9.4012437E-02
   7110.67  1.3574844E-01
   7111.00  1.9903932E-01
   7111.33  2.7527283E-01
   7111.67  3.4558915E-01
   7112.00  4.0933053E-01
   7112.33  4.6130530E-01
   7112.67  4.6604911E-01
   7113.00  4.0859914E-01
   7113.33  3.2728099E-01
   7113.67  2.5779150E-01
   7114.00  2.0674771E-01
   7114.33  1.7413764E-01
   7114.67  1.5437959E-01
   7115.00  1.4546500E-01
   7115.33  1.4696471E-01
   7115.67  1.5411284E-01
   7116.00  1.6005568E-01
   7116.33  1.5682080E-01
   7116.67  1.4771239E-01
   7117.00  1.3794375E-01
   7117.33  1.3078703E-01
   7117.67  1.2608449E-01
   7118.00  1.2337276E-01
   7118.33  1.2285540E-01
   7118.67  1.2499816E-01
   7119.00  1.3051749E-01
   7119.33  1.3997307E-01
   7119.67  1.5195278E-01
   7120.00  1.6511734E-01
   7120.33  1.7796615E-01
   7120.67  1.8884499E-01
   7121.00  1.9650613E-01
   7121.33  2.0179770E-01
   7121.67  2.0826671E-01
   7122.00  2.1822910E-01
   7122.33  2.3342868E-01
   7122.67  2.5318422E-01
   7123.00  2.7657134E-01
   7123.33  3.0179545E-01
   7123.67  3.2600513E-01
   7124.00  3.4693626E-01
   7124.33  3.6202145E-01
   7124.67  3.7124227E-01
   7125.00  3.7526094E-01
   7125.33  3.7602635E-01
   7125.67  3.7727165E-01
   7126.00  3.8181893E-01
   7126.33  3.9274271E-01
   7126.67  4.1050283E-01
   7127.00  4.3522303E-01
   7127.33  4.6688658E-01
   7127.67  5.0284835E-01
   7128.00  5.4040010E-01
   7128.33  5.7478039E-01
   7128.67  6.0165979E-01
   7129.00  6.1814202E-01
   7129.33  6.2196885E-01
   7129.67  6.1628022E-01
   7130.00  6.0369758E-01
   7130.33  5.8715197E-01
   7130.67  5.7024827E-01
   7131.00  5.5520085E-01
   7131.33  5.4407240E-01
   7131.67  5.3698667E-01
   7132.00  5.3384956E-01
   7132.33  5.3481952E-01
   7132.67  5.3930309E-01
   7133.00  5.4741646E-01
   7133.33  5.5987499E-01
   7133.67  5.7596107E-01
   7134.00  5.9447486E-01
   7134.33  6.1259756E-01
   7134.67  6.2737511E-01
   7135.00  6.3762106E-01
   7135.33  6.4365825E-01
   7135.67  6.4780064E-01
   7136.00  6.5132329E-01
   7136.33  6.5486957E-01
   7136.67  6.5841082E-01
   7137.00  6.6176954E-01
   7137.33  6.6488950E-01
   7137.67  6.6802607E-01
   7138.00  6.7144974E-01
   7138.33  6.7542648E-01
   7138.67  6.7989141E-01
   7139.00  6.8469613E-01
   7139.33  6.8963001E-01
   7139.67  6.9451680E-01
   7140.00  6.9930399E-01
   7140.33  7.0399589E-01
   7140.67  7.0863556E-01
   7141.00  7.1321124E-01
   7141.33  7.1759876E-01
   7141.67  7.2160443E-01
   7142.00  7.2496227E-01
   7142.33  7.2716440E-01
   7142.67  7.2792447E-01
   7143.00  7.2689917E-01
   7143.33  7.2350021E-01
   7143.67  7.1781639E-01
   7144.00  7.0986230E-01
   7144.33  6.9961507E-01
   7144.67  6.8777249E-01
   7145.00  6.7483610E-01
   7145.33  6.6137812E-01
   7145.67  6.4799799E-01
   7146.00  6.3502830E-01
   7146.33  6.2281678E-01
   7146.67  6.1143262E-01
   7147.00  6.0092981E-01
   7147.33  5.9140904E-01
   7147.67  5.8270157E-01
   7148.00  5.7473489E-01
   7148.33  5.6749706E-01
   7148.67  5.6081667E-01
   7149.00  5.5462490E-01
   7149.33  5.4890913E-01
   7149.67  5.4356576E-01
   7150.00  5.3856055E-01
   7150.33  5.3390184E-01
   7150.67  5.2953022E-01
   7151.00  5.2543383E-01
   7151.33  5.2163713E-01
   7151.67  5.1810173E-01
   7152.00  5.1482565E-01
   7152.33  5.1184085E-01
   7152.67  5.0911605E-01
   7153.00  5.0665231E-01
   7153.33  5.0448169E-01
   7153.67  5.0256811E-01
   7154.00  5.0090513E-01
   7154.33  4.9950790E-01
   7154.67  4.9832219E-01
   7155.00  4.9731606E-01
   7155.33  4.9645315E-01
   7155.67  4.9564866E-01
   7156.00  4.9483258E-01
   7156.33  4.9390496E-01
   7156.67  4.9279422E-01
   7157.00  4.9143985E-01
   7157.33  4.8975659E-01
   7157.67  4.8776025E-01
   7158.00  4.8545474E-01
   7158.33  4.8282778E-01
   7158.67  4.7994913E-01
   7159.00  4.7684853E-01
   7159.33  4.7352967E-01
   7159.67  4.7003498E-01
   7160.00  4.6637308E-01
   7160.33  4.6252843E-01
   7160.67  4.5852321E-01
   7161.00  4.5435878E-01
   7161.33  4.5002040E-01
   7161.67  4.4553788E-01
   7162.00  4.4092657E-01
   7162.33  4.3620099E-01
   7162.67  4.3141284E-01
   7163.00  4.2660529E-01
   7163.33  4.2184294E-01
   7163.67  4.1719018E-01
   7164.00  4.1271332E-01
   7164.33  4.0852701E-01
   7164.67  4.0468366E-01
   7165.00  4.0125433E-01
   7165.33  3.9837506E-01
   7165.67  3.9604606E-01
   7166.00  3.9430528E-01
   7166.33  3.9325123E-01
   7166.67  3.9280215E-01
   7167.00  3.9292949E-01
   7167.33  3.9363810E-01
   7167.67  3.9477881E-01
   7168.00  3.9626365E-01
   7168.33  3.9800856E-01
   7168.67  3.9986922E-01
   7169.00  4.0175126E-01
   7169.33  4.0354561E-01
   7169.67  4.0518147E-01
   7170.00  4.0660916E-01
   7170.33  4.0776098E-01
   7170.67  4.0865300E-01
   7171.00  4.0929070E-01
   7171.33  4.0967320E-01
   7171.67  4.0988073E-01
   7172.00  4.0997678E-01
