    FDMNES
    energy     <xanes>
   7097.00  5.2249897E-03
   7097.33  5.3481656E-03
   7097.67  5.4769838E-03
   7098.00  5.6118291E-03
   7098.33  5.7540126E-03
   7098.67  5.9032709E-03
   7099.00  6.0601286E-03
   7099.33  6.2263014E-03
   7099.67  6.4015195E-03
   7100.00  6.5865165E-03
   7100.33  6.7835956E-03
   7100.67  6.9925059E-03
   7101.00  7.2143045E-03
   7101.33  7.4521774E-03
   7101.67  7.7059487E-03
   7102.00  7.9771971E-03
   7102.33  8.2704901E-03
   7102.67  8.5858514E-03
   7103.00  8.9257415E-03
   7103.33  9.2970005E-03
   7103.67  9.7001322E-03
   7104.00  1.0139178E-02
   7104.33  1.0624952E-02
   7104.67  1.1159104E-02
   7105.00  1.1748725E-02
   7105.33  1.2412139E-02
   7105.67  1.3153839E-02
   7106.00  1.3987394E-02
   7106.33  1.4946834E-02
   7106.67  1.6044354E-02
   7107.00  1.7309139E-02
   7107.33  1.8813032E-02
   7107.67  2.0592212E-02
   7108.00  2.2721100E-02
   7108.33  2.5383354E-02
   7108.67  2.8708870E-02
   7109.00  3.2945504E-02
   7109.33  3.8734851E-02
   7109.67  4.6738195E-02
   7110.00  5.8239402E-02
   7110.33  7.6897311E-02
   7110.67  1.0704081E-01
   7111.00  1.5283055E-01
   7111.33  2.1078731E-01
   7111.67  2.6399349E-01
   7112.00  3.0385731E-01
   7112.33  3.2944363E-01
   7112.67  3.5392469E-01
   7113.00  3.8971663E-01
   7113.33  4.3181171E-01
   7113.67  4.5709095E-01
   7114.00  4.5773074E-01
   7114.33  4.2471928E-01
   7114.67  3.6987627E-01
   7115.00  3.1442585E-01
   7115.33  2.7383764E-01
   7115.67  2.4698463E-01
   7116.00  2.3060470E-01
   7116.33  2.2117999E-01
   7116.67  2.1381165E-01
   7117.00  2.0411691E-01
   7117.33  1.8753131E-01
   7117.67  1.6775176E-01
   7118.00  1.4982794E-01
   7118.33  1.3722826E-01
   7118.67  1.2942532E-01
   7119.00  1.2570466E-01
   7119.33  1.2510910E-01
   7119.67  1.2568768E-01
   7120.00  1.2641420E-01
   7120.33  1.2689178E-01
   7120.67  1.2717560E-01
   7121.00  1.2711355E-01
   7121.33  1.2639864E-01
   7121.67  1.2542154E-01
   7122.00  1.2502431E-01
   7122.33  1.2662148E-01
   7122.67  1.3077364E-01
   7123.00  1.3756510E-01
   7123.33  1.4680337E-01
   7123.67  1.5746852E-01
   7124.00  1.6912253E-01
   7124.33  1.8223350E-01
   7124.67  1.9760321E-01
   7125.00  2.1582586E-01
   7125.33  2.3728218E-01
   7125.67  2.6132908E-01
   7126.00  2.8775624E-01
   7126.33  3.1635267E-01
   7126.67  3.4569033E-01
   7127.00  3.7408598E-01
   7127.33  3.9942180E-01
   7127.67  4.2174955E-01
   7128.00  4.4207175E-01
   7128.33  4.6166978E-01
   7128.67  4.8129941E-01
   7129.00  5.0144510E-01
   7129.33  5.2368163E-01
   7129.67  5.4966067E-01
   7130.00  5.8052785E-01
   7130.33  6.1684426E-01
   7130.67  6.5636813E-01
   7131.00  6.9701778E-01
   7131.33  7.3671886E-01
   7131.67  7.7501538E-01
   7132.00  8.1242130E-01
   7132.33  8.4948463E-01
   7132.67  8.8574432E-01
   7133.00  9.1980492E-01
   7133.33  9.4893174E-01
   7133.67  9.7149066E-01
   7134.00  9.8592043E-01
   7134.33  9.8982618E-01
   7134.67  9.8403772E-01
   7135.00  9.6911814E-01
   7135.33  9.4565993E-01
   7135.67  9.1665789E-01
   7136.00  8.8385955E-01
   7136.33  8.4872424E-01
   7136.67  8.1283460E-01
   7137.00  7.7708844E-01
   7137.33  7.4251465E-01
   7137.67  7.0980718E-01
   7138.00  6.7962293E-01
   7138.33  6.5300812E-01
   7138.67  6.3000497E-01
   7139.00  6.1076553E-01
   7139.33  5.9564374E-01
   7139.67  5.8381931E-01
   7140.00  5.7484385E-01
   7140.33  5.6842534E-01
   7140.67  5.6373020E-01
   7141.00  5.6034218E-01
   7141.33  5.5795978E-01
   7141.67  5.5612540E-01
   7142.00  5.5458244E-01
   7142.33  5.5306668E-01
   7142.67  5.5133647E-01
   7143.00  5.4921326E-01
   7143.33  5.4646075E-01
   7143.67  5.4304280E-01
   7144.00  5.3892700E-01
   7144.33  5.3406546E-01
   7144.67  5.2864874E-01
   7145.00  5.2281633E-01
   7145.33  5.1673960E-01
   7145.67  5.1066164E-01
   7146.00  5.0476605E-01
   7146.33  4.9929420E-01
   7146.67  4.9434543E-01
   7147.00  4.8998887E-01
   7147.33  4.8633391E-01
   7147.67  4.8329368E-01
   7148.00  4.8082618E-01
   7148.33  4.7891660E-01
   7148.67  4.7740521E-01
   7149.00  4.7619945E-01
   7149.33  4.7522219E-01
   7149.67  4.7436907E-01
   7150.00  4.7360041E-01
   7150.33  4.7291502E-01
   7150.67  4.7232828E-01
   7151.00  4.7188366E-01
   7151.33  4.7167577E-01
   7151.67  4.7175760E-01
   7152.00  4.7220044E-01
   7152.33  4.7314071E-01
   7152.67  4.7459622E-01
   7153.00  4.7661775E-01
   7153.33  4.7931915E-01
   7153.67  4.8263473E-01
   7154.00  4.8654550E-01
   7154.33  4.9105854E-01
   7154.67  4.9600628E-01
   7155.00  5.0127520E-01
   7155.33  5.0673447E-01
   7155.67  5.1220106E-01
   7156.00  5.1753605E-01
   7156.33  5.2255017E-01
   7156.67  5.2714119E-01
   7157.00  5.3120781E-01
   7157.33  5.3457863E-01
   7157.67  5.3726515E-01
   7158.00  5.3923429E-01
   7158.33  5.4038367E-01
   7158.67  5.4082064E-01
   7159.00  5.4057902E-01
   7159.33  5.3964094E-01
   7159.67  5.3816077E-01
   7160.00  5.3621466E-01
   7160.33  5.3385466E-01
   7160.67  5.3123513E-01
   7161.00  5.2844963E-01
   7161.33  5.2559316E-01
   7161.67  5.2276636E-01
   7162.00  5.2003909E-01
   7162.33  5.1750298E-01
   7162.67  5.1519132E-01
   7163.00  5.1313191E-01
   7163.33  5.1137485E-01
   7163.67  5.0989637E-01
   7164.00  5.0869556E-01
   7164.33  5.0779162E-01
   7164.67  5.0712696E-01
   7165.00  5.0667435E-01
   7165.33  5.0641935E-01
   7165.67  5.0630168E-01
   7166.00  5.0628895E-01
   7166.33  5.0635314E-01
   7166.67  5.0645172E-01
   7167.00  5.0655865E-01
   7167.33  5.0664452E-01
   7167.67  5.0668754E-01
   7168.00  5.0666958E-01
   7168.33  5.0656273E-01
   7168.67  5.0636147E-01
   7169.00  5.0605449E-01
   7169.33  5.0561948E-01
   7169.67  5.0506700E-01
   7170.00  5.0439331E-01
   7170.33  5.0358206E-01
   7170.67  5.0265544E-01
   7171.00  5.0163017E-01
   7171.33  5.0054177E-01
   7171.67  4.9948384E-01
   7172.00  4.9857537E-01
