    FDMNES
    energy     <xanes>
   7097.00  5.2099805E-03
   7097.33  5.3340103E-03
   7097.67  5.4637446E-03
   7098.00  5.5995728E-03
   7098.33  5.7428205E-03
   7098.67  5.8932218E-03
   7099.00  6.0513072E-03
   7099.33  6.2188116E-03
   7099.67  6.3954622E-03
   7100.00  6.5820006E-03
   7100.33  6.7807554E-03
   7100.67  6.9914724E-03
   7101.00  7.2152198E-03
   7101.33  7.4552177E-03
   7101.67  7.7112871E-03
   7102.00  7.9850225E-03
   7102.33  8.2810389E-03
   7102.67  8.5993580E-03
   7103.00  8.9424643E-03
   7103.33  9.3172672E-03
   7103.67  9.7242731E-03
   7104.00  1.0167564E-02
   7104.33  1.0658064E-02
   7104.67  1.1197441E-02
   7105.00  1.1792868E-02
   7105.33  1.2462874E-02
   7105.67  1.3212034E-02
   7106.00  1.4054115E-02
   7106.33  1.5023658E-02
   7106.67  1.6133199E-02
   7107.00  1.7412607E-02
   7107.33  1.8935496E-02
   7107.67  2.0739790E-02
   7108.00  2.2903193E-02
   7108.33  2.5618410E-02
   7108.67  2.9027178E-02
   7109.00  3.3400704E-02
   7109.33  3.9452233E-02
   7109.67  4.7963442E-02
   7110.00  6.0470086E-02
   7110.33  8.1319241E-02
   7110.67  1.1440433E-01
   7111.00  1.5783585E-01
   7111.33  1.9749289E-01
   7111.67  2.3456211E-01
   7112.00  2.7331409E-01
   7112.33  3.1451022E-01
   7112.67  3.4913616E-01
   7113.00  3.8263100E-01
   7113.33  4.3776553E-01
   7113.67  4.8993552E-01
   7114.00  5.0469843E-01
   7114.33  4.7585048E-01
   7114.67  4.1948021E-01
   7115.00  3.5466778E-01
   7115.33  3.0199113E-01
   7115.67  2.6463568E-01
   7116.00  2.4045191E-01
   7116.33  2.2668827E-01
   7116.67  2.1812727E-01
   7117.00  2.1066927E-01
   7117.33  1.9803953E-01
   7117.67  1.7942145E-01
   7118.00  1.5926997E-01
   7118.33  1.4322309E-01
   7118.67  1.3227093E-01
   7119.00  1.2587429E-01
   7119.33  1.2326270E-01
   7119.67  1.2263099E-01
   7120.00  1.2287645E-01
   7120.33  1.2322443E-01
   7120.67  1.2336897E-01
   7121.00  1.2311551E-01
   7121.33  1.2224272E-01
   7121.67  1.2121069E-01
   7122.00  1.2074358E-01
   7122.33  1.2177353E-01
   7122.67  1.2455338E-01
   7123.00  1.2922145E-01
   7123.33  1.3615126E-01
   7123.67  1.4533193E-01
   7124.00  1.5704042E-01
   7124.33  1.7179808E-01
   7124.67  1.8897968E-01
   7125.00  2.0782261E-01
   7125.33  2.2718310E-01
   7125.67  2.4605957E-01
   7126.00  2.6423707E-01
   7126.33  2.8227204E-01
   7126.67  3.0126168E-01
   7127.00  3.2189112E-01
   7127.33  3.4419739E-01
   7127.67  3.6704357E-01
   7128.00  3.8974234E-01
   7128.33  4.1230677E-01
   7128.67  4.3574908E-01
   7129.00  4.6135923E-01
   7129.33  4.9098732E-01
   7129.67  5.2496658E-01
   7130.00  5.6334422E-01
   7130.33  6.0580646E-01
   7130.67  6.5021449E-01
   7131.00  6.9476073E-01
   7131.33  7.3762558E-01
   7131.67  7.7858959E-01
   7132.00  8.1817040E-01
   7132.33  8.5700853E-01
   7132.67  8.9523167E-01
   7133.00  9.3217192E-01
   7133.33  9.6614881E-01
   7133.67  9.9576921E-01
   7134.00  1.0192898E+00
   7134.33  1.0333591E+00
   7134.67  1.0368748E+00
   7135.00  1.0287529E+00
   7135.33  1.0078281E+00
   7135.67  9.7737235E-01
   7136.00  9.3973663E-01
   7136.33  8.9726119E-01
   7136.67  8.5300272E-01
   7137.00  8.0868829E-01
   7137.33  7.6604960E-01
   7137.67  7.2605841E-01
   7138.00  6.8948038E-01
   7138.33  6.5750295E-01
   7138.67  6.3005707E-01
   7139.00  6.0730608E-01
   7139.33  5.8976195E-01
   7139.67  5.7653631E-01
   7140.00  5.6719932E-01
   7140.33  5.6152369E-01
   7140.67  5.5840898E-01
   7141.00  5.5727462E-01
   7141.33  5.5767908E-01
   7141.67  5.5892586E-01
   7142.00  5.6062935E-01
   7142.33  5.6240691E-01
   7142.67  5.6390638E-01
   7143.00  5.6486418E-01
   7143.33  5.6491241E-01
   7143.67  5.6394281E-01
   7144.00  5.6183653E-01
   7144.33  5.5839306E-01
   7144.67  5.5381094E-01
   7145.00  5.4821378E-01
   7145.33  5.4171610E-01
   7145.67  5.3464013E-01
   7146.00  5.2715430E-01
   7146.33  5.1942863E-01
   7146.67  5.1168680E-01
   7147.00  5.0408583E-01
   7147.33  4.9682102E-01
   7147.67  4.8998172E-01
   7148.00  4.8365141E-01
   7148.33  4.7797169E-01
   7148.67  4.7291314E-01
   7149.00  4.6849489E-01
   7149.33  4.6480259E-01
   7149.67  4.6174550E-01
   7150.00  4.5930705E-01
   7150.33  4.5753975E-01
   7150.67  4.5634314E-01
   7151.00  4.5569293E-01
   7151.33  4.5562832E-01
   7151.67  4.5606331E-01
   7152.00  4.5698469E-01
   7152.33  4.5844215E-01
   7152.67  4.6037102E-01
   7153.00  4.6276784E-01
   7153.33  4.6568272E-01
   7153.67  4.6904465E-01
   7154.00  4.7283526E-01
   7154.33  4.7707251E-01
   7154.67  4.8166235E-01
   7155.00  4.8655712E-01
   7155.33  4.9172216E-01
   7155.67  4.9705277E-01
   7156.00  5.0247750E-01
   7156.33  5.0790686E-01
   7156.67  5.1324508E-01
   7157.00  5.1840837E-01
   7157.33  5.2326631E-01
   7157.67  5.2776141E-01
   7158.00  5.3182267E-01
   7158.33  5.3531802E-01
   7158.67  5.3825990E-01
   7159.00  5.4062281E-01
   7159.33  5.4232724E-01
   7159.67  5.4346569E-01
   7160.00  5.4407382E-01
   7160.33  5.4415274E-01
   7160.67  5.4383514E-01
   7161.00  5.4319013E-01
   7161.33  5.4226730E-01
   7161.67  5.4117191E-01
   7162.00  5.3995890E-01
   7162.33  5.3867054E-01
   7162.67  5.3735124E-01
   7163.00  5.3601983E-01
   7163.33  5.3467854E-01
   7163.67  5.3330669E-01
   7164.00  5.3188034E-01
   7164.33  5.3036532E-01
   7164.67  5.2874363E-01
   7165.00  5.2698857E-01
   7165.33  5.2504951E-01
   7165.67  5.2292315E-01
   7166.00  5.2059636E-01
   7166.33  5.1803689E-01
   7166.67  5.1527507E-01
   7167.00  5.1232425E-01
   7167.33  5.0918918E-01
   7167.67  5.0592395E-01
   7168.00  5.0256315E-01
   7168.33  4.9914563E-01
   7168.67  4.9572546E-01
   7169.00  4.9234326E-01
   7169.33  4.8905389E-01
   7169.67  4.8588817E-01
   7170.00  4.8287882E-01
   7170.33  4.8008221E-01
   7170.67  4.7750005E-01
   7171.00  4.7515212E-01
   7171.33  4.7309958E-01
   7171.67  4.7135485E-01
   7172.00  4.6997313E-01
