    FDMNES
    energy     <xanes>
   7097.00  4.1560880E-03
   7097.33  4.2333811E-03
   7097.67  4.3134584E-03
   7098.00  4.3964820E-03
   7098.33  4.4830538E-03
   7098.67  4.5730097E-03
   7099.00  4.6665676E-03
   7099.33  4.7644945E-03
   7099.67  4.8666210E-03
   7100.00  4.9732493E-03
   7100.33  5.0853871E-03
   7100.67  5.2028718E-03
   7101.00  5.3261393E-03
   7101.33  5.4565631E-03
   7101.67  5.5940162E-03
   7102.00  5.7391567E-03
   7102.33  5.8939453E-03
   7102.67  6.0583564E-03
   7103.00  6.2334410E-03
   7103.33  6.4221641E-03
   7103.67  6.6247586E-03
   7104.00  6.8430228E-03
   7104.33  7.0817794E-03
   7104.67  7.3419162E-03
   7105.00  7.6267871E-03
   7105.33  7.9450073E-03
   7105.67  8.2992148E-03
   7106.00  8.6963995E-03
   7106.33  9.1539624E-03
   7106.67  9.6797440E-03
   7107.00  1.0290645E-02
   7107.33  1.1028223E-02
   7107.67  1.1918643E-02
   7108.00  1.3012344E-02
   7108.33  1.4435803E-02
   7108.67  1.6299493E-02
   7109.00  1.8810891E-02
   7109.33  2.2531481E-02
   7109.67  2.8159782E-02
   7110.00  3.7080530E-02
   7110.33  5.3273125E-02
   7110.67  8.0020563E-02
   7111.00  1.1308318E-01
   7111.33  1.3361157E-01
   7111.67  1.4024831E-01
   7112.00  1.2895070E-01
   7112.33  1.0160476E-01
   7112.67  7.6809582E-02
   7113.00  5.9738027E-02
   7113.33  4.9366225E-02
   7113.67  4.2993011E-02
   7114.00  3.9640521E-02
   7114.33  3.7484820E-02
   7114.67  3.4253034E-02
   7115.00  3.0735427E-02
   7115.33  2.8442484E-02
   7115.67  2.7191609E-02
   7116.00  2.6670833E-02
   7116.33  2.6708514E-02
   7116.67  2.7142015E-02
   7117.00  2.7942901E-02
   7117.33  2.9155315E-02
   7117.67  3.0759045E-02
   7118.00  3.2797073E-02
   7118.33  3.5419667E-02
   7118.67  3.8718113E-02
   7119.00  4.2899574E-02
   7119.33  4.8428804E-02
   7119.67  5.5539345E-02
   7120.00  6.4530361E-02
   7120.33  7.5461156E-02
   7120.67  8.6835889E-02
   7121.00  9.7502000E-02
   7121.33  1.0836311E-01
   7121.67  1.2198605E-01
   7122.00  1.4049081E-01
   7122.33  1.6662878E-01
   7122.67  2.0025863E-01
   7123.00  2.3977973E-01
   7123.33  2.8058326E-01
   7123.67  3.1846359E-01
   7124.00  3.5283125E-01
   7124.33  3.8309337E-01
   7124.67  4.0598039E-01
   7125.00  4.1722216E-01
   7125.33  4.1897086E-01
   7125.67  4.2380015E-01
   7126.00  4.3862714E-01
   7126.33  4.6522994E-01
   7126.67  5.0108415E-01
   7127.00  5.4799831E-01
   7127.33  6.1186946E-01
   7127.67  6.9189735E-01
   7128.00  7.8460637E-01
   7128.33  8.8038542E-01
   7128.67  9.6252867E-01
   7129.00  1.0153332E+00
   7129.33  1.0238228E+00
   7129.67  9.9858377E-01
   7130.00  9.5294090E-01
   7130.33  9.0120342E-01
   7130.67  8.5367060E-01
   7131.00  8.1517701E-01
   7131.33  7.8982118E-01
   7131.67  7.7522705E-01
   7132.00  7.6886611E-01
   7132.33  7.6879409E-01
   7132.67  7.7293307E-01
   7133.00  7.8068828E-01
   7133.33  7.9135692E-01
   7133.67  8.0273500E-01
   7134.00  8.1291306E-01
   7134.33  8.1961945E-01
   7134.67  8.2183909E-01
   7135.00  8.1894426E-01
   7135.33  8.1072531E-01
   7135.67  7.9919270E-01
   7136.00  7.8584035E-01
   7136.33  7.7209664E-01
   7136.67  7.5894311E-01
   7137.00  7.4674645E-01
   7137.33  7.3560634E-01
   7137.67  7.2500564E-01
   7138.00  7.1440947E-01
   7138.33  7.0303782E-01
   7138.67  6.9041768E-01
   7139.00  6.7635595E-01
   7139.33  6.6087228E-01
   7139.67  6.4463234E-01
   7140.00  6.2817630E-01
   7140.33  6.1211221E-01
   7140.67  5.9678339E-01
   7141.00  5.8236006E-01
   7141.33  5.6899834E-01
   7141.67  5.5649845E-01
   7142.00  5.4473765E-01
   7142.33  5.3362280E-01
   7142.67  5.2292483E-01
   7143.00  5.1253460E-01
   7143.33  5.0239833E-01
   7143.67  4.9246361E-01
   7144.00  4.8275640E-01
   7144.33  4.7339053E-01
   7144.67  4.6443930E-01
   7145.00  4.5601394E-01
   7145.33  4.4833010E-01
   7145.67  4.4143070E-01
   7146.00  4.3540821E-01
   7146.33  4.3046254E-01
   7146.67  4.2651754E-01
   7147.00  4.2357433E-01
   7147.33  4.2169655E-01
   7147.67  4.2064181E-01
   7148.00  4.2024882E-01
   7148.33  4.2031314E-01
   7148.67  4.2046970E-01
   7149.00  4.2043611E-01
   7149.33  4.1984091E-01
   7149.67  4.1846620E-01
   7150.00  4.1611318E-01
   7150.33  4.1246916E-01
   7150.67  4.0758683E-01
   7151.00  4.0147287E-01
   7151.33  3.9408548E-01
   7151.67  3.8574539E-01
   7152.00  3.7665211E-01
   7152.33  3.6700439E-01
   7152.67  3.5713021E-01
   7153.00  3.4724826E-01
   7153.33  3.3761967E-01
   7153.67  3.2842536E-01
   7154.00  3.1982794E-01
   7154.33  3.1208962E-01
   7154.67  3.0525833E-01
   7155.00  2.9943679E-01
   7155.33  2.9484865E-01
   7155.67  2.9139452E-01
   7156.00  2.8905518E-01
   7156.33  2.8786098E-01
   7156.67  2.8749999E-01
   7157.00  2.8774449E-01
   7157.33  2.8829370E-01
   7157.67  2.8874303E-01
   7158.00  2.8878971E-01
   7158.33  2.8806664E-01
   7158.67  2.8650151E-01
   7159.00  2.8407960E-01
   7159.33  2.8083324E-01
   7159.67  2.7710655E-01
   7160.00  2.7318885E-01
   7160.33  2.6948511E-01
   7160.67  2.6636059E-01
   7161.00  2.6413038E-01
   7161.33  2.6327295E-01
   7161.67  2.6390592E-01
   7162.00  2.6621338E-01
   7162.33  2.7058241E-01
   7162.67  2.7687505E-01
   7163.00  2.8511450E-01
   7163.33  2.9551070E-01
   7163.67  3.0772825E-01
   7164.00  3.2162501E-01
   7164.33  3.3714347E-01
   7164.67  3.5378700E-01
   7165.00  3.7121883E-01
   7165.33  3.8902645E-01
   7165.67  4.0667421E-01
   7166.00  4.2372317E-01
   7166.33  4.3953149E-01
   7166.67  4.5378457E-01
   7167.00  4.6617897E-01
   7167.33  4.7624563E-01
   7167.67  4.8421421E-01
   7168.00  4.9021069E-01
   7168.33  4.9433425E-01
   7168.67  4.9723048E-01
   7169.00  4.9933059E-01
   7169.33  5.0110026E-01
   7169.67  5.0301592E-01
   7170.00  5.0536741E-01
   7170.33  5.0844048E-01
   7170.67  5.1220357E-01
   7171.00  5.1656994E-01
   7171.33  5.2132486E-01
   7171.67  5.2597177E-01
   7172.00  5.2997329E-01
