    FDMNES
    energy     <xanes>
   7097.00  5.2732279E-03
   7097.33  5.4017351E-03
   7097.67  5.5362648E-03
   7098.00  5.6772350E-03
   7098.33  5.8260564E-03
   7098.67  5.9824578E-03
   7099.00  6.1470110E-03
   7099.33  6.3215715E-03
   7099.67  6.5058645E-03
   7100.00  6.7006942E-03
   7100.33  6.9085651E-03
   7100.67  7.1292299E-03
   7101.00  7.3638551E-03
   7101.33  7.6159281E-03
   7101.67  7.8852972E-03
   7102.00  8.1737189E-03
   7102.33  8.4862354E-03
   7102.67  8.8229413E-03
   7103.00  9.1866047E-03
   7103.33  9.5848603E-03
   7103.67  1.0018396E-02
   7104.00  1.0491826E-02
   7104.33  1.1017403E-02
   7104.67  1.1597249E-02
   7105.00  1.2239634E-02
   7105.33  1.2965767E-02
   7105.67  1.3781431E-02
   7106.00  1.4702933E-02
   7106.33  1.5770965E-02
   7106.67  1.7001658E-02
   7107.00  1.8431779E-02
   7107.33  2.0151801E-02
   7107.67  2.2212440E-02
   7108.00  2.4714936E-02
   7108.33  2.7911894E-02
   7108.67  3.2005464E-02
   7109.00  3.7380235E-02
   7109.33  4.5067273E-02
   7109.67  5.6289777E-02
   7110.00  7.3473782E-02
   7110.33  1.0351028E-01
   7110.67  1.5147213E-01
   7111.00  2.0750231E-01
   7111.33  2.3547074E-01
   7111.67  2.5111115E-01
   7112.00  2.7338491E-01
   7112.33  3.0452637E-01
   7112.67  3.4602737E-01
   7113.00  4.0123507E-01
   7113.33  4.5975059E-01
   7113.67  4.8707475E-01
   7114.00  4.6183747E-01
   7114.33  4.0448220E-01
   7114.67  3.5430213E-01
   7115.00  3.2308541E-01
   7115.33  3.0966332E-01
   7115.67  2.9912832E-01
   7116.00  2.8197851E-01
   7116.33  2.5836455E-01
   7116.67  2.3530373E-01
   7117.00  2.1574771E-01
   7117.33  2.0086230E-01
   7117.67  1.8914528E-01
   7118.00  1.7915325E-01
   7118.33  1.6965181E-01
   7118.67  1.6041111E-01
   7119.00  1.5185552E-01
   7119.33  1.4451865E-01
   7119.67  1.3837328E-01
   7120.00  1.3344098E-01
   7120.33  1.2993804E-01
   7120.67  1.2775460E-01
   7121.00  1.2691471E-01
   7121.33  1.2762708E-01
   7121.67  1.2966575E-01
   7122.00  1.3285225E-01
   7122.33  1.3714488E-01
   7122.67  1.4248309E-01
   7123.00  1.4908823E-01
   7123.33  1.5755947E-01
   7123.67  1.6819384E-01
   7124.00  1.8148389E-01
   7124.33  1.9840115E-01
   7124.67  2.1897606E-01
   7125.00  2.4335598E-01
   7125.33  2.7170778E-01
   7125.67  3.0238985E-01
   7126.00  3.3322284E-01
   7126.33  3.6083683E-01
   7126.67  3.8455962E-01
   7127.00  4.0526214E-01
   7127.33  4.2387600E-01
   7127.67  4.4214232E-01
   7128.00  4.6214680E-01
   7128.33  4.8650294E-01
   7128.67  5.1502707E-01
   7129.00  5.4645773E-01
   7129.33  5.7871557E-01
   7129.67  6.1018817E-01
   7130.00  6.4065255E-01
   7130.33  6.7070829E-01
   7130.67  7.0123273E-01
   7131.00  7.3261147E-01
   7131.33  7.6480731E-01
   7131.67  7.9711722E-01
   7132.00  8.2888404E-01
   7132.33  8.5928916E-01
   7132.67  8.8777609E-01
   7133.00  9.1325633E-01
   7133.33  9.3274289E-01
   7133.67  9.4364287E-01
   7134.00  9.4318516E-01
   7134.33  9.2785738E-01
   7134.67  8.9990050E-01
   7135.00  8.6167290E-01
   7135.33  8.1611281E-01
   7135.67  7.6763933E-01
   7136.00  7.1872827E-01
   7136.33  6.7172157E-01
   7136.67  6.2792790E-01
   7137.00  5.8832749E-01
   7137.33  5.5441751E-01
   7137.67  5.2612159E-01
   7138.00  5.0359482E-01
   7138.33  4.8721773E-01
   7138.67  4.7548278E-01
   7139.00  4.6740392E-01
   7139.33  4.6212009E-01
   7139.67  4.5841970E-01
   7140.00  4.5586329E-01
   7140.33  4.5441175E-01
   7140.67  4.5400558E-01
   7141.00  4.5475031E-01
   7141.33  4.5687481E-01
   7141.67  4.6020215E-01
   7142.00  4.6463053E-01
   7142.33  4.7008543E-01
   7142.67  4.7622443E-01
   7143.00  4.8284580E-01
   7143.33  4.8976347E-01
   7143.67  4.9675530E-01
   7144.00  5.0368617E-01
   7144.33  5.1040621E-01
   7144.67  5.1684265E-01
   7145.00  5.2293485E-01
   7145.33  5.2858680E-01
   7145.67  5.3382281E-01
   7146.00  5.3863695E-01
   7146.33  5.4298603E-01
   7146.67  5.4694485E-01
   7147.00  5.5054313E-01
   7147.33  5.5378382E-01
   7147.67  5.5675415E-01
   7148.00  5.5949671E-01
   7148.33  5.6203851E-01
   7148.67  5.6444713E-01
   7149.00  5.6676150E-01
   7149.33  5.6902629E-01
   7149.67  5.7129918E-01
   7150.00  5.7362429E-01
   7150.33  5.7606785E-01
   7150.67  5.7867210E-01
   7151.00  5.8148449E-01
   7151.33  5.8458829E-01
   7151.67  5.8798999E-01
   7152.00  5.9170669E-01
   7152.33  5.9577065E-01
   7152.67  6.0010246E-01
   7153.00  6.0463723E-01
   7153.33  6.0927691E-01
   7153.67  6.1386687E-01
   7154.00  6.1827126E-01
   7154.33  6.2228901E-01
   7154.67  6.2581377E-01
   7155.00  6.2873515E-01
   7155.33  6.3086831E-01
   7155.67  6.3224181E-01
   7156.00  6.3283557E-01
   7156.33  6.3256224E-01
   7156.67  6.3155592E-01
   7157.00  6.2986607E-01
   7157.33  6.2748627E-01
   7157.67  6.2456971E-01
   7158.00  6.2118197E-01
   7158.33  6.1734481E-01
   7158.67  6.1317257E-01
   7159.00  6.0871410E-01
   7159.33  6.0398899E-01
   7159.67  5.9906862E-01
   7160.00  5.9398364E-01
   7160.33  5.8874784E-01
   7160.67  5.8340414E-01
   7161.00  5.7797437E-01
   7161.33  5.7247887E-01
   7161.67  5.6695464E-01
   7162.00  5.6142689E-01
   7162.33  5.5593091E-01
   7162.67  5.5050026E-01
   7163.00  5.4516775E-01
   7163.33  5.3998531E-01
   7163.67  5.3496470E-01
   7164.00  5.3012198E-01
   7164.33  5.2548656E-01
   7164.67  5.2102728E-01
   7165.00  5.1672615E-01
   7165.33  5.1256784E-01
   7165.67  5.0849748E-01
   7166.00  5.0447865E-01
   7166.33  5.0047202E-01
   7166.67  4.9644232E-01
   7167.00  4.9236844E-01
   7167.33  4.8823028E-01
   7167.67  4.8403693E-01
   7168.00  4.7980212E-01
   7168.33  4.7554986E-01
   7168.67  4.7131217E-01
   7169.00  4.6711550E-01
   7169.33  4.6299993E-01
   7169.67  4.5898745E-01
   7170.00  4.5510312E-01
   7170.33  4.5139345E-01
   7170.67  4.4786779E-01
   7171.00  4.4455761E-01
   7171.33  4.4155334E-01
   7171.67  4.3892084E-01
   7172.00  4.3678775E-01
