    FDMNES
    energy     <xanes>
   7097.00  4.0063899E-03
   7097.33  4.0813151E-03
   7097.67  4.1589142E-03
   7098.00  4.2393401E-03
   7098.33  4.3231660E-03
   7098.67  4.4102304E-03
   7099.00  4.5007372E-03
   7099.33  4.5954129E-03
   7099.67  4.6940885E-03
   7100.00  4.7970448E-03
   7100.33  4.9052284E-03
   7100.67  5.0184728E-03
   7101.00  5.1371782E-03
   7101.33  5.2626219E-03
   7101.67  5.3946628E-03
   7102.00  5.5338963E-03
   7102.33  5.6821212E-03
   7102.67  5.8392743E-03
   7103.00  6.0062895E-03
   7103.33  6.1858388E-03
   7103.67  6.3780603E-03
   7104.00  6.5845163E-03
   7104.33  6.8094527E-03
   7104.67  7.0535148E-03
   7105.00  7.3195348E-03
   7105.33  7.6148705E-03
   7105.67  7.9414970E-03
   7106.00  8.3051082E-03
   7106.33  8.7199903E-03
   7106.67  9.1919478E-03
   7107.00  9.7341271E-03
   7107.33  1.0378921E-02
   7107.67  1.1145015E-02
   7108.00  1.2069327E-02
   7108.33  1.3243789E-02
   7108.67  1.4742623E-02
   7109.00  1.6705567E-02
   7109.33  1.9503526E-02
   7109.67  2.3566302E-02
   7110.00  2.9737332E-02
   7110.33  4.0447529E-02
   7110.67  5.8231638E-02
   7111.00  8.3368588E-02
   7111.33  1.0795535E-01
   7111.67  1.2546211E-01
   7112.00  1.3499095E-01
   7112.33  1.2914383E-01
   7112.67  1.0945122E-01
   7113.00  8.7144882E-02
   7113.33  7.0808013E-02
   7113.67  6.0049044E-02
   7114.00  5.3203984E-02
   7114.33  4.8010721E-02
   7114.67  4.3016931E-02
   7115.00  3.8970584E-02
   7115.33  3.6840475E-02
   7115.67  3.6149552E-02
   7116.00  3.6418256E-02
   7116.33  3.7238686E-02
   7116.67  3.8391474E-02
   7117.00  4.0047387E-02
   7117.33  4.2611978E-02
   7117.67  4.6159646E-02
   7118.00  5.0687991E-02
   7118.33  5.6096747E-02
   7118.67  6.1870474E-02
   7119.00  6.7535585E-02
   7119.33  7.2502420E-02
   7119.67  7.6583536E-02
   7120.00  7.9894625E-02
   7120.33  8.2951861E-02
   7120.67  8.6517776E-02
   7121.00  9.1202318E-02
   7121.33  9.7905564E-02
   7121.67  1.0712141E-01
   7122.00  1.1955611E-01
   7122.33  1.3664599E-01
   7122.67  1.5866775E-01
   7123.00  1.8561366E-01
   7123.33  2.1521802E-01
   7123.67  2.4068324E-01
   7124.00  2.5712460E-01
   7124.33  2.6642253E-01
   7124.67  2.7736327E-01
   7125.00  2.9425794E-01
   7125.33  3.1815318E-01
   7125.67  3.4503751E-01
   7126.00  3.7134348E-01
   7126.33  3.9539964E-01
   7126.67  4.2017089E-01
   7127.00  4.4952776E-01
   7127.33  4.8738244E-01
   7127.67  5.3257043E-01
   7128.00  5.8308980E-01
   7128.33  6.3611897E-01
   7128.67  6.8810543E-01
   7129.00  7.3637750E-01
   7129.33  7.7768789E-01
   7129.67  8.1174633E-01
   7130.00  8.3899767E-01
   7130.33  8.5987936E-01
   7130.67  8.7549618E-01
   7131.00  8.8552328E-01
   7131.33  8.8983812E-01
   7131.67  8.9171329E-01
   7132.00  8.9418497E-01
   7132.33  8.9971919E-01
   7132.67  9.0746517E-01
   7133.00  9.1564728E-01
   7133.33  9.2204290E-01
   7133.67  9.2545493E-01
   7134.00  9.2535967E-01
   7134.33  9.2207978E-01
   7134.67  9.1771967E-01
   7135.00  9.1334657E-01
   7135.33  9.0856615E-01
   7135.67  9.0187581E-01
   7136.00  8.9185190E-01
   7136.33  8.7696115E-01
   7136.67  8.5778201E-01
   7137.00  8.3507789E-01
   7137.33  8.0992379E-01
   7137.67  7.8398361E-01
   7138.00  7.5823482E-01
   7138.33  7.3356918E-01
   7138.67  7.1027539E-01
   7139.00  6.8849567E-01
   7139.33  6.6844968E-01
   7139.67  6.4990808E-01
   7140.00  6.3283130E-01
   7140.33  6.1736304E-01
   7140.67  6.0330787E-01
   7141.00  5.9066377E-01
   7141.33  5.7960381E-01
   7141.67  5.6994038E-01
   7142.00  5.6167169E-01
   7142.33  5.5496193E-01
   7142.67  5.4958666E-01
   7143.00  5.4546795E-01
   7143.33  5.4260910E-01
   7143.67  5.4067577E-01
   7144.00  5.3945446E-01
   7144.33  5.3870317E-01
   7144.67  5.3804937E-01
   7145.00  5.3722398E-01
   7145.33  5.3590468E-01
   7145.67  5.3397044E-01
   7146.00  5.3136861E-01
   7146.33  5.2808316E-01
   7146.67  5.2435550E-01
   7147.00  5.2037220E-01
   7147.33  5.1634078E-01
   7147.67  5.1242823E-01
   7148.00  5.0871476E-01
   7148.33  5.0526018E-01
   7148.67  5.0202157E-01
   7149.00  4.9897185E-01
   7149.33  4.9610202E-01
   7149.67  4.9337466E-01
   7150.00  4.9078526E-01
   7150.33  4.8835382E-01
   7150.67  4.8606471E-01
   7151.00  4.8391089E-01
   7151.33  4.8188058E-01
   7151.67  4.7991025E-01
   7152.00  4.7793382E-01
   7152.33  4.7583658E-01
   7152.67  4.7350801E-01
   7153.00  4.7082795E-01
   7153.33  4.6760304E-01
   7153.67  4.6377421E-01
   7154.00  4.5924817E-01
   7154.33  4.5383169E-01
   7154.67  4.4754991E-01
   7155.00  4.4035986E-01
   7155.33  4.3212338E-01
   7155.67  4.2296995E-01
   7156.00  4.1294183E-01
   7156.33  4.0202598E-01
   7156.67  3.9044360E-01
   7157.00  3.7832550E-01
   7157.33  3.6580466E-01
   7157.67  3.5312922E-01
   7158.00  3.4048695E-01
   7158.33  3.2813222E-01
   7158.67  3.1625140E-01
   7159.00  3.0502264E-01
   7159.33  2.9474075E-01
   7159.67  2.8546772E-01
   7160.00  2.7732885E-01
   7160.33  2.7060594E-01
   7160.67  2.6524215E-01
   7161.00  2.6130422E-01
   7161.33  2.5902696E-01
   7161.67  2.5823261E-01
   7162.00  2.5888298E-01
   7162.33  2.6105206E-01
   7162.67  2.6443768E-01
   7163.00  2.6889874E-01
   7163.33  2.7435551E-01
   7163.67  2.8050211E-01
   7164.00  2.8717772E-01
   7164.33  2.9425375E-01
   7164.67  3.0153366E-01
   7165.00  3.0890640E-01
   7165.33  3.1626483E-01
   7165.67  3.2352984E-01
   7166.00  3.3065155E-01
   7166.33  3.3757054E-01
   7166.67  3.4429225E-01
   7167.00  3.5081839E-01
   7167.33  3.5714885E-01
   7167.67  3.6334330E-01
   7168.00  3.6944128E-01
   7168.33  3.7548366E-01
   7168.67  3.8151693E-01
   7169.00  3.8756474E-01
   7169.33  3.9364075E-01
   7169.67  3.9973113E-01
   7170.00  4.0580900E-01
   7170.33  4.1181486E-01
   7170.67  4.1768195E-01
   7171.00  4.2332273E-01
   7171.33  4.2854463E-01
   7171.67  4.3316475E-01
   7172.00  4.3691001E-01
