    FDMNES
    energy     <xanes>
   7097.00  4.0288477E-03
   7097.33  4.1046098E-03
   7097.67  4.1831117E-03
   7098.00  4.2645129E-03
   7098.33  4.3494053E-03
   7098.67  4.4376270E-03
   7099.00  4.5293916E-03
   7099.33  4.6254526E-03
   7099.67  4.7256416E-03
   7100.00  4.8302538E-03
   7100.33  4.9402762E-03
   7100.67  5.0555449E-03
   7101.00  5.1764830E-03
   7101.33  5.3044295E-03
   7101.67  5.4392507E-03
   7102.00  5.5815800E-03
   7102.33  5.7333148E-03
   7102.67  5.8944097E-03
   7103.00  6.0658644E-03
   7103.33  6.2505178E-03
   7103.67  6.4485495E-03
   7104.00  6.6616435E-03
   7104.33  6.8943477E-03
   7104.67  7.1474071E-03
   7105.00  7.4238981E-03
   7105.33  7.7317749E-03
   7105.67  8.0732680E-03
   7106.00  8.4546189E-03
   7106.33  8.8914380E-03
   7106.67  9.3902615E-03
   7107.00  9.9656613E-03
   7107.33  1.0653500E-02
   7107.67  1.1474955E-02
   7108.00  1.2471552E-02
   7108.33  1.3746854E-02
   7108.67  1.5386206E-02
   7109.00  1.7550135E-02
   7109.33  2.0666859E-02
   7109.67  2.5242344E-02
   7110.00  3.2272548E-02
   7110.33  4.4630745E-02
   7110.67  6.5181620E-02
   7111.00  9.3401378E-02
   7111.33  1.1781971E-01
   7111.67  1.3232286E-01
   7112.00  1.3895465E-01
   7112.33  1.3130965E-01
   7112.67  1.1022541E-01
   7113.00  8.7321429E-02
   7113.33  7.0824631E-02
   7113.67  6.0158592E-02
   7114.00  5.3555977E-02
   7114.33  4.8587232E-02
   7114.67  4.3802732E-02
   7115.00  3.9828906E-02
   7115.33  3.7605494E-02
   7115.67  3.6778651E-02
   7116.00  3.6926792E-02
   7116.33  3.7713519E-02
   7116.67  3.8938239E-02
   7117.00  4.0734561E-02
   7117.33  4.3426374E-02
   7117.67  4.7021977E-02
   7118.00  5.1488523E-02
   7118.33  5.6745870E-02
   7118.67  6.2421983E-02
   7119.00  6.8208364E-02
   7119.33  7.3682850E-02
   7119.67  7.8549384E-02
   7120.00  8.2711541E-02
   7120.33  8.6373346E-02
   7120.67  9.0174802E-02
   7121.00  9.4739277E-02
   7121.33  1.0104015E-01
   7121.67  1.0970364E-01
   7122.00  1.2146074E-01
   7122.33  1.3764175E-01
   7122.67  1.5836993E-01
   7123.00  1.8352278E-01
   7123.33  2.1101995E-01
   7123.67  2.3492449E-01
   7124.00  2.5071632E-01
   7124.33  2.5948613E-01
   7124.67  2.6936223E-01
   7125.00  2.8485634E-01
   7125.33  3.0729887E-01
   7125.67  3.3243109E-01
   7126.00  3.5641245E-01
   7126.33  3.7776058E-01
   7126.67  3.9990200E-01
   7127.00  4.2689394E-01
   7127.33  4.6279128E-01
   7127.67  5.0648712E-01
   7128.00  5.5616647E-01
   7128.33  6.0941843E-01
   7128.67  6.6265501E-01
   7129.00  7.1295022E-01
   7129.33  7.5657068E-01
   7129.67  7.9285490E-01
   7130.00  8.2238629E-01
   7130.33  8.4619339E-01
   7130.67  8.6553241E-01
   7131.00  8.7971592E-01
   7131.33  8.8802186E-01
   7131.67  8.9357373E-01
   7132.00  8.9952613E-01
   7132.33  9.0842709E-01
   7132.67  9.1934507E-01
   7133.00  9.3028169E-01
   7133.33  9.3878390E-01
   7133.67  9.4402323E-01
   7134.00  9.4590059E-01
   7134.33  9.4464361E-01
   7134.67  9.4140755E-01
   7135.00  9.3648442E-01
   7135.33  9.2916445E-01
   7135.67  9.1880943E-01
   7136.00  9.0473893E-01
   7136.33  8.8614055E-01
   7136.67  8.6383760E-01
   7137.00  8.3852715E-01
   7137.33  8.1105721E-01
   7137.67  7.8281979E-01
   7138.00  7.5471263E-01
   7138.33  7.2770243E-01
   7138.67  7.0226658E-01
   7139.00  6.7873423E-01
   7139.33  6.5757267E-01
   7139.67  6.3857916E-01
   7140.00  6.2173070E-01
   7140.33  6.0720711E-01
   7140.67  5.9464385E-01
   7141.00  5.8394066E-01
   7141.33  5.7518833E-01
   7141.67  5.6803437E-01
   7142.00  5.6235933E-01
   7142.33  5.5819562E-01
   7142.67  5.5522402E-01
   7143.00  5.5326988E-01
   7143.33  5.5217307E-01
   7143.67  5.5153808E-01
   7144.00  5.5108528E-01
   7144.33  5.5047532E-01
   7144.67  5.4945054E-01
   7145.00  5.4784547E-01
   7145.33  5.4549021E-01
   7145.67  5.4249518E-01
   7146.00  5.3895525E-01
   7146.33  5.3497862E-01
   7146.67  5.3078134E-01
   7147.00  5.2649225E-01
   7147.33  5.2223257E-01
   7147.67  5.1807938E-01
   7148.00  5.1407457E-01
   7148.33  5.1026628E-01
   7148.67  5.0664546E-01
   7149.00  5.0321886E-01
   7149.33  5.0001904E-01
   7149.67  4.9702933E-01
   7150.00  4.9425639E-01
   7150.33  4.9172771E-01
   7150.67  4.8940278E-01
   7151.00  4.8725543E-01
   7151.33  4.8525355E-01
   7151.67  4.8331342E-01
   7152.00  4.8135881E-01
   7152.33  4.7926798E-01
   7152.67  4.7693651E-01
   7153.00  4.7425442E-01
   7153.33  4.7104155E-01
   7153.67  4.6724727E-01
   7154.00  4.6278593E-01
   7154.33  4.5747622E-01
   7154.67  4.5134238E-01
   7155.00  4.4434086E-01
   7155.33  4.3633152E-01
   7155.67  4.2742637E-01
   7156.00  4.1765070E-01
   7156.33  4.0696386E-01
   7156.67  3.9556187E-01
   7157.00  3.8355229E-01
   7157.33  3.7103337E-01
   7157.67  3.5824980E-01
   7158.00  3.4538415E-01
   7158.33  3.3268005E-01
   7158.67  3.2035008E-01
   7159.00  3.0858836E-01
   7159.33  2.9770432E-01
   7159.67  2.8779138E-01
   7160.00  2.7899461E-01
   7160.33  2.7161753E-01
   7160.67  2.6562089E-01
   7161.00  2.6108210E-01
   7161.33  2.5824748E-01
   7161.67  2.5693736E-01
   7162.00  2.5711430E-01
   7162.33  2.5885640E-01
   7162.67  2.6185566E-01
   7163.00  2.6597464E-01
   7163.33  2.7114884E-01
   7163.67  2.7707011E-01
   7164.00  2.8357844E-01
   7164.33  2.9054765E-01
   7164.67  2.9776785E-01
   7165.00  3.0513044E-01
   7165.33  3.1254264E-01
   7165.67  3.1992464E-01
   7166.00  3.2722978E-01
   7166.33  3.3440885E-01
   7166.67  3.4145769E-01
   7167.00  3.4837224E-01
   7167.33  3.5514760E-01
   7167.67  3.6182406E-01
   7168.00  3.6843016E-01
   7168.33  3.7499848E-01
   7168.67  3.8156741E-01
   7169.00  3.8815937E-01
   7169.33  3.9479234E-01
   7169.67  4.0145708E-01
   7170.00  4.0813246E-01
   7170.33  4.1476710E-01
   7170.67  4.2128986E-01
   7171.00  4.2760500E-01
   7171.33  4.3349672E-01
   7171.67  4.3873877E-01
   7172.00  4.4300228E-01
