    FDMNES
    energy     <xanes>
   7097.00  4.9849999E-03
   7097.33  5.0933773E-03
   7097.67  5.2061286E-03
   7098.00  5.3235177E-03
   7098.33  5.4465037E-03
   7098.67  5.5748373E-03
   7099.00  5.7088699E-03
   7099.33  5.8498230E-03
   7099.67  5.9974323E-03
   7100.00  6.1521784E-03
   7100.33  6.3156566E-03
   7100.67  6.4876018E-03
   7101.00  6.6686929E-03
   7101.33  6.8610789E-03
   7101.67  7.0645279E-03
   7102.00  7.2800384E-03
   7102.33  7.5106199E-03
   7102.67  7.7561522E-03
   7103.00  8.0181791E-03
   7103.33  8.3011291E-03
   7103.67  8.6051812E-03
   7104.00  8.9328775E-03
   7104.33  9.2911674E-03
   7104.67  9.6809980E-03
   7105.00  1.0106911E-02
   7105.33  1.0580782E-02
   7105.67  1.1105608E-02
   7106.00  1.1690422E-02
   7106.33  1.2358029E-02
   7106.67  1.3117432E-02
   7107.00  1.3989458E-02
   7107.33  1.5025682E-02
   7107.67  1.6255863E-02
   7108.00  1.7739266E-02
   7108.33  1.9624454E-02
   7108.67  2.2034149E-02
   7109.00  2.5200844E-02
   7109.33  2.9748988E-02
   7109.67  3.6428555E-02
   7110.00  4.6725175E-02
   7110.33  6.4958097E-02
   7110.67  9.5475703E-02
   7111.00  1.3703549E-01
   7111.33  1.6707888E-01
   7111.67  1.7101514E-01
   7112.00  1.5661305E-01
   7112.33  1.3887523E-01
   7112.67  1.2424171E-01
   7113.00  1.1284576E-01
   7113.33  1.0465146E-01
   7113.67  9.9050040E-02
   7114.00  9.5829423E-02
   7114.33  9.5161966E-02
   7114.67  9.6833249E-02
   7115.00  1.0103610E-01
   7115.33  1.0847190E-01
   7115.67  1.1912239E-01
   7116.00  1.3303907E-01
   7116.33  1.5001818E-01
   7116.67  1.6898152E-01
   7117.00  1.9018485E-01
   7117.33  2.1585196E-01
   7117.67  2.4740107E-01
   7118.00  2.8477509E-01
   7118.33  3.2201471E-01
   7118.67  3.4680460E-01
   7119.00  3.5405267E-01
   7119.33  3.5185681E-01
   7119.67  3.5347624E-01
   7120.00  3.6387772E-01
   7120.33  3.8575075E-01
   7120.67  4.1801944E-01
   7121.00  4.6083631E-01
   7121.33  5.1477605E-01
   7121.67  5.7563753E-01
   7122.00  6.3808194E-01
   7122.33  6.9111122E-01
   7122.67  7.2619859E-01
   7123.00  7.4134872E-01
   7123.33  7.3862624E-01
   7123.67  7.2457313E-01
   7124.00  7.0272091E-01
   7124.33  6.7775121E-01
   7124.67  6.5478409E-01
   7125.00  6.3617694E-01
   7125.33  6.2272613E-01
   7125.67  6.1229892E-01
   7126.00  6.0327204E-01
   7126.33  5.9447289E-01
   7126.67  5.8570579E-01
   7127.00  5.7738033E-01
   7127.33  5.7015675E-01
   7127.67  5.6403381E-01
   7128.00  5.5861392E-01
   7128.33  5.5299843E-01
   7128.67  5.4636879E-01
   7129.00  5.3831102E-01
   7129.33  5.2850978E-01
   7129.67  5.1753592E-01
   7130.00  5.0638920E-01
   7130.33  4.9722535E-01
   7130.67  4.9186525E-01
   7131.00  4.9133098E-01
   7131.33  4.9575759E-01
   7131.67  5.0268358E-01
   7132.00  5.1029113E-01
   7132.33  5.1728118E-01
   7132.67  5.2361586E-01
   7133.00  5.2976319E-01
   7133.33  5.3622330E-01
   7133.67  5.4272865E-01
   7134.00  5.4863097E-01
   7134.33  5.5307839E-01
   7134.67  5.5588069E-01
   7135.00  5.5695522E-01
   7135.33  5.5606596E-01
   7135.67  5.5342230E-01
   7136.00  5.4906093E-01
   7136.33  5.4295007E-01
   7136.67  5.3559487E-01
   7137.00  5.2733816E-01
   7137.33  5.1851163E-01
   7137.67  5.0950928E-01
   7138.00  5.0059004E-01
   7138.33  4.9213975E-01
   7138.67  4.8450014E-01
   7139.00  4.7806067E-01
   7139.33  4.7351127E-01
   7139.67  4.7108622E-01
   7140.00  4.7107603E-01
   7140.33  4.7394166E-01
   7140.67  4.7919773E-01
   7141.00  4.8641410E-01
   7141.33  4.9494608E-01
   7141.67  5.0371112E-01
   7142.00  5.1196584E-01
   7142.33  5.1894145E-01
   7142.67  5.2446980E-01
   7143.00  5.2850410E-01
   7143.33  5.3097613E-01
   7143.67  5.3224902E-01
   7144.00  5.3251401E-01
   7144.33  5.3190308E-01
   7144.67  5.3072650E-01
   7145.00  5.2913522E-01
   7145.33  5.2721237E-01
   7145.67  5.2504898E-01
   7146.00  5.2264539E-01
   7146.33  5.1992868E-01
   7146.67  5.1687629E-01
   7147.00  5.1344304E-01
   7147.33  5.0954996E-01
   7147.67  5.0526284E-01
   7148.00  5.0063046E-01
   7148.33  4.9571054E-01
   7148.67  4.9064475E-01
   7149.00  4.8552998E-01
   7149.33  4.8047497E-01
   7149.67  4.7555429E-01
   7150.00  4.7081783E-01
   7150.33  4.6632952E-01
   7150.67  4.6207975E-01
   7151.00  4.5807442E-01
   7151.33  4.5434477E-01
   7151.67  4.5085683E-01
   7152.00  4.4760536E-01
   7152.33  4.4460969E-01
   7152.67  4.4183118E-01
   7153.00  4.3926240E-01
   7153.33  4.3692651E-01
   7153.67  4.3480642E-01
   7154.00  4.3292198E-01
   7154.33  4.3134666E-01
   7154.67  4.3009885E-01
   7155.00  4.2922789E-01
   7155.33  4.2883929E-01
   7155.67  4.2891356E-01
   7156.00  4.2945907E-01
   7156.33  4.3051561E-01
   7156.67  4.3197792E-01
   7157.00  4.3378397E-01
   7157.33  4.3588352E-01
   7157.67  4.3816350E-01
   7158.00  4.4056582E-01
   7158.33  4.4305126E-01
   7158.67  4.4558388E-01
   7159.00  4.4815581E-01
   7159.33  4.5077485E-01
   7159.67  4.5344269E-01
   7160.00  4.5616309E-01
   7160.33  4.5894022E-01
   7160.67  4.6175797E-01
   7161.00  4.6460393E-01
   7161.33  4.6745973E-01
   7161.67  4.7029944E-01
   7162.00  4.7309841E-01
   7162.33  4.7581862E-01
   7162.67  4.7844223E-01
   7163.00  4.8094968E-01
   7163.33  4.8330627E-01
   7163.67  4.8551535E-01
   7164.00  4.8756773E-01
   7164.33  4.8943318E-01
   7164.67  4.9112198E-01
   7165.00  4.9262319E-01
   7165.33  4.9389650E-01
   7165.67  4.9495007E-01
   7166.00  4.9576874E-01
   7166.33  4.9630697E-01
   7166.67  4.9658869E-01
   7167.00  4.9661538E-01
   7167.33  4.9636884E-01
   7167.67  4.9590219E-01
   7168.00  4.9524124E-01
   7168.33  4.9439916E-01
   7168.67  4.9342948E-01
   7169.00  4.9235898E-01
   7169.33  4.9120529E-01
   7169.67  4.8999835E-01
   7170.00  4.8875141E-01
   7170.33  4.8747362E-01
   7170.67  4.8618166E-01
   7171.00  4.8489165E-01
   7171.33  4.8364204E-01
   7171.67  4.8249643E-01
   7172.00  4.8154919E-01
