    FDMNES
    energy     <xanes>
   7097.00  5.1215207E-03
   7097.33  5.2452697E-03
   7097.67  5.3748244E-03
   7098.00  5.5105916E-03
   7098.33  5.6539387E-03
   7098.67  5.8046103E-03
   7099.00  5.9631658E-03
   7099.33  6.1314101E-03
   7099.67  6.3090884E-03
   7100.00  6.4969914E-03
   7100.33  6.6975665E-03
   7100.67  6.9105921E-03
   7101.00  7.1372219E-03
   7101.33  7.3808836E-03
   7101.67  7.6414600E-03
   7102.00  7.9207003E-03
   7102.33  8.2235935E-03
   7102.67  8.5502857E-03
   7103.00  8.9035542E-03
   7103.33  9.2910116E-03
   7103.67  9.7134301E-03
   7104.00  1.0175478E-02
   7104.33  1.0689477E-02
   7104.67  1.1257707E-02
   7105.00  1.1888598E-02
   7105.33  1.2603674E-02
   7105.67  1.3409040E-02
   7106.00  1.4321438E-02
   7106.33  1.5382486E-02
   7106.67  1.6609036E-02
   7107.00  1.8038951E-02
   7107.33  1.9765105E-02
   7107.67  2.1839748E-02
   7108.00  2.4366491E-02
   7108.33  2.7602640E-02
   7108.67  3.1750910E-02
   7109.00  3.7194493E-02
   7109.33  4.4949220E-02
   7109.67  5.6180671E-02
   7110.00  7.3181872E-02
   7110.33  1.0252617E-01
   7110.67  1.5054313E-01
   7111.00  2.1534529E-01
   7111.33  2.7061214E-01
   7111.67  3.0560901E-01
   7112.00  3.2728656E-01
   7112.33  3.4893100E-01
   7112.67  3.7299439E-01
   7113.00  3.9704770E-01
   7113.33  4.1679060E-01
   7113.67  4.1356550E-01
   7114.00  3.7800903E-01
   7114.33  3.2479554E-01
   7114.67  2.7667752E-01
   7115.00  2.4063472E-01
   7115.33  2.1741330E-01
   7115.67  2.0169127E-01
   7116.00  1.8950341E-01
   7116.33  1.7666055E-01
   7116.67  1.6206654E-01
   7117.00  1.4762466E-01
   7117.33  1.3604725E-01
   7117.67  1.2751137E-01
   7118.00  1.2153894E-01
   7118.33  1.1776984E-01
   7118.67  1.1549390E-01
   7119.00  1.1439625E-01
   7119.33  1.1455948E-01
   7119.67  1.1614957E-01
   7120.00  1.1928539E-01
   7120.33  1.2375387E-01
   7120.67  1.2902382E-01
   7121.00  1.3464952E-01
   7121.33  1.3988757E-01
   7121.67  1.4495445E-01
   7122.00  1.5044238E-01
   7122.33  1.5686981E-01
   7122.67  1.6435092E-01
   7123.00  1.7314302E-01
   7123.33  1.8399277E-01
   7123.67  1.9725884E-01
   7124.00  2.1313400E-01
   7124.33  2.3134213E-01
   7124.67  2.5033350E-01
   7125.00  2.6895117E-01
   7125.33  2.8673695E-01
   7125.67  3.0479676E-01
   7126.00  3.2460490E-01
   7126.33  3.4843918E-01
   7126.67  3.7737842E-01
   7127.00  4.1172502E-01
   7127.33  4.4962981E-01
   7127.67  4.8596316E-01
   7128.00  5.1687673E-01
   7128.33  5.3970658E-01
   7128.67  5.5721863E-01
   7129.00  5.7295086E-01
   7129.33  5.9122932E-01
   7129.67  6.1394130E-01
   7130.00  6.4083432E-01
   7130.33  6.6957696E-01
   7130.67  6.9667916E-01
   7131.00  7.2039059E-01
   7131.33  7.4028057E-01
   7131.67  7.5826015E-01
   7132.00  7.7565166E-01
   7132.33  7.9268261E-01
   7132.67  8.0821743E-01
   7133.00  8.2104783E-01
   7133.33  8.3019605E-01
   7133.67  8.3679461E-01
   7134.00  8.4243192E-01
   7134.33  8.4904847E-01
   7134.67  8.5621561E-01
   7135.00  8.6121506E-01
   7135.33  8.5903945E-01
   7135.67  8.4776340E-01
   7136.00  8.2689140E-01
   7136.33  7.9652158E-01
   7136.67  7.6073994E-01
   7137.00  7.2324298E-01
   7137.33  6.8824037E-01
   7137.67  6.5771687E-01
   7138.00  6.3225688E-01
   7138.33  6.1217427E-01
   7138.67  5.9612349E-01
   7139.00  5.8336673E-01
   7139.33  5.7339472E-01
   7139.67  5.6519512E-01
   7140.00  5.5828658E-01
   7140.33  5.5238417E-01
   7140.67  5.4718121E-01
   7141.00  5.4267309E-01
   7141.33  5.3910795E-01
   7141.67  5.3663628E-01
   7142.00  5.3549931E-01
   7142.33  5.3607528E-01
   7142.67  5.3813846E-01
   7143.00  5.4141433E-01
   7143.33  5.4538908E-01
   7143.67  5.4924426E-01
   7144.00  5.5240172E-01
   7144.33  5.5429390E-01
   7144.67  5.5494383E-01
   7145.00  5.5443066E-01
   7145.33  5.5280487E-01
   7145.67  5.5035842E-01
   7146.00  5.4720527E-01
   7146.33  5.4338548E-01
   7146.67  5.3910159E-01
   7147.00  5.3449601E-01
   7147.33  5.2976239E-01
   7147.67  5.2514669E-01
   7148.00  5.2083592E-01
   7148.33  5.1706073E-01
   7148.67  5.1386500E-01
   7149.00  5.1129038E-01
   7149.33  5.0942743E-01
   7149.67  5.0817091E-01
   7150.00  5.0747746E-01
   7150.33  5.0735205E-01
   7150.67  5.0767612E-01
   7151.00  5.0841012E-01
   7151.33  5.0956894E-01
   7151.67  5.1108897E-01
   7152.00  5.1296722E-01
   7152.33  5.1525416E-01
   7152.67  5.1791131E-01
   7153.00  5.2093989E-01
   7153.33  5.2437427E-01
   7153.67  5.2813900E-01
   7154.00  5.3218871E-01
   7154.33  5.3647375E-01
   7154.67  5.4086885E-01
   7155.00  5.4527291E-01
   7155.33  5.4954073E-01
   7155.67  5.5355342E-01
   7156.00  5.5720080E-01
   7156.33  5.6030953E-01
   7156.67  5.6284775E-01
   7157.00  5.6475511E-01
   7157.33  5.6589806E-01
   7157.67  5.6633451E-01
   7158.00  5.6605442E-01
   7158.33  5.6496665E-01
   7158.67  5.6316775E-01
   7159.00  5.6066962E-01
   7159.33  5.5740952E-01
   7159.67  5.5350465E-01
   7160.00  5.4899260E-01
   7160.33  5.4386013E-01
   7160.67  5.3824545E-01
   7161.00  5.3222035E-01
   7161.33  5.2584550E-01
   7161.67  5.1926285E-01
   7162.00  5.1255042E-01
   7162.33  5.0578914E-01
   7162.67  4.9907612E-01
   7163.00  4.9248643E-01
   7163.33  4.8612204E-01
   7163.67  4.8002159E-01
   7164.00  4.7422931E-01
   7164.33  4.6883016E-01
   7164.67  4.6381324E-01
   7165.00  4.5919781E-01
   7165.33  4.5504671E-01
   7165.67  4.5131099E-01
   7166.00  4.4798706E-01
   7166.33  4.4511459E-01
   7166.67  4.4262629E-01
   7167.00  4.4050174E-01
   7167.33  4.3875301E-01
   7167.67  4.3730538E-01
   7168.00  4.3612738E-01
   7168.33  4.3520511E-01
   7168.67  4.3446734E-01
   7169.00  4.3387759E-01
   7169.33  4.3340601E-01
   7169.67  4.3300409E-01
   7170.00  4.3264994E-01
   7170.33  4.3232991E-01
   7170.67  4.3203180E-01
   7171.00  4.3175526E-01
   7171.33  4.3150888E-01
   7171.67  4.3129582E-01
   7172.00  4.3111729E-01
