    FDMNES
    energy     <xanes>
   7097.00  4.1263477E-03
   7097.33  4.2117098E-03
   7097.67  4.3005071E-03
   7098.00  4.3929591E-03
   7098.33  4.4898406E-03
   7098.67  4.5909746E-03
   7099.00  4.6966606E-03
   7099.33  4.8079059E-03
   7099.67  4.9245316E-03
   7100.00  5.0469593E-03
   7100.33  5.1765380E-03
   7100.67  5.3131055E-03
   7101.00  5.4572776E-03
   7101.33  5.6109271E-03
   7101.67  5.7739510E-03
   7102.00  5.9472874E-03
   7102.33  6.1336543E-03
   7102.67  6.3331020E-03
   7103.00  6.5471376E-03
   7103.33  6.7799244E-03
   7103.67  7.0318886E-03
   7104.00  7.3056105E-03
   7104.33  7.6079159E-03
   7104.67  7.9401576E-03
   7105.00  8.3071245E-03
   7105.33  8.7210190E-03
   7105.67  9.1856185E-03
   7106.00  9.7107851E-03
   7106.33  1.0320965E-02
   7106.67  1.1026978E-02
   7107.00  1.1852194E-02
   7107.33  1.2853881E-02
   7107.67  1.4066988E-02
   7108.00  1.5559151E-02
   7108.33  1.7499001E-02
   7108.67  2.0028454E-02
   7109.00  2.3413550E-02
   7109.33  2.8366021E-02
   7109.67  3.5738855E-02
   7110.00  4.7214071E-02
   7110.33  6.7671729E-02
   7110.67  1.0208899E-01
   7111.00  1.4946351E-01
   7111.33  1.8624586E-01
   7111.67  2.0251663E-01
   7112.00  2.0476133E-01
   7112.33  1.7995287E-01
   7112.67  1.4123534E-01
   7113.00  1.1134879E-01
   7113.33  9.6717266E-02
   7113.67  9.0996389E-02
   7114.00  8.9227344E-02
   7114.33  8.3229370E-02
   7114.67  7.1120068E-02
   7115.00  5.9012663E-02
   7115.33  5.1573774E-02
   7115.67  4.7503613E-02
   7116.00  4.5603670E-02
   7116.33  4.5024319E-02
   7116.67  4.4999372E-02
   7117.00  4.5322285E-02
   7117.33  4.6114660E-02
   7117.67  4.7441208E-02
   7118.00  4.9307080E-02
   7118.33  5.1709542E-02
   7118.67  5.4564077E-02
   7119.00  5.7945178E-02
   7119.33  6.2121881E-02
   7119.67  6.7211097E-02
   7120.00  7.3380171E-02
   7120.33  8.0992376E-02
   7120.67  9.0126792E-02
   7121.00  1.0103442E-01
   7121.33  1.1434879E-01
   7121.67  1.3026312E-01
   7122.00  1.4922735E-01
   7122.33  1.7217129E-01
   7122.67  1.9894714E-01
   7123.00  2.2951342E-01
   7123.33  2.6363186E-01
   7123.67  2.9945694E-01
   7124.00  3.3536635E-01
   7124.33  3.7010304E-01
   7124.67  4.0443480E-01
   7125.00  4.3879011E-01
   7125.33  4.7005934E-01
   7125.67  4.9437074E-01
   7126.00  5.0946139E-01
   7126.33  5.1297603E-01
   7126.67  5.0690806E-01
   7127.00  4.9500432E-01
   7127.33  4.8773009E-01
   7127.67  4.9365820E-01
   7128.00  5.1354287E-01
   7128.33  5.4399108E-01
   7128.67  5.7820584E-01
   7129.00  6.1220628E-01
   7129.33  6.4263720E-01
   7129.67  6.6875618E-01
   7130.00  6.9072403E-01
   7130.33  7.0900881E-01
   7130.67  7.2475247E-01
   7131.00  7.3781016E-01
   7131.33  7.4643201E-01
   7131.67  7.4960116E-01
   7132.00  7.4717127E-01
   7132.33  7.4065314E-01
   7132.67  7.3342344E-01
   7133.00  7.2750653E-01
   7133.33  7.2503411E-01
   7133.67  7.2669421E-01
   7134.00  7.3252332E-01
   7134.33  7.4231351E-01
   7134.67  7.5501945E-01
   7135.00  7.7027225E-01
   7135.33  7.8718451E-01
   7135.67  8.0311956E-01
   7136.00  8.1553865E-01
   7136.33  8.2192560E-01
   7136.67  8.2282317E-01
   7137.00  8.1903053E-01
   7137.33  8.1138194E-01
   7137.67  8.0149957E-01
   7138.00  7.9022376E-01
   7138.33  7.7821240E-01
   7138.67  7.6603749E-01
   7139.00  7.5395052E-01
   7139.33  7.4210849E-01
   7139.67  7.3045716E-01
   7140.00  7.1887043E-01
   7140.33  7.0710818E-01
   7140.67  6.9495987E-01
   7141.00  6.8228125E-01
   7141.33  6.6895423E-01
   7141.67  6.5516968E-01
   7142.00  6.4115923E-01
   7142.33  6.2732438E-01
   7142.67  6.1408874E-01
   7143.00  6.0184662E-01
   7143.33  5.9121749E-01
   7143.67  5.8233571E-01
   7144.00  5.7534446E-01
   7144.33  5.7053337E-01
   7144.67  5.6758754E-01
   7145.00  5.6636432E-01
   7145.33  5.6683877E-01
   7145.67  5.6857946E-01
   7146.00  5.7134901E-01
   7146.33  5.7493068E-01
   7146.67  5.7890632E-01
   7147.00  5.8298855E-01
   7147.33  5.8682206E-01
   7147.67  5.9013039E-01
   7148.00  5.9268357E-01
   7148.33  5.9414007E-01
   7148.67  5.9446302E-01
   7149.00  5.9357089E-01
   7149.33  5.9127864E-01
   7149.67  5.8776573E-01
   7150.00  5.8308609E-01
   7150.33  5.7720195E-01
   7150.67  5.7036751E-01
   7151.00  5.6269754E-01
   7151.33  5.5424788E-01
   7151.67  5.4524488E-01
   7152.00  5.3579443E-01
   7152.33  5.2596013E-01
   7152.67  5.1587462E-01
   7153.00  5.0560221E-01
   7153.33  4.9518595E-01
   7153.67  4.8468571E-01
   7154.00  4.7412848E-01
   7154.33  4.6352415E-01
   7154.67  4.5287805E-01
   7155.00  4.4219112E-01
   7155.33  4.3146353E-01
   7155.67  4.2070808E-01
   7156.00  4.0993768E-01
   7156.33  3.9917742E-01
   7156.67  3.8846270E-01
   7157.00  3.7783597E-01
   7157.33  3.6737531E-01
   7157.67  3.5712850E-01
   7158.00  3.4715252E-01
   7158.33  3.3754866E-01
   7158.67  3.2832593E-01
   7159.00  3.1951968E-01
   7159.33  3.1121999E-01
   7159.67  3.0340228E-01
   7160.00  2.9609738E-01
   7160.33  2.8942052E-01
   7160.67  2.8336036E-01
   7161.00  2.7797648E-01
   7161.33  2.7343957E-01
   7161.67  2.6973439E-01
   7162.00  2.6692522E-01
   7162.33  2.6519579E-01
   7162.67  2.6446335E-01
   7163.00  2.6472869E-01
   7163.33  2.6607931E-01
   7163.67  2.6831874E-01
   7164.00  2.7135443E-01
   7164.33  2.7513581E-01
   7164.67  2.7942229E-01
   7165.00  2.8406737E-01
   7165.33  2.8892447E-01
   7165.67  2.9381438E-01
   7166.00  2.9862442E-01
   7166.33  3.0323445E-01
   7166.67  3.0760872E-01
   7167.00  3.1172822E-01
   7167.33  3.1557102E-01
   7167.67  3.1920172E-01
   7168.00  3.2266189E-01
   7168.33  3.2599231E-01
   7168.67  3.2926297E-01
   7169.00  3.3251776E-01
   7169.33  3.3580388E-01
   7169.67  3.3914995E-01
   7170.00  3.4257175E-01
   7170.33  3.4608137E-01
   7170.67  3.4964922E-01
   7171.00  3.5323270E-01
   7171.33  3.5672108E-01
   7171.67  3.5992937E-01
   7172.00  3.6259575E-01
