    FDMNES
    energy     <xanes>
   7097.00  5.1925521E-03
   7097.33  5.3156283E-03
   7097.67  5.4442419E-03
   7098.00  5.5787595E-03
   7098.33  5.7204488E-03
   7098.67  5.8690353E-03
   7099.00  6.0250137E-03
   7099.33  6.1900276E-03
   7099.67  6.3637887E-03
   7100.00  6.5469806E-03
   7100.33  6.7417846E-03
   7100.67  6.9479176E-03
   7101.00  7.1663501E-03
   7101.33  7.4000580E-03
   7101.67  7.6488055E-03
   7102.00  7.9140169E-03
   7102.33  8.1998860E-03
   7102.67  8.5063178E-03
   7103.00  8.8354854E-03
   7103.33  9.1935370E-03
   7103.67  9.5807261E-03
   7104.00  1.0000529E-02
   7104.33  1.0462407E-02
   7104.67  1.0967444E-02
   7105.00  1.1521538E-02
   7105.33  1.2140172E-02
   7105.67  1.2826441E-02
   7106.00  1.3591148E-02
   7106.33  1.4461747E-02
   7106.67  1.5446546E-02
   7107.00  1.6567458E-02
   7107.33  1.7878825E-02
   7107.67  1.9404149E-02
   7108.00  2.1194822E-02
   7108.33  2.3377243E-02
   7108.67  2.6028470E-02
   7109.00  2.9299350E-02
   7109.33  3.3570893E-02
   7109.67  3.9179945E-02
   7110.00  4.6772288E-02
   7110.33  5.8127412E-02
   7110.67  7.5380942E-02
   7111.00  1.0190066E-01
   7111.33  1.4339071E-01
   7111.67  1.9696400E-01
   7112.00  2.5332970E-01
   7112.33  2.9707547E-01
   7112.67  3.3192216E-01
   7113.00  3.6820785E-01
   7113.33  4.1138573E-01
   7113.67  4.7644493E-01
   7114.00  5.4566650E-01
   7114.33  5.5133531E-01
   7114.67  4.9500104E-01
   7115.00  4.1915477E-01
   7115.33  3.5685939E-01
   7115.67  3.1303373E-01
   7116.00  2.8606163E-01
   7116.33  2.7384356E-01
   7116.67  2.6891096E-01
   7117.00  2.6333972E-01
   7117.33  2.4739433E-01
   7117.67  2.2311039E-01
   7118.00  1.9732490E-01
   7118.33  1.7625273E-01
   7118.67  1.6037654E-01
   7119.00  1.4869966E-01
   7119.33  1.4004131E-01
   7119.67  1.3293223E-01
   7120.00  1.2687599E-01
   7120.33  1.2182919E-01
   7120.67  1.1784969E-01
   7121.00  1.1533103E-01
   7121.33  1.1505453E-01
   7121.67  1.1688074E-01
   7122.00  1.2041141E-01
   7122.33  1.2495438E-01
   7122.67  1.2957239E-01
   7123.00  1.3393004E-01
   7123.33  1.3834273E-01
   7123.67  1.4350557E-01
   7124.00  1.4999461E-01
   7124.33  1.5865193E-01
   7124.67  1.6987598E-01
   7125.00  1.8431546E-01
   7125.33  2.0339279E-01
   7125.67  2.2760980E-01
   7126.00  2.5775312E-01
   7126.33  2.9485399E-01
   7126.67  3.3661801E-01
   7127.00  3.7948943E-01
   7127.33  4.1683515E-01
   7127.67  4.4490620E-01
   7128.00  4.6393710E-01
   7128.33  4.7722523E-01
   7128.67  4.8996107E-01
   7129.00  5.0494492E-01
   7129.33  5.2461879E-01
   7129.67  5.4943149E-01
   7130.00  5.7961914E-01
   7130.33  6.1535356E-01
   7130.67  6.5492170E-01
   7131.00  6.9694019E-01
   7131.33  7.3939416E-01
   7131.67  7.7994774E-01
   7132.00  8.1677558E-01
   7132.33  8.4766506E-01
   7132.67  8.7266251E-01
   7133.00  8.9209905E-01
   7133.33  9.0674843E-01
   7133.67  9.1917927E-01
   7134.00  9.3144118E-01
   7134.33  9.4612283E-01
   7134.67  9.6456849E-01
   7135.00  9.8683195E-01
   7135.33  1.0102763E+00
   7135.67  1.0279361E+00
   7136.00  1.0313293E+00
   7136.33  1.0088617E+00
   7136.67  9.6183859E-01
   7137.00  8.9617199E-01
   7137.33  8.2191426E-01
   7137.67  7.4960543E-01
   7138.00  6.8415840E-01
   7138.33  6.2906165E-01
   7138.67  5.8333332E-01
   7139.00  5.4633576E-01
   7139.33  5.1799410E-01
   7139.67  4.9626386E-01
   7140.00  4.8025609E-01
   7140.33  4.6959435E-01
   7140.67  4.6279785E-01
   7141.00  4.5918396E-01
   7141.33  4.5837119E-01
   7141.67  4.5948780E-01
   7142.00  4.6216630E-01
   7142.33  4.6625723E-01
   7142.67  4.7141071E-01
   7143.00  4.7753447E-01
   7143.33  4.8469583E-01
   7143.67  4.9276128E-01
   7144.00  5.0170615E-01
   7144.33  5.1154523E-01
   7144.67  5.2198417E-01
   7145.00  5.3273362E-01
   7145.33  5.4327380E-01
   7145.67  5.5298482E-01
   7146.00  5.6125814E-01
   7146.33  5.6717629E-01
   7146.67  5.7053987E-01
   7147.00  5.7119180E-01
   7147.33  5.6893364E-01
   7147.67  5.6449490E-01
   7148.00  5.5836633E-01
   7148.33  5.5103935E-01
   7148.67  5.4323553E-01
   7149.00  5.3538556E-01
   7149.33  5.2792836E-01
   7149.67  5.2110554E-01
   7150.00  5.1508753E-01
   7150.33  5.1012281E-01
   7150.67  5.0617314E-01
   7151.00  5.0327705E-01
   7151.33  5.0158435E-01
   7151.67  5.0094969E-01
   7152.00  5.0134570E-01
   7152.33  5.0284355E-01
   7152.67  5.0524708E-01
   7153.00  5.0847364E-01
   7153.33  5.1249191E-01
   7153.67  5.1707237E-01
   7154.00  5.2208040E-01
   7154.33  5.2738306E-01
   7154.67  5.3277954E-01
   7155.00  5.3813417E-01
   7155.33  5.4328917E-01
   7155.67  5.4816171E-01
   7156.00  5.5268794E-01
   7156.33  5.5677462E-01
   7156.67  5.6045456E-01
   7157.00  5.6373195E-01
   7157.33  5.6657912E-01
   7157.67  5.6907410E-01
   7158.00  5.7124636E-01
   7158.33  5.7309443E-01
   7158.67  5.7468570E-01
   7159.00  5.7604299E-01
   7159.33  5.7716076E-01
   7159.67  5.7807991E-01
   7160.00  5.7880687E-01
   7160.33  5.7931846E-01
   7160.67  5.7963234E-01
   7161.00  5.7973714E-01
   7161.33  5.7958532E-01
   7161.67  5.7918239E-01
   7162.00  5.7850554E-01
   7162.33  5.7748716E-01
   7162.67  5.7613426E-01
   7163.00  5.7442100E-01
   7163.33  5.7227055E-01
   7163.67  5.6970672E-01
   7164.00  5.6671214E-01
   7164.33  5.6321099E-01
   7164.67  5.5924541E-01
   7165.00  5.5481669E-01
   7165.33  5.4988158E-01
   7165.67  5.4451957E-01
   7166.00  5.3875904E-01
   7166.33  5.3259625E-01
   7166.67  5.2612458E-01
   7167.00  5.1939147E-01
   7167.33  5.1243248E-01
   7167.67  5.0533674E-01
   7168.00  4.9815977E-01
   7168.33  4.9096488E-01
   7168.67  4.8381934E-01
   7169.00  4.7677795E-01
   7169.33  4.6992261E-01
   7169.67  4.6328854E-01
   7170.00  4.5691911E-01
   7170.33  4.5090669E-01
   7170.67  4.4526893E-01
   7171.00  4.4006064E-01
   7171.33  4.3542566E-01
   7171.67  4.3143046E-01
   7172.00  4.2823690E-01
