    FDMNES
    energy     <xanes>
   7097.00  5.6401070E-03
   7097.33  5.7933254E-03
   7097.67  5.9544348E-03
   7098.00  6.1240224E-03
   7098.33  6.3040038E-03
   7098.67  6.4940775E-03
   7099.00  6.6950595E-03
   7099.33  6.9095128E-03
   7099.67  7.1371480E-03
   7100.00  7.3791303E-03
   7100.33  7.6389826E-03
   7100.67  7.9164798E-03
   7101.00  8.2133390E-03
   7101.33  8.5345591E-03
   7101.67  8.8800917E-03
   7102.00  9.2525639E-03
   7102.33  9.6593418E-03
   7102.67  1.0100801E-02
   7103.00  1.0581145E-02
   7103.33  1.1111736E-02
   7103.67  1.1693935E-02
   7104.00  1.2334839E-02
   7104.33  1.3053003E-02
   7104.67  1.3852104E-02
   7105.00  1.4744981E-02
   7105.33  1.5764187E-02
   7105.67  1.6919169E-02
   7106.00  1.8235288E-02
   7106.33  1.9775308E-02
   7106.67  2.1564420E-02
   7107.00  2.3659041E-02
   7107.33  2.6196906E-02
   7107.67  2.9252793E-02
   7108.00  3.2975266E-02
   7108.33  3.7729659E-02
   7108.67  4.3785833E-02
   7109.00  5.1650829E-02
   7109.33  6.2634962E-02
   7109.67  7.8107540E-02
   7110.00  1.0070776E-01
   7110.33  1.3793787E-01
   7110.67  1.9882874E-01
   7111.00  2.9335367E-01
   7111.33  4.2420777E-01
   7111.67  5.5899017E-01
   7112.00  6.6453626E-01
   7112.33  7.3921281E-01
   7112.67  7.6818518E-01
   7113.00  7.1365600E-01
   7113.33  5.8731511E-01
   7113.67  4.5641894E-01
   7114.00  3.5067510E-01
   7114.33  2.7848480E-01
   7114.67  2.2902468E-01
   7115.00  1.9604052E-01
   7115.33  1.7577205E-01
   7115.67  1.6385141E-01
   7116.00  1.5889817E-01
   7116.33  1.6013702E-01
   7116.67  1.6430365E-01
   7117.00  1.6815719E-01
   7117.33  1.6839525E-01
   7117.67  1.6529909E-01
   7118.00  1.6032637E-01
   7118.33  1.5544565E-01
   7118.67  1.5194282E-01
   7119.00  1.4992228E-01
   7119.33  1.4836926E-01
   7119.67  1.4589189E-01
   7120.00  1.4244510E-01
   7120.33  1.3990718E-01
   7120.67  1.4012390E-01
   7121.00  1.4352980E-01
   7121.33  1.4984701E-01
   7121.67  1.5778699E-01
   7122.00  1.6679027E-01
   7122.33  1.7698680E-01
   7122.67  1.8873103E-01
   7123.00  2.0241085E-01
   7123.33  2.1816258E-01
   7123.67  2.3509982E-01
   7124.00  2.5261724E-01
   7124.33  2.7020239E-01
   7124.67  2.8719855E-01
   7125.00  3.0289088E-01
   7125.33  3.1681834E-01
   7125.67  3.3023113E-01
   7126.00  3.4457860E-01
   7126.33  3.6067669E-01
   7126.67  3.7679855E-01
   7127.00  3.9082638E-01
   7127.33  4.0152337E-01
   7127.67  4.1062576E-01
   7128.00  4.1974254E-01
   7128.33  4.3048495E-01
   7128.67  4.4401411E-01
   7129.00  4.6144024E-01
   7129.33  4.8324461E-01
   7129.67  5.0627198E-01
   7130.00  5.2689798E-01
   7130.33  5.4222357E-01
   7130.67  5.5418123E-01
   7131.00  5.6512194E-01
   7131.33  5.7713379E-01
   7131.67  5.9084955E-01
   7132.00  6.0603287E-01
   7132.33  6.2157910E-01
   7132.67  6.3603951E-01
   7133.00  6.4887938E-01
   7133.33  6.6052539E-01
   7133.67  6.7145077E-01
   7134.00  6.7995205E-01
   7134.33  6.8091692E-01
   7134.67  6.7202090E-01
   7135.00  6.5381173E-01
   7135.33  6.2879746E-01
   7135.67  6.0116810E-01
   7136.00  5.7304759E-01
   7136.33  5.4625056E-01
   7136.67  5.2182454E-01
   7137.00  5.0055760E-01
   7137.33  4.8356053E-01
   7137.67  4.7069107E-01
   7138.00  4.6203412E-01
   7138.33  4.5803415E-01
   7138.67  4.5794722E-01
   7139.00  4.6145326E-01
   7139.33  4.6839602E-01
   7139.67  4.7768051E-01
   7140.00  4.8859734E-01
   7140.33  5.0041886E-01
   7140.67  5.1235829E-01
   7141.00  5.2402933E-01
   7141.33  5.3518149E-01
   7141.67  5.4588314E-01
   7142.00  5.5621299E-01
   7142.33  5.6620982E-01
   7142.67  5.7592272E-01
   7143.00  5.8531853E-01
   7143.33  5.9431392E-01
   7143.67  6.0297680E-01
   7144.00  6.1141133E-01
   7144.33  6.1983458E-01
   7144.67  6.2852074E-01
   7145.00  6.3769090E-01
   7145.33  6.4761146E-01
   7145.67  6.5826651E-01
   7146.00  6.6961537E-01
   7146.33  6.8157908E-01
   7146.67  6.9386909E-01
   7147.00  7.0627837E-01
   7147.33  7.1855689E-01
   7147.67  7.3049244E-01
   7148.00  7.4190556E-01
   7148.33  7.5252436E-01
   7148.67  7.6228418E-01
   7149.00  7.7108065E-01
   7149.33  7.7869424E-01
   7149.67  7.8521015E-01
   7150.00  7.9062032E-01
   7150.33  7.9478870E-01
   7150.67  7.9786079E-01
   7151.00  7.9984669E-01
   7151.33  8.0062162E-01
   7151.67  8.0032206E-01
   7152.00  7.9894223E-01
   7152.33  7.9633169E-01
   7152.67  7.9261070E-01
   7153.00  7.8776851E-01
   7153.33  7.8166271E-01
   7153.67  7.7445083E-01
   7154.00  7.6616815E-01
   7154.33  7.5675615E-01
   7154.67  7.4643731E-01
   7155.00  7.3532138E-01
   7155.33  7.2347992E-01
   7155.67  7.1115919E-01
   7156.00  6.9850333E-01
   7156.33  6.8565113E-01
   7156.67  6.7276869E-01
   7157.00  6.5996091E-01
   7157.33  6.4734380E-01
   7157.67  6.3496219E-01
   7158.00  6.2285180E-01
   7158.33  6.1106824E-01
   7158.67  5.9957529E-01
   7159.00  5.8836375E-01
   7159.33  5.7744934E-01
   7159.67  5.6677912E-01
   7160.00  5.5633963E-01
   7160.33  5.4615063E-01
   7160.67  5.3618729E-01
   7161.00  5.2646193E-01
   7161.33  5.1703023E-01
   7161.67  5.0789212E-01
   7162.00  4.9908178E-01
   7162.33  4.9068319E-01
   7162.67  4.8267952E-01
   7163.00  4.7508593E-01
   7163.33  4.6795992E-01
   7163.67  4.6124376E-01
   7164.00  4.5492564E-01
   7164.33  4.4903296E-01
   7164.67  4.4349384E-01
   7165.00  4.3828403E-01
   7165.33  4.3340944E-01
   7165.67  4.2879933E-01
   7166.00  4.2442297E-01
   7166.33  4.2026611E-01
   7166.67  4.1626057E-01
   7167.00  4.1236152E-01
   7167.33  4.0852411E-01
   7167.67  4.0470094E-01
   7168.00  4.0086593E-01
   7168.33  3.9699316E-01
   7168.67  3.9307638E-01
   7169.00  3.8911707E-01
   7169.33  3.8512450E-01
   7169.67  3.8112518E-01
   7170.00  3.7714510E-01
   7170.33  3.7322892E-01
   7170.67  3.6941683E-01
   7171.00  3.6576086E-01
   7171.33  3.6237655E-01
   7171.67  3.5937126E-01
   7172.00  3.5691338E-01
