    FDMNES
    energy     <xanes>
   7097.00  4.8020883E-03
   7097.33  4.9147050E-03
   7097.67  5.0324250E-03
   7098.00  5.1555981E-03
   7098.33  5.2854131E-03
   7098.67  5.4216359E-03
   7099.00  5.5647467E-03
   7099.33  5.7163093E-03
   7099.67  5.8760898E-03
   7100.00  6.0447664E-03
   7100.33  6.2244552E-03
   7100.67  6.4149514E-03
   7101.00  6.6172467E-03
   7101.33  6.8343018E-03
   7101.67  7.0660062E-03
   7102.00  7.3138693E-03
   7102.33  7.5822069E-03
   7102.67  7.8711476E-03
   7103.00  8.1831042E-03
   7103.33  8.5246912E-03
   7103.67  8.8966128E-03
   7104.00  9.3029650E-03
   7104.33  9.7545452E-03
   7104.67  1.0253458E-02
   7105.00  1.0807210E-02
   7105.33  1.1434911E-02
   7105.67  1.2142281E-02
   7106.00  1.2944512E-02
   7106.33  1.3879285E-02
   7106.67  1.4962654E-02
   7107.00  1.6229848E-02
   7107.33  1.7767212E-02
   7107.67  1.9625608E-02
   7108.00  2.1904472E-02
   7108.33  2.4851312E-02
   7108.67  2.8668759E-02
   7109.00  3.3738166E-02
   7109.33  4.1076720E-02
   7109.67  5.1884574E-02
   7110.00  6.8525623E-02
   7110.33  9.7767512E-02
   7110.67  1.4572465E-01
   7111.00  2.0850153E-01
   7111.33  2.5937735E-01
   7111.67  2.9463599E-01
   7112.00  3.1585432E-01
   7112.33  3.1981341E-01
   7112.67  3.1010444E-01
   7113.00  2.8479703E-01
   7113.33  2.4105414E-01
   7113.67  1.9748322E-01
   7114.00  1.6553659E-01
   7114.33  1.4741077E-01
   7114.67  1.3704856E-01
   7115.00  1.3208570E-01
   7115.33  1.3246196E-01
   7115.67  1.3246478E-01
   7116.00  1.2616947E-01
   7116.33  1.1600199E-01
   7116.67  1.0882162E-01
   7117.00  1.0632896E-01
   7117.33  1.0876334E-01
   7117.67  1.1509343E-01
   7118.00  1.2485909E-01
   7118.33  1.3642971E-01
   7118.67  1.4716849E-01
   7119.00  1.5692928E-01
   7119.33  1.6567242E-01
   7119.67  1.7250187E-01
   7120.00  1.7813309E-01
   7120.33  1.8533412E-01
   7120.67  1.9503555E-01
   7121.00  2.0499433E-01
   7121.33  2.1508193E-01
   7121.67  2.2933082E-01
   7122.00  2.5040301E-01
   7122.33  2.7911605E-01
   7122.67  3.1089536E-01
   7123.00  3.4130902E-01
   7123.33  3.6785685E-01
   7123.67  3.9291465E-01
   7124.00  4.1916345E-01
   7124.33  4.4957002E-01
   7124.67  4.8407695E-01
   7125.00  5.2060504E-01
   7125.33  5.5453873E-01
   7125.67  5.8223467E-01
   7126.00  6.0255673E-01
   7126.33  6.1578455E-01
   7126.67  6.2391353E-01
   7127.00  6.2680097E-01
   7127.33  6.2247215E-01
   7127.67  6.1262233E-01
   7128.00  6.0127105E-01
   7128.33  5.9427351E-01
   7128.67  5.9354739E-01
   7129.00  5.9864939E-01
   7129.33  6.0831838E-01
   7129.67  6.1975034E-01
   7130.00  6.3040704E-01
   7130.33  6.3646054E-01
   7130.67  6.3609178E-01
   7131.00  6.2891470E-01
   7131.33  6.1528557E-01
   7131.67  5.9771872E-01
   7132.00  5.7809875E-01
   7132.33  5.5922288E-01
   7132.67  5.4374863E-01
   7133.00  5.3318813E-01
   7133.33  5.2832414E-01
   7133.67  5.2699654E-01
   7134.00  5.2678075E-01
   7134.33  5.2446387E-01
   7134.67  5.1955441E-01
   7135.00  5.1393812E-01
   7135.33  5.1100407E-01
   7135.67  5.1269002E-01
   7136.00  5.1990846E-01
   7136.33  5.3314004E-01
   7136.67  5.5012019E-01
   7137.00  5.6856623E-01
   7137.33  5.8532595E-01
   7137.67  5.9814253E-01
   7138.00  6.0599216E-01
   7138.33  6.0874574E-01
   7138.67  6.0872467E-01
   7139.00  6.0774693E-01
   7139.33  6.0758033E-01
   7139.67  6.0897164E-01
   7140.00  6.1198697E-01
   7140.33  6.1629549E-01
   7140.67  6.2090693E-01
   7141.00  6.2495701E-01
   7141.33  6.2731086E-01
   7141.67  6.2753530E-01
   7142.00  6.2550558E-01
   7142.33  6.2130706E-01
   7142.67  6.1582540E-01
   7143.00  6.0967099E-01
   7143.33  6.0343110E-01
   7143.67  5.9750204E-01
   7144.00  5.9204051E-01
   7144.33  5.8711289E-01
   7144.67  5.8250710E-01
   7145.00  5.7799212E-01
   7145.33  5.7321790E-01
   7145.67  5.6794714E-01
   7146.00  5.6209176E-01
   7146.33  5.5572180E-01
   7146.67  5.4923350E-01
   7147.00  5.4297752E-01
   7147.33  5.3732074E-01
   7147.67  5.3224939E-01
   7148.00  5.2759540E-01
   7148.33  5.2299828E-01
   7148.67  5.1805844E-01
   7149.00  5.1254337E-01
   7149.33  5.0625758E-01
   7149.67  4.9929134E-01
   7150.00  4.9169072E-01
   7150.33  4.8347691E-01
   7150.67  4.7485274E-01
   7151.00  4.6597561E-01
   7151.33  4.5706656E-01
   7151.67  4.4837157E-01
   7152.00  4.4008479E-01
   7152.33  4.3247663E-01
   7152.67  4.2563254E-01
   7153.00  4.1965614E-01
   7153.33  4.1473338E-01
   7153.67  4.1075608E-01
   7154.00  4.0768929E-01
   7154.33  4.0556346E-01
   7154.67  4.0418515E-01
   7155.00  4.0347935E-01
   7155.33  4.0344030E-01
   7155.67  4.0392088E-01
   7156.00  4.0485968E-01
   7156.33  4.0622831E-01
   7156.67  4.0789272E-01
   7157.00  4.0976670E-01
   7157.33  4.1174110E-01
   7157.67  4.1366229E-01
   7158.00  4.1539269E-01
   7158.33  4.1671321E-01
   7158.67  4.1749108E-01
   7159.00  4.1758142E-01
   7159.33  4.1674198E-01
   7159.67  4.1499461E-01
   7160.00  4.1233558E-01
   7160.33  4.0875678E-01
   7160.67  4.0456935E-01
   7161.00  4.0003128E-01
   7161.33  3.9548488E-01
   7161.67  3.9126389E-01
   7162.00  3.8760635E-01
   7162.33  3.8477791E-01
   7162.67  3.8272603E-01
   7163.00  3.8138719E-01
   7163.33  3.8068331E-01
   7163.67  3.8036621E-01
   7164.00  3.8029614E-01
   7164.33  3.8036883E-01
   7164.67  3.8050556E-01
   7165.00  3.8069508E-01
   7165.33  3.8096996E-01
   7165.67  3.8136630E-01
   7166.00  3.8192975E-01
   7166.33  3.8273747E-01
   7166.67  3.8380204E-01
   7167.00  3.8514725E-01
   7167.33  3.8682508E-01
   7167.67  3.8880013E-01
   7168.00  3.9106285E-01
   7168.33  3.9362140E-01
   7168.67  3.9640180E-01
   7169.00  3.9935468E-01
   7169.33  4.0241924E-01
   7169.67  4.0549563E-01
   7170.00  4.0850200E-01
   7170.33  4.1132330E-01
   7170.67  4.1389608E-01
   7171.00  4.1616296E-01
   7171.33  4.1803532E-01
   7171.67  4.1953525E-01
   7172.00  4.2066165E-01
