    FDMNES
    energy     <xanes>
   7097.00  5.0121779E-03
   7097.33  5.1275151E-03
   7097.67  5.2479863E-03
   7098.00  5.3739341E-03
   7098.33  5.5065385E-03
   7098.67  5.6455498E-03
   7099.00  5.7914329E-03
   7099.33  5.9457242E-03
   7099.67  6.1081655E-03
   7100.00  6.2794041E-03
   7100.33  6.4614914E-03
   7100.67  6.6541820E-03
   7101.00  6.8584038E-03
   7101.33  7.0769789E-03
   7101.67  7.3097216E-03
   7102.00  7.5580109E-03
   7102.33  7.8258684E-03
   7102.67  8.1132728E-03
   7103.00  8.4223623E-03
   7103.33  8.7591210E-03
   7103.67  9.1239279E-03
   7104.00  9.5202743E-03
   7104.33  9.9575552E-03
   7104.67  1.0437106E-02
   7105.00  1.0965011E-02
   7105.33  1.1557061E-02
   7105.67  1.2216960E-02
   7106.00  1.2956245E-02
   7106.33  1.3803952E-02
   7106.67  1.4770130E-02
   7107.00  1.5879299E-02
   7107.33  1.7191903E-02
   7107.67  1.8737428E-02
   7108.00  2.0577216E-02
   7108.33  2.2862374E-02
   7108.67  2.5696181E-02
   7109.00  2.9276316E-02
   7109.33  3.4110314E-02
   7109.67  4.0700765E-02
   7110.00  5.0018354E-02
   7110.33  6.4819781E-02
   7110.67  8.8546370E-02
   7111.00  1.2526732E-01
   7111.33  1.7319604E-01
   7111.67  2.2644128E-01
   7112.00  2.7964674E-01
   7112.33  3.0668601E-01
   7112.67  3.4059443E-01
   7113.00  4.0188355E-01
   7113.33  4.4642664E-01
   7113.67  4.0616633E-01
   7114.00  3.1472715E-01
   7114.33  2.3765540E-01
   7114.67  1.9179749E-01
   7115.00  1.7387881E-01
   7115.33  1.8076677E-01
   7115.67  2.0877926E-01
   7116.00  2.5786798E-01
   7116.33  3.1377525E-01
   7116.67  3.3594203E-01
   7117.00  3.0410355E-01
   7117.33  2.4665685E-01
   7117.67  1.9934751E-01
   7118.00  1.6774485E-01
   7118.33  1.4972097E-01
   7118.67  1.3906878E-01
   7119.00  1.3309377E-01
   7119.33  1.2999498E-01
   7119.67  1.2815273E-01
   7120.00  1.2749200E-01
   7120.33  1.2866819E-01
   7120.67  1.3100477E-01
   7121.00  1.3356997E-01
   7121.33  1.3568363E-01
   7121.67  1.3752207E-01
   7122.00  1.3953402E-01
   7122.33  1.4271045E-01
   7122.67  1.4814548E-01
   7123.00  1.5683227E-01
   7123.33  1.6987597E-01
   7123.67  1.8630954E-01
   7124.00  2.0436268E-01
   7124.33  2.2054120E-01
   7124.67  2.3312526E-01
   7125.00  2.4313983E-01
   7125.33  2.5266545E-01
   7125.67  2.6270020E-01
   7126.00  2.7353699E-01
   7126.33  2.8579514E-01
   7126.67  2.9961786E-01
   7127.00  3.1495879E-01
   7127.33  3.3184426E-01
   7127.67  3.5018403E-01
   7128.00  3.7029484E-01
   7128.33  3.9295474E-01
   7128.67  4.1825907E-01
   7129.00  4.4639482E-01
   7129.33  4.7798213E-01
   7129.67  5.1275894E-01
   7130.00  5.5050071E-01
   7130.33  5.9123762E-01
   7130.67  6.3462839E-01
   7131.00  6.8069000E-01
   7131.33  7.2953534E-01
   7131.67  7.8028048E-01
   7132.00  8.3203783E-01
   7132.33  8.8347227E-01
   7132.67  9.3349585E-01
   7133.00  9.8148859E-01
   7133.33  1.0260044E+00
   7133.67  1.0644872E+00
   7134.00  1.0923258E+00
   7134.33  1.1010141E+00
   7134.67  1.0885548E+00
   7135.00  1.0554890E+00
   7135.33  1.0051469E+00
   7135.67  9.4677150E-01
   7136.00  8.8591976E-01
   7136.33  8.2726478E-01
   7136.67  7.7294699E-01
   7137.00  7.2388107E-01
   7137.33  6.8110981E-01
   7137.67  6.4391082E-01
   7138.00  6.1214222E-01
   7138.33  5.8620584E-01
   7138.67  5.6512965E-01
   7139.00  5.4856879E-01
   7139.33  5.3656062E-01
   7139.67  5.2809648E-01
   7140.00  5.2274169E-01
   7140.33  5.2032733E-01
   7140.67  5.2005526E-01
   7141.00  5.2155060E-01
   7141.33  5.2458781E-01
   7141.67  5.2863889E-01
   7142.00  5.3342845E-01
   7142.33  5.3871366E-01
   7142.67  5.4414240E-01
   7143.00  5.4944479E-01
   7143.33  5.5422365E-01
   7143.67  5.5817763E-01
   7144.00  5.6099556E-01
   7144.33  5.6215448E-01
   7144.67  5.6156391E-01
   7145.00  5.5907455E-01
   7145.33  5.5441669E-01
   7145.67  5.4799617E-01
   7146.00  5.4012153E-01
   7146.33  5.3121060E-01
   7146.67  5.2203222E-01
   7147.00  5.1316618E-01
   7147.33  5.0532239E-01
   7147.67  4.9881722E-01
   7148.00  4.9385579E-01
   7148.33  4.9070400E-01
   7148.67  4.8908938E-01
   7149.00  4.8885642E-01
   7149.33  4.8988500E-01
   7149.67  4.9176122E-01
   7150.00  4.9427326E-01
   7150.33  4.9726589E-01
   7150.67  5.0051916E-01
   7151.00  5.0392048E-01
   7151.33  5.0737409E-01
   7151.67  5.1079864E-01
   7152.00  5.1414725E-01
   7152.33  5.1737230E-01
   7152.67  5.2047677E-01
   7153.00  5.2347176E-01
   7153.33  5.2638827E-01
   7153.67  5.2929790E-01
   7154.00  5.3226520E-01
   7154.33  5.3538499E-01
   7154.67  5.3870935E-01
   7155.00  5.4228310E-01
   7155.33  5.4617333E-01
   7155.67  5.5035453E-01
   7156.00  5.5481875E-01
   7156.33  5.5957352E-01
   7156.67  5.6454772E-01
   7157.00  5.6969802E-01
   7157.33  5.7497773E-01
   7157.67  5.8030072E-01
   7158.00  5.8559798E-01
   7158.33  5.9076898E-01
   7158.67  5.9573721E-01
   7159.00  6.0042334E-01
   7159.33  6.0468887E-01
   7159.67  6.0849146E-01
   7160.00  6.1175814E-01
   7160.33  6.1433298E-01
   7160.67  6.1622285E-01
   7161.00  6.1737876E-01
   7161.33  6.1766122E-01
   7161.67  6.1714001E-01
   7162.00  6.1580824E-01
   7162.33  6.1358228E-01
   7162.67  6.1059430E-01
   7163.00  6.0688115E-01
   7163.33  6.0241170E-01
   7163.67  5.9733030E-01
   7164.00  5.9169300E-01
   7164.33  5.8550743E-01
   7164.67  5.7890503E-01
   7165.00  5.7194741E-01
   7165.33  5.6467370E-01
   7165.67  5.5719717E-01
   7166.00  5.4958778E-01
   7166.33  5.4192299E-01
   7166.67  5.3429166E-01
   7167.00  5.2676024E-01
   7167.33  5.1941777E-01
   7167.67  5.1229910E-01
   7168.00  5.0544060E-01
   7168.33  4.9890545E-01
   7168.67  4.9267062E-01
   7169.00  4.8673771E-01
   7169.33  4.8113785E-01
   7169.67  4.7583066E-01
   7170.00  4.7081501E-01
   7170.33  4.6611712E-01
   7170.67  4.6169724E-01
   7171.00  4.5756720E-01
   7171.33  4.5381698E-01
   7171.67  4.5051882E-01
   7172.00  4.4783515E-01
