    FDMNES
    energy     <xanes>
   7097.00  5.4185173E-03
   7097.33  5.5590265E-03
   7097.67  5.7064200E-03
   7098.00  5.8611868E-03
   7098.33  6.0249579E-03
   7098.67  6.1974366E-03
   7099.00  6.3792932E-03
   7099.33  6.5726797E-03
   7099.67  6.7772962E-03
   7100.00  6.9940846E-03
   7100.33  7.2259565E-03
   7100.67  7.4726419E-03
   7101.00  7.7355042E-03
   7101.33  8.0185993E-03
   7101.67  8.3217608E-03
   7102.00  8.6470315E-03
   7102.33  9.0002608E-03
   7102.67  9.3815470E-03
   7103.00  9.7940793E-03
   7103.33  1.0246657E-02
   7103.67  1.0740001E-02
   7104.00  1.1279350E-02
   7104.33  1.1878645E-02
   7104.67  1.2540075E-02
   7105.00  1.3272805E-02
   7105.33  1.4100435E-02
   7105.67  1.5028756E-02
   7106.00  1.6075181E-02
   7106.33  1.7283327E-02
   7106.67  1.8668603E-02
   7107.00  2.0268069E-02
   7107.33  2.2172900E-02
   7107.67  2.4428122E-02
   7108.00  2.7126971E-02
   7108.33  3.0499543E-02
   7108.67  3.4706400E-02
   7109.00  4.0055953E-02
   7109.33  4.7350132E-02
   7109.67  5.7423487E-02
   7110.00  7.1907754E-02
   7110.33  9.5367421E-02
   7110.67  1.3177230E-01
   7111.00  1.7906380E-01
   7111.33  2.2252021E-01
   7111.67  2.7202691E-01
   7112.00  3.4689213E-01
   7112.33  4.6213009E-01
   7112.67  6.0771337E-01
   7113.00  7.4556363E-01
   7113.33  7.9708076E-01
   7113.67  7.4055451E-01
   7114.00  6.1807693E-01
   7114.33  4.9388195E-01
   7114.67  3.9495204E-01
   7115.00  3.2295152E-01
   7115.33  2.7463476E-01
   7115.67  2.4107261E-01
   7116.00  2.1803466E-01
   7116.33  2.0257967E-01
   7116.67  1.9130856E-01
   7117.00  1.8286884E-01
   7117.33  1.7630362E-01
   7117.67  1.7014958E-01
   7118.00  1.6326253E-01
   7118.33  1.5494988E-01
   7118.67  1.4633500E-01
   7119.00  1.3860126E-01
   7119.33  1.3253927E-01
   7119.67  1.2795484E-01
   7120.00  1.2485621E-01
   7120.33  1.2340745E-01
   7120.67  1.2307061E-01
   7121.00  1.2326688E-01
   7121.33  1.2313798E-01
   7121.67  1.2236788E-01
   7122.00  1.2141353E-01
   7122.33  1.2107622E-01
   7122.67  1.2156493E-01
   7123.00  1.2283653E-01
   7123.33  1.2490765E-01
   7123.67  1.2766913E-01
   7124.00  1.3100326E-01
   7124.33  1.3442256E-01
   7124.67  1.3766705E-01
   7125.00  1.4154710E-01
   7125.33  1.4745878E-01
   7125.67  1.5568754E-01
   7126.00  1.6646884E-01
   7126.33  1.8058452E-01
   7126.67  1.9819798E-01
   7127.00  2.1972093E-01
   7127.33  2.4599929E-01
   7127.67  2.7634208E-01
   7128.00  3.0980503E-01
   7128.33  3.4481364E-01
   7128.67  3.7990489E-01
   7129.00  4.1457875E-01
   7129.33  4.4815821E-01
   7129.67  4.8043880E-01
   7130.00  5.1220382E-01
   7130.33  5.4610479E-01
   7130.67  5.8497683E-01
   7131.00  6.3112475E-01
   7131.33  6.8714864E-01
   7131.67  7.5115130E-01
   7132.00  8.1976066E-01
   7132.33  8.8558444E-01
   7132.67  9.4050278E-01
   7133.00  9.7889138E-01
   7133.33  9.9585460E-01
   7133.67  9.9514761E-01
   7134.00  9.7984234E-01
   7134.33  9.5345010E-01
   7134.67  9.2207253E-01
   7135.00  8.8889860E-01
   7135.33  8.5578004E-01
   7135.67  8.2286468E-01
   7136.00  7.8966389E-01
   7136.33  7.5563674E-01
   7136.67  7.2097575E-01
   7137.00  6.8621479E-01
   7137.33  6.5240376E-01
   7137.67  6.2052226E-01
   7138.00  5.9149971E-01
   7138.33  5.6680691E-01
   7138.67  5.4677040E-01
   7139.00  5.3186748E-01
   7139.33  5.2298837E-01
   7139.67  5.1927279E-01
   7140.00  5.2023406E-01
   7140.33  5.2548388E-01
   7140.67  5.3350819E-01
   7141.00  5.4341879E-01
   7141.33  5.5445183E-01
   7141.67  5.6582934E-01
   7142.00  5.7718924E-01
   7142.33  5.8827266E-01
   7142.67  5.9902096E-01
   7143.00  6.0941072E-01
   7143.33  6.1937717E-01
   7143.67  6.2892776E-01
   7144.00  6.3800176E-01
   7144.33  6.4643097E-01
   7144.67  6.5417458E-01
   7145.00  6.6113380E-01
   7145.33  6.6709168E-01
   7145.67  6.7207239E-01
   7146.00  6.7602011E-01
   7146.33  6.7875987E-01
   7146.67  6.8041136E-01
   7147.00  6.8098243E-01
   7147.33  6.8037477E-01
   7147.67  6.7877783E-01
   7148.00  6.7625955E-01
   7148.33  6.7280984E-01
   7148.67  6.6862656E-01
   7149.00  6.6378727E-01
   7149.33  6.5831851E-01
   7149.67  6.5239044E-01
   7150.00  6.4608699E-01
   7150.33  6.3946590E-01
   7150.67  6.3264818E-01
   7151.00  6.2570038E-01
   7151.33  6.1868288E-01
   7151.67  6.1166203E-01
   7152.00  6.0468130E-01
   7152.33  5.9779534E-01
   7152.67  5.9103281E-01
   7153.00  5.8442527E-01
   7153.33  5.7803326E-01
   7153.67  5.7186955E-01
   7154.00  5.6596508E-01
   7154.33  5.6039333E-01
   7154.67  5.5515486E-01
   7155.00  5.5028302E-01
   7155.33  5.4586950E-01
   7155.67  5.4190647E-01
   7156.00  5.3843224E-01
   7156.33  5.3555882E-01
   7156.67  5.3326372E-01
   7157.00  5.3158068E-01
   7157.33  5.3061600E-01
   7157.67  5.3029405E-01
   7158.00  5.3059488E-01
   7158.33  5.3153216E-01
   7158.67  5.3293776E-01
   7159.00  5.3469644E-01
   7159.33  5.3666717E-01
   7159.67  5.3864009E-01
   7160.00  5.4044671E-01
   7160.33  5.4185275E-01
   7160.67  5.4273518E-01
   7161.00  5.4297554E-01
   7161.33  5.4237911E-01
   7161.67  5.4097647E-01
   7162.00  5.3874190E-01
   7162.33  5.3556712E-01
   7162.67  5.3157765E-01
   7163.00  5.2680944E-01
   7163.33  5.2123136E-01
   7163.67  5.1500787E-01
   7164.00  5.0821289E-01
   7164.33  5.0088184E-01
   7164.67  4.9317707E-01
   7165.00  4.8518900E-01
   7165.33  4.7699855E-01
   7165.67  4.6872807E-01
   7166.00  4.6046009E-01
   7166.33  4.5229552E-01
   7166.67  4.4430201E-01
   7167.00  4.3653881E-01
   7167.33  4.2909736E-01
   7167.67  4.2198111E-01
   7168.00  4.1521453E-01
   7168.33  4.0886756E-01
   7168.67  4.0291142E-01
   7169.00  3.9735184E-01
   7169.33  3.9223420E-01
   7169.67  3.8750078E-01
   7170.00  3.8314177E-01
   7170.33  3.7919021E-01
   7170.67  3.7559205E-01
   7171.00  3.7234650E-01
   7171.33  3.6951358E-01
   7171.67  3.6709168E-01
   7172.00  3.6514686E-01
