    FDMNES
    energy     <xanes>
   7097.00  5.2062650E-03
   7097.33  5.3295097E-03
   7097.67  5.4583800E-03
   7098.00  5.5932591E-03
   7098.33  5.7354531E-03
   7098.67  5.8846989E-03
   7099.00  6.0415195E-03
   7099.33  6.2076249E-03
   7099.67  6.3827470E-03
   7100.00  6.5676180E-03
   7100.33  6.7645366E-03
   7100.67  6.9732557E-03
   7101.00  7.1948337E-03
   7101.33  7.4324566E-03
   7101.67  7.6859580E-03
   7102.00  7.9569251E-03
   7102.33  8.2499410E-03
   7102.67  8.5650519E-03
   7103.00  8.9047462E-03
   7103.33  9.2759235E-03
   7103.67  9.6791428E-03
   7104.00  1.0118526E-02
   7104.33  1.0605069E-02
   7104.67  1.1140564E-02
   7105.00  1.1732332E-02
   7105.33  1.2399225E-02
   7105.67  1.3146145E-02
   7106.00  1.3987344E-02
   7106.33  1.4958464E-02
   7106.67  1.6073020E-02
   7107.00  1.7362459E-02
   7107.33  1.8904140E-02
   7107.67  2.0739356E-02
   7108.00  2.2951543E-02
   7108.33  2.5747593E-02
   7108.67  2.9283604E-02
   7109.00  3.3856368E-02
   7109.33  4.0247229E-02
   7109.67  4.9323032E-02
   7110.00  6.2785154E-02
   7110.33  8.5495517E-02
   7110.67  1.2227932E-01
   7111.00  1.7269522E-01
   7111.33  2.1844880E-01
   7111.67  2.5281281E-01
   7112.00  2.8653864E-01
   7112.33  3.3288567E-01
   7112.67  3.8060927E-01
   7113.00  4.1126094E-01
   7113.33  4.1540893E-01
   7113.67  3.9546246E-01
   7114.00  3.5560161E-01
   7114.33  3.1006214E-01
   7114.67  2.7203119E-01
   7115.00  2.4507649E-01
   7115.33  2.2957056E-01
   7115.67  2.2184487E-01
   7116.00  2.2002246E-01
   7116.33  2.2142138E-01
   7116.67  2.2001585E-01
   7117.00  2.1160830E-01
   7117.33  1.9754109E-01
   7117.67  1.8429425E-01
   7118.00  1.7474398E-01
   7118.33  1.6951678E-01
   7118.67  1.6639385E-01
   7119.00  1.6356243E-01
   7119.33  1.5963316E-01
   7119.67  1.5479475E-01
   7120.00  1.4976974E-01
   7120.33  1.4551551E-01
   7120.67  1.4247775E-01
   7121.00  1.4091406E-01
   7121.33  1.4140891E-01
   7121.67  1.4418898E-01
   7122.00  1.4964165E-01
   7122.33  1.5865190E-01
   7122.67  1.7140093E-01
   7123.00  1.8827662E-01
   7123.33  2.0950883E-01
   7123.67  2.3286856E-01
   7124.00  2.5565556E-01
   7124.33  2.7434749E-01
   7124.67  2.8833862E-01
   7125.00  2.9862115E-01
   7125.33  3.0716798E-01
   7125.67  3.1618729E-01
   7126.00  3.2693938E-01
   7126.33  3.4094685E-01
   7126.67  3.5895167E-01
   7127.00  3.8188479E-01
   7127.33  4.1145848E-01
   7127.67  4.4745950E-01
   7128.00  4.8958123E-01
   7128.33  5.3692936E-01
   7128.67  5.8634431E-01
   7129.00  6.3487374E-01
   7129.33  6.7858503E-01
   7129.67  7.1595366E-01
   7130.00  7.4663761E-01
   7130.33  7.7088300E-01
   7130.67  7.9094595E-01
   7131.00  8.0795554E-01
   7131.33  8.2247190E-01
   7131.67  8.3528823E-01
   7132.00  8.4679369E-01
   7132.33  8.5729311E-01
   7132.67  8.6705758E-01
   7133.00  8.7580674E-01
   7133.33  8.8242316E-01
   7133.67  8.8595060E-01
   7134.00  8.8551425E-01
   7134.33  8.8006893E-01
   7134.67  8.7024894E-01
   7135.00  8.5630228E-01
   7135.33  8.3779572E-01
   7135.67  8.1506141E-01
   7136.00  7.8808500E-01
   7136.33  7.5696444E-01
   7136.67  7.2343738E-01
   7137.00  6.8898905E-01
   7137.33  6.5552711E-01
   7137.67  6.2447822E-01
   7138.00  5.9681129E-01
   7138.33  5.7372373E-01
   7138.67  5.5496289E-01
   7139.00  5.4047880E-01
   7139.33  5.3048903E-01
   7139.67  5.2403796E-01
   7140.00  5.2064745E-01
   7140.33  5.2003430E-01
   7140.67  5.2132159E-01
   7141.00  5.2406966E-01
   7141.33  5.2795071E-01
   7141.67  5.3242634E-01
   7142.00  5.3715169E-01
   7142.33  5.4169694E-01
   7142.67  5.4567053E-01
   7143.00  5.4874480E-01
   7143.33  5.5046790E-01
   7143.67  5.5082210E-01
   7144.00  5.4978833E-01
   7144.33  5.4731877E-01
   7144.67  5.4379061E-01
   7145.00  5.3943175E-01
   7145.33  5.3441544E-01
   7145.67  5.2900981E-01
   7146.00  5.2335630E-01
   7146.33  5.1758644E-01
   7146.67  5.1183563E-01
   7147.00  5.0619290E-01
   7147.33  5.0077074E-01
   7147.67  4.9561924E-01
   7148.00  4.9079392E-01
   7148.33  4.8639802E-01
   7148.67  4.8243125E-01
   7149.00  4.7892848E-01
   7149.33  4.7598396E-01
   7149.67  4.7355915E-01
   7150.00  4.7167047E-01
   7150.33  4.7040378E-01
   7150.67  4.6970344E-01
   7151.00  4.6957835E-01
   7151.33  4.7010879E-01
   7151.67  4.7122609E-01
   7152.00  4.7293013E-01
   7152.33  4.7528625E-01
   7152.67  4.7820158E-01
   7153.00  4.8164149E-01
   7153.33  4.8559839E-01
   7153.67  4.8992216E-01
   7154.00  4.9451283E-01
   7154.33  4.9925268E-01
   7154.67  5.0398094E-01
   7155.00  5.0857481E-01
   7155.33  5.1286920E-01
   7155.67  5.1678481E-01
   7156.00  5.2024370E-01
   7156.33  5.2311333E-01
   7156.67  5.2541803E-01
   7157.00  5.2714314E-01
   7157.33  5.2822401E-01
   7157.67  5.2876392E-01
   7158.00  5.2880831E-01
   7158.33  5.2837533E-01
   7158.67  5.2760384E-01
   7159.00  5.2657403E-01
   7159.33  5.2535976E-01
   7159.67  5.2406995E-01
   7160.00  5.2277164E-01
   7160.33  5.2153608E-01
   7160.67  5.2040351E-01
   7161.00  5.1939964E-01
   7161.33  5.1855514E-01
   7161.67  5.1784922E-01
   7162.00  5.1726858E-01
   7162.33  5.1680057E-01
   7162.67  5.1639539E-01
   7163.00  5.1601133E-01
   7163.33  5.1560491E-01
   7163.67  5.1515165E-01
   7164.00  5.1463274E-01
   7164.33  5.1401850E-01
   7164.67  5.1330333E-01
   7165.00  5.1247430E-01
   7165.33  5.1150047E-01
   7165.67  5.1038373E-01
   7166.00  5.0911251E-01
   7166.33  5.0765267E-01
   7166.67  5.0601365E-01
   7167.00  5.0418874E-01
   7167.33  5.0215112E-01
   7167.67  4.9992608E-01
   7168.00  4.9751915E-01
   7168.33  4.9492149E-01
   7168.67  4.9217366E-01
   7169.00  4.8929750E-01
   7169.33  4.8631110E-01
   7169.67  4.8326382E-01
   7170.00  4.8019332E-01
   7170.33  4.7714929E-01
   7170.67  4.7418110E-01
   7171.00  4.7134169E-01
   7171.33  4.6873507E-01
   7171.67  4.6644773E-01
   7172.00  4.6460725E-01
