    FDMNES
    energy     <xanes>
   7097.00  4.2637770E-03
   7097.33  4.3430556E-03
   7097.67  4.4249970E-03
   7098.00  4.5097362E-03
   7098.33  4.5978146E-03
   7098.67  4.6890469E-03
   7099.00  4.7836064E-03
   7099.33  4.8821570E-03
   7099.67  4.9844980E-03
   7100.00  5.0908578E-03
   7100.33  5.2020683E-03
   7100.67  5.3179172E-03
   7101.00  5.4387147E-03
   7101.33  5.5655333E-03
   7101.67  5.6981594E-03
   7102.00  5.8370318E-03
   7102.33  5.9835831E-03
   7102.67  6.1376256E-03
   7103.00  6.2998122E-03
   7103.33  6.4721495E-03
   7103.67  6.6545422E-03
   7104.00  6.8480267E-03
   7104.33  7.0555992E-03
   7104.67  7.2774264E-03
   7105.00  7.5152994E-03
   7105.33  7.7741014E-03
   7105.67  8.0547274E-03
   7106.00  8.3606439E-03
   7106.33  8.7008403E-03
   7106.67  9.0783900E-03
   7107.00  9.5011204E-03
   7107.33  9.9887015E-03
   7107.67  1.0551797E-02
   7108.00  1.1212397E-02
   7108.33  1.2025956E-02
   7108.67  1.3037306E-02
   7109.00  1.4332252E-02
   7109.33  1.6141742E-02
   7109.67  1.8742198E-02
   7110.00  2.2683326E-02
   7110.33  2.9577198E-02
   7110.67  4.1137974E-02
   7111.00  5.6940551E-02
   7111.33  6.5949616E-02
   7111.67  6.4774081E-02
   7112.00  6.1255902E-02
   7112.33  5.8319412E-02
   7112.67  5.6725233E-02
   7113.00  5.6502014E-02
   7113.33  5.5918057E-02
   7113.67  5.4754794E-02
   7114.00  5.2749191E-02
   7114.33  4.8009384E-02
   7114.67  4.2959705E-02
   7115.00  3.9786749E-02
   7115.33  3.8845736E-02
   7115.67  3.9290723E-02
   7116.00  4.0814762E-02
   7116.33  4.3419969E-02
   7116.67  4.7024110E-02
   7117.00  5.1780230E-02
   7117.33  5.8156510E-02
   7117.67  6.6166727E-02
   7118.00  7.5621648E-02
   7118.33  8.5990769E-02
   7118.67  9.7030905E-02
   7119.00  1.0957904E-01
   7119.33  1.2535224E-01
   7119.67  1.4489888E-01
   7120.00  1.6859238E-01
   7120.33  1.9701449E-01
   7120.67  2.2924585E-01
   7121.00  2.6459725E-01
   7121.33  3.0216754E-01
   7121.67  3.4029259E-01
   7122.00  3.7762606E-01
   7122.33  4.1248609E-01
   7122.67  4.4440873E-01
   7123.00  4.7321780E-01
   7123.33  4.9834422E-01
   7123.67  5.2017567E-01
   7124.00  5.3954077E-01
   7124.33  5.5957593E-01
   7124.67  5.8456538E-01
   7125.00  6.1637662E-01
   7125.33  6.5313098E-01
   7125.67  6.8896562E-01
   7126.00  7.2019452E-01
   7126.33  7.4509882E-01
   7126.67  7.6562090E-01
   7127.00  7.8174046E-01
   7127.33  7.8988475E-01
   7127.67  7.8847708E-01
   7128.00  7.7844490E-01
   7128.33  7.6301383E-01
   7128.67  7.4606854E-01
   7129.00  7.2858077E-01
   7129.33  7.1064598E-01
   7129.67  6.9355344E-01
   7130.00  6.7946985E-01
   7130.33  6.7078538E-01
   7130.67  6.6653485E-01
   7131.00  6.6543982E-01
   7131.33  6.6668045E-01
   7131.67  6.6976786E-01
   7132.00  6.7493512E-01
   7132.33  6.8293982E-01
   7132.67  6.9372636E-01
   7133.00  7.0689069E-01
   7133.33  7.2069959E-01
   7133.67  7.3183420E-01
   7134.00  7.3719167E-01
   7134.33  7.3379530E-01
   7134.67  7.2365472E-01
   7135.00  7.0936830E-01
   7135.33  6.9382930E-01
   7135.67  6.7907196E-01
   7136.00  6.6573813E-01
   7136.33  6.5397439E-01
   7136.67  6.4315213E-01
   7137.00  6.3277784E-01
   7137.33  6.2230444E-01
   7137.67  6.1134038E-01
   7138.00  5.9969937E-01
   7138.33  5.8731420E-01
   7138.67  5.7454487E-01
   7139.00  5.6179601E-01
   7139.33  5.4968399E-01
   7139.67  5.3861613E-01
   7140.00  5.2886055E-01
   7140.33  5.2071180E-01
   7140.67  5.1392143E-01
   7141.00  5.0832443E-01
   7141.33  5.0380678E-01
   7141.67  5.0002518E-01
   7142.00  4.9681151E-01
   7142.33  4.9404236E-01
   7142.67  4.9150936E-01
   7143.00  4.8907998E-01
   7143.33  4.8659285E-01
   7143.67  4.8389289E-01
   7144.00  4.8083010E-01
   7144.33  4.7716200E-01
   7144.67  4.7285741E-01
   7145.00  4.6799293E-01
   7145.33  4.6285656E-01
   7145.67  4.5787996E-01
   7146.00  4.5328829E-01
   7146.33  4.4917775E-01
   7146.67  4.4537774E-01
   7147.00  4.4174642E-01
   7147.33  4.3814263E-01
   7147.67  4.3447102E-01
   7148.00  4.3070035E-01
   7148.33  4.2683289E-01
   7148.67  4.2292769E-01
   7149.00  4.1903911E-01
   7149.33  4.1523768E-01
   7149.67  4.1155777E-01
   7150.00  4.0801836E-01
   7150.33  4.0464057E-01
   7150.67  4.0140092E-01
   7151.00  3.9829680E-01
   7151.33  3.9534769E-01
   7151.67  3.9254776E-01
   7152.00  3.8991510E-01
   7152.33  3.8750264E-01
   7152.67  3.8531919E-01
   7153.00  3.8339362E-01
   7153.33  3.8179761E-01
   7153.67  3.8053233E-01
   7154.00  3.7962875E-01
   7154.33  3.7916974E-01
   7154.67  3.7913566E-01
   7155.00  3.7954818E-01
   7155.33  3.8048589E-01
   7155.67  3.8190489E-01
   7156.00  3.8381150E-01
   7156.33  3.8626264E-01
   7156.67  3.8918240E-01
   7157.00  3.9254839E-01
   7157.33  3.9637013E-01
   7157.67  4.0053107E-01
   7158.00  4.0494636E-01
   7158.33  4.0948458E-01
   7158.67  4.1393582E-01
   7159.00  4.1811642E-01
   7159.33  4.2177100E-01
   7159.67  4.2481377E-01
   7160.00  4.2718982E-01
   7160.33  4.2884687E-01
   7160.67  4.2997105E-01
   7161.00  4.3068622E-01
   7161.33  4.3110946E-01
   7161.67  4.3140168E-01
   7162.00  4.3164754E-01
   7162.33  4.3192023E-01
   7162.67  4.3226068E-01
   7163.00  4.3269064E-01
   7163.33  4.3323863E-01
   7163.67  4.3390167E-01
   7164.00  4.3468343E-01
   7164.33  4.3559904E-01
   7164.67  4.3663231E-01
   7165.00  4.3778113E-01
   7165.33  4.3905600E-01
   7165.67  4.4043870E-01
   7166.00  4.4192538E-01
   7166.33  4.4352220E-01
   7166.67  4.4520588E-01
   7167.00  4.4696741E-01
   7167.33  4.4880994E-01
   7167.67  4.5072033E-01
   7168.00  4.5269579E-01
   7168.33  4.5474179E-01
   7168.67  4.5684897E-01
   7169.00  4.5901625E-01
   7169.33  4.6124942E-01
   7169.67  4.6353825E-01
   7170.00  4.6587815E-01
   7170.33  4.6826411E-01
   7170.67  4.7067097E-01
   7171.00  4.7306798E-01
   7171.33  4.7538091E-01
   7171.67  4.7749663E-01
   7172.00  4.7925253E-01
