    FDMNES
    energy     <xanes>
   7097.00  5.3121579E-03
   7097.33  5.4423718E-03
   7097.67  5.5786557E-03
   7098.00  5.7214245E-03
   7098.33  5.8720898E-03
   7098.67  6.0303687E-03
   7099.00  6.1968259E-03
   7099.33  6.3733070E-03
   7099.67  6.5595204E-03
   7100.00  6.7562533E-03
   7100.33  6.9659790E-03
   7100.67  7.1884224E-03
   7101.00  7.4247132E-03
   7101.33  7.6782629E-03
   7101.67  7.9488688E-03
   7102.00  8.2382088E-03
   7102.33  8.5511520E-03
   7102.67  8.8876920E-03
   7103.00  9.2504246E-03
   7103.33  9.6465938E-03
   7103.67  1.0076666E-02
   7104.00  1.0544862E-02
   7104.33  1.1062526E-02
   7104.67  1.1631245E-02
   7105.00  1.2258323E-02
   7105.33  1.2962723E-02
   7105.67  1.3748770E-02
   7106.00  1.4630177E-02
   7106.33  1.5641477E-02
   7106.67  1.6794250E-02
   7107.00  1.8117220E-02
   7107.33  1.9681239E-02
   7107.67  2.1519811E-02
   7108.00  2.3703499E-02
   7108.33  2.6406137E-02
   7108.67  2.9743663E-02
   7109.00  3.3939737E-02
   7109.33  3.9569283E-02
   7109.67  4.7197945E-02
   7110.00  5.7922407E-02
   7110.33  7.4797549E-02
   7110.67  1.0089509E-01
   7111.00  1.3771238E-01
   7111.33  1.8321365E-01
   7111.67  2.3730805E-01
   7112.00  3.0109456E-01
   7112.33  3.7973260E-01
   7112.67  4.6591450E-01
   7113.00  5.4014873E-01
   7113.33  5.6754667E-01
   7113.67  5.4462868E-01
   7114.00  4.9387759E-01
   7114.33  4.4293679E-01
   7114.67  3.9991600E-01
   7115.00  3.6176611E-01
   7115.33  3.2461252E-01
   7115.67  2.8885839E-01
   7116.00  2.5725823E-01
   7116.33  2.3292185E-01
   7116.67  2.1499234E-01
   7117.00  2.0180875E-01
   7117.33  1.9057695E-01
   7117.67  1.7913351E-01
   7118.00  1.6793710E-01
   7118.33  1.5846827E-01
   7118.67  1.5093113E-01
   7119.00  1.4508587E-01
   7119.33  1.4070050E-01
   7119.67  1.3733862E-01
   7120.00  1.3490653E-01
   7120.33  1.3345984E-01
   7120.67  1.3267527E-01
   7121.00  1.3230394E-01
   7121.33  1.3242127E-01
   7121.67  1.3326758E-01
   7122.00  1.3501270E-01
   7122.33  1.3783399E-01
   7122.67  1.4167592E-01
   7123.00  1.4667042E-01
   7123.33  1.5326081E-01
   7123.67  1.6166867E-01
   7124.00  1.7235780E-01
   7124.33  1.8639411E-01
   7124.67  2.0422328E-01
   7125.00  2.2654033E-01
   7125.33  2.5458661E-01
   7125.67  2.8782300E-01
   7126.00  3.2532254E-01
   7126.33  3.6352572E-01
   7126.67  3.9608332E-01
   7127.00  4.1869895E-01
   7127.33  4.3112351E-01
   7127.67  4.4074186E-01
   7128.00  4.5325682E-01
   7128.33  4.7366353E-01
   7128.67  5.0255951E-01
   7129.00  5.3967849E-01
   7129.33  5.8365154E-01
   7129.67  6.2984260E-01
   7130.00  6.7460785E-01
   7130.33  7.1464299E-01
   7130.67  7.5019201E-01
   7131.00  7.8255597E-01
   7131.33  8.1365811E-01
   7131.67  8.4522967E-01
   7132.00  8.7768963E-01
   7132.33  9.0990449E-01
   7132.67  9.3887877E-01
   7133.00  9.6087958E-01
   7133.33  9.7022443E-01
   7133.67  9.6581014E-01
   7134.00  9.4756254E-01
   7134.33  9.1596327E-01
   7134.67  8.7570020E-01
   7135.00  8.2974300E-01
   7135.33  7.8082551E-01
   7135.67  7.3162702E-01
   7136.00  6.8360995E-01
   7136.33  6.3830813E-01
   7136.67  5.9634212E-01
   7137.00  5.5836760E-01
   7137.33  5.2561860E-01
   7137.67  4.9802474E-01
   7138.00  4.7585608E-01
   7138.33  4.5984707E-01
   7138.67  4.4905247E-01
   7139.00  4.4302479E-01
   7139.33  4.4157642E-01
   7139.67  4.4342516E-01
   7140.00  4.4791785E-01
   7140.33  4.5460560E-01
   7140.67  4.6265655E-01
   7141.00  4.7165709E-01
   7141.33  4.8129249E-01
   7141.67  4.9118985E-01
   7142.00  5.0113582E-01
   7142.33  5.1089134E-01
   7142.67  5.2027275E-01
   7143.00  5.2910456E-01
   7143.33  5.3708613E-01
   7143.67  5.4411017E-01
   7144.00  5.5001683E-01
   7144.33  5.5449319E-01
   7144.67  5.5759770E-01
   7145.00  5.5930097E-01
   7145.33  5.5947680E-01
   7145.67  5.5841233E-01
   7146.00  5.5624272E-01
   7146.33  5.5304841E-01
   7146.67  5.4918042E-01
   7147.00  5.4486543E-01
   7147.33  5.4035626E-01
   7147.67  5.3594564E-01
   7148.00  5.3185500E-01
   7148.33  5.2839217E-01
   7148.67  5.2570096E-01
   7149.00  5.2394223E-01
   7149.33  5.2340514E-01
   7149.67  5.2407047E-01
   7150.00  5.2600804E-01
   7150.33  5.2942051E-01
   7150.67  5.3413132E-01
   7151.00  5.4008880E-01
   7151.33  5.4732106E-01
   7151.67  5.5551110E-01
   7152.00  5.6446053E-01
   7152.33  5.7395105E-01
   7152.67  5.8360872E-01
   7153.00  5.9315238E-01
   7153.33  6.0220599E-01
   7153.67  6.1053049E-01
   7154.00  6.1792064E-01
   7154.33  6.2407445E-01
   7154.67  6.2904825E-01
   7155.00  6.3283357E-01
   7155.33  6.3533617E-01
   7155.67  6.3679121E-01
   7156.00  6.3729906E-01
   7156.33  6.3688361E-01
   7156.67  6.3577226E-01
   7157.00  6.3406435E-01
   7157.33  6.3180072E-01
   7157.67  6.2912969E-01
   7158.00  6.2611254E-01
   7158.33  6.2277073E-01
   7158.67  6.1918537E-01
   7159.00  6.1538712E-01
   7159.33  6.1138077E-01
   7159.67  6.0721033E-01
   7160.00  6.0288900E-01
   7160.33  5.9840950E-01
   7160.67  5.9379517E-01
   7161.00  5.8904830E-01
   7161.33  5.8415403E-01
   7161.67  5.7913072E-01
   7162.00  5.7397509E-01
   7162.33  5.6866482E-01
   7162.67  5.6321352E-01
   7163.00  5.5761849E-01
   7163.33  5.5185941E-01
   7163.67  5.4595456E-01
   7164.00  5.3990656E-01
   7164.33  5.3370449E-01
   7164.67  5.2737594E-01
   7165.00  5.2093510E-01
   7165.33  5.1439357E-01
   7165.67  5.0779131E-01
   7166.00  5.0115804E-01
   7166.33  4.9453440E-01
   7166.67  4.8796212E-01
   7167.00  4.8147937E-01
   7167.33  4.7514878E-01
   7167.67  4.6899981E-01
   7168.00  4.6307035E-01
   7168.33  4.5743298E-01
   7168.67  4.5209091E-01
   7169.00  4.4706626E-01
   7169.33  4.4241771E-01
   7169.67  4.3811478E-01
   7170.00  4.3416209E-01
   7170.33  4.3060316E-01
   7170.67  4.2739088E-01
   7171.00  4.2452313E-01
   7171.33  4.2204905E-01
   7171.67  4.1995185E-01
   7172.00  4.1827635E-01
