    FDMNES
    energy     <xanes>
   7097.00  5.2834303E-03
   7097.33  5.4188054E-03
   7097.67  5.5606646E-03
   7098.00  5.7094554E-03
   7098.33  5.8666920E-03
   7098.67  6.0320764E-03
   7099.00  6.2062164E-03
   7099.33  6.3910926E-03
   7099.67  6.5863956E-03
   7100.00  6.7929707E-03
   7100.33  7.0134695E-03
   7100.67  7.2475961E-03
   7101.00  7.4965587E-03
   7101.33  7.7640059E-03
   7101.67  8.0497107E-03
   7102.00  8.3554568E-03
   7102.33  8.6864295E-03
   7102.67  9.0425919E-03
   7103.00  9.4266808E-03
   7103.33  9.8463585E-03
   7103.67  1.0302048E-02
   7104.00  1.0798149E-02
   7104.33  1.1346542E-02
   7104.67  1.1948731E-02
   7105.00  1.2612220E-02
   7105.33  1.3356587E-02
   7105.67  1.4185947E-02
   7106.00  1.5114114E-02
   7106.33  1.6176046E-02
   7106.67  1.7382657E-02
   7107.00  1.8762150E-02
   7107.33  2.0384341E-02
   7107.67  2.2280197E-02
   7108.00  2.4516742E-02
   7108.33  2.7259070E-02
   7108.67  3.0611212E-02
   7109.00  3.4776415E-02
   7109.33  4.0273610E-02
   7109.67  4.7588495E-02
   7110.00  5.7663592E-02
   7110.33  7.3145920E-02
   7110.67  9.7170434E-02
   7111.00  1.3363701E-01
   7111.33  1.8319127E-01
   7111.67  2.2473005E-01
   7112.00  2.5041304E-01
   7112.33  2.9346741E-01
   7112.67  3.7695901E-01
   7113.00  5.1857471E-01
   7113.33  7.0828950E-01
   7113.67  8.3650068E-01
   7114.00  8.2880219E-01
   7114.33  7.2322285E-01
   7114.67  5.9491646E-01
   7115.00  4.7688443E-01
   7115.33  3.9017541E-01
   7115.67  3.2918807E-01
   7116.00  2.8763686E-01
   7116.33  2.6086283E-01
   7116.67  2.4209969E-01
   7117.00  2.2708026E-01
   7117.33  2.1203893E-01
   7117.67  1.9665492E-01
   7118.00  1.8230636E-01
   7118.33  1.7039374E-01
   7118.67  1.6095366E-01
   7119.00  1.5363585E-01
   7119.33  1.4766839E-01
   7119.67  1.4214723E-01
   7120.00  1.3678175E-01
   7120.33  1.3167559E-01
   7120.67  1.2734492E-01
   7121.00  1.2424507E-01
   7121.33  1.2264590E-01
   7121.67  1.2221932E-01
   7122.00  1.2275051E-01
   7122.33  1.2407742E-01
   7122.67  1.2590776E-01
   7123.00  1.2810131E-01
   7123.33  1.3053408E-01
   7123.67  1.3305699E-01
   7124.00  1.3569530E-01
   7124.33  1.3872083E-01
   7124.67  1.4246190E-01
   7125.00  1.4733976E-01
   7125.33  1.5410561E-01
   7125.67  1.6297771E-01
   7126.00  1.7416055E-01
   7126.33  1.8808486E-01
   7126.67  2.0455354E-01
   7127.00  2.2364848E-01
   7127.33  2.4577165E-01
   7127.67  2.7061750E-01
   7128.00  2.9807219E-01
   7128.33  3.2787354E-01
   7128.67  3.5902126E-01
   7129.00  3.9125394E-01
   7129.33  4.2563256E-01
   7129.67  4.6337801E-01
   7130.00  5.0510671E-01
   7130.33  5.5041955E-01
   7130.67  5.9678382E-01
   7131.00  6.4202329E-01
   7131.33  6.8353900E-01
   7131.67  7.2007078E-01
   7132.00  7.5053870E-01
   7132.33  7.7327615E-01
   7132.67  7.8877646E-01
   7133.00  7.9697787E-01
   7133.33  7.9715336E-01
   7133.67  7.9066992E-01
   7134.00  7.7825145E-01
   7134.33  7.6053069E-01
   7134.67  7.3960673E-01
   7135.00  7.1678141E-01
   7135.33  6.9309826E-01
   7135.67  6.6910094E-01
   7136.00  6.4462620E-01
   7136.33  6.1902309E-01
   7136.67  5.9200173E-01
   7137.00  5.6363425E-01
   7137.33  5.3462724E-01
   7137.67  5.0646999E-01
   7138.00  4.8061665E-01
   7138.33  4.5909591E-01
   7138.67  4.4247656E-01
   7139.00  4.3114746E-01
   7139.33  4.2567137E-01
   7139.67  4.2490323E-01
   7140.00  4.2824766E-01
   7140.33  4.3538763E-01
   7140.67  4.4522498E-01
   7141.00  4.5727684E-01
   7141.33  4.7133439E-01
   7141.67  4.8687274E-01
   7142.00  5.0370974E-01
   7142.33  5.2181708E-01
   7142.67  5.4087532E-01
   7143.00  5.6068745E-01
   7143.33  5.8100843E-01
   7143.67  6.0140827E-01
   7144.00  6.2152983E-01
   7144.33  6.4086301E-01
   7144.67  6.5910173E-01
   7145.00  6.7595437E-01
   7145.33  6.9094724E-01
   7145.67  7.0410636E-01
   7146.00  7.1534849E-01
   7146.33  7.2442036E-01
   7146.67  7.3163234E-01
   7147.00  7.3708370E-01
   7147.33  7.4070845E-01
   7147.67  7.4287319E-01
   7148.00  7.4373774E-01
   7148.33  7.4336224E-01
   7148.67  7.4208352E-01
   7149.00  7.4006634E-01
   7149.33  7.3742017E-01
   7149.67  7.3437639E-01
   7150.00  7.3105722E-01
   7150.33  7.2756775E-01
   7150.67  7.2403807E-01
   7151.00  7.2055522E-01
   7151.33  7.1721370E-01
   7151.67  7.1405744E-01
   7152.00  7.1113013E-01
   7152.33  7.0850808E-01
   7152.67  7.0618838E-01
   7153.00  7.0419125E-01
   7153.33  7.0257654E-01
   7153.67  7.0131098E-01
   7154.00  7.0039330E-01
   7154.33  6.9985231E-01
   7154.67  6.9962058E-01
   7155.00  6.9966261E-01
   7155.33  6.9994618E-01
   7155.67  7.0036691E-01
   7156.00  7.0084513E-01
   7156.33  7.0126929E-01
   7156.67  7.0152627E-01
   7157.00  7.0150597E-01
   7157.33  7.0102672E-01
   7157.67  7.0001244E-01
   7158.00  6.9836099E-01
   7158.33  6.9587250E-01
   7158.67  6.9255140E-01
   7159.00  6.8833934E-01
   7159.33  6.8307270E-01
   7159.67  6.7684502E-01
   7160.00  6.6965359E-01
   7160.33  6.6139576E-01
   7160.67  6.5222488E-01
   7161.00  6.4218503E-01
   7161.33  6.3124356E-01
   7161.67  6.1958289E-01
   7162.00  6.0728096E-01
   7162.33  5.9437010E-01
   7162.67  5.8102830E-01
   7163.00  5.6735794E-01
   7163.33  5.5345945E-01
   7163.67  5.3948589E-01
   7164.00  5.2554516E-01
   7164.33  5.1177354E-01
   7164.67  4.9825605E-01
   7165.00  4.8507089E-01
   7165.33  4.7234626E-01
   7165.67  4.6009279E-01
   7166.00  4.4835240E-01
   7166.33  4.3722953E-01
   7166.67  4.2667965E-01
   7167.00  4.1671645E-01
   7167.33  4.0742243E-01
   7167.67  3.9872439E-01
   7168.00  3.9061527E-01
   7168.33  3.8314627E-01
   7168.67  3.7621816E-01
   7169.00  3.6980570E-01
   7169.33  3.6393991E-01
   7169.67  3.5852675E-01
   7170.00  3.5353559E-01
   7170.33  3.4897937E-01
   7170.67  3.4477917E-01
   7171.00  3.4091918E-01
   7171.33  3.3745357E-01
   7171.67  3.3440917E-01
   7172.00  3.3190710E-01
