    FDMNES
    energy     <xanes>
   7097.00  5.0270255E-03
   7097.33  5.1394448E-03
   7097.67  5.2567376E-03
   7098.00  5.3792209E-03
   7098.33  5.5080009E-03
   7098.67  5.6428291E-03
   7099.00  5.7841328E-03
   7099.33  5.9333426E-03
   7099.67  6.0901981E-03
   7100.00  6.2552895E-03
   7100.33  6.4305123E-03
   7100.67  6.6156114E-03
   7101.00  6.8114263E-03
   7101.33  7.0205415E-03
   7101.67  7.2427462E-03
   7102.00  7.4792768E-03
   7102.33  7.7337812E-03
   7102.67  8.0061802E-03
   7103.00  8.2983721E-03
   7103.33  8.6157286E-03
   7103.67  8.9584996E-03
   7104.00  9.3297550E-03
   7104.33  9.7378344E-03
   7104.67  1.0183786E-02
   7105.00  1.0672912E-02
   7105.33  1.1219074E-02
   7105.67  1.1825321E-02
   7106.00  1.2501633E-02
   7106.33  1.3273274E-02
   7106.67  1.4148723E-02
   7107.00  1.5149156E-02
   7107.33  1.6327023E-02
   7107.67  1.7707856E-02
   7108.00  1.9345251E-02
   7108.33  2.1372113E-02
   7108.67  2.3881869E-02
   7109.00  2.7054619E-02
   7109.33  3.1360358E-02
   7109.67  3.7293577E-02
   7110.00  4.5823239E-02
   7110.33  5.9713556E-02
   7110.67  8.1935257E-02
   7111.00  1.1377541E-01
   7111.33  1.4770022E-01
   7111.67  1.7346296E-01
   7112.00  1.9431157E-01
   7112.33  2.2500025E-01
   7112.67  2.6252488E-01
   7113.00  2.9025158E-01
   7113.33  2.9869390E-01
   7113.67  3.1082523E-01
   7114.00  3.4042688E-01
   7114.33  3.7872474E-01
   7114.67  3.9949976E-01
   7115.00  3.9073076E-01
   7115.33  3.5648540E-01
   7115.67  3.1968004E-01
   7116.00  2.9180532E-01
   7116.33  2.7545627E-01
   7116.67  2.6271152E-01
   7117.00  2.4654748E-01
   7117.33  2.2431616E-01
   7117.67  2.0120176E-01
   7118.00  1.7958425E-01
   7118.33  1.6033415E-01
   7118.67  1.4461160E-01
   7119.00  1.3304687E-01
   7119.33  1.2562697E-01
   7119.67  1.2087011E-01
   7120.00  1.1782736E-01
   7120.33  1.1569438E-01
   7120.67  1.1399471E-01
   7121.00  1.1289324E-01
   7121.33  1.1308663E-01
   7121.67  1.1511701E-01
   7122.00  1.1955141E-01
   7122.33  1.2735667E-01
   7122.67  1.3855391E-01
   7123.00  1.5300519E-01
   7123.33  1.6976321E-01
   7123.67  1.8675251E-01
   7124.00  2.0334321E-01
   7124.33  2.2059518E-01
   7124.67  2.3977732E-01
   7125.00  2.6134167E-01
   7125.33  2.8522260E-01
   7125.67  3.1034347E-01
   7126.00  3.3590286E-01
   7126.33  3.6096790E-01
   7126.67  3.8494977E-01
   7127.00  4.0750927E-01
   7127.33  4.2800831E-01
   7127.67  4.4633761E-01
   7128.00  4.6260757E-01
   7128.33  4.7732509E-01
   7128.67  4.9169315E-01
   7129.00  5.0660556E-01
   7129.33  5.2307664E-01
   7129.67  5.4142097E-01
   7130.00  5.6175542E-01
   7130.33  5.8418320E-01
   7130.67  6.0805263E-01
   7131.00  6.3259804E-01
   7131.33  6.5619902E-01
   7131.67  6.7715257E-01
   7132.00  6.9430206E-01
   7132.33  7.0679725E-01
   7132.67  7.1589517E-01
   7133.00  7.2279680E-01
   7133.33  7.2915941E-01
   7133.67  7.3692608E-01
   7134.00  7.4781775E-01
   7134.33  7.6463692E-01
   7134.67  7.8890359E-01
   7135.00  8.2214353E-01
   7135.33  8.6566590E-01
   7135.67  9.1442201E-01
   7136.00  9.5990309E-01
   7136.33  9.8529128E-01
   7136.67  9.8170124E-01
   7137.00  9.4972559E-01
   7137.33  8.9849114E-01
   7137.67  8.4330763E-01
   7138.00  7.9168272E-01
   7138.33  7.4836346E-01
   7138.67  7.1302174E-01
   7139.00  6.8507368E-01
   7139.33  6.6426390E-01
   7139.67  6.4872042E-01
   7140.00  6.3759538E-01
   7140.33  6.3045254E-01
   7140.67  6.2607962E-01
   7141.00  6.2388953E-01
   7141.33  6.2345553E-01
   7141.67  6.2400259E-01
   7142.00  6.2504699E-01
   7142.33  6.2601407E-01
   7142.67  6.2634200E-01
   7143.00  6.2555529E-01
   7143.33  6.2296470E-01
   7143.67  6.1842667E-01
   7144.00  6.1182240E-01
   7144.33  6.0301709E-01
   7144.67  5.9259321E-01
   7145.00  5.8092886E-01
   7145.33  5.6840159E-01
   7145.67  5.5557815E-01
   7146.00  5.4282161E-01
   7146.33  5.3052789E-01
   7146.67  5.1889859E-01
   7147.00  5.0808402E-01
   7147.33  4.9831106E-01
   7147.67  4.8952279E-01
   7148.00  4.8173950E-01
   7148.33  4.7508446E-01
   7148.67  4.6940996E-01
   7149.00  4.6468439E-01
   7149.33  4.6097060E-01
   7149.67  4.5809436E-01
   7150.00  4.5599371E-01
   7150.33  4.5467329E-01
   7150.67  4.5395544E-01
   7151.00  4.5375651E-01
   7151.33  4.5402199E-01
   7151.67  4.5459197E-01
   7152.00  4.5538424E-01
   7152.33  4.5633409E-01
   7152.67  4.5735823E-01
   7153.00  4.5841635E-01
   7153.33  4.5948190E-01
   7153.67  4.6054548E-01
   7154.00  4.6161191E-01
   7154.33  4.6269930E-01
   7154.67  4.6382701E-01
   7155.00  4.6501448E-01
   7155.33  4.6629215E-01
   7155.67  4.6766584E-01
   7156.00  4.6914435E-01
   7156.33  4.7074591E-01
   7156.67  4.7245650E-01
   7157.00  4.7427280E-01
   7157.33  4.7619990E-01
   7157.67  4.7821526E-01
   7158.00  4.8030799E-01
   7158.33  4.8247115E-01
   7158.67  4.8467989E-01
   7159.00  4.8691791E-01
   7159.33  4.8916602E-01
   7159.67  4.9140169E-01
   7160.00  4.9360547E-01
   7160.33  4.9574742E-01
   7160.67  4.9781359E-01
   7161.00  4.9979023E-01
   7161.33  5.0165522E-01
   7161.67  5.0341477E-01
   7162.00  5.0506673E-01
   7162.33  5.0660245E-01
   7162.67  5.0804387E-01
   7163.00  5.0939915E-01
   7163.33  5.1066640E-01
   7163.67  5.1185877E-01
   7164.00  5.1297782E-01
   7164.33  5.1401763E-01
   7164.67  5.1498836E-01
   7165.00  5.1588930E-01
   7165.33  5.1670972E-01
   7165.67  5.1745766E-01
   7166.00  5.1813372E-01
   7166.33  5.1873070E-01
   7166.67  5.1925905E-01
   7167.00  5.1972020E-01
   7167.33  5.2010952E-01
   7167.67  5.2044232E-01
   7168.00  5.2071975E-01
   7168.33  5.2092251E-01
   7168.67  5.2104517E-01
   7169.00  5.2107598E-01
   7169.33  5.2098517E-01
   7169.67  5.2076805E-01
   7170.00  5.2041013E-01
   7170.33  5.1988080E-01
   7170.67  5.1919818E-01
   7171.00  5.1837533E-01
   7171.33  5.1744209E-01
   7171.67  5.1650153E-01
   7172.00  5.1568088E-01
