    FDMNES
    energy     <xanes>
   7097.00  4.0140063E-03
   7097.33  4.0920354E-03
   7097.67  4.1729385E-03
   7098.00  4.2568834E-03
   7098.33  4.3444917E-03
   7098.67  4.4355942E-03
   7099.00  4.5304153E-03
   7099.33  4.6297460E-03
   7099.67  4.7334097E-03
   7100.00  4.8417159E-03
   7100.33  4.9556997E-03
   7100.67  5.0751881E-03
   7101.00  5.2006237E-03
   7101.33  5.3334084E-03
   7101.67  5.4733990E-03
   7102.00  5.6212560E-03
   7102.33  5.7789616E-03
   7102.67  5.9464616E-03
   7103.00  6.1247953E-03
   7103.33  6.3169200E-03
   7103.67  6.5230112E-03
   7104.00  6.7448140E-03
   7104.33  6.9870529E-03
   7104.67  7.2504832E-03
   7105.00  7.5382876E-03
   7105.33  7.8587112E-03
   7105.67  8.2140448E-03
   7106.00  8.6107493E-03
   7106.33  9.0650096E-03
   7106.67  9.5836138E-03
   7107.00  1.0181726E-02
   7107.33  1.0896738E-02
   7107.67  1.1750991E-02
   7108.00  1.2788312E-02
   7108.33  1.4118447E-02
   7108.67  1.5833845E-02
   7109.00  1.8108965E-02
   7109.33  2.1413561E-02
   7109.67  2.6319320E-02
   7110.00  3.3960630E-02
   7110.33  4.7638255E-02
   7110.67  7.0546722E-02
   7111.00  1.0054725E-01
   7111.33  1.1587705E-01
   7111.67  1.1359327E-01
   7112.00  1.0951019E-01
   7112.33  1.0961955E-01
   7112.67  1.0639858E-01
   7113.00  1.0078523E-01
   7113.33  1.0347378E-01
   7113.67  1.0517278E-01
   7114.00  9.5550593E-02
   7114.33  7.9792235E-02
   7114.67  6.5835074E-02
   7115.00  5.4927660E-02
   7115.33  4.8143919E-02
   7115.67  4.4337286E-02
   7116.00  4.2521602E-02
   7116.33  4.1879964E-02
   7116.67  4.1628845E-02
   7117.00  4.1488629E-02
   7117.33  4.1517443E-02
   7117.67  4.1929139E-02
   7118.00  4.2841776E-02
   7118.33  4.4334621E-02
   7118.67  4.6365503E-02
   7119.00  4.9029158E-02
   7119.33  5.2652616E-02
   7119.67  5.7497284E-02
   7120.00  6.4049844E-02
   7120.33  7.3518403E-02
   7120.67  8.6957527E-02
   7121.00  1.0597217E-01
   7121.33  1.3307252E-01
   7121.67  1.6603321E-01
   7122.00  1.9969863E-01
   7122.33  2.2880473E-01
   7122.67  2.5495101E-01
   7123.00  2.7589864E-01
   7123.33  2.8399159E-01
   7123.67  2.8558452E-01
   7124.00  2.8992176E-01
   7124.33  3.0469984E-01
   7124.67  3.2988706E-01
   7125.00  3.6269602E-01
   7125.33  3.9759998E-01
   7125.67  4.2793871E-01
   7126.00  4.5006744E-01
   7126.33  4.6380025E-01
   7126.67  4.7511253E-01
   7127.00  4.8815780E-01
   7127.33  5.0639024E-01
   7127.67  5.3098752E-01
   7128.00  5.6244560E-01
   7128.33  6.0023082E-01
   7128.67  6.4147743E-01
   7129.00  6.8453007E-01
   7129.33  7.2808411E-01
   7129.67  7.7180748E-01
   7130.00  8.1629275E-01
   7130.33  8.6208302E-01
   7130.67  9.0743523E-01
   7131.00  9.4857865E-01
   7131.33  9.7786035E-01
   7131.67  9.9185777E-01
   7132.00  9.9082604E-01
   7132.33  9.7796430E-01
   7132.67  9.5910391E-01
   7133.00  9.3592275E-01
   7133.33  9.0861204E-01
   7133.67  8.7911065E-01
   7134.00  8.4944315E-01
   7134.33  8.2185739E-01
   7134.67  7.9702525E-01
   7135.00  7.7483359E-01
   7135.33  7.5492722E-01
   7135.67  7.3657999E-01
   7136.00  7.1968941E-01
   7136.33  7.0452552E-01
   7136.67  6.9096847E-01
   7137.00  6.7898917E-01
   7137.33  6.6863919E-01
   7137.67  6.5956232E-01
   7138.00  6.5161340E-01
   7138.33  6.4477533E-01
   7138.67  6.3880750E-01
   7139.00  6.3360736E-01
   7139.33  6.2910467E-01
   7139.67  6.2503735E-01
   7140.00  6.2123049E-01
   7140.33  6.1749687E-01
   7140.67  6.1366328E-01
   7141.00  6.0961727E-01
   7141.33  6.0521393E-01
   7141.67  6.0039020E-01
   7142.00  5.9509054E-01
   7142.33  5.8931518E-01
   7142.67  5.8333451E-01
   7143.00  5.7743276E-01
   7143.33  5.7199609E-01
   7143.67  5.6719973E-01
   7144.00  5.6309049E-01
   7144.33  5.5961320E-01
   7144.67  5.5645555E-01
   7145.00  5.5341224E-01
   7145.33  5.5034220E-01
   7145.67  5.4724790E-01
   7146.00  5.4420008E-01
   7146.33  5.4131992E-01
   7146.67  5.3866788E-01
   7147.00  5.3626854E-01
   7147.33  5.3413236E-01
   7147.67  5.3216438E-01
   7148.00  5.3028472E-01
   7148.33  5.2840111E-01
   7148.67  5.2641409E-01
   7149.00  5.2422032E-01
   7149.33  5.2164370E-01
   7149.67  5.1859057E-01
   7150.00  5.1495876E-01
   7150.33  5.1059197E-01
   7150.67  5.0555803E-01
   7151.00  4.9988656E-01
   7151.33  4.9356253E-01
   7151.67  4.8671192E-01
   7152.00  4.7936587E-01
   7152.33  4.7147243E-01
   7152.67  4.6308106E-01
   7153.00  4.5418713E-01
   7153.33  4.4473764E-01
   7153.67  4.3481778E-01
   7154.00  4.2445818E-01
   7154.33  4.1365626E-01
   7154.67  4.0252306E-01
   7155.00  3.9112959E-01
   7155.33  3.7956619E-01
   7155.67  3.6799160E-01
   7156.00  3.5654709E-01
   7156.33  3.4544968E-01
   7156.67  3.3484170E-01
   7157.00  3.2487042E-01
   7157.33  3.1578552E-01
   7157.67  3.0761140E-01
   7158.00  3.0042991E-01
   7158.33  2.9444501E-01
   7158.67  2.8957546E-01
   7159.00  2.8585607E-01
   7159.33  2.8346669E-01
   7159.67  2.8227759E-01
   7160.00  2.8228691E-01
   7160.33  2.8360777E-01
   7160.67  2.8602165E-01
   7161.00  2.8943950E-01
   7161.33  2.9383864E-01
   7161.67  2.9894933E-01
   7162.00  3.0462278E-01
   7162.33  3.1073978E-01
   7162.67  3.1709564E-01
   7163.00  3.2357054E-01
   7163.33  3.3004027E-01
   7163.67  3.3639648E-01
   7164.00  3.4255571E-01
   7164.33  3.4839777E-01
   7164.67  3.5388803E-01
   7165.00  3.5898029E-01
   7165.33  3.6358486E-01
   7165.67  3.6773963E-01
   7166.00  3.7144378E-01
   7166.33  3.7465350E-01
   7166.67  3.7744444E-01
   7167.00  3.7983971E-01
   7167.33  3.8182539E-01
   7167.67  3.8348210E-01
   7168.00  3.8484191E-01
   7168.33  3.8591162E-01
   7168.67  3.8676298E-01
   7169.00  3.8742928E-01
   7169.33  3.8792953E-01
   7169.67  3.8831731E-01
   7170.00  3.8862020E-01
   7170.33  3.8885972E-01
   7170.67  3.8906668E-01
   7171.00  3.8925653E-01
   7171.33  3.8943922E-01
   7171.67  3.8961580E-01
   7172.00  3.8977639E-01
