    FDMNES
    energy     <xanes>
   7097.00  5.0558011E-03
   7097.33  5.1779382E-03
   7097.67  5.3057416E-03
   7098.00  5.4395986E-03
   7098.33  5.5808268E-03
   7098.67  5.7291623E-03
   7099.00  5.8851321E-03
   7099.33  6.0504596E-03
   7099.67  6.2248729E-03
   7100.00  6.4091075E-03
   7100.33  6.6054737E-03
   7100.67  6.8137160E-03
   7101.00  7.0348910E-03
   7101.33  7.2721878E-03
   7101.67  7.5254206E-03
   7102.00  7.7961614E-03
   7102.33  8.0889678E-03
   7102.67  8.4038430E-03
   7103.00  8.7432249E-03
   7103.33  9.1139095E-03
   7103.67  9.5163562E-03
   7104.00  9.9545453E-03
   7104.33  1.0439160E-02
   7104.67  1.0971748E-02
   7105.00  1.1559243E-02
   7105.33  1.2219617E-02
   7105.67  1.2957113E-02
   7106.00  1.3784886E-02
   7106.33  1.4736021E-02
   7106.67  1.5822044E-02
   7107.00  1.7071006E-02
   7107.33  1.8552098E-02
   7107.67  2.0299537E-02
   7108.00  2.2384394E-02
   7108.33  2.4982461E-02
   7108.67  2.8217641E-02
   7109.00  3.2328007E-02
   7109.33  3.7934121E-02
   7109.67  4.5688326E-02
   7110.00  5.6866976E-02
   7110.33  7.5064440E-02
   7110.67  1.0362418E-01
   7111.00  1.4176089E-01
   7111.33  1.7794369E-01
   7111.67  2.1815521E-01
   7112.00  2.8226820E-01
   7112.33  3.6531748E-01
   7112.67  4.0951997E-01
   7113.00  4.1318273E-01
   7113.33  4.1917606E-01
   7113.67  4.4766806E-01
   7114.00  4.6638238E-01
   7114.33  4.3674075E-01
   7114.67  3.8661234E-01
   7115.00  3.3758586E-01
   7115.33  2.9955323E-01
   7115.67  2.7614972E-01
   7116.00  2.6903044E-01
   7116.33  2.7215783E-01
   7116.67  2.7004943E-01
   7117.00  2.5828103E-01
   7117.33  2.4214073E-01
   7117.67  2.2474887E-01
   7118.00  2.0703595E-01
   7118.33  1.9271320E-01
   7118.67  1.8333655E-01
   7119.00  1.7889527E-01
   7119.33  1.7849647E-01
   7119.67  1.7866463E-01
   7120.00  1.7649007E-01
   7120.33  1.7073100E-01
   7120.67  1.6295949E-01
   7121.00  1.5401949E-01
   7121.33  1.4527427E-01
   7121.67  1.3854688E-01
   7122.00  1.3483145E-01
   7122.33  1.3435665E-01
   7122.67  1.3585571E-01
   7123.00  1.3860053E-01
   7123.33  1.4218429E-01
   7123.67  1.4637546E-01
   7124.00  1.5133122E-01
   7124.33  1.5755880E-01
   7124.67  1.6531101E-01
   7125.00  1.7507552E-01
   7125.33  1.8833686E-01
   7125.67  2.0636651E-01
   7126.00  2.3065025E-01
   7126.33  2.6258928E-01
   7126.67  2.9722046E-01
   7127.00  3.2462172E-01
   7127.33  3.3160218E-01
   7127.67  3.2468007E-01
   7128.00  3.1469142E-01
   7128.33  3.0941030E-01
   7128.67  3.0933632E-01
   7129.00  3.1372452E-01
   7129.33  3.2250910E-01
   7129.67  3.3548215E-01
   7130.00  3.5335940E-01
   7130.33  3.7774371E-01
   7130.67  4.0832693E-01
   7131.00  4.4494907E-01
   7131.33  4.8766339E-01
   7131.67  5.3490689E-01
   7132.00  5.8579270E-01
   7132.33  6.3943386E-01
   7132.67  6.9413046E-01
   7133.00  7.4855063E-01
   7133.33  8.0076386E-01
   7133.67  8.4919908E-01
   7134.00  8.9219535E-01
   7134.33  9.2668397E-01
   7134.67  9.5123791E-01
   7135.00  9.6378274E-01
   7135.33  9.6072380E-01
   7135.67  9.4332784E-01
   7136.00  9.1268205E-01
   7136.33  8.7028570E-01
   7136.67  8.2117615E-01
   7137.00  7.6863112E-01
   7137.33  7.1595130E-01
   7137.67  6.6565058E-01
   7138.00  6.1921375E-01
   7138.33  5.7836825E-01
   7138.67  5.4310839E-01
   7139.00  5.1367677E-01
   7139.33  4.9081211E-01
   7139.67  4.7353581E-01
   7140.00  4.6147055E-01
   7140.33  4.5465074E-01
   7140.67  4.5192703E-01
   7141.00  4.5285172E-01
   7141.33  4.5734861E-01
   7141.67  4.6456413E-01
   7142.00  4.7408701E-01
   7142.33  4.8562355E-01
   7142.67  4.9841269E-01
   7143.00  5.1201343E-01
   7143.33  5.2603270E-01
   7143.67  5.4010516E-01
   7144.00  5.5406800E-01
   7144.33  5.6782442E-01
   7144.67  5.8139636E-01
   7145.00  5.9479111E-01
   7145.33  6.0793568E-01
   7145.67  6.2068974E-01
   7146.00  6.3278894E-01
   7146.33  6.4367861E-01
   7146.67  6.5302745E-01
   7147.00  6.6048371E-01
   7147.33  6.6552407E-01
   7147.67  6.6836975E-01
   7148.00  6.6915135E-01
   7148.33  6.6796568E-01
   7148.67  6.6542426E-01
   7149.00  6.6186213E-01
   7149.33  6.5756058E-01
   7149.67  6.5291634E-01
   7150.00  6.4814998E-01
   7150.33  6.4346947E-01
   7150.67  6.3900610E-01
   7151.00  6.3484091E-01
   7151.33  6.3107676E-01
   7151.67  6.2769353E-01
   7152.00  6.2468505E-01
   7152.33  6.2206649E-01
   7152.67  6.1975696E-01
   7153.00  6.1772508E-01
   7153.33  6.1597372E-01
   7153.67  6.1445630E-01
   7154.00  6.1317005E-01
   7154.33  6.1214879E-01
   7154.67  6.1136870E-01
   7155.00  6.1083000E-01
   7155.33  6.1055177E-01
   7155.67  6.1048300E-01
   7156.00  6.1059575E-01
   7156.33  6.1086653E-01
   7156.67  6.1123088E-01
   7157.00  6.1164743E-01
   7157.33  6.1207158E-01
   7157.67  6.1246223E-01
   7158.00  6.1278955E-01
   7158.33  6.1301173E-01
   7158.67  6.1311241E-01
   7159.00  6.1306627E-01
   7159.33  6.1281840E-01
   7159.67  6.1235703E-01
   7160.00  6.1165066E-01
   7160.33  6.1062316E-01
   7160.67  6.0927004E-01
   7161.00  6.0756114E-01
   7161.33  6.0542178E-01
   7161.67  6.0288419E-01
   7162.00  5.9994436E-01
   7162.33  5.9655703E-01
   7162.67  5.9278419E-01
   7163.00  5.8864082E-01
   7163.33  5.8410298E-01
   7163.67  5.7923537E-01
   7164.00  5.7405573E-01
   7164.33  5.6854678E-01
   7164.67  5.6276378E-01
   7165.00  5.5672333E-01
   7165.33  5.5041643E-01
   7165.67  5.4389641E-01
   7166.00  5.3718611E-01
   7166.33  5.3029235E-01
   7166.67  5.2326256E-01
   7167.00  5.1611967E-01
   7167.33  5.0887778E-01
   7167.67  5.0157107E-01
   7168.00  4.9421788E-01
   7168.33  4.8683788E-01
   7168.67  4.7946025E-01
   7169.00  4.7210566E-01
   7169.33  4.6480013E-01
   7169.67  4.5756077E-01
   7170.00  4.5041355E-01
   7170.33  4.4341597E-01
   7170.67  4.3661144E-01
   7171.00  4.3007800E-01
   7171.33  4.2401450E-01
   7171.67  4.1862344E-01
   7172.00  4.1422667E-01
