    FDMNES
    energy     <xanes>
   7097.00  4.6085878E-03
   7097.33  4.7073200E-03
   7097.67  4.8100832E-03
   7098.00  4.9171241E-03
   7098.33  5.0293322E-03
   7098.67  5.1464809E-03
   7099.00  5.2688979E-03
   7099.33  5.3977155E-03
   7099.67  5.5326911E-03
   7100.00  5.6742696E-03
   7100.33  5.8239252E-03
   7100.67  5.9814083E-03
   7101.00  6.1473397E-03
   7101.33  6.3236900E-03
   7101.67  6.5102252E-03
   7102.00  6.7078400E-03
   7102.33  6.9192537E-03
   7102.67  7.1442989E-03
   7103.00  7.3843172E-03
   7103.33  7.6432103E-03
   7103.67  7.9209949E-03
   7104.00  8.2197829E-03
   7104.33  8.5454556E-03
   7104.67  8.8984914E-03
   7105.00  9.2824290E-03
   7105.33  9.7067239E-03
   7105.67  1.0173020E-02
   7106.00  1.0687763E-02
   7106.33  1.1267552E-02
   7106.67  1.1917193E-02
   7107.00  1.2649896E-02
   7107.33  1.3498763E-02
   7107.67  1.4478480E-02
   7108.00  1.5621403E-02
   7108.33  1.7008256E-02
   7108.67  1.8693060E-02
   7109.00  2.0782127E-02
   7109.33  2.3553885E-02
   7109.67  2.7297818E-02
   7110.00  3.2586060E-02
   7110.33  4.1054638E-02
   7110.67  5.4412179E-02
   7111.00  7.3050185E-02
   7111.33  9.1157281E-02
   7111.67  1.0273254E-01
   7112.00  1.1049241E-01
   7112.33  1.2309617E-01
   7112.67  1.3770358E-01
   7113.00  1.6054928E-01
   7113.33  2.0036976E-01
   7113.67  2.4534179E-01
   7114.00  2.8267473E-01
   7114.33  3.1446943E-01
   7114.67  3.6277847E-01
   7115.00  4.2077354E-01
   7115.33  4.1941743E-01
   7115.67  3.4165799E-01
   7116.00  2.5337031E-01
   7116.33  2.0457772E-01
   7116.67  1.8955312E-01
   7117.00  2.0059806E-01
   7117.33  2.3088865E-01
   7117.67  2.6473800E-01
   7118.00  2.8617411E-01
   7118.33  2.8020646E-01
   7118.67  2.6064546E-01
   7119.00  2.3955908E-01
   7119.33  2.2064586E-01
   7119.67  2.0484305E-01
   7120.00  1.9198116E-01
   7120.33  1.8068906E-01
   7120.67  1.7018870E-01
   7121.00  1.6076749E-01
   7121.33  1.5333351E-01
   7121.67  1.4828131E-01
   7122.00  1.4570829E-01
   7122.33  1.4530432E-01
   7122.67  1.4600399E-01
   7123.00  1.4730500E-01
   7123.33  1.4918444E-01
   7123.67  1.5197600E-01
   7124.00  1.5611426E-01
   7124.33  1.6223750E-01
   7124.67  1.7073605E-01
   7125.00  1.8229929E-01
   7125.33  1.9778656E-01
   7125.67  2.1621086E-01
   7126.00  2.3603008E-01
   7126.33  2.5438158E-01
   7126.67  2.6958224E-01
   7127.00  2.8216068E-01
   7127.33  2.9451203E-01
   7127.67  3.0911002E-01
   7128.00  3.2711996E-01
   7128.33  3.4903803E-01
   7128.67  3.7348233E-01
   7129.00  3.9912785E-01
   7129.33  4.2410222E-01
   7129.67  4.4732163E-01
   7130.00  4.6913018E-01
   7130.33  4.9144225E-01
   7130.67  5.1621077E-01
   7131.00  5.4425056E-01
   7131.33  5.7563413E-01
   7131.67  6.0879622E-01
   7132.00  6.4247059E-01
   7132.33  6.7571742E-01
   7132.67  7.0873151E-01
   7133.00  7.4188897E-01
   7133.33  7.7495215E-01
   7133.67  8.0659266E-01
   7134.00  8.3508585E-01
   7134.33  8.5809994E-01
   7134.67  8.7565611E-01
   7135.00  8.8812560E-01
   7135.33  8.9596662E-01
   7135.67  9.0088249E-01
   7136.00  9.0382581E-01
   7136.33  9.0536942E-01
   7136.67  9.0569088E-01
   7137.00  9.0406379E-01
   7137.33  8.9825401E-01
   7137.67  8.8632011E-01
   7138.00  8.6638176E-01
   7138.33  8.3646096E-01
   7138.67  7.9893384E-01
   7139.00  7.5641087E-01
   7139.33  7.1252471E-01
   7139.67  6.7086466E-01
   7140.00  6.3354992E-01
   7140.33  6.0264677E-01
   7140.67  5.7776339E-01
   7141.00  5.5857062E-01
   7141.33  5.4486919E-01
   7141.67  5.3504052E-01
   7142.00  5.2822313E-01
   7142.33  5.2380844E-01
   7142.67  5.2085113E-01
   7143.00  5.1891399E-01
   7143.33  5.1770050E-01
   7143.67  5.1689875E-01
   7144.00  5.1640953E-01
   7144.33  5.1622081E-01
   7144.67  5.1628013E-01
   7145.00  5.1655739E-01
   7145.33  5.1698698E-01
   7145.67  5.1740127E-01
   7146.00  5.1761688E-01
   7146.33  5.1732374E-01
   7146.67  5.1633208E-01
   7147.00  5.1449042E-01
   7147.33  5.1164748E-01
   7147.67  5.0806649E-01
   7148.00  5.0403188E-01
   7148.33  5.0000077E-01
   7148.67  4.9646602E-01
   7149.00  4.9379701E-01
   7149.33  4.9243323E-01
   7149.67  4.9234722E-01
   7150.00  4.9351257E-01
   7150.33  4.9593315E-01
   7150.67  4.9924634E-01
   7151.00  5.0323278E-01
   7151.33  5.0771108E-01
   7151.67  5.1243480E-01
   7152.00  5.1728153E-01
   7152.33  5.2216160E-01
   7152.67  5.2702505E-01
   7153.00  5.3186209E-01
   7153.33  5.3667962E-01
   7153.67  5.4150162E-01
   7154.00  5.4635658E-01
   7154.33  5.5128581E-01
   7154.67  5.5630339E-01
   7155.00  5.6141589E-01
   7155.33  5.6662568E-01
   7155.67  5.7189566E-01
   7156.00  5.7718951E-01
   7156.33  5.8244652E-01
   7156.67  5.8760350E-01
   7157.00  5.9259839E-01
   7157.33  5.9732736E-01
   7157.67  6.0174490E-01
   7158.00  6.0578717E-01
   7158.33  6.0932722E-01
   7158.67  6.1235599E-01
   7159.00  6.1482531E-01
   7159.33  6.1661534E-01
   7159.67  6.1777169E-01
   7160.00  6.1828089E-01
   7160.33  6.1806022E-01
   7160.67  6.1720326E-01
   7161.00  6.1573052E-01
   7161.33  6.1360171E-01
   7161.67  6.1092846E-01
   7162.00  6.0774624E-01
   7162.33  6.0403830E-01
   7162.67  5.9990351E-01
   7163.00  5.9537470E-01
   7163.33  5.9044233E-01
   7163.67  5.8518416E-01
   7164.00  5.7962604E-01
   7164.33  5.7375841E-01
   7164.67  5.6763908E-01
   7165.00  5.6128949E-01
   7165.33  5.5471008E-01
   7165.67  5.4795395E-01
   7166.00  5.4104717E-01
   7166.33  5.3400853E-01
   7166.67  5.2689007E-01
   7167.00  5.1972826E-01
   7167.33  5.1257078E-01
   7167.67  5.0546756E-01
   7168.00  4.9846325E-01
   7168.33  4.9162803E-01
   7168.67  4.8499043E-01
   7169.00  4.7858539E-01
   7169.33  4.7247923E-01
   7169.67  4.6666456E-01
   7170.00  4.6115851E-01
   7170.33  4.5601694E-01
   7170.67  4.5121530E-01
   7171.00  4.4677559E-01
   7171.33  4.4280078E-01
   7171.67  4.3934706E-01
   7172.00  4.3656177E-01
