    FDMNES
    energy     <xanes>
   7097.00  5.1507679E-03
   7097.33  5.2690608E-03
   7097.67  5.3925869E-03
   7098.00  5.5216905E-03
   7098.33  5.6575657E-03
   7098.67  5.7999506E-03
   7099.00  5.9493096E-03
   7099.33  6.1071900E-03
   7099.67  6.2733175E-03
   7100.00  6.4483345E-03
   7100.33  6.6342949E-03
   7100.67  6.8309307E-03
   7101.00  7.0391562E-03
   7101.33  7.2617766E-03
   7101.67  7.4985726E-03
   7102.00  7.7508911E-03
   7102.33  8.0226963E-03
   7102.67  8.3139124E-03
   7103.00  8.6266076E-03
   7103.33  8.9666232E-03
   7103.67  9.3342407E-03
   7104.00  9.7328029E-03
   7104.33  1.0171379E-02
   7104.67  1.0651116E-02
   7105.00  1.1177777E-02
   7105.33  1.1766429E-02
   7105.67  1.2420374E-02
   7106.00  1.3150439E-02
   7106.33  1.3984029E-02
   7106.67  1.4930286E-02
   7107.00  1.6012099E-02
   7107.33  1.7286161E-02
   7107.67  1.8779854E-02
   7108.00  2.0550803E-02
   7108.33  2.2741837E-02
   7108.67  2.5452537E-02
   7109.00  2.8875111E-02
   7109.33  3.3510568E-02
   7109.67  3.9882487E-02
   7110.00  4.9015578E-02
   7110.33  6.3807048E-02
   7110.67  8.7151001E-02
   7111.00  1.1971168E-01
   7111.33  1.5594824E-01
   7111.67  1.9131944E-01
   7112.00  2.2523862E-01
   7112.33  2.5511317E-01
   7112.67  2.7242912E-01
   7113.00  2.8675626E-01
   7113.33  3.2004688E-01
   7113.67  3.6501503E-01
   7114.00  4.1075348E-01
   7114.33  4.3924029E-01
   7114.67  4.3814957E-01
   7115.00  4.0891196E-01
   7115.33  3.6781834E-01
   7115.67  3.3322756E-01
   7116.00  3.1095024E-01
   7116.33  3.0204270E-01
   7116.67  2.9943236E-01
   7117.00  2.9438954E-01
   7117.33  2.7590484E-01
   7117.67  2.4660877E-01
   7118.00  2.1478984E-01
   7118.33  1.8850113E-01
   7118.67  1.6898083E-01
   7119.00  1.5537774E-01
   7119.33  1.4641447E-01
   7119.67  1.3980346E-01
   7120.00  1.3455397E-01
   7120.33  1.3040188E-01
   7120.67  1.2712800E-01
   7121.00  1.2459483E-01
   7121.33  1.2292469E-01
   7121.67  1.2250062E-01
   7122.00  1.2385287E-01
   7122.33  1.2749127E-01
   7122.67  1.3304560E-01
   7123.00  1.4045280E-01
   7123.33  1.5020081E-01
   7123.67  1.6250812E-01
   7124.00  1.7778149E-01
   7124.33  1.9651393E-01
   7124.67  2.1762212E-01
   7125.00  2.3979991E-01
   7125.33  2.6156863E-01
   7125.67  2.8302139E-01
   7126.00  3.0524121E-01
   7126.33  3.2927420E-01
   7126.67  3.5465778E-01
   7127.00  3.8055718E-01
   7127.33  4.0542360E-01
   7127.67  4.2792855E-01
   7128.00  4.4753879E-01
   7128.33  4.6456420E-01
   7128.67  4.8091250E-01
   7129.00  4.9820780E-01
   7129.33  5.1826913E-01
   7129.67  5.4166185E-01
   7130.00  5.6858958E-01
   7130.33  5.9914034E-01
   7130.67  6.3214809E-01
   7131.00  6.6671112E-01
   7131.33  7.0169085E-01
   7131.67  7.3591066E-01
   7132.00  7.6862460E-01
   7132.33  7.9919319E-01
   7132.67  8.2809883E-01
   7133.00  8.5608516E-01
   7133.33  8.8447606E-01
   7133.67  9.1414895E-01
   7134.00  9.4419807E-01
   7134.33  9.6861112E-01
   7134.67  9.7845562E-01
   7135.00  9.6748828E-01
   7135.33  9.3496964E-01
   7135.67  8.9170244E-01
   7136.00  8.4458655E-01
   7136.33  7.9847594E-01
   7136.67  7.5522992E-01
   7137.00  7.1543362E-01
   7137.33  6.7977747E-01
   7137.67  6.4791098E-01
   7138.00  6.1991590E-01
   7138.33  5.9633904E-01
   7138.67  5.7665084E-01
   7139.00  5.6071597E-01
   7139.33  5.4869309E-01
   7139.67  5.3977705E-01
   7140.00  5.3361936E-01
   7140.33  5.3012891E-01
   7140.67  5.2866738E-01
   7141.00  5.2897571E-01
   7141.33  5.3095260E-01
   7141.67  5.3410294E-01
   7142.00  5.3810838E-01
   7142.33  5.4255452E-01
   7142.67  5.4682786E-01
   7143.00  5.5039354E-01
   7143.33  5.5248406E-01
   7143.67  5.5278727E-01
   7144.00  5.5107287E-01
   7144.33  5.4707076E-01
   7144.67  5.4127167E-01
   7145.00  5.3402566E-01
   7145.33  5.2570550E-01
   7145.67  5.1693227E-01
   7146.00  5.0809834E-01
   7146.33  4.9961234E-01
   7146.67  4.9167568E-01
   7147.00  4.8440982E-01
   7147.33  4.7800477E-01
   7147.67  4.7242917E-01
   7148.00  4.6772055E-01
   7148.33  4.6401943E-01
   7148.67  4.6123025E-01
   7149.00  4.5935880E-01
   7149.33  4.5851611E-01
   7149.67  4.5856992E-01
   7150.00  4.5948910E-01
   7150.33  4.6131353E-01
   7150.67  4.6384874E-01
   7151.00  4.6699432E-01
   7151.33  4.7068065E-01
   7151.67  4.7470808E-01
   7152.00  4.7895600E-01
   7152.33  4.8330464E-01
   7152.67  4.8763113E-01
   7153.00  4.9185992E-01
   7153.33  4.9591002E-01
   7153.67  4.9976885E-01
   7154.00  5.0342880E-01
   7154.33  5.0687694E-01
   7154.67  5.1016513E-01
   7155.00  5.1332855E-01
   7155.33  5.1640613E-01
   7155.67  5.1945807E-01
   7156.00  5.2252570E-01
   7156.33  5.2565808E-01
   7156.67  5.2887949E-01
   7157.00  5.3220653E-01
   7157.33  5.3565917E-01
   7157.67  5.3921422E-01
   7158.00  5.4285138E-01
   7158.33  5.4653899E-01
   7158.67  5.5022100E-01
   7159.00  5.5384560E-01
   7159.33  5.5733086E-01
   7159.67  5.6062397E-01
   7160.00  5.6366851E-01
   7160.33  5.6636699E-01
   7160.67  5.6871156E-01
   7161.00  5.7067571E-01
   7161.33  5.7219625E-01
   7161.67  5.7332662E-01
   7162.00  5.7408527E-01
   7162.33  5.7446658E-01
   7162.67  5.7455776E-01
   7163.00  5.7440002E-01
   7163.33  5.7400979E-01
   7163.67  5.7344733E-01
   7164.00  5.7274033E-01
   7164.33  5.7189817E-01
   7164.67  5.7094782E-01
   7165.00  5.6988961E-01
   7165.33  5.6870063E-01
   7165.67  5.6738072E-01
   7166.00  5.6591347E-01
   7166.33  5.6425621E-01
   7166.67  5.6240898E-01
   7167.00  5.6035492E-01
   7167.33  5.5804722E-01
   7167.67  5.5549836E-01
   7168.00  5.5269888E-01
   7168.33  5.4961081E-01
   7168.67  5.4626800E-01
   7169.00  5.4268020E-01
   7169.33  5.3883584E-01
   7169.67  5.3478662E-01
   7170.00  5.3056111E-01
   7170.33  5.2618871E-01
   7170.67  5.2175028E-01
   7171.00  5.1732507E-01
   7171.33  5.1307402E-01
   7171.67  5.0921465E-01
   7172.00  5.0604139E-01
