    FDMNES
    energy     <xanes>
   7097.00  5.0455483E-03
   7097.33  5.1652907E-03
   7097.67  5.2903969E-03
   7098.00  5.4212192E-03
   7098.33  5.5589801E-03
   7098.67  5.7034094E-03
   7099.00  5.8549807E-03
   7099.33  6.0152749E-03
   7099.67  6.1840068E-03
   7100.00  6.3618285E-03
   7100.33  6.5508321E-03
   7100.67  6.7507343E-03
   7101.00  6.9624584E-03
   7101.33  7.1888490E-03
   7101.67  7.4296640E-03
   7102.00  7.6862545E-03
   7102.33  7.9626169E-03
   7102.67  8.2586383E-03
   7103.00  8.5763762E-03
   7103.33  8.9216750E-03
   7103.67  9.2947510E-03
   7104.00  9.6988972E-03
   7104.33  1.0143105E-02
   7104.67  1.0628393E-02
   7105.00  1.1160383E-02
   7105.33  1.1753853E-02
   7105.67  1.2411845E-02
   7106.00  1.3144817E-02
   7106.33  1.3979386E-02
   7106.67  1.4924134E-02
   7107.00  1.6001084E-02
   7107.33  1.7265057E-02
   7107.67  1.8742400E-02
   7108.00  2.0489167E-02
   7108.33  2.2645295E-02
   7108.67  2.5311205E-02
   7109.00  2.8682334E-02
   7109.33  3.3276933E-02
   7109.67  3.9669770E-02
   7110.00  4.9003507E-02
   7110.33  6.4564410E-02
   7110.67  8.9467734E-02
   7111.00  1.2208113E-01
   7111.33  1.4396309E-01
   7111.67  1.4889734E-01
   7112.00  1.4836531E-01
   7112.33  1.6367100E-01
   7112.67  1.9840446E-01
   7113.00  2.4506476E-01
   7113.33  2.9955685E-01
   7113.67  3.7160673E-01
   7114.00  4.6321794E-01
   7114.33  5.7462673E-01
   7114.67  6.8669917E-01
   7115.00  7.3960729E-01
   7115.33  6.6644035E-01
   7115.67  5.3843624E-01
   7116.00  4.2025709E-01
   7116.33  3.3772860E-01
   7116.67  2.8115650E-01
   7117.00  2.4334597E-01
   7117.33  2.2004405E-01
   7117.67  2.0578795E-01
   7118.00  1.9735615E-01
   7118.33  1.9034957E-01
   7118.67  1.8107225E-01
   7119.00  1.6907446E-01
   7119.33  1.5574976E-01
   7119.67  1.4325366E-01
   7120.00  1.3280693E-01
   7120.33  1.2514709E-01
   7120.67  1.1955721E-01
   7121.00  1.1542718E-01
   7121.33  1.1236530E-01
   7121.67  1.1022533E-01
   7122.00  1.0929223E-01
   7122.33  1.1005489E-01
   7122.67  1.1217371E-01
   7123.00  1.1528399E-01
   7123.33  1.1920714E-01
   7123.67  1.2381148E-01
   7124.00  1.2914263E-01
   7124.33  1.3535352E-01
   7124.67  1.4239249E-01
   7125.00  1.5032701E-01
   7125.33  1.5942732E-01
   7125.67  1.6976517E-01
   7126.00  1.8153803E-01
   7126.33  1.9518005E-01
   7126.67  2.1065796E-01
   7127.00  2.2803185E-01
   7127.33  2.4744188E-01
   7127.67  2.6833398E-01
   7128.00  2.9023976E-01
   7128.33  3.1269311E-01
   7128.67  3.3535343E-01
   7129.00  3.5833956E-01
   7129.33  3.8246289E-01
   7129.67  4.0883337E-01
   7130.00  4.3886807E-01
   7130.33  4.7527049E-01
   7130.67  5.1933844E-01
   7131.00  5.7202859E-01
   7131.33  6.3319921E-01
   7131.67  6.9750205E-01
   7132.00  7.5898570E-01
   7132.33  8.1051757E-01
   7132.67  8.5218868E-01
   7133.00  8.8731551E-01
   7133.33  9.2120010E-01
   7133.67  9.5797874E-01
   7134.00  9.9863192E-01
   7134.33  1.0409158E+00
   7134.67  1.0783133E+00
   7135.00  1.1032865E+00
   7135.33  1.1052218E+00
   7135.67  1.0833194E+00
   7136.00  1.0398629E+00
   7136.33  9.7987565E-01
   7136.67  9.1302050E-01
   7137.00  8.4475613E-01
   7137.33  7.7970155E-01
   7137.67  7.1992934E-01
   7138.00  6.6657939E-01
   7138.33  6.2127419E-01
   7138.67  5.8352601E-01
   7139.00  5.5355619E-01
   7139.33  5.3247289E-01
   7139.67  5.1914665E-01
   7140.00  5.1307420E-01
   7140.33  5.1373547E-01
   7140.67  5.1828033E-01
   7141.00  5.2442325E-01
   7141.33  5.2948840E-01
   7141.67  5.3200880E-01
   7142.00  5.3176680E-01
   7142.33  5.2936972E-01
   7142.67  5.2643507E-01
   7143.00  5.2409080E-01
   7143.33  5.2347318E-01
   7143.67  5.2485415E-01
   7144.00  5.2826611E-01
   7144.33  5.3358939E-01
   7144.67  5.3995400E-01
   7145.00  5.4661428E-01
   7145.33  5.5254593E-01
   7145.67  5.5698531E-01
   7146.00  5.5942355E-01
   7146.33  5.5934194E-01
   7146.67  5.5716541E-01
   7147.00  5.5324429E-01
   7147.33  5.4794357E-01
   7147.67  5.4194670E-01
   7148.00  5.3567076E-01
   7148.33  5.2953503E-01
   7148.67  5.2382458E-01
   7149.00  5.1871871E-01
   7149.33  5.1444085E-01
   7149.67  5.1096506E-01
   7150.00  5.0830933E-01
   7150.33  5.0656656E-01
   7150.67  5.0561093E-01
   7151.00  5.0540854E-01
   7151.33  5.0599302E-01
   7151.67  5.0721584E-01
   7152.00  5.0901962E-01
   7152.33  5.1140361E-01
   7152.67  5.1424402E-01
   7153.00  5.1749238E-01
   7153.33  5.2114033E-01
   7153.67  5.2509769E-01
   7154.00  5.2933339E-01
   7154.33  5.3385549E-01
   7154.67  5.3862018E-01
   7155.00  5.4362284E-01
   7155.33  5.4889179E-01
   7155.67  5.5439363E-01
   7156.00  5.6011509E-01
   7156.33  5.6604546E-01
   7156.67  5.7210489E-01
   7157.00  5.7822825E-01
   7157.33  5.8432345E-01
   7157.67  5.9029756E-01
   7158.00  5.9606732E-01
   7158.33  6.0150240E-01
   7158.67  6.0655344E-01
   7159.00  6.1115233E-01
   7159.33  6.1516184E-01
   7159.67  6.1858414E-01
   7160.00  6.2137275E-01
   7160.33  6.2339592E-01
   7160.67  6.2469781E-01
   7161.00  6.2524835E-01
   7161.33  6.2492108E-01
   7161.67  6.2379259E-01
   7162.00  6.2185271E-01
   7162.33  6.1899446E-01
   7162.67  6.1532192E-01
   7163.00  6.1084413E-01
   7163.33  6.0547949E-01
   7163.67  5.9935230E-01
   7164.00  5.9249703E-01
   7164.33  5.8488095E-01
   7164.67  5.7665027E-01
   7165.00  5.6786548E-01
   7165.33  5.5854448E-01
   7165.67  5.4883032E-01
   7166.00  5.3879992E-01
   7166.33  5.2851922E-01
   7166.67  5.1811264E-01
   7167.00  5.0766508E-01
   7167.33  4.9728121E-01
   7167.67  4.8704694E-01
   7168.00  4.7703747E-01
   7168.33  4.6737234E-01
   7168.67  4.5808724E-01
   7169.00  4.4923803E-01
   7169.33  4.4094141E-01
   7169.67  4.3318307E-01
   7170.00  4.2599643E-01
   7170.33  4.1948396E-01
   7170.67  4.1359099E-01
   7171.00  4.0833540E-01
   7171.33  4.0383088E-01
   7171.67  4.0004908E-01
   7172.00  3.9706322E-01
