    FDMNES
    energy     <xanes>
   7097.00  4.5012776E-03
   7097.33  4.5987796E-03
   7097.67  4.7004768E-03
   7098.00  4.8066532E-03
   7098.33  4.9182813E-03
   7098.67  5.0351657E-03
   7099.00  5.1576978E-03
   7099.33  5.2871579E-03
   7099.67  5.4233531E-03
   7100.00  5.5668399E-03
   7100.33  5.7193546E-03
   7100.67  5.8807333E-03
   7101.00  6.0517952E-03
   7101.33  6.2349808E-03
   7101.67  6.4302132E-03
   7102.00  6.6387493E-03
   7102.33  6.8641701E-03
   7102.67  7.1066142E-03
   7103.00  7.3681103E-03
   7103.33  7.6541933E-03
   7103.67  7.9655152E-03
   7104.00  8.3055562E-03
   7104.33  8.6834420E-03
   7104.67  9.1010681E-03
   7105.00  9.5648765E-03
   7105.33  1.0091194E-02
   7105.67  1.0685109E-02
   7106.00  1.1359775E-02
   7106.33  1.2147687E-02
   7106.67  1.3063006E-02
   7107.00  1.4136359E-02
   7107.33  1.5442565E-02
   7107.67  1.7025901E-02
   7108.00  1.8972321E-02
   7108.33  2.1494751E-02
   7108.67  2.4764948E-02
   7109.00  2.9103937E-02
   7109.33  3.5358199E-02
   7109.67  4.4492937E-02
   7110.00  5.8390085E-02
   7110.33  8.2448970E-02
   7110.67  1.2247803E-01
   7111.00  1.8087073E-01
   7111.33  2.5035940E-01
   7111.67  3.1555969E-01
   7112.00  3.3819227E-01
   7112.33  2.9729750E-01
   7112.67  2.3588567E-01
   7113.00  1.8190033E-01
   7113.33  1.4715249E-01
   7113.67  1.2191859E-01
   7114.00  1.0207263E-01
   7114.33  8.5349624E-02
   7114.67  7.2056870E-02
   7115.00  6.2177653E-02
   7115.33  5.4483233E-02
   7115.67  4.8210279E-02
   7116.00  4.3488214E-02
   7116.33  4.0348535E-02
   7116.67  3.8332049E-02
   7117.00  3.7241493E-02
   7117.33  3.6996272E-02
   7117.67  3.7320988E-02
   7118.00  3.8051082E-02
   7118.33  3.9151137E-02
   7118.67  4.0736528E-02
   7119.00  4.3016369E-02
   7119.33  4.6178767E-02
   7119.67  5.0005196E-02
   7120.00  5.4296153E-02
   7120.33  5.8895522E-02
   7120.67  6.3907782E-02
   7121.00  6.9806042E-02
   7121.33  7.7533406E-02
   7121.67  8.7589952E-02
   7122.00  1.0044387E-01
   7122.33  1.1660702E-01
   7122.67  1.3511434E-01
   7123.00  1.5529719E-01
   7123.33  1.7783547E-01
   7123.67  2.0371308E-01
   7124.00  2.3335328E-01
   7124.33  2.6668887E-01
   7124.67  3.0245489E-01
   7125.00  3.3995360E-01
   7125.33  3.7884300E-01
   7125.67  4.1903152E-01
   7126.00  4.6021289E-01
   7126.33  4.9987801E-01
   7126.67  5.3734783E-01
   7127.00  5.7658510E-01
   7127.33  6.2383113E-01
   7127.67  6.8115388E-01
   7128.00  7.4974204E-01
   7128.33  8.2574562E-01
   7128.67  8.9312831E-01
   7129.00  9.3876757E-01
   7129.33  9.5891156E-01
   7129.67  9.6468951E-01
   7130.00  9.5989618E-01
   7130.33  9.4291365E-01
   7130.67  9.1612797E-01
   7131.00  8.8327680E-01
   7131.33  8.4961801E-01
   7131.67  8.1982658E-01
   7132.00  7.9680867E-01
   7132.33  7.8319707E-01
   7132.67  7.7665087E-01
   7133.00  7.7361170E-01
   7133.33  7.6874683E-01
   7133.67  7.5953017E-01
   7134.00  7.4701385E-01
   7134.33  7.3446559E-01
   7134.67  7.2456925E-01
   7135.00  7.1862138E-01
   7135.33  7.1745764E-01
   7135.67  7.1869118E-01
   7136.00  7.1940020E-01
   7136.33  7.1671423E-01
   7136.67  7.1089233E-01
   7137.00  7.0310838E-01
   7137.33  6.9487334E-01
   7137.67  6.8736016E-01
   7138.00  6.8110017E-01
   7138.33  6.7651695E-01
   7138.67  6.7338607E-01
   7139.00  6.7153262E-01
   7139.33  6.7078957E-01
   7139.67  6.7073769E-01
   7140.00  6.7118012E-01
   7140.33  6.7202597E-01
   7140.67  6.7316258E-01
   7141.00  6.7453698E-01
   7141.33  6.7606480E-01
   7141.67  6.7757374E-01
   7142.00  6.7889993E-01
   7142.33  6.7979534E-01
   7142.67  6.8012775E-01
   7143.00  6.7978287E-01
   7143.33  6.7858108E-01
   7143.67  6.7657408E-01
   7144.00  6.7376418E-01
   7144.33  6.7011060E-01
   7144.67  6.6578587E-01
   7145.00  6.6084834E-01
   7145.33  6.5526821E-01
   7145.67  6.4912571E-01
   7146.00  6.4240222E-01
   7146.33  6.3497032E-01
   7146.67  6.2683958E-01
   7147.00  6.1794328E-01
   7147.33  6.0810088E-01
   7147.67  5.9735599E-01
   7148.00  5.8567296E-01
   7148.33  5.7291768E-01
   7148.67  5.5923409E-01
   7149.00  5.4467342E-01
   7149.33  5.2922317E-01
   7149.67  5.1309601E-01
   7150.00  4.9640964E-01
   7150.33  4.7927218E-01
   7150.67  4.6191452E-01
   7151.00  4.4451063E-01
   7151.33  4.2731642E-01
   7151.67  4.1057119E-01
   7152.00  3.9451052E-01
   7152.33  3.7951686E-01
   7152.67  3.6569782E-01
   7153.00  3.5319720E-01
   7153.33  3.4228248E-01
   7153.67  3.3278390E-01
   7154.00  3.2464621E-01
   7154.33  3.1790474E-01
   7154.67  3.1224655E-01
   7155.00  3.0752206E-01
   7155.33  3.0364864E-01
   7155.67  3.0036150E-01
   7156.00  2.9752545E-01
   7156.33  2.9503789E-01
   7156.67  2.9273904E-01
   7157.00  2.9054139E-01
   7157.33  2.8836318E-01
   7157.67  2.8614164E-01
   7158.00  2.8384697E-01
   7158.33  2.8148343E-01
   7158.67  2.7911502E-01
   7159.00  2.7681257E-01
   7159.33  2.7469493E-01
   7159.67  2.7284748E-01
   7160.00  2.7136142E-01
   7160.33  2.7039994E-01
   7160.67  2.7000936E-01
   7161.00  2.7027260E-01
   7161.33  2.7136800E-01
   7161.67  2.7328109E-01
   7162.00  2.7606880E-01
   7162.33  2.7988580E-01
   7162.67  2.8461459E-01
   7163.00  2.9022282E-01
   7163.33  2.9675028E-01
   7163.67  3.0399962E-01
   7164.00  3.1186258E-01
   7164.33  3.2025091E-01
   7164.67  3.2894872E-01
   7165.00  3.3782013E-01
   7165.33  3.4671733E-01
   7165.67  3.5550083E-01
   7166.00  3.6406820E-01
   7166.33  3.7228119E-01
   7166.67  3.8010258E-01
   7167.00  3.8748346E-01
   7167.33  3.9432460E-01
   7167.67  4.0066334E-01
   7168.00  4.0649202E-01
   7168.33  4.1175020E-01
   7168.67  4.1651380E-01
   7169.00  4.2079939E-01
   7169.33  4.2457494E-01
   7169.67  4.2792545E-01
   7170.00  4.3087697E-01
   7170.33  4.3341497E-01
   7170.67  4.3561647E-01
   7171.00  4.3750657E-01
   7171.33  4.3907413E-01
   7171.67  4.4036931E-01
   7172.00  4.4139490E-01
