    FDMNES
    energy     <xanes>
   7097.00  4.3409316E-03
   7097.33  4.4285508E-03
   7097.67  4.5193892E-03
   7098.00  4.6136231E-03
   7098.33  4.7119279E-03
   7098.67  4.8140957E-03
   7099.00  4.9203551E-03
   7099.33  5.0315458E-03
   7099.67  5.1474422E-03
   7100.00  5.2683480E-03
   7100.33  5.3953297E-03
   7100.67  5.5281486E-03
   7101.00  5.6672206E-03
   7101.33  5.8139362E-03
   7101.67  5.9680578E-03
   7102.00  6.1301753E-03
   7102.33  6.3021642E-03
   7102.67  6.4838217E-03
   7103.00  6.6760239E-03
   7103.33  6.8814136E-03
   7103.67  7.0999053E-03
   7104.00  7.3328801E-03
   7104.33  7.5842851E-03
   7104.67  7.8543607E-03
   7105.00  8.1454611E-03
   7105.33  8.4639741E-03
   7105.67  8.8110316E-03
   7106.00  9.1910994E-03
   7106.33  9.6157530E-03
   7106.67  1.0088759E-02
   7107.00  1.0619954E-02
   7107.33  1.1234083E-02
   7107.67  1.1943995E-02
   7108.00  1.2776631E-02
   7108.33  1.3799939E-02
   7108.67  1.5067392E-02
   7109.00  1.6682078E-02
   7109.33  1.8921384E-02
   7109.67  2.2114135E-02
   7110.00  2.6914587E-02
   7110.33  3.5214999E-02
   7110.67  4.8773132E-02
   7111.00  6.6352445E-02
   7111.33  7.7374767E-02
   7111.67  7.9440012E-02
   7112.00  7.8360856E-02
   7112.33  7.6470761E-02
   7112.67  7.3122732E-02
   7113.00  6.9443855E-02
   7113.33  6.7233237E-02
   7113.67  6.6874220E-02
   7114.00  6.8334429E-02
   7114.33  7.1676546E-02
   7114.67  7.6586955E-02
   7115.00  8.3043111E-02
   7115.33  9.1268119E-02
   7115.67  1.0111322E-01
   7116.00  1.1263905E-01
   7116.33  1.2616079E-01
   7116.67  1.4156774E-01
   7117.00  1.5896572E-01
   7117.33  1.7875739E-01
   7117.67  2.0082849E-01
   7118.00  2.2532049E-01
   7118.33  2.5272532E-01
   7118.67  2.8283803E-01
   7119.00  3.1562614E-01
   7119.33  3.5094076E-01
   7119.67  3.8718121E-01
   7120.00  4.2201388E-01
   7120.33  4.5060098E-01
   7120.67  4.6977350E-01
   7121.00  4.7867164E-01
   7121.33  4.7869624E-01
   7121.67  4.7453281E-01
   7122.00  4.6865537E-01
   7122.33  4.6259700E-01
   7122.67  4.5693487E-01
   7123.00  4.5182213E-01
   7123.33  4.4761414E-01
   7123.67  4.4477199E-01
   7124.00  4.4394828E-01
   7124.33  4.4611926E-01
   7124.67  4.5124632E-01
   7125.00  4.5931681E-01
   7125.33  4.7044530E-01
   7125.67  4.8376440E-01
   7126.00  4.9844269E-01
   7126.33  5.1301023E-01
   7126.67  5.2569468E-01
   7127.00  5.3510692E-01
   7127.33  5.3984762E-01
   7127.67  5.4060163E-01
   7128.00  5.3817585E-01
   7128.33  5.3356033E-01
   7128.67  5.2810303E-01
   7129.00  5.2246138E-01
   7129.33  5.1706854E-01
   7129.67  5.1200768E-01
   7130.00  5.0723832E-01
   7130.33  5.0268492E-01
   7130.67  4.9823933E-01
   7131.00  4.9386789E-01
   7131.33  4.8958576E-01
   7131.67  4.8541923E-01
   7132.00  4.8140815E-01
   7132.33  4.7762067E-01
   7132.67  4.7407078E-01
   7133.00  4.7079523E-01
   7133.33  4.6789660E-01
   7133.67  4.6542175E-01
   7134.00  4.6346581E-01
   7134.33  4.6222857E-01
   7134.67  4.6174200E-01
   7135.00  4.6208134E-01
   7135.33  4.6340688E-01
   7135.67  4.6561275E-01
   7136.00  4.6866277E-01
   7136.33  4.7256502E-01
   7136.67  4.7709374E-01
   7137.00  4.8210494E-01
   7137.33  4.8743804E-01
   7137.67  4.9284396E-01
   7138.00  4.9814222E-01
   7138.33  5.0311390E-01
   7138.67  5.0766634E-01
   7139.00  5.1174465E-01
   7139.33  5.1529400E-01
   7139.67  5.1843419E-01
   7140.00  5.2123621E-01
   7140.33  5.2374643E-01
   7140.67  5.2606537E-01
   7141.00  5.2823955E-01
   7141.33  5.3029487E-01
   7141.67  5.3227086E-01
   7142.00  5.3418470E-01
   7142.33  5.3605116E-01
   7142.67  5.3790032E-01
   7143.00  5.3975992E-01
   7143.33  5.4167777E-01
   7143.67  5.4369742E-01
   7144.00  5.4586656E-01
   7144.33  5.4826942E-01
   7144.67  5.5093762E-01
   7145.00  5.5391859E-01
   7145.33  5.5732107E-01
   7145.67  5.6115654E-01
   7146.00  5.6544742E-01
   7146.33  5.7024846E-01
   7146.67  5.7547438E-01
   7147.00  5.8107688E-01
   7147.33  5.8700987E-01
   7147.67  5.9313261E-01
   7148.00  5.9934626E-01
   7148.33  6.0552945E-01
   7148.67  6.1156843E-01
   7149.00  6.1736974E-01
   7149.33  6.2280124E-01
   7149.67  6.2783604E-01
   7150.00  6.3243433E-01
   7150.33  6.3651124E-01
   7150.67  6.4011311E-01
   7151.00  6.4323678E-01
   7151.33  6.4582044E-01
   7151.67  6.4791931E-01
   7152.00  6.4952495E-01
   7152.33  6.5055988E-01
   7152.67  6.5107168E-01
   7153.00  6.5104839E-01
   7153.33  6.5041437E-01
   7153.67  6.4924030E-01
   7154.00  6.4753883E-01
   7154.33  6.4527362E-01
   7154.67  6.4254413E-01
   7155.00  6.3938864E-01
   7155.33  6.3581039E-01
   7155.67  6.3190983E-01
   7156.00  6.2773229E-01
   7156.33  6.2329862E-01
   7156.67  6.1868167E-01
   7157.00  6.1391402E-01
   7157.33  6.0901130E-01
   7157.67  6.0401305E-01
   7158.00  5.9893572E-01
   7158.33  5.9378349E-01
   7158.67  5.8857100E-01
   7159.00  5.8329929E-01
   7159.33  5.7795710E-01
   7159.67  5.7255548E-01
   7160.00  5.6710973E-01
   7160.33  5.6162093E-01
   7160.67  5.5608533E-01
   7161.00  5.5049553E-01
   7161.33  5.4483673E-01
   7161.67  5.3911167E-01
   7162.00  5.3331859E-01
   7162.33  5.2744910E-01
   7162.67  5.2151323E-01
   7163.00  5.1551356E-01
   7163.33  5.0944774E-01
   7163.67  5.0333095E-01
   7164.00  4.9717220E-01
   7164.33  4.9098059E-01
   7164.67  4.8477483E-01
   7165.00  4.7856951E-01
   7165.33  4.7238598E-01
   7165.67  4.6624317E-01
   7166.00  4.6016136E-01
   7166.33  4.5417606E-01
   7166.67  4.4830093E-01
   7167.00  4.4255568E-01
   7167.33  4.3698089E-01
   7167.67  4.3157825E-01
   7168.00  4.2636458E-01
   7168.33  4.2138338E-01
   7168.67  4.1662424E-01
   7169.00  4.1209807E-01
   7169.33  4.0784449E-01
   7169.67  4.0384022E-01
   7170.00  4.0009053E-01
   7170.33  3.9663412E-01
   7170.67  3.9344669E-01
   7171.00  3.9053996E-01
   7171.33  3.8797846E-01
   7171.67  3.8577682E-01
   7172.00  3.8400552E-01
