    FDMNES
    energy     <xanes>
   7097.00  5.3523347E-03
   7097.33  5.4892071E-03
   7097.67  5.6326963E-03
   7098.00  5.7832663E-03
   7098.33  5.9424746E-03
   7098.67  6.1100277E-03
   7099.00  6.2865591E-03
   7099.33  6.4741158E-03
   7099.67  6.6723971E-03
   7100.00  6.8822890E-03
   7100.33  7.1065477E-03
   7100.67  7.3448940E-03
   7101.00  7.5986021E-03
   7101.33  7.8714888E-03
   7101.67  8.1633590E-03
   7102.00  8.4761071E-03
   7102.33  8.8151959E-03
   7102.67  9.1806507E-03
   7103.00  9.5753992E-03
   7103.33  1.0007576E-02
   7103.67  1.0477728E-02
   7104.00  1.0990595E-02
   7104.33  1.1558891E-02
   7104.67  1.2184372E-02
   7105.00  1.2875173E-02
   7105.33  1.3652397E-02
   7105.67  1.4520688E-02
   7106.00  1.5495075E-02
   7106.33  1.6613418E-02
   7106.67  1.7887743E-02
   7107.00  1.9348653E-02
   7107.33  2.1071586E-02
   7107.67  2.3089694E-02
   7108.00  2.5474448E-02
   7108.33  2.8400814E-02
   7108.67  3.1974684E-02
   7109.00  3.6402468E-02
   7109.33  4.2203085E-02
   7109.67  4.9827212E-02
   7110.00  6.0136768E-02
   7110.33  7.5464068E-02
   7110.67  9.8184435E-02
   7111.00  1.3056274E-01
   7111.33  1.7468042E-01
   7111.67  2.3826223E-01
   7112.00  3.3707194E-01
   7112.33  4.8127966E-01
   7112.67  6.3722328E-01
   7113.00  7.7039193E-01
   7113.33  8.0171583E-01
   7113.67  7.4208901E-01
   7114.00  6.4334223E-01
   7114.33  5.4139809E-01
   7114.67  4.3832480E-01
   7115.00  3.4553451E-01
   7115.33  2.7489891E-01
   7115.67  2.2421019E-01
   7116.00  1.9129310E-01
   7116.33  1.7618541E-01
   7116.67  1.7393508E-01
   7117.00  1.7718381E-01
   7117.33  1.7433218E-01
   7117.67  1.6407168E-01
   7118.00  1.5026324E-01
   7118.33  1.3632356E-01
   7118.67  1.2366128E-01
   7119.00  1.1297831E-01
   7119.33  1.0523016E-01
   7119.67  1.0014101E-01
   7120.00  9.7379361E-02
   7120.33  9.6696380E-02
   7120.67  9.7290597E-02
   7121.00  9.8641892E-02
   7121.33  1.0050341E-01
   7121.67  1.0288755E-01
   7122.00  1.0596849E-01
   7122.33  1.1008628E-01
   7122.67  1.1545304E-01
   7123.00  1.2245638E-01
   7123.33  1.3151858E-01
   7123.67  1.4130615E-01
   7124.00  1.4944941E-01
   7124.33  1.5341146E-01
   7124.67  1.5401490E-01
   7125.00  1.5281005E-01
   7125.33  1.5222911E-01
   7125.67  1.5405107E-01
   7126.00  1.5898611E-01
   7126.33  1.6673162E-01
   7126.67  1.7426301E-01
   7127.00  1.7930905E-01
   7127.33  1.8218586E-01
   7127.67  1.8544128E-01
   7128.00  1.9069737E-01
   7128.33  1.9996704E-01
   7128.67  2.1448646E-01
   7129.00  2.3594313E-01
   7129.33  2.6762893E-01
   7129.67  3.1011633E-01
   7130.00  3.6393471E-01
   7130.33  4.3041446E-01
   7130.67  5.0762288E-01
   7131.00  5.9419372E-01
   7131.33  6.8924301E-01
   7131.67  7.9093062E-01
   7132.00  9.0032981E-01
   7132.33  1.0238482E+00
   7132.67  1.1616635E+00
   7133.00  1.3027139E+00
   7133.33  1.4140686E+00
   7133.67  1.4671045E+00
   7134.00  1.4503229E+00
   7134.33  1.3699449E+00
   7134.67  1.2608689E+00
   7135.00  1.1437415E+00
   7135.33  1.0330503E+00
   7135.67  9.3325156E-01
   7136.00  8.4511994E-01
   7136.33  7.6927230E-01
   7136.67  7.0315828E-01
   7137.00  6.4587367E-01
   7137.33  5.9764942E-01
   7137.67  5.5698643E-01
   7138.00  5.2362033E-01
   7138.33  4.9819214E-01
   7138.67  4.7953810E-01
   7139.00  4.6731072E-01
   7139.33  4.6166053E-01
   7139.67  4.6109474E-01
   7140.00  4.6486017E-01
   7140.33  4.7247246E-01
   7140.67  4.8264218E-01
   7141.00  4.9472040E-01
   7141.33  5.0822092E-01
   7141.67  5.2244216E-01
   7142.00  5.3699050E-01
   7142.33  5.5148858E-01
   7142.67  5.6566707E-01
   7143.00  5.7936474E-01
   7143.33  5.9238980E-01
   7143.67  6.0474350E-01
   7144.00  6.1636765E-01
   7144.33  6.2706862E-01
   7144.67  6.3681510E-01
   7145.00  6.4545568E-01
   7145.33  6.5261933E-01
   7145.67  6.5825265E-01
   7146.00  6.6218282E-01
   7146.33  6.6402064E-01
   7146.67  6.6391690E-01
   7147.00  6.6187999E-01
   7147.33  6.5779270E-01
   7147.67  6.5210074E-01
   7148.00  6.4505566E-01
   7148.33  6.3684811E-01
   7148.67  6.2793434E-01
   7149.00  6.1859637E-01
   7149.33  6.0912666E-01
   7149.67  5.9980880E-01
   7150.00  5.9084398E-01
   7150.33  5.8247059E-01
   7150.67  5.7472887E-01
   7151.00  5.6767359E-01
   7151.33  5.6142666E-01
   7151.67  5.5590352E-01
   7152.00  5.5109327E-01
   7152.33  5.4705925E-01
   7152.67  5.4368502E-01
   7153.00  5.4093838E-01
   7153.33  5.3885219E-01
   7153.67  5.3731196E-01
   7154.00  5.3628253E-01
   7154.33  5.3578164E-01
   7154.67  5.3570905E-01
   7155.00  5.3602885E-01
   7155.33  5.3674360E-01
   7155.67  5.3776845E-01
   7156.00  5.3906718E-01
   7156.33  5.4062210E-01
   7156.67  5.4235402E-01
   7157.00  5.4421667E-01
   7157.33  5.4616188E-01
   7157.67  5.4811986E-01
   7158.00  5.5003723E-01
   7158.33  5.5183993E-01
   7158.67  5.5348259E-01
   7159.00  5.5491963E-01
   7159.33  5.5607327E-01
   7159.67  5.5693908E-01
   7160.00  5.5749449E-01
   7160.33  5.5767817E-01
   7160.67  5.5751654E-01
   7161.00  5.5699890E-01
   7161.33  5.5606612E-01
   7161.67  5.5474766E-01
   7162.00  5.5302428E-01
   7162.33  5.5081152E-01
   7162.67  5.4812468E-01
   7163.00  5.4492401E-01
   7163.33  5.4108823E-01
   7163.67  5.3663780E-01
   7164.00  5.3153555E-01
   7164.33  5.2566630E-01
   7164.67  5.1910591E-01
   7165.00  5.1186755E-01
   7165.33  5.0391616E-01
   7165.67  4.9540657E-01
   7166.00  4.8642641E-01
   7166.33  4.7705251E-01
   7166.67  4.6746099E-01
   7167.00  4.5776915E-01
   7167.33  4.4811398E-01
   7167.67  4.3861802E-01
   7168.00  4.2938557E-01
   7168.33  4.2057775E-01
   7168.67  4.1225109E-01
   7169.00  4.0448579E-01
   7169.33  3.9744038E-01
   7169.67  3.9108991E-01
   7170.00  3.8545956E-01
   7170.33  3.8065000E-01
   7170.67  3.7656125E-01
   7171.00  3.7317059E-01
   7171.33  3.7051444E-01
   7171.67  3.6844432E-01
   7172.00  3.6688216E-01
