    FDMNES
    energy     <xanes>
   7097.00  4.9151200E-03
   7097.33  5.0337627E-03
   7097.67  5.1579437E-03
   7098.00  5.2880522E-03
   7098.33  5.4253951E-03
   7098.67  5.5697315E-03
   7099.00  5.7215982E-03
   7099.33  5.8827243E-03
   7099.67  6.0528722E-03
   7100.00  6.2328039E-03
   7100.33  6.4248721E-03
   7100.67  6.6288757E-03
   7101.00  6.8459331E-03
   7101.33  7.0793531E-03
   7101.67  7.3290452E-03
   7102.00  7.5967155E-03
   7102.33  7.8872074E-03
   7102.67  8.2007037E-03
   7103.00  8.5399332E-03
   7103.33  8.9123381E-03
   7103.67  9.3187480E-03
   7104.00  9.7637861E-03
   7104.33  1.0259601E-02
   7104.67  1.0808572E-02
   7105.00  1.1419124E-02
   7105.33  1.2112672E-02
   7105.67  1.2895532E-02
   7106.00  1.3784571E-02
   7106.33  1.4821584E-02
   7106.67  1.6023902E-02
   7107.00  1.7429906E-02
   7107.33  1.9133499E-02
   7107.67  2.1188025E-02
   7108.00  2.3698495E-02
   7108.33  2.6924869E-02
   7108.67  3.1070803E-02
   7109.00  3.6519237E-02
   7109.33  4.4278167E-02
   7109.67  5.5481057E-02
   7110.00  7.2343452E-02
   7110.33  1.0121996E-01
   7110.67  1.4881918E-01
   7111.00  2.1658433E-01
   7111.33  2.8444654E-01
   7111.67  3.3824932E-01
   7112.00  3.8890902E-01
   7112.33  4.3828581E-01
   7112.67  4.5508791E-01
   7113.00  4.0914180E-01
   7113.33  3.1406595E-01
   7113.67  2.3237187E-01
   7114.00  1.7895072E-01
   7114.33  1.5278758E-01
   7114.67  1.4583697E-01
   7115.00  1.5515626E-01
   7115.33  1.6981711E-01
   7115.67  1.6609812E-01
   7116.00  1.4187909E-01
   7116.33  1.1617283E-01
   7116.67  9.8156199E-02
   7117.00  8.7529176E-02
   7117.33  8.2995211E-02
   7117.67  8.1998141E-02
   7118.00  8.3026007E-02
   7118.33  8.5053720E-02
   7118.67  8.8154982E-02
   7119.00  9.2801260E-02
   7119.33  9.8690473E-02
   7119.67  1.0422459E-01
   7120.00  1.0802114E-01
   7120.33  1.1010819E-01
   7120.67  1.1335250E-01
   7121.00  1.1966972E-01
   7121.33  1.2982652E-01
   7121.67  1.4298770E-01
   7122.00  1.5945945E-01
   7122.33  1.8055850E-01
   7122.67  2.0580290E-01
   7123.00  2.3413269E-01
   7123.33  2.6451744E-01
   7123.67  2.9661667E-01
   7124.00  3.2975882E-01
   7124.33  3.6103800E-01
   7124.67  3.8683691E-01
   7125.00  4.0426999E-01
   7125.33  4.1206548E-01
   7125.67  4.1502264E-01
   7126.00  4.1770449E-01
   7126.33  4.2528962E-01
   7126.67  4.3967686E-01
   7127.00  4.6096340E-01
   7127.33  4.8809862E-01
   7127.67  5.1795219E-01
   7128.00  5.4881541E-01
   7128.33  5.7916772E-01
   7128.67  6.0720379E-01
   7129.00  6.3183817E-01
   7129.33  6.5525989E-01
   7129.67  6.8195081E-01
   7130.00  7.1252600E-01
   7130.33  7.4288721E-01
   7130.67  7.6794302E-01
   7131.00  7.8515144E-01
   7131.33  7.9254067E-01
   7131.67  7.9150468E-01
   7132.00  7.8334117E-01
   7132.33  7.7046721E-01
   7132.67  7.5694997E-01
   7133.00  7.4535897E-01
   7133.33  7.3795709E-01
   7133.67  7.3467061E-01
   7134.00  7.3491265E-01
   7134.33  7.3753534E-01
   7134.67  7.4052850E-01
   7135.00  7.4268943E-01
   7135.33  7.4349121E-01
   7135.67  7.4372378E-01
   7136.00  7.4412333E-01
   7136.33  7.4518220E-01
   7136.67  7.4657565E-01
   7137.00  7.4766264E-01
   7137.33  7.4736967E-01
   7137.67  7.4513927E-01
   7138.00  7.4076114E-01
   7138.33  7.3421568E-01
   7138.67  7.2622233E-01
   7139.00  7.1716090E-01
   7139.33  7.0709587E-01
   7139.67  6.9592169E-01
   7140.00  6.8321367E-01
   7140.33  6.6831867E-01
   7140.67  6.5167355E-01
   7141.00  6.3413099E-01
   7141.33  6.1733298E-01
   7141.67  6.0279227E-01
   7142.00  5.9146915E-01
   7142.33  5.8418283E-01
   7142.67  5.8004591E-01
   7143.00  5.7815643E-01
   7143.33  5.7717701E-01
   7143.67  5.7544684E-01
   7144.00  5.7180630E-01
   7144.33  5.6509999E-01
   7144.67  5.5563967E-01
   7145.00  5.4400588E-01
   7145.33  5.3117543E-01
   7145.67  5.1848750E-01
   7146.00  5.0684318E-01
   7146.33  4.9719372E-01
   7146.67  4.8962915E-01
   7147.00  4.8417553E-01
   7147.33  4.8092854E-01
   7147.67  4.7937986E-01
   7148.00  4.7927222E-01
   7148.33  4.8044480E-01
   7148.67  4.8245877E-01
   7149.00  4.8507337E-01
   7149.33  4.8808092E-01
   7149.67  4.9122348E-01
   7150.00  4.9434714E-01
   7150.33  4.9728630E-01
   7150.67  4.9995589E-01
   7151.00  5.0230485E-01
   7151.33  5.0429598E-01
   7151.67  5.0604952E-01
   7152.00  5.0769188E-01
   7152.33  5.0941503E-01
   7152.67  5.1137907E-01
   7153.00  5.1367516E-01
   7153.33  5.1635316E-01
   7153.67  5.1926113E-01
   7154.00  5.2222629E-01
   7154.33  5.2497407E-01
   7154.67  5.2728052E-01
   7155.00  5.2897276E-01
   7155.33  5.2983136E-01
   7155.67  5.2990966E-01
   7156.00  5.2923227E-01
   7156.33  5.2778226E-01
   7156.67  5.2572681E-01
   7157.00  5.2312535E-01
   7157.33  5.1995704E-01
   7157.67  5.1629348E-01
   7158.00  5.1211924E-01
   7158.33  5.0733416E-01
   7158.67  5.0197677E-01
   7159.00  4.9603899E-01
   7159.33  4.8947601E-01
   7159.67  4.8242527E-01
   7160.00  4.7497698E-01
   7160.33  4.6723228E-01
   7160.67  4.5937663E-01
   7161.00  4.5154271E-01
   7161.33  4.4389243E-01
   7161.67  4.3652046E-01
   7162.00  4.2949713E-01
   7162.33  4.2291761E-01
   7162.67  4.1674549E-01
   7163.00  4.1097181E-01
   7163.33  4.0561605E-01
   7163.67  4.0059494E-01
   7164.00  3.9587579E-01
   7164.33  3.9145924E-01
   7164.67  3.8728779E-01
   7165.00  3.8335011E-01
   7165.33  3.7967160E-01
   7165.67  3.7622835E-01
   7166.00  3.7303002E-01
   7166.33  3.7012453E-01
   7166.67  3.6749604E-01
   7167.00  3.6515744E-01
   7167.33  3.6315835E-01
   7167.67  3.6146886E-01
   7168.00  3.6009169E-01
   7168.33  3.5906348E-01
   7168.67  3.5833871E-01
   7169.00  3.5790931E-01
   7169.33  3.5779936E-01
   7169.67  3.5795968E-01
   7170.00  3.5837609E-01
   7170.33  3.5905722E-01
   7170.67  3.5994519E-01
   7171.00  3.6100426E-01
   7171.33  3.6217974E-01
   7171.67  3.6333884E-01
   7172.00  3.6432504E-01
