    FDMNES
    energy     <xanes>
   7097.00  5.4147148E-03
   7097.33  5.5504513E-03
   7097.67  5.6926811E-03
   7098.00  5.8418601E-03
   7098.33  5.9995179E-03
   7098.67  6.1653683E-03
   7099.00  6.3400356E-03
   7099.33  6.5255350E-03
   7099.67  6.7215768E-03
   7100.00  6.9290387E-03
   7100.33  7.1506435E-03
   7100.67  7.3861304E-03
   7101.00  7.6367707E-03
   7101.33  7.9063556E-03
   7101.67  8.1947232E-03
   7102.00  8.5037812E-03
   7102.33  8.8390000E-03
   7102.67  9.2004706E-03
   7103.00  9.5911793E-03
   7103.33  1.0019367E-02
   7103.67  1.0485722E-02
   7104.00  1.0995167E-02
   7104.33  1.1560792E-02
   7104.67  1.2184696E-02
   7105.00  1.2875523E-02
   7105.33  1.3655519E-02
   7105.67  1.4530232E-02
   7106.00  1.5516159E-02
   7106.33  1.6654560E-02
   7106.67  1.7960152E-02
   7107.00  1.9468079E-02
   7107.33  2.1264612E-02
   7107.67  2.3392187E-02
   7108.00  2.5938315E-02
   7108.33  2.9117722E-02
   7108.67  3.3075637E-02
   7109.00  3.8088731E-02
   7109.33  4.4861866E-02
   7109.67  5.4073012E-02
   7110.00  6.7019612E-02
   7110.33  8.7328932E-02
   7110.67  1.1942348E-01
   7111.00  1.6944436E-01
   7111.33  2.4438114E-01
   7111.67  3.3652951E-01
   7112.00  4.3355205E-01
   7112.33  5.1533964E-01
   7112.67  5.6279614E-01
   7113.00  5.6878040E-01
   7113.33  5.3886067E-01
   7113.67  4.9701293E-01
   7114.00  4.4551151E-01
   7114.33  3.7966009E-01
   7114.67  3.1872619E-01
   7115.00  2.7376789E-01
   7115.33  2.4756175E-01
   7115.67  2.3436654E-01
   7116.00  2.2935250E-01
   7116.33  2.2441312E-01
   7116.67  2.1406969E-01
   7117.00  1.9927558E-01
   7117.33  1.8356633E-01
   7117.67  1.6975651E-01
   7118.00  1.5886276E-01
   7118.33  1.5109316E-01
   7118.67  1.4516581E-01
   7119.00  1.4023940E-01
   7119.33  1.3588035E-01
   7119.67  1.3214270E-01
   7120.00  1.2939609E-01
   7120.33  1.2805705E-01
   7120.67  1.2776998E-01
   7121.00  1.2830080E-01
   7121.33  1.2981085E-01
   7121.67  1.3230221E-01
   7122.00  1.3568425E-01
   7122.33  1.3984458E-01
   7122.67  1.4455187E-01
   7123.00  1.4978573E-01
   7123.33  1.5580147E-01
   7123.67  1.6291202E-01
   7124.00  1.7157535E-01
   7124.33  1.8258673E-01
   7124.67  1.9614307E-01
   7125.00  2.1256055E-01
   7125.33  2.3247988E-01
   7125.67  2.5551389E-01
   7126.00  2.8130389E-01
   7126.33  3.0917964E-01
   7126.67  3.3761134E-01
   7127.00  3.6537093E-01
   7127.33  3.9123844E-01
   7127.67  4.1565930E-01
   7128.00  4.4016035E-01
   7128.33  4.6799086E-01
   7128.67  5.0194082E-01
   7129.00  5.4410433E-01
   7129.33  5.9612456E-01
   7129.67  6.5466170E-01
   7130.00  7.1586845E-01
   7130.33  7.7430271E-01
   7130.67  8.2639867E-01
   7131.00  8.7063121E-01
   7131.33  9.0625316E-01
   7131.67  9.3595533E-01
   7132.00  9.6142492E-01
   7132.33  9.8261180E-01
   7132.67  9.9805149E-01
   7133.00  1.0051219E+00
   7133.33  1.0001476E+00
   7133.67  9.8393981E-01
   7134.00  9.5747546E-01
   7134.33  9.2189556E-01
   7134.67  8.8069033E-01
   7135.00  8.3580563E-01
   7135.33  7.8888305E-01
   7135.67  7.4165145E-01
   7136.00  6.9522063E-01
   7136.33  6.5101802E-01
   7136.67  6.0988330E-01
   7137.00  5.7265791E-01
   7137.33  5.4075245E-01
   7137.67  5.1415911E-01
   7138.00  4.9314465E-01
   7138.33  4.7840791E-01
   7138.67  4.6892372E-01
   7139.00  4.6419898E-01
   7139.33  4.6401108E-01
   7139.67  4.6706033E-01
   7140.00  4.7267410E-01
   7140.33  4.8036741E-01
   7140.67  4.8929869E-01
   7141.00  4.9903660E-01
   7141.33  5.0922944E-01
   7141.67  5.1951301E-01
   7142.00  5.2966914E-01
   7142.33  5.3943571E-01
   7142.67  5.4865317E-01
   7143.00  5.5714850E-01
   7143.33  5.6460233E-01
   7143.67  5.7093078E-01
   7144.00  5.7597751E-01
   7144.33  5.7942043E-01
   7144.67  5.8135789E-01
   7145.00  5.8178638E-01
   7145.33  5.8059141E-01
   7145.67  5.7806863E-01
   7146.00  5.7435525E-01
   7146.33  5.6953573E-01
   7146.67  5.6397631E-01
   7147.00  5.5789989E-01
   7147.33  5.5153605E-01
   7147.67  5.4516923E-01
   7148.00  5.3900295E-01
   7148.33  5.3330641E-01
   7148.67  5.2822134E-01
   7149.00  5.2389779E-01
   7149.33  5.2059949E-01
   7149.67  5.1832751E-01
   7150.00  5.1715402E-01
   7150.33  5.1727444E-01
   7150.67  5.1855730E-01
   7151.00  5.2097885E-01
   7151.33  5.2460389E-01
   7151.67  5.2918730E-01
   7152.00  5.3460418E-01
   7152.33  5.4076641E-01
   7152.67  5.4740292E-01
   7153.00  5.5434385E-01
   7153.33  5.6140123E-01
   7153.67  5.6837219E-01
   7154.00  5.7511171E-01
   7154.33  5.8143018E-01
   7154.67  5.8726187E-01
   7155.00  5.9253489E-01
   7155.33  5.9711672E-01
   7155.67  6.0105570E-01
   7156.00  6.0434582E-01
   7156.33  6.0691683E-01
   7156.67  6.0887039E-01
   7157.00  6.1023054E-01
   7157.33  6.1095727E-01
   7157.67  6.1115012E-01
   7158.00  6.1083040E-01
   7158.33  6.0995773E-01
   7158.67  6.0861282E-01
   7159.00  6.0681063E-01
   7159.33  6.0451199E-01
   7159.67  6.0178754E-01
   7160.00  5.9865006E-01
   7160.33  5.9506339E-01
   7160.67  5.9109448E-01
   7161.00  5.8676160E-01
   7161.33  5.8204310E-01
   7161.67  5.7700190E-01
   7162.00  5.7166001E-01
   7162.33  5.6601406E-01
   7162.67  5.6012802E-01
   7163.00  5.5402676E-01
   7163.33  5.4771515E-01
   7163.67  5.4124350E-01
   7164.00  5.3463352E-01
   7164.33  5.2789740E-01
   7164.67  5.2107642E-01
   7165.00  5.1419307E-01
   7165.33  5.0727010E-01
   7165.67  5.0034091E-01
   7166.00  4.9343174E-01
   7166.33  4.8658147E-01
   7166.67  4.7981832E-01
   7167.00  4.7317403E-01
   7167.33  4.6670713E-01
   7167.67  4.6043961E-01
   7168.00  4.5440916E-01
   7168.33  4.4869306E-01
   7168.67  4.4329452E-01
   7169.00  4.3824196E-01
   7169.33  4.3360732E-01
   7169.67  4.2936441E-01
   7170.00  4.2552612E-01
   7170.33  4.2215102E-01
   7170.67  4.1918677E-01
   7171.00  4.1662747E-01
   7171.33  4.1451217E-01
   7171.67  4.1278246E-01
   7172.00  4.1143152E-01
