    FDMNES
    energy     <xanes>
   7097.00  5.6108513E-03
   7097.33  5.7591269E-03
   7097.67  5.9147673E-03
   7098.00  6.0782989E-03
   7098.33  6.2514714E-03
   7098.67  6.4339713E-03
   7099.00  6.6265198E-03
   7099.33  6.8314274E-03
   7099.67  7.0483764E-03
   7100.00  7.2783796E-03
   7100.33  7.5245632E-03
   7100.67  7.7866400E-03
   7101.00  8.0660737E-03
   7101.33  8.3672161E-03
   7101.67  8.6898863E-03
   7102.00  9.0362715E-03
   7102.33  9.4126356E-03
   7102.67  9.8190692E-03
   7103.00  1.0258971E-02
   7103.33  1.0741728E-02
   7103.67  1.1268066E-02
   7104.00  1.1843523E-02
   7104.33  1.2482877E-02
   7104.67  1.3188321E-02
   7105.00  1.3969432E-02
   7105.33  1.4850944E-02
   7105.67  1.5838569E-02
   7106.00  1.6950160E-02
   7106.33  1.8230529E-02
   7106.67  1.9694448E-02
   7107.00  2.1378673E-02
   7107.33  2.3373605E-02
   7107.67  2.5720209E-02
   7108.00  2.8505565E-02
   7108.33  3.1942764E-02
   7108.67  3.6164242E-02
   7109.00  4.1426294E-02
   7109.33  4.8374504E-02
   7109.67  5.7581911E-02
   7110.00  7.0143170E-02
   7110.33  8.9045249E-02
   7110.67  1.1755403E-01
   7111.00  1.5968329E-01
   7111.33  2.2054988E-01
   7111.67  2.9945077E-01
   7112.00  4.0083327E-01
   7112.33  5.4036152E-01
   7112.67  7.1712626E-01
   7113.00  9.1031403E-01
   7113.33  1.0008587E+00
   7113.67  9.3064509E-01
   7114.00  7.3725399E-01
   7114.33  5.2652279E-01
   7114.67  3.7328201E-01
   7115.00  2.7554150E-01
   7115.33  2.1821488E-01
   7115.67  1.8282873E-01
   7116.00  1.6270922E-01
   7116.33  1.5406964E-01
   7116.67  1.5011760E-01
   7117.00  1.4688049E-01
   7117.33  1.4351637E-01
   7117.67  1.4051963E-01
   7118.00  1.3662757E-01
   7118.33  1.3031527E-01
   7118.67  1.2407862E-01
   7119.00  1.2000097E-01
   7119.33  1.1827935E-01
   7119.67  1.1808822E-01
   7120.00  1.1915122E-01
   7120.33  1.2055069E-01
   7120.67  1.2085683E-01
   7121.00  1.2003852E-01
   7121.33  1.2035009E-01
   7121.67  1.2313988E-01
   7122.00  1.2817613E-01
   7122.33  1.3494090E-01
   7122.67  1.4285562E-01
   7123.00  1.5203873E-01
   7123.33  1.6344473E-01
   7123.67  1.7798918E-01
   7124.00  1.9660765E-01
   7124.33  2.2012387E-01
   7124.67  2.4670923E-01
   7125.00  2.7386064E-01
   7125.33  2.9782730E-01
   7125.67  3.1708974E-01
   7126.00  3.3179155E-01
   7126.33  3.4237706E-01
   7126.67  3.4976797E-01
   7127.00  3.5410615E-01
   7127.33  3.5574023E-01
   7127.67  3.5631575E-01
   7128.00  3.5709143E-01
   7128.33  3.5912670E-01
   7128.67  3.6246531E-01
   7129.00  3.6698081E-01
   7129.33  3.7271963E-01
   7129.67  3.7971546E-01
   7130.00  3.8836543E-01
   7130.33  3.9961572E-01
   7130.67  4.1395172E-01
   7131.00  4.3205082E-01
   7131.33  4.5525473E-01
   7131.67  4.8378384E-01
   7132.00  5.1827175E-01
   7132.33  5.6000443E-01
   7132.67  6.0793195E-01
   7133.00  6.6068096E-01
   7133.33  7.1478192E-01
   7133.67  7.6466407E-01
   7134.00  8.0556745E-01
   7134.33  8.3230112E-01
   7134.67  8.4597773E-01
   7135.00  8.4826812E-01
   7135.33  8.4099704E-01
   7135.67  8.2790932E-01
   7136.00  8.1078308E-01
   7136.33  7.9096723E-01
   7136.67  7.7018647E-01
   7137.00  7.4943132E-01
   7137.33  7.2941715E-01
   7137.67  7.1015619E-01
   7138.00  6.9163439E-01
   7138.33  6.7418869E-01
   7138.67  6.5809638E-01
   7139.00  6.4362772E-01
   7139.33  6.3108502E-01
   7139.67  6.2017961E-01
   7140.00  6.1085834E-01
   7140.33  6.0339301E-01
   7140.67  5.9777268E-01
   7141.00  5.9419410E-01
   7141.33  5.9307173E-01
   7141.67  5.9407095E-01
   7142.00  5.9698385E-01
   7142.33  6.0168085E-01
   7142.67  6.0759700E-01
   7143.00  6.1441022E-01
   7143.33  6.2182739E-01
   7143.67  6.2945669E-01
   7144.00  6.3705933E-01
   7144.33  6.4438209E-01
   7144.67  6.5129829E-01
   7145.00  6.5772297E-01
   7145.33  6.6354319E-01
   7145.67  6.6882627E-01
   7146.00  6.7359683E-01
   7146.33  6.7783799E-01
   7146.67  6.8165032E-01
   7147.00  6.8506105E-01
   7147.33  6.8803912E-01
   7147.67  6.9063326E-01
   7148.00  6.9283340E-01
   7148.33  6.9456830E-01
   7148.67  6.9586600E-01
   7149.00  6.9671074E-01
   7149.33  6.9703758E-01
   7149.67  6.9690644E-01
   7150.00  6.9632692E-01
   7150.33  6.9526459E-01
   7150.67  6.9379850E-01
   7151.00  6.9195418E-01
   7151.33  6.8972128E-01
   7151.67  6.8718374E-01
   7152.00  6.8438341E-01
   7152.33  6.8133024E-01
   7152.67  6.7807843E-01
   7153.00  6.7464503E-01
   7153.33  6.7102204E-01
   7153.67  6.6723517E-01
   7154.00  6.6328239E-01
   7154.33  6.5913381E-01
   7154.67  6.5479828E-01
   7155.00  6.5026299E-01
   7155.33  6.4548718E-01
   7155.67  6.4048751E-01
   7156.00  6.3525991E-01
   7156.33  6.2977811E-01
   7156.67  6.2408149E-01
   7157.00  6.1818726E-01
   7157.33  6.1210041E-01
   7157.67  6.0587333E-01
   7158.00  5.9953468E-01
   7158.33  5.9310731E-01
   7158.67  5.8663032E-01
   7159.00  5.8012445E-01
   7159.33  5.7360715E-01
   7159.67  5.6709433E-01
   7160.00  5.6059655E-01
   7160.33  5.5412525E-01
   7160.67  5.4768600E-01
   7161.00  5.4129126E-01
   7161.33  5.3497005E-01
   7161.67  5.2874181E-01
   7162.00  5.2263293E-01
   7162.33  5.1669189E-01
   7162.67  5.1092463E-01
   7163.00  5.0534484E-01
   7163.33  4.9998004E-01
   7163.67  4.9479469E-01
   7164.00  4.8976637E-01
   7164.33  4.8487056E-01
   7164.67  4.8004280E-01
   7165.00  4.7523569E-01
   7165.33  4.7038822E-01
   7165.67  4.6545230E-01
   7166.00  4.6039052E-01
   7166.33  4.5515107E-01
   7166.67  4.4973599E-01
   7167.00  4.4414314E-01
   7167.33  4.3836303E-01
   7167.67  4.3244094E-01
   7168.00  4.2640801E-01
   7168.33  4.2030198E-01
   7168.67  4.1418461E-01
   7169.00  4.0810900E-01
   7169.33  4.0215262E-01
   7169.67  3.9636047E-01
   7170.00  3.9077979E-01
   7170.33  3.8549601E-01
   7170.67  3.8052989E-01
   7171.00  3.7593284E-01
   7171.33  3.7183741E-01
   7171.67  3.6830485E-01
   7172.00  3.6547333E-01
