    FDMNES
    energy     <xanes>
   7097.00  5.3867821E-03
   7097.33  5.5235811E-03
   7097.67  5.6670499E-03
   7098.00  5.8176671E-03
   7098.33  5.9770216E-03
   7098.67  6.1448344E-03
   7099.00  6.3217652E-03
   7099.33  6.5099213E-03
   7099.67  6.7090269E-03
   7100.00  6.9200169E-03
   7100.33  7.1457613E-03
   7100.67  7.3860260E-03
   7101.00  7.6421784E-03
   7101.33  7.9182521E-03
   7101.67  8.2141391E-03
   7102.00  8.5319144E-03
   7102.33  8.8774644E-03
   7102.67  9.2509928E-03
   7103.00  9.6557918E-03
   7103.33  1.0100852E-02
   7103.67  1.0587111E-02
   7104.00  1.1120082E-02
   7104.33  1.1714301E-02
   7104.67  1.2372439E-02
   7105.00  1.3104394E-02
   7105.33  1.3935415E-02
   7105.67  1.4872508E-02
   7106.00  1.5935086E-02
   7106.33  1.7171388E-02
   7106.67  1.8600284E-02
   7107.00  2.0264716E-02
   7107.33  2.2269820E-02
   7107.67  2.4671998E-02
   7108.00  2.7584167E-02
   7108.33  3.1284671E-02
   7108.67  3.5979247E-02
   7109.00  4.2056137E-02
   7109.33  5.0523184E-02
   7109.67  6.2447550E-02
   7110.00  7.9898175E-02
   7110.33  1.0879912E-01
   7110.67  1.5627602E-01
   7111.00  2.2900453E-01
   7111.33  3.1857729E-01
   7111.67  3.9880900E-01
   7112.00  4.6648647E-01
   7112.33  5.1911858E-01
   7112.67  5.4937898E-01
   7113.00  5.4774897E-01
   7113.33  5.0373177E-01
   7113.67  4.4070807E-01
   7114.00  3.7081429E-01
   7114.33  3.0666672E-01
   7114.67  2.5983811E-01
   7115.00  2.3180872E-01
   7115.33  2.2192108E-01
   7115.67  2.2234402E-01
   7116.00  2.2387494E-01
   7116.33  2.1789289E-01
   7116.67  2.0648854E-01
   7117.00  1.9227234E-01
   7117.33  1.7725943E-01
   7117.67  1.6367047E-01
   7118.00  1.5263570E-01
   7118.33  1.4461265E-01
   7118.67  1.3871090E-01
   7119.00  1.3433463E-01
   7119.33  1.3086836E-01
   7119.67  1.2769459E-01
   7120.00  1.2499746E-01
   7120.33  1.2362855E-01
   7120.67  1.2366589E-01
   7121.00  1.2478570E-01
   7121.33  1.2674667E-01
   7121.67  1.2940136E-01
   7122.00  1.3271039E-01
   7122.33  1.3646647E-01
   7122.67  1.4033973E-01
   7123.00  1.4445636E-01
   7123.33  1.4944373E-01
   7123.67  1.5564501E-01
   7124.00  1.6319912E-01
   7124.33  1.7222762E-01
   7124.67  1.8239416E-01
   7125.00  1.9352625E-01
   7125.33  2.0558741E-01
   7125.67  2.1837445E-01
   7126.00  2.3189411E-01
   7126.33  2.4694486E-01
   7126.67  2.6488373E-01
   7127.00  2.8711430E-01
   7127.33  3.1489825E-01
   7127.67  3.4669753E-01
   7128.00  3.8085322E-01
   7128.33  4.1614188E-01
   7128.67  4.5319401E-01
   7129.00  4.9391688E-01
   7129.33  5.4050271E-01
   7129.67  5.9206325E-01
   7130.00  6.4787429E-01
   7130.33  7.0820461E-01
   7130.67  7.7244195E-01
   7131.00  8.3958889E-01
   7131.33  9.0706854E-01
   7131.67  9.7128400E-01
   7132.00  1.0290568E+00
   7132.33  1.0754508E+00
   7132.67  1.1077671E+00
   7133.00  1.1225345E+00
   7133.33  1.1145417E+00
   7133.67  1.0868484E+00
   7134.00  1.0427476E+00
   7134.33  9.8664636E-01
   7134.67  9.2566304E-01
   7135.00  8.6367427E-01
   7135.33  8.0383438E-01
   7135.67  7.4746575E-01
   7136.00  6.9525050E-01
   7136.33  6.4818437E-01
   7136.67  6.0596201E-01
   7137.00  5.6878108E-01
   7137.33  5.3750986E-01
   7137.67  5.1165213E-01
   7138.00  4.9126258E-01
   7138.33  4.7692718E-01
   7138.67  4.6769451E-01
   7139.00  4.6317382E-01
   7139.33  4.6328418E-01
   7139.67  4.6683464E-01
   7140.00  4.7324613E-01
   7140.33  4.8219354E-01
   7140.67  4.9289259E-01
   7141.00  5.0499388E-01
   7141.33  5.1829223E-01
   7141.67  5.3234918E-01
   7142.00  5.4689697E-01
   7142.33  5.6161402E-01
   7142.67  5.7611003E-01
   7143.00  5.9005559E-01
   7143.33  6.0296665E-01
   7143.67  6.1462808E-01
   7144.00  6.2479777E-01
   7144.33  6.3302892E-01
   7144.67  6.3935847E-01
   7145.00  6.4367775E-01
   7145.33  6.4566068E-01
   7145.67  6.4557505E-01
   7146.00  6.4349558E-01
   7146.33  6.3936376E-01
   7146.67  6.3365736E-01
   7147.00  6.2663419E-01
   7147.33  6.1846561E-01
   7147.67  6.0953912E-01
   7148.00  6.0005843E-01
   7148.33  5.9021090E-01
   7148.67  5.8026378E-01
   7149.00  5.7041228E-01
   7149.33  5.6090599E-01
   7149.67  5.5189652E-01
   7150.00  5.4352900E-01
   7150.33  5.3604411E-01
   7150.67  5.2945454E-01
   7151.00  5.2382979E-01
   7151.33  5.1935003E-01
   7151.67  5.1591545E-01
   7152.00  5.1353324E-01
   7152.33  5.1232654E-01
   7152.67  5.1214248E-01
   7153.00  5.1294991E-01
   7153.33  5.1481362E-01
   7153.67  5.1754377E-01
   7154.00  5.2106040E-01
   7154.33  5.2533257E-01
   7154.67  5.3014049E-01
   7155.00  5.3535470E-01
   7155.33  5.4084388E-01
   7155.67  5.4640913E-01
   7156.00  5.5191155E-01
   7156.33  5.5718203E-01
   7156.67  5.6212844E-01
   7157.00  5.6667152E-01
   7157.33  5.7068496E-01
   7157.67  5.7418352E-01
   7158.00  5.7714367E-01
   7158.33  5.7947963E-01
   7158.67  5.8125088E-01
   7159.00  5.8245105E-01
   7159.33  5.8300085E-01
   7159.67  5.8296609E-01
   7160.00  5.8234092E-01
   7160.33  5.8103918E-01
   7160.67  5.7912722E-01
   7161.00  5.7660239E-01
   7161.33  5.7338471E-01
   7161.67  5.6955158E-01
   7162.00  5.6511611E-01
   7162.33  5.6003245E-01
   7162.67  5.5440774E-01
   7163.00  5.4827979E-01
   7163.33  5.4164495E-01
   7163.67  5.3462098E-01
   7164.00  5.2726639E-01
   7164.33  5.1962199E-01
   7164.67  5.1179657E-01
   7165.00  5.0385671E-01
   7165.33  4.9587397E-01
   7165.67  4.8792582E-01
   7166.00  4.8007060E-01
   7166.33  4.7238968E-01
   7166.67  4.6491735E-01
   7167.00  4.5769317E-01
   7167.33  4.5079349E-01
   7167.67  4.4421830E-01
   7168.00  4.3799756E-01
   7168.33  4.3221212E-01
   7168.67  4.2683967E-01
   7169.00  4.2189732E-01
   7169.33  4.1745594E-01
   7169.67  4.1347067E-01
   7170.00  4.0994744E-01
   7170.33  4.0694501E-01
   7170.67  4.0439750E-01
   7171.00  4.0228924E-01
   7171.33  4.0064128E-01
   7171.67  3.9935722E-01
   7172.00  3.9838281E-01
