    FDMNES
    energy     <xanes>
   7097.00  5.1837516E-03
   7097.33  5.3061118E-03
   7097.67  5.4339220E-03
   7098.00  5.5675390E-03
   7098.33  5.7082031E-03
   7098.67  5.8556382E-03
   7099.00  6.0103239E-03
   7099.33  6.1738631E-03
   7099.67  6.3459646E-03
   7100.00  6.5272882E-03
   7100.33  6.7199540E-03
   7100.67  6.9236719E-03
   7101.00  7.1393758E-03
   7101.33  7.3699454E-03
   7101.67  7.6151309E-03
   7102.00  7.8762963E-03
   7102.33  8.1574811E-03
   7102.67  8.4585607E-03
   7103.00  8.7816051E-03
   7103.33  9.1325033E-03
   7103.67  9.5114453E-03
   7104.00  9.9217214E-03
   7104.33  1.0372333E-02
   7104.67  1.0864221E-02
   7105.00  1.1402925E-02
   7105.33  1.2003051E-02
   7105.67  1.2667350E-02
   7106.00  1.3405865E-02
   7106.33  1.4244209E-02
   7106.67  1.5189787E-02
   7107.00  1.6262688E-02
   7107.33  1.7512863E-02
   7107.67  1.8961081E-02
   7108.00  2.0653608E-02
   7108.33  2.2704330E-02
   7108.67  2.5180449E-02
   7109.00  2.8214970E-02
   7109.33  3.2143948E-02
   7109.67  3.7259834E-02
   7110.00  4.4126558E-02
   7110.33  5.4275799E-02
   7110.67  6.9229436E-02
   7111.00  9.0325993E-02
   7111.33  1.1933507E-01
   7111.67  1.5946249E-01
   7112.00  2.1513923E-01
   7112.33  2.8732625E-01
   7112.67  3.6379829E-01
   7113.00  4.3450893E-01
   7113.33  4.8261543E-01
   7113.67  5.0812116E-01
   7114.00  5.0941298E-01
   7114.33  4.7213440E-01
   7114.67  4.0975299E-01
   7115.00  3.4967938E-01
   7115.33  3.1133183E-01
   7115.67  2.9255978E-01
   7116.00  2.8743516E-01
   7116.33  2.8394976E-01
   7116.67  2.7178896E-01
   7117.00  2.5162647E-01
   7117.33  2.2927226E-01
   7117.67  2.0892456E-01
   7118.00  1.9203127E-01
   7118.33  1.7934289E-01
   7118.67  1.6958719E-01
   7119.00  1.6181537E-01
   7119.33  1.5544390E-01
   7119.67  1.5010902E-01
   7120.00  1.4579976E-01
   7120.33  1.4255785E-01
   7120.67  1.4033657E-01
   7121.00  1.3955317E-01
   7121.33  1.4097717E-01
   7121.67  1.4430977E-01
   7122.00  1.4918941E-01
   7122.33  1.5552712E-01
   7122.67  1.6322397E-01
   7123.00  1.7251326E-01
   7123.33  1.8413065E-01
   7123.67  1.9879800E-01
   7124.00  2.1792414E-01
   7124.33  2.4431409E-01
   7124.67  2.7869399E-01
   7125.00  3.2042451E-01
   7125.33  3.6330509E-01
   7125.67  3.9561989E-01
   7126.00  4.1194861E-01
   7126.33  4.1735447E-01
   7126.67  4.2239438E-01
   7127.00  4.3036351E-01
   7127.33  4.4250184E-01
   7127.67  4.5900167E-01
   7128.00  4.8029749E-01
   7128.33  5.0671452E-01
   7128.67  5.3684284E-01
   7129.00  5.6993462E-01
   7129.33  6.0559733E-01
   7129.67  6.4279299E-01
   7130.00  6.8056234E-01
   7130.33  7.1692894E-01
   7130.67  7.4969826E-01
   7131.00  7.7737485E-01
   7131.33  7.9931420E-01
   7131.67  8.1799295E-01
   7132.00  8.3571285E-01
   7132.33  8.5525495E-01
   7132.67  8.7828110E-01
   7133.00  9.0537147E-01
   7133.33  9.3533971E-01
   7133.67  9.6275553E-01
   7134.00  9.8039315E-01
   7134.33  9.7743058E-01
   7134.67  9.5257721E-01
   7135.00  9.0853148E-01
   7135.33  8.5115236E-01
   7135.67  7.8960463E-01
   7136.00  7.2871476E-01
   7136.33  6.7213134E-01
   7136.67  6.2057757E-01
   7137.00  5.7419469E-01
   7137.33  5.3334881E-01
   7137.67  4.9710676E-01
   7138.00  4.6528543E-01
   7138.33  4.3835386E-01
   7138.67  4.1580091E-01
   7139.00  3.9766614E-01
   7139.33  3.8444681E-01
   7139.67  3.7538272E-01
   7140.00  3.7014925E-01
   7140.33  3.6864629E-01
   7140.67  3.6987053E-01
   7141.00  3.7332571E-01
   7141.33  3.7872312E-01
   7141.67  3.8545191E-01
   7142.00  3.9325856E-01
   7142.33  4.0202979E-01
   7142.67  4.1148474E-01
   7143.00  4.2148733E-01
   7143.33  4.3192412E-01
   7143.67  4.4257462E-01
   7144.00  4.5328352E-01
   7144.33  4.6385107E-01
   7144.67  4.7411155E-01
   7145.00  4.8391631E-01
   7145.33  4.9303105E-01
   7145.67  5.0140101E-01
   7146.00  5.0894657E-01
   7146.33  5.1552033E-01
   7146.67  5.2125213E-01
   7147.00  5.2620975E-01
   7147.33  5.3044514E-01
   7147.67  5.3421886E-01
   7148.00  5.3770921E-01
   7148.33  5.4111863E-01
   7148.67  5.4464753E-01
   7149.00  5.4842899E-01
   7149.33  5.5261535E-01
   7149.67  5.5721338E-01
   7150.00  5.6222468E-01
   7150.33  5.6765361E-01
   7150.67  5.7337396E-01
   7151.00  5.7929621E-01
   7151.33  5.8531378E-01
   7151.67  5.9129611E-01
   7152.00  5.9714542E-01
   7152.33  6.0273195E-01
   7152.67  6.0800355E-01
   7153.00  6.1290772E-01
   7153.33  6.1735160E-01
   7153.67  6.2136091E-01
   7154.00  6.2492481E-01
   7154.33  6.2798791E-01
   7154.67  6.3061567E-01
   7155.00  6.3282023E-01
   7155.33  6.3456621E-01
   7155.67  6.3591928E-01
   7156.00  6.3689020E-01
   7156.33  6.3744307E-01
   7156.67  6.3763388E-01
   7157.00  6.3747091E-01
   7157.33  6.3692176E-01
   7157.67  6.3604080E-01
   7158.00  6.3483841E-01
   7158.33  6.3328829E-01
   7158.67  6.3144108E-01
   7159.00  6.2930602E-01
   7159.33  6.2685642E-01
   7159.67  6.2413204E-01
   7160.00  6.2113407E-01
   7160.33  6.1782456E-01
   7160.67  6.1423051E-01
   7161.00  6.1034293E-01
   7161.33  6.0610995E-01
   7161.67  6.0155596E-01
   7162.00  5.9667144E-01
   7162.33  5.9141031E-01
   7162.67  5.8582282E-01
   7163.00  5.7992329E-01
   7163.33  5.7369717E-01
   7163.67  5.6721206E-01
   7164.00  5.6050154E-01
   7164.33  5.5358786E-01
   7164.67  5.4654328E-01
   7165.00  5.3941178E-01
   7165.33  5.3223812E-01
   7165.67  5.2507418E-01
   7166.00  5.1795789E-01
   7166.33  5.1093798E-01
   7166.67  5.0403476E-01
   7167.00  4.9727089E-01
   7167.33  4.9068894E-01
   7167.67  4.8428687E-01
   7168.00  4.7807721E-01
   7168.33  4.7209676E-01
   7168.67  4.6632945E-01
   7169.00  4.6078392E-01
   7169.33  4.5549853E-01
   7169.67  4.5045406E-01
   7170.00  4.4566071E-01
   7170.33  4.4116006E-01
   7170.67  4.3692856E-01
   7171.00  4.3298794E-01
   7171.33  4.2943235E-01
   7171.67  4.2632083E-01
   7172.00  4.2379555E-01
