    FDMNES
    energy     <xanes>
   7097.00  4.3264748E-03
   7097.33  4.4162391E-03
   7097.67  4.5097019E-03
   7098.00  4.6071071E-03
   7098.33  4.7093010E-03
   7098.67  4.8161033E-03
   7099.00  4.9278492E-03
   7099.33  5.0456483E-03
   7099.67  5.1693222E-03
   7100.00  5.2993473E-03
   7100.33  5.4372241E-03
   7100.67  5.5827998E-03
   7101.00  5.7367768E-03
   7101.33  5.9012624E-03
   7101.67  6.0761816E-03
   7102.00  6.2626181E-03
   7102.33  6.4636689E-03
   7102.67  6.6794563E-03
   7103.00  6.9117444E-03
   7103.33  7.1653485E-03
   7103.67  7.4408688E-03
   7104.00  7.7413736E-03
   7104.33  8.0748973E-03
   7104.67  8.4432239E-03
   7105.00  8.8521566E-03
   7105.33  9.3163670E-03
   7105.67  9.8407796E-03
   7106.00  1.0437634E-02
   7106.33  1.1137127E-02
   7106.67  1.1953531E-02
   7107.00  1.2916791E-02
   7107.33  1.4100295E-02
   7107.67  1.5551593E-02
   7108.00  1.7361497E-02
   7108.33  1.9758168E-02
   7108.67  2.2945881E-02
   7109.00  2.7308785E-02
   7109.33  3.3895630E-02
   7109.67  4.4047261E-02
   7110.00  6.0435428E-02
   7110.33  9.0661544E-02
   7110.67  1.3946399E-01
   7111.00  1.9115447E-01
   7111.33  2.0092215E-01
   7111.67  1.9465245E-01
   7112.00  1.9255820E-01
   7112.33  1.8544288E-01
   7112.67  1.6549414E-01
   7113.00  1.3734758E-01
   7113.33  1.1266893E-01
   7113.67  9.5474802E-02
   7114.00  8.5888901E-02
   7114.33  8.2181353E-02
   7114.67  7.5635333E-02
   7115.00  6.3533784E-02
   7115.33  5.2458688E-02
   7115.67  4.5045187E-02
   7116.00  4.0529653E-02
   7116.33  3.8102608E-02
   7116.67  3.6879932E-02
   7117.00  3.6498980E-02
   7117.33  3.6745218E-02
   7117.67  3.7416469E-02
   7118.00  3.8504540E-02
   7118.33  4.0092585E-02
   7118.67  4.2114841E-02
   7119.00  4.4544239E-02
   7119.33  4.7494501E-02
   7119.67  5.1128993E-02
   7120.00  5.5729926E-02
   7120.33  6.1818937E-02
   7120.67  6.9569599E-02
   7121.00  7.9202131E-02
   7121.33  9.0984017E-02
   7121.67  1.0438448E-01
   7122.00  1.1914692E-01
   7122.33  1.3572315E-01
   7122.67  1.5479082E-01
   7123.00  1.7722112E-01
   7123.33  2.0429596E-01
   7123.67  2.3590054E-01
   7124.00  2.7198447E-01
   7124.33  3.1182348E-01
   7124.67  3.5225940E-01
   7125.00  3.9076572E-01
   7125.33  4.2619837E-01
   7125.67  4.5918758E-01
   7126.00  4.8892320E-01
   7126.33  5.1418722E-01
   7126.67  5.3556651E-01
   7127.00  5.5373056E-01
   7127.33  5.7130913E-01
   7127.67  5.9183926E-01
   7128.00  6.1755248E-01
   7128.33  6.5211608E-01
   7128.67  6.9679569E-01
   7129.00  7.5093260E-01
   7129.33  8.1085827E-01
   7129.67  8.7098779E-01
   7130.00  9.2799814E-01
   7130.33  9.7661809E-01
   7130.67  1.0111825E+00
   7131.00  1.0240947E+00
   7131.33  1.0042147E+00
   7131.67  9.5574933E-01
   7132.00  8.8811284E-01
   7132.33  8.1745182E-01
   7132.67  7.5789743E-01
   7133.00  7.1514749E-01
   7133.33  6.9084421E-01
   7133.67  6.7755537E-01
   7134.00  6.7027464E-01
   7134.33  6.6714548E-01
   7134.67  6.6854145E-01
   7135.00  6.7533229E-01
   7135.33  6.8806932E-01
   7135.67  7.0479076E-01
   7136.00  7.2355304E-01
   7136.33  7.4150234E-01
   7136.67  7.5629986E-01
   7137.00  7.6672335E-01
   7137.33  7.7192732E-01
   7137.67  7.7308892E-01
   7138.00  7.7098291E-01
   7138.33  7.6615580E-01
   7138.67  7.5957314E-01
   7139.00  7.5167129E-01
   7139.33  7.4275379E-01
   7139.67  7.3329073E-01
   7140.00  7.2354758E-01
   7140.33  7.1377179E-01
   7140.67  7.0414578E-01
   7141.00  6.9476870E-01
   7141.33  6.8574802E-01
   7141.67  6.7706088E-01
   7142.00  6.6869172E-01
   7142.33  6.6064605E-01
   7142.67  6.5285847E-01
   7143.00  6.4531145E-01
   7143.33  6.3802325E-01
   7143.67  6.3095887E-01
   7144.00  6.2410610E-01
   7144.33  6.1744862E-01
   7144.67  6.1088955E-01
   7145.00  6.0433261E-01
   7145.33  5.9762018E-01
   7145.67  5.9062097E-01
   7146.00  5.8322223E-01
   7146.33  5.7527003E-01
   7146.67  5.6679020E-01
   7147.00  5.5779940E-01
   7147.33  5.4830476E-01
   7147.67  5.3845917E-01
   7148.00  5.2836041E-01
   7148.33  5.1809770E-01
   7148.67  5.0777122E-01
   7149.00  4.9743472E-01
   7149.33  4.8714318E-01
   7149.67  4.7693062E-01
   7150.00  4.6682263E-01
   7150.33  4.5685136E-01
   7150.67  4.4700882E-01
   7151.00  4.3729824E-01
   7151.33  4.2774101E-01
   7151.67  4.1832995E-01
   7152.00  4.0908005E-01
   7152.33  4.0003829E-01
   7152.67  3.9120840E-01
   7153.00  3.8261157E-01
   7153.33  3.7430019E-01
   7153.67  3.6625936E-01
   7154.00  3.5850178E-01
   7154.33  3.5107739E-01
   7154.67  3.4395582E-01
   7155.00  3.3712768E-01
   7155.33  3.3058913E-01
   7155.67  3.2424552E-01
   7156.00  3.1802132E-01
   7156.33  3.1181451E-01
   7156.67  3.0551830E-01
   7157.00  2.9906242E-01
   7157.33  2.9240581E-01
   7157.67  2.8563241E-01
   7158.00  2.7885343E-01
   7158.33  2.7227111E-01
   7158.67  2.6607357E-01
   7159.00  2.6044307E-01
   7159.33  2.5566671E-01
   7159.67  2.5180526E-01
   7160.00  2.4895768E-01
   7160.33  2.4733064E-01
   7160.67  2.4681484E-01
   7161.00  2.4740287E-01
   7161.33  2.4919292E-01
   7161.67  2.5199732E-01
   7162.00  2.5575765E-01
   7162.33  2.6051120E-01
   7162.67  2.6606615E-01
   7163.00  2.7233451E-01
   7163.33  2.7929442E-01
   7163.67  2.8677860E-01
   7164.00  2.9470579E-01
   7164.33  3.0301915E-01
   7164.67  3.1157316E-01
   7165.00  3.2028000E-01
   7165.33  3.2904742E-01
   7165.67  3.3777352E-01
   7166.00  3.4638268E-01
   7166.33  3.5477649E-01
   7166.67  3.6292231E-01
   7167.00  3.7078664E-01
   7167.33  3.7830982E-01
   7167.67  3.8552318E-01
   7168.00  3.9242920E-01
   7168.33  3.9899834E-01
   7168.67  4.0527592E-01
   7169.00  4.1126525E-01
   7169.33  4.1692717E-01
   7169.67  4.2228664E-01
   7170.00  4.2732737E-01
   7170.33  4.3198216E-01
   7170.67  4.3626540E-01
   7171.00  4.4014908E-01
   7171.33  4.4353602E-01
   7171.67  4.4641435E-01
   7172.00  4.4870224E-01
