    FDMNES
    energy     <xanes>
   7097.00  5.1294211E-03
   7097.33  5.2526840E-03
   7097.67  5.3815506E-03
   7098.00  5.5163960E-03
   7098.33  5.6585102E-03
   7098.67  5.8076217E-03
   7099.00  5.9642388E-03
   7099.33  6.1300404E-03
   7099.67  6.3047443E-03
   7100.00  6.4890569E-03
   7100.33  6.6852173E-03
   7100.67  6.8929549E-03
   7101.00  7.1132799E-03
   7101.33  7.3492670E-03
   7101.67  7.6007066E-03
   7102.00  7.8690953E-03
   7102.33  8.1588046E-03
   7102.67  8.4697967E-03
   7103.00  8.8043842E-03
   7103.33  9.1690534E-03
   7103.67  9.5641889E-03
   7104.00  9.9935556E-03
   7104.33  1.0467307E-02
   7104.67  1.0986845E-02
   7105.00  1.1558719E-02
   7105.33  1.2199959E-02
   7105.67  1.2914514E-02
   7106.00  1.3714816E-02
   7106.33  1.4632203E-02
   7106.67  1.5677569E-02
   7107.00  1.6877535E-02
   7107.33  1.8297877E-02
   7107.67  1.9971389E-02
   7108.00  2.1966149E-02
   7108.33  2.4450839E-02
   7108.67  2.7545885E-02
   7109.00  3.1482346E-02
   7109.33  3.6863332E-02
   7109.67  4.4327940E-02
   7110.00  5.5127575E-02
   7110.33  7.2857102E-02
   7110.67  1.0164513E-01
   7111.00  1.4422993E-01
   7111.33  1.8976431E-01
   7111.67  2.1844867E-01
   7112.00  2.3757781E-01
   7112.33  2.6954114E-01
   7112.67  3.0956663E-01
   7113.00  3.4520932E-01
   7113.33  3.7865445E-01
   7113.67  4.1342955E-01
   7114.00  4.3655511E-01
   7114.33  4.3367066E-01
   7114.67  4.1132582E-01
   7115.00  3.8138973E-01
   7115.33  3.6104418E-01
   7115.67  3.5353461E-01
   7116.00  3.5074423E-01
   7116.33  3.3864867E-01
   7116.67  3.1543419E-01
   7117.00  2.8607382E-01
   7117.33  2.5638430E-01
   7117.67  2.2988591E-01
   7118.00  2.0784196E-01
   7118.33  1.9086992E-01
   7118.67  1.7766806E-01
   7119.00  1.6734484E-01
   7119.33  1.5902320E-01
   7119.67  1.5161850E-01
   7120.00  1.4482478E-01
   7120.33  1.3896029E-01
   7120.67  1.3459459E-01
   7121.00  1.3240803E-01
   7121.33  1.3311595E-01
   7121.67  1.3605703E-01
   7122.00  1.4055876E-01
   7122.33  1.4601137E-01
   7122.67  1.5197544E-01
   7123.00  1.5846762E-01
   7123.33  1.6580843E-01
   7123.67  1.7426239E-01
   7124.00  1.8420437E-01
   7124.33  1.9637301E-01
   7124.67  2.1105862E-01
   7125.00  2.2872619E-01
   7125.33  2.5022131E-01
   7125.67  2.7512441E-01
   7126.00  3.0278122E-01
   7126.33  3.3145865E-01
   7126.67  3.5830727E-01
   7127.00  3.8118954E-01
   7127.33  3.9865338E-01
   7127.67  4.1265269E-01
   7128.00  4.2545493E-01
   7128.33  4.4001083E-01
   7128.67  4.5836310E-01
   7129.00  4.8178402E-01
   7129.33  5.1149447E-01
   7129.67  5.4615594E-01
   7130.00  5.8459638E-01
   7130.33  6.2559575E-01
   7130.67  6.6740120E-01
   7131.00  7.0876332E-01
   7131.33  7.4795770E-01
   7131.67  7.8390503E-01
   7132.00  8.1593870E-01
   7132.33  8.4377895E-01
   7132.67  8.6930390E-01
   7133.00  8.9458975E-01
   7133.33  9.2284896E-01
   7133.67  9.5600391E-01
   7134.00  9.9404135E-01
   7134.33  1.0322543E+00
   7134.67  1.0591908E+00
   7135.00  1.0620651E+00
   7135.33  1.0279768E+00
   7135.67  9.6633344E-01
   7136.00  8.8958422E-01
   7136.33  8.1116042E-01
   7136.67  7.3889565E-01
   7137.00  6.7511856E-01
   7137.33  6.2104348E-01
   7137.67  5.7470545E-01
   7138.00  5.3524419E-01
   7138.33  5.0259985E-01
   7138.67  4.7543947E-01
   7139.00  4.5340149E-01
   7139.33  4.3670707E-01
   7139.67  4.2437218E-01
   7140.00  4.1600757E-01
   7140.33  4.1151376E-01
   7140.67  4.0988726E-01
   7141.00  4.1064951E-01
   7141.33  4.1354948E-01
   7141.67  4.1797033E-01
   7142.00  4.2368196E-01
   7142.33  4.3065444E-01
   7142.67  4.3865240E-01
   7143.00  4.4762025E-01
   7143.33  4.5758707E-01
   7143.67  4.6828920E-01
   7144.00  4.7950471E-01
   7144.33  4.9086816E-01
   7144.67  5.0186952E-01
   7145.00  5.1204796E-01
   7145.33  5.2075919E-01
   7145.67  5.2784591E-01
   7146.00  5.3320922E-01
   7146.33  5.3673900E-01
   7146.67  5.3891365E-01
   7147.00  5.4005634E-01
   7147.33  5.4049554E-01
   7147.67  5.4068905E-01
   7148.00  5.4091085E-01
   7148.33  5.4143918E-01
   7148.67  5.4240467E-01
   7149.00  5.4389640E-01
   7149.33  5.4603382E-01
   7149.67  5.4873053E-01
   7150.00  5.5194015E-01
   7150.33  5.5564339E-01
   7150.67  5.5970111E-01
   7151.00  5.6404001E-01
   7151.33  5.6860422E-01
   7151.67  5.7329403E-01
   7152.00  5.7804807E-01
   7152.33  5.8279201E-01
   7152.67  5.8744600E-01
   7153.00  5.9193068E-01
   7153.33  5.9610671E-01
   7153.67  5.9989772E-01
   7154.00  6.0321570E-01
   7154.33  6.0591044E-01
   7154.67  6.0800289E-01
   7155.00  6.0948076E-01
   7155.33  6.1028717E-01
   7155.67  6.1054229E-01
   7156.00  6.1030053E-01
   7156.33  6.0958160E-01
   7156.67  6.0851363E-01
   7157.00  6.0715821E-01
   7157.33  6.0555285E-01
   7157.67  6.0378200E-01
   7158.00  6.0188683E-01
   7158.33  5.9989557E-01
   7158.67  5.9784834E-01
   7159.00  5.9576367E-01
   7159.33  5.9365309E-01
   7159.67  5.9152680E-01
   7160.00  5.8938553E-01
   7160.33  5.8722049E-01
   7160.67  5.8502086E-01
   7161.00  5.8276956E-01
   7161.33  5.8042973E-01
   7161.67  5.7797615E-01
   7162.00  5.7537313E-01
   7162.33  5.7254887E-01
   7162.67  5.6947607E-01
   7163.00  5.6610591E-01
   7163.33  5.6233262E-01
   7163.67  5.5814605E-01
   7164.00  5.5350736E-01
   7164.33  5.4831999E-01
   7164.67  5.4262350E-01
   7165.00  5.3641381E-01
   7165.33  5.2964233E-01
   7165.67  5.2240739E-01
   7166.00  5.1475663E-01
   7166.33  5.0671790E-01
   7166.67  4.9841905E-01
   7167.00  4.8994004E-01
   7167.33  4.8136469E-01
   7167.67  4.7279578E-01
   7168.00  4.6430915E-01
   7168.33  4.5600758E-01
   7168.67  4.4794413E-01
   7169.00  4.4017419E-01
   7169.33  4.3279762E-01
   7169.67  4.2581960E-01
   7170.00  4.1927761E-01
   7170.33  4.1326879E-01
   7170.67  4.0776386E-01
   7171.00  4.0279026E-01
   7171.33  3.9846444E-01
   7171.67  3.9479473E-01
   7172.00  3.9188320E-01
