    FDMNES
    energy     <xanes>
   7097.00  5.2502218E-03
   7097.33  5.3807293E-03
   7097.67  5.5173817E-03
   7098.00  5.6606027E-03
   7098.33  5.8118274E-03
   7098.67  5.9707744E-03
   7099.00  6.1380217E-03
   7099.33  6.3154501E-03
   7099.67  6.5027714E-03
   7100.00  6.7007935E-03
   7100.33  6.9120442E-03
   7100.67  7.1362557E-03
   7101.00  7.3745914E-03
   7101.33  7.6305500E-03
   7101.67  7.9039448E-03
   7102.00  8.1965113E-03
   7102.33  8.5132648E-03
   7102.67  8.8542343E-03
   7103.00  9.2221201E-03
   7103.33  9.6244264E-03
   7103.67  1.0061701E-02
   7104.00  1.0538369E-02
   7104.33  1.1066275E-02
   7104.67  1.1647204E-02
   7105.00  1.2288902E-02
   7105.33  1.3011391E-02
   7105.67  1.3819534E-02
   7106.00  1.4728109E-02
   7106.33  1.5774222E-02
   7106.67  1.6971090E-02
   7107.00  1.8350488E-02
   7107.33  1.9990729E-02
   7107.67  2.1931328E-02
   7108.00  2.4253768E-02
   7108.33  2.7159762E-02
   7108.67  3.0794287E-02
   7109.00  3.5435167E-02
   7109.33  4.1808947E-02
   7109.67  5.0692670E-02
   7110.00  6.3610363E-02
   7110.33  8.4910345E-02
   7110.67  1.1906914E-01
   7111.00  1.6657662E-01
   7111.33  2.1097297E-01
   7111.67  2.4444341E-01
   7112.00  2.7960933E-01
   7112.33  3.3662703E-01
   7112.67  4.0891885E-01
   7113.00  4.8391542E-01
   7113.33  5.5108782E-01
   7113.67  5.8017657E-01
   7114.00  5.4850883E-01
   7114.33  4.7169705E-01
   7114.67  3.9401294E-01
   7115.00  3.3512863E-01
   7115.33  3.0208301E-01
   7115.67  2.8804122E-01
   7116.00  2.8691173E-01
   7116.33  2.8769318E-01
   7116.67  2.7948365E-01
   7117.00  2.6079137E-01
   7117.33  2.3630503E-01
   7117.67  2.1207313E-01
   7118.00  1.9056086E-01
   7118.33  1.7315397E-01
   7118.67  1.5928880E-01
   7119.00  1.4857128E-01
   7119.33  1.4067679E-01
   7119.67  1.3453278E-01
   7120.00  1.2958291E-01
   7120.33  1.2569117E-01
   7120.67  1.2300653E-01
   7121.00  1.2196977E-01
   7121.33  1.2304791E-01
   7121.67  1.2569589E-01
   7122.00  1.2945562E-01
   7122.33  1.3404686E-01
   7122.67  1.3925003E-01
   7123.00  1.4507220E-01
   7123.33  1.5168874E-01
   7123.67  1.5913710E-01
   7124.00  1.6752647E-01
   7124.33  1.7709284E-01
   7124.67  1.8775092E-01
   7125.00  1.9945207E-01
   7125.33  2.1210129E-01
   7125.67  2.2525513E-01
   7126.00  2.3859546E-01
   7126.33  2.5184365E-01
   7126.67  2.6494790E-01
   7127.00  2.7804332E-01
   7127.33  2.9161114E-01
   7127.67  3.0630506E-01
   7128.00  3.2279547E-01
   7128.33  3.4198629E-01
   7128.67  3.6388276E-01
   7129.00  3.8864002E-01
   7129.33  4.1723889E-01
   7129.67  4.5067833E-01
   7130.00  4.9086218E-01
   7130.33  5.4148386E-01
   7130.67  6.0344094E-01
   7131.00  6.7726867E-01
   7131.33  7.6235079E-01
   7131.67  8.5241734E-01
   7132.00  9.4140307E-01
   7132.33  1.0217004E+00
   7132.67  1.0903441E+00
   7133.00  1.1459415E+00
   7133.33  1.1844024E+00
   7133.67  1.2025360E+00
   7134.00  1.1951073E+00
   7134.33  1.1566167E+00
   7134.67  1.0954321E+00
   7135.00  1.0194721E+00
   7135.33  9.3739939E-01
   7135.67  8.5676625E-01
   7136.00  7.8112024E-01
   7136.33  7.1341411E-01
   7136.67  6.5348529E-01
   7137.00  6.0140287E-01
   7137.33  5.5793546E-01
   7137.67  5.2183049E-01
   7138.00  4.9279619E-01
   7138.33  4.7125461E-01
   7138.67  4.5583626E-01
   7139.00  4.4595784E-01
   7139.33  4.4140709E-01
   7139.67  4.4070403E-01
   7140.00  4.4307576E-01
   7140.33  4.4796185E-01
   7140.67  4.5437238E-01
   7141.00  4.6182971E-01
   7141.33  4.7001343E-01
   7141.67  4.7858317E-01
   7142.00  4.8739632E-01
   7142.33  4.9635051E-01
   7142.67  5.0531839E-01
   7143.00  5.1418134E-01
   7143.33  5.2272368E-01
   7143.67  5.3076149E-01
   7144.00  5.3809433E-01
   7144.33  5.4439719E-01
   7144.67  5.4963701E-01
   7145.00  5.5375918E-01
   7145.33  5.5664988E-01
   7145.67  5.5854196E-01
   7146.00  5.5956113E-01
   7146.33  5.5979927E-01
   7146.67  5.5953332E-01
   7147.00  5.5892034E-01
   7147.33  5.5810224E-01
   7147.67  5.5724062E-01
   7148.00  5.5643235E-01
   7148.33  5.5578646E-01
   7148.67  5.5535998E-01
   7149.00  5.5519984E-01
   7149.33  5.5537752E-01
   7149.67  5.5587961E-01
   7150.00  5.5671826E-01
   7150.33  5.5793917E-01
   7150.67  5.5949718E-01
   7151.00  5.6138750E-01
   7151.33  5.6364356E-01
   7151.67  5.6621636E-01
   7152.00  5.6909871E-01
   7152.33  5.7232107E-01
   7152.67  5.7583901E-01
   7153.00  5.7964507E-01
   7153.33  5.8376109E-01
   7153.67  5.8813458E-01
   7154.00  5.9274326E-01
   7154.33  5.9757355E-01
   7154.67  6.0254453E-01
   7155.00  6.0759065E-01
   7155.33  6.1261144E-01
   7155.67  6.1749037E-01
   7156.00  6.2211171E-01
   7156.33  6.2628487E-01
   7156.67  6.2992472E-01
   7157.00  6.3293000E-01
   7157.33  6.3511879E-01
   7157.67  6.3652575E-01
   7158.00  6.3713210E-01
   7158.33  6.3684877E-01
   7158.67  6.3581189E-01
   7159.00  6.3406915E-01
   7159.33  6.3160720E-01
   7159.67  6.2857715E-01
   7160.00  6.2503842E-01
   7160.33  6.2099691E-01
   7160.67  6.1655898E-01
   7161.00  6.1175788E-01
   7161.33  6.0657737E-01
   7161.67  6.0107122E-01
   7162.00  5.9523875E-01
   7162.33  5.8902605E-01
   7162.67  5.8245602E-01
   7163.00  5.7551154E-01
   7163.33  5.6812886E-01
   7163.67  5.6035132E-01
   7164.00  5.5218468E-01
   7164.33  5.4360260E-01
   7164.67  5.3468577E-01
   7165.00  5.2547493E-01
   7165.33  5.1599999E-01
   7165.67  5.0635983E-01
   7166.00  4.9661991E-01
   7166.33  4.8685794E-01
   7166.67  4.7715716E-01
   7167.00  4.6758453E-01
   7167.33  4.5823873E-01
   7167.67  4.4916294E-01
   7168.00  4.4041047E-01
   7168.33  4.3208275E-01
   7168.67  4.2417983E-01
   7169.00  4.1673760E-01
   7169.33  4.0985013E-01
   7169.67  4.0347481E-01
   7170.00  3.9762098E-01
   7170.33  3.9236119E-01
   7170.67  3.8763344E-01
   7171.00  3.8344156E-01
   7171.33  3.7986558E-01
   7171.67  3.7686964E-01
   7172.00  3.7449987E-01
