    FDMNES
    energy     <xanes>
   7097.00  4.5451295E-03
   7097.33  4.6470340E-03
   7097.67  4.7535791E-03
   7098.00  4.8650910E-03
   7098.33  4.9826650E-03
   7098.67  5.1060996E-03
   7099.00  5.2358458E-03
   7099.33  5.3733548E-03
   7099.67  5.5184295E-03
   7100.00  5.6717123E-03
   7100.33  5.8351818E-03
   7100.67  6.0086755E-03
   7101.00  6.1931395E-03
   7101.33  6.3913664E-03
   7101.67  6.6032940E-03
   7102.00  6.8303737E-03
   7102.33  7.0767135E-03
   7102.67  7.3424978E-03
   7103.00  7.6300659E-03
   7103.33  7.9457752E-03
   7103.67  8.2903962E-03
   7104.00  8.6679347E-03
   7104.33  9.0888742E-03
   7104.67  9.5554077E-03
   7105.00  1.0074942E-02
   7105.33  1.0666236E-02
   7105.67  1.1335161E-02
   7106.00  1.2096861E-02
   7106.33  1.2988770E-02
   7106.67  1.4027347E-02
   7107.00  1.5248135E-02
   7107.33  1.6738145E-02
   7107.67  1.8549908E-02
   7108.00  2.0785351E-02
   7108.33  2.3698587E-02
   7108.67  2.7502231E-02
   7109.00  3.2596076E-02
   7109.33  4.0052234E-02
   7109.67  5.1161271E-02
   7110.00  6.8472827E-02
   7110.33  9.9287667E-02
   7110.67  1.4981922E-01
   7111.00  2.1364293E-01
   7111.33  2.5785658E-01
   7111.67  2.8165976E-01
   7112.00  2.9051443E-01
   7112.33  2.8635801E-01
   7112.67  2.7532199E-01
   7113.00  2.5762406E-01
   7113.33  2.3040919E-01
   7113.67  2.0000888E-01
   7114.00  1.7275923E-01
   7114.33  1.5415164E-01
   7114.67  1.4474022E-01
   7115.00  1.4295352E-01
   7115.33  1.4248945E-01
   7115.67  1.3724559E-01
   7116.00  1.2864761E-01
   7116.33  1.2069482E-01
   7116.67  1.1459830E-01
   7117.00  1.1010228E-01
   7117.33  1.0674803E-01
   7117.67  1.0416558E-01
   7118.00  1.0258122E-01
   7118.33  1.0243745E-01
   7118.67  1.0393857E-01
   7119.00  1.0764416E-01
   7119.33  1.1397749E-01
   7119.67  1.2039040E-01
   7120.00  1.2414355E-01
   7120.33  1.2594651E-01
   7120.67  1.2863717E-01
   7121.00  1.3286306E-01
   7121.33  1.3885302E-01
   7121.67  1.4698786E-01
   7122.00  1.5790018E-01
   7122.33  1.7175929E-01
   7122.67  1.8694175E-01
   7123.00  2.0198631E-01
   7123.33  2.1585415E-01
   7123.67  2.2924145E-01
   7124.00  2.4310238E-01
   7124.33  2.5791819E-01
   7124.67  2.7292580E-01
   7125.00  2.8710674E-01
   7125.33  2.9925262E-01
   7125.67  3.0974388E-01
   7126.00  3.1988530E-01
   7126.33  3.3202202E-01
   7126.67  3.4731130E-01
   7127.00  3.6536018E-01
   7127.33  3.8352686E-01
   7127.67  3.9812811E-01
   7128.00  4.0732691E-01
   7128.33  4.1107316E-01
   7128.67  4.1178646E-01
   7129.00  4.1055116E-01
   7129.33  4.0775690E-01
   7129.67  4.0415691E-01
   7130.00  4.0061775E-01
   7130.33  3.9840180E-01
   7130.67  3.9812185E-01
   7131.00  4.0006485E-01
   7131.33  4.0456351E-01
   7131.67  4.1120582E-01
   7132.00  4.1979482E-01
   7132.33  4.3024440E-01
   7132.67  4.4202732E-01
   7133.00  4.5487554E-01
   7133.33  4.6858037E-01
   7133.67  4.8269238E-01
   7134.00  4.9679632E-01
   7134.33  5.1012670E-01
   7134.67  5.2193733E-01
   7135.00  5.3155752E-01
   7135.33  5.3815633E-01
   7135.67  5.4202815E-01
   7136.00  5.4349116E-01
   7136.33  5.4296422E-01
   7136.67  5.4141443E-01
   7137.00  5.3945794E-01
   7137.33  5.3775045E-01
   7137.67  5.3676844E-01
   7138.00  5.3685012E-01
   7138.33  5.3848254E-01
   7138.67  5.4173323E-01
   7139.00  5.4674503E-01
   7139.33  5.5383658E-01
   7139.67  5.6277486E-01
   7140.00  5.7348471E-01
   7140.33  5.8599258E-01
   7140.67  5.9983316E-01
   7141.00  6.1470808E-01
   7141.33  6.3028026E-01
   7141.67  6.4601582E-01
   7142.00  6.6152345E-01
   7142.33  6.7631600E-01
   7142.67  6.9015811E-01
   7143.00  7.0287058E-01
   7143.33  7.1418743E-01
   7143.67  7.2422679E-01
   7144.00  7.3300834E-01
   7144.33  7.4043810E-01
   7144.67  7.4670141E-01
   7145.00  7.5180981E-01
   7145.33  7.5563949E-01
   7145.67  7.5836693E-01
   7146.00  7.6003935E-01
   7146.33  7.6061590E-01
   7146.67  7.6032852E-01
   7147.00  7.5929254E-01
   7147.33  7.5758406E-01
   7147.67  7.5543497E-01
   7148.00  7.5297569E-01
   7148.33  7.5032168E-01
   7148.67  7.4760839E-01
   7149.00  7.4491013E-01
   7149.33  7.4228962E-01
   7149.67  7.3975381E-01
   7150.00  7.3728479E-01
   7150.33  7.3482929E-01
   7150.67  7.3230223E-01
   7151.00  7.2961800E-01
   7151.33  7.2664139E-01
   7151.67  7.2331379E-01
   7152.00  7.1957794E-01
   7152.33  7.1534676E-01
   7152.67  7.1068316E-01
   7153.00  7.0562300E-01
   7153.33  7.0019343E-01
   7153.67  6.9452263E-01
   7154.00  6.8869264E-01
   7154.33  6.8279129E-01
   7154.67  6.7691561E-01
   7155.00  6.7113151E-01
   7155.33  6.6551539E-01
   7155.67  6.6008087E-01
   7156.00  6.5483276E-01
   7156.33  6.4976754E-01
   7156.67  6.4480994E-01
   7157.00  6.3989189E-01
   7157.33  6.3491363E-01
   7157.67  6.2979158E-01
   7158.00  6.2446545E-01
   7158.33  6.1886819E-01
   7158.67  6.1303438E-01
   7159.00  6.0699286E-01
   7159.33  6.0076944E-01
   7159.67  5.9443755E-01
   7160.00  5.8804648E-01
   7160.33  5.8164707E-01
   7160.67  5.7528480E-01
   7161.00  5.6899093E-01
   7161.33  5.6280639E-01
   7161.67  5.5674349E-01
   7162.00  5.5082029E-01
   7162.33  5.4507363E-01
   7162.67  5.3949968E-01
   7163.00  5.3411192E-01
   7163.33  5.2895116E-01
   7163.67  5.2400885E-01
   7164.00  5.1930067E-01
   7164.33  5.1487685E-01
   7164.67  5.1072295E-01
   7165.00  5.0685026E-01
   7165.33  5.0330118E-01
   7165.67  5.0003711E-01
   7166.00  4.9704248E-01
   7166.33  4.9431169E-01
   7166.67  4.9176753E-01
   7167.00  4.8936243E-01
   7167.33  4.8704993E-01
   7167.67  4.8476936E-01
   7168.00  4.8248792E-01
   7168.33  4.8018036E-01
   7168.67  4.7784550E-01
   7169.00  4.7549337E-01
   7169.33  4.7314818E-01
   7169.67  4.7084018E-01
   7170.00  4.6859808E-01
   7170.33  4.6646614E-01
   7170.67  4.6446113E-01
   7171.00  4.6260673E-01
   7171.33  4.6095633E-01
   7171.67  4.5953136E-01
   7172.00  4.5838360E-01
