    FDMNES
    energy     <xanes>
   7097.00  4.0987572E-03
   7097.33  4.1794548E-03
   7097.67  4.2632619E-03
   7098.00  4.3503712E-03
   7098.33  4.4414742E-03
   7098.67  4.5364028E-03
   7099.00  4.6354187E-03
   7099.33  4.7394150E-03
   7099.67  4.8482204E-03
   7100.00  4.9622015E-03
   7100.33  5.0825465E-03
   7100.67  5.2090965E-03
   7101.00  5.3423843E-03
   7101.33  5.4840493E-03
   7101.67  5.6339804E-03
   7102.00  5.7929863E-03
   7102.33  5.9634315E-03
   7102.67  6.1453333E-03
   7103.00  6.3399864E-03
   7103.33  6.5509933E-03
   7103.67  6.7786892E-03
   7104.00  7.0252863E-03
   7104.33  7.2966659E-03
   7104.67  7.5939547E-03
   7105.00  7.9212566E-03
   7105.33  8.2890633E-03
   7105.67  8.7005900E-03
   7106.00  9.1643093E-03
   7106.33  9.7012691E-03
   7106.67  1.0320820E-02
   7107.00  1.1043186E-02
   7107.33  1.1918044E-02
   7107.67  1.2976127E-02
   7108.00  1.4276914E-02
   7108.33  1.5969338E-02
   7108.67  1.8181654E-02
   7109.00  2.1155114E-02
   7109.33  2.5541443E-02
   7109.67  3.2145299E-02
   7110.00  4.2563393E-02
   7110.33  6.1406417E-02
   7110.67  9.2674706E-02
   7111.00  1.3164037E-01
   7111.33  1.5148160E-01
   7111.67  1.5563339E-01
   7112.00  1.4975189E-01
   7112.33  1.2863314E-01
   7112.67  1.0759280E-01
   7113.00  9.4646593E-02
   7113.33  9.2957925E-02
   7113.67  9.8845970E-02
   7114.00  1.0934137E-01
   7114.33  1.1654737E-01
   7114.67  1.0892234E-01
   7115.00  8.9539587E-02
   7115.33  7.0545254E-02
   7115.67  5.5784727E-02
   7116.00  4.5947579E-02
   7116.33  4.0324239E-02
   7116.67  3.7056361E-02
   7117.00  3.5360111E-02
   7117.33  3.4710627E-02
   7117.67  3.4517109E-02
   7118.00  3.4605667E-02
   7118.33  3.5104259E-02
   7118.67  3.6121657E-02
   7119.00  3.7744690E-02
   7119.33  4.0132841E-02
   7119.67  4.3292463E-02
   7120.00  4.7338075E-02
   7120.33  5.2601058E-02
   7120.67  5.9233231E-02
   7121.00  6.7576598E-02
   7121.33  7.8439365E-02
   7121.67  9.2128955E-02
   7122.00  1.0903312E-01
   7122.33  1.2957538E-01
   7122.67  1.5241816E-01
   7123.00  1.7620314E-01
   7123.33  2.0097653E-01
   7123.67  2.2817197E-01
   7124.00  2.5733841E-01
   7124.33  2.8575809E-01
   7124.67  3.1162524E-01
   7125.00  3.3556374E-01
   7125.33  3.5893981E-01
   7125.67  3.8187450E-01
   7126.00  4.0437982E-01
   7126.33  4.2689516E-01
   7126.67  4.4987016E-01
   7127.00  4.7368985E-01
   7127.33  4.9833018E-01
   7127.67  5.2214693E-01
   7128.00  5.4419903E-01
   7128.33  5.6722598E-01
   7128.67  5.9577466E-01
   7129.00  6.3188883E-01
   7129.33  6.7461244E-01
   7129.67  7.1779164E-01
   7130.00  7.5618098E-01
   7130.33  7.8589154E-01
   7130.67  8.0930494E-01
   7131.00  8.2918199E-01
   7131.33  8.4785122E-01
   7131.67  8.6616908E-01
   7132.00  8.8360636E-01
   7132.33  8.9876310E-01
   7132.67  9.1086244E-01
   7133.00  9.1923961E-01
   7133.33  9.2258393E-01
   7133.67  9.2072946E-01
   7134.00  9.1341487E-01
   7134.33  9.0049882E-01
   7134.67  8.8374644E-01
   7135.00  8.6423230E-01
   7135.33  8.4274565E-01
   7135.67  8.2025938E-01
   7136.00  7.9733017E-01
   7136.33  7.7461967E-01
   7136.67  7.5274306E-01
   7137.00  7.3222478E-01
   7137.33  7.1383250E-01
   7137.67  6.9771543E-01
   7138.00  6.8403968E-01
   7138.33  6.7306638E-01
   7138.67  6.6420486E-01
   7139.00  6.5704057E-01
   7139.33  6.5112129E-01
   7139.67  6.4572423E-01
   7140.00  6.4044947E-01
   7140.33  6.3500927E-01
   7140.67  6.2938812E-01
   7141.00  6.2371927E-01
   7141.33  6.1830533E-01
   7141.67  6.1343751E-01
   7142.00  6.0936522E-01
   7142.33  6.0641583E-01
   7142.67  6.0453210E-01
   7143.00  6.0365113E-01
   7143.33  6.0366801E-01
   7143.67  6.0416936E-01
   7144.00  6.0483956E-01
   7144.33  6.0530801E-01
   7144.67  6.0533985E-01
   7145.00  6.0480968E-01
   7145.33  6.0363568E-01
   7145.67  6.0201503E-01
   7146.00  6.0011954E-01
   7146.33  5.9814612E-01
   7146.67  5.9626052E-01
   7147.00  5.9454125E-01
   7147.33  5.9303944E-01
   7147.67  5.9168647E-01
   7148.00  5.9039230E-01
   7148.33  5.8902792E-01
   7148.67  5.8748593E-01
   7149.00  5.8567720E-01
   7149.33  5.8347670E-01
   7149.67  5.8086006E-01
   7150.00  5.7776281E-01
   7150.33  5.7401775E-01
   7150.67  5.6957918E-01
   7151.00  5.6434530E-01
   7151.33  5.5811249E-01
   7151.67  5.5093762E-01
   7152.00  5.4281453E-01
   7152.33  5.3367197E-01
   7152.67  5.2370562E-01
   7153.00  5.1300988E-01
   7153.33  5.0163702E-01
   7153.67  4.8979893E-01
   7154.00  4.7761328E-01
   7154.33  4.6518881E-01
   7154.67  4.5268794E-01
   7155.00  4.4022604E-01
   7155.33  4.2795036E-01
   7155.67  4.1595582E-01
   7156.00  4.0433346E-01
   7156.33  3.9323646E-01
   7156.67  3.8268727E-01
   7157.00  3.7274143E-01
   7157.33  3.6352269E-01
   7157.67  3.5496829E-01
   7158.00  3.4707529E-01
   7158.33  3.3990506E-01
   7158.67  3.3335380E-01
   7159.00  3.2740718E-01
   7159.33  3.2213635E-01
   7159.67  3.1747598E-01
   7160.00  3.1344124E-01
   7160.33  3.1013088E-01
   7160.67  3.0747791E-01
   7161.00  3.0548863E-01
   7161.33  3.0424907E-01
   7161.67  3.0367153E-01
   7162.00  3.0373689E-01
   7162.33  3.0448636E-01
   7162.67  3.0582314E-01
   7163.00  3.0773335E-01
   7163.33  3.1025261E-01
   7163.67  3.1326618E-01
   7164.00  3.1672515E-01
   7164.33  3.2061042E-01
   7164.67  3.2480057E-01
   7165.00  3.2922941E-01
   7165.33  3.3384150E-01
   7165.67  3.3854597E-01
   7166.00  3.4328918E-01
   7166.33  3.4801758E-01
   7166.67  3.5269319E-01
   7167.00  3.5729226E-01
   7167.33  3.6178791E-01
   7167.67  3.6618788E-01
   7168.00  3.7049616E-01
   7168.33  3.7471371E-01
   7168.67  3.7886560E-01
   7169.00  3.8296541E-01
   7169.33  3.8702254E-01
   7169.67  3.9105067E-01
   7170.00  3.9505075E-01
   7170.33  3.9900883E-01
   7170.67  4.0290405E-01
   7171.00  4.0669449E-01
   7171.33  4.1026664E-01
   7171.67  4.1347831E-01
   7172.00  4.1611225E-01
