    FDMNES
    energy     <xanes>
   7097.00  5.0591779E-03
   7097.33  5.1723056E-03
   7097.67  5.2902592E-03
   7098.00  5.4133449E-03
   7098.33  5.5426452E-03
   7098.67  5.6779032E-03
   7099.00  5.8195285E-03
   7099.33  5.9689110E-03
   7099.67  6.1257779E-03
   7100.00  6.2906899E-03
   7100.33  6.4654730E-03
   7100.67  6.6498518E-03
   7101.00  6.8446157E-03
   7101.33  7.0522294E-03
   7101.67  7.2724467E-03
   7102.00  7.5064160E-03
   7102.33  7.7575739E-03
   7102.67  8.0257746E-03
   7103.00  8.3127561E-03
   7103.33  8.6235041E-03
   7103.67  8.9581341E-03
   7104.00  9.3194074E-03
   7104.33  9.7149248E-03
   7104.67  1.0145440E-02
   7105.00  1.0615619E-02
   7105.33  1.1137813E-02
   7105.67  1.1714360E-02
   7106.00  1.2353810E-02
   7106.33  1.3078022E-02
   7106.67  1.3893556E-02
   7107.00  1.4817934E-02
   7107.33  1.5894824E-02
   7107.67  1.7143625E-02
   7108.00  1.8606695E-02
   7108.33  2.0389035E-02
   7108.67  2.2558897E-02
   7109.00  2.5249933E-02
   7109.33  2.8807267E-02
   7109.67  3.3570480E-02
   7110.00  4.0203772E-02
   7110.33  5.0600920E-02
   7110.67  6.7010749E-02
   7111.00  9.1445749E-02
   7111.33  1.1986266E-01
   7111.67  1.4580893E-01
   7112.00  1.6808551E-01
   7112.33  1.8439197E-01
   7112.67  2.0702960E-01
   7113.00  2.5040857E-01
   7113.33  3.1142916E-01
   7113.67  3.6035018E-01
   7114.00  3.9307449E-01
   7114.33  4.2325796E-01
   7114.67  4.3904756E-01
   7115.00  4.2796191E-01
   7115.33  3.9057680E-01
   7115.67  3.4321158E-01
   7116.00  2.9965933E-01
   7116.33  2.6952861E-01
   7116.67  2.5137861E-01
   7117.00  2.4219177E-01
   7117.33  2.3615872E-01
   7117.67  2.2546888E-01
   7118.00  2.0794069E-01
   7118.33  1.8851234E-01
   7118.67  1.7302949E-01
   7119.00  1.6294977E-01
   7119.33  1.5819425E-01
   7119.67  1.5661494E-01
   7120.00  1.5663756E-01
   7120.33  1.5680143E-01
   7120.67  1.5653899E-01
   7121.00  1.5588338E-01
   7121.33  1.5519944E-01
   7121.67  1.5523839E-01
   7122.00  1.5669901E-01
   7122.33  1.6051908E-01
   7122.67  1.6702865E-01
   7123.00  1.7656667E-01
   7123.33  1.8961843E-01
   7123.67  2.0557289E-01
   7124.00  2.2392849E-01
   7124.33  2.4380092E-01
   7124.67  2.6355308E-01
   7125.00  2.8188585E-01
   7125.33  2.9724647E-01
   7125.67  3.0914505E-01
   7126.00  3.1748048E-01
   7126.33  3.2321888E-01
   7126.67  3.2908621E-01
   7127.00  3.3710037E-01
   7127.33  3.4916098E-01
   7127.67  3.6542590E-01
   7128.00  3.8618735E-01
   7128.33  4.1276351E-01
   7128.67  4.4592526E-01
   7129.00  4.8747257E-01
   7129.33  5.4110447E-01
   7129.67  6.0701323E-01
   7130.00  6.8421455E-01
   7130.33  7.6762064E-01
   7130.67  8.4654450E-01
   7131.00  9.1180238E-01
   7131.33  9.5444805E-01
   7131.67  9.7768875E-01
   7132.00  9.8616003E-01
   7132.33  9.8500389E-01
   7132.67  9.7987603E-01
   7133.00  9.7292323E-01
   7133.33  9.6487121E-01
   7133.67  9.5562882E-01
   7134.00  9.4467710E-01
   7134.33  9.3111735E-01
   7134.67  9.1480286E-01
   7135.00  8.9553619E-01
   7135.33  8.7290957E-01
   7135.67  8.4744833E-01
   7136.00  8.1940753E-01
   7136.33  7.8892110E-01
   7136.67  7.5674644E-01
   7137.00  7.2333875E-01
   7137.33  6.8916936E-01
   7137.67  6.5491102E-01
   7138.00  6.2110981E-01
   7138.33  5.8859714E-01
   7138.67  5.5794052E-01
   7139.00  5.2974564E-01
   7139.33  5.0505552E-01
   7139.67  4.8396789E-01
   7140.00  4.6668408E-01
   7140.33  4.5361991E-01
   7140.67  4.4399583E-01
   7141.00  4.3741816E-01
   7141.33  4.3368768E-01
   7141.67  4.3197477E-01
   7142.00  4.3186673E-01
   7142.33  4.3307326E-01
   7142.67  4.3506902E-01
   7143.00  4.3758055E-01
   7143.33  4.4038622E-01
   7143.67  4.4326683E-01
   7144.00  4.4611260E-01
   7144.33  4.4883475E-01
   7144.67  4.5142020E-01
   7145.00  4.5387133E-01
   7145.33  4.5619148E-01
   7145.67  4.5842835E-01
   7146.00  4.6061926E-01
   7146.33  4.6280852E-01
   7146.67  4.6503326E-01
   7147.00  4.6731405E-01
   7147.33  4.6966634E-01
   7147.67  4.7207040E-01
   7148.00  4.7450140E-01
   7148.33  4.7691484E-01
   7148.67  4.7926116E-01
   7149.00  4.8149438E-01
   7149.33  4.8354437E-01
   7149.67  4.8539348E-01
   7150.00  4.8702503E-01
   7150.33  4.8841268E-01
   7150.67  4.8960468E-01
   7151.00  4.9063383E-01
   7151.33  4.9153809E-01
   7151.67  4.9239349E-01
   7152.00  4.9325842E-01
   7152.33  4.9421289E-01
   7152.67  4.9531527E-01
   7153.00  4.9662012E-01
   7153.33  4.9821742E-01
   7153.67  5.0012300E-01
   7154.00  5.0236625E-01
   7154.33  5.0500656E-01
   7154.67  5.0799230E-01
   7155.00  5.1129899E-01
   7155.33  5.1491293E-01
   7155.67  5.1873589E-01
   7156.00  5.2270539E-01
   7156.33  5.2675624E-01
   7156.67  5.3080997E-01
   7157.00  5.3481458E-01
   7157.33  5.3870791E-01
   7157.67  5.4246372E-01
   7158.00  5.4605622E-01
   7158.33  5.4943862E-01
   7158.67  5.5261546E-01
   7159.00  5.5557279E-01
   7159.33  5.5826739E-01
   7159.67  5.6071648E-01
   7160.00  5.6291061E-01
   7160.33  5.6480632E-01
   7160.67  5.6642899E-01
   7161.00  5.6777489E-01
   7161.33  5.6880824E-01
   7161.67  5.6956576E-01
   7162.00  5.7005092E-01
   7162.33  5.7023679E-01
   7162.67  5.7016547E-01
   7163.00  5.6984588E-01
   7163.33  5.6926156E-01
   7163.67  5.6845565E-01
   7164.00  5.6743394E-01
   7164.33  5.6617210E-01
   7164.67  5.6470648E-01
   7165.00  5.6304685E-01
   7165.33  5.6117663E-01
   7165.67  5.5912393E-01
   7166.00  5.5689231E-01
   7166.33  5.5446306E-01
   7166.67  5.5186072E-01
   7167.00  5.4908826E-01
   7167.33  5.4613016E-01
   7167.67  5.4301385E-01
   7168.00  5.3974633E-01
   7168.33  5.3632024E-01
   7168.67  5.3276690E-01
   7169.00  5.2910135E-01
   7169.33  5.2533290E-01
   7169.67  5.2149668E-01
   7170.00  5.1761678E-01
   7170.33  5.1372720E-01
   7170.67  5.0987622E-01
   7171.00  5.0612094E-01
   7171.33  5.0258750E-01
   7171.67  4.9942012E-01
   7172.00  4.9683123E-01
