    FDMNES
    energy     <xanes>
   7097.00  5.1075856E-03
   7097.33  5.2345792E-03
   7097.67  5.3676390E-03
   7098.00  5.5071945E-03
   7098.33  5.6546818E-03
   7098.67  5.8098399E-03
   7099.00  5.9732603E-03
   7099.33  6.1468428E-03
   7099.67  6.3303283E-03
   7100.00  6.5245545E-03
   7100.33  6.7321034E-03
   7100.67  6.9527529E-03
   7101.00  7.1877272E-03
   7101.33  7.4406504E-03
   7101.67  7.7114138E-03
   7102.00  8.0018764E-03
   7102.33  8.3173238E-03
   7102.67  8.6579302E-03
   7103.00  9.0266504E-03
   7103.33  9.4315636E-03
   7103.67  9.8735131E-03
   7104.00  1.0357466E-02
   7104.33  1.0896514E-02
   7104.67  1.1493099E-02
   7105.00  1.2156183E-02
   7105.33  1.2908621E-02
   7105.67  1.3756881E-02
   7106.00  1.4718691E-02
   7106.33  1.5838077E-02
   7106.67  1.7132665E-02
   7107.00  1.8642162E-02
   7107.33  2.0463797E-02
   7107.67  2.2651075E-02
   7108.00  2.5310362E-02
   7108.33  2.8704436E-02
   7108.67  3.3032945E-02
   7109.00  3.8672032E-02
   7109.33  4.6604598E-02
   7109.67  5.7901917E-02
   7110.00  7.4647316E-02
   7110.33  1.0278590E-01
   7110.67  1.4884231E-01
   7111.00  2.1646928E-01
   7111.33  2.9683047E-01
   7111.67  3.7607592E-01
   7112.00  4.4280417E-01
   7112.33  4.6911474E-01
   7112.67  4.4993454E-01
   7113.00  4.0189642E-01
   7113.33  3.4831273E-01
   7113.67  3.0163586E-01
   7114.00  2.6467503E-01
   7114.33  2.4106101E-01
   7114.67  2.3128614E-01
   7115.00  2.3426259E-01
   7115.33  2.4348260E-01
   7115.67  2.4638707E-01
   7116.00  2.3455878E-01
   7116.33  2.0645686E-01
   7116.67  1.7592738E-01
   7117.00  1.5139980E-01
   7117.33  1.3556072E-01
   7117.67  1.2575687E-01
   7118.00  1.2062019E-01
   7118.33  1.1931566E-01
   7118.67  1.2032576E-01
   7119.00  1.2312235E-01
   7119.33  1.2788496E-01
   7119.67  1.3453495E-01
   7120.00  1.4295909E-01
   7120.33  1.5218488E-01
   7120.67  1.6050930E-01
   7121.00  1.6803715E-01
   7121.33  1.7685787E-01
   7121.67  1.8878657E-01
   7122.00  2.0456521E-01
   7122.33  2.2395583E-01
   7122.67  2.4508041E-01
   7123.00  2.6718575E-01
   7123.33  2.8971571E-01
   7123.67  3.1145547E-01
   7124.00  3.3141399E-01
   7124.33  3.4913476E-01
   7124.67  3.6584379E-01
   7125.00  3.8245586E-01
   7125.33  3.9852010E-01
   7125.67  4.1229719E-01
   7126.00  4.2250079E-01
   7126.33  4.2901061E-01
   7126.67  4.3443969E-01
   7127.00  4.4073040E-01
   7127.33  4.4812898E-01
   7127.67  4.5447994E-01
   7128.00  4.5838041E-01
   7128.33  4.6024238E-01
   7128.67  4.6245414E-01
   7129.00  4.6661490E-01
   7129.33  4.7377027E-01
   7129.67  4.8292221E-01
   7130.00  4.9253661E-01
   7130.33  5.0015152E-01
   7130.67  5.0447129E-01
   7131.00  5.0564370E-01
   7131.33  5.0547583E-01
   7131.67  5.0689710E-01
   7132.00  5.1187112E-01
   7132.33  5.2221229E-01
   7132.67  5.3762689E-01
   7133.00  5.5798834E-01
   7133.33  5.8339861E-01
   7133.67  6.1225674E-01
   7134.00  6.4294167E-01
   7134.33  6.7288864E-01
   7134.67  6.9993056E-01
   7135.00  7.2253908E-01
   7135.33  7.3793122E-01
   7135.67  7.4454459E-01
   7136.00  7.4105903E-01
   7136.33  7.2729357E-01
   7136.67  7.0796931E-01
   7137.00  6.8675008E-01
   7137.33  6.6700818E-01
   7137.67  6.5014638E-01
   7138.00  6.3650209E-01
   7138.33  6.2627699E-01
   7138.67  6.1875823E-01
   7139.00  6.1371188E-01
   7139.33  6.1122032E-01
   7139.67  6.1079582E-01
   7140.00  6.1220031E-01
   7140.33  6.1523499E-01
   7140.67  6.1925205E-01
   7141.00  6.2381983E-01
   7141.33  6.2845627E-01
   7141.67  6.3274105E-01
   7142.00  6.3641537E-01
   7142.33  6.3918916E-01
   7142.67  6.4106813E-01
   7143.00  6.4203274E-01
   7143.33  6.4202631E-01
   7143.67  6.4128819E-01
   7144.00  6.3999543E-01
   7144.33  6.3838494E-01
   7144.67  6.3680502E-01
   7145.00  6.3552112E-01
   7145.33  6.3486207E-01
   7145.67  6.3492540E-01
   7146.00  6.3576322E-01
   7146.33  6.3741958E-01
   7146.67  6.3965475E-01
   7147.00  6.4227856E-01
   7147.33  6.4504328E-01
   7147.67  6.4765633E-01
   7148.00  6.4989178E-01
   7148.33  6.5145019E-01
   7148.67  6.5224736E-01
   7149.00  6.5220859E-01
   7149.33  6.5119516E-01
   7149.67  6.4933074E-01
   7150.00  6.4666088E-01
   7150.33  6.4318395E-01
   7150.67  6.3911348E-01
   7151.00  6.3458225E-01
   7151.33  6.2973529E-01
   7151.67  6.2480551E-01
   7152.00  6.1996499E-01
   7152.33  6.1543325E-01
   7152.67  6.1132535E-01
   7153.00  6.0772464E-01
   7153.33  6.0472699E-01
   7153.67  6.0221172E-01
   7154.00  6.0006423E-01
   7154.33  5.9809784E-01
   7154.67  5.9602811E-01
   7155.00  5.9360932E-01
   7155.33  5.9049526E-01
   7155.67  5.8655325E-01
   7156.00  5.8167393E-01
   7156.33  5.7570046E-01
   7156.67  5.6880922E-01
   7157.00  5.6110139E-01
   7157.33  5.5264899E-01
   7157.67  5.4370101E-01
   7158.00  5.3439233E-01
   7158.33  5.2483735E-01
   7158.67  5.1519336E-01
   7159.00  5.0556924E-01
   7159.33  4.9611355E-01
   7159.67  4.8694070E-01
   7160.00  4.7816272E-01
   7160.33  4.6995724E-01
   7160.67  4.6234240E-01
   7161.00  4.5535656E-01
   7161.33  4.4907696E-01
   7161.67  4.4337316E-01
   7162.00  4.3817208E-01
   7162.33  4.3342429E-01
   7162.67  4.2898393E-01
   7163.00  4.2478506E-01
   7163.33  4.2080162E-01
   7163.67  4.1698823E-01
   7164.00  4.1334346E-01
   7164.33  4.0989903E-01
   7164.67  4.0664619E-01
   7165.00  4.0359415E-01
   7165.33  4.0077280E-01
   7165.67  3.9815386E-01
   7166.00  3.9572993E-01
   7166.33  3.9350842E-01
   7166.67  3.9144609E-01
   7167.00  3.8952382E-01
   7167.33  3.8773580E-01
   7167.67  3.8605072E-01
   7168.00  3.8445954E-01
   7168.33  3.8296857E-01
   7168.67  3.8156905E-01
   7169.00  3.8026845E-01
   7169.33  3.7909285E-01
   7169.67  3.7804144E-01
   7170.00  3.7712481E-01
   7170.33  3.7637072E-01
   7170.67  3.7576595E-01
   7171.00  3.7530893E-01
   7171.33  3.7500445E-01
   7171.67  3.7480599E-01
   7172.00  3.7466997E-01
