    FDMNES
    energy     <xanes>
   7097.00  4.3126151E-03
   7097.33  4.4004539E-03
   7097.67  4.4917326E-03
   7098.00  4.5866629E-03
   7098.33  4.6860061E-03
   7098.67  4.7895728E-03
   7099.00  4.8976480E-03
   7099.33  5.0112100E-03
   7099.67  5.1300626E-03
   7100.00  5.2546010E-03
   7100.33  5.3861176E-03
   7100.67  5.5244237E-03
   7101.00  5.6700867E-03
   7101.33  5.8248721E-03
   7101.67  5.9886312E-03
   7102.00  6.1622132E-03
   7102.33  6.3481302E-03
   7102.67  6.5463483E-03
   7103.00  6.7582020E-03
   7103.33  6.9874521E-03
   7103.67  7.2343521E-03
   7104.00  7.5011310E-03
   7104.33  7.7937895E-03
   7104.67  8.1132908E-03
   7105.00  8.4636552E-03
   7105.33  8.8552712E-03
   7105.67  9.2909378E-03
   7106.00  9.7786602E-03
   7106.33  1.0338474E-02
   7106.67  1.0978393E-02
   7107.00  1.1716640E-02
   7107.33  1.2598059E-02
   7107.67  1.3647955E-02
   7108.00  1.4916578E-02
   7108.33  1.6528826E-02
   7108.67  1.8583421E-02
   7109.00  2.1266598E-02
   7109.33  2.5070915E-02
   7109.67  3.0558237E-02
   7110.00  3.8830666E-02
   7110.33  5.3069783E-02
   7110.67  7.6726040E-02
   7111.00  1.1081828E-01
   7111.33  1.4395821E-01
   7111.67  1.6235902E-01
   7112.00  1.7242456E-01
   7112.33  1.8029336E-01
   7112.67  1.7710378E-01
   7113.00  1.6701483E-01
   7113.33  1.5202505E-01
   7113.67  1.3859106E-01
   7114.00  1.2938633E-01
   7114.33  1.1311859E-01
   7114.67  8.9294015E-02
   7115.00  6.8786147E-02
   7115.33  5.7330173E-02
   7115.67  5.1489765E-02
   7116.00  4.9253162E-02
   7116.33  4.9585933E-02
   7116.67  5.1298650E-02
   7117.00  5.3374130E-02
   7117.33  5.4539264E-02
   7117.67  5.5236440E-02
   7118.00  5.6607240E-02
   7118.33  5.9499148E-02
   7118.67  6.3789070E-02
   7119.00  6.9448477E-02
   7119.33  7.6732064E-02
   7119.67  8.5628062E-02
   7120.00  9.6236060E-02
   7120.33  1.0850437E-01
   7120.67  1.2174895E-01
   7121.00  1.3630847E-01
   7121.33  1.5400059E-01
   7121.67  1.7545465E-01
   7122.00  2.0067448E-01
   7122.33  2.2938086E-01
   7122.67  2.5998321E-01
   7123.00  2.9123497E-01
   7123.33  3.2180551E-01
   7123.67  3.5090675E-01
   7124.00  3.7769356E-01
   7124.33  3.9989603E-01
   7124.67  4.1630911E-01
   7125.00  4.2758610E-01
   7125.33  4.3760315E-01
   7125.67  4.5044163E-01
   7126.00  4.6716321E-01
   7126.33  4.8791067E-01
   7126.67  5.1205143E-01
   7127.00  5.3969568E-01
   7127.33  5.7079034E-01
   7127.67  6.0295509E-01
   7128.00  6.3287942E-01
   7128.33  6.5529194E-01
   7128.67  6.6924468E-01
   7129.00  6.7662037E-01
   7129.33  6.8081472E-01
   7129.67  6.8472301E-01
   7130.00  6.8909753E-01
   7130.33  6.9426028E-01
   7130.67  7.0078883E-01
   7131.00  7.0960020E-01
   7131.33  7.2160498E-01
   7131.67  7.3632469E-01
   7132.00  7.5373571E-01
   7132.33  7.7487595E-01
   7132.67  8.0058858E-01
   7133.00  8.3186829E-01
   7133.33  8.6808601E-01
   7133.67  9.0160703E-01
   7134.00  9.2279729E-01
   7134.33  9.2345212E-01
   7134.67  9.0970705E-01
   7135.00  8.8785741E-01
   7135.33  8.6310208E-01
   7135.67  8.3859103E-01
   7136.00  8.1532300E-01
   7136.33  7.9384750E-01
   7136.67  7.7392115E-01
   7137.00  7.5538857E-01
   7137.33  7.3819199E-01
   7137.67  7.2200271E-01
   7138.00  7.0670301E-01
   7138.33  6.9229726E-01
   7138.67  6.7863083E-01
   7139.00  6.6568163E-01
   7139.33  6.5353180E-01
   7139.67  6.4209735E-01
   7140.00  6.3138415E-01
   7140.33  6.2148123E-01
   7140.67  6.1228299E-01
   7141.00  6.0376253E-01
   7141.33  5.9595119E-01
   7141.67  5.8871196E-01
   7142.00  5.8199873E-01
   7142.33  5.7583410E-01
   7142.67  5.7013887E-01
   7143.00  5.6491352E-01
   7143.33  5.6024570E-01
   7143.67  5.5613859E-01
   7144.00  5.5264559E-01
   7144.33  5.4987427E-01
   7144.67  5.4774581E-01
   7145.00  5.4623912E-01
   7145.33  5.4536827E-01
   7145.67  5.4497128E-01
   7146.00  5.4494581E-01
   7146.33  5.4518215E-01
   7146.67  5.4550313E-01
   7147.00  5.4578447E-01
   7147.33  5.4587353E-01
   7147.67  5.4568237E-01
   7148.00  5.4513782E-01
   7148.33  5.4412844E-01
   7148.67  5.4267506E-01
   7149.00  5.4077172E-01
   7149.33  5.3837336E-01
   7149.67  5.3555532E-01
   7150.00  5.3233766E-01
   7150.33  5.2869325E-01
   7150.67  5.2468162E-01
   7151.00  5.2030452E-01
   7151.33  5.1550552E-01
   7151.67  5.1031008E-01
   7152.00  5.0469250E-01
   7152.33  4.9855973E-01
   7152.67  4.9193128E-01
   7153.00  4.8477756E-01
   7153.33  4.7700314E-01
   7153.67  4.6866411E-01
   7154.00  4.5976363E-01
   7154.33  4.5025767E-01
   7154.67  4.4026133E-01
   7155.00  4.2983771E-01
   7155.33  4.1904293E-01
   7155.67  4.0803288E-01
   7156.00  3.9692021E-01
   7156.33  3.8585652E-01
   7156.67  3.7500310E-01
   7157.00  3.6452376E-01
   7157.33  3.5465224E-01
   7157.67  3.4544616E-01
   7158.00  3.3699525E-01
   7158.33  3.2949034E-01
   7158.67  3.2288920E-01
   7159.00  3.1722748E-01
   7159.33  3.1264711E-01
   7159.67  3.0903187E-01
   7160.00  3.0637358E-01
   7160.33  3.0476725E-01
   7160.67  3.0406234E-01
   7161.00  3.0422346E-01
   7161.33  3.0530743E-01
   7161.67  3.0716220E-01
   7162.00  3.0974073E-01
   7162.33  3.1305759E-01
   7162.67  3.1694667E-01
   7163.00  3.2133281E-01
   7163.33  3.2618080E-01
   7163.67  3.3134857E-01
   7164.00  3.3675510E-01
   7164.33  3.4232426E-01
   7164.67  3.4794841E-01
   7165.00  3.5355725E-01
   7165.33  3.5906848E-01
   7165.67  3.6443447E-01
   7166.00  3.6961578E-01
   7166.33  3.7455171E-01
   7166.67  3.7924788E-01
   7167.00  3.8369330E-01
   7167.33  3.8785032E-01
   7167.67  3.9175060E-01
   7168.00  3.9539598E-01
   7168.33  3.9875782E-01
   7168.67  4.0186962E-01
   7169.00  4.0473277E-01
   7169.33  4.0732205E-01
   7169.67  4.0967509E-01
   7170.00  4.1179674E-01
   7170.33  4.1366584E-01
   7170.67  4.1532025E-01
   7171.00  4.1676962E-01
   7171.33  4.1799839E-01
   7171.67  4.1902968E-01
   7172.00  4.1984983E-01
