    FDMNES
    energy     <xanes>
   7097.00  5.0515756E-03
   7097.33  5.1693172E-03
   7097.67  5.2923480E-03
   7098.00  5.4210230E-03
   7098.33  5.5565612E-03
   7098.67  5.6987083E-03
   7099.00  5.8479469E-03
   7099.33  6.0058671E-03
   7099.67  6.1722073E-03
   7100.00  6.3476408E-03
   7100.33  6.5342959E-03
   7100.67  6.7319268E-03
   7101.00  6.9415025E-03
   7101.33  7.1659597E-03
   7101.67  7.4051209E-03
   7102.00  7.6604329E-03
   7102.33  7.9360998E-03
   7102.67  8.2321289E-03
   7103.00  8.5507795E-03
   7103.33  8.8983486E-03
   7103.67  9.2752956E-03
   7104.00  9.6853483E-03
   7104.33  1.0138492E-02
   7104.67  1.0636281E-02
   7105.00  1.1185316E-02
   7105.33  1.1802642E-02
   7105.67  1.2492596E-02
   7106.00  1.3267997E-02
   7106.33  1.4160989E-02
   7106.67  1.5183658E-02
   7107.00  1.6364326E-02
   7107.33  1.7772796E-02
   7107.67  1.9446410E-02
   7108.00  2.1460786E-02
   7108.33  2.4003872E-02
   7108.67  2.7218981E-02
   7109.00  3.1379059E-02
   7109.33  3.7205888E-02
   7109.67  4.5512514E-02
   7110.00  5.7899125E-02
   7110.33  7.8940785E-02
   7110.67  1.1302169E-01
   7111.00  1.5903316E-01
   7111.33  1.9999065E-01
   7111.67  2.2771201E-01
   7112.00  2.4585453E-01
   7112.33  2.6344335E-01
   7112.67  2.8789067E-01
   7113.00  3.1847897E-01
   7113.33  3.4425807E-01
   7113.67  3.5686518E-01
   7114.00  3.5112155E-01
   7114.33  3.3008778E-01
   7114.67  3.0849591E-01
   7115.00  2.8840587E-01
   7115.33  2.6917407E-01
   7115.67  2.5444139E-01
   7116.00  2.4670868E-01
   7116.33  2.4735411E-01
   7116.67  2.5499891E-01
   7117.00  2.6604649E-01
   7117.33  2.6701670E-01
   7117.67  2.4936088E-01
   7118.00  2.1973824E-01
   7118.33  1.9167279E-01
   7118.67  1.6967696E-01
   7119.00  1.5308291E-01
   7119.33  1.4137365E-01
   7119.67  1.3355637E-01
   7120.00  1.2904792E-01
   7120.33  1.2688172E-01
   7120.67  1.2611910E-01
   7121.00  1.2695416E-01
   7121.33  1.3016524E-01
   7121.67  1.3607332E-01
   7122.00  1.4499124E-01
   7122.33  1.5710571E-01
   7122.67  1.7121369E-01
   7123.00  1.8646434E-01
   7123.33  2.0288811E-01
   7123.67  2.2040658E-01
   7124.00  2.3786273E-01
   7124.33  2.5361200E-01
   7124.67  2.6851514E-01
   7125.00  2.8431021E-01
   7125.33  3.0256085E-01
   7125.67  3.2289406E-01
   7126.00  3.4502786E-01
   7126.33  3.7008270E-01
   7126.67  3.9935166E-01
   7127.00  4.3353339E-01
   7127.33  4.7162620E-01
   7127.67  5.0905224E-01
   7128.00  5.4100908E-01
   7128.33  5.6198830E-01
   7128.67  5.7336026E-01
   7129.00  5.7909918E-01
   7129.33  5.8513840E-01
   7129.67  5.9478597E-01
   7130.00  6.0820709E-01
   7130.33  6.2457793E-01
   7130.67  6.4189679E-01
   7131.00  6.5796626E-01
   7131.33  6.6945008E-01
   7131.67  6.7606321E-01
   7132.00  6.7958987E-01
   7132.33  6.8317904E-01
   7132.67  6.8913092E-01
   7133.00  6.9866431E-01
   7133.33  7.1352337E-01
   7133.67  7.3363329E-01
   7134.00  7.5802591E-01
   7134.33  7.8325774E-01
   7134.67  8.0347211E-01
   7135.00  8.1354721E-01
   7135.33  8.0905192E-01
   7135.67  7.9371716E-01
   7136.00  7.7160413E-01
   7136.33  7.4678100E-01
   7136.67  7.2223069E-01
   7137.00  6.9900950E-01
   7137.33  6.7770439E-01
   7137.67  6.5807709E-01
   7138.00  6.4006315E-01
   7138.33  6.2394010E-01
   7138.67  6.0979023E-01
   7139.00  5.9799647E-01
   7139.33  5.8935696E-01
   7139.67  5.8381327E-01
   7140.00  5.8141352E-01
   7140.33  5.8231853E-01
   7140.67  5.8569166E-01
   7141.00  5.9094836E-01
   7141.33  5.9735966E-01
   7141.67  6.0380288E-01
   7142.00  6.0938759E-01
   7142.33  6.1295166E-01
   7142.67  6.1406493E-01
   7143.00  6.1249211E-01
   7143.33  6.0802412E-01
   7143.67  6.0139991E-01
   7144.00  5.9309160E-01
   7144.33  5.8350601E-01
   7144.67  5.7325931E-01
   7145.00  5.6268791E-01
   7145.33  5.5212279E-01
   7145.67  5.4185070E-01
   7146.00  5.3209137E-01
   7146.33  5.2315287E-01
   7146.67  5.1510479E-01
   7147.00  5.0803178E-01
   7147.33  5.0209513E-01
   7147.67  4.9714574E-01
   7148.00  4.9313122E-01
   7148.33  4.9007283E-01
   7148.67  4.8776926E-01
   7149.00  4.8614110E-01
   7149.33  4.8518289E-01
   7149.67  4.8476472E-01
   7150.00  4.8486211E-01
   7150.33  4.8553119E-01
   7150.67  4.8671605E-01
   7151.00  4.8842821E-01
   7151.33  4.9074528E-01
   7151.67  4.9360071E-01
   7152.00  4.9698481E-01
   7152.33  5.0093740E-01
   7152.67  5.0536006E-01
   7153.00  5.1021382E-01
   7153.33  5.1548871E-01
   7153.67  5.2106311E-01
   7154.00  5.2685160E-01
   7154.33  5.3273252E-01
   7154.67  5.3852410E-01
   7155.00  5.4404904E-01
   7155.33  5.4901618E-01
   7155.67  5.5325770E-01
   7156.00  5.5659857E-01
   7156.33  5.5875416E-01
   7156.67  5.5977385E-01
   7157.00  5.5964579E-01
   7157.33  5.5827913E-01
   7157.67  5.5590983E-01
   7158.00  5.5265233E-01
   7158.33  5.4857083E-01
   7158.67  5.4392582E-01
   7159.00  5.3886690E-01
   7159.33  5.3353843E-01
   7159.67  5.2813915E-01
   7160.00  5.2280532E-01
   7160.33  5.1770263E-01
   7160.67  5.1291726E-01
   7161.00  5.0852051E-01
   7161.33  5.0462098E-01
   7161.67  5.0118567E-01
   7162.00  4.9820777E-01
   7162.33  4.9570707E-01
   7162.67  4.9359080E-01
   7163.00  4.9182295E-01
   7163.33  4.9039486E-01
   7163.67  4.8922152E-01
   7164.00  4.8826262E-01
   7164.33  4.8749183E-01
   7164.67  4.8684148E-01
   7165.00  4.8627187E-01
   7165.33  4.8574175E-01
   7165.67  4.8520385E-01
   7166.00  4.8462510E-01
   7166.33  4.8396153E-01
   7166.67  4.8319238E-01
   7167.00  4.8229825E-01
   7167.33  4.8124914E-01
   7167.67  4.8005288E-01
   7168.00  4.7870443E-01
   7168.33  4.7718526E-01
   7168.67  4.7552234E-01
   7169.00  4.7372872E-01
   7169.33  4.7181209E-01
   7169.67  4.6981229E-01
   7170.00  4.6775511E-01
   7170.33  4.6567161E-01
   7170.67  4.6360386E-01
   7171.00  4.6159189E-01
   7171.33  4.5971143E-01
   7171.67  4.5803851E-01
   7172.00  4.5667866E-01
