    FDMNES
    energy     <xanes>
   7097.00  4.1746818E-03
   7097.33  4.2612456E-03
   7097.67  4.3514411E-03
   7098.00  4.4455144E-03
   7098.33  4.5443088E-03
   7098.67  4.6476569E-03
   7099.00  4.7559004E-03
   7099.33  4.8701534E-03
   7099.67  4.9902543E-03
   7100.00  5.1166923E-03
   7100.33  5.2509875E-03
   7100.67  5.3930098E-03
   7101.00  5.5434870E-03
   7101.33  5.7045734E-03
   7101.67  5.8762285E-03
   7102.00  6.0595838E-03
   7102.33  6.2578371E-03
   7102.67  6.4711666E-03
   7103.00  6.7014293E-03
   7103.33  6.9536470E-03
   7103.67  7.2285214E-03
   7104.00  7.5293066E-03
   7104.33  7.8644620E-03
   7104.67  8.2359774E-03
   7105.00  8.6500474E-03
   7105.33  9.1222515E-03
   7105.67  9.6579827E-03
   7106.00  1.0270366E-02
   7106.33  1.0991674E-02
   7106.67  1.1837382E-02
   7107.00  1.2839648E-02
   7107.33  1.4077112E-02
   7107.67  1.5600833E-02
   7108.00  1.7507928E-02
   7108.33  2.0041677E-02
   7108.67  2.3418052E-02
   7109.00  2.8041532E-02
   7109.33  3.5009185E-02
   7109.67  4.5700435E-02
   7110.00  6.2855183E-02
   7110.33  9.4386580E-02
   7110.67  1.4694840E-01
   7111.00  2.1144463E-01
   7111.33  2.3977404E-01
   7111.67  2.3267060E-01
   7112.00  2.1280938E-01
   7112.33  1.8435217E-01
   7112.67  1.5161024E-01
   7113.00  1.1993752E-01
   7113.33  9.4777723E-02
   7113.67  7.6925969E-02
   7114.00  6.5611054E-02
   7114.33  5.9658091E-02
   7114.67  5.5468397E-02
   7115.00  5.0760391E-02
   7115.33  4.6316437E-02
   7115.67  4.2989278E-02
   7116.00  4.0595211E-02
   7116.33  3.9190696E-02
   7116.67  3.8719576E-02
   7117.00  3.9170363E-02
   7117.33  4.0627819E-02
   7117.67  4.2965879E-02
   7118.00  4.6148050E-02
   7118.33  5.0090558E-02
   7118.67  5.4300427E-02
   7119.00  5.8252768E-02
   7119.33  6.1314394E-02
   7119.67  6.3453725E-02
   7120.00  6.4882242E-02
   7120.33  6.5983179E-02
   7120.67  6.7228850E-02
   7121.00  6.8932574E-02
   7121.33  7.1465943E-02
   7121.67  7.4935383E-02
   7122.00  7.9453245E-02
   7122.33  8.5243183E-02
   7122.67  9.2242399E-02
   7123.00  1.0057116E-01
   7123.33  1.1070431E-01
   7123.67  1.2291249E-01
   7124.00  1.3777051E-01
   7124.33  1.5649977E-01
   7124.67  1.7915496E-01
   7125.00  2.0519585E-01
   7125.33  2.3206522E-01
   7125.67  2.5565582E-01
   7126.00  2.7421237E-01
   7126.33  2.8983226E-01
   7126.67  3.0788440E-01
   7127.00  3.3184234E-01
   7127.33  3.6377882E-01
   7127.67  4.0094200E-01
   7128.00  4.4046758E-01
   7128.33  4.7962801E-01
   7128.67  5.1773577E-01
   7129.00  5.5536280E-01
   7129.33  5.9362218E-01
   7129.67  6.3331132E-01
   7130.00  6.7475389E-01
   7130.33  7.1778498E-01
   7130.67  7.6130925E-01
   7131.00  8.0466360E-01
   7131.33  8.4789684E-01
   7131.67  8.9171603E-01
   7132.00  9.3630459E-01
   7132.33  9.8062455E-01
   7132.67  1.0228333E+00
   7133.00  1.0611890E+00
   7133.33  1.0927549E+00
   7133.67  1.1155850E+00
   7134.00  1.1270226E+00
   7134.33  1.1228594E+00
   7134.67  1.1044994E+00
   7135.00  1.0739074E+00
   7135.33  1.0341594E+00
   7135.67  9.9072735E-01
   7136.00  9.4676140E-01
   7136.33  9.0500580E-01
   7136.67  8.6658138E-01
   7137.00  8.3199140E-01
   7137.33  8.0179708E-01
   7137.67  7.7523829E-01
   7138.00  7.5192581E-01
   7138.33  7.3165364E-01
   7138.67  7.1351796E-01
   7139.00  6.9706801E-01
   7139.33  6.8202160E-01
   7139.67  6.6790875E-01
   7140.00  6.5456481E-01
   7140.33  6.4198738E-01
   7140.67  6.3008203E-01
   7141.00  6.1886916E-01
   7141.33  6.0846985E-01
   7141.67  5.9882622E-01
   7142.00  5.8996264E-01
   7142.33  5.8199790E-01
   7142.67  5.7484140E-01
   7143.00  5.6849571E-01
   7143.33  5.6306143E-01
   7143.67  5.5843575E-01
   7144.00  5.5461907E-01
   7144.33  5.5172186E-01
   7144.67  5.4965511E-01
   7145.00  5.4842292E-01
   7145.33  5.4812790E-01
   7145.67  5.4865962E-01
   7146.00  5.5000712E-01
   7146.33  5.5224707E-01
   7146.67  5.5524180E-01
   7147.00  5.5893933E-01
   7147.33  5.6332412E-01
   7147.67  5.6818395E-01
   7148.00  5.7336317E-01
   7148.33  5.7867221E-01
   7148.67  5.8390312E-01
   7149.00  5.8889220E-01
   7149.33  5.9339302E-01
   7149.67  5.9728207E-01
   7150.00  6.0043031E-01
   7150.33  6.0261382E-01
   7150.67  6.0385797E-01
   7151.00  6.0411552E-01
   7151.33  6.0321985E-01
   7151.67  6.0126731E-01
   7152.00  5.9822948E-01
   7152.33  5.9392850E-01
   7152.67  5.8846584E-01
   7153.00  5.8181499E-01
   7153.33  5.7382392E-01
   7153.67  5.6468471E-01
   7154.00  5.5446741E-01
   7154.33  5.4317831E-01
   7154.67  5.3111008E-01
   7155.00  5.1843891E-01
   7155.33  5.0533617E-01
   7155.67  4.9206354E-01
   7156.00  4.7878507E-01
   7156.33  4.6567493E-01
   7156.67  4.5282900E-01
   7157.00  4.4031353E-01
   7157.33  4.2821305E-01
   7157.67  4.1648470E-01
   7158.00  4.0511162E-01
   7158.33  3.9409995E-01
   7158.67  3.8337006E-01
   7159.00  3.7289170E-01
   7159.33  3.6266785E-01
   7159.67  3.5265896E-01
   7160.00  3.4286796E-01
   7160.33  3.3334717E-01
   7160.67  3.2411446E-01
   7161.00  3.1522713E-01
   7161.33  3.0680390E-01
   7161.67  2.9886259E-01
   7162.00  2.9146803E-01
   7162.33  2.8477841E-01
   7162.67  2.7879870E-01
   7163.00  2.7360027E-01
   7163.33  2.6936762E-01
   7163.67  2.6606485E-01
   7164.00  2.6374570E-01
   7164.33  2.6258503E-01
   7164.67  2.6248043E-01
   7165.00  2.6343994E-01
   7165.33  2.6558936E-01
   7165.67  2.6877137E-01
   7166.00  2.7294680E-01
   7166.33  2.7816765E-01
   7166.67  2.8423719E-01
   7167.00  2.9107354E-01
   7167.33  2.9864950E-01
   7167.67  3.0675913E-01
   7168.00  3.1528570E-01
   7168.33  3.2411891E-01
   7168.67  3.3307598E-01
   7169.00  3.4203008E-01
   7169.33  3.5082279E-01
   7169.67  3.5934461E-01
   7170.00  3.6749927E-01
   7170.33  3.7513322E-01
   7170.67  3.8222273E-01
   7171.00  3.8870135E-01
   7171.33  3.9438934E-01
   7171.67  3.9923200E-01
   7172.00  4.0305612E-01
