    FDMNES
    energy     <xanes>
   7097.00  4.7191326E-03
   7097.33  4.8208058E-03
   7097.67  4.9266696E-03
   7098.00  5.0369850E-03
   7098.33  5.1526838E-03
   7098.67  5.2735372E-03
   7099.00  5.3998936E-03
   7099.33  5.5329462E-03
   7099.67  5.6724522E-03
   7100.00  5.8188887E-03
   7100.33  5.9738199E-03
   7100.67  6.1370012E-03
   7101.00  6.3091048E-03
   7101.33  6.4922398E-03
   7101.67  6.6861883E-03
   7102.00  6.8919304E-03
   7102.33  7.1124085E-03
   7102.67  7.3474955E-03
   7103.00  7.5986819E-03
   7103.33  7.8702473E-03
   7103.67  8.1623027E-03
   7104.00  8.4772345E-03
   7104.33  8.8216054E-03
   7104.67  9.1961141E-03
   7105.00  9.6048428E-03
   7105.33  1.0058570E-02
   7105.67  1.0559483E-02
   7106.00  1.1115204E-02
   7106.33  1.1745170E-02
   7106.67  1.2455649E-02
   7107.00  1.3262751E-02
   7107.33  1.4206583E-02
   7107.67  1.5306461E-02
   7108.00  1.6603424E-02
   7108.33  1.8199869E-02
   7108.67  2.0169221E-02
   7109.00  2.2654336E-02
   7109.33  2.6034174E-02
   7109.67  3.0729514E-02
   7110.00  3.7574581E-02
   7110.33  4.8890690E-02
   7110.67  6.6064363E-02
   7111.00  8.4893106E-02
   7111.33  9.5234128E-02
   7111.67  1.0833256E-01
   7112.00  1.3507019E-01
   7112.33  1.8192257E-01
   7112.67  2.3417841E-01
   7113.00  2.6182287E-01
   7113.33  2.6981275E-01
   7113.67  2.9356034E-01
   7114.00  3.0309267E-01
   7114.33  2.5603539E-01
   7114.67  2.0325958E-01
   7115.00  1.7637912E-01
   7115.33  1.8347147E-01
   7115.67  2.2023095E-01
   7116.00  2.7840423E-01
   7116.33  3.2546200E-01
   7116.67  3.3602592E-01
   7117.00  3.0571349E-01
   7117.33  2.5743023E-01
   7117.67  2.1693965E-01
   7118.00  1.8837038E-01
   7118.33  1.7015315E-01
   7118.67  1.5811578E-01
   7119.00  1.5047409E-01
   7119.33  1.4689950E-01
   7119.67  1.4691822E-01
   7120.00  1.4938874E-01
   7120.33  1.5195475E-01
   7120.67  1.5321056E-01
   7121.00  1.5358101E-01
   7121.33  1.5419037E-01
   7121.67  1.5545107E-01
   7122.00  1.5755568E-01
   7122.33  1.6098251E-01
   7122.67  1.6583224E-01
   7123.00  1.7227630E-01
   7123.33  1.8061915E-01
   7123.67  1.9037795E-01
   7124.00  2.0102912E-01
   7124.33  2.1198153E-01
   7124.67  2.2296613E-01
   7125.00  2.3417005E-01
   7125.33  2.4636562E-01
   7125.67  2.6064351E-01
   7126.00  2.7840543E-01
   7126.33  3.0176609E-01
   7126.67  3.3028085E-01
   7127.00  3.6218565E-01
   7127.33  3.9321581E-01
   7127.67  4.1954377E-01
   7128.00  4.4070521E-01
   7128.33  4.5962493E-01
   7128.67  4.8069564E-01
   7129.00  5.0616670E-01
   7129.33  5.3751124E-01
   7129.67  5.7377056E-01
   7130.00  6.1423014E-01
   7130.33  6.5788253E-01
   7130.67  7.0223920E-01
   7131.00  7.4494117E-01
   7131.33  7.8271262E-01
   7131.67  8.1396336E-01
   7132.00  8.3770217E-01
   7132.33  8.5297801E-01
   7132.67  8.6191681E-01
   7133.00  8.6627688E-01
   7133.33  8.6816041E-01
   7133.67  8.6993506E-01
   7134.00  8.7276640E-01
   7134.33  8.7719330E-01
   7134.67  8.8223531E-01
   7135.00  8.8631470E-01
   7135.33  8.8640915E-01
   7135.67  8.8024392E-01
   7136.00  8.6609170E-01
   7136.33  8.4233632E-01
   7136.67  8.1129448E-01
   7137.00  7.7513212E-01
   7137.33  7.3658142E-01
   7137.67  6.9866861E-01
   7138.00  6.6323304E-01
   7138.33  6.3219191E-01
   7138.67  6.0578116E-01
   7139.00  5.8411719E-01
   7139.33  5.6740656E-01
   7139.67  5.5449429E-01
   7140.00  5.4481907E-01
   7140.33  5.3810349E-01
   7140.67  5.3352382E-01
   7141.00  5.3076839E-01
   7141.33  5.2979877E-01
   7141.67  5.3028303E-01
   7142.00  5.3214910E-01
   7142.33  5.3546566E-01
   7142.67  5.3990731E-01
   7143.00  5.4522960E-01
   7143.33  5.5103983E-01
   7143.67  5.5665185E-01
   7144.00  5.6140489E-01
   7144.33  5.6428208E-01
   7144.67  5.6481369E-01
   7145.00  5.6267656E-01
   7145.33  5.5759352E-01
   7145.67  5.5039644E-01
   7146.00  5.4177166E-01
   7146.33  5.3254371E-01
   7146.67  5.2359039E-01
   7147.00  5.1545125E-01
   7147.33  5.0869309E-01
   7147.67  5.0336944E-01
   7148.00  4.9952913E-01
   7148.33  4.9730098E-01
   7148.67  4.9637814E-01
   7149.00  4.9661472E-01
   7149.33  4.9794568E-01
   7149.67  5.0006348E-01
   7150.00  5.0281746E-01
   7150.33  5.0612331E-01
   7150.67  5.0981473E-01
   7151.00  5.1383140E-01
   7151.33  5.1816971E-01
   7151.67  5.2278341E-01
   7152.00  5.2767960E-01
   7152.33  5.3291144E-01
   7152.67  5.3844823E-01
   7153.00  5.4427278E-01
   7153.33  5.5035886E-01
   7153.67  5.5658296E-01
   7154.00  5.6283363E-01
   7154.33  5.6894032E-01
   7154.67  5.7475532E-01
   7155.00  5.8014569E-01
   7155.33  5.8491056E-01
   7155.67  5.8902278E-01
   7156.00  5.9243009E-01
   7156.33  5.9501542E-01
   7156.67  5.9687802E-01
   7157.00  5.9804716E-01
   7157.33  5.9849820E-01
   7157.67  5.9838306E-01
   7158.00  5.9777277E-01
   7158.33  5.9670480E-01
   7158.67  5.9531925E-01
   7159.00  5.9368969E-01
   7159.33  5.9187350E-01
   7159.67  5.8995741E-01
   7160.00  5.8798539E-01
   7160.33  5.8598888E-01
   7160.67  5.8398582E-01
   7161.00  5.8197441E-01
   7161.33  5.7993238E-01
   7161.67  5.7782819E-01
   7162.00  5.7562128E-01
   7162.33  5.7323537E-01
   7162.67  5.7062977E-01
   7163.00  5.6775489E-01
   7163.33  5.6452159E-01
   7163.67  5.6093097E-01
   7164.00  5.5696113E-01
   7164.33  5.5255640E-01
   7164.67  5.4777810E-01
   7165.00  5.4265262E-01
   7165.33  5.3719291E-01
   7165.67  5.3150358E-01
   7166.00  5.2565083E-01
   7166.33  5.1970548E-01
   7166.67  5.1375799E-01
   7167.00  5.0787113E-01
   7167.33  5.0212061E-01
   7167.67  4.9653624E-01
   7168.00  4.9114331E-01
   7168.33  4.8598091E-01
   7168.67  4.8102120E-01
   7169.00  4.7625284E-01
   7169.33  4.7167764E-01
   7169.67  4.6725301E-01
   7170.00  4.6296415E-01
   7170.33  4.5881889E-01
   7170.67  4.5481037E-01
   7171.00  4.5096483E-01
   7171.33  4.4738040E-01
   7171.67  4.4417535E-01
   7172.00  4.4154603E-01
