    FDMNES
    energy     <xanes>
   7097.00  4.2699102E-03
   7097.33  4.3582947E-03
   7097.67  4.4502184E-03
   7098.00  4.5459031E-03
   7098.33  4.6461389E-03
   7098.67  4.7507364E-03
   7099.00  4.8599953E-03
   7099.33  4.9749351E-03
   7099.67  5.0953606E-03
   7100.00  5.2216891E-03
   7100.33  5.3552732E-03
   7100.67  5.4959276E-03
   7101.00  5.6442538E-03
   7101.33  5.8021083E-03
   7101.67  5.9693519E-03
   7102.00  6.1468882E-03
   7102.33  6.3373731E-03
   7102.67  6.5407956E-03
   7103.00  6.7585834E-03
   7103.33  6.9947369E-03
   7103.67  7.2495645E-03
   7104.00  7.5254673E-03
   7104.33  7.8288753E-03
   7104.67  8.1608901E-03
   7105.00  8.5258789E-03
   7105.33  8.9350836E-03
   7105.67  9.3916734E-03
   7106.00  9.9044507E-03
   7106.33  1.0495390E-02
   7106.67  1.1173621E-02
   7107.00  1.1959534E-02
   7107.33  1.2903280E-02
   7107.67  1.4034190E-02
   7108.00  1.5409940E-02
   7108.33  1.7174353E-02
   7108.67  1.9445237E-02
   7109.00  2.2444589E-02
   7109.33  2.6764847E-02
   7109.67  3.3105586E-02
   7110.00  4.2846522E-02
   7110.33  5.9985944E-02
   7110.67  8.8626136E-02
   7111.00  1.2822326E-01
   7111.33  1.5997999E-01
   7111.67  1.7148509E-01
   7112.00  1.6842015E-01
   7112.33  1.6448892E-01
   7112.67  1.6278214E-01
   7113.00  1.5611484E-01
   7113.33  1.4021289E-01
   7113.67  1.2269107E-01
   7114.00  1.0854738E-01
   7114.33  9.8093778E-02
   7114.67  8.8811127E-02
   7115.00  8.1015920E-02
   7115.33  7.5397374E-02
   7115.67  7.1362041E-02
   7116.00  6.9019204E-02
   7116.33  6.8996918E-02
   7116.67  7.1204235E-02
   7117.00  7.5590771E-02
   7117.33  8.2035504E-02
   7117.67  8.9651844E-02
   7118.00  9.8085203E-02
   7118.33  1.0763855E-01
   7118.67  1.1816793E-01
   7119.00  1.2900785E-01
   7119.33  1.3919482E-01
   7119.67  1.4877938E-01
   7120.00  1.5853975E-01
   7120.33  1.6989425E-01
   7120.67  1.8367444E-01
   7121.00  2.0016316E-01
   7121.33  2.1881189E-01
   7121.67  2.3754587E-01
   7122.00  2.5496873E-01
   7122.33  2.7073663E-01
   7122.67  2.8595529E-01
   7123.00  3.0104447E-01
   7123.33  3.1524642E-01
   7123.67  3.2861569E-01
   7124.00  3.4297850E-01
   7124.33  3.6026823E-01
   7124.67  3.7890295E-01
   7125.00  3.9684800E-01
   7125.33  4.1344756E-01
   7125.67  4.2965430E-01
   7126.00  4.4531505E-01
   7126.33  4.5927085E-01
   7126.67  4.7092253E-01
   7127.00  4.8002287E-01
   7127.33  4.8665588E-01
   7127.67  4.9204833E-01
   7128.00  4.9699567E-01
   7128.33  5.0180836E-01
   7128.67  5.0648264E-01
   7129.00  5.1140469E-01
   7129.33  5.1782226E-01
   7129.67  5.2657506E-01
   7130.00  5.3794433E-01
   7130.33  5.5182946E-01
   7130.67  5.6718497E-01
   7131.00  5.8339759E-01
   7131.33  6.0018989E-01
   7131.67  6.1780872E-01
   7132.00  6.3699494E-01
   7132.33  6.5870905E-01
   7132.67  6.8229098E-01
   7133.00  7.0649650E-01
   7133.33  7.2929376E-01
   7133.67  7.4916786E-01
   7134.00  7.6492877E-01
   7134.33  7.7451113E-01
   7134.67  7.7765649E-01
   7135.00  7.7447810E-01
   7135.33  7.6542585E-01
   7135.67  7.5275397E-01
   7136.00  7.3787481E-01
   7136.33  7.2208408E-01
   7136.67  7.0644408E-01
   7137.00  6.9139834E-01
   7137.33  6.7718959E-01
   7137.67  6.6364148E-01
   7138.00  6.5063718E-01
   7138.33  6.3816468E-01
   7138.67  6.2620309E-01
   7139.00  6.1485841E-01
   7139.33  6.0440839E-01
   7139.67  5.9497976E-01
   7140.00  5.8680379E-01
   7140.33  5.8036499E-01
   7140.67  5.7572561E-01
   7141.00  5.7302690E-01
   7141.33  5.7254964E-01
   7141.67  5.7392207E-01
   7142.00  5.7692661E-01
   7142.33  5.8139989E-01
   7142.67  5.8684441E-01
   7143.00  5.9301560E-01
   7143.33  5.9977611E-01
   7143.67  6.0694705E-01
   7144.00  6.1448211E-01
   7144.33  6.2238714E-01
   7144.67  6.3056229E-01
   7145.00  6.3891425E-01
   7145.33  6.4727895E-01
   7145.67  6.5544057E-01
   7146.00  6.6319406E-01
   7146.33  6.7021296E-01
   7146.67  6.7633060E-01
   7147.00  6.8132309E-01
   7147.33  6.8472640E-01
   7147.67  6.8640236E-01
   7148.00  6.8609731E-01
   7148.33  6.8332991E-01
   7148.67  6.7830189E-01
   7149.00  6.7108802E-01
   7149.33  6.6170354E-01
   7149.67  6.5078802E-01
   7150.00  6.3874198E-01
   7150.33  6.2594430E-01
   7150.67  6.1288192E-01
   7151.00  5.9983147E-01
   7151.33  5.8706067E-01
   7151.67  5.7469487E-01
   7152.00  5.6281661E-01
   7152.33  5.5154180E-01
   7152.67  5.4081613E-01
   7153.00  5.3063388E-01
   7153.33  5.2104013E-01
   7153.67  5.1193641E-01
   7154.00  5.0328465E-01
   7154.33  4.9508357E-01
   7154.67  4.8723210E-01
   7155.00  4.7969022E-01
   7155.33  4.7245091E-01
   7155.67  4.6544803E-01
   7156.00  4.5866022E-01
   7156.33  4.5209347E-01
   7156.67  4.4571020E-01
   7157.00  4.3950209E-01
   7157.33  4.3348030E-01
   7157.67  4.2761272E-01
   7158.00  4.2188816E-01
   7158.33  4.1630952E-01
   7158.67  4.1085141E-01
   7159.00  4.0551379E-01
   7159.33  4.0032572E-01
   7159.67  3.9529879E-01
   7160.00  3.9046773E-01
   7160.33  3.8590902E-01
   7160.67  3.8163938E-01
   7161.00  3.7769373E-01
   7161.33  3.7414115E-01
   7161.67  3.7094087E-01
   7162.00  3.6808050E-01
   7162.33  3.6557498E-01
   7162.67  3.6335632E-01
   7163.00  3.6140331E-01
   7163.33  3.5973353E-01
   7163.67  3.5831646E-01
   7164.00  3.5716396E-01
   7164.33  3.5633516E-01
   7164.67  3.5582121E-01
   7165.00  3.5564246E-01
   7165.33  3.5585685E-01
   7165.67  3.5642282E-01
   7166.00  3.5733297E-01
   7166.33  3.5861015E-01
   7166.67  3.6018879E-01
   7167.00  3.6204444E-01
   7167.33  3.6417748E-01
   7167.67  3.6652520E-01
   7168.00  3.6905961E-01
   7168.33  3.7176657E-01
   7168.67  3.7459181E-01
   7169.00  3.7750273E-01
   7169.33  3.8046353E-01
   7169.67  3.8342382E-01
   7170.00  3.8634265E-01
   7170.33  3.8915884E-01
   7170.67  3.9183228E-01
   7171.00  3.9431684E-01
   7171.33  3.9652199E-01
   7171.67  3.9840360E-01
   7172.00  3.9988293E-01
