    FDMNES
    energy     <xanes>
   7097.00  4.9916532E-03
   7097.33  5.1098264E-03
   7097.67  5.2333931E-03
   7098.00  5.3627195E-03
   7098.33  5.4990557E-03
   7098.67  5.6421476E-03
   7099.00  5.7924933E-03
   7099.33  5.9517269E-03
   7099.67  6.1195867E-03
   7100.00  6.2967684E-03
   7100.33  6.4854615E-03
   7100.67  6.6854203E-03
   7101.00  6.8976450E-03
   7101.33  7.1251574E-03
   7101.67  7.3677795E-03
   7102.00  7.6270001E-03
   7102.33  7.9071394E-03
   7102.67  8.2082001E-03
   7103.00  8.5324939E-03
   7103.33  8.8864654E-03
   7103.67  9.2705526E-03
   7104.00  9.6885325E-03
   7104.33  1.0150539E-02
   7104.67  1.0658043E-02
   7105.00  1.1217621E-02
   7105.33  1.1846309E-02
   7105.67  1.2548116E-02
   7106.00  1.3335477E-02
   7106.33  1.4239653E-02
   7106.67  1.5271396E-02
   7107.00  1.6456976E-02
   7107.33  1.7861101E-02
   7107.67  1.9514929E-02
   7108.00  2.1483475E-02
   7108.33  2.3926631E-02
   7108.67  2.6951708E-02
   7109.00  3.0764377E-02
   7109.33  3.5890467E-02
   7109.67  4.2839508E-02
   7110.00  5.2591506E-02
   7110.33  6.7884377E-02
   7110.67  9.1869889E-02
   7111.00  1.2816165E-01
   7111.33  1.8005412E-01
   7111.67  2.4407449E-01
   7112.00  3.1394443E-01
   7112.33  3.6843504E-01
   7112.67  3.9452772E-01
   7113.00  4.0529619E-01
   7113.33  4.1223383E-01
   7113.67  4.2558029E-01
   7114.00  4.3655014E-01
   7114.33  3.9319540E-01
   7114.67  3.1599381E-01
   7115.00  2.5108642E-01
   7115.33  2.2079217E-01
   7115.67  2.1799385E-01
   7116.00  2.3113201E-01
   7116.33  2.3509214E-01
   7116.67  2.2134300E-01
   7117.00  1.9392514E-01
   7117.33  1.6434122E-01
   7117.67  1.4298260E-01
   7118.00  1.3079616E-01
   7118.33  1.2616278E-01
   7118.67  1.2528698E-01
   7119.00  1.2631258E-01
   7119.33  1.2775230E-01
   7119.67  1.2867840E-01
   7120.00  1.2952301E-01
   7120.33  1.3070571E-01
   7120.67  1.3241635E-01
   7121.00  1.3549393E-01
   7121.33  1.4022419E-01
   7121.67  1.4583443E-01
   7122.00  1.5287192E-01
   7122.33  1.6167547E-01
   7122.67  1.6982892E-01
   7123.00  1.7637902E-01
   7123.33  1.8301414E-01
   7123.67  1.9117562E-01
   7124.00  2.0095698E-01
   7124.33  2.1229079E-01
   7124.67  2.2515660E-01
   7125.00  2.3962346E-01
   7125.33  2.5522459E-01
   7125.67  2.7049766E-01
   7126.00  2.8391009E-01
   7126.33  2.9367965E-01
   7126.67  3.0078831E-01
   7127.00  3.0703150E-01
   7127.33  3.1444900E-01
   7127.67  3.2406059E-01
   7128.00  3.3630607E-01
   7128.33  3.5157200E-01
   7128.67  3.6954438E-01
   7129.00  3.9047499E-01
   7129.33  4.1530121E-01
   7129.67  4.4433680E-01
   7130.00  4.7850928E-01
   7130.33  5.1951967E-01
   7130.67  5.6644815E-01
   7131.00  6.1817729E-01
   7131.33  6.7358948E-01
   7131.67  7.3107658E-01
   7132.00  7.8950163E-01
   7132.33  8.4698078E-01
   7132.67  9.0206626E-01
   7133.00  9.5418081E-01
   7133.33  1.0027627E+00
   7133.67  1.0473830E+00
   7134.00  1.0857041E+00
   7134.33  1.1093605E+00
   7134.67  1.1098758E+00
   7135.00  1.0817904E+00
   7135.33  1.0252849E+00
   7135.67  9.5433523E-01
   7136.00  8.7876284E-01
   7136.33  8.0692068E-01
   7136.67  7.4220819E-01
   7137.00  6.8573577E-01
   7137.33  6.3865990E-01
   7137.67  5.9947717E-01
   7138.00  5.6754182E-01
   7138.33  5.4267712E-01
   7138.67  5.2300599E-01
   7139.00  5.0758550E-01
   7139.33  4.9584059E-01
   7139.67  4.8663343E-01
   7140.00  4.7961307E-01
   7140.33  4.7491782E-01
   7140.67  4.7231268E-01
   7141.00  4.7177895E-01
   7141.33  4.7340842E-01
   7141.67  4.7671149E-01
   7142.00  4.8143963E-01
   7142.33  4.8743943E-01
   7142.67  4.9429992E-01
   7143.00  5.0183893E-01
   7143.33  5.0999387E-01
   7143.67  5.1862516E-01
   7144.00  5.2764736E-01
   7144.33  5.3683234E-01
   7144.67  5.4567496E-01
   7145.00  5.5357284E-01
   7145.33  5.5951939E-01
   7145.67  5.6307205E-01
   7146.00  5.6394869E-01
   7146.33  5.6191936E-01
   7146.67  5.5779327E-01
   7147.00  5.5217970E-01
   7147.33  5.4574927E-01
   7147.67  5.3927793E-01
   7148.00  5.3324322E-01
   7148.33  5.2817192E-01
   7148.67  5.2426110E-01
   7149.00  5.2170734E-01
   7149.33  5.2086334E-01
   7149.67  5.2162383E-01
   7150.00  5.2399431E-01
   7150.33  5.2809030E-01
   7150.67  5.3354941E-01
   7151.00  5.4014733E-01
   7151.33  5.4764772E-01
   7151.67  5.5556285E-01
   7152.00  5.6355127E-01
   7152.33  5.7121215E-01
   7152.67  5.7829194E-01
   7153.00  5.8461945E-01
   7153.33  5.8998170E-01
   7153.67  5.9446709E-01
   7154.00  5.9811037E-01
   7154.33  6.0089203E-01
   7154.67  6.0299991E-01
   7155.00  6.0451146E-01
   7155.33  6.0544135E-01
   7155.67  6.0591928E-01
   7156.00  6.0599226E-01
   7156.33  6.0566806E-01
   7156.67  6.0504788E-01
   7157.00  6.0418845E-01
   7157.33  6.0314636E-01
   7157.67  6.0202886E-01
   7158.00  6.0091438E-01
   7158.33  5.9990087E-01
   7158.67  5.9904192E-01
   7159.00  5.9836222E-01
   7159.33  5.9786398E-01
   7159.67  5.9745594E-01
   7160.00  5.9703629E-01
   7160.33  5.9642661E-01
   7160.67  5.9546834E-01
   7161.00  5.9400731E-01
   7161.33  5.9180399E-01
   7161.67  5.8883043E-01
   7162.00  5.8504105E-01
   7162.33  5.8034252E-01
   7162.67  5.7490223E-01
   7163.00  5.6881133E-01
   7163.33  5.6212964E-01
   7163.67  5.5505286E-01
   7164.00  5.4768721E-01
   7164.33  5.4012128E-01
   7164.67  5.3247283E-01
   7165.00  5.2481318E-01
   7165.33  5.1722225E-01
   7165.67  5.0975298E-01
   7166.00  5.0244830E-01
   7166.33  4.9537266E-01
   7166.67  4.8852863E-01
   7167.00  4.8193189E-01
   7167.33  4.7562150E-01
   7167.67  4.6956274E-01
   7168.00  4.6374884E-01
   7168.33  4.5820560E-01
   7168.67  4.5290223E-01
   7169.00  4.4783390E-01
   7169.33  4.4303076E-01
   7169.67  4.3847599E-01
   7170.00  4.3418377E-01
   7170.33  4.3021047E-01
   7170.67  4.2654792E-01
   7171.00  4.2322486E-01
   7171.33  4.2033126E-01
   7171.67  4.1787876E-01
   7172.00  4.1593168E-01
