    FDMNES
    energy     <xanes>
   7097.00  5.2458094E-03
   7097.33  5.3757713E-03
   7097.67  5.5118461E-03
   7098.00  5.6544548E-03
   7098.33  5.8050241E-03
   7098.67  5.9632732E-03
   7099.00  6.1297758E-03
   7099.33  6.3064011E-03
   7099.67  6.4928608E-03
   7100.00  6.6899566E-03
   7100.33  6.9001986E-03
   7100.67  7.1233181E-03
   7101.00  7.3604684E-03
   7101.33  7.6151207E-03
   7101.67  7.8870848E-03
   7102.00  8.1780791E-03
   7102.33  8.4930739E-03
   7102.67  8.8320888E-03
   7103.00  9.1977928E-03
   7103.33  9.5976107E-03
   7103.67  1.0032067E-02
   7104.00  1.0505524E-02
   7104.33  1.1029675E-02
   7104.67  1.1606242E-02
   7105.00  1.2242836E-02
   7105.33  1.2959148E-02
   7105.67  1.3759869E-02
   7106.00  1.4659437E-02
   7106.33  1.5694132E-02
   7106.67  1.6876623E-02
   7107.00  1.8237667E-02
   7107.33  1.9853084E-02
   7107.67  2.1760289E-02
   7108.00  2.4036966E-02
   7108.33  2.6875084E-02
   7108.67  3.0409192E-02
   7109.00  3.4897734E-02
   7109.33  4.1013065E-02
   7109.67  4.9456378E-02
   7110.00  6.1596495E-02
   7110.33  8.1257993E-02
   7110.67  1.1181910E-01
   7111.00  1.5233051E-01
   7111.33  1.9585822E-01
   7111.67  2.5025001E-01
   7112.00  3.1959720E-01
   7112.33  3.7340160E-01
   7112.67  4.0755038E-01
   7113.00  4.7018383E-01
   7113.33  5.7005493E-01
   7113.67  6.2668763E-01
   7114.00  5.6469891E-01
   7114.33  4.2745593E-01
   7114.67  3.2589962E-01
   7115.00  2.6965486E-01
   7115.33  2.4943957E-01
   7115.67  2.5201380E-01
   7116.00  2.7078996E-01
   7116.33  2.8910566E-01
   7116.67  2.8548704E-01
   7117.00  2.6168806E-01
   7117.33  2.3485970E-01
   7117.67  2.1361676E-01
   7118.00  1.9795125E-01
   7118.33  1.8619005E-01
   7118.67  1.7618372E-01
   7119.00  1.6772622E-01
   7119.33  1.6200883E-01
   7119.67  1.5882735E-01
   7120.00  1.5727343E-01
   7120.33  1.5630413E-01
   7120.67  1.5510132E-01
   7121.00  1.5332266E-01
   7121.33  1.5113283E-01
   7121.67  1.4978493E-01
   7122.00  1.5037011E-01
   7122.33  1.5305359E-01
   7122.67  1.5671010E-01
   7123.00  1.6106576E-01
   7123.33  1.6686950E-01
   7123.67  1.7471830E-01
   7124.00  1.8486319E-01
   7124.33  1.9737408E-01
   7124.67  2.1141654E-01
   7125.00  2.2638879E-01
   7125.33  2.4208106E-01
   7125.67  2.5905202E-01
   7126.00  2.7847470E-01
   7126.33  3.0189099E-01
   7126.67  3.2811860E-01
   7127.00  3.5430395E-01
   7127.33  3.7557665E-01
   7127.67  3.9101573E-01
   7128.00  4.0285984E-01
   7128.33  4.1499365E-01
   7128.67  4.3000124E-01
   7129.00  4.4882084E-01
   7129.33  4.7212028E-01
   7129.67  4.9906792E-01
   7130.00  5.2904515E-01
   7130.33  5.6119792E-01
   7130.67  5.9391655E-01
   7131.00  6.2596440E-01
   7131.33  6.5579097E-01
   7131.67  6.8268653E-01
   7132.00  7.0620438E-01
   7132.33  7.2582987E-01
   7132.67  7.4228976E-01
   7133.00  7.5604259E-01
   7133.33  7.6753722E-01
   7133.67  7.7786292E-01
   7134.00  7.8782167E-01
   7134.33  7.9844659E-01
   7134.67  8.1044758E-01
   7135.00  8.2404649E-01
   7135.33  8.3845859E-01
   7135.67  8.5078256E-01
   7136.00  8.5682572E-01
   7136.33  8.4912798E-01
   7136.67  8.2494586E-01
   7137.00  7.8432207E-01
   7137.33  7.3074269E-01
   7137.67  6.7332943E-01
   7138.00  6.1825011E-01
   7138.33  5.7124633E-01
   7138.67  5.3354855E-01
   7139.00  5.0531882E-01
   7139.33  4.8662839E-01
   7139.67  4.7481062E-01
   7140.00  4.6838268E-01
   7140.33  4.6623180E-01
   7140.67  4.6655915E-01
   7141.00  4.6846981E-01
   7141.33  4.7130555E-01
   7141.67  4.7449966E-01
   7142.00  4.7787629E-01
   7142.33  4.8146816E-01
   7142.67  4.8541322E-01
   7143.00  4.8990034E-01
   7143.33  4.9522207E-01
   7143.67  5.0141348E-01
   7144.00  5.0851171E-01
   7144.33  5.1658419E-01
   7144.67  5.2540339E-01
   7145.00  5.3481768E-01
   7145.33  5.4465794E-01
   7145.67  5.5463806E-01
   7146.00  5.6455205E-01
   7146.33  5.7415499E-01
   7146.67  5.8332559E-01
   7147.00  5.9196830E-01
   7147.33  5.9993558E-01
   7147.67  6.0727082E-01
   7148.00  6.1397409E-01
   7148.33  6.1999063E-01
   7148.67  6.2542901E-01
   7149.00  6.3031749E-01
   7149.33  6.3461986E-01
   7149.67  6.3842306E-01
   7150.00  6.4173840E-01
   7150.33  6.4451759E-01
   7150.67  6.4683993E-01
   7151.00  6.4873087E-01
   7151.33  6.5018207E-01
   7151.67  6.5129321E-01
   7152.00  6.5211248E-01
   7152.33  6.5266507E-01
   7152.67  6.5302608E-01
   7153.00  6.5322094E-01
   7153.33  6.5323829E-01
   7153.67  6.5308101E-01
   7154.00  6.5271587E-01
   7154.33  6.5205440E-01
   7154.67  6.5106392E-01
   7155.00  6.4968750E-01
   7155.33  6.4781074E-01
   7155.67  6.4544511E-01
   7156.00  6.4256667E-01
   7156.33  6.3909555E-01
   7156.67  6.3509413E-01
   7157.00  6.3056397E-01
   7157.33  6.2544247E-01
   7157.67  6.1979916E-01
   7158.00  6.1364122E-01
   7158.33  6.0692857E-01
   7158.67  5.9977079E-01
   7159.00  5.9223862E-01
   7159.33  5.8442104E-01
   7159.67  5.7650893E-01
   7160.00  5.6866153E-01
   7160.33  5.6110609E-01
   7160.67  5.5399566E-01
   7161.00  5.4746810E-01
   7161.33  5.4173151E-01
   7161.67  5.3676701E-01
   7162.00  5.3259288E-01
   7162.33  5.2927953E-01
   7162.67  5.2666043E-01
   7163.00  5.2464388E-01
   7163.33  5.2315324E-01
   7163.67  5.2197384E-01
   7164.00  5.2096140E-01
   7164.33  5.1994157E-01
   7164.67  5.1874251E-01
   7165.00  5.1722244E-01
   7165.33  5.1517178E-01
   7165.67  5.1252350E-01
   7166.00  5.0919720E-01
   7166.33  5.0504667E-01
   7166.67  5.0015521E-01
   7167.00  4.9455335E-01
   7167.33  4.8823481E-01
   7167.67  4.8138259E-01
   7168.00  4.7410031E-01
   7168.33  4.6647646E-01
   7168.67  4.5867287E-01
   7169.00  4.5079765E-01
   7169.33  4.4297577E-01
   7169.67  4.3529845E-01
   7170.00  4.2783983E-01
   7170.33  4.2071966E-01
   7170.67  4.1398358E-01
   7171.00  4.0771159E-01
   7171.33  4.0209656E-01
   7171.67  3.9724547E-01
   7172.00  3.9336773E-01
