    FDMNES
    energy     <xanes>
   7097.00  5.5022358E-03
   7097.33  5.6464946E-03
   7097.67  5.7977962E-03
   7098.00  5.9566338E-03
   7098.33  6.1246639E-03
   7098.67  6.3015724E-03
   7099.00  6.4880312E-03
   7099.33  6.6862146E-03
   7099.67  6.8957986E-03
   7100.00  7.1177205E-03
   7100.33  7.3549017E-03
   7100.67  7.6070371E-03
   7101.00  7.8754702E-03
   7101.33  8.1642352E-03
   7101.67  8.4731085E-03
   7102.00  8.8040788E-03
   7102.33  9.1628989E-03
   7102.67  9.5495628E-03
   7103.00  9.9671277E-03
   7103.33  1.0424118E-02
   7103.67  1.0921043E-02
   7104.00  1.1462823E-02
   7104.33  1.2062691E-02
   7104.67  1.2722356E-02
   7105.00  1.3450183E-02
   7105.33  1.4267952E-02
   7105.67  1.5180208E-02
   7106.00  1.6202232E-02
   7106.33  1.7372634E-02
   7106.67  1.8703131E-02
   7107.00  2.0224353E-02
   7107.33  2.2011965E-02
   7107.67  2.4097812E-02
   7108.00  2.6551848E-02
   7108.33  2.9545284E-02
   7108.67  3.3177273E-02
   7109.00  3.7643062E-02
   7109.33  4.3430750E-02
   7109.67  5.0944617E-02
   7110.00  6.0957455E-02
   7110.33  7.5544261E-02
   7110.67  9.6851103E-02
   7111.00  1.2750497E-01
   7111.33  1.7108834E-01
   7111.67  2.2841428E-01
   7112.00  3.0625591E-01
   7112.33  4.3329418E-01
   7112.67  6.2937926E-01
   7113.00  8.7115071E-01
   7113.33  1.0064939E+00
   7113.67  9.4187010E-01
   7114.00  7.4868716E-01
   7114.33  5.6380210E-01
   7114.67  4.3148011E-01
   7115.00  3.4314689E-01
   7115.33  2.8613605E-01
   7115.67  2.4634898E-01
   7116.00  2.1888412E-01
   7116.33  2.0206760E-01
   7116.67  1.9347655E-01
   7117.00  1.9200481E-01
   7117.33  1.9455433E-01
   7117.67  1.9456832E-01
   7118.00  1.8807740E-01
   7118.33  1.7675542E-01
   7118.67  1.6626214E-01
   7119.00  1.5845246E-01
   7119.33  1.5326780E-01
   7119.67  1.4908386E-01
   7120.00  1.4476772E-01
   7120.33  1.3973575E-01
   7120.67  1.3512368E-01
   7121.00  1.3256156E-01
   7121.33  1.3337777E-01
   7121.67  1.3681592E-01
   7122.00  1.4228955E-01
   7122.33  1.4962941E-01
   7122.67  1.5827589E-01
   7123.00  1.6730717E-01
   7123.33  1.7485356E-01
   7123.67  1.8071652E-01
   7124.00  1.8617927E-01
   7124.33  1.9258007E-01
   7124.67  1.9984913E-01
   7125.00  2.0747550E-01
   7125.33  2.1475982E-01
   7125.67  2.2136583E-01
   7126.00  2.2739085E-01
   7126.33  2.3343953E-01
   7126.67  2.4037415E-01
   7127.00  2.4893019E-01
   7127.33  2.6018956E-01
   7127.67  2.7457445E-01
   7128.00  2.9260291E-01
   7128.33  3.1511170E-01
   7128.67  3.4165940E-01
   7129.00  3.7228253E-01
   7129.33  4.0783636E-01
   7129.67  4.4830087E-01
   7130.00  4.9383204E-01
   7130.33  5.4418230E-01
   7130.67  5.9669114E-01
   7131.00  6.4853425E-01
   7131.33  6.9522769E-01
   7131.67  7.3384663E-01
   7132.00  7.6265290E-01
   7132.33  7.8008674E-01
   7132.67  7.8825493E-01
   7133.00  7.8815784E-01
   7133.33  7.8016022E-01
   7133.67  7.6660612E-01
   7134.00  7.4904558E-01
   7134.33  7.2927872E-01
   7134.67  7.0943646E-01
   7135.00  6.9052826E-01
   7135.33  6.7261233E-01
   7135.67  6.5412754E-01
   7136.00  6.3322244E-01
   7136.33  6.0783705E-01
   7136.67  5.7881221E-01
   7137.00  5.4810296E-01
   7137.33  5.1901755E-01
   7137.67  4.9409947E-01
   7138.00  4.7481509E-01
   7138.33  4.6262920E-01
   7138.67  4.5656914E-01
   7139.00  4.5600730E-01
   7139.33  4.6045145E-01
   7139.67  4.6817909E-01
   7140.00  4.7825489E-01
   7140.33  4.8998197E-01
   7140.67  5.0257654E-01
   7141.00  5.1573477E-01
   7141.33  5.2934229E-01
   7141.67  5.4331880E-01
   7142.00  5.5768674E-01
   7142.33  5.7250873E-01
   7142.67  5.8770132E-01
   7143.00  6.0320520E-01
   7143.33  6.1895258E-01
   7143.67  6.3480887E-01
   7144.00  6.5068448E-01
   7144.33  6.6647531E-01
   7144.67  6.8209816E-01
   7145.00  6.9746476E-01
   7145.33  7.1240695E-01
   7145.67  7.2682676E-01
   7146.00  7.4058015E-01
   7146.33  7.5337574E-01
   7146.67  7.6512427E-01
   7147.00  7.7565646E-01
   7147.33  7.8460847E-01
   7147.67  7.9198790E-01
   7148.00  7.9767589E-01
   7148.33  8.0135169E-01
   7148.67  8.0319685E-01
   7149.00  8.0322546E-01
   7149.33  8.0129627E-01
   7149.67  7.9776782E-01
   7150.00  7.9280710E-01
   7150.33  7.8648886E-01
   7150.67  7.7920815E-01
   7151.00  7.7118040E-01
   7151.33  7.6259695E-01
   7151.67  7.5377724E-01
   7152.00  7.4491717E-01
   7152.33  7.3621103E-01
   7152.67  7.2777978E-01
   7153.00  7.1971480E-01
   7153.33  7.1214458E-01
   7153.67  7.0505307E-01
   7154.00  6.9844869E-01
   7154.33  6.9237357E-01
   7154.67  6.8672829E-01
   7155.00  6.8146386E-01
   7155.33  6.7655032E-01
   7155.67  6.7187106E-01
   7156.00  6.6735578E-01
   7156.33  6.6293180E-01
   7156.67  6.5850945E-01
   7157.00  6.5402625E-01
   7157.33  6.4940225E-01
   7157.67  6.4460113E-01
   7158.00  6.3959017E-01
   7158.33  6.3431611E-01
   7158.67  6.2879846E-01
   7159.00  6.2303926E-01
   7159.33  6.1702218E-01
   7159.67  6.1079604E-01
   7160.00  6.0438116E-01
   7160.33  5.9777816E-01
   7160.67  5.9102191E-01
   7161.00  5.8411478E-01
   7161.33  5.7702480E-01
   7161.67  5.6975002E-01
   7162.00  5.6226334E-01
   7162.33  5.5448998E-01
   7162.67  5.4641989E-01
   7163.00  5.3802624E-01
   7163.33  5.2924859E-01
   7163.67  5.2013036E-01
   7164.00  5.1069001E-01
   7164.33  5.0093524E-01
   7164.67  4.9096315E-01
   7165.00  4.8083852E-01
   7165.33  4.7063495E-01
   7165.67  4.6044700E-01
   7166.00  4.5034769E-01
   7166.33  4.4043670E-01
   7166.67  4.3076347E-01
   7167.00  4.2138031E-01
   7167.33  4.1237812E-01
   7167.67  4.0375180E-01
   7168.00  3.9552513E-01
   7168.33  3.8776245E-01
   7168.67  3.8040809E-01
   7169.00  3.7345251E-01
   7169.33  3.6693642E-01
   7169.67  3.6080411E-01
   7170.00  3.5504663E-01
   7170.33  3.4970047E-01
   7170.67  3.4471927E-01
   7171.00  3.4011608E-01
   7171.33  3.3598861E-01
   7171.67  3.3238842E-01
   7172.00  3.2946210E-01
