    FDMNES
    energy     <xanes>
   7097.00  4.9831228E-03
   7097.33  5.1073755E-03
   7097.67  5.2375881E-03
   7098.00  5.3741899E-03
   7098.33  5.5186057E-03
   7098.67  5.6705916E-03
   7099.00  5.8307451E-03
   7099.33  6.0009662E-03
   7099.67  6.1810224E-03
   7100.00  6.3717704E-03
   7100.33  6.5758210E-03
   7100.67  6.7929963E-03
   7101.00  7.0245689E-03
   7101.33  7.2742555E-03
   7101.67  7.5420289E-03
   7102.00  7.8298600E-03
   7102.33  8.1432719E-03
   7102.67  8.4826016E-03
   7103.00  8.8510602E-03
   7103.33  9.2572975E-03
   7103.67  9.7025113E-03
   7104.00  1.0192270E-02
   7104.33  1.0741037E-02
   7104.67  1.1352103E-02
   7105.00  1.2035912E-02
   7105.33  1.2818761E-02
   7105.67  1.3709377E-02
   7106.00  1.4729461E-02
   7106.33  1.5932414E-02
   7106.67  1.7342725E-02
   7107.00  1.9012155E-02
   7107.33  2.1067112E-02
   7107.67  2.3586020E-02
   7108.00  2.6719384E-02
   7108.33  3.0841928E-02
   7108.67  3.6270880E-02
   7109.00  4.3599161E-02
   7109.33  5.4411307E-02
   7109.67  7.0605959E-02
   7110.00  9.5927328E-02
   7110.33  1.4134769E-01
   7110.67  2.1917004E-01
   7111.00  3.3055168E-01
   7111.33  4.1330188E-01
   7111.67  4.3166058E-01
   7112.00  4.1028364E-01
   7112.33  3.7028308E-01
   7112.67  3.3094984E-01
   7113.00  2.8168987E-01
   7113.33  2.2133098E-01
   7113.67  1.6794073E-01
   7114.00  1.2911791E-01
   7114.33  1.0520977E-01
   7114.67  9.0339856E-02
   7115.00  8.1700215E-02
   7115.33  7.7600322E-02
   7115.67  7.6081112E-02
   7116.00  7.6847992E-02
   7116.33  8.0574874E-02
   7116.67  8.7095371E-02
   7117.00  9.6227646E-02
   7117.33  1.0742036E-01
   7117.67  1.1940916E-01
   7118.00  1.3176321E-01
   7118.33  1.4440305E-01
   7118.67  1.5590121E-01
   7119.00  1.6350381E-01
   7119.33  1.6463486E-01
   7119.67  1.6354611E-01
   7120.00  1.6585240E-01
   7120.33  1.7625117E-01
   7120.67  1.9416149E-01
   7121.00  2.1804064E-01
   7121.33  2.4374282E-01
   7121.67  2.6628580E-01
   7122.00  2.8540619E-01
   7122.33  3.0529690E-01
   7122.67  3.2947767E-01
   7123.00  3.5859312E-01
   7123.33  3.9195280E-01
   7123.67  4.2760349E-01
   7124.00  4.6516556E-01
   7124.33  5.0533975E-01
   7124.67  5.4633929E-01
   7125.00  5.8353431E-01
   7125.33  6.0904944E-01
   7125.67  6.2192235E-01
   7126.00  6.2456670E-01
   7126.33  6.2004208E-01
   7126.67  6.1119289E-01
   7127.00  5.9919889E-01
   7127.33  5.8672436E-01
   7127.67  5.7684544E-01
   7128.00  5.7056464E-01
   7128.33  5.6762108E-01
   7128.67  5.6679837E-01
   7129.00  5.6787853E-01
   7129.33  5.7113551E-01
   7129.67  5.7603602E-01
   7130.00  5.8146774E-01
   7130.33  5.8452275E-01
   7130.67  5.8249599E-01
   7131.00  5.7436475E-01
   7131.33  5.6146377E-01
   7131.67  5.4830665E-01
   7132.00  5.3804868E-01
   7132.33  5.3301500E-01
   7132.67  5.3225175E-01
   7133.00  5.3447046E-01
   7133.33  5.3818015E-01
   7133.67  5.4211695E-01
   7134.00  5.4611347E-01
   7134.33  5.5089462E-01
   7134.67  5.5739654E-01
   7135.00  5.6639635E-01
   7135.33  5.7892843E-01
   7135.67  5.9506392E-01
   7136.00  6.1512627E-01
   7136.33  6.3985966E-01
   7136.67  6.6859940E-01
   7137.00  7.0071279E-01
   7137.33  7.3484648E-01
   7137.67  7.6810163E-01
   7138.00  7.9727877E-01
   7138.33  8.1693584E-01
   7138.67  8.2431787E-01
   7139.00  8.1808769E-01
   7139.33  7.9842281E-01
   7139.67  7.7089841E-01
   7140.00  7.3934615E-01
   7140.33  7.0736856E-01
   7140.67  6.7759328E-01
   7141.00  6.5125406E-01
   7141.33  6.2925940E-01
   7141.67  6.1094971E-01
   7142.00  5.9590030E-01
   7142.33  5.8376498E-01
   7142.67  5.7349452E-01
   7143.00  5.6450752E-01
   7143.33  5.5632348E-01
   7143.67  5.4842991E-01
   7144.00  5.4059494E-01
   7144.33  5.3271379E-01
   7144.67  5.2489075E-01
   7145.00  5.1735993E-01
   7145.33  5.1059485E-01
   7145.67  5.0492826E-01
   7146.00  5.0066441E-01
   7146.33  4.9823371E-01
   7146.67  4.9750874E-01
   7147.00  4.9845754E-01
   7147.33  5.0116612E-01
   7147.67  5.0528999E-01
   7148.00  5.1068106E-01
   7148.33  5.1727980E-01
   7148.67  5.2472841E-01
   7149.00  5.3279587E-01
   7149.33  5.4118707E-01
   7149.67  5.4946609E-01
   7150.00  5.5724797E-01
   7150.33  5.6395951E-01
   7150.67  5.6931658E-01
   7151.00  5.7305224E-01
   7151.33  5.7473950E-01
   7151.67  5.7451817E-01
   7152.00  5.7238385E-01
   7152.33  5.6816156E-01
   7152.67  5.6219636E-01
   7153.00  5.5462863E-01
   7153.33  5.4550035E-01
   7153.67  5.3525292E-01
   7154.00  5.2414769E-01
   7154.33  5.1243275E-01
   7154.67  5.0047302E-01
   7155.00  4.8848457E-01
   7155.33  4.7667282E-01
   7155.67  4.6513112E-01
   7156.00  4.5390788E-01
   7156.33  4.4306252E-01
   7156.67  4.3254949E-01
   7157.00  4.2236389E-01
   7157.33  4.1254942E-01
   7157.67  4.0308162E-01
   7158.00  3.9398777E-01
   7158.33  3.8536313E-01
   7158.67  3.7720613E-01
   7159.00  3.6956222E-01
   7159.33  3.6255265E-01
   7159.67  3.5615841E-01
   7160.00  3.5042398E-01
   7160.33  3.4548123E-01
   7160.67  3.4127400E-01
   7161.00  3.3781704E-01
   7161.33  3.3520170E-01
   7161.67  3.3330736E-01
   7162.00  3.3208646E-01
   7162.33  3.3152740E-01
   7162.67  3.3144547E-01
   7163.00  3.3173001E-01
   7163.33  3.3226962E-01
   7163.67  3.3289604E-01
   7164.00  3.3350073E-01
   7164.33  3.3396555E-01
   7164.67  3.3423614E-01
   7165.00  3.3428211E-01
   7165.33  3.3407532E-01
   7165.67  3.3367886E-01
   7166.00  3.3314572E-01
   7166.33  3.3254914E-01
   7166.67  3.3198569E-01
   7167.00  3.3153009E-01
   7167.33  3.3127940E-01
   7167.67  3.3126320E-01
   7168.00  3.3150568E-01
   7168.33  3.3204469E-01
   7168.67  3.3283153E-01
   7169.00  3.3384122E-01
   7169.33  3.3506156E-01
   7169.67  3.3643281E-01
   7170.00  3.3792704E-01
   7170.33  3.3952974E-01
   7170.67  3.4120651E-01
   7171.00  3.4293510E-01
   7171.33  3.4466876E-01
   7171.67  3.4630180E-01
   7172.00  3.4767667E-01
