    FDMNES
    energy     <xanes>
   7097.00  5.3661053E-03
   7097.33  5.4996469E-03
   7097.67  5.6394775E-03
   7098.00  5.7860320E-03
   7098.33  5.9407814E-03
   7098.67  6.1034401E-03
   7099.00  6.2746028E-03
   7099.33  6.4562014E-03
   7099.67  6.6479461E-03
   7100.00  6.8506716E-03
   7100.33  7.0669821E-03
   7100.67  7.2966142E-03
   7101.00  7.5407766E-03
   7101.33  7.8030898E-03
   7101.67  8.0833857E-03
   7102.00  8.3834804E-03
   7102.33  8.7085970E-03
   7102.67  9.0588153E-03
   7103.00  9.4369888E-03
   7103.33  9.8510021E-03
   7103.67  1.0301531E-02
   7104.00  1.0793310E-02
   7104.33  1.1338939E-02
   7104.67  1.1940520E-02
   7105.00  1.2606479E-02
   7105.33  1.3358464E-02
   7105.67  1.4202168E-02
   7106.00  1.5153998E-02
   7106.33  1.6254929E-02
   7106.67  1.7520536E-02
   7107.00  1.8986941E-02
   7107.33  2.0742859E-02
   7107.67  2.2835307E-02
   7108.00  2.5359156E-02
   7108.33  2.8548726E-02
   7108.67  3.2576888E-02
   7109.00  3.7770766E-02
   7109.33  4.4980727E-02
   7109.67  5.5108819E-02
   7110.00  6.9902550E-02
   7110.33  9.4327390E-02
   7110.67  1.3406145E-01
   7111.00  1.9458173E-01
   7111.33  2.8099437E-01
   7111.67  3.7176705E-01
   7112.00  4.2119074E-01
   7112.33  3.8203549E-01
   7112.67  3.1598322E-01
   7113.00  2.7821230E-01
   7113.33  2.9264443E-01
   7113.67  3.6312147E-01
   7114.00  4.7820005E-01
   7114.33  5.0564834E-01
   7114.67  4.3272762E-01
   7115.00  3.7652058E-01
   7115.33  3.5166528E-01
   7115.67  3.0561193E-01
   7116.00  2.4015928E-01
   7116.33  1.8724988E-01
   7116.67  1.5453093E-01
   7117.00  1.3816847E-01
   7117.33  1.3500445E-01
   7117.67  1.4121750E-01
   7118.00  1.5559482E-01
   7118.33  1.7619850E-01
   7118.67  1.9758914E-01
   7119.00  2.1611084E-01
   7119.33  2.2839622E-01
   7119.67  2.3298639E-01
   7120.00  2.3043107E-01
   7120.33  2.2450624E-01
   7120.67  2.2023045E-01
   7121.00  2.2009439E-01
   7121.33  2.2523031E-01
   7121.67  2.3327325E-01
   7122.00  2.4179386E-01
   7122.33  2.4882691E-01
   7122.67  2.5492339E-01
   7123.00  2.6120794E-01
   7123.33  2.6860326E-01
   7123.67  2.7794089E-01
   7124.00  2.9075479E-01
   7124.33  3.0842543E-01
   7124.67  3.2845608E-01
   7125.00  3.4762510E-01
   7125.33  3.6331826E-01
   7125.67  3.7706391E-01
   7126.00  3.9110754E-01
   7126.33  4.0834990E-01
   7126.67  4.3043043E-01
   7127.00  4.5805425E-01
   7127.33  4.9087861E-01
   7127.67  5.2607355E-01
   7128.00  5.6168906E-01
   7128.33  5.9581887E-01
   7128.67  6.2706487E-01
   7129.00  6.5411847E-01
   7129.33  6.7575781E-01
   7129.67  6.9299541E-01
   7130.00  7.0522444E-01
   7130.33  7.0942082E-01
   7130.67  7.0586624E-01
   7131.00  6.9628823E-01
   7131.33  6.8377276E-01
   7131.67  6.7190763E-01
   7132.00  6.6250282E-01
   7132.33  6.5681175E-01
   7132.67  6.5450739E-01
   7133.00  6.5559467E-01
   7133.33  6.6071448E-01
   7133.67  6.6966139E-01
   7134.00  6.8240838E-01
   7134.33  6.9874820E-01
   7134.67  7.1691503E-01
   7135.00  7.3514238E-01
   7135.33  7.5055329E-01
   7135.67  7.6081766E-01
   7136.00  7.6409853E-01
   7136.33  7.5835212E-01
   7136.67  7.4508574E-01
   7137.00  7.2588703E-01
   7137.33  7.0302253E-01
   7137.67  6.7973343E-01
   7138.00  6.5804262E-01
   7138.33  6.3981227E-01
   7138.67  6.2512216E-01
   7139.00  6.1373305E-01
   7139.33  6.0529663E-01
   7139.67  5.9870484E-01
   7140.00  5.9336876E-01
   7140.33  5.8885676E-01
   7140.67  5.8472285E-01
   7141.00  5.8076766E-01
   7141.33  5.7684258E-01
   7141.67  5.7284335E-01
   7142.00  5.6870298E-01
   7142.33  5.6432711E-01
   7142.67  5.5968051E-01
   7143.00  5.5471761E-01
   7143.33  5.4935227E-01
   7143.67  5.4360521E-01
   7144.00  5.3747539E-01
   7144.33  5.3094538E-01
   7144.67  5.2412023E-01
   7145.00  5.1707948E-01
   7145.33  5.0993184E-01
   7145.67  5.0282377E-01
   7146.00  4.9587297E-01
   7146.33  4.8924836E-01
   7146.67  4.8303387E-01
   7147.00  4.7731806E-01
   7147.33  4.7225707E-01
   7147.67  4.6784019E-01
   7148.00  4.6410524E-01
   7148.33  4.6116988E-01
   7148.67  4.5896078E-01
   7149.00  4.5748320E-01
   7149.33  4.5682528E-01
   7149.67  4.5687883E-01
   7150.00  4.5761397E-01
   7150.33  4.5905410E-01
   7150.67  4.6104113E-01
   7151.00  4.6348512E-01
   7151.33  4.6629801E-01
   7151.67  4.6928691E-01
   7152.00  4.7230921E-01
   7152.33  4.7517846E-01
   7152.67  4.7774860E-01
   7153.00  4.7988923E-01
   7153.33  4.8139395E-01
   7153.67  4.8221950E-01
   7154.00  4.8228953E-01
   7154.33  4.8144770E-01
   7154.67  4.7977975E-01
   7155.00  4.7729775E-01
   7155.33  4.7395225E-01
   7155.67  4.6992195E-01
   7156.00  4.6529699E-01
   7156.33  4.6013267E-01
   7156.67  4.5460838E-01
   7157.00  4.4882459E-01
   7157.33  4.4287050E-01
   7157.67  4.3685821E-01
   7158.00  4.3085413E-01
   7158.33  4.2492783E-01
   7158.67  4.1911672E-01
   7159.00  4.1345186E-01
   7159.33  4.0798429E-01
   7159.67  4.0271586E-01
   7160.00  3.9766458E-01
   7160.33  3.9288071E-01
   7160.67  3.8835617E-01
   7161.00  3.8410992E-01
   7161.33  3.8020031E-01
   7161.67  3.7660922E-01
   7162.00  3.7335340E-01
   7162.33  3.7050552E-01
   7162.67  3.6804771E-01
   7163.00  3.6598990E-01
   7163.33  3.6438560E-01
   7163.67  3.6318418E-01
   7164.00  3.6238280E-01
   7164.33  3.6202365E-01
   7164.67  3.6204770E-01
   7165.00  3.6244500E-01
   7165.33  3.6324844E-01
   7165.67  3.6440001E-01
   7166.00  3.6588680E-01
   7166.33  3.6773352E-01
   7166.67  3.6988749E-01
   7167.00  3.7233858E-01
   7167.33  3.7511019E-01
   7167.67  3.7815326E-01
   7168.00  3.8145479E-01
   7168.33  3.8502796E-01
   7168.67  3.8882309E-01
   7169.00  3.9282099E-01
   7169.33  3.9701867E-01
   7169.67  4.0136440E-01
   7170.00  4.0582773E-01
   7170.33  4.1037387E-01
   7170.67  4.1493469E-01
   7171.00  4.1943882E-01
   7171.33  4.2373274E-01
   7171.67  4.2761518E-01
   7172.00  4.3080063E-01
