    FDMNES
    energy     <xanes>
   7097.00  4.8104876E-03
   7097.33  4.9226739E-03
   7097.67  5.0399707E-03
   7098.00  5.1627321E-03
   7098.33  5.2921549E-03
   7098.67  5.4280096E-03
   7099.00  5.5707833E-03
   7099.33  5.7220541E-03
   7099.67  5.8815938E-03
   7100.00  6.0500917E-03
   7100.33  6.2296879E-03
   7100.67  6.4201851E-03
   7101.00  6.6225919E-03
   7101.33  6.8399082E-03
   7101.67  7.0720330E-03
   7102.00  7.3205014E-03
   7102.33  7.5896903E-03
   7102.67  7.8797402E-03
   7103.00  8.1931008E-03
   7103.33  8.5364784E-03
   7103.67  8.9105877E-03
   7104.00  9.3195740E-03
   7104.33  9.7743579E-03
   7104.67  1.0277040E-02
   7105.00  1.0835170E-02
   7105.33  1.1467978E-02
   7105.67  1.2181101E-02
   7106.00  1.2989681E-02
   7106.33  1.3931286E-02
   7106.67  1.5021545E-02
   7107.00  1.6295097E-02
   7107.33  1.7836809E-02
   7107.67  1.9695450E-02
   7108.00  2.1966974E-02
   7108.33  2.4889710E-02
   7108.67  2.8654193E-02
   7109.00  3.3619526E-02
   7109.33  4.0738804E-02
   7109.67  5.1114436E-02
   7110.00  6.6914220E-02
   7110.33  9.4354719E-02
   7110.67  1.3940515E-01
   7111.00  2.0014351E-01
   7111.33  2.5152757E-01
   7111.67  2.8504464E-01
   7112.00  3.1011273E-01
   7112.33  3.2948588E-01
   7112.67  3.3757359E-01
   7113.00  3.4075268E-01
   7113.33  3.3885509E-01
   7113.67  3.1737524E-01
   7114.00  2.7440971E-01
   7114.33  2.2383178E-01
   7114.67  1.8021517E-01
   7115.00  1.4716607E-01
   7115.33  1.2452493E-01
   7115.67  1.0853907E-01
   7116.00  9.7506820E-02
   7116.33  9.0613561E-02
   7116.67  8.6526485E-02
   7117.00  8.4649837E-02
   7117.33  8.4563169E-02
   7117.67  8.5476129E-02
   7118.00  8.6986855E-02
   7118.33  8.8978265E-02
   7118.67  9.1478777E-02
   7119.00  9.4519484E-02
   7119.33  9.7798750E-02
   7119.67  1.0063073E-01
   7120.00  1.0277283E-01
   7120.33  1.0496545E-01
   7120.67  1.0856668E-01
   7121.00  1.1445289E-01
   7121.33  1.2337783E-01
   7121.67  1.3514324E-01
   7122.00  1.4990451E-01
   7122.33  1.6828254E-01
   7122.67  1.8972733E-01
   7123.00  2.1342229E-01
   7123.33  2.3747595E-01
   7123.67  2.5965559E-01
   7124.00  2.7919268E-01
   7124.33  2.9670725E-01
   7124.67  3.1395503E-01
   7125.00  3.3193274E-01
   7125.33  3.5104225E-01
   7125.67  3.7067927E-01
   7126.00  3.9064102E-01
   7126.33  4.1185629E-01
   7126.67  4.3557731E-01
   7127.00  4.6241368E-01
   7127.33  4.9182404E-01
   7127.67  5.2115853E-01
   7128.00  5.4787684E-01
   7128.33  5.6940603E-01
   7128.67  5.8673206E-01
   7129.00  6.0208134E-01
   7129.33  6.1882153E-01
   7129.67  6.3900096E-01
   7130.00  6.6298151E-01
   7130.33  6.8930943E-01
   7130.67  7.1399732E-01
   7131.00  7.3326307E-01
   7131.33  7.4292230E-01
   7131.67  7.4398418E-01
   7132.00  7.3911303E-01
   7132.33  7.3315342E-01
   7132.67  7.3090798E-01
   7133.00  7.3460477E-01
   7133.33  7.4471025E-01
   7133.67  7.5776287E-01
   7134.00  7.7080462E-01
   7134.33  7.8148318E-01
   7134.67  7.8988337E-01
   7135.00  7.9642294E-01
   7135.33  8.0122217E-01
   7135.67  8.0459369E-01
   7136.00  8.0644809E-01
   7136.33  8.0608123E-01
   7136.67  8.0312791E-01
   7137.00  7.9735353E-01
   7137.33  7.8886187E-01
   7137.67  7.7896577E-01
   7138.00  7.6868927E-01
   7138.33  7.5911664E-01
   7138.67  7.5076968E-01
   7139.00  7.4377460E-01
   7139.33  7.3792778E-01
   7139.67  7.3226786E-01
   7140.00  7.2575512E-01
   7140.33  7.1678356E-01
   7140.67  7.0461718E-01
   7141.00  6.8904077E-01
   7141.33  6.7049583E-01
   7141.67  6.5095362E-01
   7142.00  6.3200787E-01
   7142.33  6.1534173E-01
   7142.67  6.0133143E-01
   7143.00  5.8988624E-01
   7143.33  5.8066034E-01
   7143.67  5.7263059E-01
   7144.00  5.6521538E-01
   7144.33  5.5800559E-01
   7144.67  5.5082135E-01
   7145.00  5.4368952E-01
   7145.33  5.3675789E-01
   7145.67  5.3015256E-01
   7146.00  5.2397767E-01
   7146.33  5.1836397E-01
   7146.67  5.1325382E-01
   7147.00  5.0860923E-01
   7147.33  5.0440971E-01
   7147.67  5.0052497E-01
   7148.00  4.9689062E-01
   7148.33  4.9348601E-01
   7148.67  4.9028531E-01
   7149.00  4.8731959E-01
   7149.33  4.8468177E-01
   7149.67  4.8239430E-01
   7150.00  4.8049480E-01
   7150.33  4.7904952E-01
   7150.67  4.7798800E-01
   7151.00  4.7726659E-01
   7151.33  4.7684768E-01
   7151.67  4.7662133E-01
   7152.00  4.7653371E-01
   7152.33  4.7656634E-01
   7152.67  4.7671912E-01
   7153.00  4.7704217E-01
   7153.33  4.7766435E-01
   7153.67  4.7866936E-01
   7154.00  4.8015581E-01
   7154.33  4.8228542E-01
   7154.67  4.8502904E-01
   7155.00  4.8837153E-01
   7155.33  4.9229130E-01
   7155.67  4.9656416E-01
   7156.00  5.0099822E-01
   7156.33  5.0530372E-01
   7156.67  5.0918027E-01
   7157.00  5.1234924E-01
   7157.33  5.1438614E-01
   7157.67  5.1517828E-01
   7158.00  5.1458851E-01
   7158.33  5.1236765E-01
   7158.67  5.0872921E-01
   7159.00  5.0377312E-01
   7159.33  4.9753900E-01
   7159.67  4.9039606E-01
   7160.00  4.8255613E-01
   7160.33  4.7421079E-01
   7160.67  4.6565168E-01
   7161.00  4.5706600E-01
   7161.33  4.4867512E-01
   7161.67  4.4062661E-01
   7162.00  4.3303214E-01
   7162.33  4.2605310E-01
   7162.67  4.1969058E-01
   7163.00  4.1398556E-01
   7163.33  4.0904149E-01
   7163.67  4.0476277E-01
   7164.00  4.0111990E-01
   7164.33  3.9813308E-01
   7164.67  3.9566445E-01
   7165.00  3.9365553E-01
   7165.33  3.9208958E-01
   7165.67  3.9085602E-01
   7166.00  3.8990961E-01
   7166.33  3.8923999E-01
   7166.67  3.8878605E-01
   7167.00  3.8852965E-01
   7167.33  3.8847892E-01
   7167.67  3.8859921E-01
   7168.00  3.8888200E-01
   7168.33  3.8933728E-01
   7168.67  3.8993702E-01
   7169.00  3.9067336E-01
   7169.33  3.9155188E-01
   7169.67  3.9254444E-01
   7170.00  3.9363802E-01
   7170.33  3.9482461E-01
   7170.67  3.9607052E-01
   7171.00  3.9734862E-01
   7171.33  3.9860870E-01
   7171.67  3.9976974E-01
   7172.00  4.0072528E-01
