    FDMNES
    energy     <xanes>
   7097.00  4.7831555E-03
   7097.33  4.8949202E-03
   7097.67  5.0117830E-03
   7098.00  5.1340973E-03
   7098.33  5.2630576E-03
   7098.67  5.3984353E-03
   7099.00  5.5407165E-03
   7099.33  5.6914764E-03
   7099.67  5.8504877E-03
   7100.00  6.0184384E-03
   7100.33  6.1974645E-03
   7100.67  6.3873694E-03
   7101.00  6.5891595E-03
   7101.33  6.8058287E-03
   7101.67  7.0372756E-03
   7102.00  7.2850317E-03
   7102.33  7.5534631E-03
   7102.67  7.8427079E-03
   7103.00  8.1552076E-03
   7103.33  8.4976473E-03
   7103.67  8.8707328E-03
   7104.00  9.2785895E-03
   7104.33  9.7320888E-03
   7104.67  1.0233303E-02
   7105.00  1.0789728E-02
   7105.33  1.1420460E-02
   7105.67  1.2131045E-02
   7106.00  1.2936455E-02
   7106.33  1.3873843E-02
   7106.67  1.4958490E-02
   7107.00  1.6224412E-02
   7107.33  1.7754914E-02
   7107.67  1.9597170E-02
   7108.00  2.1844257E-02
   7108.33  2.4726790E-02
   7108.67  2.8425567E-02
   7109.00  3.3280927E-02
   7109.33  4.0189733E-02
   7109.67  5.0163450E-02
   7110.00  6.5181403E-02
   7110.33  9.0937465E-02
   7110.67  1.3358011E-01
   7111.00  1.9517196E-01
   7111.33  2.5874697E-01
   7111.67  2.9975504E-01
   7112.00  3.1941147E-01
   7112.33  3.3961908E-01
   7112.67  3.5249096E-01
   7113.00  3.4875654E-01
   7113.33  3.2970812E-01
   7113.67  2.9889340E-01
   7114.00  2.5881495E-01
   7114.33  2.1481048E-01
   7114.67  1.7612053E-01
   7115.00  1.4690506E-01
   7115.33  1.2702199E-01
   7115.67  1.1185420E-01
   7116.00  9.9829960E-02
   7116.33  9.1317613E-02
   7116.67  8.5974058E-02
   7117.00  8.3520614E-02
   7117.33  8.3700744E-02
   7117.67  8.5414018E-02
   7118.00  8.7841669E-02
   7118.33  9.0360782E-02
   7118.67  9.2919814E-02
   7119.00  9.5663525E-02
   7119.33  9.8455267E-02
   7119.67  1.0074474E-01
   7120.00  1.0232350E-01
   7120.33  1.0393350E-01
   7120.67  1.0691138E-01
   7121.00  1.1216027E-01
   7121.33  1.2041524E-01
   7121.67  1.3129619E-01
   7122.00  1.4472158E-01
   7122.33  1.6117645E-01
   7122.67  1.8065375E-01
   7123.00  2.0304245E-01
   7123.33  2.2727211E-01
   7123.67  2.5081219E-01
   7124.00  2.7194233E-01
   7124.33  2.9005345E-01
   7124.67  3.0676032E-01
   7125.00  3.2347068E-01
   7125.33  3.4143634E-01
   7125.67  3.6072158E-01
   7126.00  3.8109332E-01
   7126.33  4.0268640E-01
   7126.67  4.2599412E-01
   7127.00  4.5165475E-01
   7127.33  4.7985753E-01
   7127.67  5.0889378E-01
   7128.00  5.3664275E-01
   7128.33  5.6001226E-01
   7128.67  5.7846754E-01
   7129.00  5.9340950E-01
   7129.33  6.0837009E-01
   7129.67  6.2688366E-01
   7130.00  6.5061733E-01
   7130.33  6.7949716E-01
   7130.67  7.0931374E-01
   7131.00  7.3532022E-01
   7131.33  7.5103414E-01
   7131.67  7.5516557E-01
   7132.00  7.4938307E-01
   7132.33  7.3879104E-01
   7132.67  7.3064006E-01
   7133.00  7.2909261E-01
   7133.33  7.3646567E-01
   7133.67  7.4922721E-01
   7134.00  7.6334833E-01
   7134.33  7.7469522E-01
   7134.67  7.8273654E-01
   7135.00  7.8835100E-01
   7135.33  7.9244839E-01
   7135.67  7.9589572E-01
   7136.00  7.9900145E-01
   7136.33  8.0147776E-01
   7136.67  8.0251818E-01
   7137.00  8.0122972E-01
   7137.33  7.9672843E-01
   7137.67  7.8971648E-01
   7138.00  7.8102695E-01
   7138.33  7.7173412E-01
   7138.67  7.6283080E-01
   7139.00  7.5475783E-01
   7139.33  7.4763753E-01
   7139.67  7.4083453E-01
   7140.00  7.3351192E-01
   7140.33  7.2423666E-01
   7140.67  7.1214715E-01
   7141.00  6.9682810E-01
   7141.33  6.7841865E-01
   7141.67  6.5871382E-01
   7142.00  6.3931251E-01
   7142.33  6.2206085E-01
   7142.67  6.0757929E-01
   7143.00  5.9590374E-01
   7143.33  5.8671455E-01
   7143.67  5.7882127E-01
   7144.00  5.7149302E-01
   7144.33  5.6418057E-01
   7144.67  5.5669641E-01
   7145.00  5.4909345E-01
   7145.33  5.4154998E-01
   7145.67  5.3424579E-01
   7146.00  5.2730947E-01
   7146.33  5.2089471E-01
   7146.67  5.1497937E-01
   7147.00  5.0955142E-01
   7147.33  5.0462510E-01
   7147.67  5.0010137E-01
   7148.00  4.9594094E-01
   7148.33  4.9214487E-01
   7148.67  4.8867046E-01
   7149.00  4.8555014E-01
   7149.33  4.8289678E-01
   7149.67  4.8072344E-01
   7150.00  4.7907350E-01
   7150.33  4.7803725E-01
   7150.67  4.7753122E-01
   7151.00  4.7751275E-01
   7151.33  4.7795678E-01
   7151.67  4.7872014E-01
   7152.00  4.7972494E-01
   7152.33  4.8091915E-01
   7152.67  4.8224244E-01
   7153.00  4.8369566E-01
   7153.33  4.8534262E-01
   7153.67  4.8723826E-01
   7154.00  4.8946018E-01
   7154.33  4.9214070E-01
   7154.67  4.9527482E-01
   7155.00  4.9885593E-01
   7155.33  5.0285610E-01
   7155.67  5.0707862E-01
   7156.00  5.1133795E-01
   7156.33  5.1533347E-01
   7156.67  5.1878767E-01
   7157.00  5.2143777E-01
   7157.33  5.2287846E-01
   7157.67  5.2304096E-01
   7158.00  5.2182191E-01
   7158.33  5.1901549E-01
   7158.67  5.1486267E-01
   7159.00  5.0948283E-01
   7159.33  5.0294002E-01
   7159.67  4.9559173E-01
   7160.00  4.8764298E-01
   7160.33  4.7927463E-01
   7160.67  4.7073796E-01
   7161.00  4.6218734E-01
   7161.33  4.5379722E-01
   7161.67  4.4568284E-01
   7162.00  4.3793341E-01
   7162.33  4.3067786E-01
   7162.67  4.2391577E-01
   7163.00  4.1768533E-01
   7163.33  4.1208319E-01
   7163.67  4.0704540E-01
   7164.00  4.0256181E-01
   7164.33  3.9867176E-01
   7164.67  3.9527156E-01
   7165.00  3.9232416E-01
   7165.33  3.8983640E-01
   7165.67  3.8771454E-01
   7166.00  3.8592516E-01
   7166.33  3.8447300E-01
   7166.67  3.8329472E-01
   7167.00  3.8237283E-01
   7167.33  3.8172203E-01
   7167.67  3.8129912E-01
   7168.00  3.8109362E-01
   7168.33  3.8111962E-01
   7168.67  3.8133953E-01
   7169.00  3.8174266E-01
   7169.33  3.8233667E-01
   7169.67  3.8308483E-01
   7170.00  3.8397135E-01
   7170.33  3.8498850E-01
   7170.67  3.8609407E-01
   7171.00  3.8725718E-01
   7171.33  3.8842620E-01
   7171.67  3.8951400E-01
   7172.00  3.9041133E-01
