    FDMNES
    energy     <xanes>
   7097.00  5.1332441E-03
   7097.33  5.2543533E-03
   7097.67  5.3809757E-03
   7098.00  5.5134886E-03
   7098.33  5.6531760E-03
   7098.67  5.7997836E-03
   7099.00  5.9538286E-03
   7099.33  6.1169967E-03
   7099.67  6.2890317E-03
   7100.00  6.4706614E-03
   7100.33  6.6641604E-03
   7100.67  6.8692991E-03
   7101.00  7.0871357E-03
   7101.33  7.3208396E-03
   7101.67  7.5702717E-03
   7102.00  7.8370309E-03
   7102.33  8.1257072E-03
   7102.67  8.4363946E-03
   7103.00  8.7716226E-03
   7103.33  9.1383612E-03
   7103.67  9.5372621E-03
   7104.00  9.9725606E-03
   7104.33  1.0455484E-02
   7104.67  1.0988025E-02
   7105.00  1.1577800E-02
   7105.33  1.2244309E-02
   7105.67  1.2992936E-02
   7106.00  1.3838709E-02
   7106.33  1.4819046E-02
   7106.67  1.5948751E-02
   7107.00  1.7261441E-02
   7107.33  1.8839562E-02
   7107.67  2.0728296E-02
   7108.00  2.3017751E-02
   7108.33  2.5930784E-02
   7108.67  2.9636907E-02
   7109.00  3.4455971E-02
   7109.33  4.1225241E-02
   7109.67  5.0861955E-02
   7110.00  6.5153755E-02
   7110.33  8.9220991E-02
   7110.67  1.2873019E-01
   7111.00  1.8653132E-01
   7111.33  2.5177403E-01
   7111.67  3.0899155E-01
   7112.00  3.4539258E-01
   7112.33  3.8329629E-01
   7112.67  4.3302993E-01
   7113.00  4.1338542E-01
   7113.33  3.0858591E-01
   7113.67  2.2322203E-01
   7114.00  1.7861818E-01
   7114.33  1.6993178E-01
   7114.67  1.8188032E-01
   7115.00  2.0297913E-01
   7115.33  2.2506720E-01
   7115.67  2.3106179E-01
   7116.00  2.0698153E-01
   7116.33  1.6899582E-01
   7116.67  1.3991256E-01
   7117.00  1.2254457E-01
   7117.33  1.1496708E-01
   7117.67  1.1349875E-01
   7118.00  1.1678087E-01
   7118.33  1.2497838E-01
   7118.67  1.3758946E-01
   7119.00  1.5328293E-01
   7119.33  1.6820176E-01
   7119.67  1.7836027E-01
   7120.00  1.8264941E-01
   7120.33  1.8337850E-01
   7120.67  1.8493371E-01
   7121.00  1.8945365E-01
   7121.33  1.9823047E-01
   7121.67  2.1089816E-01
   7122.00  2.2785684E-01
   7122.33  2.5002375E-01
   7122.67  2.7535505E-01
   7123.00  3.0109835E-01
   7123.33  3.2404362E-01
   7123.67  3.4366888E-01
   7124.00  3.6033757E-01
   7124.33  3.7288721E-01
   7124.67  3.8001949E-01
   7125.00  3.8196744E-01
   7125.33  3.8181020E-01
   7125.67  3.8345365E-01
   7126.00  3.8854937E-01
   7126.33  3.9805288E-01
   7126.67  4.1129367E-01
   7127.00  4.2796397E-01
   7127.33  4.4794755E-01
   7127.67  4.7022246E-01
   7128.00  4.9417371E-01
   7128.33  5.1955327E-01
   7128.67  5.4646936E-01
   7129.00  5.7552458E-01
   7129.33  6.0737023E-01
   7129.67  6.4127181E-01
   7130.00  6.7650857E-01
   7130.33  7.1180995E-01
   7130.67  7.4483715E-01
   7131.00  7.7254667E-01
   7131.33  7.8983407E-01
   7131.67  7.9530579E-01
   7132.00  7.8916906E-01
   7132.33  7.7343497E-01
   7132.67  7.5386723E-01
   7133.00  7.3438927E-01
   7133.33  7.1876926E-01
   7133.67  7.0831304E-01
   7134.00  7.0343267E-01
   7134.33  7.0442406E-01
   7134.67  7.0972148E-01
   7135.00  7.1823341E-01
   7135.33  7.2854041E-01
   7135.67  7.3846065E-01
   7136.00  7.4613242E-01
   7136.33  7.4907908E-01
   7136.67  7.4669044E-01
   7137.00  7.3900238E-01
   7137.33  7.2672146E-01
   7137.67  7.1235323E-01
   7138.00  6.9769769E-01
   7138.33  6.8463065E-01
   7138.67  6.7403753E-01
   7139.00  6.6634844E-01
   7139.33  6.6203934E-01
   7139.67  6.6056153E-01
   7140.00  6.6162691E-01
   7140.33  6.6508973E-01
   7140.67  6.7022888E-01
   7141.00  6.7659837E-01
   7141.33  6.8364535E-01
   7141.67  6.9052524E-01
   7142.00  6.9647606E-01
   7142.33  7.0032472E-01
   7142.67  7.0143207E-01
   7143.00  6.9921347E-01
   7143.33  6.9282631E-01
   7143.67  6.8274625E-01
   7144.00  6.6929394E-01
   7144.33  6.5279192E-01
   7144.67  6.3443727E-01
   7145.00  6.1502927E-01
   7145.33  5.9545788E-01
   7145.67  5.7655548E-01
   7146.00  5.5891170E-01
   7146.33  5.4327847E-01
   7146.67  5.2976169E-01
   7147.00  5.1847668E-01
   7147.33  5.0965181E-01
   7147.67  5.0282432E-01
   7148.00  4.9777107E-01
   7148.33  4.9438859E-01
   7148.67  4.9219383E-01
   7149.00  4.9095647E-01
   7149.33  4.9054842E-01
   7149.67  4.9070633E-01
   7150.00  4.9131485E-01
   7150.33  4.9230877E-01
   7150.67  4.9355688E-01
   7151.00  4.9499249E-01
   7151.33  4.9655294E-01
   7151.67  4.9814758E-01
   7152.00  4.9971617E-01
   7152.33  5.0118319E-01
   7152.67  5.0250378E-01
   7153.00  5.0364097E-01
   7153.33  5.0454542E-01
   7153.67  5.0524297E-01
   7154.00  5.0575114E-01
   7154.33  5.0608738E-01
   7154.67  5.0631633E-01
   7155.00  5.0647710E-01
   7155.33  5.0660663E-01
   7155.67  5.0674016E-01
   7156.00  5.0689660E-01
   7156.33  5.0709233E-01
   7156.67  5.0732453E-01
   7157.00  5.0758697E-01
   7157.33  5.0786719E-01
   7157.67  5.0814276E-01
   7158.00  5.0839261E-01
   7158.33  5.0858303E-01
   7158.67  5.0869211E-01
   7159.00  5.0869584E-01
   7159.33  5.0855283E-01
   7159.67  5.0825946E-01
   7160.00  5.0780251E-01
   7160.33  5.0714782E-01
   7160.67  5.0631439E-01
   7161.00  5.0530826E-01
   7161.33  5.0412347E-01
   7161.67  5.0279743E-01
   7162.00  5.0134852E-01
   7162.33  4.9978643E-01
   7162.67  4.9814212E-01
   7163.00  4.9642674E-01
   7163.33  4.9463913E-01
   7163.67  4.9278716E-01
   7164.00  4.9086487E-01
   7164.33  4.8884982E-01
   7164.67  4.8673746E-01
   7165.00  4.8451464E-01
   7165.33  4.8215080E-01
   7165.67  4.7964914E-01
   7166.00  4.7700275E-01
   7166.33  4.7419010E-01
   7166.67  4.7123160E-01
   7167.00  4.6813244E-01
   7167.33  4.6488693E-01
   7167.67  4.6152746E-01
   7168.00  4.5807255E-01
   7168.33  4.5453988E-01
   7168.67  4.5097351E-01
   7169.00  4.4741195E-01
   7169.33  4.4390313E-01
   7169.67  4.4048180E-01
   7170.00  4.3718391E-01
   7170.33  4.3407128E-01
   7170.67  4.3116319E-01
   7171.00  4.2849441E-01
   7171.33  4.2614660E-01
   7171.67  4.2414619E-01
   7172.00  4.2256068E-01
