    FDMNES
    energy     <xanes>
   7097.00  5.2174340E-03
   7097.33  5.3397369E-03
   7097.67  5.4675706E-03
   7098.00  5.6013070E-03
   7098.33  5.7422217E-03
   7098.67  5.8900492E-03
   7099.00  6.0452944E-03
   7099.33  6.2096206E-03
   7099.67  6.3827534E-03
   7100.00  6.5653960E-03
   7100.33  6.7597722E-03
   7100.67  6.9656217E-03
   7101.00  7.1839537E-03
   7101.33  7.4178304E-03
   7101.67  7.6670576E-03
   7102.00  7.9331362E-03
   7102.33  8.2204351E-03
   7102.67  8.5289414E-03
   7103.00  8.8609846E-03
   7103.33  9.2230757E-03
   7103.67  9.6156431E-03
   7104.00  1.0042499E-02
   7104.33  1.0513887E-02
   7104.67  1.1031297E-02
   7105.00  1.1601396E-02
   7105.33  1.2241470E-02
   7105.67  1.2955659E-02
   7106.00  1.3756693E-02
   7106.33  1.4676583E-02
   7106.67  1.5726693E-02
   7107.00  1.6934424E-02
   7107.33  1.8367367E-02
   7107.67  2.0059607E-02
   7108.00  2.2081445E-02
   7108.33  2.4606812E-02
   7108.67  2.7760238E-02
   7109.00  3.1779919E-02
   7109.33  3.7286363E-02
   7109.67  4.4934319E-02
   7110.00  5.6001313E-02
   7110.33  7.4117993E-02
   7110.67  1.0315329E-01
   7111.00  1.4483260E-01
   7111.33  1.9216170E-01
   7111.67  2.3923843E-01
   7112.00  2.8347344E-01
   7112.33  3.1175401E-01
   7112.67  3.2406738E-01
   7113.00  3.3494808E-01
   7113.33  3.6151869E-01
   7113.67  3.9302514E-01
   7114.00  4.0950697E-01
   7114.33  3.9965339E-01
   7114.67  3.7261256E-01
   7115.00  3.3957338E-01
   7115.33  3.1355221E-01
   7115.67  2.9866161E-01
   7116.00  2.9330814E-01
   7116.33  2.8982950E-01
   7116.67  2.7742768E-01
   7117.00  2.5322697E-01
   7117.33  2.2360733E-01
   7117.67  1.9729183E-01
   7118.00  1.7701021E-01
   7118.33  1.6314689E-01
   7118.67  1.5350147E-01
   7119.00  1.4689238E-01
   7119.33  1.4259079E-01
   7119.67  1.3968514E-01
   7120.00  1.3773587E-01
   7120.33  1.3635495E-01
   7120.67  1.3516652E-01
   7121.00  1.3416958E-01
   7121.33  1.3394145E-01
   7121.67  1.3522487E-01
   7122.00  1.3861695E-01
   7122.33  1.4470428E-01
   7122.67  1.5313929E-01
   7123.00  1.6379530E-01
   7123.33  1.7677593E-01
   7123.67  1.9168100E-01
   7124.00  2.0844817E-01
   7124.33  2.2732588E-01
   7124.67  2.4804967E-01
   7125.00  2.7040379E-01
   7125.33  2.9404929E-01
   7125.67  3.1834302E-01
   7126.00  3.4301043E-01
   7126.33  3.6779119E-01
   7126.67  3.9204933E-01
   7127.00  4.1493707E-01
   7127.33  4.3549267E-01
   7127.67  4.5402101E-01
   7128.00  4.7105405E-01
   7128.33  4.8737855E-01
   7128.67  5.0409483E-01
   7129.00  5.2225460E-01
   7129.33  5.4339563E-01
   7129.67  5.6791684E-01
   7130.00  5.9579904E-01
   7130.33  6.2658253E-01
   7130.67  6.5860603E-01
   7131.00  6.9062351E-01
   7131.33  7.2140302E-01
   7131.67  7.5069777E-01
   7132.00  7.7876603E-01
   7132.33  8.0622628E-01
   7132.67  8.3371390E-01
   7133.00  8.6116600E-01
   7133.33  8.8732208E-01
   7133.67  9.1004865E-01
   7134.00  9.2683540E-01
   7134.33  9.3392686E-01
   7134.67  9.3091434E-01
   7135.00  9.1783355E-01
   7135.33  8.9496381E-01
   7135.67  8.6558404E-01
   7136.00  8.3173321E-01
   7136.33  7.9528028E-01
   7136.67  7.5828112E-01
   7137.00  7.2195264E-01
   7137.33  6.8767670E-01
   7137.67  6.5615906E-01
   7138.00  6.2802901E-01
   7138.33  6.0425365E-01
   7138.67  5.8451227E-01
   7139.00  5.6868343E-01
   7139.33  5.5681552E-01
   7139.67  5.4791523E-01
   7140.00  5.4146782E-01
   7140.33  5.3712950E-01
   7140.67  5.3414373E-01
   7141.00  5.3211743E-01
   7141.33  5.3071616E-01
   7141.67  5.2951070E-01
   7142.00  5.2822410E-01
   7142.33  5.2653403E-01
   7142.67  5.2427417E-01
   7143.00  5.2133026E-01
   7143.33  5.1756192E-01
   7143.67  5.1309404E-01
   7144.00  5.0800635E-01
   7144.33  5.0237663E-01
   7144.67  4.9644540E-01
   7145.00  4.9039400E-01
   7145.33  4.8445752E-01
   7145.67  4.7883016E-01
   7146.00  4.7365946E-01
   7146.33  4.6914771E-01
   7146.67  4.6530766E-01
   7147.00  4.6218428E-01
   7147.33  4.5989356E-01
   7147.67  4.5833718E-01
   7148.00  4.5749660E-01
   7148.33  4.5743612E-01
   7148.67  4.5804908E-01
   7149.00  4.5931936E-01
   7149.33  4.6130422E-01
   7149.67  4.6389099E-01
   7150.00  4.6704701E-01
   7150.33  4.7079933E-01
   7150.67  4.7503347E-01
   7151.00  4.7969760E-01
   7151.33  4.8476317E-01
   7151.67  4.9009901E-01
   7152.00  4.9562204E-01
   7152.33  5.0124059E-01
   7152.67  5.0684161E-01
   7153.00  5.1234206E-01
   7153.33  5.1763341E-01
   7153.67  5.2266919E-01
   7154.00  5.2740341E-01
   7154.33  5.3175736E-01
   7154.67  5.3575349E-01
   7155.00  5.3938493E-01
   7155.33  5.4260582E-01
   7155.67  5.4546479E-01
   7156.00  5.4796462E-01
   7156.33  5.5006438E-01
   7156.67  5.5181251E-01
   7157.00  5.5321358E-01
   7157.33  5.5423392E-01
   7157.67  5.5492965E-01
   7158.00  5.5531749E-01
   7158.33  5.5538792E-01
   7158.67  5.5521158E-01
   7159.00  5.5482646E-01
   7159.33  5.5425545E-01
   7159.67  5.5356035E-01
   7160.00  5.5277443E-01
   7160.33  5.5192226E-01
   7160.67  5.5103534E-01
   7161.00  5.5013163E-01
   7161.33  5.4922680E-01
   7161.67  5.4833007E-01
   7162.00  5.4744447E-01
   7162.33  5.4656939E-01
   7162.67  5.4569280E-01
   7163.00  5.4480539E-01
   7163.33  5.4390096E-01
   7163.67  5.4297660E-01
   7164.00  5.4202710E-01
   7164.33  5.4104097E-01
   7164.67  5.4001251E-01
   7165.00  5.3893294E-01
   7165.33  5.3778525E-01
   7165.67  5.3656537E-01
   7166.00  5.3526121E-01
   7166.33  5.3384592E-01
   7166.67  5.3231712E-01
   7167.00  5.3066148E-01
   7167.33  5.2884615E-01
   7167.67  5.2687642E-01
   7168.00  5.2474621E-01
   7168.33  5.2243704E-01
   7168.67  5.1997488E-01
   7169.00  5.1736708E-01
   7169.33  5.1461319E-01
   7169.67  5.1175402E-01
   7170.00  5.0881722E-01
   7170.33  5.0583790E-01
   7170.67  5.0287134E-01
   7171.00  4.9997306E-01
   7171.33  4.9725176E-01
   7171.67  4.9482386E-01
   7172.00  4.9284943E-01
