    FDMNES
    energy     <xanes>
   7097.00  4.4210744E-03
   7097.33  4.5114001E-03
   7097.67  4.6051157E-03
   7098.00  4.7024113E-03
   7098.33  4.8040063E-03
   7098.67  4.9096880E-03
   7099.00  5.0197048E-03
   7099.33  5.1349562E-03
   7099.67  5.2552125E-03
   7100.00  5.3808060E-03
   7100.33  5.5128870E-03
   7100.67  5.6512148E-03
   7101.00  5.7962478E-03
   7101.33  5.9494974E-03
   7101.67  6.1107288E-03
   7102.00  6.2805975E-03
   7102.33  6.4611594E-03
   7102.67  6.6522252E-03
   7103.00  6.8547765E-03
   7103.33  7.0717360E-03
   7103.67  7.3030563E-03
   7104.00  7.5502947E-03
   7104.33  7.8178560E-03
   7104.67  8.1060721E-03
   7105.00  8.4176111E-03
   7105.33  8.7596521E-03
   7105.67  9.1335450E-03
   7106.00  9.5443523E-03
   7106.33  1.0005121E-02
   7106.67  1.0520146E-02
   7107.00  1.1100494E-02
   7107.33  1.1773882E-02
   7107.67  1.2554491E-02
   7108.00  1.3472002E-02
   7108.33  1.4600857E-02
   7108.67  1.5997779E-02
   7109.00  1.7771828E-02
   7109.33  2.0213102E-02
   7109.67  2.3652169E-02
   7110.00  2.8741697E-02
   7110.33  3.7359622E-02
   7110.67  5.1375649E-02
   7111.00  7.0516293E-02
   7111.33  8.7674493E-02
   7111.67  9.9944372E-02
   7112.00  1.0693755E-01
   7112.33  1.0723488E-01
   7112.67  1.0319481E-01
   7113.00  9.5181203E-02
   7113.33  8.3867812E-02
   7113.67  7.2477080E-02
   7114.00  6.3822583E-02
   7114.33  5.9492874E-02
   7114.67  5.8649107E-02
   7115.00  6.1009361E-02
   7115.33  6.7163319E-02
   7115.67  7.7553656E-02
   7116.00  9.3676488E-02
   7116.33  1.1955805E-01
   7116.67  1.5800141E-01
   7117.00  2.1071680E-01
   7117.33  2.7171491E-01
   7117.67  3.2360541E-01
   7118.00  3.5869953E-01
   7118.33  3.7711131E-01
   7118.67  3.7861455E-01
   7119.00  3.6508473E-01
   7119.33  3.4720683E-01
   7119.67  3.3367921E-01
   7120.00  3.2671388E-01
   7120.33  3.2680968E-01
   7120.67  3.3173687E-01
   7121.00  3.4011509E-01
   7121.33  3.5095106E-01
   7121.67  3.6311304E-01
   7122.00  3.7611590E-01
   7122.33  3.8979065E-01
   7122.67  4.0401829E-01
   7123.00  4.1852376E-01
   7123.33  4.3222007E-01
   7123.67  4.4415280E-01
   7124.00  4.5418392E-01
   7124.33  4.6184293E-01
   7124.67  4.6625109E-01
   7125.00  4.6759411E-01
   7125.33  4.6850725E-01
   7125.67  4.7101033E-01
   7126.00  4.7477568E-01
   7126.33  4.7872957E-01
   7126.67  4.8280616E-01
   7127.00  4.8803520E-01
   7127.33  4.9602910E-01
   7127.67  5.0676528E-01
   7128.00  5.1952759E-01
   7128.33  5.3261575E-01
   7128.67  5.4364802E-01
   7129.00  5.5080888E-01
   7129.33  5.5265230E-01
   7129.67  5.5064109E-01
   7130.00  5.4645757E-01
   7130.33  5.4210645E-01
   7130.67  5.3896748E-01
   7131.00  5.3761243E-01
   7131.33  5.3853234E-01
   7131.67  5.4144748E-01
   7132.00  5.4615004E-01
   7132.33  5.5229138E-01
   7132.67  5.5893457E-01
   7133.00  5.6540632E-01
   7133.33  5.7140149E-01
   7133.67  5.7769840E-01
   7134.00  5.8538475E-01
   7134.33  5.9538064E-01
   7134.67  6.0677739E-01
   7135.00  6.1836799E-01
   7135.33  6.2867642E-01
   7135.67  6.3681163E-01
   7136.00  6.4196739E-01
   7136.33  6.4280446E-01
   7136.67  6.3945076E-01
   7137.00  6.3237753E-01
   7137.33  6.2267306E-01
   7137.67  6.1226266E-01
   7138.00  6.0221548E-01
   7138.33  5.9324594E-01
   7138.67  5.8522417E-01
   7139.00  5.7785505E-01
   7139.33  5.7074475E-01
   7139.67  5.6355207E-01
   7140.00  5.5616168E-01
   7140.33  5.4858070E-01
   7140.67  5.4099515E-01
   7141.00  5.3362577E-01
   7141.33  5.2683050E-01
   7141.67  5.2078608E-01
   7142.00  5.1559873E-01
   7142.33  5.1138431E-01
   7142.67  5.0796147E-01
   7143.00  5.0524336E-01
   7143.33  5.0320818E-01
   7143.67  5.0169123E-01
   7144.00  5.0061440E-01
   7144.33  4.9991612E-01
   7144.67  4.9944185E-01
   7145.00  4.9909905E-01
   7145.33  4.9880065E-01
   7145.67  4.9849919E-01
   7146.00  4.9820419E-01
   7146.33  4.9794228E-01
   7146.67  4.9771157E-01
   7147.00  4.9748812E-01
   7147.33  4.9722035E-01
   7147.67  4.9687384E-01
   7148.00  4.9644542E-01
   7148.33  4.9597369E-01
   7148.67  4.9554982E-01
   7149.00  4.9526851E-01
   7149.33  4.9527300E-01
   7149.67  4.9562993E-01
   7150.00  4.9640626E-01
   7150.33  4.9771581E-01
   7150.67  4.9953025E-01
   7151.00  5.0185765E-01
   7151.33  5.0474568E-01
   7151.67  5.0808651E-01
   7152.00  5.1181591E-01
   7152.33  5.1586746E-01
   7152.67  5.2007942E-01
   7153.00  5.2433404E-01
   7153.33  5.2848348E-01
   7153.67  5.3241418E-01
   7154.00  5.3603125E-01
   7154.33  5.3918764E-01
   7154.67  5.4185001E-01
   7155.00  5.4395023E-01
   7155.33  5.4533216E-01
   7155.67  5.4600265E-01
   7156.00  5.4590472E-01
   7156.33  5.4488340E-01
   7156.67  5.4301129E-01
   7157.00  5.4028554E-01
   7157.33  5.3663003E-01
   7157.67  5.3220929E-01
   7158.00  5.2710208E-01
   7158.33  5.2134938E-01
   7158.67  5.1514961E-01
   7159.00  5.0861464E-01
   7159.33  5.0184382E-01
   7159.67  4.9497970E-01
   7160.00  4.8811100E-01
   7160.33  4.8133312E-01
   7160.67  4.7470120E-01
   7161.00  4.6825714E-01
   7161.33  4.6206448E-01
   7161.67  4.5613134E-01
   7162.00  4.5048911E-01
   7162.33  4.4520118E-01
   7162.67  4.4024605E-01
   7163.00  4.3563867E-01
   7163.33  4.3144028E-01
   7163.67  4.2761802E-01
   7164.00  4.2417924E-01
   7164.33  4.2117639E-01
   7164.67  4.1856091E-01
   7165.00  4.1633094E-01
   7165.33  4.1453074E-01
   7165.67  4.1310702E-01
   7166.00  4.1205278E-01
   7166.33  4.1139992E-01
   7166.67  4.1108412E-01
   7167.00  4.1108226E-01
   7167.33  4.1139420E-01
   7167.67  4.1194041E-01
   7168.00  4.1267640E-01
   7168.33  4.1356347E-01
   7168.67  4.1452799E-01
   7169.00  4.1552209E-01
   7169.33  4.1649138E-01
   7169.67  4.1739476E-01
   7170.00  4.1820253E-01
   7170.33  4.1887574E-01
   7170.67  4.1941754E-01
   7171.00  4.1982784E-01
   7171.33  4.2010287E-01
   7171.67  4.2027980E-01
   7172.00  4.2038429E-01
