    FDMNES
    energy     <xanes>
   7097.00  5.2902957E-03
   7097.33  5.4200213E-03
   7097.67  5.5558260E-03
   7098.00  5.6981292E-03
   7098.33  5.8483505E-03
   7098.67  6.0062118E-03
   7099.00  6.1722848E-03
   7099.33  6.3484311E-03
   7099.67  6.5343661E-03
   7100.00  6.7308896E-03
   7100.33  6.9405044E-03
   7100.67  7.1629464E-03
   7101.00  7.3993685E-03
   7101.33  7.6532355E-03
   7101.67  7.9243646E-03
   7102.00  8.2144759E-03
   7102.33  8.5285375E-03
   7102.67  8.8665797E-03
   7103.00  9.2312781E-03
   7103.33  9.6300643E-03
   7103.67  1.0063478E-02
   7104.00  1.0535898E-02
   7104.33  1.1059036E-02
   7104.67  1.1634635E-02
   7105.00  1.2270326E-02
   7105.33  1.2985830E-02
   7105.67  1.3785835E-02
   7106.00  1.4684764E-02
   7106.33  1.5718822E-02
   7106.67  1.6900482E-02
   7107.00  1.8260150E-02
   7107.33  1.9872630E-02
   7107.67  2.1773780E-02
   7108.00  2.4038411E-02
   7108.33  2.6850221E-02
   7108.67  3.0331135E-02
   7109.00  3.4714706E-02
   7109.33  4.0595529E-02
   7109.67  4.8538942E-02
   7110.00  5.9628116E-02
   7110.33  7.6877846E-02
   7110.67  1.0384690E-01
   7111.00  1.4529071E-01
   7111.33  2.0820896E-01
   7111.67  2.8760160E-01
   7112.00  3.6262984E-01
   7112.33  4.1654192E-01
   7112.67  4.7605059E-01
   7113.00  5.4155209E-01
   7113.33  5.6532302E-01
   7113.67  5.2117739E-01
   7114.00  4.3408559E-01
   7114.33  3.5323639E-01
   7114.67  2.9886277E-01
   7115.00  2.7047642E-01
   7115.33  2.6162562E-01
   7115.67  2.5662229E-01
   7116.00  2.4658148E-01
   7116.33  2.3213358E-01
   7116.67  2.1868083E-01
   7117.00  2.0667246E-01
   7117.33  1.9455979E-01
   7117.67  1.8237393E-01
   7118.00  1.7106492E-01
   7118.33  1.6138978E-01
   7118.67  1.5317168E-01
   7119.00  1.4640359E-01
   7119.33  1.4131442E-01
   7119.67  1.3762615E-01
   7120.00  1.3521597E-01
   7120.33  1.3424481E-01
   7120.67  1.3443965E-01
   7121.00  1.3529401E-01
   7121.33  1.3620165E-01
   7121.67  1.3742049E-01
   7122.00  1.3968293E-01
   7122.33  1.4369516E-01
   7122.67  1.4937710E-01
   7123.00  1.5680920E-01
   7123.33  1.6648207E-01
   7123.67  1.7854009E-01
   7124.00  1.9334525E-01
   7124.33  2.1147955E-01
   7124.67  2.3231921E-01
   7125.00  2.5533370E-01
   7125.33  2.8021122E-01
   7125.67  3.0651090E-01
   7126.00  3.3362981E-01
   7126.33  3.5896259E-01
   7126.67  3.7902726E-01
   7127.00  3.9228990E-01
   7127.33  4.0059758E-01
   7127.67  4.0933958E-01
   7128.00  4.2231555E-01
   7128.33  4.4330105E-01
   7128.67  4.7286658E-01
   7129.00  5.1155926E-01
   7129.33  5.5958992E-01
   7129.67  6.1216273E-01
   7130.00  6.6395829E-01
   7130.33  7.0901827E-01
   7130.67  7.4749701E-01
   7131.00  7.8235623E-01
   7131.33  8.1777521E-01
   7131.67  8.5543405E-01
   7132.00  8.9396943E-01
   7132.33  9.2862264E-01
   7132.67  9.5436368E-01
   7133.00  9.6746666E-01
   7133.33  9.6464192E-01
   7133.67  9.4927861E-01
   7134.00  9.2423062E-01
   7134.33  8.9191105E-01
   7134.67  8.5520542E-01
   7135.00  8.1529737E-01
   7135.33  7.7325570E-01
   7135.67  7.3058480E-01
   7136.00  6.8829552E-01
   7136.33  6.4764546E-01
   7136.67  6.0941071E-01
   7137.00  5.7435040E-01
   7137.33  5.4382299E-01
   7137.67  5.1812358E-01
   7138.00  4.9780101E-01
   7138.33  4.8386117E-01
   7138.67  4.7533359E-01
   7139.00  4.7147746E-01
   7139.33  4.7137017E-01
   7139.67  4.7311464E-01
   7140.00  4.7567350E-01
   7140.33  4.7836507E-01
   7140.67  4.8099576E-01
   7141.00  4.8367140E-01
   7141.33  4.8664168E-01
   7141.67  4.9004211E-01
   7142.00  4.9392149E-01
   7142.33  4.9827177E-01
   7142.67  5.0288224E-01
   7143.00  5.0757091E-01
   7143.33  5.1209332E-01
   7143.67  5.1626036E-01
   7144.00  5.1992666E-01
   7144.33  5.2289396E-01
   7144.67  5.2517387E-01
   7145.00  5.2675123E-01
   7145.33  5.2756722E-01
   7145.67  5.2777238E-01
   7146.00  5.2745110E-01
   7146.33  5.2668642E-01
   7146.67  5.2568535E-01
   7147.00  5.2458346E-01
   7147.33  5.2354040E-01
   7147.67  5.2269110E-01
   7148.00  5.2214565E-01
   7148.33  5.2206583E-01
   7148.67  5.2248962E-01
   7149.00  5.2348157E-01
   7149.33  5.2519285E-01
   7149.67  5.2760930E-01
   7150.00  5.3078027E-01
   7150.33  5.3485469E-01
   7150.67  5.3976752E-01
   7151.00  5.4553352E-01
   7151.33  5.5224987E-01
   7151.67  5.5976631E-01
   7152.00  5.6800994E-01
   7152.33  5.7692811E-01
   7152.67  5.8627334E-01
   7153.00  5.9586583E-01
   7153.33  6.0547020E-01
   7153.67  6.1483161E-01
   7154.00  6.2373097E-01
   7154.33  6.3183877E-01
   7154.67  6.3903011E-01
   7155.00  6.4515448E-01
   7155.33  6.4993210E-01
   7155.67  6.5343342E-01
   7156.00  6.5563211E-01
   7156.33  6.5638636E-01
   7156.67  6.5592221E-01
   7157.00  6.5432516E-01
   7157.33  6.5159246E-01
   7157.67  6.4798879E-01
   7158.00  6.4363725E-01
   7158.33  6.3860222E-01
   7158.67  6.3309138E-01
   7159.00  6.2720875E-01
   7159.33  6.2103009E-01
   7159.67  6.1468275E-01
   7160.00  6.0823631E-01
   7160.33  6.0175438E-01
   7160.67  5.9529456E-01
   7161.00  5.8889348E-01
   7161.33  5.8259823E-01
   7161.67  5.7642230E-01
   7162.00  5.7037914E-01
   7162.33  5.6449147E-01
   7162.67  5.5873954E-01
   7163.00  5.5311610E-01
   7163.33  5.4762059E-01
   7163.67  5.4221948E-01
   7164.00  5.3689395E-01
   7164.33  5.3162660E-01
   7164.67  5.2638788E-01
   7165.00  5.2116038E-01
   7165.33  5.1592771E-01
   7165.67  5.1068159E-01
   7166.00  5.0541978E-01
   7166.33  5.0014311E-01
   7166.67  4.9486097E-01
   7167.00  4.8958330E-01
   7167.33  4.8432652E-01
   7167.67  4.7910559E-01
   7168.00  4.7393565E-01
   7168.33  4.6884008E-01
   7168.67  4.6382444E-01
   7169.00  4.5889958E-01
   7169.33  4.5409290E-01
   7169.67  4.4940764E-01
   7170.00  4.4485950E-01
   7170.33  4.4048941E-01
   7170.67  4.3630597E-01
   7171.00  4.3234599E-01
   7171.33  4.2871844E-01
   7171.67  4.2551748E-01
   7172.00  4.2291220E-01
