    FDMNES
    energy     <xanes>
   7097.00  4.2146317E-03
   7097.33  4.3022357E-03
   7097.67  4.3933053E-03
   7098.00  4.4880533E-03
   7098.33  4.5872463E-03
   7098.67  4.6906931E-03
   7099.00  4.7986797E-03
   7099.33  4.9121900E-03
   7099.67  5.0310248E-03
   7100.00  5.1555802E-03
   7100.33  5.2871532E-03
   7100.67  5.4255506E-03
   7101.00  5.5713394E-03
   7101.33  5.7262871E-03
   7101.67  5.8902383E-03
   7102.00  6.0640382E-03
   7102.33  6.2501951E-03
   7102.67  6.4486638E-03
   7103.00  6.6607688E-03
   7103.33  6.8902534E-03
   7103.67  7.1373527E-03
   7104.00  7.4042736E-03
   7104.33  7.6969727E-03
   7104.67  8.0163836E-03
   7105.00  8.3664835E-03
   7105.33  8.7575726E-03
   7105.67  9.1924101E-03
   7106.00  9.6789376E-03
   7106.33  1.0237067E-02
   7106.67  1.0874822E-02
   7107.00  1.1610452E-02
   7107.33  1.2488959E-02
   7107.67  1.3536261E-02
   7108.00  1.4803753E-02
   7108.33  1.6419873E-02
   7108.67  1.8489624E-02
   7109.00  2.1211801E-02
   7109.33  2.5119207E-02
   7109.67  3.0847401E-02
   7110.00  3.9656558E-02
   7110.33  5.5215027E-02
   7110.67  8.1192253E-02
   7111.00  1.1573711E-01
   7111.33  1.3391249E-01
   7111.67  1.3075698E-01
   7112.00  1.2715083E-01
   7112.33  1.4005722E-01
   7112.67  1.6957388E-01
   7113.00  2.0361154E-01
   7113.33  2.0289752E-01
   7113.67  1.6603580E-01
   7114.00  1.2226735E-01
   7114.33  9.2879500E-02
   7114.67  7.5703509E-02
   7115.00  6.6396868E-02
   7115.33  6.2155338E-02
   7115.67  6.0607775E-02
   7116.00  6.0795234E-02
   7116.33  6.2252082E-02
   7116.67  6.4894006E-02
   7117.00  6.9009117E-02
   7117.33  7.4936981E-02
   7117.67  8.2347067E-02
   7118.00  9.1057702E-02
   7118.33  1.0132538E-01
   7118.67  1.1364894E-01
   7119.00  1.2891687E-01
   7119.33  1.4821916E-01
   7119.67  1.6995291E-01
   7120.00  1.9086890E-01
   7120.33  2.0556690E-01
   7120.67  2.1332705E-01
   7121.00  2.1683596E-01
   7121.33  2.2080142E-01
   7121.67  2.2854406E-01
   7122.00  2.4158638E-01
   7122.33  2.6194924E-01
   7122.67  2.8925287E-01
   7123.00  3.1965552E-01
   7123.33  3.3901321E-01
   7123.67  3.4417805E-01
   7124.00  3.4867388E-01
   7124.33  3.6447552E-01
   7124.67  3.8968861E-01
   7125.00  4.2157904E-01
   7125.33  4.5762377E-01
   7125.67  4.9379514E-01
   7126.00  5.2583046E-01
   7126.33  5.4695334E-01
   7126.67  5.5454476E-01
   7127.00  5.4855480E-01
   7127.33  5.3252861E-01
   7127.67  5.1494839E-01
   7128.00  5.0081438E-01
   7128.33  4.9344112E-01
   7128.67  4.9196181E-01
   7129.00  4.9486774E-01
   7129.33  4.9961837E-01
   7129.67  5.0358492E-01
   7130.00  5.0643784E-01
   7130.33  5.0998498E-01
   7130.67  5.1603022E-01
   7131.00  5.2533876E-01
   7131.33  5.3868741E-01
   7131.67  5.5567673E-01
   7132.00  5.7604944E-01
   7132.33  5.9951693E-01
   7132.67  6.2497626E-01
   7133.00  6.5177989E-01
   7133.33  6.7917781E-01
   7133.67  7.0620112E-01
   7134.00  7.3219593E-01
   7134.33  7.5678441E-01
   7134.67  7.8041301E-01
   7135.00  8.0312362E-01
   7135.33  8.2396676E-01
   7135.67  8.4177806E-01
   7136.00  8.5533694E-01
   7136.33  8.6298715E-01
   7136.67  8.6498312E-01
   7137.00  8.6136803E-01
   7137.33  8.5181440E-01
   7137.67  8.3750329E-01
   7138.00  8.1899849E-01
   7138.33  7.9667203E-01
   7138.67  7.7189747E-01
   7139.00  7.4558098E-01
   7139.33  7.1872182E-01
   7139.67  6.9229671E-01
   7140.00  6.6691569E-01
   7140.33  6.4327444E-01
   7140.67  6.2147397E-01
   7141.00  6.0163290E-01
   7141.33  5.8404109E-01
   7141.67  5.6844762E-01
   7142.00  5.5485864E-01
   7142.33  5.4356447E-01
   7142.67  5.3437146E-01
   7143.00  5.2733521E-01
   7143.33  5.2276830E-01
   7143.67  5.2038034E-01
   7144.00  5.2010124E-01
   7144.33  5.2201856E-01
   7144.67  5.2564649E-01
   7145.00  5.3071100E-01
   7145.33  5.3694805E-01
   7145.67  5.4375265E-01
   7146.00  5.5066133E-01
   7146.33  5.5705929E-01
   7146.67  5.6252396E-01
   7147.00  5.6676171E-01
   7147.33  5.6941704E-01
   7147.67  5.7068335E-01
   7148.00  5.7072475E-01
   7148.33  5.6974026E-01
   7148.67  5.6821331E-01
   7149.00  5.6645112E-01
   7149.33  5.6476434E-01
   7149.67  5.6336327E-01
   7150.00  5.6236437E-01
   7150.33  5.6188709E-01
   7150.67  5.6187138E-01
   7151.00  5.6228306E-01
   7151.33  5.6309441E-01
   7151.67  5.6415768E-01
   7152.00  5.6536712E-01
   7152.33  5.6656675E-01
   7152.67  5.6756364E-01
   7153.00  5.6817070E-01
   7153.33  5.6806335E-01
   7153.67  5.6704304E-01
   7154.00  5.6485725E-01
   7154.33  5.6104591E-01
   7154.67  5.5557209E-01
   7155.00  5.4834069E-01
   7155.33  5.3916112E-01
   7155.67  5.2842138E-01
   7156.00  5.1636389E-01
   7156.33  5.0321639E-01
   7156.67  4.8947080E-01
   7157.00  4.7542904E-01
   7157.33  4.6139834E-01
   7157.67  4.4762398E-01
   7158.00  4.3427010E-01
   7158.33  4.2154894E-01
   7158.67  4.0948916E-01
   7159.00  3.9814905E-01
   7159.33  3.8766954E-01
   7159.67  3.7798446E-01
   7160.00  3.6911004E-01
   7160.33  3.6115787E-01
   7160.67  3.5402573E-01
   7161.00  3.4770659E-01
   7161.33  3.4228104E-01
   7161.67  3.3761943E-01
   7162.00  3.3368377E-01
   7162.33  3.3049294E-01
   7162.67  3.2788525E-01
   7163.00  3.2579210E-01
   7163.33  3.2419072E-01
   7163.67  3.2295604E-01
   7164.00  3.2203621E-01
   7164.33  3.2141561E-01
   7164.67  3.2102549E-01
   7165.00  3.2084560E-01
   7165.33  3.2088675E-01
   7165.67  3.2111927E-01
   7166.00  3.2154431E-01
   7166.33  3.2219193E-01
   7166.67  3.2304387E-01
   7167.00  3.2410453E-01
   7167.33  3.2540239E-01
   7167.67  3.2690839E-01
   7168.00  3.2861549E-01
   7168.33  3.3053381E-01
   7168.67  3.3262252E-01
   7169.00  3.3486577E-01
   7169.33  3.3726405E-01
   7169.67  3.3978737E-01
   7170.00  3.4242827E-01
   7170.33  3.4519403E-01
   7170.67  3.4805940E-01
   7171.00  3.5099914E-01
   7171.33  3.5393781E-01
   7171.67  3.5669965E-01
   7172.00  3.5902484E-01
