    FDMNES
    energy     <xanes>
   7097.00  4.9030935E-03
   7097.33  5.0157822E-03
   7097.67  5.1335848E-03
   7098.00  5.2568543E-03
   7098.33  5.3867867E-03
   7098.67  5.5231507E-03
   7099.00  5.6664317E-03
   7099.33  5.8182053E-03
   7099.67  5.9782414E-03
   7100.00  6.1472265E-03
   7100.33  6.3272957E-03
   7100.67  6.5182493E-03
   7101.00  6.7210919E-03
   7101.33  6.9388150E-03
   7101.67  7.1713151E-03
   7102.00  7.4201217E-03
   7102.33  7.6895997E-03
   7102.67  7.9798879E-03
   7103.00  8.2934306E-03
   7103.33  8.6369202E-03
   7103.67  9.0110755E-03
   7104.00  9.4200416E-03
   7104.33  9.8747374E-03
   7104.67  1.0377287E-02
   7105.00  1.0935268E-02
   7105.33  1.1567971E-02
   7105.67  1.2281124E-02
   7106.00  1.3089998E-02
   7106.33  1.4032461E-02
   7106.67  1.5124455E-02
   7107.00  1.6401100E-02
   7107.33  1.7948383E-02
   7107.67  1.9816064E-02
   7108.00  2.2101637E-02
   7108.33  2.5046764E-02
   7108.67  2.8843846E-02
   7109.00  3.3853594E-02
   7109.33  4.1026000E-02
   7109.67  5.1435485E-02
   7110.00  6.7177707E-02
   7110.33  9.4302665E-02
   7110.67  1.3983361E-01
   7111.00  2.0909137E-01
   7111.33  2.9604783E-01
   7111.67  3.5954951E-01
   7112.00  3.5029530E-01
   7112.33  2.9346332E-01
   7112.67  2.4248052E-01
   7113.00  2.0376841E-01
   7113.33  1.8040840E-01
   7113.67  1.6838918E-01
   7114.00  1.6463914E-01
   7114.33  1.7095536E-01
   7114.67  1.8634654E-01
   7115.00  2.0411950E-01
   7115.33  2.1178028E-01
   7115.67  2.0807393E-01
   7116.00  1.9889699E-01
   7116.33  1.9072770E-01
   7116.67  1.8518668E-01
   7117.00  1.8163880E-01
   7117.33  1.7870745E-01
   7117.67  1.7488760E-01
   7118.00  1.6978074E-01
   7118.33  1.6387670E-01
   7118.67  1.5813472E-01
   7119.00  1.5306275E-01
   7119.33  1.4908904E-01
   7119.67  1.4625366E-01
   7120.00  1.4468725E-01
   7120.33  1.4483861E-01
   7120.67  1.4682140E-01
   7121.00  1.5084316E-01
   7121.33  1.5736144E-01
   7121.67  1.6623592E-01
   7122.00  1.7756955E-01
   7122.33  1.9187934E-01
   7122.67  2.0886391E-01
   7123.00  2.2734239E-01
   7123.33  2.4162096E-01
   7123.67  2.4733025E-01
   7124.00  2.4963549E-01
   7124.33  2.5779819E-01
   7124.67  2.7272932E-01
   7125.00  2.9255148E-01
   7125.33  3.1521953E-01
   7125.67  3.3872378E-01
   7126.00  3.6178843E-01
   7126.33  3.8331330E-01
   7126.67  4.0414653E-01
   7127.00  4.2607927E-01
   7127.33  4.5197355E-01
   7127.67  4.8262367E-01
   7128.00  5.1747055E-01
   7128.33  5.5418870E-01
   7128.67  5.8820801E-01
   7129.00  6.1577220E-01
   7129.33  6.3464735E-01
   7129.67  6.4879393E-01
   7130.00  6.6214012E-01
   7130.33  6.7717909E-01
   7130.67  6.9183033E-01
   7131.00  7.0314046E-01
   7131.33  7.0951653E-01
   7131.67  7.1368551E-01
   7132.00  7.1858438E-01
   7132.33  7.2700557E-01
   7132.67  7.3809453E-01
   7133.00  7.4898153E-01
   7133.33  7.5471554E-01
   7133.67  7.5305136E-01
   7134.00  7.4399010E-01
   7134.33  7.2910489E-01
   7134.67  7.1178584E-01
   7135.00  6.9350724E-01
   7135.33  6.7458585E-01
   7135.67  6.5477182E-01
   7136.00  6.3384226E-01
   7136.33  6.1179610E-01
   7136.67  5.8925476E-01
   7137.00  5.6681769E-01
   7137.33  5.4534560E-01
   7137.67  5.2542682E-01
   7138.00  5.0753641E-01
   7138.33  4.9232242E-01
   7138.67  4.7960939E-01
   7139.00  4.6935069E-01
   7139.33  4.6167130E-01
   7139.67  4.5608498E-01
   7140.00  4.5243747E-01
   7140.33  4.5082272E-01
   7140.67  4.5093777E-01
   7141.00  4.5274950E-01
   7141.33  4.5644520E-01
   7141.67  4.6178734E-01
   7142.00  4.6872999E-01
   7142.33  4.7736788E-01
   7142.67  4.8736665E-01
   7143.00  4.9856023E-01
   7143.33  5.1084161E-01
   7143.67  5.2383152E-01
   7144.00  5.3728602E-01
   7144.33  5.5092360E-01
   7144.67  5.6441386E-01
   7145.00  5.7749480E-01
   7145.33  5.8979539E-01
   7145.67  6.0115757E-01
   7146.00  6.1141615E-01
   7146.33  6.2029153E-01
   7146.67  6.2789011E-01
   7147.00  6.3423237E-01
   7147.33  6.3925584E-01
   7147.67  6.4323634E-01
   7148.00  6.4630442E-01
   7148.33  6.4851281E-01
   7148.67  6.5007424E-01
   7149.00  6.5105592E-01
   7149.33  6.5142243E-01
   7149.67  6.5122376E-01
   7150.00  6.5041126E-01
   7150.33  6.4882803E-01
   7150.67  6.4649540E-01
   7151.00  6.4336870E-01
   7151.33  6.3930855E-01
   7151.67  6.3440937E-01
   7152.00  6.2869233E-01
   7152.33  6.2212501E-01
   7152.67  6.1488496E-01
   7153.00  6.0705433E-01
   7153.33  5.9868387E-01
   7153.67  5.8995428E-01
   7154.00  5.8097217E-01
   7154.33  5.7184388E-01
   7154.67  5.6270196E-01
   7155.00  5.5363893E-01
   7155.33  5.4477404E-01
   7155.67  5.3617111E-01
   7156.00  5.2789537E-01
   7156.33  5.2006286E-01
   7156.67  5.1268345E-01
   7157.00  5.0580336E-01
   7157.33  4.9953976E-01
   7157.67  4.9386710E-01
   7158.00  4.8881710E-01
   7158.33  4.8450082E-01
   7158.67  4.8085702E-01
   7159.00  4.7789497E-01
   7159.33  4.7570054E-01
   7159.67  4.7417772E-01
   7160.00  4.7330810E-01
   7160.33  4.7313710E-01
   7160.67  4.7354541E-01
   7161.00  4.7449123E-01
   7161.33  4.7597551E-01
   7161.67  4.7786347E-01
   7162.00  4.8008680E-01
   7162.33  4.8259825E-01
   7162.67  4.8527954E-01
   7163.00  4.8805068E-01
   7163.33  4.9081227E-01
   7163.67  4.9346429E-01
   7164.00  4.9592230E-01
   7164.33  4.9806185E-01
   7164.67  4.9984645E-01
   7165.00  5.0123369E-01
   7165.33  5.0214851E-01
   7165.67  5.0265018E-01
   7166.00  5.0276883E-01
   7166.33  5.0252372E-01
   7166.67  5.0202487E-01
   7167.00  5.0133483E-01
   7167.33  5.0050844E-01
   7167.67  4.9962095E-01
   7168.00  4.9871155E-01
   7168.33  4.9780667E-01
   7168.67  4.9690694E-01
   7169.00  4.9599287E-01
   7169.33  4.9501364E-01
   7169.67  4.9391810E-01
   7170.00  4.9265385E-01
   7170.33  4.9114481E-01
   7170.67  4.8939812E-01
   7171.00  4.8743219E-01
   7171.33  4.8531366E-01
   7171.67  4.8324144E-01
   7172.00  4.8145943E-01
