    FDMNES
    energy     <xanes>
   7097.00  5.3310692E-03
   7097.33  5.4617996E-03
   7097.67  5.5987106E-03
   7098.00  5.7422358E-03
   7098.33  5.8938313E-03
   7098.67  6.0532253E-03
   7099.00  6.2210133E-03
   7099.33  6.3991164E-03
   7099.67  6.5872623E-03
   7100.00  6.7862914E-03
   7100.33  6.9988061E-03
   7100.67  7.2245673E-03
   7101.00  7.4647985E-03
   7101.33  7.7231387E-03
   7101.67  7.9994547E-03
   7102.00  8.2955965E-03
   7102.33  8.6168472E-03
   7102.67  8.9633425E-03
   7103.00  9.3380072E-03
   7103.33  9.7488730E-03
   7103.67  1.0196714E-02
   7104.00  1.0686416E-02
   7104.33  1.1230911E-02
   7104.67  1.1832495E-02
   7105.00  1.2499924E-02
   7105.33  1.3255598E-02
   7105.67  1.4105643E-02
   7106.00  1.5067239E-02
   7106.33  1.6183157E-02
   7106.67  1.7470100E-02
   7107.00  1.8966219E-02
   7107.33  2.0765086E-02
   7107.67  2.2917344E-02
   7108.00  2.5524439E-02
   7108.33  2.8837270E-02
   7108.67  3.3045083E-02
   7109.00  3.8505935E-02
   7109.33  4.6157724E-02
   7109.67  5.7026892E-02
   7110.00  7.3117592E-02
   7110.33  1.0015611E-01
   7110.67  1.4423057E-01
   7111.00  2.0741269E-01
   7111.33  2.7484729E-01
   7111.67  3.3106843E-01
   7112.00  3.7848040E-01
   7112.33  4.2629675E-01
   7112.67  4.6404170E-01
   7113.00  4.7798901E-01
   7113.33  4.5723383E-01
   7113.67  4.1002067E-01
   7114.00  3.5379298E-01
   7114.33  3.0647319E-01
   7114.67  2.7158519E-01
   7115.00  2.4814837E-01
   7115.33  2.3447927E-01
   7115.67  2.2555808E-01
   7116.00  2.1723389E-01
   7116.33  2.0486158E-01
   7116.67  1.8853772E-01
   7117.00  1.7111750E-01
   7117.33  1.5614477E-01
   7117.67  1.4502927E-01
   7118.00  1.3822395E-01
   7118.33  1.3579409E-01
   7118.67  1.3582662E-01
   7119.00  1.3651112E-01
   7119.33  1.3607487E-01
   7119.67  1.3476895E-01
   7120.00  1.3390835E-01
   7120.33  1.3504615E-01
   7120.67  1.3792082E-01
   7121.00  1.4186834E-01
   7121.33  1.4658073E-01
   7121.67  1.5219587E-01
   7122.00  1.5930320E-01
   7122.33  1.6885346E-01
   7122.67  1.8058488E-01
   7123.00  1.9395516E-01
   7123.33  2.0877349E-01
   7123.67  2.2510757E-01
   7124.00  2.4298339E-01
   7124.33  2.6173274E-01
   7124.67  2.7995761E-01
   7125.00  2.9673890E-01
   7125.33  3.1147561E-01
   7125.67  3.2509574E-01
   7126.00  3.3895112E-01
   7126.33  3.5464214E-01
   7126.67  3.7241764E-01
   7127.00  3.9219080E-01
   7127.33  4.1427340E-01
   7127.67  4.3872942E-01
   7128.00  4.6585172E-01
   7128.33  4.9649691E-01
   7128.67  5.3078059E-01
   7129.00  5.6843374E-01
   7129.33  6.0778256E-01
   7129.67  6.4581890E-01
   7130.00  6.8039191E-01
   7130.33  7.0942001E-01
   7130.67  7.3340669E-01
   7131.00  7.5327895E-01
   7131.33  7.7075118E-01
   7131.67  7.8857638E-01
   7132.00  8.0872726E-01
   7132.33  8.3294257E-01
   7132.67  8.6042498E-01
   7133.00  8.8947533E-01
   7133.33  9.1640988E-01
   7133.67  9.3707400E-01
   7134.00  9.4798062E-01
   7134.33  9.4528640E-01
   7134.67  9.3062756E-01
   7135.00  9.0575018E-01
   7135.33  8.7287769E-01
   7135.67  8.3628714E-01
   7136.00  7.9842546E-01
   7136.33  7.6112599E-01
   7136.67  7.2503002E-01
   7137.00  6.9035762E-01
   7137.33  6.5770616E-01
   7137.67  6.2754085E-01
   7138.00  6.0057610E-01
   7138.33  5.7797560E-01
   7138.67  5.5957133E-01
   7139.00  5.4533202E-01
   7139.33  5.3546475E-01
   7139.67  5.2908741E-01
   7140.00  5.2584643E-01
   7140.33  5.2570856E-01
   7140.67  5.2800766E-01
   7141.00  5.3250985E-01
   7141.33  5.3923055E-01
   7141.67  5.4772901E-01
   7142.00  5.5784660E-01
   7142.33  5.6951233E-01
   7142.67  5.8213521E-01
   7143.00  5.9512476E-01
   7143.33  6.0741251E-01
   7143.67  6.1788200E-01
   7144.00  6.2555935E-01
   7144.33  6.2922936E-01
   7144.67  6.2914711E-01
   7145.00  6.2559308E-01
   7145.33  6.1886885E-01
   7145.67  6.1010329E-01
   7146.00  5.9992809E-01
   7146.33  5.8886751E-01
   7146.67  5.7750739E-01
   7147.00  5.6616299E-01
   7147.33  5.5511475E-01
   7147.67  5.4448041E-01
   7148.00  5.3434627E-01
   7148.33  5.2485750E-01
   7148.67  5.1599410E-01
   7149.00  5.0777802E-01
   7149.33  5.0030260E-01
   7149.67  4.9349136E-01
   7150.00  4.8734798E-01
   7150.33  4.8195943E-01
   7150.67  4.7724446E-01
   7151.00  4.7320581E-01
   7151.33  4.6993156E-01
   7151.67  4.6733955E-01
   7152.00  4.6543195E-01
   7152.33  4.6429568E-01
   7152.67  4.6384299E-01
   7153.00  4.6406769E-01
   7153.33  4.6503715E-01
   7153.67  4.6664188E-01
   7154.00  4.6884840E-01
   7154.33  4.7167328E-01
   7154.67  4.7498203E-01
   7155.00  4.7870839E-01
   7155.33  4.8280538E-01
   7155.67  4.8713504E-01
   7156.00  4.9161353E-01
   7156.33  4.9615441E-01
   7156.67  5.0066363E-01
   7157.00  5.0507159E-01
   7157.33  5.0928070E-01
   7157.67  5.1324306E-01
   7158.00  5.1690208E-01
   7158.33  5.2015275E-01
   7158.67  5.2299376E-01
   7159.00  5.2539618E-01
   7159.33  5.2728225E-01
   7159.67  5.2870319E-01
   7160.00  5.2966504E-01
   7160.33  5.3013535E-01
   7160.67  5.3020530E-01
   7161.00  5.2991472E-01
   7161.33  5.2927578E-01
   7161.67  5.2837625E-01
   7162.00  5.2724813E-01
   7162.33  5.2589592E-01
   7162.67  5.2438090E-01
   7163.00  5.2273074E-01
   7163.33  5.2095143E-01
   7163.67  5.1906505E-01
   7164.00  5.1706865E-01
   7164.33  5.1493433E-01
   7164.67  5.1265860E-01
   7165.00  5.1022361E-01
   7165.33  5.0758812E-01
   7165.67  5.0476016E-01
   7166.00  5.0173316E-01
   7166.33  4.9848347E-01
   7166.67  4.9504648E-01
   7167.00  4.9143902E-01
   7167.33  4.8767049E-01
   7167.67  4.8379366E-01
   7168.00  4.7984335E-01
   7168.33  4.7585890E-01
   7168.67  4.7188701E-01
   7169.00  4.6796322E-01
   7169.33  4.6414073E-01
   7169.67  4.6045149E-01
   7170.00  4.5692876E-01
   7170.33  4.5363082E-01
   7170.67  4.5056579E-01
   7171.00  4.4776474E-01
   7171.33  4.4530990E-01
   7171.67  4.4322413E-01
   7172.00  4.4157440E-01
