    FDMNES
    energy     <xanes>
   7097.00  4.9991389E-03
   7097.33  5.1119856E-03
   7097.67  5.2296907E-03
   7098.00  5.3525661E-03
   7098.33  5.4817070E-03
   7098.67  5.6168597E-03
   7099.00  5.7584422E-03
   7099.33  5.9078653E-03
   7099.67  6.0648607E-03
   7100.00  6.2300030E-03
   7100.33  6.4051519E-03
   7100.67  6.5900399E-03
   7101.00  6.7854788E-03
   7101.33  6.9939895E-03
   7101.67  7.2153390E-03
   7102.00  7.4507143E-03
   7102.33  7.7036467E-03
   7102.67  7.9740150E-03
   7103.00  8.2636249E-03
   7103.33  8.5776272E-03
   7103.67  8.9161859E-03
   7104.00  9.2821857E-03
   7104.33  9.6835264E-03
   7104.67  1.0121062E-02
   7105.00  1.0599695E-02
   7105.33  1.1132342E-02
   7105.67  1.1721561E-02
   7106.00  1.2376378E-02
   7106.33  1.3119786E-02
   7106.67  1.3958842E-02
   7107.00  1.4912080E-02
   7107.33  1.6025550E-02
   7107.67  1.7319786E-02
   7108.00  1.8839318E-02
   7108.33  2.0694063E-02
   7108.67  2.2954199E-02
   7109.00  2.5756494E-02
   7109.33  2.9450251E-02
   7109.67  3.4364135E-02
   7110.00  4.1133272E-02
   7110.33  5.1540877E-02
   7110.67  6.7764043E-02
   7111.00  9.2788851E-02
   7111.33  1.2865863E-01
   7111.67  1.6693825E-01
   7112.00  2.0122608E-01
   7112.33  2.3358426E-01
   7112.67  2.6637830E-01
   7113.00  2.9077532E-01
   7113.33  3.0841841E-01
   7113.67  3.3891386E-01
   7114.00  3.7675545E-01
   7114.33  3.8868724E-01
   7114.67  3.6843268E-01
   7115.00  3.3765572E-01
   7115.33  3.1119751E-01
   7115.67  2.8627759E-01
   7116.00  2.6418535E-01
   7116.33  2.5038959E-01
   7116.67  2.4549921E-01
   7117.00  2.4971691E-01
   7117.33  2.6312879E-01
   7117.67  2.7464755E-01
   7118.00  2.6944730E-01
   7118.33  2.4332376E-01
   7118.67  2.1340414E-01
   7119.00  1.8739399E-01
   7119.33  1.6662632E-01
   7119.67  1.5058998E-01
   7120.00  1.3959648E-01
   7120.33  1.3320774E-01
   7120.67  1.2931524E-01
   7121.00  1.2703527E-01
   7121.33  1.2619878E-01
   7121.67  1.2669290E-01
   7122.00  1.2884467E-01
   7122.33  1.3359949E-01
   7122.67  1.4129444E-01
   7123.00  1.5232284E-01
   7123.33  1.6751655E-01
   7123.67  1.8673658E-01
   7124.00  2.1004737E-01
   7124.33  2.3715014E-01
   7124.67  2.6557802E-01
   7125.00  2.9271809E-01
   7125.33  3.1534364E-01
   7125.67  3.3317932E-01
   7126.00  3.4749141E-01
   7126.33  3.6101454E-01
   7126.67  3.7687733E-01
   7127.00  3.9720913E-01
   7127.33  4.2413489E-01
   7127.67  4.5661116E-01
   7128.00  4.9271684E-01
   7128.33  5.2880225E-01
   7128.67  5.6124681E-01
   7129.00  5.8812003E-01
   7129.33  6.0814524E-01
   7129.67  6.2288461E-01
   7130.00  6.3368366E-01
   7130.33  6.4226848E-01
   7130.67  6.5085360E-01
   7131.00  6.6076901E-01
   7131.33  6.7308452E-01
   7131.67  6.8768031E-01
   7132.00  7.0433910E-01
   7132.33  7.2263031E-01
   7132.67  7.4139035E-01
   7133.00  7.5962446E-01
   7133.33  7.7610923E-01
   7133.67  7.9034316E-01
   7134.00  8.0197164E-01
   7134.33  8.1036843E-01
   7134.67  8.1563933E-01
   7135.00  8.1745556E-01
   7135.33  8.1476306E-01
   7135.67  8.0758434E-01
   7136.00  7.9588798E-01
   7136.33  7.7979441E-01
   7136.67  7.6097910E-01
   7137.00  7.4068741E-01
   7137.33  7.2032081E-01
   7137.67  7.0103230E-01
   7138.00  6.8351907E-01
   7138.33  6.6856791E-01
   7138.67  6.5613974E-01
   7139.00  6.4630327E-01
   7139.33  6.3934083E-01
   7139.67  6.3479074E-01
   7140.00  6.3244538E-01
   7140.33  6.3217907E-01
   7140.67  6.3327173E-01
   7141.00  6.3520593E-01
   7141.33  6.3730660E-01
   7141.67  6.3882405E-01
   7142.00  6.3919955E-01
   7142.33  6.3777322E-01
   7142.67  6.3455062E-01
   7143.00  6.2957712E-01
   7143.33  6.2290985E-01
   7143.67  6.1510130E-01
   7144.00  6.0648974E-01
   7144.33  5.9738273E-01
   7144.67  5.8813027E-01
   7145.00  5.7892324E-01
   7145.33  5.6994192E-01
   7145.67  5.6125818E-01
   7146.00  5.5292169E-01
   7146.33  5.4501204E-01
   7146.67  5.3749874E-01
   7147.00  5.3039179E-01
   7147.33  5.2375499E-01
   7147.67  5.1755230E-01
   7148.00  5.1180408E-01
   7148.33  5.0659920E-01
   7148.67  5.0190783E-01
   7149.00  4.9775710E-01
   7149.33  4.9424992E-01
   7149.67  4.9134518E-01
   7150.00  4.8906775E-01
   7150.33  4.8752576E-01
   7150.67  4.8665703E-01
   7151.00  4.8647103E-01
   7151.33  4.8705615E-01
   7151.67  4.8831723E-01
   7152.00  4.9022930E-01
   7152.33  4.9282432E-01
   7152.67  4.9597569E-01
   7153.00  4.9962903E-01
   7153.33  5.0375747E-01
   7153.67  5.0821241E-01
   7154.00  5.1290203E-01
   7154.33  5.1772982E-01
   7154.67  5.2256821E-01
   7155.00  5.2732300E-01
   7155.33  5.3186967E-01
   7155.67  5.3614304E-01
   7156.00  5.4007701E-01
   7156.33  5.4355243E-01
   7156.67  5.4655863E-01
   7157.00  5.4904663E-01
   7157.33  5.5089296E-01
   7157.67  5.5212384E-01
   7158.00  5.5270865E-01
   7158.33  5.5254105E-01
   7158.67  5.5169917E-01
   7159.00  5.5019389E-01
   7159.33  5.4797742E-01
   7159.67  5.4517941E-01
   7160.00  5.4185756E-01
   7160.33  5.3803765E-01
   7160.67  5.3386766E-01
   7161.00  5.2943328E-01
   7161.33  5.2481589E-01
   7161.67  5.2013560E-01
   7162.00  5.1547617E-01
   7162.33  5.1094070E-01
   7162.67  5.0658976E-01
   7163.00  5.0247523E-01
   7163.33  4.9867683E-01
   7163.67  4.9518562E-01
   7164.00  4.9200856E-01
   7164.33  4.8917170E-01
   7164.67  4.8661088E-01
   7165.00  4.8429473E-01
   7165.33  4.8220484E-01
   7165.67  4.8027072E-01
   7166.00  4.7845680E-01
   7166.33  4.7673849E-01
   7166.67  4.7507873E-01
   7167.00  4.7346242E-01
   7167.33  4.7188316E-01
   7167.67  4.7033192E-01
   7168.00  4.6880806E-01
   7168.33  4.6731757E-01
   7168.67  4.6586207E-01
   7169.00  4.6444896E-01
   7169.33  4.6308980E-01
   7169.67  4.6178074E-01
   7170.00  4.6052537E-01
   7170.33  4.5933718E-01
   7170.67  4.5821656E-01
   7171.00  4.5717239E-01
   7171.33  4.5623202E-01
   7171.67  4.5541176E-01
   7172.00  4.5474649E-01
