    FDMNES
    energy     <xanes>
   7097.00  5.4301486E-03
   7097.33  5.5764554E-03
   7097.67  5.7302956E-03
   7098.00  5.8922331E-03
   7098.33  6.0641030E-03
   7098.67  6.2456227E-03
   7099.00  6.4375783E-03
   7099.33  6.6424307E-03
   7099.67  6.8599124E-03
   7100.00  7.0911495E-03
   7100.33  7.3395349E-03
   7100.67  7.6048689E-03
   7101.00  7.8888177E-03
   7101.33  8.1962137E-03
   7101.67  8.5270392E-03
   7102.00  8.8838555E-03
   7102.33  9.2738168E-03
   7102.67  9.6973390E-03
   7103.00  1.0158543E-02
   7103.33  1.0668531E-02
   7103.67  1.1228724E-02
   7104.00  1.1846134E-02
   7104.33  1.2539027E-02
   7104.67  1.3311203E-02
   7105.00  1.4175468E-02
   7105.33  1.5164188E-02
   7105.67  1.6287150E-02
   7106.00  1.7569979E-02
   7106.33  1.9075950E-02
   7106.67  2.0831462E-02
   7107.00  2.2894588E-02
   7107.33  2.5407104E-02
   7107.67  2.8449140E-02
   7108.00  3.2178236E-02
   7108.33  3.6983540E-02
   7108.67  4.3166515E-02
   7109.00  5.1293579E-02
   7109.33  6.2850472E-02
   7109.67  7.9486423E-02
   7110.00  1.0441571E-01
   7110.33  1.4678028E-01
   7110.67  2.1579557E-01
   7111.00  3.1271916E-01
   7111.33  4.1730661E-01
   7111.67  5.2395358E-01
   7112.00  6.3168229E-01
   7112.33  6.9489773E-01
   7112.67  6.8306175E-01
   7113.00  6.4523760E-01
   7113.33  5.8121655E-01
   7113.67  4.6152493E-01
   7114.00  3.3601243E-01
   7114.33  2.5170523E-01
   7114.67  2.0071249E-01
   7115.00  1.7363331E-01
   7115.33  1.6273741E-01
   7115.67  1.5299902E-01
   7116.00  1.3737824E-01
   7116.33  1.2148465E-01
   7116.67  1.0988810E-01
   7117.00  1.0252086E-01
   7117.33  9.8708661E-02
   7117.67  9.7372573E-02
   7118.00  9.8229328E-02
   7118.33  1.0069625E-01
   7118.67  1.0319624E-01
   7119.00  1.0500319E-01
   7119.33  1.0618584E-01
   7119.67  1.0726720E-01
   7120.00  1.0840254E-01
   7120.33  1.0951046E-01
   7120.67  1.1114774E-01
   7121.00  1.1416344E-01
   7121.33  1.1937617E-01
   7121.67  1.2664572E-01
   7122.00  1.3586528E-01
   7122.33  1.4718418E-01
   7122.67  1.6071895E-01
   7123.00  1.7729008E-01
   7123.33  1.9872940E-01
   7123.67  2.2558872E-01
   7124.00  2.5817901E-01
   7124.33  2.9602417E-01
   7124.67  3.3522268E-01
   7125.00  3.7125120E-01
   7125.33  3.9799769E-01
   7125.67  4.1451833E-01
   7126.00  4.2206322E-01
   7126.33  4.2272298E-01
   7126.67  4.1982444E-01
   7127.00  4.1503419E-01
   7127.33  4.0986090E-01
   7127.67  4.0540987E-01
   7128.00  4.0223699E-01
   7128.33  4.0170219E-01
   7128.67  4.0530787E-01
   7129.00  4.1407753E-01
   7129.33  4.2818498E-01
   7129.67  4.4540727E-01
   7130.00  4.6429602E-01
   7130.33  4.8425654E-01
   7130.67  5.0579728E-01
   7131.00  5.2997200E-01
   7131.33  5.5794989E-01
   7131.67  5.8884211E-01
   7132.00  6.2106135E-01
   7132.33  6.5092677E-01
   7132.67  6.7402173E-01
   7133.00  6.8663093E-01
   7133.33  6.8498301E-01
   7133.67  6.7135340E-01
   7134.00  6.4832869E-01
   7134.33  6.1970291E-01
   7134.67  5.9050941E-01
   7135.00  5.6348003E-01
   7135.33  5.4074654E-01
   7135.67  5.2228222E-01
   7136.00  5.0797175E-01
   7136.33  4.9797333E-01
   7136.67  4.9148684E-01
   7137.00  4.8827270E-01
   7137.33  4.8841273E-01
   7137.67  4.9116931E-01
   7138.00  4.9614011E-01
   7138.33  5.0295344E-01
   7138.67  5.1076999E-01
   7139.00  5.1908205E-01
   7139.33  5.2744430E-01
   7139.67  5.3558769E-01
   7140.00  5.4340203E-01
   7140.33  5.5075681E-01
   7140.67  5.5760810E-01
   7141.00  5.6385742E-01
   7141.33  5.6933737E-01
   7141.67  5.7414588E-01
   7142.00  5.7838912E-01
   7142.33  5.8224713E-01
   7142.67  5.8605997E-01
   7143.00  5.9011582E-01
   7143.33  5.9483192E-01
   7143.67  6.0043187E-01
   7144.00  6.0709469E-01
   7144.33  6.1512243E-01
   7144.67  6.2447250E-01
   7145.00  6.3519347E-01
   7145.33  6.4744598E-01
   7145.67  6.6097533E-01
   7146.00  6.7565553E-01
   7146.33  6.9141758E-01
   7146.67  7.0793088E-01
   7147.00  7.2501692E-01
   7147.33  7.4253575E-01
   7147.67  7.6027760E-01
   7148.00  7.7811813E-01
   7148.33  7.9590172E-01
   7148.67  8.1344077E-01
   7149.00  8.3050654E-01
   7149.33  8.4666272E-01
   7149.67  8.6160065E-01
   7150.00  8.7491922E-01
   7150.33  8.8586655E-01
   7150.67  8.9424440E-01
   7151.00  8.9971796E-01
   7151.33  9.0161681E-01
   7151.67  9.0022720E-01
   7152.00  8.9559307E-01
   7152.33  8.8753648E-01
   7152.67  8.7677554E-01
   7153.00  8.6368413E-01
   7153.33  8.4851719E-01
   7153.67  8.3199179E-01
   7154.00  8.1450238E-01
   7154.33  7.9638728E-01
   7154.67  7.7805037E-01
   7155.00  7.5971301E-01
   7155.33  7.4158402E-01
   7155.67  7.2377023E-01
   7156.00  7.0633701E-01
   7156.33  6.8936209E-01
   7156.67  6.7279991E-01
   7157.00  6.5665348E-01
   7157.33  6.4098568E-01
   7157.67  6.2576384E-01
   7158.00  6.1101339E-01
   7158.33  5.9682963E-01
   7158.67  5.8318218E-01
   7159.00  5.7009985E-01
   7159.33  5.5768746E-01
   7159.67  5.4589325E-01
   7160.00  5.3472616E-01
   7160.33  5.2425921E-01
   7160.67  5.1440416E-01
   7161.00  5.0515068E-01
   7161.33  4.9655473E-01
   7161.67  4.8852071E-01
   7162.00  4.8102471E-01
   7162.33  4.7409562E-01
   7162.67  4.6763062E-01
   7163.00  4.6159087E-01
   7163.33  4.5597086E-01
   7163.67  4.5066383E-01
   7164.00  4.4561152E-01
   7164.33  4.4075939E-01
   7164.67  4.3600049E-01
   7165.00  4.3125862E-01
   7165.33  4.2643561E-01
   7165.67  4.2145742E-01
   7166.00  4.1626458E-01
   7166.33  4.1077700E-01
   7166.67  4.0500936E-01
   7167.00  3.9897329E-01
   7167.33  3.9268819E-01
   7167.67  3.8626158E-01
   7168.00  3.7978786E-01
   7168.33  3.7339629E-01
   7168.67  3.6719431E-01
   7169.00  3.6127415E-01
   7169.33  3.5577253E-01
   7169.67  3.5071052E-01
   7170.00  3.4612816E-01
   7170.33  3.4211593E-01
   7170.67  3.3861904E-01
   7171.00  3.3563248E-01
   7171.33  3.3320175E-01
   7171.67  3.3124155E-01
   7172.00  3.2972378E-01
