    FDMNES
    energy     <xanes>
   7097.00  4.3963341E-03
   7097.33  4.4855960E-03
   7097.67  4.5781993E-03
   7098.00  4.6743324E-03
   7098.33  4.7747062E-03
   7098.67  4.8791126E-03
   7099.00  4.9877985E-03
   7099.33  5.1016548E-03
   7099.67  5.2204580E-03
   7100.00  5.3445399E-03
   7100.33  5.4750437E-03
   7100.67  5.6117372E-03
   7101.00  5.7550811E-03
   7101.33  5.9065846E-03
   7101.67  6.0660261E-03
   7102.00  6.2340693E-03
   7102.33  6.4127813E-03
   7102.67  6.6019951E-03
   7103.00  6.8027151E-03
   7103.33  7.0179074E-03
   7103.67  7.2475672E-03
   7104.00  7.4933096E-03
   7104.33  7.7596617E-03
   7104.67  8.0470485E-03
   7105.00  8.3582829E-03
   7105.33  8.7008696E-03
   7105.67  9.0763887E-03
   7106.00  9.4902869E-03
   7106.33  9.9565027E-03
   7106.67  1.0479985E-02
   7107.00  1.1072924E-02
   7107.33  1.1765725E-02
   7107.67  1.2574773E-02
   7108.00  1.3533613E-02
   7108.33  1.4726286E-02
   7108.67  1.6218939E-02
   7109.00  1.8137661E-02
   7109.33  2.0818150E-02
   7109.67  2.4648167E-02
   7110.00  3.0391774E-02
   7110.33  4.0261465E-02
   7110.67  5.6640283E-02
   7111.00  8.0214582E-02
   7111.33  1.0452107E-01
   7111.67  1.1651687E-01
   7112.00  1.1023043E-01
   7112.33  9.6562844E-02
   7112.67  8.4571330E-02
   7113.00  7.4602976E-02
   7113.33  6.7153469E-02
   7113.67  6.2460566E-02
   7114.00  6.0235378E-02
   7114.33  6.0223063E-02
   7114.67  6.1866292E-02
   7115.00  6.5066088E-02
   7115.33  7.0065146E-02
   7115.67  7.6845577E-02
   7116.00  8.5663727E-02
   7116.33  9.7267808E-02
   7116.67  1.1194908E-01
   7117.00  1.3037786E-01
   7117.33  1.5415472E-01
   7117.67  1.8393536E-01
   7118.00  2.2091305E-01
   7118.33  2.6731851E-01
   7118.67  3.2201636E-01
   7119.00  3.8218882E-01
   7119.33  4.3809986E-01
   7119.67  4.7593656E-01
   7120.00  4.8775128E-01
   7120.33  4.7541001E-01
   7120.67  4.5433726E-01
   7121.00  4.3343465E-01
   7121.33  4.1805434E-01
   7121.67  4.0788342E-01
   7122.00  4.0154956E-01
   7122.33  3.9782220E-01
   7122.67  3.9587974E-01
   7123.00  3.9581934E-01
   7123.33  3.9807117E-01
   7123.67  4.0236074E-01
   7124.00  4.0847374E-01
   7124.33  4.1617077E-01
   7124.67  4.2496945E-01
   7125.00  4.3493674E-01
   7125.33  4.4661650E-01
   7125.67  4.5990590E-01
   7126.00  4.7431383E-01
   7126.33  4.8875991E-01
   7126.67  5.0215381E-01
   7127.00  5.1385970E-01
   7127.33  5.2323372E-01
   7127.67  5.3039609E-01
   7128.00  5.3532897E-01
   7128.33  5.3787570E-01
   7128.67  5.3857876E-01
   7129.00  5.3780523E-01
   7129.33  5.3597069E-01
   7129.67  5.3372831E-01
   7130.00  5.3148343E-01
   7130.33  5.2966453E-01
   7130.67  5.2846452E-01
   7131.00  5.2794821E-01
   7131.33  5.2808919E-01
   7131.67  5.2855077E-01
   7132.00  5.2902043E-01
   7132.33  5.2906529E-01
   7132.67  5.2841502E-01
   7133.00  5.2691446E-01
   7133.33  5.2445621E-01
   7133.67  5.2133820E-01
   7134.00  5.1784513E-01
   7134.33  5.1438320E-01
   7134.67  5.1134768E-01
   7135.00  5.0902162E-01
   7135.33  5.0773624E-01
   7135.67  5.0744742E-01
   7136.00  5.0810235E-01
   7136.33  5.0962449E-01
   7136.67  5.1166384E-01
   7137.00  5.1397453E-01
   7137.33  5.1627545E-01
   7137.67  5.1832493E-01
   7138.00  5.1995859E-01
   7138.33  5.2097525E-01
   7138.67  5.2137896E-01
   7139.00  5.2117223E-01
   7139.33  5.2036071E-01
   7139.67  5.1915467E-01
   7140.00  5.1772081E-01
   7140.33  5.1628045E-01
   7140.67  5.1505767E-01
   7141.00  5.1422460E-01
   7141.33  5.1401236E-01
   7141.67  5.1446716E-01
   7142.00  5.1565209E-01
   7142.33  5.1770159E-01
   7142.67  5.2052496E-01
   7143.00  5.2410446E-01
   7143.33  5.2848963E-01
   7143.67  5.3352606E-01
   7144.00  5.3914306E-01
   7144.33  5.4531030E-01
   7144.67  5.5186509E-01
   7145.00  5.5871141E-01
   7145.33  5.6575012E-01
   7145.67  5.7283344E-01
   7146.00  5.7985336E-01
   7146.33  5.8667633E-01
   7146.67  5.9323244E-01
   7147.00  5.9945348E-01
   7147.33  6.0523052E-01
   7147.67  6.1057801E-01
   7148.00  6.1548340E-01
   7148.33  6.1989257E-01
   7148.67  6.2387174E-01
   7149.00  6.2743318E-01
   7149.33  6.3053989E-01
   7149.67  6.3325178E-01
   7150.00  6.3557547E-01
   7150.33  6.3747518E-01
   7150.67  6.3901678E-01
   7151.00  6.4022415E-01
   7151.33  6.4109585E-01
   7151.67  6.4170972E-01
   7152.00  6.4209966E-01
   7152.33  6.4227405E-01
   7152.67  6.4227581E-01
   7153.00  6.4210736E-01
   7153.33  6.4173155E-01
   7153.67  6.4114108E-01
   7154.00  6.4029992E-01
   7154.33  6.3912112E-01
   7154.67  6.3758988E-01
   7155.00  6.3566343E-01
   7155.33  6.3324462E-01
   7155.67  6.3035748E-01
   7156.00  6.2698636E-01
   7156.33  6.2306543E-01
   7156.67  6.1866691E-01
   7157.00  6.1381188E-01
   7157.33  6.0848360E-01
   7157.67  6.0278231E-01
   7158.00  5.9675652E-01
   7158.33  5.9043452E-01
   7158.67  5.8391330E-01
   7159.00  5.7724749E-01
   7159.33  5.7048467E-01
   7159.67  5.6368446E-01
   7160.00  5.5687952E-01
   7160.33  5.5009727E-01
   7160.67  5.4334363E-01
   7161.00  5.3661672E-01
   7161.33  5.2991794E-01
   7161.67  5.2324472E-01
   7162.00  5.1658894E-01
   7162.33  5.0993795E-01
   7162.67  5.0328470E-01
   7163.00  4.9663163E-01
   7163.33  4.8999357E-01
   7163.67  4.8339336E-01
   7164.00  4.7685983E-01
   7164.33  4.7044563E-01
   7164.67  4.6417952E-01
   7165.00  4.5809721E-01
   7165.33  4.5226570E-01
   7165.67  4.4669191E-01
   7166.00  4.4140131E-01
   7166.33  4.3645546E-01
   7166.67  4.3183127E-01
   7167.00  4.2753498E-01
   7167.33  4.2360810E-01
   7167.67  4.2000499E-01
   7168.00  4.1671878E-01
   7168.33  4.1377718E-01
   7168.67  4.1112952E-01
   7169.00  4.0876404E-01
   7169.33  4.0669883E-01
   7169.67  4.0488455E-01
   7170.00  4.0330764E-01
   7170.33  4.0197992E-01
   7170.67  4.0085737E-01
   7171.00  3.9992508E-01
   7171.33  3.9918508E-01
   7171.67  3.9859301E-01
   7172.00  3.9812482E-01
