    FDMNES
    energy     <xanes>
   7097.00  4.2519159E-03
   7097.33  4.3409060E-03
   7097.67  4.4335040E-03
   7098.00  4.5299383E-03
   7098.33  4.6310184E-03
   7098.67  4.7365542E-03
   7099.00  4.8468549E-03
   7099.33  4.9629671E-03
   7099.67  5.0846953E-03
   7100.00  5.2124705E-03
   7100.33  5.3476840E-03
   7100.67  5.4901510E-03
   7101.00  5.6404934E-03
   7101.33  5.8006235E-03
   7101.67  5.9704045E-03
   7102.00  6.1507706E-03
   7102.33  6.3444602E-03
   7102.67  6.5514678E-03
   7103.00  6.7732680E-03
   7103.33  7.0139846E-03
   7103.67  7.2739379E-03
   7104.00  7.5556005E-03
   7104.33  7.8655900E-03
   7104.67  8.2050279E-03
   7105.00  8.5783903E-03
   7105.33  8.9971987E-03
   7105.67  9.4646460E-03
   7106.00  9.9896826E-03
   7106.33  1.0594658E-02
   7106.67  1.1288665E-02
   7107.00  1.2092191E-02
   7107.33  1.3055594E-02
   7107.67  1.4207664E-02
   7108.00  1.5605328E-02
   7108.33  1.7390204E-02
   7108.67  1.9675641E-02
   7109.00  2.2675437E-02
   7109.33  2.6957193E-02
   7109.67  3.3177551E-02
   7110.00  4.2626745E-02
   7110.33  5.9004669E-02
   7110.67  8.5914374E-02
   7111.00  1.2266957E-01
   7111.33  1.5707889E-01
   7111.67  1.8190468E-01
   7112.00  1.9144210E-01
   7112.33  1.9104481E-01
   7112.67  1.9110667E-01
   7113.00  1.8450313E-01
   7113.33  1.6412409E-01
   7113.67  1.3971307E-01
   7114.00  1.1959543E-01
   7114.33  1.0646303E-01
   7114.67  9.5357361E-02
   7115.00  8.4526562E-02
   7115.33  7.5625028E-02
   7115.67  6.9159670E-02
   7116.00  6.5360652E-02
   7116.33  6.4325774E-02
   7116.67  6.5360221E-02
   7117.00  6.8228045E-02
   7117.33  7.2812828E-02
   7117.67  7.8252702E-02
   7118.00  8.3803110E-02
   7118.33  8.9330893E-02
   7118.67  9.5583524E-02
   7119.00  1.0316765E-01
   7119.33  1.1258785E-01
   7119.67  1.2364507E-01
   7120.00  1.3622738E-01
   7120.33  1.5034801E-01
   7120.67  1.6576992E-01
   7121.00  1.8259496E-01
   7121.33  2.0134237E-01
   7121.67  2.2207201E-01
   7122.00  2.4466022E-01
   7122.33  2.6841588E-01
   7122.67  2.9197270E-01
   7123.00  3.1439384E-01
   7123.33  3.3462132E-01
   7123.67  3.5257395E-01
   7124.00  3.6936085E-01
   7124.33  3.8741979E-01
   7124.67  4.0678038E-01
   7125.00  4.2540912E-01
   7125.33  4.4031159E-01
   7125.67  4.5090692E-01
   7126.00  4.5736534E-01
   7126.33  4.6004949E-01
   7126.67  4.6079649E-01
   7127.00  4.6086411E-01
   7127.33  4.6124141E-01
   7127.67  4.6231157E-01
   7128.00  4.6425595E-01
   7128.33  4.6759758E-01
   7128.67  4.7255923E-01
   7129.00  4.7914249E-01
   7129.33  4.8704860E-01
   7129.67  4.9547697E-01
   7130.00  5.0396230E-01
   7130.33  5.1222902E-01
   7130.67  5.2039861E-01
   7131.00  5.2891067E-01
   7131.33  5.3908905E-01
   7131.67  5.5247789E-01
   7132.00  5.7054094E-01
   7132.33  5.9477547E-01
   7132.67  6.2373378E-01
   7133.00  6.5562252E-01
   7133.33  6.8807083E-01
   7133.67  7.1907371E-01
   7134.00  7.4699803E-01
   7134.33  7.6806406E-01
   7134.67  7.7957363E-01
   7135.00  7.8021555E-01
   7135.33  7.7020832E-01
   7135.67  7.5411419E-01
   7136.00  7.3516286E-01
   7136.33  7.1655419E-01
   7136.67  7.0036226E-01
   7137.00  6.8755467E-01
   7137.33  6.7892958E-01
   7137.67  6.7374943E-01
   7138.00  6.7148478E-01
   7138.33  6.7163700E-01
   7138.67  6.7316628E-01
   7139.00  6.7548953E-01
   7139.33  6.7808559E-01
   7139.67  6.8050231E-01
   7140.00  6.8245827E-01
   7140.33  6.8359999E-01
   7140.67  6.8380447E-01
   7141.00  6.8292055E-01
   7141.33  6.8066077E-01
   7141.67  6.7710516E-01
   7142.00  6.7225881E-01
   7142.33  6.6607837E-01
   7142.67  6.5893408E-01
   7143.00  6.5110619E-01
   7143.33  6.4296826E-01
   7143.67  6.3500827E-01
   7144.00  6.2760930E-01
   7144.33  6.2127640E-01
   7144.67  6.1616987E-01
   7145.00  6.1242368E-01
   7145.33  6.1024547E-01
   7145.67  6.0938306E-01
   7146.00  6.0970611E-01
   7146.33  6.1114813E-01
   7146.67  6.1338424E-01
   7147.00  6.1625869E-01
   7147.33  6.1968516E-01
   7147.67  6.2347354E-01
   7148.00  6.2750287E-01
   7148.33  6.3159235E-01
   7148.67  6.3548180E-01
   7149.00  6.3888642E-01
   7149.33  6.4127537E-01
   7149.67  6.4228147E-01
   7150.00  6.4150185E-01
   7150.33  6.3829324E-01
   7150.67  6.3274744E-01
   7151.00  6.2491375E-01
   7151.33  6.1483518E-01
   7151.67  6.0324754E-01
   7152.00  5.9064331E-01
   7152.33  5.7752264E-01
   7152.67  5.6440320E-01
   7153.00  5.5157001E-01
   7153.33  5.3928601E-01
   7153.67  5.2758251E-01
   7154.00  5.1648369E-01
   7154.33  5.0603875E-01
   7154.67  4.9611622E-01
   7155.00  4.8666086E-01
   7155.33  4.7766416E-01
   7155.67  4.6902412E-01
   7156.00  4.6070449E-01
   7156.33  4.5270568E-01
   7156.67  4.4496438E-01
   7157.00  4.3746329E-01
   7157.33  4.3021777E-01
   7157.67  4.2319433E-01
   7158.00  4.1639517E-01
   7158.33  4.0985950E-01
   7158.67  4.0357577E-01
   7159.00  3.9756523E-01
   7159.33  3.9189591E-01
   7159.67  3.8656267E-01
   7160.00  3.8159177E-01
   7160.33  3.7706194E-01
   7160.67  3.7295647E-01
   7161.00  3.6930214E-01
   7161.33  3.6618578E-01
   7161.67  3.6356901E-01
   7162.00  3.6146370E-01
   7162.33  3.5993565E-01
   7162.67  3.5891486E-01
   7163.00  3.5839283E-01
   7163.33  3.5841157E-01
   7163.67  3.5888048E-01
   7164.00  3.5976410E-01
   7164.33  3.6105766E-01
   7164.67  3.6265683E-01
   7165.00  3.6450565E-01
   7165.33  3.6655652E-01
   7165.67  3.6871426E-01
   7166.00  3.7091683E-01
   7166.33  3.7309162E-01
   7166.67  3.7517749E-01
   7167.00  3.7712616E-01
   7167.33  3.7886939E-01
   7167.67  3.8039787E-01
   7168.00  3.8169519E-01
   7168.33  3.8272672E-01
   7168.67  3.8353160E-01
   7169.00  3.8412836E-01
   7169.33  3.8452546E-01
   7169.67  3.8478210E-01
   7170.00  3.8493281E-01
   7170.33  3.8501006E-01
   7170.67  3.8505983E-01
   7171.00  3.8510929E-01
   7171.33  3.8518169E-01
   7171.67  3.8527625E-01
   7172.00  3.8537446E-01
