    FDMNES
    energy     <xanes>
   7097.00  5.1096605E-03
   7097.33  5.2336202E-03
   7097.67  5.3632318E-03
   7098.00  5.4988755E-03
   7098.33  5.6418552E-03
   7098.67  5.7918998E-03
   7099.00  5.9495251E-03
   7099.33  6.1164313E-03
   7099.67  6.2923377E-03
   7100.00  6.4779627E-03
   7100.33  6.6755782E-03
   7100.67  6.8849173E-03
   7101.00  7.1070104E-03
   7101.33  7.3449839E-03
   7101.67  7.5986368E-03
   7102.00  7.8694992E-03
   7102.33  8.1620273E-03
   7102.67  8.4762010E-03
   7103.00  8.8143904E-03
   7103.33  9.1832250E-03
   7103.67  9.5831250E-03
   7104.00  1.0017957E-02
   7104.33  1.0498123E-02
   7104.67  1.1025097E-02
   7105.00  1.1605614E-02
   7105.33  1.2257150E-02
   7105.67  1.2983799E-02
   7106.00  1.3798335E-02
   7106.33  1.4732921E-02
   7106.67  1.5798733E-02
   7107.00  1.7023032E-02
   7107.33  1.8473090E-02
   7107.67  2.0182174E-02
   7108.00  2.2219392E-02
   7108.33  2.4755648E-02
   7108.67  2.7911183E-02
   7109.00  3.1916715E-02
   7109.33  3.7371928E-02
   7109.67  4.4901152E-02
   7110.00  5.5723637E-02
   7110.33  7.3326081E-02
   7110.67  1.0170768E-01
   7111.00  1.4377263E-01
   7111.33  1.9127547E-01
   7111.67  2.2705072E-01
   7112.00  2.4837941E-01
   7112.33  2.7613470E-01
   7112.67  3.3129284E-01
   7113.00  4.0631588E-01
   7113.33  4.6441382E-01
   7113.67  4.8580076E-01
   7114.00  4.8750547E-01
   7114.33  4.8658250E-01
   7114.67  4.6735733E-01
   7115.00  4.1006525E-01
   7115.33  3.3166623E-01
   7115.67  2.6496228E-01
   7116.00  2.1648893E-01
   7116.33  1.8512885E-01
   7116.67  1.6473861E-01
   7117.00  1.5269109E-01
   7117.33  1.4767206E-01
   7117.67  1.4650116E-01
   7118.00  1.4567482E-01
   7118.33  1.4061089E-01
   7118.67  1.3193104E-01
   7119.00  1.2240024E-01
   7119.33  1.1461933E-01
   7119.67  1.0920356E-01
   7120.00  1.0622250E-01
   7120.33  1.0563908E-01
   7120.67  1.0668396E-01
   7121.00  1.0908432E-01
   7121.33  1.1315112E-01
   7121.67  1.1916441E-01
   7122.00  1.2754236E-01
   7122.33  1.3913112E-01
   7122.67  1.5418493E-01
   7123.00  1.7333194E-01
   7123.33  1.9774008E-01
   7123.67  2.2637467E-01
   7124.00  2.5690940E-01
   7124.33  2.8357131E-01
   7124.67  3.0164246E-01
   7125.00  3.1041807E-01
   7125.33  3.1311096E-01
   7125.67  3.1551291E-01
   7126.00  3.2060644E-01
   7126.33  3.3061351E-01
   7126.67  3.4570828E-01
   7127.00  3.6630971E-01
   7127.33  3.9347446E-01
   7127.67  4.2630985E-01
   7128.00  4.6393308E-01
   7128.33  5.0482744E-01
   7128.67  5.4629369E-01
   7129.00  5.8627674E-01
   7129.33  6.2237533E-01
   7129.67  6.5384976E-01
   7130.00  6.8036772E-01
   7130.33  7.0166357E-01
   7130.67  7.1922577E-01
   7131.00  7.3413256E-01
   7131.33  7.4785021E-01
   7131.67  7.6261850E-01
   7132.00  7.8042398E-01
   7132.33  8.0341789E-01
   7132.67  8.3084216E-01
   7133.00  8.6115498E-01
   7133.33  8.9223196E-01
   7133.67  9.2261447E-01
   7134.00  9.5196221E-01
   7134.33  9.7990285E-01
   7134.67  1.0057216E+00
   7135.00  1.0279661E+00
   7135.33  1.0438527E+00
   7135.67  1.0523221E+00
   7136.00  1.0525572E+00
   7136.33  1.0435451E+00
   7136.67  1.0271632E+00
   7137.00  1.0045174E+00
   7137.33  9.7646591E-01
   7137.67  9.4515271E-01
   7138.00  9.1193566E-01
   7138.33  8.7830048E-01
   7138.67  8.4563405E-01
   7139.00  8.1483935E-01
   7139.33  7.8695706E-01
   7139.67  7.6204377E-01
   7140.00  7.4020400E-01
   7140.33  7.2174008E-01
   7140.67  7.0605704E-01
   7141.00  6.9288752E-01
   7141.33  6.8212432E-01
   7141.67  6.7309842E-01
   7142.00  6.6548675E-01
   7142.33  6.5906797E-01
   7142.67  6.5335177E-01
   7143.00  6.4802230E-01
   7143.33  6.4271338E-01
   7143.67  6.3707577E-01
   7144.00  6.3085069E-01
   7144.33  6.2370718E-01
   7144.67  6.1562053E-01
   7145.00  6.0657173E-01
   7145.33  5.9652127E-01
   7145.67  5.8572513E-01
   7146.00  5.7433727E-01
   7146.33  5.6248840E-01
   7146.67  5.5039257E-01
   7147.00  5.3816565E-01
   7147.33  5.2590996E-01
   7147.67  5.1370833E-01
   7148.00  5.0161507E-01
   7148.33  4.8970438E-01
   7148.67  4.7800553E-01
   7149.00  4.6655987E-01
   7149.33  4.5545162E-01
   7149.67  4.4468774E-01
   7150.00  4.3430197E-01
   7150.33  4.2437697E-01
   7150.67  4.1488488E-01
   7151.00  4.0583877E-01
   7151.33  3.9730005E-01
   7151.67  3.8920585E-01
   7152.00  3.8154175E-01
   7152.33  3.7433080E-01
   7152.67  3.6748654E-01
   7153.00  3.6097335E-01
   7153.33  3.5478330E-01
   7153.67  3.4883878E-01
   7154.00  3.4310883E-01
   7154.33  3.3758917E-01
   7154.67  3.3224015E-01
   7155.00  3.2705737E-01
   7155.33  3.2206679E-01
   7155.67  3.1726009E-01
   7156.00  3.1265274E-01
   7156.33  3.0829060E-01
   7156.67  3.0416184E-01
   7157.00  3.0027465E-01
   7157.33  2.9666032E-01
   7157.67  2.9328012E-01
   7158.00  2.9012119E-01
   7158.33  2.8719076E-01
   7158.67  2.8444640E-01
   7159.00  2.8187770E-01
   7159.33  2.7950187E-01
   7159.67  2.7730412E-01
   7160.00  2.7529907E-01
   7160.33  2.7353940E-01
   7160.67  2.7202888E-01
   7161.00  2.7079557E-01
   7161.33  2.6990936E-01
   7161.67  2.6936019E-01
   7162.00  2.6916849E-01
   7162.33  2.6939649E-01
   7162.67  2.7000605E-01
   7163.00  2.7099743E-01
   7163.33  2.7241000E-01
   7163.67  2.7418453E-01
   7164.00  2.7630704E-01
   7164.33  2.7879592E-01
   7164.67  2.8158428E-01
   7165.00  2.8464816E-01
   7165.33  2.8798996E-01
   7165.67  2.9155057E-01
   7166.00  2.9530636E-01
   7166.33  2.9925230E-01
   7166.67  3.0334246E-01
   7167.00  3.0755654E-01
   7167.33  3.1188520E-01
   7167.67  3.1629502E-01
   7168.00  3.2076879E-01
   7168.33  3.2529272E-01
   7168.67  3.2984207E-01
   7169.00  3.3440018E-01
   7169.33  3.3894609E-01
   7169.67  3.4346038E-01
   7170.00  3.4792303E-01
   7170.33  3.5229648E-01
   7170.67  3.5655373E-01
   7171.00  3.6064854E-01
   7171.33  3.6446026E-01
   7171.67  3.6785711E-01
   7172.00  3.7062633E-01
