    FDMNES
    energy     <xanes>
   7097.00  4.9058105E-03
   7097.33  5.0209176E-03
   7097.67  5.1412305E-03
   7098.00  5.2671012E-03
   7098.33  5.3997339E-03
   7098.67  5.5388818E-03
   7099.00  5.6850242E-03
   7099.33  5.8397350E-03
   7099.67  6.0027612E-03
   7100.00  6.1747727E-03
   7100.33  6.3578802E-03
   7100.67  6.5518482E-03
   7101.00  6.7576427E-03
   7101.33  6.9781823E-03
   7101.67  7.2133018E-03
   7102.00  7.4644468E-03
   7102.33  7.7358043E-03
   7102.67  8.0273982E-03
   7103.00  8.3414897E-03
   7103.33  8.6843657E-03
   7103.67  9.0565093E-03
   7104.00  9.4616594E-03
   7104.33  9.9098112E-03
   7104.67  1.0402560E-02
   7105.00  1.0946543E-02
   7105.33  1.1558873E-02
   7105.67  1.2243975E-02
   7106.00  1.3014783E-02
   7106.33  1.3903698E-02
   7106.67  1.4923056E-02
   7107.00  1.6101580E-02
   7107.33  1.7510042E-02
   7107.67  1.9186755E-02
   7108.00  2.1209037E-02
   7108.33  2.3769244E-02
   7108.67  2.7015889E-02
   7109.00  3.1231598E-02
   7109.33  3.7165780E-02
   7109.67  4.5672467E-02
   7110.00  5.8437528E-02
   7110.33  8.0345599E-02
   7110.67  1.1655986E-01
   7111.00  1.6707367E-01
   7111.33  2.0670340E-01
   7111.67  2.1886959E-01
   7112.00  2.1745858E-01
   7112.33  2.2504513E-01
   7112.67  2.5299193E-01
   7113.00  3.0160950E-01
   7113.33  3.6067384E-01
   7113.67  4.0455849E-01
   7114.00  4.1991829E-01
   7114.33  4.0152796E-01
   7114.67  3.5746713E-01
   7115.00  3.0818662E-01
   7115.33  2.7884501E-01
   7115.67  2.6810243E-01
   7116.00  2.6377374E-01
   7116.33  2.5026991E-01
   7116.67  2.2851721E-01
   7117.00  2.0580170E-01
   7117.33  1.8740156E-01
   7117.67  1.7284313E-01
   7118.00  1.6147080E-01
   7118.33  1.5323212E-01
   7118.67  1.4699006E-01
   7119.00  1.4194649E-01
   7119.33  1.3772842E-01
   7119.67  1.3424857E-01
   7120.00  1.3162041E-01
   7120.33  1.3001361E-01
   7120.67  1.2928233E-01
   7121.00  1.2940846E-01
   7121.33  1.3038465E-01
   7121.67  1.3188344E-01
   7122.00  1.3380846E-01
   7122.33  1.3635193E-01
   7122.67  1.3957038E-01
   7123.00  1.4343769E-01
   7123.33  1.4803651E-01
   7123.67  1.5356515E-01
   7124.00  1.6049731E-01
   7124.33  1.6975501E-01
   7124.67  1.8164746E-01
   7125.00  1.9628357E-01
   7125.33  2.1300818E-01
   7125.67  2.2969992E-01
   7126.00  2.4526951E-01
   7126.33  2.6084141E-01
   7126.67  2.7934524E-01
   7127.00  3.0270336E-01
   7127.33  3.3178713E-01
   7127.67  3.6496608E-01
   7128.00  4.0144504E-01
   7128.33  4.4103606E-01
   7128.67  4.8368302E-01
   7129.00  5.3041946E-01
   7129.33  5.8191850E-01
   7129.67  6.3374354E-01
   7130.00  6.7964908E-01
   7130.33  7.1220221E-01
   7130.67  7.3232639E-01
   7131.00  7.4310119E-01
   7131.33  7.4811932E-01
   7131.67  7.5079238E-01
   7132.00  7.5216108E-01
   7132.33  7.5247957E-01
   7132.67  7.5215173E-01
   7133.00  7.5172906E-01
   7133.33  7.5223029E-01
   7133.67  7.5438913E-01
   7134.00  7.5859958E-01
   7134.33  7.6506654E-01
   7134.67  7.7286979E-01
   7135.00  7.8085809E-01
   7135.33  7.8691535E-01
   7135.67  7.8916015E-01
   7136.00  7.8608974E-01
   7136.33  7.7604780E-01
   7136.67  7.6008802E-01
   7137.00  7.3923622E-01
   7137.33  7.1480210E-01
   7137.67  6.8903690E-01
   7138.00  6.6341961E-01
   7138.33  6.3959538E-01
   7138.67  6.1844531E-01
   7139.00  6.0058897E-01
   7139.33  5.8686242E-01
   7139.67  5.7685409E-01
   7140.00  5.7038880E-01
   7140.33  5.6747610E-01
   7140.67  5.6722312E-01
   7141.00  5.6917606E-01
   7141.33  5.7305647E-01
   7141.67  5.7823047E-01
   7142.00  5.8439259E-01
   7142.33  5.9130532E-01
   7142.67  5.9856719E-01
   7143.00  6.0588826E-01
   7143.33  6.1287199E-01
   7143.67  6.1919655E-01
   7144.00  6.2458404E-01
   7144.33  6.2863629E-01
   7144.67  6.3135890E-01
   7145.00  6.3272265E-01
   7145.33  6.3263212E-01
   7145.67  6.3139910E-01
   7146.00  6.2919426E-01
   7146.33  6.2613960E-01
   7146.67  6.2253724E-01
   7147.00  6.1854446E-01
   7147.33  6.1428095E-01
   7147.67  6.0988937E-01
   7148.00  6.0543469E-01
   7148.33  6.0095678E-01
   7148.67  5.9648693E-01
   7149.00  5.9204727E-01
   7149.33  5.8767214E-01
   7149.67  5.8338739E-01
   7150.00  5.7922389E-01
   7150.33  5.7523868E-01
   7150.67  5.7145072E-01
   7151.00  5.6789030E-01
   7151.33  5.6461784E-01
   7151.67  5.6162435E-01
   7152.00  5.5892463E-01
   7152.33  5.5656643E-01
   7152.67  5.5451447E-01
   7153.00  5.5276473E-01
   7153.33  5.5133178E-01
   7153.67  5.5014302E-01
   7154.00  5.4915599E-01
   7154.33  5.4832927E-01
   7154.67  5.4757912E-01
   7155.00  5.4684821E-01
   7155.33  5.4607028E-01
   7155.67  5.4520236E-01
   7156.00  5.4421730E-01
   7156.33  5.4308672E-01
   7156.67  5.4183623E-01
   7157.00  5.4048874E-01
   7157.33  5.3907362E-01
   7157.67  5.3763642E-01
   7158.00  5.3620643E-01
   7158.33  5.3481307E-01
   7158.67  5.3346145E-01
   7159.00  5.3214350E-01
   7159.33  5.3083136E-01
   7159.67  5.2947757E-01
   7160.00  5.2803027E-01
   7160.33  5.2639898E-01
   7160.67  5.2453028E-01
   7161.00  5.2236390E-01
   7161.33  5.1979483E-01
   7161.67  5.1682463E-01
   7162.00  5.1343639E-01
   7162.33  5.0958550E-01
   7162.67  5.0535711E-01
   7163.00  5.0080152E-01
   7163.33  4.9596361E-01
   7163.67  4.9096134E-01
   7164.00  4.8587095E-01
   7164.33  4.8077567E-01
   7164.67  4.7574884E-01
   7165.00  4.7084096E-01
   7165.33  4.6611470E-01
   7165.67  4.6157530E-01
   7166.00  4.5723189E-01
   7166.33  4.5310722E-01
   7166.67  4.4916580E-01
   7167.00  4.4539235E-01
   7167.33  4.4178342E-01
   7167.67  4.3829868E-01
   7168.00  4.3492116E-01
   7168.33  4.3164621E-01
   7168.67  4.2845489E-01
   7169.00  4.2534805E-01
   7169.33  4.2234331E-01
   7169.67  4.1944187E-01
   7170.00  4.1665969E-01
   7170.33  4.1403832E-01
   7170.67  4.1158833E-01
   7171.00  4.0933789E-01
   7171.33  4.0735580E-01
   7171.67  4.0566409E-01
   7172.00  4.0431650E-01
