    FDMNES
    energy     <xanes>
   7097.00  4.9433033E-03
   7097.33  5.0601105E-03
   7097.67  5.1822534E-03
   7098.00  5.3100963E-03
   7098.33  5.4448794E-03
   7098.67  5.5863547E-03
   7099.00  5.7350193E-03
   7099.33  5.8924984E-03
   7099.67  6.0585393E-03
   7100.00  6.2338391E-03
   7100.33  6.4205835E-03
   7100.67  6.6185408E-03
   7101.00  6.8287193E-03
   7101.33  7.0541514E-03
   7101.67  7.2946835E-03
   7102.00  7.5518297E-03
   7102.33  7.8299573E-03
   7102.67  8.1291186E-03
   7103.00  8.4516918E-03
   7103.33  8.8042633E-03
   7103.67  9.1873838E-03
   7104.00  9.6050045E-03
   7104.33  1.0067651E-02
   7104.67  1.0577082E-02
   7105.00  1.1140349E-02
   7105.33  1.1775590E-02
   7105.67  1.2487639E-02
   7106.00  1.3290340E-02
   7106.33  1.4218299E-02
   7106.67  1.5285005E-02
   7107.00  1.6521475E-02
   7107.33  1.8004058E-02
   7107.67  1.9774895E-02
   7108.00  2.1918451E-02
   7108.33  2.4645037E-02
   7108.67  2.8119740E-02
   7109.00  3.2656180E-02
   7109.33  3.9088619E-02
   7109.67  4.8381228E-02
   7110.00  6.2439927E-02
   7110.33  8.6786843E-02
   7110.67  1.2706692E-01
   7111.00  1.8202791E-01
   7111.33  2.2140858E-01
   7111.67  2.3268824E-01
   7112.00  2.2989469E-01
   7112.33  2.3413903E-01
   7112.67  2.5825915E-01
   7113.00  3.0279396E-01
   7113.33  3.6158030E-01
   7113.67  4.1569540E-01
   7114.00  4.4089443E-01
   7114.33  4.1710339E-01
   7114.67  3.6440182E-01
   7115.00  3.1100391E-01
   7115.33  2.7992163E-01
   7115.67  2.6490433E-01
   7116.00  2.5352914E-01
   7116.33  2.3554164E-01
   7116.67  2.1425716E-01
   7117.00  1.9474465E-01
   7117.33  1.7971785E-01
   7117.67  1.6803051E-01
   7118.00  1.5895302E-01
   7118.33  1.5219237E-01
   7118.67  1.4691415E-01
   7119.00  1.4265802E-01
   7119.33  1.3910661E-01
   7119.67  1.3598855E-01
   7120.00  1.3338978E-01
   7120.33  1.3174636E-01
   7120.67  1.3121878E-01
   7121.00  1.3175172E-01
   7121.33  1.3282606E-01
   7121.67  1.3350562E-01
   7122.00  1.3359537E-01
   7122.33  1.3391578E-01
   7122.67  1.3522196E-01
   7123.00  1.3761782E-01
   7123.33  1.4111540E-01
   7123.67  1.4576683E-01
   7124.00  1.5197541E-01
   7124.33  1.6043197E-01
   7124.67  1.7102308E-01
   7125.00  1.8354303E-01
   7125.33  1.9777604E-01
   7125.67  2.1336857E-01
   7126.00  2.3055720E-01
   7126.33  2.5019789E-01
   7126.67  2.7271841E-01
   7127.00  2.9883766E-01
   7127.33  3.2978667E-01
   7127.67  3.6480553E-01
   7128.00  4.0296463E-01
   7128.33  4.4377893E-01
   7128.67  4.8703241E-01
   7129.00  5.3245757E-01
   7129.33  5.7746014E-01
   7129.67  6.1707967E-01
   7130.00  6.4719670E-01
   7130.33  6.6540270E-01
   7130.67  6.7662334E-01
   7131.00  6.8560838E-01
   7131.33  6.9711611E-01
   7131.67  7.1281373E-01
   7132.00  7.3232973E-01
   7132.33  7.5368573E-01
   7132.67  7.7356744E-01
   7133.00  7.8948498E-01
   7133.33  7.9912296E-01
   7133.67  8.0345593E-01
   7134.00  8.0394450E-01
   7134.33  8.0250802E-01
   7134.67  8.0082331E-01
   7135.00  7.9912073E-01
   7135.33  7.9662198E-01
   7135.67  7.9234713E-01
   7136.00  7.8545273E-01
   7136.33  7.7485050E-01
   7136.67  7.6072513E-01
   7137.00  7.4325920E-01
   7137.33  7.2270898E-01
   7137.67  7.0033532E-01
   7138.00  6.7708153E-01
   7138.33  6.5411723E-01
   7138.67  6.3244183E-01
   7139.00  6.1276458E-01
   7139.33  5.9597686E-01
   7139.67  5.8206376E-01
   7140.00  5.7111417E-01
   7140.33  5.6344351E-01
   7140.67  5.5851744E-01
   7141.00  5.5611651E-01
   7141.33  5.5618584E-01
   7141.67  5.5806471E-01
   7142.00  5.6141045E-01
   7142.33  5.6597996E-01
   7142.67  5.7130269E-01
   7143.00  5.7713838E-01
   7143.33  5.8329976E-01
   7143.67  5.8958192E-01
   7144.00  5.9587502E-01
   7144.33  6.0206957E-01
   7144.67  6.0809996E-01
   7145.00  6.1391254E-01
   7145.33  6.1942003E-01
   7145.67  6.2460571E-01
   7146.00  6.2942019E-01
   7146.33  6.3373178E-01
   7146.67  6.3749260E-01
   7147.00  6.4059335E-01
   7147.33  6.4279250E-01
   7147.67  6.4404414E-01
   7148.00  6.4423342E-01
   7148.33  6.4311413E-01
   7148.67  6.4078163E-01
   7149.00  6.3723846E-01
   7149.33  6.3240103E-01
   7149.67  6.2653242E-01
   7150.00  6.1977862E-01
   7150.33  6.1227588E-01
   7150.67  6.0436014E-01
   7151.00  5.9624586E-01
   7151.33  5.8816974E-01
   7151.67  5.8033157E-01
   7152.00  5.7287976E-01
   7152.33  5.6600975E-01
   7152.67  5.5973566E-01
   7153.00  5.5409236E-01
   7153.33  5.4917240E-01
   7153.67  5.4488442E-01
   7154.00  5.4120548E-01
   7154.33  5.3816958E-01
   7154.67  5.3566040E-01
   7155.00  5.3363566E-01
   7155.33  5.3209739E-01
   7155.67  5.3093815E-01
   7156.00  5.3011143E-01
   7156.33  5.2959603E-01
   7156.67  5.2929864E-01
   7157.00  5.2916768E-01
   7157.33  5.2915655E-01
   7157.67  5.2919273E-01
   7158.00  5.2922678E-01
   7158.33  5.2919616E-01
   7158.67  5.2905538E-01
   7159.00  5.2876119E-01
   7159.33  5.2823972E-01
   7159.67  5.2746990E-01
   7160.00  5.2641419E-01
   7160.33  5.2498995E-01
   7160.67  5.2320122E-01
   7161.00  5.2102441E-01
   7161.33  5.1839146E-01
   7161.67  5.1534974E-01
   7162.00  5.1190945E-01
   7162.33  5.0805157E-01
   7162.67  5.0386963E-01
   7163.00  4.9941671E-01
   7163.33  4.9473745E-01
   7163.67  4.8993009E-01
   7164.00  4.8505581E-01
   7164.33  4.8017888E-01
   7164.67  4.7535395E-01
   7165.00  4.7061780E-01
   7165.33  4.6601552E-01
   7165.67  4.6155180E-01
   7166.00  4.5723814E-01
   7166.33  4.5310343E-01
   7166.67  4.4913466E-01
   7167.00  4.4533721E-01
   7167.33  4.4173799E-01
   7167.67  4.3831867E-01
   7168.00  4.3508315E-01
   7168.33  4.3205874E-01
   7168.67  4.2921846E-01
   7169.00  4.2655599E-01
   7169.33  4.2408343E-01
   7169.67  4.2176887E-01
   7170.00  4.1960231E-01
   7170.33  4.1759094E-01
   7170.67  4.1571266E-01
   7171.00  4.1397091E-01
   7171.33  4.1240295E-01
   7171.67  4.1103159E-01
   7172.00  4.0991436E-01
