    FDMNES
    energy     <xanes>
   7097.00  4.7069659E-03
   7097.33  4.8180762E-03
   7097.67  4.9343160E-03
   7098.00  5.0560453E-03
   7098.33  5.1844735E-03
   7098.67  5.3193767E-03
   7099.00  5.4612519E-03
   7099.33  5.6116991E-03
   7099.67  5.7704979E-03
   7100.00  5.9383537E-03
   7100.33  6.1174439E-03
   7100.67  6.3075825E-03
   7101.00  6.5098046E-03
   7101.33  6.7271731E-03
   7101.67  6.9596042E-03
   7102.00  7.2086772E-03
   7102.33  7.4788747E-03
   7102.67  7.7703650E-03
   7103.00  8.0856720E-03
   7103.33  8.4316796E-03
   7103.67  8.8091490E-03
   7104.00  9.2223493E-03
   7104.33  9.6824997E-03
   7104.67  1.0191775E-02
   7105.00  1.0757929E-02
   7105.33  1.1400676E-02
   7105.67  1.2125752E-02
   7106.00  1.2948592E-02
   7106.33  1.3907441E-02
   7106.67  1.5017908E-02
   7107.00  1.6314778E-02
   7107.33  1.7883120E-02
   7107.67  1.9770359E-02
   7108.00  2.2070285E-02
   7108.33  2.5014659E-02
   7108.67  2.8781500E-02
   7109.00  3.3706088E-02
   7109.33  4.0667926E-02
   7109.67  5.0640372E-02
   7110.00  6.5519865E-02
   7110.33  9.0634607E-02
   7110.67  1.3066275E-01
   7111.00  1.8367424E-01
   7111.33  2.3993699E-01
   7111.67  3.1102992E-01
   7112.00  4.0352493E-01
   7112.33  4.8225852E-01
   7112.67  4.8555462E-01
   7113.00  4.0908335E-01
   7113.33  3.1118330E-01
   7113.67  2.3128152E-01
   7114.00  1.7390782E-01
   7114.33  1.3711831E-01
   7114.67  1.1412492E-01
   7115.00  1.0115730E-01
   7115.33  9.2857655E-02
   7115.67  8.6740514E-02
   7116.00  8.4683931E-02
   7116.33  8.5269934E-02
   7116.67  8.3243318E-02
   7117.00  7.7203090E-02
   7117.33  6.9888427E-02
   7117.67  6.3979890E-02
   7118.00  6.0075397E-02
   7118.33  5.8351951E-02
   7118.67  5.8421780E-02
   7119.00  6.0273732E-02
   7119.33  6.4148133E-02
   7119.67  6.9366646E-02
   7120.00  7.4625848E-02
   7120.33  7.7902025E-02
   7120.67  7.9668982E-02
   7121.00  8.1568383E-02
   7121.33  8.5223508E-02
   7121.67  9.0953261E-02
   7122.00  9.8916964E-02
   7122.33  1.0964271E-01
   7122.67  1.2315479E-01
   7123.00  1.3982829E-01
   7123.33  1.6068615E-01
   7123.67  1.8582766E-01
   7124.00  2.1542833E-01
   7124.33  2.4907948E-01
   7124.67  2.8364776E-01
   7125.00  3.1598573E-01
   7125.33  3.4395686E-01
   7125.67  3.7025574E-01
   7126.00  3.9763426E-01
   7126.33  4.2683831E-01
   7126.67  4.5509828E-01
   7127.00  4.7958068E-01
   7127.33  4.9746438E-01
   7127.67  5.0942472E-01
   7128.00  5.1714691E-01
   7128.33  5.2375471E-01
   7128.67  5.3263768E-01
   7129.00  5.4589312E-01
   7129.33  5.6564286E-01
   7129.67  5.9158030E-01
   7130.00  6.2342554E-01
   7130.33  6.6097013E-01
   7130.67  7.0259984E-01
   7131.00  7.4765375E-01
   7131.33  7.9577047E-01
   7131.67  8.4526363E-01
   7132.00  8.9375900E-01
   7132.33  9.3590306E-01
   7132.67  9.6664753E-01
   7133.00  9.8225319E-01
   7133.33  9.8039092E-01
   7133.67  9.6680035E-01
   7134.00  9.4615132E-01
   7134.33  9.2299381E-01
   7134.67  9.0063302E-01
   7135.00  8.7998109E-01
   7135.33  8.6093910E-01
   7135.67  8.4279376E-01
   7136.00  8.2551023E-01
   7136.33  8.0969187E-01
   7136.67  7.9570278E-01
   7137.00  7.8374358E-01
   7137.33  7.7382558E-01
   7137.67  7.6511277E-01
   7138.00  7.5694359E-01
   7138.33  7.4858944E-01
   7138.67  7.3958767E-01
   7139.00  7.2972653E-01
   7139.33  7.1880120E-01
   7139.67  7.0692173E-01
   7140.00  6.9410987E-01
   7140.33  6.8035224E-01
   7140.67  6.6598872E-01
   7141.00  6.5136621E-01
   7141.33  6.3704827E-01
   7141.67  6.2355145E-01
   7142.00  6.1127027E-01
   7142.33  6.0071779E-01
   7142.67  5.9189809E-01
   7143.00  5.8485126E-01
   7143.33  5.7968577E-01
   7143.67  5.7601188E-01
   7144.00  5.7364076E-01
   7144.33  5.7246413E-01
   7144.67  5.7212694E-01
   7145.00  5.7246580E-01
   7145.33  5.7336068E-01
   7145.67  5.7457038E-01
   7146.00  5.7594481E-01
   7146.33  5.7731423E-01
   7146.67  5.7851627E-01
   7147.00  5.7941688E-01
   7147.33  5.7981437E-01
   7147.67  5.7963860E-01
   7148.00  5.7880603E-01
   7148.33  5.7716708E-01
   7148.67  5.7479342E-01
   7149.00  5.7169954E-01
   7149.33  5.6784207E-01
   7149.67  5.6335782E-01
   7150.00  5.5828719E-01
   7150.33  5.5259318E-01
   7150.67  5.4636066E-01
   7151.00  5.3959625E-01
   7151.33  5.3225268E-01
   7151.67  5.2443075E-01
   7152.00  5.1617181E-01
   7152.33  5.0748403E-01
   7152.67  4.9846787E-01
   7153.00  4.8915571E-01
   7153.33  4.7952907E-01
   7153.67  4.6962260E-01
   7154.00  4.5943461E-01
   7154.33  4.4894402E-01
   7154.67  4.3822583E-01
   7155.00  4.2734177E-01
   7155.33  4.1637922E-01
   7155.67  4.0545721E-01
   7156.00  3.9467009E-01
   7156.33  3.8414143E-01
   7156.67  3.7391190E-01
   7157.00  3.6401636E-01
   7157.33  3.5450991E-01
   7157.67  3.4534102E-01
   7158.00  3.3649253E-01
   7158.33  3.2797512E-01
   7158.67  3.1972974E-01
   7159.00  3.1174803E-01
   7159.33  3.0407239E-01
   7159.67  2.9670225E-01
   7160.00  2.8968968E-01
   7160.33  2.8317550E-01
   7160.67  2.7721141E-01
   7161.00  2.7190246E-01
   7161.33  2.6747406E-01
   7161.67  2.6394471E-01
   7162.00  2.6139292E-01
   7162.33  2.6000645E-01
   7162.67  2.5967168E-01
   7163.00  2.6036248E-01
   7163.33  2.6211509E-01
   7163.67  2.6468786E-01
   7164.00  2.6795513E-01
   7164.33  2.7183206E-01
   7164.67  2.7610568E-01
   7165.00  2.8066229E-01
   7165.33  2.8540920E-01
   7165.67  2.9023522E-01
   7166.00  2.9508284E-01
   7166.33  2.9990433E-01
   7166.67  3.0467845E-01
   7167.00  3.0939778E-01
   7167.33  3.1405961E-01
   7167.67  3.1868333E-01
   7168.00  3.2328401E-01
   7168.33  3.2787971E-01
   7168.67  3.3248794E-01
   7169.00  3.3712060E-01
   7169.33  3.4179117E-01
   7169.67  3.4649708E-01
   7170.00  3.5123129E-01
   7170.33  3.5597399E-01
   7170.67  3.6068419E-01
   7171.00  3.6530348E-01
   7171.33  3.6968743E-01
   7171.67  3.7364577E-01
   7172.00  3.7689704E-01
