    FDMNES
    energy     <xanes>
   7097.00  4.3736560E-03
   7097.33  4.4655715E-03
   7097.67  4.5612463E-03
   7098.00  4.6609206E-03
   7098.33  4.7654415E-03
   7098.67  4.8746140E-03
   7099.00  4.9887643E-03
   7099.33  5.1089903E-03
   7099.67  5.2350925E-03
   7100.00  5.3675266E-03
   7100.33  5.5077564E-03
   7100.67  5.6555955E-03
   7101.00  5.8117034E-03
   7101.33  5.9780986E-03
   7101.67  6.1546484E-03
   7102.00  6.3423468E-03
   7102.33  6.5440945E-03
   7102.67  6.7599035E-03
   7103.00  6.9913478E-03
   7103.33  7.2428133E-03
   7103.67  7.5146673E-03
   7104.00  7.8095586E-03
   7104.33  8.1345541E-03
   7104.67  8.4908922E-03
   7105.00  8.8833836E-03
   7105.33  9.3243790E-03
   7105.67  9.8173622E-03
   7106.00  1.0371973E-02
   7106.33  1.1012237E-02
   7106.67  1.1748003E-02
   7107.00  1.2601327E-02
   7107.33  1.3626345E-02
   7107.67  1.4853948E-02
   7108.00  1.6345066E-02
   7108.33  1.8250851E-02
   7108.67  2.0690812E-02
   7109.00  2.3889550E-02
   7109.33  2.8438862E-02
   7109.67  3.5007318E-02
   7110.00  4.4901300E-02
   7110.33  6.1898336E-02
   7110.67  9.0356457E-02
   7111.00  1.3294971E-01
   7111.33  1.7997343E-01
   7111.67  2.1131133E-01
   7112.00  2.2169688E-01
   7112.33  2.1948227E-01
   7112.67  2.0561071E-01
   7113.00  1.7807992E-01
   7113.33  1.4784902E-01
   7113.67  1.2509512E-01
   7114.00  1.0826280E-01
   7114.33  9.2762628E-02
   7114.67  8.0261079E-02
   7115.00  7.1950033E-02
   7115.33  6.7015789E-02
   7115.67  6.3833048E-02
   7116.00  6.2080483E-02
   7116.33  6.1948372E-02
   7116.67  6.3145936E-02
   7117.00  6.5415192E-02
   7117.33  6.8412645E-02
   7117.67  7.1879676E-02
   7118.00  7.6063377E-02
   7118.33  8.1519138E-02
   7118.67  8.8393653E-02
   7119.00  9.6860386E-02
   7119.33  1.0731396E-01
   7119.67  1.1968776E-01
   7120.00  1.3409742E-01
   7120.33  1.5090296E-01
   7120.67  1.6985685E-01
   7121.00  1.9094189E-01
   7121.33  2.1444350E-01
   7121.67  2.4003706E-01
   7122.00  2.6736587E-01
   7122.33  2.9560020E-01
   7122.67  3.2342060E-01
   7123.00  3.4994148E-01
   7123.33  3.7420816E-01
   7123.67  3.9586080E-01
   7124.00  4.1467298E-01
   7124.33  4.3069771E-01
   7124.67  4.4408115E-01
   7125.00  4.5353770E-01
   7125.33  4.5822317E-01
   7125.67  4.6137575E-01
   7126.00  4.6510218E-01
   7126.33  4.6970853E-01
   7126.67  4.7412941E-01
   7127.00  4.7817477E-01
   7127.33  4.8308023E-01
   7127.67  4.8989206E-01
   7128.00  4.9854730E-01
   7128.33  5.0817184E-01
   7128.67  5.1786892E-01
   7129.00  5.2767813E-01
   7129.33  5.3798223E-01
   7129.67  5.4856100E-01
   7130.00  5.5894798E-01
   7130.33  5.6876301E-01
   7130.67  5.7831336E-01
   7131.00  5.8823221E-01
   7131.33  5.9979393E-01
   7131.67  6.1390892E-01
   7132.00  6.3104969E-01
   7132.33  6.5111273E-01
   7132.67  6.7218890E-01
   7133.00  6.9240357E-01
   7133.33  7.0963825E-01
   7133.67  7.2338408E-01
   7134.00  7.3352409E-01
   7134.33  7.3988651E-01
   7134.67  7.4317739E-01
   7135.00  7.4337116E-01
   7135.33  7.3986914E-01
   7135.67  7.3328596E-01
   7136.00  7.2426735E-01
   7136.33  7.1367138E-01
   7136.67  7.0267269E-01
   7137.00  6.9192941E-01
   7137.33  6.8199645E-01
   7137.67  6.7295559E-01
   7138.00  6.6478503E-01
   7138.33  6.5744532E-01
   7138.67  6.5067754E-01
   7139.00  6.4434814E-01
   7139.33  6.3837706E-01
   7139.67  6.3266396E-01
   7140.00  6.2720106E-01
   7140.33  6.2204379E-01
   7140.67  6.1719086E-01
   7141.00  6.1266641E-01
   7141.33  6.0852872E-01
   7141.67  6.0473645E-01
   7142.00  6.0128476E-01
   7142.33  5.9821094E-01
   7142.67  5.9547842E-01
   7143.00  5.9310528E-01
   7143.33  5.9118031E-01
   7143.67  5.8970978E-01
   7144.00  5.8875036E-01
   7144.33  5.8844063E-01
   7144.67  5.8876299E-01
   7145.00  5.8974446E-01
   7145.33  5.9146292E-01
   7145.67  5.9378635E-01
   7146.00  5.9663599E-01
   7146.33  5.9993071E-01
   7146.67  6.0345497E-01
   7147.00  6.0704459E-01
   7147.33  6.1048031E-01
   7147.67  6.1358581E-01
   7148.00  6.1621431E-01
   7148.33  6.1815042E-01
   7148.67  6.1937658E-01
   7149.00  6.1984945E-01
   7149.33  6.1945808E-01
   7149.67  6.1830414E-01
   7150.00  6.1639719E-01
   7150.33  6.1365561E-01
   7150.67  6.1018009E-01
   7151.00  6.0597371E-01
   7151.33  6.0094245E-01
   7151.67  5.9517367E-01
   7152.00  5.8866858E-01
   7152.33  5.8135086E-01
   7152.67  5.7334292E-01
   7153.00  5.6468984E-01
   7153.33  5.5539876E-01
   7153.67  5.4564015E-01
   7154.00  5.3550899E-01
   7154.33  5.2508962E-01
   7154.67  5.1453045E-01
   7155.00  5.0392993E-01
   7155.33  4.9340725E-01
   7155.67  4.8305772E-01
   7156.00  4.7296410E-01
   7156.33  4.6325678E-01
   7156.67  4.5397044E-01
   7157.00  4.4516321E-01
   7157.33  4.3695652E-01
   7157.67  4.2932149E-01
   7158.00  4.2227485E-01
   7158.33  4.1588764E-01
   7158.67  4.1006110E-01
   7159.00  4.0475787E-01
   7159.33  3.9998135E-01
   7159.67  3.9561669E-01
   7160.00  3.9162379E-01
   7160.33  3.8801646E-01
   7160.67  3.8474790E-01
   7161.00  3.8183520E-01
   7161.33  3.7936521E-01
   7161.67  3.7733512E-01
   7162.00  3.7577969E-01
   7162.33  3.7478251E-01
   7162.67  3.7428361E-01
   7163.00  3.7426651E-01
   7163.33  3.7474165E-01
   7163.67  3.7558738E-01
   7164.00  3.7673421E-01
   7164.33  3.7812243E-01
   7164.67  3.7964103E-01
   7165.00  3.8122638E-01
   7165.33  3.8282207E-01
   7165.67  3.8439015E-01
   7166.00  3.8591562E-01
   7166.33  3.8739341E-01
   7166.67  3.8884409E-01
   7167.00  3.9028805E-01
   7167.33  3.9175398E-01
   7167.67  3.9326291E-01
   7168.00  3.9482973E-01
   7168.33  3.9647180E-01
   7168.67  3.9817952E-01
   7169.00  3.9994365E-01
   7169.33  4.0175038E-01
   7169.67  4.0357034E-01
   7170.00  4.0537918E-01
   7170.33  4.0714127E-01
   7170.67  4.0882958E-01
   7171.00  4.1041399E-01
   7171.33  4.1183576E-01
   7171.67  4.1305958E-01
   7172.00  4.1402799E-01
