    FDMNES
    energy     <xanes>
   7097.00  5.1821774E-03
   7097.33  5.3041187E-03
   7097.67  5.4315907E-03
   7098.00  5.5649677E-03
   7098.33  5.7055299E-03
   7098.67  5.8530156E-03
   7099.00  6.0079348E-03
   7099.33  6.1719611E-03
   7099.67  6.3448270E-03
   7100.00  6.5272458E-03
   7100.33  6.7214636E-03
   7100.67  6.9272321E-03
   7101.00  7.1455813E-03
   7101.33  7.3796198E-03
   7101.67  7.6291766E-03
   7102.00  7.8957950E-03
   7102.33  8.1839413E-03
   7102.67  8.4936503E-03
   7103.00  8.8273414E-03
   7103.33  9.1917336E-03
   7103.67  9.5873616E-03
   7104.00  1.0018237E-02
   7104.33  1.0495069E-02
   7104.67  1.1019604E-02
   7105.00  1.1598984E-02
   7105.33  1.2251604E-02
   7105.67  1.2982288E-02
   7106.00  1.3805001E-02
   7106.33  1.4754682E-02
   7106.67  1.5844755E-02
   7107.00  1.7106292E-02
   7107.33  1.8615768E-02
   7107.67  2.0414693E-02
   7108.00  2.2586581E-02
   7108.33  2.5338854E-02
   7108.67  2.8830851E-02
   7109.00  3.3365096E-02
   7109.33  3.9740787E-02
   7109.67  4.8858191E-02
   7110.00  6.2485981E-02
   7110.33  8.5685358E-02
   7110.67  1.2343089E-01
   7111.00  1.7502357E-01
   7111.33  2.2283876E-01
   7111.67  2.6049110E-01
   7112.00  2.8712774E-01
   7112.33  3.0518950E-01
   7112.67  3.2319667E-01
   7113.00  3.3083901E-01
   7113.33  3.2166909E-01
   7113.67  3.0816665E-01
   7114.00  2.9416725E-01
   7114.33  2.8107692E-01
   7114.67  2.7006824E-01
   7115.00  2.6369271E-01
   7115.33  2.6737060E-01
   7115.67  2.7982456E-01
   7116.00  2.9496128E-01
   7116.33  3.0538117E-01
   7116.67  3.0978161E-01
   7117.00  3.0520687E-01
   7117.33  2.8745434E-01
   7117.67  2.6239590E-01
   7118.00  2.3598839E-01
   7118.33  2.1260787E-01
   7118.67  1.9291751E-01
   7119.00  1.7677409E-01
   7119.33  1.6418966E-01
   7119.67  1.5425510E-01
   7120.00  1.4650628E-01
   7120.33  1.4083925E-01
   7120.67  1.3694219E-01
   7121.00  1.3487822E-01
   7121.33  1.3509576E-01
   7121.67  1.3766650E-01
   7122.00  1.4289094E-01
   7122.33  1.5131836E-01
   7122.67  1.6246314E-01
   7123.00  1.7593070E-01
   7123.33  1.9144334E-01
   7123.67  2.0866868E-01
   7124.00  2.2792529E-01
   7124.33  2.5004801E-01
   7124.67  2.7491144E-01
   7125.00  3.0211080E-01
   7125.33  3.3053295E-01
   7125.67  3.5837062E-01
   7126.00  3.8448331E-01
   7126.33  4.0797209E-01
   7126.67  4.2897145E-01
   7127.00  4.4746273E-01
   7127.33  4.6335107E-01
   7127.67  4.7748891E-01
   7128.00  4.9060525E-01
   7128.33  5.0355117E-01
   7128.67  5.1682722E-01
   7129.00  5.3045649E-01
   7129.33  5.4450254E-01
   7129.67  5.5942954E-01
   7130.00  5.7603662E-01
   7130.33  5.9546283E-01
   7130.67  6.1770591E-01
   7131.00  6.4262749E-01
   7131.33  6.7016074E-01
   7131.67  6.9966695E-01
   7132.00  7.3081343E-01
   7132.33  7.6295566E-01
   7132.67  7.9450803E-01
   7133.00  8.2374901E-01
   7133.33  8.4846810E-01
   7133.67  8.6866434E-01
   7134.00  8.8485716E-01
   7134.33  8.9734093E-01
   7134.67  9.0614880E-01
   7135.00  9.0958301E-01
   7135.33  9.0336391E-01
   7135.67  8.8559050E-01
   7136.00  8.5552138E-01
   7136.33  8.1413427E-01
   7136.67  7.6731336E-01
   7137.00  7.1936733E-01
   7137.33  6.7458765E-01
   7137.67  6.3495200E-01
   7138.00  6.0135537E-01
   7138.33  5.7475178E-01
   7138.67  5.5397473E-01
   7139.00  5.3844088E-01
   7139.33  5.2789131E-01
   7139.67  5.2092915E-01
   7140.00  5.1687643E-01
   7140.33  5.1533242E-01
   7140.67  5.1547044E-01
   7141.00  5.1690664E-01
   7141.33  5.1936770E-01
   7141.67  5.2237448E-01
   7142.00  5.2560534E-01
   7142.33  5.2864312E-01
   7142.67  5.3110663E-01
   7143.00  5.3267578E-01
   7143.33  5.3291044E-01
   7143.67  5.3180371E-01
   7144.00  5.2935350E-01
   7144.33  5.2555373E-01
   7144.67  5.2081881E-01
   7145.00  5.1543062E-01
   7145.33  5.0969331E-01
   7145.67  5.0396564E-01
   7146.00  4.9848595E-01
   7146.33  4.9354102E-01
   7146.67  4.8923913E-01
   7147.00  4.8567333E-01
   7147.33  4.8300771E-01
   7147.67  4.8117641E-01
   7148.00  4.8019314E-01
   7148.33  4.8015774E-01
   7148.67  4.8093378E-01
   7149.00  4.8247979E-01
   7149.33  4.8481982E-01
   7149.67  4.8778817E-01
   7150.00  4.9131127E-01
   7150.33  4.9535597E-01
   7150.67  4.9977028E-01
   7151.00  5.0447392E-01
   7151.33  5.0940256E-01
   7151.67  5.1444970E-01
   7152.00  5.1955369E-01
   7152.33  5.2465328E-01
   7152.67  5.2969982E-01
   7153.00  5.3465924E-01
   7153.33  5.3948465E-01
   7153.67  5.4416499E-01
   7154.00  5.4868181E-01
   7154.33  5.5299422E-01
   7154.67  5.5710670E-01
   7155.00  5.6100175E-01
   7155.33  5.6462911E-01
   7155.67  5.6799869E-01
   7156.00  5.7109369E-01
   7156.33  5.7385859E-01
   7156.67  5.7631285E-01
   7157.00  5.7844371E-01
   7157.33  5.8019811E-01
   7157.67  5.8161129E-01
   7158.00  5.8268181E-01
   7158.33  5.8337127E-01
   7158.67  5.8373208E-01
   7159.00  5.8377725E-01
   7159.33  5.8348806E-01
   7159.67  5.8292047E-01
   7160.00  5.8208875E-01
   7160.33  5.8097570E-01
   7160.67  5.7962347E-01
   7161.00  5.7803353E-01
   7161.33  5.7616214E-01
   7161.67  5.7401626E-01
   7162.00  5.7157333E-01
   7162.33  5.6877418E-01
   7162.67  5.6565011E-01
   7163.00  5.6220457E-01
   7163.33  5.5842066E-01
   7163.67  5.5437800E-01
   7164.00  5.5012679E-01
   7164.33  5.4571427E-01
   7164.67  5.4122504E-01
   7165.00  5.3671342E-01
   7165.33  5.3223651E-01
   7165.67  5.2783013E-01
   7166.00  5.2351772E-01
   7166.33  5.1932749E-01
   7166.67  5.1524771E-01
   7167.00  5.1127300E-01
   7167.33  5.0740507E-01
   7167.67  5.0362288E-01
   7168.00  4.9992021E-01
   7168.33  4.9629650E-01
   7168.67  4.9273629E-01
   7169.00  4.8923794E-01
   7169.33  4.8581220E-01
   7169.67  4.8245855E-01
   7170.00  4.7918769E-01
   7170.33  4.7603060E-01
   7170.67  4.7300102E-01
   7171.00  4.7013123E-01
   7171.33  4.6750575E-01
   7171.67  4.6519434E-01
   7172.00  4.6331842E-01
