    FDMNES
    energy     <xanes>
   7097.00  5.0481000E-03
   7097.33  5.1645953E-03
   7097.67  5.2860870E-03
   7098.00  5.4128922E-03
   7098.33  5.5461316E-03
   7098.67  5.6855399E-03
   7099.00  5.8315419E-03
   7099.33  5.9855785E-03
   7099.67  6.1473696E-03
   7100.00  6.3174991E-03
   7100.33  6.4978650E-03
   7100.67  6.6881885E-03
   7101.00  6.8892966E-03
   7101.33  7.1037622E-03
   7101.67  7.3313458E-03
   7102.00  7.5732606E-03
   7102.33  7.8331190E-03
   7102.67  8.1108056E-03
   7103.00  8.4081784E-03
   7103.33  8.7305325E-03
   7103.67  9.0780700E-03
   7104.00  9.4537910E-03
   7104.33  9.8658877E-03
   7104.67  1.0315339E-02
   7105.00  1.0807323E-02
   7105.33  1.1355423E-02
   7105.67  1.1962567E-02
   7106.00  1.2638496E-02
   7106.33  1.3407905E-02
   7106.67  1.4278990E-02
   7107.00  1.5272345E-02
   7107.33  1.6438981E-02
   7107.67  1.7803368E-02
   7108.00  1.9417034E-02
   7108.33  2.1407380E-02
   7108.67  2.3861695E-02
   7109.00  2.6948094E-02
   7109.33  3.1101331E-02
   7109.67  3.6761888E-02
   7110.00  4.4785790E-02
   7110.33  5.7572155E-02
   7110.67  7.7535653E-02
   7111.00  1.0554312E-01
   7111.33  1.3843267E-01
   7111.67  1.7706207E-01
   7112.00  2.2427249E-01
   7112.33  2.8271857E-01
   7112.67  3.4054210E-01
   7113.00  3.8294667E-01
   7113.33  3.7837798E-01
   7113.67  3.1460362E-01
   7114.00  2.3599242E-01
   7114.33  1.8194060E-01
   7114.67  1.4845201E-01
   7115.00  1.2883192E-01
   7115.33  1.1895353E-01
   7115.67  1.1501363E-01
   7116.00  1.1588901E-01
   7116.33  1.2169627E-01
   7116.67  1.3210536E-01
   7117.00  1.4764210E-01
   7117.33  1.6963240E-01
   7117.67  1.9716465E-01
   7118.00  2.2897531E-01
   7118.33  2.6281474E-01
   7118.67  2.9371719E-01
   7119.00  3.1544308E-01
   7119.33  3.2103266E-01
   7119.67  3.1632599E-01
   7120.00  3.1003223E-01
   7120.33  3.0934170E-01
   7120.67  3.1560756E-01
   7121.00  3.2934601E-01
   7121.33  3.5201541E-01
   7121.67  3.8259907E-01
   7122.00  4.1968296E-01
   7122.33  4.5923338E-01
   7122.67  4.9592980E-01
   7123.00  5.2815903E-01
   7123.33  5.5709585E-01
   7123.67  5.8515232E-01
   7124.00  6.1298239E-01
   7124.33  6.4007833E-01
   7124.67  6.6512064E-01
   7125.00  6.8604825E-01
   7125.33  6.9883551E-01
   7125.67  7.0190593E-01
   7126.00  6.9499070E-01
   7126.33  6.7930776E-01
   7126.67  6.5924085E-01
   7127.00  6.3739209E-01
   7127.33  6.1609815E-01
   7127.67  5.9676741E-01
   7128.00  5.8001020E-01
   7128.33  5.6604272E-01
   7128.67  5.5383218E-01
   7129.00  5.4273656E-01
   7129.33  5.3249774E-01
   7129.67  5.2311551E-01
   7130.00  5.1487459E-01
   7130.33  5.0833150E-01
   7130.67  5.0357550E-01
   7131.00  5.0072346E-01
   7131.33  4.9998771E-01
   7131.67  5.0094676E-01
   7132.00  5.0333087E-01
   7132.33  5.0687136E-01
   7132.67  5.1102007E-01
   7133.00  5.1545449E-01
   7133.33  5.1989512E-01
   7133.67  5.2419415E-01
   7134.00  5.2833227E-01
   7134.33  5.3236206E-01
   7134.67  5.3636315E-01
   7135.00  5.4033299E-01
   7135.33  5.4420633E-01
   7135.67  5.4787704E-01
   7136.00  5.5120748E-01
   7136.33  5.5398943E-01
   7136.67  5.5619559E-01
   7137.00  5.5780720E-01
   7137.33  5.5878691E-01
   7137.67  5.5927081E-01
   7138.00  5.5930439E-01
   7138.33  5.5885509E-01
   7138.67  5.5800126E-01
   7139.00  5.5678301E-01
   7139.33  5.5522939E-01
   7139.67  5.5345830E-01
   7140.00  5.5154386E-01
   7140.33  5.4956128E-01
   7140.67  5.4758348E-01
   7141.00  5.4564782E-01
   7141.33  5.4379714E-01
   7141.67  5.4204197E-01
   7142.00  5.4038625E-01
   7142.33  5.3883477E-01
   7142.67  5.3736216E-01
   7143.00  5.3595439E-01
   7143.33  5.3460144E-01
   7143.67  5.3328381E-01
   7144.00  5.3199342E-01
   7144.33  5.3072802E-01
   7144.67  5.2948483E-01
   7145.00  5.2826754E-01
   7145.33  5.2708836E-01
   7145.67  5.2595450E-01
   7146.00  5.2487769E-01
   7146.33  5.2388148E-01
   7146.67  5.2297070E-01
   7147.00  5.2215529E-01
   7147.33  5.2145678E-01
   7147.67  5.2086650E-01
   7148.00  5.2038364E-01
   7148.33  5.2001387E-01
   7148.67  5.1973149E-01
   7149.00  5.1952018E-01
   7149.33  5.1936039E-01
   7149.67  5.1921476E-01
   7150.00  5.1905090E-01
   7150.33  5.1881432E-01
   7150.67  5.1845944E-01
   7151.00  5.1793866E-01
   7151.33  5.1716969E-01
   7151.67  5.1612883E-01
   7152.00  5.1477743E-01
   7152.33  5.1303628E-01
   7152.67  5.1092471E-01
   7153.00  5.0843263E-01
   7153.33  5.0551240E-01
   7153.67  5.0222279E-01
   7154.00  4.9858052E-01
   7154.33  4.9457040E-01
   7154.67  4.9026389E-01
   7155.00  4.8568962E-01
   7155.33  4.8085415E-01
   7155.67  4.7582381E-01
   7156.00  4.7063174E-01
   7156.33  4.6530344E-01
   7156.67  4.5989755E-01
   7157.00  4.5445402E-01
   7157.33  4.4902445E-01
   7157.67  4.4366104E-01
   7158.00  4.3841108E-01
   7158.33  4.3334941E-01
   7158.67  4.2850670E-01
   7159.00  4.2392386E-01
   7159.33  4.1967831E-01
   7159.67  4.1576235E-01
   7160.00  4.1219367E-01
   7160.33  4.0902937E-01
   7160.67  4.0622965E-01
   7161.00  4.0379108E-01
   7161.33  4.0174371E-01
   7161.67  4.0002536E-01
   7162.00  3.9861613E-01
   7162.33  3.9752570E-01
   7162.67  3.9669203E-01
   7163.00  3.9609279E-01
   7163.33  3.9572976E-01
   7163.67  3.9555451E-01
   7164.00  3.9554994E-01
   7164.33  3.9571714E-01
   7164.67  3.9602050E-01
   7165.00  3.9644720E-01
   7165.33  3.9699794E-01
   7165.67  3.9764763E-01
   7166.00  3.9838764E-01
   7166.33  3.9921885E-01
   7166.67  4.0012255E-01
   7167.00  4.0109175E-01
   7167.33  4.0212608E-01
   7167.67  4.0321120E-01
   7168.00  4.0434128E-01
   7168.33  4.0551424E-01
   7168.67  4.0671828E-01
   7169.00  4.0794715E-01
   7169.33  4.0919556E-01
   7169.67  4.1045317E-01
   7170.00  4.1171225E-01
   7170.33  4.1296143E-01
   7170.67  4.1418864E-01
   7171.00  4.1537791E-01
   7171.33  4.1649122E-01
   7171.67  4.1748510E-01
   7172.00  4.1829306E-01
