    FDMNES
    energy     <xanes>
   7097.00  5.1341077E-03
   7097.33  5.2600575E-03
   7097.67  5.3919251E-03
   7098.00  5.5301259E-03
   7098.33  5.6760550E-03
   7098.67  5.8294538E-03
   7099.00  5.9908947E-03
   7099.33  6.1622222E-03
   7099.67  6.3431807E-03
   7100.00  6.5345820E-03
   7100.33  6.7389340E-03
   7100.67  6.9560197E-03
   7101.00  7.1870294E-03
   7101.33  7.4354890E-03
   7101.67  7.7012987E-03
   7102.00  7.9862749E-03
   7102.33  8.2955778E-03
   7102.67  8.6294004E-03
   7103.00  8.9906506E-03
   7103.33  9.3872631E-03
   7103.67  9.8201282E-03
   7104.00  1.0294186E-02
   7104.33  1.0822415E-02
   7104.67  1.1407393E-02
   7105.00  1.2058166E-02
   7105.33  1.2797724E-02
   7105.67  1.3632978E-02
   7106.00  1.4582205E-02
   7106.33  1.5690693E-02
   7106.67  1.6977710E-02
   7107.00  1.8485523E-02
   7107.33  2.0317686E-02
   7107.67  2.2535019E-02
   7108.00  2.5256522E-02
   7108.33  2.8778417E-02
   7108.67  3.3342954E-02
   7109.00  3.9406556E-02
   7109.33  4.8188035E-02
   7109.67  6.1129347E-02
   7110.00  8.1075063E-02
   7110.33  1.1616990E-01
   7110.67  1.7362990E-01
   7111.00  2.4793951E-01
   7111.33  3.0389791E-01
   7111.67  3.3359254E-01
   7112.00  3.4448012E-01
   7112.33  3.5469664E-01
   7112.67  3.7823650E-01
   7113.00  3.9911347E-01
   7113.33  3.8866215E-01
   7113.67  3.4936830E-01
   7114.00  2.9210240E-01
   7114.33  2.3697392E-01
   7114.67  1.9491692E-01
   7115.00  1.6633354E-01
   7115.33  1.4916421E-01
   7115.67  1.3781632E-01
   7116.00  1.2860074E-01
   7116.33  1.1981244E-01
   7116.67  1.1247042E-01
   7117.00  1.0764631E-01
   7117.33  1.0609772E-01
   7117.67  1.0710883E-01
   7118.00  1.0971652E-01
   7118.33  1.1221996E-01
   7118.67  1.1399607E-01
   7119.00  1.1589418E-01
   7119.33  1.1885304E-01
   7119.67  1.2270413E-01
   7120.00  1.2729400E-01
   7120.33  1.3250985E-01
   7120.67  1.3841751E-01
   7121.00  1.4593363E-01
   7121.33  1.5681320E-01
   7121.67  1.7182981E-01
   7122.00  1.9186842E-01
   7122.33  2.1850930E-01
   7122.67  2.5104111E-01
   7123.00  2.8805816E-01
   7123.33  3.2702032E-01
   7123.67  3.6518389E-01
   7124.00  4.0040581E-01
   7124.33  4.3002784E-01
   7124.67  4.5510481E-01
   7125.00  4.7801314E-01
   7125.33  5.0168312E-01
   7125.67  5.2723917E-01
   7126.00  5.5430652E-01
   7126.33  5.8117261E-01
   7126.67  6.0500956E-01
   7127.00  6.2388342E-01
   7127.33  6.3829457E-01
   7127.67  6.5233398E-01
   7128.00  6.6883390E-01
   7128.33  6.8959627E-01
   7128.67  7.1328414E-01
   7129.00  7.3843942E-01
   7129.33  7.6380707E-01
   7129.67  7.8810615E-01
   7130.00  8.0886754E-01
   7130.33  8.1948446E-01
   7130.67  8.1524852E-01
   7131.00  7.9566988E-01
   7131.33  7.6767177E-01
   7131.67  7.4254226E-01
   7132.00  7.2497045E-01
   7132.33  7.1716318E-01
   7132.67  7.1778426E-01
   7133.00  7.2624165E-01
   7133.33  7.4153227E-01
   7133.67  7.5940128E-01
   7134.00  7.7571093E-01
   7134.33  7.8543815E-01
   7134.67  7.8775417E-01
   7135.00  7.8329849E-01
   7135.33  7.7238509E-01
   7135.67  7.5652697E-01
   7136.00  7.3685775E-01
   7136.33  7.1522398E-01
   7136.67  6.9397302E-01
   7137.00  6.7440761E-01
   7137.33  6.5759502E-01
   7137.67  6.4338170E-01
   7138.00  6.3158486E-01
   7138.33  6.2198540E-01
   7138.67  6.1368877E-01
   7139.00  6.0607718E-01
   7139.33  5.9849522E-01
   7139.67  5.9049131E-01
   7140.00  5.8195155E-01
   7140.33  5.7301640E-01
   7140.67  5.6410077E-01
   7141.00  5.5550605E-01
   7141.33  5.4750221E-01
   7141.67  5.4006826E-01
   7142.00  5.3316761E-01
   7142.33  5.2678283E-01
   7142.67  5.2076156E-01
   7143.00  5.1499741E-01
   7143.33  5.0934567E-01
   7143.67  5.0362760E-01
   7144.00  4.9773245E-01
   7144.33  4.9158372E-01
   7144.67  4.8526280E-01
   7145.00  4.7887868E-01
   7145.33  4.7259665E-01
   7145.67  4.6653920E-01
   7146.00  4.6077793E-01
   7146.33  4.5537678E-01
   7146.67  4.5027142E-01
   7147.00  4.4541601E-01
   7147.33  4.4075976E-01
   7147.67  4.3620063E-01
   7148.00  4.3167815E-01
   7148.33  4.2714867E-01
   7148.67  4.2261600E-01
   7149.00  4.1811825E-01
   7149.33  4.1374666E-01
   7149.67  4.0959057E-01
   7150.00  4.0574729E-01
   7150.33  4.0237586E-01
   7150.67  3.9951015E-01
   7151.00  3.9720249E-01
   7151.33  3.9556118E-01
   7151.67  3.9451991E-01
   7152.00  3.9406711E-01
   7152.33  3.9424030E-01
   7152.67  3.9491854E-01
   7153.00  3.9604118E-01
   7153.33  3.9755871E-01
   7153.67  3.9930896E-01
   7154.00  4.0117366E-01
   7154.33  4.0299510E-01
   7154.67  4.0462264E-01
   7155.00  4.0593582E-01
   7155.33  4.0676647E-01
   7155.67  4.0708262E-01
   7156.00  4.0683072E-01
   7156.33  4.0589043E-01
   7156.67  4.0431287E-01
   7157.00  4.0209289E-01
   7157.33  3.9917064E-01
   7157.67  3.9567368E-01
   7158.00  3.9167109E-01
   7158.33  3.8721985E-01
   7158.67  3.8249591E-01
   7159.00  3.7761571E-01
   7159.33  3.7271300E-01
   7159.67  3.6791971E-01
   7160.00  3.6333635E-01
   7160.33  3.5909979E-01
   7160.67  3.5524770E-01
   7161.00  3.5182754E-01
   7161.33  3.4893322E-01
   7161.67  3.4652355E-01
   7162.00  3.4460179E-01
   7162.33  3.4322365E-01
   7162.67  3.4231456E-01
   7163.00  3.4184965E-01
   7163.33  3.4184573E-01
   7163.67  3.4222373E-01
   7164.00  3.4296031E-01
   7164.33  3.4406727E-01
   7164.67  3.4547319E-01
   7165.00  3.4715256E-01
   7165.33  3.4910744E-01
   7165.67  3.5128104E-01
   7166.00  3.5365324E-01
   7166.33  3.5622541E-01
   7166.67  3.5895638E-01
   7167.00  3.6183069E-01
   7167.33  3.6484723E-01
   7167.67  3.6797423E-01
   7168.00  3.7119872E-01
   7168.33  3.7451752E-01
   7168.67  3.7790835E-01
   7169.00  3.8136288E-01
   7169.33  3.8488046E-01
   7169.67  3.8844712E-01
   7170.00  3.9205566E-01
   7170.33  3.9569657E-01
   7170.67  3.9934129E-01
   7171.00  4.0294981E-01
   7171.33  4.0641640E-01
   7171.67  4.0957921E-01
   7172.00  4.1219711E-01
