    FDMNES
    energy     <xanes>
   7097.00  5.1326162E-03
   7097.33  5.2588539E-03
   7097.67  5.3910244E-03
   7098.00  5.5295434E-03
   7098.33  5.6758081E-03
   7098.67  5.8295579E-03
   7099.00  5.9913648E-03
   7099.33  6.1630745E-03
   7099.67  6.3444282E-03
   7100.00  6.5362360E-03
   7100.33  6.7410041E-03
   7100.67  6.9585103E-03
   7101.00  7.1899402E-03
   7101.33  7.4388107E-03
   7101.67  7.7050126E-03
   7102.00  7.9903501E-03
   7102.33  8.2999582E-03
   7102.67  8.6340104E-03
   7103.00  8.9953850E-03
   7103.33  9.3919519E-03
   7103.67  9.8245568E-03
   7104.00  1.0298067E-02
   7104.33  1.0825295E-02
   7104.67  1.1408709E-02
   7105.00  1.2057163E-02
   7105.33  1.2793207E-02
   7105.67  1.3623438E-02
   7106.00  1.4565593E-02
   7106.33  1.5663671E-02
   7106.67  1.6935920E-02
   7107.00  1.8422832E-02
   7107.33  2.0223598E-02
   7107.67  2.2394995E-02
   7108.00  2.5048823E-02
   7108.33  2.8462594E-02
   7108.67  3.2857055E-02
   7109.00  3.8648119E-02
   7109.33  4.6937598E-02
   7109.67  5.8991712E-02
   7110.00  7.7297875E-02
   7110.33  1.0900889E-01
   7110.67  1.6133867E-01
   7111.00  2.3363002E-01
   7111.33  2.9751292E-01
   7111.67  3.3728492E-01
   7112.00  3.6245008E-01
   7112.33  3.8358262E-01
   7112.67  4.0241215E-01
   7113.00  4.1219186E-01
   7113.33  3.9677611E-01
   7113.67  3.5876522E-01
   7114.00  3.0443336E-01
   7114.33  2.4859644E-01
   7114.67  2.0359002E-01
   7115.00  1.7165765E-01
   7115.33  1.5191829E-01
   7115.67  1.3923802E-01
   7116.00  1.2991159E-01
   7116.33  1.2124805E-01
   7116.67  1.1356634E-01
   7117.00  1.0805888E-01
   7117.33  1.0576100E-01
   7117.67  1.0619191E-01
   7118.00  1.0859384E-01
   7118.33  1.1136141E-01
   7118.67  1.1338684E-01
   7119.00  1.1523861E-01
   7119.33  1.1797644E-01
   7119.67  1.2160904E-01
   7120.00  1.2598217E-01
   7120.33  1.3104530E-01
   7120.67  1.3674120E-01
   7121.00  1.4364064E-01
   7121.33  1.5328407E-01
   7121.67  1.6664559E-01
   7122.00  1.8482917E-01
   7122.33  2.0988635E-01
   7122.67  2.4160583E-01
   7123.00  2.7865082E-01
   7123.33  3.1782760E-01
   7123.67  3.5587269E-01
   7124.00  3.9082101E-01
   7124.33  4.1997286E-01
   7124.67  4.4372342E-01
   7125.00  4.6400631E-01
   7125.33  4.8384579E-01
   7125.67  5.0540844E-01
   7126.00  5.2935454E-01
   7126.33  5.5486080E-01
   7126.67  5.7874357E-01
   7127.00  5.9909877E-01
   7127.33  6.1759833E-01
   7127.67  6.3851902E-01
   7128.00  6.6395738E-01
   7128.33  6.9429659E-01
   7128.67  7.2637144E-01
   7129.00  7.5710607E-01
   7129.33  7.8386828E-01
   7129.67  8.0683988E-01
   7130.00  8.2530151E-01
   7130.33  8.3439977E-01
   7130.67  8.3001778E-01
   7131.00  8.1136585E-01
   7131.33  7.8373617E-01
   7131.67  7.5683882E-01
   7132.00  7.3517904E-01
   7132.33  7.2174388E-01
   7132.67  7.1660710E-01
   7133.00  7.2005839E-01
   7133.33  7.3214967E-01
   7133.67  7.4914626E-01
   7134.00  7.6713364E-01
   7134.33  7.8059125E-01
   7134.67  7.8705656E-01
   7135.00  7.8630147E-01
   7135.33  7.7814417E-01
   7135.67  7.6410327E-01
   7136.00  7.4542902E-01
   7136.33  7.2420717E-01
   7136.67  7.0308833E-01
   7137.00  6.8344104E-01
   7137.33  6.6629075E-01
   7137.67  6.5149591E-01
   7138.00  6.3889345E-01
   7138.33  6.2832066E-01
   7138.67  6.1903064E-01
   7139.00  6.1053448E-01
   7139.33  6.0234230E-01
   7139.67  5.9404311E-01
   7140.00  5.8549347E-01
   7140.33  5.7677380E-01
   7140.67  5.6822309E-01
   7141.00  5.6014612E-01
   7141.33  5.5283896E-01
   7141.67  5.4620669E-01
   7142.00  5.4010750E-01
   7142.33  5.3435492E-01
   7142.67  5.2869734E-01
   7143.00  5.2298899E-01
   7143.33  5.1708473E-01
   7143.67  5.1093232E-01
   7144.00  5.0451197E-01
   7144.33  4.9782905E-01
   7144.67  4.9100694E-01
   7145.00  4.8415974E-01
   7145.33  4.7744315E-01
   7145.67  4.7096048E-01
   7146.00  4.6477641E-01
   7146.33  4.5896069E-01
   7146.67  4.5346104E-01
   7147.00  4.4824435E-01
   7147.33  4.4328206E-01
   7147.67  4.3847926E-01
   7148.00  4.3377855E-01
   7148.33  4.2912904E-01
   7148.67  4.2449512E-01
   7149.00  4.1987973E-01
   7149.33  4.1532233E-01
   7149.67  4.1088092E-01
   7150.00  4.0663200E-01
   7150.33  4.0271370E-01
   7150.67  3.9918965E-01
   7151.00  3.9613586E-01
   7151.33  3.9368942E-01
   7151.67  3.9182869E-01
   7152.00  3.9057383E-01
   7152.33  3.9000286E-01
   7152.67  3.9001916E-01
   7153.00  3.9058596E-01
   7153.33  3.9169562E-01
   7153.67  3.9318927E-01
   7154.00  3.9495277E-01
   7154.33  3.9683547E-01
   7154.67  3.9864448E-01
   7155.00  4.0022891E-01
   7155.33  4.0138865E-01
   7155.67  4.0205526E-01
   7156.00  4.0216105E-01
   7156.33  4.0158151E-01
   7156.67  4.0036885E-01
   7157.00  3.9851823E-01
   7157.33  3.9596483E-01
   7157.67  3.9282503E-01
   7158.00  3.8915511E-01
   7158.33  3.8499233E-01
   7158.67  3.8050482E-01
   7159.00  3.7579973E-01
   7159.33  3.7099359E-01
   7159.67  3.6622064E-01
   7160.00  3.6157813E-01
   7160.33  3.5719298E-01
   7160.67  3.5311607E-01
   7161.00  3.4940103E-01
   7161.33  3.4614591E-01
   7161.67  3.4333323E-01
   7162.00  3.4098301E-01
   7162.33  3.3916917E-01
   7162.67  3.3783792E-01
   7163.00  3.3698406E-01
   7163.33  3.3664317E-01
   7163.67  3.3673292E-01
   7164.00  3.3723045E-01
   7164.33  3.3814945E-01
   7164.67  3.3940420E-01
   7165.00  3.4095991E-01
   7165.33  3.4280956E-01
   7165.67  3.4488396E-01
   7166.00  3.4715709E-01
   7166.33  3.4962678E-01
   7166.67  3.5225247E-01
   7167.00  3.5502110E-01
   7167.33  3.5793667E-01
   7167.67  3.6097256E-01
   7168.00  3.6412081E-01
   7168.33  3.6738601E-01
   7168.67  3.7074725E-01
   7169.00  3.7419810E-01
   7169.33  3.7774172E-01
   7169.67  3.8135962E-01
   7170.00  3.8504237E-01
   7170.33  3.8877908E-01
   7170.67  3.9253402E-01
   7171.00  3.9626216E-01
   7171.33  3.9985012E-01
   7171.67  4.0312456E-01
   7172.00  4.0583298E-01
