    FDMNES
    energy     <xanes>
   7097.00  4.4142984E-03
   7097.33  4.5054047E-03
   7097.67  4.6000525E-03
   7098.00  4.6984539E-03
   7098.33  4.8013827E-03
   7098.67  4.9086354E-03
   7099.00  5.0204944E-03
   7099.33  5.1379455E-03
   7099.67  5.2607739E-03
   7100.00  5.3893670E-03
   7100.33  5.5250126E-03
   7100.67  5.6674966E-03
   7101.00  5.8173673E-03
   7101.33  5.9763606E-03
   7101.67  6.1442898E-03
   7102.00  6.3219619E-03
   7102.33  6.5118081E-03
   7102.67  6.7137309E-03
   7103.00  6.9289753E-03
   7103.33  7.1611125E-03
   7103.67  7.4102774E-03
   7104.00  7.6785071E-03
   7104.33  7.9713739E-03
   7104.67  8.2895952E-03
   7105.00  8.6367615E-03
   7105.33  9.0222781E-03
   7105.67  9.4483703E-03
   7106.00  9.9220166E-03
   7106.33  1.0460861E-02
   7106.67  1.1071400E-02
   7107.00  1.1769148E-02
   7107.33  1.2592523E-02
   7107.67  1.3562175E-02
   7108.00  1.4720098E-02
   7108.33  1.6171084E-02
   7108.67  1.7996496E-02
   7109.00  2.0351631E-02
   7109.33  2.3650026E-02
   7109.67  2.8368758E-02
   7110.00  3.5451247E-02
   7110.33  4.7600670E-02
   7110.67  6.7251962E-02
   7111.00  9.2576167E-02
   7111.33  1.0961128E-01
   7111.67  1.1698340E-01
   7112.00  1.2535093E-01
   7112.33  1.4422795E-01
   7112.67  1.6833116E-01
   7113.00  1.9276781E-01
   7113.33  2.1420962E-01
   7113.67  2.1611792E-01
   7114.00  1.9112379E-01
   7114.33  1.5817098E-01
   7114.67  1.3276678E-01
   7115.00  1.1220924E-01
   7115.33  9.2477086E-02
   7115.67  7.7079946E-02
   7116.00  6.7330788E-02
   7116.33  6.2450107E-02
   7116.67  6.0481649E-02
   7117.00  6.0665996E-02
   7117.33  6.2427148E-02
   7117.67  6.4568104E-02
   7118.00  6.6539627E-02
   7118.33  6.8965597E-02
   7118.67  7.2558563E-02
   7119.00  7.7556341E-02
   7119.33  8.4244800E-02
   7119.67  9.2580677E-02
   7120.00  1.0277931E-01
   7120.33  1.1548963E-01
   7120.67  1.3092925E-01
   7121.00  1.4960998E-01
   7121.33  1.7263650E-01
   7121.67  1.9995459E-01
   7122.00  2.3149163E-01
   7122.33  2.6675137E-01
   7122.67  3.0357983E-01
   7123.00  3.4036220E-01
   7123.33  3.7559081E-01
   7123.67  4.0872843E-01
   7124.00  4.3976228E-01
   7124.33  4.6961059E-01
   7124.67  5.0004929E-01
   7125.00  5.3179920E-01
   7125.33  5.6406763E-01
   7125.67  5.9459351E-01
   7126.00  6.2142849E-01
   7126.33  6.4292367E-01
   7126.67  6.6052354E-01
   7127.00  6.7593340E-01
   7127.33  6.9095113E-01
   7127.67  7.0679927E-01
   7128.00  7.2398985E-01
   7128.33  7.4281362E-01
   7128.67  7.6264260E-01
   7129.00  7.8250190E-01
   7129.33  8.0006259E-01
   7129.67  8.1261503E-01
   7130.00  8.1760200E-01
   7130.33  8.1217947E-01
   7130.67  7.9819494E-01
   7131.00  7.7815470E-01
   7131.33  7.5577067E-01
   7131.67  7.3470410E-01
   7132.00  7.1656940E-01
   7132.33  7.0220437E-01
   7132.67  6.9072293E-01
   7133.00  6.8155566E-01
   7133.33  6.7440190E-01
   7133.67  6.6871102E-01
   7134.00  6.6429789E-01
   7134.33  6.6111560E-01
   7134.67  6.5884596E-01
   7135.00  6.5733507E-01
   7135.33  6.5647740E-01
   7135.67  6.5600007E-01
   7136.00  6.5568742E-01
   7136.33  6.5520734E-01
   7136.67  6.5422376E-01
   7137.00  6.5245015E-01
   7137.33  6.4952966E-01
   7137.67  6.4554199E-01
   7138.00  6.4060806E-01
   7138.33  6.3493968E-01
   7138.67  6.2900376E-01
   7139.00  6.2314395E-01
   7139.33  6.1777536E-01
   7139.67  6.1312859E-01
   7140.00  6.0937759E-01
   7140.33  6.0676854E-01
   7140.67  6.0520803E-01
   7141.00  6.0465917E-01
   7141.33  6.0512125E-01
   7141.67  6.0631885E-01
   7142.00  6.0809329E-01
   7142.33  6.1028491E-01
   7142.67  6.1262004E-01
   7143.00  6.1489542E-01
   7143.33  6.1684705E-01
   7143.67  6.1831573E-01
   7144.00  6.1916202E-01
   7144.33  6.1916201E-01
   7144.67  6.1832369E-01
   7145.00  6.1661015E-01
   7145.33  6.1390411E-01
   7145.67  6.1033295E-01
   7146.00  6.0592089E-01
   7146.33  6.0060065E-01
   7146.67  5.9451295E-01
   7147.00  5.8769924E-01
   7147.33  5.8013480E-01
   7147.67  5.7197088E-01
   7148.00  5.6327302E-01
   7148.33  5.5408073E-01
   7148.67  5.4455560E-01
   7149.00  5.3478917E-01
   7149.33  5.2486404E-01
   7149.67  5.1488754E-01
   7150.00  5.0492696E-01
   7150.33  4.9505781E-01
   7150.67  4.8532172E-01
   7151.00  4.7575393E-01
   7151.33  4.6641094E-01
   7151.67  4.5729062E-01
   7152.00  4.4840704E-01
   7152.33  4.3980228E-01
   7152.67  4.3145256E-01
   7153.00  4.2336183E-01
   7153.33  4.1556433E-01
   7153.67  4.0802698E-01
   7154.00  4.0074789E-01
   7154.33  3.9375393E-01
   7154.67  3.8700586E-01
   7155.00  3.8049561E-01
   7155.33  3.7424022E-01
   7155.67  3.6819860E-01
   7156.00  3.6236016E-01
   7156.33  3.5674121E-01
   7156.67  3.5131583E-01
   7157.00  3.4608610E-01
   7157.33  3.4108563E-01
   7157.67  3.3630346E-01
   7158.00  3.3175838E-01
   7158.33  3.2751119E-01
   7158.67  3.2355866E-01
   7159.00  3.1992630E-01
   7159.33  3.1668458E-01
   7159.67  3.1381157E-01
   7160.00  3.1131946E-01
   7160.33  3.0926270E-01
   7160.67  3.0759090E-01
   7161.00  3.0629788E-01
   7161.33  3.0542048E-01
   7161.67  3.0490238E-01
   7162.00  3.0473270E-01
   7162.33  3.0493340E-01
   7162.67  3.0545066E-01
   7163.00  3.0628117E-01
   7163.33  3.0746072E-01
   7163.67  3.0894567E-01
   7164.00  3.1072994E-01
   7164.33  3.1284083E-01
   7164.67  3.1523152E-01
   7165.00  3.1789212E-01
   7165.33  3.2084306E-01
   7165.67  3.2403981E-01
   7166.00  3.2747180E-01
   7166.33  3.3115527E-01
   7166.67  3.3505099E-01
   7167.00  3.3914884E-01
   7167.33  3.4345866E-01
   7167.67  3.4794030E-01
   7168.00  3.5257936E-01
   7168.33  3.5737678E-01
   7168.67  3.6229622E-01
   7169.00  3.6731926E-01
   7169.33  3.7243164E-01
   7169.67  3.7759534E-01
   7170.00  3.8278209E-01
   7170.33  3.8794978E-01
   7170.67  3.9304719E-01
   7171.00  3.9800899E-01
   7171.33  4.0268076E-01
   7171.67  4.0687584E-01
   7172.00  4.1031032E-01
