    FDMNES
    energy     <xanes>
   7097.00  5.5766004E-03
   7097.33  5.7187674E-03
   7097.67  5.8678368E-03
   7098.00  6.0242968E-03
   7098.33  6.1897793E-03
   7098.67  6.3639846E-03
   7099.00  6.5475816E-03
   7099.33  6.7427227E-03
   7099.67  6.9491046E-03
   7100.00  7.1676677E-03
   7100.33  7.4013226E-03
   7100.67  7.6497966E-03
   7101.00  7.9144511E-03
   7101.33  8.1993403E-03
   7101.67  8.5042957E-03
   7102.00  8.8313584E-03
   7102.33  9.1863764E-03
   7102.67  9.5694474E-03
   7103.00  9.9837611E-03
   7103.33  1.0438117E-02
   7103.67  1.0933242E-02
   7104.00  1.1474377E-02
   7104.33  1.2075475E-02
   7104.67  1.2738736E-02
   7105.00  1.3473337E-02
   7105.33  1.4302909E-02
   7105.67  1.5233259E-02
   7106.00  1.6281825E-02
   7106.33  1.7492259E-02
   7106.67  1.8879950E-02
   7107.00  2.0481908E-02
   7107.33  2.2389106E-02
   7107.67  2.4646092E-02
   7108.00  2.7345185E-02
   7108.33  3.0713665E-02
   7108.67  3.4907299E-02
   7109.00  4.0224912E-02
   7109.33  4.7437971E-02
   7109.67  5.7326278E-02
   7110.00  7.1405064E-02
   7110.33  9.3880687E-02
   7110.67  1.2849937E-01
   7111.00  1.7457343E-01
   7111.33  2.2389596E-01
   7111.67  2.8448056E-01
   7112.00  3.7190736E-01
   7112.33  5.2400716E-01
   7112.67  7.1272221E-01
   7113.00  8.0550688E-01
   7113.33  7.2982984E-01
   7113.67  6.2419283E-01
   7114.00  5.3570912E-01
   7114.33  4.4229890E-01
   7114.67  3.4590675E-01
   7115.00  2.6962070E-01
   7115.33  2.2100368E-01
   7115.67  1.9003601E-01
   7116.00  1.7165625E-01
   7116.33  1.6310940E-01
   7116.67  1.5997745E-01
   7117.00  1.5892737E-01
   7117.33  1.5692165E-01
   7117.67  1.5407809E-01
   7118.00  1.5167201E-01
   7118.33  1.5031922E-01
   7118.67  1.4950977E-01
   7119.00  1.4916321E-01
   7119.33  1.4976730E-01
   7119.67  1.5124428E-01
   7120.00  1.5302725E-01
   7120.33  1.5445520E-01
   7120.67  1.5511921E-01
   7121.00  1.5489291E-01
   7121.33  1.5390452E-01
   7121.67  1.5226489E-01
   7122.00  1.4983972E-01
   7122.33  1.4688092E-01
   7122.67  1.4464358E-01
   7123.00  1.4434157E-01
   7123.33  1.4707279E-01
   7123.67  1.5266230E-01
   7124.00  1.6121768E-01
   7124.33  1.7360110E-01
   7124.67  1.9027142E-01
   7125.00  2.1230182E-01
   7125.33  2.4174764E-01
   7125.67  2.7779771E-01
   7126.00  3.1786280E-01
   7126.33  3.5457967E-01
   7126.67  3.8071128E-01
   7127.00  3.9498887E-01
   7127.33  4.0373162E-01
   7127.67  4.1723873E-01
   7128.00  4.4118928E-01
   7128.33  4.7962993E-01
   7128.67  5.2967335E-01
   7129.00  5.8756417E-01
   7129.33  6.4621676E-01
   7129.67  6.9801884E-01
   7130.00  7.3967562E-01
   7130.33  7.7113618E-01
   7130.67  7.9668823E-01
   7131.00  8.1816528E-01
   7131.33  8.3584485E-01
   7131.67  8.5021203E-01
   7132.00  8.6135320E-01
   7132.33  8.6910647E-01
   7132.67  8.7394892E-01
   7133.00  8.7566755E-01
   7133.33  8.7298018E-01
   7133.67  8.6496798E-01
   7134.00  8.5029191E-01
   7134.33  8.2731601E-01
   7134.67  7.9779326E-01
   7135.00  7.6334748E-01
   7135.33  7.2578542E-01
   7135.67  6.8744473E-01
   7136.00  6.4978399E-01
   7136.33  6.1438341E-01
   7136.67  5.8193584E-01
   7137.00  5.5303060E-01
   7137.33  5.2868923E-01
   7137.67  5.0870754E-01
   7138.00  4.9307733E-01
   7138.33  4.8185562E-01
   7138.67  4.7373728E-01
   7139.00  4.6794472E-01
   7139.33  4.6401276E-01
   7139.67  4.6146496E-01
   7140.00  4.6033024E-01
   7140.33  4.6095436E-01
   7140.67  4.6325165E-01
   7141.00  4.6720926E-01
   7141.33  4.7285295E-01
   7141.67  4.7969802E-01
   7142.00  4.8741647E-01
   7142.33  4.9565304E-01
   7142.67  5.0396187E-01
   7143.00  5.1206900E-01
   7143.33  5.1970307E-01
   7143.67  5.2681478E-01
   7144.00  5.3340002E-01
   7144.33  5.3946542E-01
   7144.67  5.4517106E-01
   7145.00  5.5060855E-01
   7145.33  5.5584477E-01
   7145.67  5.6096050E-01
   7146.00  5.6597959E-01
   7146.33  5.7089415E-01
   7146.67  5.7570220E-01
   7147.00  5.8038142E-01
   7147.33  5.8487839E-01
   7147.67  5.8918639E-01
   7148.00  5.9329221E-01
   7148.33  5.9716287E-01
   7148.67  6.0082086E-01
   7149.00  6.0426362E-01
   7149.33  6.0746062E-01
   7149.67  6.1042025E-01
   7150.00  6.1311024E-01
   7150.33  6.1543825E-01
   7150.67  6.1737776E-01
   7151.00  6.1886335E-01
   7151.33  6.1974830E-01
   7151.67  6.2002250E-01
   7152.00  6.1962877E-01
   7152.33  6.1842902E-01
   7152.67  6.1649144E-01
   7153.00  6.1382424E-01
   7153.33  6.1038686E-01
   7153.67  6.0635091E-01
   7154.00  6.0182248E-01
   7154.33  5.9691638E-01
   7154.67  5.9185946E-01
   7155.00  5.8682468E-01
   7155.33  5.8204356E-01
   7155.67  5.7767433E-01
   7156.00  5.7385082E-01
   7156.33  5.7077027E-01
   7156.67  5.6841476E-01
   7157.00  5.6679967E-01
   7157.33  5.6599192E-01
   7157.67  5.6584435E-01
   7158.00  5.6628483E-01
   7158.33  5.6727002E-01
   7158.67  5.6862379E-01
   7159.00  5.7024351E-01
   7159.33  5.7202876E-01
   7159.67  5.7384683E-01
   7160.00  5.7560451E-01
   7160.33  5.7718009E-01
   7160.67  5.7850081E-01
   7161.00  5.7948669E-01
   7161.33  5.8000600E-01
   7161.67  5.8005404E-01
   7162.00  5.7959528E-01
   7162.33  5.7853394E-01
   7162.67  5.7692224E-01
   7163.00  5.7475935E-01
   7163.33  5.7198990E-01
   7163.67  5.6870643E-01
   7164.00  5.6494048E-01
   7164.33  5.6068277E-01
   7164.67  5.5603991E-01
   7165.00  5.5106030E-01
   7165.33  5.4576613E-01
   7165.67  5.4024806E-01
   7166.00  5.3455164E-01
   7166.33  5.2870987E-01
   7166.67  5.2278195E-01
   7167.00  5.1679744E-01
   7167.33  5.1077975E-01
   7167.67  5.0475378E-01
   7168.00  4.9873404E-01
   7168.33  4.9273638E-01
   7168.67  4.8677543E-01
   7169.00  4.8086748E-01
   7169.33  4.7503791E-01
   7169.67  4.6929749E-01
   7170.00  4.6366799E-01
   7170.33  4.5820033E-01
   7170.67  4.5292139E-01
   7171.00  4.4788700E-01
   7171.33  4.4324531E-01
   7171.67  4.3913652E-01
   7172.00  4.3579421E-01
