    FDMNES
    energy     <xanes>
   7097.00  5.4813556E-03
   7097.33  5.6185505E-03
   7097.67  5.7623445E-03
   7098.00  5.9132030E-03
   7098.33  6.0726848E-03
   7098.67  6.2405021E-03
   7099.00  6.4172933E-03
   7099.33  6.6051143E-03
   7099.67  6.8036749E-03
   7100.00  7.0138738E-03
   7100.33  7.2384926E-03
   7100.67  7.4772723E-03
   7101.00  7.7315163E-03
   7101.33  8.0051039E-03
   7101.67  8.2978806E-03
   7102.00  8.6118056E-03
   7102.33  8.9524871E-03
   7102.67  9.3200358E-03
   7103.00  9.7175261E-03
   7103.33  1.0153427E-02
   7103.67  1.0628477E-02
   7104.00  1.1147761E-02
   7104.33  1.1724778E-02
   7104.67  1.2361756E-02
   7105.00  1.3067674E-02
   7105.33  1.3865598E-02
   7105.67  1.4761444E-02
   7106.00  1.5772500E-02
   7106.33  1.6941968E-02
   7106.67  1.8285775E-02
   7107.00  1.9841394E-02
   7107.33  2.1700916E-02
   7107.67  2.3911750E-02
   7108.00  2.6570645E-02
   7108.33  2.9916812E-02
   7108.67  3.4124044E-02
   7109.00  3.9524337E-02
   7109.33  4.6986981E-02
   7109.67  5.7449718E-02
   7110.00  7.2749175E-02
   7110.33  9.8022537E-02
   7110.67  1.3739597E-01
   7111.00  1.8678647E-01
   7111.33  2.2899823E-01
   7111.67  2.8024677E-01
   7112.00  3.6721598E-01
   7112.33  5.0275429E-01
   7112.67  6.0890891E-01
   7113.00  6.0590700E-01
   7113.33  5.5825289E-01
   7113.67  5.5152820E-01
   7114.00  5.5619257E-01
   7114.33  5.0071764E-01
   7114.67  3.9937248E-01
   7115.00  3.0239998E-01
   7115.33  2.3700047E-01
   7115.67  1.9439820E-01
   7116.00  1.6777769E-01
   7116.33  1.5338932E-01
   7116.67  1.4673116E-01
   7117.00  1.4527023E-01
   7117.33  1.4626098E-01
   7117.67  1.4728999E-01
   7118.00  1.4735617E-01
   7118.33  1.4596060E-01
   7118.67  1.4327426E-01
   7119.00  1.3956704E-01
   7119.33  1.3574830E-01
   7119.67  1.3260462E-01
   7120.00  1.3007778E-01
   7120.33  1.2789968E-01
   7120.67  1.2623504E-01
   7121.00  1.2549847E-01
   7121.33  1.2594353E-01
   7121.67  1.2716717E-01
   7122.00  1.2894667E-01
   7122.33  1.3140301E-01
   7122.67  1.3487382E-01
   7123.00  1.3984493E-01
   7123.33  1.4706189E-01
   7123.67  1.5671204E-01
   7124.00  1.6927107E-01
   7124.33  1.8600575E-01
   7124.67  2.0742097E-01
   7125.00  2.3412341E-01
   7125.33  2.6635597E-01
   7125.67  3.0126053E-01
   7126.00  3.3581206E-01
   7126.33  3.6651631E-01
   7126.67  3.9240064E-01
   7127.00  4.1418385E-01
   7127.33  4.3527413E-01
   7127.67  4.6056410E-01
   7128.00  4.9307837E-01
   7128.33  5.3501545E-01
   7128.67  5.8433595E-01
   7129.00  6.3849643E-01
   7129.33  6.9236621E-01
   7129.67  7.3955512E-01
   7130.00  7.7577926E-01
   7130.33  7.9898398E-01
   7130.67  8.1455130E-01
   7131.00  8.2704570E-01
   7131.33  8.4025098E-01
   7131.67  8.5491833E-01
   7132.00  8.6985262E-01
   7132.33  8.8227816E-01
   7132.67  8.8977914E-01
   7133.00  8.9041009E-01
   7133.33  8.8169542E-01
   7133.67  8.6438156E-01
   7134.00  8.3914136E-01
   7134.33  8.0677622E-01
   7134.67  7.7011549E-01
   7135.00  7.3093475E-01
   7135.33  6.9097598E-01
   7135.67  6.5177134E-01
   7136.00  6.1424815E-01
   7136.33  5.7948603E-01
   7136.67  5.4770238E-01
   7137.00  5.1920067E-01
   7137.33  4.9461688E-01
   7137.67  4.7353620E-01
   7138.00  4.5583120E-01
   7138.33  4.4164343E-01
   7138.67  4.3035207E-01
   7139.00  4.2184140E-01
   7139.33  4.1639204E-01
   7139.67  4.1361290E-01
   7140.00  4.1341801E-01
   7140.33  4.1593534E-01
   7140.67  4.2061335E-01
   7141.00  4.2718282E-01
   7141.33  4.3546678E-01
   7141.67  4.4486209E-01
   7142.00  4.5499271E-01
   7142.33  4.6545691E-01
   7142.67  4.7581212E-01
   7143.00  4.8576655E-01
   7143.33  4.9499511E-01
   7143.67  5.0345084E-01
   7144.00  5.1111340E-01
   7144.33  5.1794968E-01
   7144.67  5.2416584E-01
   7145.00  5.2987873E-01
   7145.33  5.3517802E-01
   7145.67  5.4023056E-01
   7146.00  5.4512358E-01
   7146.33  5.4993084E-01
   7146.67  5.5472715E-01
   7147.00  5.5955133E-01
   7147.33  5.6442391E-01
   7147.67  5.6932634E-01
   7148.00  5.7423276E-01
   7148.33  5.7909056E-01
   7148.67  5.8383684E-01
   7149.00  5.8839586E-01
   7149.33  5.9262832E-01
   7149.67  5.9645777E-01
   7150.00  5.9978347E-01
   7150.33  6.0241339E-01
   7150.67  6.0432226E-01
   7151.00  6.0544029E-01
   7151.33  6.0561368E-01
   7151.67  6.0494502E-01
   7152.00  6.0347708E-01
   7152.33  6.0122974E-01
   7152.67  5.9845443E-01
   7153.00  5.9533013E-01
   7153.33  5.9207675E-01
   7153.67  5.8894797E-01
   7154.00  5.8613479E-01
   7154.33  5.8388806E-01
   7154.67  5.8228442E-01
   7155.00  5.8140101E-01
   7155.33  5.8137143E-01
   7155.67  5.8208819E-01
   7156.00  5.8350605E-01
   7156.33  5.8561789E-01
   7156.67  5.8823703E-01
   7157.00  5.9125568E-01
   7157.33  5.9457282E-01
   7157.67  5.9801876E-01
   7158.00  6.0147921E-01
   7158.33  6.0481540E-01
   7158.67  6.0792843E-01
   7159.00  6.1073365E-01
   7159.33  6.1309997E-01
   7159.67  6.1501273E-01
   7160.00  6.1643288E-01
   7160.33  6.1725929E-01
   7160.67  6.1752798E-01
   7161.00  6.1723037E-01
   7161.33  6.1630590E-01
   7161.67  6.1484361E-01
   7162.00  6.1286558E-01
   7162.33  6.1034146E-01
   7162.67  6.0736574E-01
   7163.00  6.0396933E-01
   7163.33  6.0014066E-01
   7163.67  5.9596356E-01
   7164.00  5.9146848E-01
   7164.33  5.8665416E-01
   7164.67  5.8158791E-01
   7165.00  5.7629618E-01
   7165.33  5.7078395E-01
   7165.67  5.6510460E-01
   7166.00  5.5928349E-01
   7166.33  5.5333551E-01
   7166.67  5.4730237E-01
   7167.00  5.4120737E-01
   7167.33  5.3507533E-01
   7167.67  5.2894317E-01
   7168.00  5.2283452E-01
   7168.33  5.1677477E-01
   7168.67  5.1077686E-01
   7169.00  5.0485573E-01
   7169.33  4.9903817E-01
   7169.67  4.9332702E-01
   7170.00  4.8773558E-01
   7170.33  4.8230091E-01
   7170.67  4.7703567E-01
   7171.00  4.7198390E-01
   7171.33  4.6728116E-01
   7171.67  4.6307954E-01
   7172.00  4.5963675E-01
