    FDMNES
    energy     <xanes>
   7097.00  5.2187014E-03
   7097.33  5.3378142E-03
   7097.67  5.4622296E-03
   7098.00  5.5923034E-03
   7098.33  5.7292581E-03
   7098.67  5.8728391E-03
   7099.00  6.0235306E-03
   7099.33  6.1829284E-03
   7099.67  6.3507715E-03
   7100.00  6.5277370E-03
   7100.33  6.7159629E-03
   7100.67  6.9152057E-03
   7101.00  7.1264417E-03
   7101.33  7.3526253E-03
   7101.67  7.5935845E-03
   7102.00  7.8507799E-03
   7102.33  8.1284481E-03
   7102.67  8.4266079E-03
   7103.00  8.7475440E-03
   7103.33  9.0976141E-03
   7103.67  9.4772992E-03
   7104.00  9.8903745E-03
   7104.33  1.0346936E-02
   7104.67  1.0848578E-02
   7105.00  1.1401985E-02
   7105.33  1.2024398E-02
   7105.67  1.2720211E-02
   7106.00  1.3502377E-02
   7106.33  1.4403331E-02
   7106.67  1.5435173E-02
   7107.00  1.6626295E-02
   7107.33  1.8046562E-02
   7107.67  1.9732656E-02
   7108.00  2.1759040E-02
   7108.33  2.4309994E-02
   7108.67  2.7521697E-02
   7109.00  3.1652928E-02
   7109.33  3.7379887E-02
   7109.67  4.5431485E-02
   7110.00  5.7231163E-02
   7110.33  7.6874964E-02
   7110.67  1.0913652E-01
   7111.00  1.5739413E-01
   7111.33  2.1123486E-01
   7111.67  2.4919999E-01
   7112.00  2.6740105E-01
   7112.33  2.8463802E-01
   7112.67  3.1290462E-01
   7113.00  3.4843073E-01
   7113.33  3.8540988E-01
   7113.67  4.0986100E-01
   7114.00  4.0008349E-01
   7114.33  3.4865166E-01
   7114.67  2.8919240E-01
   7115.00  2.3991077E-01
   7115.33  2.0676700E-01
   7115.67  1.8514868E-01
   7116.00  1.7119747E-01
   7116.33  1.6039910E-01
   7116.67  1.4915782E-01
   7117.00  1.3771823E-01
   7117.33  1.2857944E-01
   7117.67  1.2286884E-01
   7118.00  1.2058657E-01
   7118.33  1.2111110E-01
   7118.67  1.2281911E-01
   7119.00  1.2553637E-01
   7119.33  1.3103151E-01
   7119.67  1.4062674E-01
   7120.00  1.5456384E-01
   7120.33  1.6905958E-01
   7120.67  1.7672008E-01
   7121.00  1.7727234E-01
   7121.33  1.7673459E-01
   7121.67  1.7899236E-01
   7122.00  1.8471522E-01
   7122.33  1.9372330E-01
   7122.67  2.0471426E-01
   7123.00  2.1705433E-01
   7123.33  2.3051768E-01
   7123.67  2.4523316E-01
   7124.00  2.6184672E-01
   7124.33  2.8148465E-01
   7124.67  3.0404127E-01
   7125.00  3.2887272E-01
   7125.33  3.5415094E-01
   7125.67  3.7739189E-01
   7126.00  3.9739509E-01
   7126.33  4.1471206E-01
   7126.67  4.3176637E-01
   7127.00  4.4992701E-01
   7127.33  4.6985761E-01
   7127.67  4.9074928E-01
   7128.00  5.1157218E-01
   7128.33  5.3147966E-01
   7128.67  5.5166296E-01
   7129.00  5.7445814E-01
   7129.33  6.0276804E-01
   7129.67  6.3612739E-01
   7130.00  6.7304920E-01
   7130.33  7.1130980E-01
   7130.67  7.4877595E-01
   7131.00  7.8436860E-01
   7131.33  8.1716356E-01
   7131.67  8.4719781E-01
   7132.00  8.7413106E-01
   7132.33  8.9660081E-01
   7132.67  9.1377181E-01
   7133.00  9.2451018E-01
   7133.33  9.2726641E-01
   7133.67  9.2338892E-01
   7134.00  9.1394079E-01
   7134.33  8.9942151E-01
   7134.67  8.8085840E-01
   7135.00  8.5860915E-01
   7135.33  8.3313090E-01
   7135.67  8.0589036E-01
   7136.00  7.7784782E-01
   7136.33  7.5001741E-01
   7136.67  7.2317626E-01
   7137.00  6.9785627E-01
   7137.33  6.7478168E-01
   7137.67  6.5403742E-01
   7138.00  6.3580177E-01
   7138.33  6.2049036E-01
   7138.67  6.0777429E-01
   7139.00  5.9759345E-01
   7139.33  5.9012629E-01
   7139.67  5.8490358E-01
   7140.00  5.8175747E-01
   7140.33  5.8072722E-01
   7140.67  5.8138001E-01
   7141.00  5.8352772E-01
   7141.33  5.8705659E-01
   7141.67  5.9146498E-01
   7142.00  5.9637336E-01
   7142.33  6.0124641E-01
   7142.67  6.0550361E-01
   7143.00  6.0865714E-01
   7143.33  6.1003615E-01
   7143.67  6.0954362E-01
   7144.00  6.0710996E-01
   7144.33  6.0263876E-01
   7144.67  5.9665939E-01
   7145.00  5.8950411E-01
   7145.33  5.8146724E-01
   7145.67  5.7298808E-01
   7146.00  5.6429840E-01
   7146.33  5.5559699E-01
   7146.67  5.4702615E-01
   7147.00  5.3867419E-01
   7147.33  5.3065491E-01
   7147.67  5.2298782E-01
   7148.00  5.1570790E-01
   7148.33  5.0889134E-01
   7148.67  5.0249389E-01
   7149.00  4.9650958E-01
   7149.33  4.9097051E-01
   7149.67  4.8579586E-01
   7150.00  4.8094877E-01
   7150.33  4.7641729E-01
   7150.67  4.7212104E-01
   7151.00  4.6802654E-01
   7151.33  4.6412938E-01
   7151.67  4.6040073E-01
   7152.00  4.5685255E-01
   7152.33  4.5354496E-01
   7152.67  4.5050159E-01
   7153.00  4.4777449E-01
   7153.33  4.4547394E-01
   7153.67  4.4360919E-01
   7154.00  4.4221777E-01
   7154.33  4.4138572E-01
   7154.67  4.4104890E-01
   7155.00  4.4118350E-01
   7155.33  4.4178934E-01
   7155.67  4.4273900E-01
   7156.00  4.4395527E-01
   7156.33  4.4536164E-01
   7156.67  4.4683861E-01
   7157.00  4.4830619E-01
   7157.33  4.4966897E-01
   7157.67  4.5087030E-01
   7158.00  4.5186742E-01
   7158.33  4.5260182E-01
   7158.67  4.5309598E-01
   7159.00  4.5336184E-01
   7159.33  4.5340872E-01
   7159.67  4.5331416E-01
   7160.00  4.5313710E-01
   7160.33  4.5295634E-01
   7160.67  4.5285898E-01
   7161.00  4.5292348E-01
   7161.33  4.5327130E-01
   7161.67  4.5395304E-01
   7162.00  4.5502817E-01
   7162.33  4.5660237E-01
   7162.67  4.5864621E-01
   7163.00  4.6116449E-01
   7163.33  4.6419539E-01
   7163.67  4.6763350E-01
   7164.00  4.7142181E-01
   7164.33  4.7552564E-01
   7164.67  4.7983990E-01
   7165.00  4.8430368E-01
   7165.33  4.8885625E-01
   7165.67  4.9341961E-01
   7166.00  4.9793893E-01
   7166.33  5.0234197E-01
   7166.67  5.0658564E-01
   7167.00  5.1062362E-01
   7167.33  5.1437259E-01
   7167.67  5.1781820E-01
   7168.00  5.2092553E-01
   7168.33  5.2361469E-01
   7168.67  5.2590814E-01
   7169.00  5.2779628E-01
   7169.33  5.2923451E-01
   7169.67  5.3028847E-01
   7170.00  5.3097909E-01
   7170.33  5.3130075E-01
   7170.67  5.3134056E-01
   7171.00  5.3114721E-01
   7171.33  5.3077229E-01
   7171.67  5.3033411E-01
   7172.00  5.2994222E-01
