    FDMNES
    energy     <xanes>
   7097.00  4.1072835E-03
   7097.33  4.1884419E-03
   7097.67  4.2726241E-03
   7098.00  4.3600078E-03
   7098.33  4.4512482E-03
   7098.67  4.5461681E-03
   7099.00  4.6450049E-03
   7099.33  4.7485932E-03
   7099.67  4.8567481E-03
   7100.00  4.9697970E-03
   7100.33  5.0888329E-03
   7100.67  5.2136753E-03
   7101.00  5.3447925E-03
   7101.33  5.4836667E-03
   7101.67  5.6301492E-03
   7102.00  5.7849403E-03
   7102.33  5.9501383E-03
   7102.67  6.1256907E-03
   7103.00  6.3127013E-03
   7103.33  6.5143067E-03
   7103.67  6.7307020E-03
   7104.00  6.9637458E-03
   7104.33  7.2184618E-03
   7104.67  7.4956717E-03
   7105.00  7.7987763E-03
   7105.33  8.1365737E-03
   7105.67  8.5115464E-03
   7106.00  8.9306252E-03
   7106.33  9.4111539E-03
   7106.67  9.9604863E-03
   7107.00  1.0594955E-02
   7107.33  1.1354807E-02
   7107.67  1.2264256E-02
   7108.00  1.3370669E-02
   7108.33  1.4792626E-02
   7108.67  1.6630396E-02
   7109.00  1.9073049E-02
   7109.33  2.2629964E-02
   7109.67  2.7922364E-02
   7110.00  3.6179555E-02
   7110.33  5.0904532E-02
   7110.67  7.4793016E-02
   7111.00  1.0356164E-01
   7111.33  1.2238048E-01
   7111.67  1.3595335E-01
   7112.00  1.4329073E-01
   7112.33  1.3957995E-01
   7112.67  1.1746592E-01
   7113.00  8.8997475E-02
   7113.33  7.0927983E-02
   7113.67  6.0753189E-02
   7114.00  5.5141119E-02
   7114.33  5.0722805E-02
   7114.67  4.6424614E-02
   7115.00  4.3679876E-02
   7115.33  4.2853465E-02
   7115.67  4.3171798E-02
   7116.00  4.4211221E-02
   7116.33  4.5548349E-02
   7116.67  4.6739320E-02
   7117.00  4.7663811E-02
   7117.33  4.8657598E-02
   7117.67  5.0241413E-02
   7118.00  5.2691520E-02
   7118.33  5.6211049E-02
   7118.67  6.0693384E-02
   7119.00  6.6197446E-02
   7119.33  7.3017737E-02
   7119.67  8.1230567E-02
   7120.00  9.1097425E-02
   7120.33  1.0328902E-01
   7120.67  1.1805648E-01
   7121.00  1.3584017E-01
   7121.33  1.5743576E-01
   7121.67  1.8247238E-01
   7122.00  2.1062693E-01
   7122.33  2.4141950E-01
   7122.67  2.7386877E-01
   7123.00  3.0831319E-01
   7123.33  3.4780396E-01
   7123.67  3.9551672E-01
   7124.00  4.5261359E-01
   7124.33  5.1652404E-01
   7124.67  5.7963892E-01
   7125.00  6.3438876E-01
   7125.33  6.7055685E-01
   7125.67  6.8873836E-01
   7126.00  6.9291464E-01
   7126.33  6.8607319E-01
   7126.67  6.7161333E-01
   7127.00  6.5152816E-01
   7127.33  6.2835224E-01
   7127.67  6.0540891E-01
   7128.00  5.8513916E-01
   7128.33  5.7028474E-01
   7128.67  5.6098520E-01
   7129.00  5.5680798E-01
   7129.33  5.5730345E-01
   7129.67  5.6130567E-01
   7130.00  5.6880871E-01
   7130.33  5.8085404E-01
   7130.67  5.9778692E-01
   7131.00  6.2033231E-01
   7131.33  6.4944359E-01
   7131.67  6.8265694E-01
   7132.00  7.1593442E-01
   7132.33  7.4209574E-01
   7132.67  7.5848766E-01
   7133.00  7.6702212E-01
   7133.33  7.7289500E-01
   7133.67  7.8151645E-01
   7134.00  7.9562438E-01
   7134.33  8.1708058E-01
   7134.67  8.4359838E-01
   7135.00  8.7168013E-01
   7135.33  8.9459643E-01
   7135.67  9.0690709E-01
   7136.00  9.0604210E-01
   7136.33  8.9168353E-01
   7136.67  8.6934316E-01
   7137.00  8.4268683E-01
   7137.33  8.1460965E-01
   7137.67  7.8682483E-01
   7138.00  7.5983593E-01
   7138.33  7.3388528E-01
   7138.67  7.0884177E-01
   7139.00  6.8472856E-01
   7139.33  6.6180335E-01
   7139.67  6.4015206E-01
   7140.00  6.1999686E-01
   7140.33  6.0180478E-01
   7140.67  5.8559274E-01
   7141.00  5.7153668E-01
   7141.33  5.5997677E-01
   7141.67  5.5056899E-01
   7142.00  5.4319781E-01
   7142.33  5.3790540E-01
   7142.67  5.3421998E-01
   7143.00  5.3189582E-01
   7143.33  5.3072976E-01
   7143.67  5.3022919E-01
   7144.00  5.3008460E-01
   7144.33  5.2994745E-01
   7144.67  5.2948569E-01
   7145.00  5.2845303E-01
   7145.33  5.2654543E-01
   7145.67  5.2376988E-01
   7146.00  5.2015184E-01
   7146.33  5.1573894E-01
   7146.67  5.1083273E-01
   7147.00  5.0563931E-01
   7147.33  5.0037601E-01
   7147.67  4.9523406E-01
   7148.00  4.9032915E-01
   7148.33  4.8578812E-01
   7148.67  4.8161224E-01
   7149.00  4.7780953E-01
   7149.33  4.7441059E-01
   7149.67  4.7133869E-01
   7150.00  4.6855655E-01
   7150.33  4.6604158E-01
   7150.67  4.6370718E-01
   7151.00  4.6150042E-01
   7151.33  4.5936587E-01
   7151.67  4.5723323E-01
   7152.00  4.5505234E-01
   7152.33  4.5275059E-01
   7152.67  4.5027447E-01
   7153.00  4.4756211E-01
   7153.33  4.4449958E-01
   7153.67  4.4105022E-01
   7154.00  4.3715171E-01
   7154.33  4.3267458E-01
   7154.67  4.2763595E-01
   7155.00  4.2201355E-01
   7155.33  4.1572741E-01
   7155.67  4.0886530E-01
   7156.00  4.0145478E-01
   7156.33  3.9348692E-01
   7156.67  3.8509263E-01
   7157.00  3.7633155E-01
   7157.33  3.6724533E-01
   7157.67  3.5796139E-01
   7158.00  3.4856926E-01
   7158.33  3.3918802E-01
   7158.67  3.2994932E-01
   7159.00  3.2097671E-01
   7159.33  3.1246605E-01
   7159.67  3.0449222E-01
   7160.00  2.9713375E-01
   7160.33  2.9052372E-01
   7160.67  2.8459210E-01
   7161.00  2.7933860E-01
   7161.33  2.7486540E-01
   7161.67  2.7114083E-01
   7162.00  2.6824562E-01
   7162.33  2.6641061E-01
   7162.67  2.6561744E-01
   7163.00  2.6591117E-01
   7163.33  2.6740085E-01
   7163.67  2.6985107E-01
   7164.00  2.7313611E-01
   7164.33  2.7716911E-01
   7164.67  2.8167834E-01
   7165.00  2.8650087E-01
   7165.33  2.9148113E-01
   7165.67  2.9646028E-01
   7166.00  3.0134977E-01
   7166.33  3.0606854E-01
   7166.67  3.1061487E-01
   7167.00  3.1499878E-01
   7167.33  3.1924104E-01
   7167.67  3.2341188E-01
   7168.00  3.2756571E-01
   7168.33  3.3177538E-01
   7168.67  3.3609939E-01
   7169.00  3.4058786E-01
   7169.33  3.4531652E-01
   7169.67  3.5029390E-01
   7170.00  3.5553545E-01
   7170.33  3.6106822E-01
   7170.67  3.6681763E-01
   7171.00  3.7270152E-01
   7171.33  3.7852603E-01
   7171.67  3.8393896E-01
   7172.00  3.8846404E-01
