    FDMNES
    energy     <xanes>
   7097.00  5.0458948E-03
   7097.33  5.1631451E-03
   7097.67  5.2857533E-03
   7098.00  5.4140927E-03
   7098.33  5.5494229E-03
   7098.67  5.6915073E-03
   7099.00  5.8408619E-03
   7099.33  5.9991523E-03
   7099.67  6.1661468E-03
   7100.00  6.3425793E-03
   7100.33  6.5307181E-03
   7100.67  6.7303701E-03
   7101.00  6.9426163E-03
   7101.33  7.1706545E-03
   7101.67  7.4144060E-03
   7102.00  7.6755292E-03
   7102.33  7.9587251E-03
   7102.67  8.2641972E-03
   7103.00  8.5946188E-03
   7103.33  8.9572618E-03
   7103.67  9.3530000E-03
   7104.00  9.7864103E-03
   7104.33  1.0269477E-02
   7104.67  1.0804693E-02
   7105.00  1.1400510E-02
   7105.33  1.2078331E-02
   7105.67  1.2844797E-02
   7106.00  1.3717102E-02
   7106.33  1.4737718E-02
   7106.67  1.5925018E-02
   7107.00  1.7318841E-02
   7107.33  1.9016474E-02
   7107.67  2.1074952E-02
   7108.00  2.3605164E-02
   7108.33  2.6881304E-02
   7108.67  3.1121573E-02
   7109.00  3.6733111E-02
   7109.33  4.4782823E-02
   7109.67  5.6461548E-02
   7110.00  7.4080777E-02
   7110.33  1.0433407E-01
   7110.67  1.5564444E-01
   7111.00  2.3727706E-01
   7111.33  3.4717579E-01
   7111.67  4.3374062E-01
   7112.00  4.2728548E-01
   7112.33  3.5116697E-01
   7112.67  2.9330014E-01
   7113.00  2.4903888E-01
   7113.33  1.9774396E-01
   7113.67  1.5327386E-01
   7114.00  1.2156129E-01
   7114.33  1.0081650E-01
   7114.67  8.6777618E-02
   7115.00  7.7474046E-02
   7115.33  7.2103413E-02
   7115.67  6.9759254E-02
   7116.00  7.0124037E-02
   7116.33  7.3287293E-02
   7116.67  7.8802979E-02
   7117.00  8.6335825E-02
   7117.33  9.4850118E-02
   7117.67  1.0263402E-01
   7118.00  1.0949724E-01
   7118.33  1.1689034E-01
   7118.67  1.2563610E-01
   7119.00  1.3556970E-01
   7119.33  1.4614286E-01
   7119.67  1.5672550E-01
   7120.00  1.6707427E-01
   7120.33  1.7720459E-01
   7120.67  1.8753502E-01
   7121.00  1.9869308E-01
   7121.33  2.1197391E-01
   7121.67  2.2849148E-01
   7122.00  2.4947959E-01
   7122.33  2.7664312E-01
   7122.67  3.0888441E-01
   7123.00  3.4397855E-01
   7123.33  3.7789653E-01
   7123.67  4.0811317E-01
   7124.00  4.3270178E-01
   7124.33  4.4490303E-01
   7124.67  4.4685485E-01
   7125.00  4.4855031E-01
   7125.33  4.5877931E-01
   7125.67  4.7760045E-01
   7126.00  5.0404046E-01
   7126.33  5.3693389E-01
   7126.67  5.7283328E-01
   7127.00  6.0936116E-01
   7127.33  6.4511019E-01
   7127.67  6.8098108E-01
   7128.00  7.1849608E-01
   7128.33  7.5803509E-01
   7128.67  7.9557113E-01
   7129.00  8.2508086E-01
   7129.33  8.3754089E-01
   7129.67  8.3197919E-01
   7130.00  8.1122695E-01
   7130.33  7.8134425E-01
   7130.67  7.5034023E-01
   7131.00  7.2255023E-01
   7131.33  7.0205636E-01
   7131.67  6.8964231E-01
   7132.00  6.8500672E-01
   7132.33  6.8660762E-01
   7132.67  6.9058542E-01
   7133.00  6.9453462E-01
   7133.33  6.9666256E-01
   7133.67  6.9697609E-01
   7134.00  6.9593333E-01
   7134.33  6.9387608E-01
   7134.67  6.9088509E-01
   7135.00  6.8663368E-01
   7135.33  6.8055404E-01
   7135.67  6.7287350E-01
   7136.00  6.6405481E-01
   7136.33  6.5496556E-01
   7136.67  6.4657217E-01
   7137.00  6.3946347E-01
   7137.33  6.3413836E-01
   7137.67  6.3031302E-01
   7138.00  6.2770529E-01
   7138.33  6.2599028E-01
   7138.67  6.2466528E-01
   7139.00  6.2346271E-01
   7139.33  6.2215206E-01
   7139.67  6.2059755E-01
   7140.00  6.1872341E-01
   7140.33  6.1643916E-01
   7140.67  6.1376955E-01
   7141.00  6.1069899E-01
   7141.33  6.0713981E-01
   7141.67  6.0308376E-01
   7142.00  5.9845015E-01
   7142.33  5.9303153E-01
   7142.67  5.8678502E-01
   7143.00  5.7961197E-01
   7143.33  5.7131335E-01
   7143.67  5.6200882E-01
   7144.00  5.5176347E-01
   7144.33  5.4063497E-01
   7144.67  5.2893141E-01
   7145.00  5.1685368E-01
   7145.33  5.0463752E-01
   7145.67  4.9255488E-01
   7146.00  4.8081740E-01
   7146.33  4.6972010E-01
   7146.67  4.5938326E-01
   7147.00  4.4994171E-01
   7147.33  4.4164225E-01
   7147.67  4.3443715E-01
   7148.00  4.2836203E-01
   7148.33  4.2356088E-01
   7148.67  4.1985219E-01
   7149.00  4.1716902E-01
   7149.33  4.1551331E-01
   7149.67  4.1463071E-01
   7150.00  4.1438694E-01
   7150.33  4.1467847E-01
   7150.67  4.1528166E-01
   7151.00  4.1605226E-01
   7151.33  4.1681742E-01
   7151.67  4.1739790E-01
   7152.00  4.1762603E-01
   7152.33  4.1723225E-01
   7152.67  4.1610942E-01
   7153.00  4.1414993E-01
   7153.33  4.1118058E-01
   7153.67  4.0733332E-01
   7154.00  4.0268165E-01
   7154.33  3.9727034E-01
   7154.67  3.9133880E-01
   7155.00  3.8502530E-01
   7155.33  3.7845418E-01
   7155.67  3.7179154E-01
   7156.00  3.6514192E-01
   7156.33  3.5862794E-01
   7156.67  3.5232893E-01
   7157.00  3.4631640E-01
   7157.33  3.4070584E-01
   7157.67  3.3551004E-01
   7158.00  3.3076755E-01
   7158.33  3.2656901E-01
   7158.67  3.2286783E-01
   7159.00  3.1966491E-01
   7159.33  3.1701242E-01
   7159.67  3.1483216E-01
   7160.00  3.1310705E-01
   7160.33  3.1187431E-01
   7160.67  3.1106673E-01
   7161.00  3.1067868E-01
   7161.33  3.1076369E-01
   7161.67  3.1127709E-01
   7162.00  3.1222828E-01
   7162.33  3.1368708E-01
   7162.67  3.1561275E-01
   7163.00  3.1801966E-01
   7163.33  3.2098659E-01
   7163.67  3.2446640E-01
   7164.00  3.2846918E-01
   7164.33  3.3306799E-01
   7164.67  3.3819801E-01
   7165.00  3.4385505E-01
   7165.33  3.5009069E-01
   7165.67  3.5681819E-01
   7166.00  3.6401006E-01
   7166.33  3.7167883E-01
   7166.67  3.7972197E-01
   7167.00  3.8808830E-01
   7167.33  3.9674470E-01
   7167.67  4.0559325E-01
   7168.00  4.1457619E-01
   7168.33  4.2363169E-01
   7168.67  4.3268023E-01
   7169.00  4.4166040E-01
   7169.33  4.5048385E-01
   7169.67  4.5909673E-01
   7170.00  4.6743642E-01
   7170.33  4.7538392E-01
   7170.67  4.8290130E-01
   7171.00  4.8990658E-01
   7171.33  4.9619123E-01
   7171.67  5.0163380E-01
   7172.00  5.0599287E-01
