    FDMNES
    energy     <xanes>
   7097.00  5.0028203E-03
   7097.33  5.1226633E-03
   7097.67  5.2479799E-03
   7098.00  5.3791384E-03
   7098.33  5.5174012E-03
   7098.67  5.6625048E-03
   7099.00  5.8149481E-03
   7099.33  5.9763748E-03
   7099.67  6.1465108E-03
   7100.00  6.3260481E-03
   7100.33  6.5171791E-03
   7100.67  6.7196395E-03
   7101.00  6.9344179E-03
   7101.33  7.1645218E-03
   7101.67  7.4097434E-03
   7102.00  7.6715431E-03
   7102.33  7.9541882E-03
   7102.67  8.2576307E-03
   7103.00  8.5841165E-03
   7103.33  8.9399545E-03
   7103.67  9.3254873E-03
   7104.00  9.7443460E-03
   7104.33  1.0206345E-02
   7104.67  1.0712761E-02
   7105.00  1.1269843E-02
   7105.33  1.1893892E-02
   7105.67  1.2588484E-02
   7106.00  1.3365304E-02
   7106.33  1.4253883E-02
   7106.67  1.5263949E-02
   7107.00  1.6419961E-02
   7107.33  1.7782439E-02
   7107.67  1.9379979E-02
   7108.00  2.1273124E-02
   7108.33  2.3611601E-02
   7108.67  2.6496994E-02
   7109.00  3.0125939E-02
   7109.33  3.5008281E-02
   7109.67  4.1663008E-02
   7110.00  5.1105427E-02
   7110.33  6.6216890E-02
   7110.67  9.0068321E-02
   7111.00  1.2375831E-01
   7111.33  1.5769651E-01
   7111.67  1.9028654E-01
   7112.00  2.3361922E-01
   7112.33  2.8427777E-01
   7112.67  3.3566330E-01
   7113.00  3.8850818E-01
   7113.33  4.3052765E-01
   7113.67  4.6102883E-01
   7114.00  4.9482755E-01
   7114.33  5.2975581E-01
   7114.67  5.0911485E-01
   7115.00  4.2499903E-01
   7115.33  3.3757553E-01
   7115.67  2.7708401E-01
   7116.00  2.4438772E-01
   7116.33  2.3673619E-01
   7116.67  2.3981934E-01
   7117.00  2.4105848E-01
   7117.33  2.3517124E-01
   7117.67  2.2423749E-01
   7118.00  2.0905278E-01
   7118.33  1.9475494E-01
   7118.67  1.8429982E-01
   7119.00  1.7681847E-01
   7119.33  1.7094466E-01
   7119.67  1.6544222E-01
   7120.00  1.5880156E-01
   7120.33  1.4940249E-01
   7120.67  1.3924369E-01
   7121.00  1.3095196E-01
   7121.33  1.2634726E-01
   7121.67  1.2501853E-01
   7122.00  1.2650857E-01
   7122.33  1.2997024E-01
   7122.67  1.3371708E-01
   7123.00  1.3674434E-01
   7123.33  1.3875701E-01
   7123.67  1.4048228E-01
   7124.00  1.4250197E-01
   7124.33  1.4538423E-01
   7124.67  1.4951140E-01
   7125.00  1.5536682E-01
   7125.33  1.6363242E-01
   7125.67  1.7425080E-01
   7126.00  1.8734271E-01
   7126.33  2.0329030E-01
   7126.67  2.2156873E-01
   7127.00  2.4162991E-01
   7127.33  2.6249740E-01
   7127.67  2.8281190E-01
   7128.00  3.0172645E-01
   7128.33  3.1905637E-01
   7128.67  3.3628507E-01
   7129.00  3.5508414E-01
   7129.33  3.7756507E-01
   7129.67  4.0441388E-01
   7130.00  4.3632450E-01
   7130.33  4.7466616E-01
   7130.67  5.1852924E-01
   7131.00  5.6653704E-01
   7131.33  6.1600849E-01
   7131.67  6.6371173E-01
   7132.00  7.0791666E-01
   7132.33  7.4782008E-01
   7132.67  7.8517271E-01
   7133.00  8.2188492E-01
   7133.33  8.6090633E-01
   7133.67  9.0472635E-01
   7134.00  9.5512635E-01
   7134.33  1.0125656E+00
   7134.67  1.0702910E+00
   7135.00  1.1167131E+00
   7135.33  1.1303615E+00
   7135.67  1.1036190E+00
   7136.00  1.0396798E+00
   7136.33  9.5121140E-01
   7136.67  8.5777724E-01
   7137.00  7.6918639E-01
   7137.33  6.9221896E-01
   7137.67  6.2695452E-01
   7138.00  5.7302800E-01
   7138.33  5.3074837E-01
   7138.67  4.9777078E-01
   7139.00  4.7325268E-01
   7139.33  4.5716892E-01
   7139.67  4.4758521E-01
   7140.00  4.4361398E-01
   7140.33  4.4477133E-01
   7140.67  4.4944738E-01
   7141.00  4.5679508E-01
   7141.33  4.6613828E-01
   7141.67  4.7648260E-01
   7142.00  4.8728285E-01
   7142.33  4.9805313E-01
   7142.67  5.0848360E-01
   7143.00  5.1843212E-01
   7143.33  5.2778374E-01
   7143.67  5.3663175E-01
   7144.00  5.4501695E-01
   7144.33  5.5291142E-01
   7144.67  5.6034378E-01
   7145.00  5.6724548E-01
   7145.33  5.7341559E-01
   7145.67  5.7879537E-01
   7146.00  5.8326950E-01
   7146.33  5.8660495E-01
   7146.67  5.8887779E-01
   7147.00  5.9010605E-01
   7147.33  5.9026577E-01
   7147.67  5.8964050E-01
   7148.00  5.8841694E-01
   7148.33  5.8679691E-01
   7148.67  5.8507200E-01
   7149.00  5.8344182E-01
   7149.33  5.8214662E-01
   7149.67  5.8130922E-01
   7150.00  5.8102703E-01
   7150.33  5.8143952E-01
   7150.67  5.8248184E-01
   7151.00  5.8413078E-01
   7151.33  5.8639489E-01
   7151.67  5.8913287E-01
   7152.00  5.9228810E-01
   7152.33  5.9585153E-01
   7152.67  5.9972936E-01
   7153.00  6.0387761E-01
   7153.33  6.0825501E-01
   7153.67  6.1273553E-01
   7154.00  6.1720304E-01
   7154.33  6.2147276E-01
   7154.67  6.2538393E-01
   7155.00  6.2878045E-01
   7155.33  6.3142628E-01
   7155.67  6.3331112E-01
   7156.00  6.3441551E-01
   7156.33  6.3469898E-01
   7156.67  6.3436835E-01
   7157.00  6.3355475E-01
   7157.33  6.3238116E-01
   7157.67  6.3103766E-01
   7158.00  6.2962926E-01
   7158.33  6.2824449E-01
   7158.67  6.2692458E-01
   7159.00  6.2567503E-01
   7159.33  6.2447509E-01
   7159.67  6.2326427E-01
   7160.00  6.2197850E-01
   7160.33  6.2051357E-01
   7160.67  6.1879808E-01
   7161.00  6.1674861E-01
   7161.33  6.1421725E-01
   7161.67  6.1117385E-01
   7162.00  6.0755938E-01
   7162.33  6.0324655E-01
   7162.67  5.9828751E-01
   7163.00  5.9268174E-01
   7163.33  5.8637316E-01
   7163.67  5.7948199E-01
   7164.00  5.7205738E-01
   7164.33  5.6410967E-01
   7164.67  5.5577426E-01
   7165.00  5.4712192E-01
   7165.33  5.3820785E-01
   7165.67  5.2914521E-01
   7166.00  5.2000415E-01
   7166.33  5.1086045E-01
   7166.67  5.0178218E-01
   7167.00  4.9282064E-01
   7167.33  4.8404647E-01
   7167.67  4.7547681E-01
   7168.00  4.6713578E-01
   7168.33  4.5907164E-01
   7168.67  4.5126032E-01
   7169.00  4.4370426E-01
   7169.33  4.3644238E-01
   7169.67  4.2944873E-01
   7170.00  4.2272817E-01
   7170.33  4.1633086E-01
   7170.67  4.1025258E-01
   7171.00  4.0454095E-01
   7171.33  3.9935018E-01
   7171.67  3.9479807E-01
   7172.00  3.9110849E-01
