    FDMNES
    energy     <xanes>
   7097.00  5.1776228E-03
   7097.33  5.3035014E-03
   7097.67  5.4353322E-03
   7098.00  5.5735372E-03
   7098.33  5.7195273E-03
   7098.67  5.8730487E-03
   7099.00  6.0346845E-03
   7099.33  6.2063052E-03
   7099.67  6.3876616E-03
   7100.00  6.5795827E-03
   7100.33  6.7846185E-03
   7100.67  7.0025613E-03
   7101.00  7.2346293E-03
   7101.33  7.4844162E-03
   7101.67  7.7518371E-03
   7102.00  8.0387533E-03
   7102.33  8.3504353E-03
   7102.67  8.6871002E-03
   7103.00  9.0517294E-03
   7103.33  9.4524378E-03
   7103.67  9.8901553E-03
   7104.00  1.0369941E-02
   7104.33  1.0905069E-02
   7104.67  1.1498177E-02
   7105.00  1.2158501E-02
   7105.33  1.2909488E-02
   7105.67  1.3758120E-02
   7106.00  1.4722922E-02
   7106.33  1.5849764E-02
   7106.67  1.7157794E-02
   7107.00  1.8689265E-02
   7107.33  2.0547512E-02
   7107.67  2.2791521E-02
   7108.00  2.5537194E-02
   7108.33  2.9071458E-02
   7108.67  3.3619825E-02
   7109.00  3.9606020E-02
   7109.33  4.8145571E-02
   7109.67  6.0494662E-02
   7110.00  7.9107558E-02
   7110.33  1.1101706E-01
   7110.67  1.6360351E-01
   7111.00  2.3841803E-01
   7111.33  3.1558596E-01
   7111.67  3.8325453E-01
   7112.00  4.4370862E-01
   7112.33  4.7407599E-01
   7112.67  4.5122030E-01
   7113.00  3.8884870E-01
   7113.33  3.2155117E-01
   7113.67  2.6695809E-01
   7114.00  2.2656801E-01
   7114.33  1.9888701E-01
   7114.67  1.7904938E-01
   7115.00  1.6442908E-01
   7115.33  1.5257576E-01
   7115.67  1.4114628E-01
   7116.00  1.3001066E-01
   7116.33  1.2098182E-01
   7116.67  1.1515045E-01
   7117.00  1.1259552E-01
   7117.33  1.1273185E-01
   7117.67  1.1376060E-01
   7118.00  1.1447310E-01
   7118.33  1.1437219E-01
   7118.67  1.1426380E-01
   7119.00  1.1500915E-01
   7119.33  1.1747474E-01
   7119.67  1.2164954E-01
   7120.00  1.2736042E-01
   7120.33  1.3437852E-01
   7120.67  1.4227880E-01
   7121.00  1.5105381E-01
   7121.33  1.6112842E-01
   7121.67  1.7285569E-01
   7122.00  1.8677158E-01
   7122.33  2.0387929E-01
   7122.67  2.2424588E-01
   7123.00  2.4780854E-01
   7123.33  2.7413078E-01
   7123.67  3.0155305E-01
   7124.00  3.2878851E-01
   7124.33  3.5454203E-01
   7124.67  3.7839467E-01
   7125.00  4.0008704E-01
   7125.33  4.1900844E-01
   7125.67  4.3526441E-01
   7126.00  4.4898819E-01
   7126.33  4.6049012E-01
   7126.67  4.7089018E-01
   7127.00  4.8108503E-01
   7127.33  4.9225377E-01
   7127.67  5.0522779E-01
   7128.00  5.2061627E-01
   7128.33  5.3913501E-01
   7128.67  5.6041380E-01
   7129.00  5.8412331E-01
   7129.33  6.0974189E-01
   7129.67  6.3602123E-01
   7130.00  6.6195175E-01
   7130.33  6.8626520E-01
   7130.67  7.0840813E-01
   7131.00  7.2818204E-01
   7131.33  7.4559555E-01
   7131.67  7.6149068E-01
   7132.00  7.7629445E-01
   7132.33  7.8986514E-01
   7132.67  8.0152652E-01
   7133.00  8.0999369E-01
   7133.33  8.1298330E-01
   7133.67  8.1000983E-01
   7134.00  8.0106502E-01
   7134.33  7.8663998E-01
   7134.67  7.6915278E-01
   7135.00  7.5022603E-01
   7135.33  7.3141405E-01
   7135.67  7.1369581E-01
   7136.00  6.9749476E-01
   7136.33  6.8312164E-01
   7136.67  6.7021747E-01
   7137.00  6.5856114E-01
   7137.33  6.4805144E-01
   7137.67  6.3846254E-01
   7138.00  6.2984831E-01
   7138.33  6.2255738E-01
   7138.67  6.1672712E-01
   7139.00  6.1260508E-01
   7139.33  6.1065353E-01
   7139.67  6.1072557E-01
   7140.00  6.1278936E-01
   7140.33  6.1689861E-01
   7140.67  6.2248661E-01
   7141.00  6.2911798E-01
   7141.33  6.3617369E-01
   7141.67  6.4282415E-01
   7142.00  6.4838670E-01
   7142.33  6.5196317E-01
   7142.67  6.5335081E-01
   7143.00  6.5244721E-01
   7143.33  6.4915860E-01
   7143.67  6.4414630E-01
   7144.00  6.3783652E-01
   7144.33  6.3062133E-01
   7144.67  6.2301360E-01
   7145.00  6.1526945E-01
   7145.33  6.0756879E-01
   7145.67  5.9996402E-01
   7146.00  5.9243591E-01
   7146.33  5.8492723E-01
   7146.67  5.7737816E-01
   7147.00  5.6976055E-01
   7147.33  5.6208021E-01
   7147.67  5.5441292E-01
   7148.00  5.4684983E-01
   7148.33  5.3954271E-01
   7148.67  5.3257949E-01
   7149.00  5.2603442E-01
   7149.33  5.2002236E-01
   7149.67  5.1451182E-01
   7150.00  5.0950786E-01
   7150.33  5.0506165E-01
   7150.67  5.0108911E-01
   7151.00  4.9756686E-01
   7151.33  4.9451976E-01
   7151.67  4.9187033E-01
   7152.00  4.8960220E-01
   7152.33  4.8774961E-01
   7152.67  4.8626228E-01
   7153.00  4.8514149E-01
   7153.33  4.8443830E-01
   7153.67  4.8411103E-01
   7154.00  4.8416000E-01
   7154.33  4.8462199E-01
   7154.67  4.8542681E-01
   7155.00  4.8653718E-01
   7155.33  4.8791794E-01
   7155.67  4.8945306E-01
   7156.00  4.9105560E-01
   7156.33  4.9260914E-01
   7156.67  4.9400518E-01
   7157.00  4.9514971E-01
   7157.33  4.9590071E-01
   7157.67  4.9622319E-01
   7158.00  4.9607282E-01
   7158.33  4.9535993E-01
   7158.67  4.9413875E-01
   7159.00  4.9241885E-01
   7159.33  4.9017106E-01
   7159.67  4.8749958E-01
   7160.00  4.8445322E-01
   7160.33  4.8105771E-01
   7160.67  4.7742195E-01
   7161.00  4.7360708E-01
   7161.33  4.6965830E-01
   7161.67  4.6564093E-01
   7162.00  4.6160482E-01
   7162.33  4.5761255E-01
   7162.67  4.5370898E-01
   7163.00  4.4992958E-01
   7163.33  4.4632816E-01
   7163.67  4.4291167E-01
   7164.00  4.3969741E-01
   7164.33  4.3672749E-01
   7164.67  4.3398546E-01
   7165.00  4.3147715E-01
   7165.33  4.2923579E-01
   7165.67  4.2723307E-01
   7166.00  4.2546814E-01
   7166.33  4.2396615E-01
   7166.67  4.2269154E-01
   7167.00  4.2163821E-01
   7167.33  4.2082714E-01
   7167.67  4.2022275E-01
   7168.00  4.1981285E-01
   7168.33  4.1960527E-01
   7168.67  4.1956250E-01
   7169.00  4.1967076E-01
   7169.33  4.1992922E-01
   7169.67  4.2030242E-01
   7170.00  4.2077378E-01
   7170.33  4.2133305E-01
   7170.67  4.2194882E-01
   7171.00  4.2259929E-01
   7171.33  4.2325101E-01
   7171.67  4.2385308E-01
   7172.00  4.2434466E-01
