    FDMNES
    energy     <xanes>
   7097.00  4.5014273E-03
   7097.33  4.5965913E-03
   7097.67  4.6956121E-03
   7098.00  4.7987305E-03
   7098.33  4.9068057E-03
   7098.67  5.0196295E-03
   7099.00  5.1375262E-03
   7099.33  5.2616019E-03
   7099.67  5.3916401E-03
   7100.00  5.5280905E-03
   7100.33  5.6724155E-03
   7100.67  5.8244065E-03
   7101.00  5.9847081E-03
   7101.33  6.1553189E-03
   7101.67  6.3360746E-03
   7102.00  6.5279379E-03
   7102.33  6.7337523E-03
   7102.67  6.9534813E-03
   7103.00  7.1886352E-03
   7103.33  7.4434686E-03
   7103.67  7.7182671E-03
   7104.00  8.0155504E-03
   7104.33  8.3421022E-03
   7104.67  8.6990084E-03
   7105.00  9.0908116E-03
   7105.33  9.5292555E-03
   7105.67  1.0017505E-02
   7106.00  1.0564618E-02
   7106.33  1.1193271E-02
   7106.67  1.1912571E-02
   7107.00  1.2743209E-02
   7107.33  1.3736127E-02
   7107.67  1.4920274E-02
   7108.00  1.6353074E-02
   7108.33  1.8177427E-02
   7108.67  2.0507338E-02
   7109.00  2.3557934E-02
   7109.33  2.7899867E-02
   7109.67  3.4190832E-02
   7110.00  4.3720849E-02
   7110.33  6.0166692E-02
   7110.67  8.6964971E-02
   7111.00  1.2328437E-01
   7111.33  1.6108165E-01
   7111.67  1.9462248E-01
   7112.00  2.1038612E-01
   7112.33  2.0286761E-01
   7112.67  1.8756040E-01
   7113.00  1.6420385E-01
   7113.33  1.3622299E-01
   7113.67  1.1419805E-01
   7114.00  9.7772036E-02
   7114.33  8.4498384E-02
   7114.67  7.6088482E-02
   7115.00  7.1965102E-02
   7115.33  6.8206198E-02
   7115.67  6.3358590E-02
   7116.00  5.9021604E-02
   7116.33  5.6978704E-02
   7116.67  5.7315045E-02
   7117.00  6.0033086E-02
   7117.33  6.5630750E-02
   7117.67  7.4312470E-02
   7118.00  8.6783805E-02
   7118.33  1.0451019E-01
   7118.67  1.2749165E-01
   7119.00  1.5593102E-01
   7119.33  1.9065663E-01
   7119.67  2.3074272E-01
   7120.00  2.7534114E-01
   7120.33  3.2434860E-01
   7120.67  3.7798337E-01
   7121.00  4.3565663E-01
   7121.33  4.9277784E-01
   7121.67  5.4231771E-01
   7122.00  5.7777440E-01
   7122.33  5.8889618E-01
   7122.67  5.7418092E-01
   7123.00  5.3758844E-01
   7123.33  4.9219227E-01
   7123.67  4.5361784E-01
   7124.00  4.2753633E-01
   7124.33  4.1388205E-01
   7124.67  4.0656772E-01
   7125.00  4.0265879E-01
   7125.33  4.0157087E-01
   7125.67  4.0357003E-01
   7126.00  4.0900803E-01
   7126.33  4.1792385E-01
   7126.67  4.2925084E-01
   7127.00  4.4252527E-01
   7127.33  4.5713539E-01
   7127.67  4.7131993E-01
   7128.00  4.8327022E-01
   7128.33  4.9097398E-01
   7128.67  4.9469819E-01
   7129.00  4.9524856E-01
   7129.33  4.9389958E-01
   7129.67  4.9233842E-01
   7130.00  4.9146960E-01
   7130.33  4.9184844E-01
   7130.67  4.9322868E-01
   7131.00  4.9558181E-01
   7131.33  4.9960338E-01
   7131.67  5.0587909E-01
   7132.00  5.1489627E-01
   7132.33  5.2741133E-01
   7132.67  5.4329744E-01
   7133.00  5.6257566E-01
   7133.33  5.8496228E-01
   7133.67  6.0831273E-01
   7134.00  6.3006280E-01
   7134.33  6.4611979E-01
   7134.67  6.5468134E-01
   7135.00  6.5547929E-01
   7135.33  6.4928040E-01
   7135.67  6.3911876E-01
   7136.00  6.2687270E-01
   7136.33  6.1439116E-01
   7136.67  6.0292456E-01
   7137.00  5.9290001E-01
   7137.33  5.8444136E-01
   7137.67  5.7703018E-01
   7138.00  5.7034495E-01
   7138.33  5.6420161E-01
   7138.67  5.5848761E-01
   7139.00  5.5327988E-01
   7139.33  5.4880110E-01
   7139.67  5.4509559E-01
   7140.00  5.4224109E-01
   7140.33  5.4039982E-01
   7140.67  5.3946758E-01
   7141.00  5.3942707E-01
   7141.33  5.4033148E-01
   7141.67  5.4196280E-01
   7142.00  5.4415106E-01
   7142.33  5.4665701E-01
   7142.67  5.4916101E-01
   7143.00  5.5149134E-01
   7143.33  5.5356401E-01
   7143.67  5.5549523E-01
   7144.00  5.5742443E-01
   7144.33  5.5954159E-01
   7144.67  5.6195309E-01
   7145.00  5.6471649E-01
   7145.33  5.6788196E-01
   7145.67  5.7134996E-01
   7146.00  5.7503826E-01
   7146.33  5.7886118E-01
   7146.67  5.8271072E-01
   7147.00  5.8650510E-01
   7147.33  5.9012591E-01
   7147.67  5.9349369E-01
   7148.00  5.9652732E-01
   7148.33  5.9908908E-01
   7148.67  6.0116133E-01
   7149.00  6.0269912E-01
   7149.33  6.0360287E-01
   7149.67  6.0394359E-01
   7150.00  6.0374720E-01
   7150.33  6.0301325E-01
   7150.67  6.0188484E-01
   7151.00  6.0044346E-01
   7151.33  5.9875786E-01
   7151.67  5.9692569E-01
   7152.00  5.9497428E-01
   7152.33  5.9291471E-01
   7152.67  5.9076873E-01
   7153.00  5.8852448E-01
   7153.33  5.8612690E-01
   7153.67  5.8354507E-01
   7154.00  5.8074252E-01
   7154.33  5.7764958E-01
   7154.67  5.7427706E-01
   7155.00  5.7062664E-01
   7155.33  5.6669215E-01
   7155.67  5.6255122E-01
   7156.00  5.5825416E-01
   7156.33  5.5385197E-01
   7156.67  5.4941497E-01
   7157.00  5.4498335E-01
   7157.33  5.4059090E-01
   7157.67  5.3625499E-01
   7158.00  5.3199157E-01
   7158.33  5.2782286E-01
   7158.67  5.2374220E-01
   7159.00  5.1974498E-01
   7159.33  5.1581726E-01
   7159.67  5.1189647E-01
   7160.00  5.0790612E-01
   7160.33  5.0372243E-01
   7160.67  4.9928251E-01
   7161.00  4.9454949E-01
   7161.33  4.8949199E-01
   7161.67  4.8419347E-01
   7162.00  4.7871865E-01
   7162.33  4.7314896E-01
   7162.67  4.6759547E-01
   7163.00  4.6214518E-01
   7163.33  4.5692081E-01
   7163.67  4.5198766E-01
   7164.00  4.4741472E-01
   7164.33  4.4332321E-01
   7164.67  4.3971283E-01
   7165.00  4.3661660E-01
   7165.33  4.3412294E-01
   7165.67  4.3216617E-01
   7166.00  4.3073134E-01
   7166.33  4.2984379E-01
   7166.67  4.2938934E-01
   7167.00  4.2930984E-01
   7167.33  4.2956305E-01
   7167.67  4.3002554E-01
   7168.00  4.3062205E-01
   7168.33  4.3127456E-01
   7168.67  4.3189994E-01
   7169.00  4.3244000E-01
   7169.33  4.3281890E-01
   7169.67  4.3300820E-01
   7170.00  4.3297835E-01
   7170.33  4.3267875E-01
   7170.67  4.3213724E-01
   7171.00  4.3137203E-01
   7171.33  4.3041799E-01
   7171.67  4.2940957E-01
   7172.00  4.2849969E-01
