    FDMNES
    energy     <xanes>
   7097.00  4.1352588E-03
   7097.33  4.2150019E-03
   7097.67  4.2976584E-03
   7098.00  4.3833963E-03
   7098.33  4.4728427E-03
   7098.67  4.5658234E-03
   7099.00  4.6625626E-03
   7099.33  4.7638558E-03
   7099.67  4.8695200E-03
   7100.00  4.9798634E-03
   7100.33  5.0959229E-03
   7100.67  5.2175176E-03
   7101.00  5.3450860E-03
   7101.33  5.4800260E-03
   7101.67  5.6221832E-03
   7102.00  5.7722081E-03
   7102.33  5.9320664E-03
   7102.67  6.1016858E-03
   7103.00  6.2820828E-03
   7103.33  6.4761696E-03
   7103.67  6.6840866E-03
   7104.00  6.9075268E-03
   7104.33  7.1510994E-03
   7104.67  7.4154816E-03
   7105.00  7.7037258E-03
   7105.33  8.0237775E-03
   7105.67  8.3777188E-03
   7106.00  8.7716496E-03
   7106.33  9.2208981E-03
   7106.67  9.7315847E-03
   7107.00  1.0317702E-02
   7107.33  1.1013761E-02
   7107.67  1.1839435E-02
   7108.00  1.2833775E-02
   7108.33  1.4094057E-02
   7108.67  1.5698258E-02
   7109.00  1.7793444E-02
   7109.33  2.0769801E-02
   7109.67  2.5077992E-02
   7110.00  3.1603969E-02
   7110.33  4.2927439E-02
   7110.67  6.1978355E-02
   7111.00  8.9710920E-02
   7111.33  1.1451294E-01
   7111.67  1.2603606E-01
   7112.00  1.2965700E-01
   7112.33  1.3074191E-01
   7112.67  1.2110567E-01
   7113.00  1.0491139E-01
   7113.33  9.6146626E-02
   7113.67  9.5724589E-02
   7114.00  9.2869854E-02
   7114.33  8.0552446E-02
   7114.67  6.6055251E-02
   7115.00  5.3241150E-02
   7115.33  4.4362685E-02
   7115.67  3.8870129E-02
   7116.00  3.5905597E-02
   7116.33  3.4836635E-02
   7116.67  3.4944306E-02
   7117.00  3.5873673E-02
   7117.33  3.7123550E-02
   7117.67  3.8151967E-02
   7118.00  3.8934448E-02
   7118.33  3.9923344E-02
   7118.67  4.1532141E-02
   7119.00  4.3992914E-02
   7119.33  4.7656441E-02
   7119.67  5.2679437E-02
   7120.00  5.9447337E-02
   7120.33  6.8960499E-02
   7120.67  8.1928419E-02
   7121.00  9.9374882E-02
   7121.33  1.2267741E-01
   7121.67  1.5034369E-01
   7122.00  1.8028502E-01
   7122.33  2.0999630E-01
   7122.67  2.3850401E-01
   7123.00  2.6596909E-01
   7123.33  2.9070681E-01
   7123.67  3.0936377E-01
   7124.00  3.2109274E-01
   7124.33  3.3063964E-01
   7124.67  3.4471653E-01
   7125.00  3.6619346E-01
   7125.33  3.9724416E-01
   7125.67  4.3679253E-01
   7126.00  4.8360834E-01
   7126.33  5.3396596E-01
   7126.67  5.8091821E-01
   7127.00  6.2046423E-01
   7127.33  6.5379058E-01
   7127.67  6.8807905E-01
   7128.00  7.2722344E-01
   7128.33  7.7215290E-01
   7128.67  8.1879058E-01
   7129.00  8.6218654E-01
   7129.33  8.9831197E-01
   7129.67  9.2843752E-01
   7130.00  9.5165563E-01
   7130.33  9.6401753E-01
   7130.67  9.6648921E-01
   7131.00  9.6150780E-01
   7131.33  9.5240687E-01
   7131.67  9.4289054E-01
   7132.00  9.3461349E-01
   7132.33  9.2793887E-01
   7132.67  9.2131581E-01
   7133.00  9.1303389E-01
   7133.33  9.0101167E-01
   7133.67  8.8498966E-01
   7134.00  8.6527048E-01
   7134.33  8.4243249E-01
   7134.67  8.1769025E-01
   7135.00  7.9150190E-01
   7135.33  7.6412431E-01
   7135.67  7.3619978E-01
   7136.00  7.0835342E-01
   7136.33  6.8158670E-01
   7136.67  6.5665351E-01
   7137.00  6.3414864E-01
   7137.33  6.1484011E-01
   7137.67  5.9849819E-01
   7138.00  5.8505692E-01
   7138.33  5.7463413E-01
   7138.67  5.6655918E-01
   7139.00  5.6045894E-01
   7139.33  5.5598765E-01
   7139.67  5.5238143E-01
   7140.00  5.4917095E-01
   7140.33  5.4595397E-01
   7140.67  5.4251726E-01
   7141.00  5.3880597E-01
   7141.33  5.3481752E-01
   7141.67  5.3065558E-01
   7142.00  5.2640438E-01
   7142.33  5.2220208E-01
   7142.67  5.1821928E-01
   7143.00  5.1463152E-01
   7143.33  5.1172377E-01
   7143.67  5.0961448E-01
   7144.00  5.0843792E-01
   7144.33  5.0843180E-01
   7144.67  5.0952850E-01
   7145.00  5.1174911E-01
   7145.33  5.1522368E-01
   7145.67  5.1976934E-01
   7146.00  5.2531419E-01
   7146.33  5.3180249E-01
   7146.67  5.3882125E-01
   7147.00  5.4596837E-01
   7147.33  5.5256034E-01
   7147.67  5.5794354E-01
   7148.00  5.6156232E-01
   7148.33  5.6267690E-01
   7148.67  5.6136496E-01
   7149.00  5.5766774E-01
   7149.33  5.5154578E-01
   7149.67  5.4360173E-01
   7150.00  5.3413762E-01
   7150.33  5.2330490E-01
   7150.67  5.1147883E-01
   7151.00  4.9879531E-01
   7151.33  4.8528837E-01
   7151.67  4.7118971E-01
   7152.00  4.5666124E-01
   7152.33  4.4189119E-01
   7152.67  4.2714093E-01
   7153.00  4.1262015E-01
   7153.33  3.9861195E-01
   7153.67  3.8524151E-01
   7154.00  3.7261703E-01
   7154.33  3.6090397E-01
   7154.67  3.5000776E-01
   7155.00  3.3990217E-01
   7155.33  3.3063144E-01
   7155.67  3.2205539E-01
   7156.00  3.1414661E-01
   7156.33  3.0697381E-01
   7156.67  3.0045878E-01
   7157.00  2.9461173E-01
   7157.33  2.8952786E-01
   7157.67  2.8512570E-01
   7158.00  2.8140088E-01
   7158.33  2.7842429E-01
   7158.67  2.7609865E-01
   7159.00  2.7441629E-01
   7159.33  2.7346065E-01
   7159.67  2.7316993E-01
   7160.00  2.7357236E-01
   7160.33  2.7479826E-01
   7160.67  2.7678992E-01
   7161.00  2.7956476E-01
   7161.33  2.8321959E-01
   7161.67  2.8762449E-01
   7162.00  2.9272337E-01
   7162.33  2.9849891E-01
   7162.67  3.0476735E-01
   7163.00  3.1142884E-01
   7163.33  3.1840612E-01
   7163.67  3.2555909E-01
   7164.00  3.3280388E-01
   7164.33  3.4005139E-01
   7164.67  3.4721883E-01
   7165.00  3.5424137E-01
   7165.33  3.6102779E-01
   7165.67  3.6755161E-01
   7166.00  3.7377776E-01
   7166.33  3.7963712E-01
   7166.67  3.8515497E-01
   7167.00  3.9032780E-01
   7167.33  3.9512040E-01
   7167.67  3.9959188E-01
   7168.00  4.0376237E-01
   7168.33  4.0762527E-01
   7168.67  4.1124386E-01
   7169.00  4.1464244E-01
   7169.33  4.1782260E-01
   7169.67  4.2083008E-01
   7170.00  4.2367884E-01
   7170.33  4.2636061E-01
   7170.67  4.2889592E-01
   7171.00  4.3127655E-01
   7171.33  4.3344963E-01
   7171.67  4.3536934E-01
   7172.00  4.3693902E-01
