    FDMNES
    energy     <xanes>
   7097.00  4.1206008E-03
   7097.33  4.2010379E-03
   7097.67  4.2845068E-03
   7098.00  4.3711898E-03
   7098.33  4.4617513E-03
   7098.67  4.5560196E-03
   7099.00  4.6542398E-03
   7099.33  4.7572629E-03
   7099.67  4.8649109E-03
   7100.00  4.9775239E-03
   7100.33  5.0962230E-03
   7100.67  5.2208369E-03
   7101.00  5.3518542E-03
   7101.33  5.4908038E-03
   7101.67  5.6375503E-03
   7102.00  5.7928262E-03
   7102.33  5.9588069E-03
   7102.67  6.1354592E-03
   7103.00  6.3239387E-03
   7103.33  6.5275078E-03
   7103.67  6.7463901E-03
   7104.00  6.9825274E-03
   7104.33  7.2411456E-03
   7104.67  7.5231077E-03
   7105.00  7.8319431E-03
   7105.33  8.1767630E-03
   7105.67  8.5600960E-03
   7106.00  8.9890467E-03
   7106.33  9.4813769E-03
   7106.67  1.0044401E-02
   7107.00  1.0694536E-02
   7107.33  1.1472174E-02
   7107.67  1.2400777E-02
   7108.00  1.3526585E-02
   7108.33  1.4964863E-02
   7108.67  1.6809532E-02
   7109.00  1.9237769E-02
   7109.33  2.2722412E-02
   7109.67  2.7821004E-02
   7110.00  3.5632432E-02
   7110.33  4.9301275E-02
   7110.67  7.1637549E-02
   7111.00  1.0066633E-01
   7111.33  1.2322546E-01
   7111.67  1.3713167E-01
   7112.00  1.4930570E-01
   7112.33  1.6503570E-01
   7112.67  1.6376929E-01
   7113.00  1.3835156E-01
   7113.33  1.1587093E-01
   7113.67  1.0219213E-01
   7114.00  8.8078901E-02
   7114.33  7.2775638E-02
   7114.67  6.0853007E-02
   7115.00  5.2030605E-02
   7115.33  4.4651496E-02
   7115.67  3.9337579E-02
   7116.00  3.6198145E-02
   7116.33  3.4828694E-02
   7116.67  3.4508523E-02
   7117.00  3.4900422E-02
   7117.33  3.5713821E-02
   7117.67  3.6672003E-02
   7118.00  3.7747219E-02
   7118.33  3.9127276E-02
   7118.67  4.1012194E-02
   7119.00  4.3607486E-02
   7119.33  4.7302609E-02
   7119.67  5.2342474E-02
   7120.00  5.9194483E-02
   7120.33  6.9018716E-02
   7120.67  8.2669578E-02
   7121.00  1.0130055E-01
   7121.33  1.2623633E-01
   7121.67  1.5460130E-01
   7122.00  1.8171949E-01
   7122.33  2.0211143E-01
   7122.67  2.1638990E-01
   7123.00  2.2659788E-01
   7123.33  2.3447469E-01
   7123.67  2.4192308E-01
   7124.00  2.5073535E-01
   7124.33  2.6367593E-01
   7124.67  2.8235116E-01
   7125.00  3.0836010E-01
   7125.33  3.4367412E-01
   7125.67  3.8615784E-01
   7126.00  4.3324968E-01
   7126.33  4.8152967E-01
   7126.67  5.2758456E-01
   7127.00  5.6817102E-01
   7127.33  5.9901415E-01
   7127.67  6.2374898E-01
   7128.00  6.4848170E-01
   7128.33  6.7761725E-01
   7128.67  7.1011108E-01
   7129.00  7.4322692E-01
   7129.33  7.7078398E-01
   7129.67  7.8929629E-01
   7130.00  7.9953619E-01
   7130.33  8.0539168E-01
   7130.67  8.1167597E-01
   7131.00  8.2060977E-01
   7131.33  8.3362069E-01
   7131.67  8.4989629E-01
   7132.00  8.6822110E-01
   7132.33  8.8631494E-01
   7132.67  9.0145690E-01
   7133.00  9.1132181E-01
   7133.33  9.1301409E-01
   7133.67  9.0705761E-01
   7134.00  8.9463879E-01
   7134.33  8.7741445E-01
   7134.67  8.5756577E-01
   7135.00  8.3580901E-01
   7135.33  8.1259921E-01
   7135.67  7.8882262E-01
   7136.00  7.6512443E-01
   7136.33  7.4221431E-01
   7136.67  7.2043508E-01
   7137.00  7.0001893E-01
   7137.33  6.8128469E-01
   7137.67  6.6403088E-01
   7138.00  6.4812919E-01
   7138.33  6.3346070E-01
   7138.67  6.1959862E-01
   7139.00  6.0635016E-01
   7139.33  5.9369713E-01
   7139.67  5.8166097E-01
   7140.00  5.7042834E-01
   7140.33  5.6042101E-01
   7140.67  5.5180065E-01
   7141.00  5.4479942E-01
   7141.33  5.3987426E-01
   7141.67  5.3697331E-01
   7142.00  5.3621887E-01
   7142.33  5.3799540E-01
   7142.67  5.4205328E-01
   7143.00  5.4832911E-01
   7143.33  5.5685837E-01
   7143.67  5.6699722E-01
   7144.00  5.7826752E-01
   7144.33  5.9005347E-01
   7144.67  6.0159303E-01
   7145.00  6.1234622E-01
   7145.33  6.2168334E-01
   7145.67  6.2946961E-01
   7146.00  6.3555433E-01
   7146.33  6.3959364E-01
   7146.67  6.4174043E-01
   7147.00  6.4195541E-01
   7147.33  6.3999521E-01
   7147.67  6.3618139E-01
   7148.00  6.3066580E-01
   7148.33  6.2353571E-01
   7148.67  6.1529135E-01
   7149.00  6.0619761E-01
   7149.33  5.9640483E-01
   7149.67  5.8611093E-01
   7150.00  5.7535818E-01
   7150.33  5.6408196E-01
   7150.67  5.5230147E-01
   7151.00  5.3999115E-01
   7151.33  5.2709899E-01
   7151.67  5.1374650E-01
   7152.00  5.0001847E-01
   7152.33  4.8602668E-01
   7152.67  4.7197353E-01
   7153.00  4.5801771E-01
   7153.33  4.4436904E-01
   7153.67  4.3114268E-01
   7154.00  4.1843806E-01
   7154.33  4.0640646E-01
   7154.67  3.9500586E-01
   7155.00  3.8423328E-01
   7155.33  3.7413164E-01
   7155.67  3.6457653E-01
   7156.00  3.5552026E-01
   7156.33  3.4696566E-01
   7156.67  3.3881380E-01
   7157.00  3.3103780E-01
   7157.33  3.2366401E-01
   7157.67  3.1664777E-01
   7158.00  3.1000629E-01
   7158.33  3.0382988E-01
   7158.67  2.9812113E-01
   7159.00  2.9293275E-01
   7159.33  2.8839511E-01
   7159.67  2.8448159E-01
   7160.00  2.8121756E-01
   7160.33  2.7869814E-01
   7160.67  2.7683751E-01
   7161.00  2.7562462E-01
   7161.33  2.7511947E-01
   7161.67  2.7522122E-01
   7162.00  2.7591526E-01
   7162.33  2.7726734E-01
   7162.67  2.7920455E-01
   7163.00  2.8172995E-01
   7163.33  2.8491476E-01
   7163.67  2.8867158E-01
   7164.00  2.9297625E-01
   7164.33  2.9784826E-01
   7164.67  3.0316534E-01
   7165.00  3.0886679E-01
   7165.33  3.1491483E-01
   7165.67  3.2119441E-01
   7166.00  3.2764345E-01
   7166.33  3.3421039E-01
   7166.67  3.4082478E-01
   7167.00  3.4744223E-01
   7167.33  3.5401402E-01
   7167.67  3.6051034E-01
   7168.00  3.6690725E-01
   7168.33  3.7316834E-01
   7168.67  3.7929340E-01
   7169.00  3.8527361E-01
   7169.33  3.9108511E-01
   7169.67  3.9674513E-01
   7170.00  4.0225293E-01
   7170.33  4.0758478E-01
   7170.67  4.1274395E-01
   7171.00  4.1769542E-01
   7171.33  4.2231179E-01
   7171.67  4.2644134E-01
   7172.00  4.2982512E-01
