    FDMNES
    energy     <xanes>
   7097.00  5.2125804E-03
   7097.33  5.3411558E-03
   7097.67  5.4758015E-03
   7098.00  5.6169408E-03
   7098.33  5.7659990E-03
   7098.67  5.9227055E-03
   7099.00  6.0876405E-03
   7099.33  6.2626813E-03
   7099.67  6.4475554E-03
   7100.00  6.6430799E-03
   7100.33  6.8517937E-03
   7100.67  7.0734545E-03
   7101.00  7.3092504E-03
   7101.33  7.5627244E-03
   7101.67  7.8337353E-03
   7102.00  8.1240769E-03
   7102.33  8.4388844E-03
   7102.67  8.7782747E-03
   7103.00  9.1450813E-03
   7103.33  9.5470999E-03
   7103.67  9.9850627E-03
   7104.00  1.0463702E-02
   7104.33  1.0995555E-02
   7104.67  1.1582829E-02
   7105.00  1.2233999E-02
   7105.33  1.2970772E-02
   7105.67  1.3799061E-02
   7106.00  1.4735495E-02
   7106.33  1.5821495E-02
   7106.67  1.7073190E-02
   7107.00  1.8527463E-02
   7107.33  2.0274746E-02
   7107.67  2.2363712E-02
   7108.00  2.4891883E-02
   7108.33  2.8099960E-02
   7108.67  3.2167171E-02
   7109.00  3.7431844E-02
   7109.33  4.4774289E-02
   7109.67  5.5134997E-02
   7110.00  7.0337024E-02
   7110.33  9.5546865E-02
   7110.67  1.3633858E-01
   7111.00  1.9586983E-01
   7111.33  2.6998207E-01
   7111.67  3.6123884E-01
   7112.00  4.6184212E-01
   7112.33  4.8969904E-01
   7112.67  4.3161406E-01
   7113.00  3.5189258E-01
   7113.33  2.9559512E-01
   7113.67  2.6565357E-01
   7114.00  2.5560394E-01
   7114.33  2.5128927E-01
   7114.67  2.4156773E-01
   7115.00  2.2487485E-01
   7115.33  2.0521582E-01
   7115.67  1.8962493E-01
   7116.00  1.8250930E-01
   7116.33  1.8755551E-01
   7116.67  2.0244290E-01
   7117.00  2.2260029E-01
   7117.33  2.3964371E-01
   7117.67  2.4888814E-01
   7118.00  2.4922171E-01
   7118.33  2.4233827E-01
   7118.67  2.3377329E-01
   7119.00  2.2601796E-01
   7119.33  2.2160418E-01
   7119.67  2.2280017E-01
   7120.00  2.3124175E-01
   7120.33  2.4722261E-01
   7120.67  2.6542051E-01
   7121.00  2.7940398E-01
   7121.33  2.8327590E-01
   7121.67  2.8130132E-01
   7122.00  2.7903834E-01
   7122.33  2.8033369E-01
   7122.67  2.8438140E-01
   7123.00  2.8990014E-01
   7123.33  2.9636374E-01
   7123.67  3.0371122E-01
   7124.00  3.1213020E-01
   7124.33  3.2217879E-01
   7124.67  3.3413049E-01
   7125.00  3.4866736E-01
   7125.33  3.6697375E-01
   7125.67  3.8786228E-01
   7126.00  4.0894738E-01
   7126.33  4.2615890E-01
   7126.67  4.3697518E-01
   7127.00  4.4100483E-01
   7127.33  4.4042880E-01
   7127.67  4.3883548E-01
   7128.00  4.3756550E-01
   7128.33  4.3829765E-01
   7128.67  4.4284253E-01
   7129.00  4.5225771E-01
   7129.33  4.6629408E-01
   7129.67  4.8218657E-01
   7130.00  4.9801832E-01
   7130.33  5.1220119E-01
   7130.67  5.2442187E-01
   7131.00  5.3477122E-01
   7131.33  5.4325535E-01
   7131.67  5.5002942E-01
   7132.00  5.5492788E-01
   7132.33  5.5753004E-01
   7132.67  5.5820107E-01
   7133.00  5.5769914E-01
   7133.33  5.5781392E-01
   7133.67  5.6048262E-01
   7134.00  5.6724785E-01
   7134.33  5.7983599E-01
   7134.67  5.9708787E-01
   7135.00  6.1710235E-01
   7135.33  6.3670952E-01
   7135.67  6.5332653E-01
   7136.00  6.6606512E-01
   7136.33  6.7508700E-01
   7136.67  6.8224126E-01
   7137.00  6.8868806E-01
   7137.33  6.9513955E-01
   7137.67  7.0149833E-01
   7138.00  7.0718335E-01
   7138.33  7.1114287E-01
   7138.67  7.1303242E-01
   7139.00  7.1293940E-01
   7139.33  7.1135173E-01
   7139.67  7.0923734E-01
   7140.00  7.0706690E-01
   7140.33  7.0497960E-01
   7140.67  7.0270327E-01
   7141.00  6.9983748E-01
   7141.33  6.9577629E-01
   7141.67  6.9034637E-01
   7142.00  6.8348801E-01
   7142.33  6.7515693E-01
   7142.67  6.6570577E-01
   7143.00  6.5526838E-01
   7143.33  6.4385398E-01
   7143.67  6.3170452E-01
   7144.00  6.1897462E-01
   7144.33  6.0582735E-01
   7144.67  5.9251115E-01
   7145.00  5.7916757E-01
   7145.33  5.6593295E-01
   7145.67  5.5290134E-01
   7146.00  5.4017339E-01
   7146.33  5.2794777E-01
   7146.67  5.1634075E-01
   7147.00  5.0551849E-01
   7147.33  4.9580409E-01
   7147.67  4.8725664E-01
   7148.00  4.7999464E-01
   7148.33  4.7425663E-01
   7148.67  4.6985021E-01
   7149.00  4.6668585E-01
   7149.33  4.6473432E-01
   7149.67  4.6365317E-01
   7150.00  4.6324575E-01
   7150.33  4.6333199E-01
   7150.67  4.6362752E-01
   7151.00  4.6394567E-01
   7151.33  4.6406245E-01
   7151.67  4.6382129E-01
   7152.00  4.6309883E-01
   7152.33  4.6172887E-01
   7152.67  4.5973418E-01
   7153.00  4.5710208E-01
   7153.33  4.5377846E-01
   7153.67  4.4990594E-01
   7154.00  4.4557229E-01
   7154.33  4.4086463E-01
   7154.67  4.3596884E-01
   7155.00  4.3101090E-01
   7155.33  4.2613910E-01
   7155.67  4.2146650E-01
   7156.00  4.1708137E-01
   7156.33  4.1310970E-01
   7156.67  4.0955938E-01
   7157.00  4.0645548E-01
   7157.33  4.0385905E-01
   7157.67  4.0169258E-01
   7158.00  3.9991975E-01
   7158.33  3.9852242E-01
   7158.67  3.9738596E-01
   7159.00  3.9644521E-01
   7159.33  3.9564409E-01
   7159.67  3.9490349E-01
   7160.00  3.9418175E-01
   7160.33  3.9345299E-01
   7160.67  3.9271315E-01
   7161.00  3.9196808E-01
   7161.33  3.9123235E-01
   7161.67  3.9052645E-01
   7162.00  3.8987742E-01
   7162.33  3.8933853E-01
   7162.67  3.8894809E-01
   7163.00  3.8875461E-01
   7163.33  3.8884599E-01
   7163.67  3.8923827E-01
   7164.00  3.8996001E-01
   7164.33  3.9106779E-01
   7164.67  3.9250781E-01
   7165.00  3.9425035E-01
   7165.33  3.9627113E-01
   7165.67  3.9846934E-01
   7166.00  4.0078089E-01
   7166.33  4.0314147E-01
   7166.67  4.0549000E-01
   7167.00  4.0779509E-01
   7167.33  4.1003535E-01
   7167.67  4.1222774E-01
   7168.00  4.1439664E-01
   7168.33  4.1658574E-01
   7168.67  4.1884119E-01
   7169.00  4.2120412E-01
   7169.33  4.2373446E-01
   7169.67  4.2644252E-01
   7170.00  4.2933936E-01
   7170.33  4.3244105E-01
   7170.67  4.3569111E-01
   7171.00  4.3903047E-01
   7171.33  4.4233257E-01
   7171.67  4.4538821E-01
   7172.00  4.4793075E-01
