    FDMNES
    energy     <xanes>
   7097.00  5.2537280E-03
   7097.33  5.3819025E-03
   7097.67  5.5160740E-03
   7098.00  5.6566574E-03
   7098.33  5.8050553E-03
   7098.67  5.9609960E-03
   7099.00  6.1250469E-03
   7099.33  6.2990516E-03
   7099.67  6.4827347E-03
   7100.00  6.6768938E-03
   7100.33  6.8840161E-03
   7100.67  7.1038532E-03
   7101.00  7.3375619E-03
   7101.33  7.5886040E-03
   7101.67  7.8568254E-03
   7102.00  8.1439679E-03
   7102.33  8.4550343E-03
   7102.67  8.7901140E-03
   7103.00  9.1519506E-03
   7103.33  9.5481139E-03
   7103.67  9.9792774E-03
   7104.00  1.0450008E-02
   7104.33  1.0972438E-02
   7104.67  1.1548640E-02
   7105.00  1.2186770E-02
   7105.33  1.2907751E-02
   7105.67  1.3717182E-02
   7106.00  1.4631008E-02
   7106.33  1.5689008E-02
   7106.67  1.6906497E-02
   7107.00  1.8318746E-02
   7107.33  2.0012314E-02
   7107.67  2.2033528E-02
   7108.00  2.4475522E-02
   7108.33  2.7568398E-02
   7108.67  3.1483492E-02
   7109.00  3.6544938E-02
   7109.33  4.3598119E-02
   7109.67  5.3552211E-02
   7110.00  6.8173091E-02
   7110.33  9.2439360E-02
   7110.67  1.3129640E-01
   7111.00  1.8592763E-01
   7111.33  2.5262703E-01
   7111.67  3.4000388E-01
   7112.00  4.3348231E-01
   7112.33  4.5931045E-01
   7112.67  4.1756020E-01
   7113.00  3.4999722E-01
   7113.33  2.9762378E-01
   7113.67  2.7054326E-01
   7114.00  2.6599431E-01
   7114.33  2.7323896E-01
   7114.67  2.7170106E-01
   7115.00  2.5081174E-01
   7115.33  2.1807971E-01
   7115.67  1.9044842E-01
   7116.00  1.7456537E-01
   7116.33  1.7404671E-01
   7116.67  1.8669300E-01
   7117.00  2.0962262E-01
   7117.33  2.3583898E-01
   7117.67  2.6011933E-01
   7118.00  2.8244270E-01
   7118.33  2.9765087E-01
   7118.67  3.0117049E-01
   7119.00  2.9475021E-01
   7119.33  2.8173370E-01
   7119.67  2.6866366E-01
   7120.00  2.6016167E-01
   7120.33  2.5790337E-01
   7120.67  2.6000011E-01
   7121.00  2.6452033E-01
   7121.33  2.6796711E-01
   7121.67  2.6796596E-01
   7122.00  2.6508316E-01
   7122.33  2.6218210E-01
   7122.67  2.6171038E-01
   7123.00  2.6432288E-01
   7123.33  2.6964033E-01
   7123.67  2.7619780E-01
   7124.00  2.8332374E-01
   7124.33  2.9107171E-01
   7124.67  2.9989547E-01
   7125.00  3.0968555E-01
   7125.33  3.1962777E-01
   7125.67  3.2986806E-01
   7126.00  3.4124532E-01
   7126.33  3.5407656E-01
   7126.67  3.6721203E-01
   7127.00  3.7991705E-01
   7127.33  3.9246242E-01
   7127.67  4.0533563E-01
   7128.00  4.1806758E-01
   7128.33  4.2960222E-01
   7128.67  4.4008956E-01
   7129.00  4.5040526E-01
   7129.33  4.6160101E-01
   7129.67  4.7374106E-01
   7130.00  4.8656751E-01
   7130.33  5.0004562E-01
   7130.67  5.1453917E-01
   7131.00  5.3070251E-01
   7131.33  5.4918224E-01
   7131.67  5.6900788E-01
   7132.00  5.8882950E-01
   7132.33  6.0737303E-01
   7132.67  6.2499627E-01
   7133.00  6.4240425E-01
   7133.33  6.6008916E-01
   7133.67  6.7810178E-01
   7134.00  6.9649616E-01
   7134.33  7.1526994E-01
   7134.67  7.3382035E-01
   7135.00  7.5144266E-01
   7135.33  7.6711526E-01
   7135.67  7.7989687E-01
   7136.00  7.8884129E-01
   7136.33  7.9313093E-01
   7136.67  7.9365143E-01
   7137.00  7.9071410E-01
   7137.33  7.8394901E-01
   7137.67  7.7370309E-01
   7138.00  7.6009101E-01
   7138.33  7.4332182E-01
   7138.67  7.2472658E-01
   7139.00  7.0532067E-01
   7139.33  6.8632556E-01
   7139.67  6.6874118E-01
   7140.00  6.5333006E-01
   7140.33  6.4114846E-01
   7140.67  6.3225261E-01
   7141.00  6.2669740E-01
   7141.33  6.2448069E-01
   7141.67  6.2435884E-01
   7142.00  6.2522988E-01
   7142.33  6.2549668E-01
   7142.67  6.2370038E-01
   7143.00  6.1875910E-01
   7143.33  6.0945349E-01
   7143.67  5.9629834E-01
   7144.00  5.7994735E-01
   7144.33  5.6145437E-01
   7144.67  5.4256180E-01
   7145.00  5.2444490E-01
   7145.33  5.0833425E-01
   7145.67  4.9455459E-01
   7146.00  4.8325060E-01
   7146.33  4.7462624E-01
   7146.67  4.6813332E-01
   7147.00  4.6350417E-01
   7147.33  4.6059525E-01
   7147.67  4.5886696E-01
   7148.00  4.5801613E-01
   7148.33  4.5777399E-01
   7148.67  4.5778146E-01
   7149.00  4.5784959E-01
   7149.33  4.5784922E-01
   7149.67  4.5776362E-01
   7150.00  4.5762826E-01
   7150.33  4.5753385E-01
   7150.67  4.5757273E-01
   7151.00  4.5780745E-01
   7151.33  4.5830025E-01
   7151.67  4.5900894E-01
   7152.00  4.5988580E-01
   7152.33  4.6084916E-01
   7152.67  4.6176896E-01
   7153.00  4.6253032E-01
   7153.33  4.6297125E-01
   7153.67  4.6302198E-01
   7154.00  4.6261721E-01
   7154.33  4.6165724E-01
   7154.67  4.6020933E-01
   7155.00  4.5830841E-01
   7155.33  4.5596831E-01
   7155.67  4.5330618E-01
   7156.00  4.5037187E-01
   7156.33  4.4717309E-01
   7156.67  4.4375068E-01
   7157.00  4.4009755E-01
   7157.33  4.3616225E-01
   7157.67  4.3195516E-01
   7158.00  4.2746755E-01
   7158.33  4.2267584E-01
   7158.67  4.1765490E-01
   7159.00  4.1246892E-01
   7159.33  4.0721372E-01
   7159.67  4.0201977E-01
   7160.00  3.9699591E-01
   7160.33  3.9229076E-01
   7160.67  3.8795931E-01
   7161.00  3.8406060E-01
   7161.33  3.8070168E-01
   7161.67  3.7784871E-01
   7162.00  3.7551203E-01
   7162.33  3.7375898E-01
   7162.67  3.7251557E-01
   7163.00  3.7176144E-01
   7163.33  3.7151365E-01
   7163.67  3.7166583E-01
   7164.00  3.7217388E-01
   7164.33  3.7303450E-01
   7164.67  3.7418344E-01
   7165.00  3.7561478E-01
   7165.33  3.7737567E-01
   7165.67  3.7945496E-01
   7166.00  3.8188120E-01
   7166.33  3.8473574E-01
   7166.67  3.8799758E-01
   7167.00  3.9167915E-01
   7167.33  3.9583315E-01
   7167.67  4.0039122E-01
   7168.00  4.0532572E-01
   7168.33  4.1063082E-01
   7168.67  4.1620827E-01
   7169.00  4.2200432E-01
   7169.33  4.2797230E-01
   7169.67  4.3402426E-01
   7170.00  4.4009761E-01
   7170.33  4.4610565E-01
   7170.67  4.5196314E-01
   7171.00  4.5757241E-01
   7171.33  4.6273080E-01
   7171.67  4.6726158E-01
   7172.00  4.7090565E-01
