    FDMNES
    energy     <xanes>
   7097.00  4.6185424E-03
   7097.33  4.7218461E-03
   7097.67  4.8298401E-03
   7098.00  4.9428518E-03
   7098.33  5.0619838E-03
   7098.67  5.1870288E-03
   7099.00  5.3184376E-03
   7099.33  5.4576663E-03
   7099.67  5.6045091E-03
   7100.00  5.7596043E-03
   7100.33  5.9249285E-03
   7100.67  6.1003043E-03
   7101.00  6.2866656E-03
   7101.33  6.4867839E-03
   7101.67  6.7005696E-03
   7102.00  6.9294414E-03
   7102.33  7.1774406E-03
   7102.67  7.4446951E-03
   7103.00  7.7334620E-03
   7103.33  8.0499189E-03
   7103.67  8.3947077E-03
   7104.00  8.7716268E-03
   7104.33  9.1906897E-03
   7104.67  9.6537658E-03
   7105.00  1.0167715E-02
   7105.33  1.0750028E-02
   7105.67  1.1405667E-02
   7106.00  1.2148212E-02
   7106.33  1.3011391E-02
   7106.67  1.4008744E-02
   7107.00  1.5170745E-02
   7107.33  1.6572037E-02
   7107.67  1.8253908E-02
   7108.00  2.0298415E-02
   7108.33  2.2908667E-02
   7108.67  2.6240846E-02
   7109.00  3.0590028E-02
   7109.33  3.6732975E-02
   7109.67  4.5537737E-02
   7110.00  5.8702255E-02
   7110.33  8.1013994E-02
   7110.67  1.1660944E-01
   7111.00  1.6290773E-01
   7111.33  2.0707631E-01
   7111.67  2.5978418E-01
   7112.00  3.2802576E-01
   7112.33  3.8070824E-01
   7112.67  3.8489886E-01
   7113.00  3.6006619E-01
   7113.33  3.3906806E-01
   7113.67  3.0539595E-01
   7114.00  2.4810109E-01
   7114.33  1.9197714E-01
   7114.67  1.5100551E-01
   7115.00  1.2367608E-01
   7115.33  1.0677407E-01
   7115.67  9.5833489E-02
   7116.00  8.8842843E-02
   7116.33  8.4480125E-02
   7116.67  8.1688923E-02
   7117.00  8.0267461E-02
   7117.33  8.0307787E-02
   7117.67  8.1629188E-02
   7118.00  8.4234468E-02
   7118.33  8.8208830E-02
   7118.67  9.3048561E-02
   7119.00  9.8180152E-02
   7119.33  1.0304391E-01
   7119.67  1.0762612E-01
   7120.00  1.1210769E-01
   7120.33  1.1660919E-01
   7120.67  1.2092905E-01
   7121.00  1.2487483E-01
   7121.33  1.2867826E-01
   7121.67  1.3292161E-01
   7122.00  1.3800124E-01
   7122.33  1.4429008E-01
   7122.67  1.5171025E-01
   7123.00  1.6027391E-01
   7123.33  1.7017768E-01
   7123.67  1.8130831E-01
   7124.00  1.9365158E-01
   7124.33  2.0728145E-01
   7124.67  2.2189399E-01
   7125.00  2.3719623E-01
   7125.33  2.5254644E-01
   7125.67  2.6693657E-01
   7126.00  2.7940959E-01
   7126.33  2.8892636E-01
   7126.67  2.9598728E-01
   7127.00  3.0138455E-01
   7127.33  3.0623224E-01
   7127.67  3.1162491E-01
   7128.00  3.1820136E-01
   7128.33  3.2655802E-01
   7128.67  3.3644956E-01
   7129.00  3.4746436E-01
   7129.33  3.5894999E-01
   7129.67  3.7032851E-01
   7130.00  3.8152448E-01
   7130.33  3.9279800E-01
   7130.67  4.0448838E-01
   7131.00  4.1686200E-01
   7131.33  4.3031084E-01
   7131.67  4.4490496E-01
   7132.00  4.6065776E-01
   7132.33  4.7747573E-01
   7132.67  4.9485589E-01
   7133.00  5.1245761E-01
   7133.33  5.3000366E-01
   7133.67  5.4738719E-01
   7134.00  5.6456719E-01
   7134.33  5.8141158E-01
   7134.67  5.9775526E-01
   7135.00  6.1334721E-01
   7135.33  6.2774902E-01
   7135.67  6.4088065E-01
   7136.00  6.5269940E-01
   7136.33  6.6318837E-01
   7136.67  6.7277711E-01
   7137.00  6.8177106E-01
   7137.33  6.9050628E-01
   7137.67  6.9933316E-01
   7138.00  7.0846542E-01
   7138.33  7.1812078E-01
   7138.67  7.2829628E-01
   7139.00  7.3895653E-01
   7139.33  7.5002141E-01
   7139.67  7.6125279E-01
   7140.00  7.7244700E-01
   7140.33  7.8328474E-01
   7140.67  7.9349530E-01
   7141.00  8.0281895E-01
   7141.33  8.1084748E-01
   7141.67  8.1752498E-01
   7142.00  8.2274435E-01
   7142.33  8.2627461E-01
   7142.67  8.2834212E-01
   7143.00  8.2903137E-01
   7143.33  8.2831856E-01
   7143.67  8.2649747E-01
   7144.00  8.2367050E-01
   7144.33  8.1980514E-01
   7144.67  8.1505163E-01
   7145.00  8.0940270E-01
   7145.33  8.0270025E-01
   7145.67  7.9500479E-01
   7146.00  7.8627384E-01
   7146.33  7.7635612E-01
   7146.67  7.6542326E-01
   7147.00  7.5356674E-01
   7147.33  7.4085571E-01
   7147.67  7.2759724E-01
   7148.00  7.1399765E-01
   7148.33  7.0029301E-01
   7148.67  6.8673140E-01
   7149.00  6.7349448E-01
   7149.33  6.6082140E-01
   7149.67  6.4878464E-01
   7150.00  6.3746772E-01
   7150.33  6.2703023E-01
   7150.67  6.1740364E-01
   7151.00  6.0859163E-01
   7151.33  6.0067769E-01
   7151.67  5.9352879E-01
   7152.00  5.8710656E-01
   7152.33  5.8144173E-01
   7152.67  5.7639062E-01
   7153.00  5.7189951E-01
   7153.33  5.6796632E-01
   7153.67  5.6446632E-01
   7154.00  5.6134731E-01
   7154.33  5.5858850E-01
   7154.67  5.5608909E-01
   7155.00  5.5379725E-01
   7155.33  5.5167162E-01
   7155.67  5.4963497E-01
   7156.00  5.4763825E-01
   7156.33  5.4562447E-01
   7156.67  5.4354375E-01
   7157.00  5.4135510E-01
   7157.33  5.3899666E-01
   7157.67  5.3645133E-01
   7158.00  5.3369512E-01
   7158.33  5.3067936E-01
   7158.67  5.2742164E-01
   7159.00  5.2391885E-01
   7159.33  5.2014385E-01
   7159.67  5.1613824E-01
   7160.00  5.1192069E-01
   7160.33  5.0750381E-01
   7160.67  5.0295626E-01
   7161.00  4.9832653E-01
   7161.33  4.9367722E-01
   7161.67  4.8908099E-01
   7162.00  4.8459920E-01
   7162.33  4.8032232E-01
   7162.67  4.7628797E-01
   7163.00  4.7254062E-01
   7163.33  4.6916152E-01
   7163.67  4.6613034E-01
   7164.00  4.6345075E-01
   7164.33  4.6117161E-01
   7164.67  4.5925076E-01
   7165.00  4.5768482E-01
   7165.33  4.5650778E-01
   7165.67  4.5566377E-01
   7166.00  4.5513995E-01
   7166.33  4.5495762E-01
   7166.67  4.5506068E-01
   7167.00  4.5543271E-01
   7167.33  4.5608516E-01
   7167.67  4.5696672E-01
   7168.00  4.5805974E-01
   7168.33  4.5936724E-01
   7168.67  4.6084430E-01
   7169.00  4.6247257E-01
   7169.33  4.6424629E-01
   7169.67  4.6612642E-01
   7170.00  4.6809207E-01
   7170.33  4.7012353E-01
   7170.67  4.7218054E-01
   7171.00  4.7422602E-01
   7171.33  4.7618596E-01
   7171.67  4.7796088E-01
   7172.00  4.7941270E-01
