    FDMNES
    energy     <xanes>
   7097.00  4.5813623E-03
   7097.33  4.6828666E-03
   7097.67  4.7887500E-03
   7098.00  4.8993040E-03
   7098.33  5.0155348E-03
   7098.67  5.1372305E-03
   7099.00  5.2647898E-03
   7099.33  5.3995285E-03
   7099.67  5.5412329E-03
   7100.00  5.6904639E-03
   7100.33  5.8489919E-03
   7100.67  6.0166244E-03
   7101.00  6.1941786E-03
   7101.33  6.3841177E-03
   7101.67  6.5863228E-03
   7102.00  6.8020332E-03
   7102.33  7.0348195E-03
   7102.67  7.2847528E-03
   7103.00  7.5538059E-03
   7103.33  7.8474213E-03
   7103.67  8.1661284E-03
   7104.00  8.5132615E-03
   7104.33  8.8976510E-03
   7104.67  9.3209398E-03
   7105.00  9.7892020E-03
   7105.33  1.0317955E-02
   7105.67  1.0911693E-02
   7106.00  1.1582607E-02
   7106.33  1.2360982E-02
   7106.67  1.3259360E-02
   7107.00  1.4305610E-02
   7107.33  1.5568010E-02
   7107.67  1.7085540E-02
   7108.00  1.8934887E-02
   7108.33  2.1305940E-02
   7108.67  2.4347882E-02
   7109.00  2.8340512E-02
   7109.33  3.4018113E-02
   7109.67  4.2199655E-02
   7110.00  5.4480420E-02
   7110.33  7.5492507E-02
   7110.67  1.1104424E-01
   7111.00  1.6707415E-01
   7111.33  2.3656555E-01
   7111.67  2.7949235E-01
   7112.00  2.6851319E-01
   7112.33  2.3727319E-01
   7112.67  2.3232915E-01
   7113.00  2.4655615E-01
   7113.33  2.3774191E-01
   7113.67  1.9943367E-01
   7114.00  1.5659458E-01
   7114.33  1.2178829E-01
   7114.67  9.6932464E-02
   7115.00  8.1382437E-02
   7115.33  7.3103898E-02
   7115.67  6.8857094E-02
   7116.00  6.7028046E-02
   7116.33  6.6568775E-02
   7116.67  6.7325603E-02
   7117.00  6.9917664E-02
   7117.33  7.5218603E-02
   7117.67  8.3129282E-02
   7118.00  9.3569358E-02
   7118.33  1.0635306E-01
   7118.67  1.2034072E-01
   7119.00  1.3453401E-01
   7119.33  1.4769355E-01
   7119.67  1.5919464E-01
   7120.00  1.6884484E-01
   7120.33  1.7668034E-01
   7120.67  1.8345909E-01
   7121.00  1.8978127E-01
   7121.33  1.9645065E-01
   7121.67  2.0424264E-01
   7122.00  2.1387579E-01
   7122.33  2.2642959E-01
   7122.67  2.4206253E-01
   7123.00  2.6098332E-01
   7123.33  2.8406383E-01
   7123.67  3.1154093E-01
   7124.00  3.4361081E-01
   7124.33  3.7990368E-01
   7124.67  4.1843812E-01
   7125.00  4.5786799E-01
   7125.33  4.9610998E-01
   7125.67  5.3040968E-01
   7126.00  5.5789799E-01
   7126.33  5.7496631E-01
   7126.67  5.8249925E-01
   7127.00  5.8183164E-01
   7127.33  5.7371923E-01
   7127.67  5.5963844E-01
   7128.00  5.4036849E-01
   7128.33  5.1803672E-01
   7128.67  4.9649845E-01
   7129.00  4.7838160E-01
   7129.33  4.6613923E-01
   7129.67  4.5972898E-01
   7130.00  4.5916391E-01
   7130.33  4.6502088E-01
   7130.67  4.7650305E-01
   7131.00  4.9359924E-01
   7131.33  5.1696415E-01
   7131.67  5.4568338E-01
   7132.00  5.7930742E-01
   7132.33  6.1740885E-01
   7132.67  6.5814499E-01
   7133.00  7.0011838E-01
   7133.33  7.4153326E-01
   7133.67  7.8066348E-01
   7134.00  8.1562850E-01
   7134.33  8.4223094E-01
   7134.67  8.5758138E-01
   7135.00  8.6014143E-01
   7135.33  8.5066618E-01
   7135.67  8.3493292E-01
   7136.00  8.1631353E-01
   7136.33  7.9707178E-01
   7136.67  7.7822366E-01
   7137.00  7.5999190E-01
   7137.33  7.4249806E-01
   7137.67  7.2569588E-01
   7138.00  7.0968762E-01
   7138.33  6.9481261E-01
   7138.67  6.8123031E-01
   7139.00  6.6920504E-01
   7139.33  6.5924796E-01
   7139.67  6.5134308E-01
   7140.00  6.4559986E-01
   7140.33  6.4232000E-01
   7140.67  6.4114453E-01
   7141.00  6.4190708E-01
   7141.33  6.4450653E-01
   7141.67  6.4831638E-01
   7142.00  6.5289184E-01
   7142.33  6.5767985E-01
   7142.67  6.6209766E-01
   7143.00  6.6574540E-01
   7143.33  6.6813725E-01
   7143.67  6.6920442E-01
   7144.00  6.6887807E-01
   7144.33  6.6701063E-01
   7144.67  6.6386826E-01
   7145.00  6.5955873E-01
   7145.33  6.5408624E-01
   7145.67  6.4771658E-01
   7146.00  6.4057538E-01
   7146.33  6.3275655E-01
   7146.67  6.2453426E-01
   7147.00  6.1609742E-01
   7147.33  6.0767894E-01
   7147.67  5.9949973E-01
   7148.00  5.9172844E-01
   7148.33  5.8459255E-01
   7148.67  5.7813175E-01
   7149.00  5.7240510E-01
   7149.33  5.6753713E-01
   7149.67  5.6341543E-01
   7150.00  5.5998202E-01
   7150.33  5.5718287E-01
   7150.67  5.5476468E-01
   7151.00  5.5253667E-01
   7151.33  5.5025763E-01
   7151.67  5.4771640E-01
   7152.00  5.4476467E-01
   7152.33  5.4122132E-01
   7152.67  5.3709962E-01
   7153.00  5.3239718E-01
   7153.33  5.2707398E-01
   7153.67  5.2124603E-01
   7154.00  5.1495752E-01
   7154.33  5.0820725E-01
   7154.67  5.0109702E-01
   7155.00  4.9366020E-01
   7155.33  4.8587821E-01
   7155.67  4.7779815E-01
   7156.00  4.6942315E-01
   7156.33  4.6071803E-01
   7156.67  4.5172500E-01
   7157.00  4.4245706E-01
   7157.33  4.3290868E-01
   7157.67  4.2315303E-01
   7158.00  4.1324329E-01
   7158.33  4.0325310E-01
   7158.67  3.9329370E-01
   7159.00  3.8346448E-01
   7159.33  3.7391996E-01
   7159.67  3.6475196E-01
   7160.00  3.5606112E-01
   7160.33  3.4802441E-01
   7160.67  3.4065372E-01
   7161.00  3.3400364E-01
   7161.33  3.2821208E-01
   7161.67  3.2320765E-01
   7162.00  3.1899933E-01
   7162.33  3.1568393E-01
   7162.67  3.1314936E-01
   7163.00  3.1137569E-01
   7163.33  3.1041631E-01
   7163.67  3.1013721E-01
   7164.00  3.1049610E-01
   7164.33  3.1151377E-01
   7164.67  3.1306136E-01
   7165.00  3.1508699E-01
   7165.33  3.1757741E-01
   7165.67  3.2041477E-01
   7166.00  3.2354506E-01
   7166.33  3.2694186E-01
   7166.67  3.3052904E-01
   7167.00  3.3427538E-01
   7167.33  3.3817189E-01
   7167.67  3.4218637E-01
   7168.00  3.4631159E-01
   7168.33  3.5055681E-01
   7168.67  3.5490569E-01
   7169.00  3.5935359E-01
   7169.33  3.6390143E-01
   7169.67  3.6851989E-01
   7170.00  3.7318476E-01
   7170.33  3.7785627E-01
   7170.67  3.8247527E-01
   7171.00  3.8697040E-01
   7171.33  3.9118538E-01
   7171.67  3.9494635E-01
   7172.00  3.9800304E-01
