    FDMNES
    energy     <xanes>
   7097.00  4.5524945E-03
   7097.33  4.6556350E-03
   7097.67  4.7633281E-03
   7098.00  4.8758825E-03
   7098.33  4.9943542E-03
   7098.67  5.1185305E-03
   7099.00  5.2488356E-03
   7099.33  5.3866564E-03
   7099.67  5.5317803E-03
   7100.00  5.6848065E-03
   7100.33  5.8476094E-03
   7100.67  6.0200023E-03
   7101.00  6.2028611E-03
   7101.33  6.3988059E-03
   7101.67  6.6077333E-03
   7102.00  6.8309760E-03
   7102.33  7.0723500E-03
   7102.67  7.3319622E-03
   7103.00  7.6119415E-03
   7103.33  7.9181306E-03
   7103.67  8.2511406E-03
   7104.00  8.6145810E-03
   7104.33  9.0179733E-03
   7104.67  9.4631516E-03
   7105.00  9.9567123E-03
   7105.33  1.0515463E-02
   7105.67  1.1144374E-02
   7106.00  1.1856740E-02
   7106.33  1.2685544E-02
   7106.67  1.3644661E-02
   7107.00  1.4764700E-02
   7107.33  1.6120663E-02
   7107.67  1.7756124E-02
   7108.00  1.9756552E-02
   7108.33  2.2334363E-02
   7108.67  2.5660999E-02
   7109.00  3.0059243E-02
   7109.33  3.6387159E-02
   7109.67  4.5644150E-02
   7110.00  5.9794721E-02
   7110.33  8.4442495E-02
   7110.67  1.2462521E-01
   7111.00  1.7745823E-01
   7111.33  2.2364589E-01
   7111.67  2.6058191E-01
   7112.00  2.9165596E-01
   7112.33  3.0556902E-01
   7112.67  2.8779243E-01
   7113.00  2.5417691E-01
   7113.33  2.3087451E-01
   7113.67  2.1686920E-01
   7114.00  2.0462148E-01
   7114.33  1.8199716E-01
   7114.67  1.5276531E-01
   7115.00  1.2641114E-01
   7115.33  1.0290510E-01
   7115.67  8.3877619E-02
   7116.00  7.0921072E-02
   7116.33  6.3500627E-02
   7116.67  5.9412380E-02
   7117.00  5.7731988E-02
   7117.33  5.8173053E-02
   7117.67  6.0403642E-02
   7118.00  6.4498836E-02
   7118.33  7.0764362E-02
   7118.67  7.8713676E-02
   7119.00  8.7628824E-02
   7119.33  9.6090487E-02
   7119.67  1.0300557E-01
   7120.00  1.0828238E-01
   7120.33  1.1275910E-01
   7120.67  1.1782853E-01
   7121.00  1.2443373E-01
   7121.33  1.3361078E-01
   7121.67  1.4555017E-01
   7122.00  1.6055761E-01
   7122.33  1.7939709E-01
   7122.67  2.0201101E-01
   7123.00  2.2874375E-01
   7123.33  2.6051175E-01
   7123.67  2.9659349E-01
   7124.00  3.3556730E-01
   7124.33  3.7332565E-01
   7124.67  4.0536877E-01
   7125.00  4.2990091E-01
   7125.33  4.4691888E-01
   7125.67  4.5984399E-01
   7126.00  4.7140921E-01
   7126.33  4.8390277E-01
   7126.67  4.9738245E-01
   7127.00  5.1057373E-01
   7127.33  5.2106905E-01
   7127.67  5.2807693E-01
   7128.00  5.3212917E-01
   7128.33  5.3446616E-01
   7128.67  5.3641005E-01
   7129.00  5.3856824E-01
   7129.33  5.4179453E-01
   7129.67  5.4704456E-01
   7130.00  5.5541614E-01
   7130.33  5.6851690E-01
   7130.67  5.8629292E-01
   7131.00  6.0847177E-01
   7131.33  6.3437291E-01
   7131.67  6.6205027E-01
   7132.00  6.9033556E-01
   7132.33  7.1829807E-01
   7132.67  7.4532156E-01
   7133.00  7.7074965E-01
   7133.33  7.9338596E-01
   7133.67  8.1283977E-01
   7134.00  8.2888057E-01
   7134.33  8.4109625E-01
   7134.67  8.4972154E-01
   7135.00  8.5434767E-01
   7135.33  8.5424424E-01
   7135.67  8.5039918E-01
   7136.00  8.4353709E-01
   7136.33  8.3412585E-01
   7136.67  8.2288736E-01
   7137.00  8.1004222E-01
   7137.33  7.9575757E-01
   7137.67  7.8069575E-01
   7138.00  7.6535264E-01
   7138.33  7.5026062E-01
   7138.67  7.3573007E-01
   7139.00  7.2191227E-01
   7139.33  7.0895556E-01
   7139.67  6.9673544E-01
   7140.00  6.8519582E-01
   7140.33  6.7433622E-01
   7140.67  6.6401314E-01
   7141.00  6.5418642E-01
   7141.33  6.4489878E-01
   7141.67  6.3611043E-01
   7142.00  6.2786780E-01
   7142.33  6.2032745E-01
   7142.67  6.1349751E-01
   7143.00  6.0743954E-01
   7143.33  6.0230380E-01
   7143.67  5.9801751E-01
   7144.00  5.9458625E-01
   7144.33  5.9205510E-01
   7144.67  5.9021069E-01
   7145.00  5.8892589E-01
   7145.33  5.8807638E-01
   7145.67  5.8742551E-01
   7146.00  5.8680892E-01
   7146.33  5.8602465E-01
   7146.67  5.8492780E-01
   7147.00  5.8340011E-01
   7147.33  5.8126772E-01
   7147.67  5.7852866E-01
   7148.00  5.7515359E-01
   7148.33  5.7105956E-01
   7148.67  5.6635136E-01
   7149.00  5.6106752E-01
   7149.33  5.5520135E-01
   7149.67  5.4888420E-01
   7150.00  5.4217662E-01
   7150.33  5.3511177E-01
   7150.67  5.2780792E-01
   7151.00  5.2032795E-01
   7151.33  5.1271781E-01
   7151.67  5.0504688E-01
   7152.00  4.9736140E-01
   7152.33  4.8971983E-01
   7152.67  4.8217139E-01
   7153.00  4.7476361E-01
   7153.33  4.6757613E-01
   7153.67  4.6063428E-01
   7154.00  4.5397228E-01
   7154.33  4.4765574E-01
   7154.67  4.4165044E-01
   7155.00  4.3593417E-01
   7155.33  4.3047857E-01
   7155.67  4.2516721E-01
   7156.00  4.1991239E-01
   7156.33  4.1460072E-01
   7156.67  4.0913945E-01
   7157.00  4.0346102E-01
   7157.33  3.9748384E-01
   7157.67  3.9123347E-01
   7158.00  3.8473801E-01
   7158.33  3.7804498E-01
   7158.67  3.7127852E-01
   7159.00  3.6454508E-01
   7159.33  3.5800049E-01
   7159.67  3.5175800E-01
   7160.00  3.4592424E-01
   7160.33  3.4067024E-01
   7160.67  3.3601329E-01
   7161.00  3.3200102E-01
   7161.33  3.2874579E-01
   7161.67  3.2616458E-01
   7162.00  3.2424122E-01
   7162.33  3.2301814E-01
   7162.67  3.2236739E-01
   7163.00  3.2223865E-01
   7163.33  3.2262209E-01
   7163.67  3.2338518E-01
   7164.00  3.2446260E-01
   7164.33  3.2581696E-01
   7164.67  3.2736095E-01
   7165.00  3.2905166E-01
   7165.33  3.3085643E-01
   7165.67  3.3272388E-01
   7166.00  3.3462775E-01
   7166.33  3.3654806E-01
   7166.67  3.3847042E-01
   7167.00  3.4039133E-01
   7167.33  3.4231552E-01
   7167.67  3.4425451E-01
   7168.00  3.4622274E-01
   7168.33  3.4824572E-01
   7168.67  3.5033709E-01
   7169.00  3.5251202E-01
   7169.33  3.5479622E-01
   7169.67  3.5718462E-01
   7170.00  3.5967651E-01
   7170.33  3.6227270E-01
   7170.67  3.6493635E-01
   7171.00  3.6762801E-01
   7171.33  3.7025801E-01
   7171.67  3.7267922E-01
   7172.00  3.7468861E-01
