    FDMNES
    energy     <xanes>
   7097.00  4.0490936E-03
   7097.33  4.1281547E-03
   7097.67  4.2103413E-03
   7098.00  4.2958479E-03
   7098.33  4.3853699E-03
   7098.67  4.4787372E-03
   7099.00  4.5762109E-03
   7099.33  4.6786831E-03
   7099.67  4.7859751E-03
   7100.00  4.8984458E-03
   7100.33  5.0172688E-03
   7100.67  5.1422663E-03
   7101.00  5.2739467E-03
   7101.33  5.4138984E-03
   7101.67  5.5619674E-03
   7102.00  5.7188988E-03
   7102.33  5.8869178E-03
   7102.67  6.0659437E-03
   7103.00  6.2571138E-03
   7103.33  6.4636774E-03
   7103.67  6.6857382E-03
   7104.00  6.9251189E-03
   7104.33  7.1868103E-03
   7104.67  7.4713578E-03
   7105.00  7.7818637E-03
   7105.33  8.1264947E-03
   7105.67  8.5068688E-03
   7106.00  8.9286845E-03
   7106.33  9.4064374E-03
   7106.67  9.9445137E-03
   7107.00  1.0554485E-02
   7107.33  1.1265038E-02
   7107.67  1.2088530E-02
   7108.00  1.3051975E-02
   7108.33  1.4221677E-02
   7108.67  1.5637494E-02
   7109.00  1.7377425E-02
   7109.33  1.9637625E-02
   7109.67  2.2587624E-02
   7110.00  2.6550857E-02
   7110.33  3.2388969E-02
   7110.67  4.0867192E-02
   7111.00  5.2467729E-02
   7111.33  6.8870202E-02
   7111.67  9.6212141E-02
   7112.00  1.4418133E-01
   7112.33  2.2216156E-01
   7112.67  2.7841992E-01
   7113.00  2.6240650E-01
   7113.33  2.2914432E-01
   7113.67  2.0779984E-01
   7114.00  1.7635807E-01
   7114.33  1.5064508E-01
   7114.67  1.4679927E-01
   7115.00  1.5459517E-01
   7115.33  1.5234029E-01
   7115.67  1.4740661E-01
   7116.00  1.3956086E-01
   7116.33  1.2800664E-01
   7116.67  1.1848967E-01
   7117.00  1.0530435E-01
   7117.33  8.7762396E-02
   7117.67  7.3916738E-02
   7118.00  6.5670624E-02
   7118.33  6.2497550E-02
   7118.67  6.2501924E-02
   7119.00  6.4680131E-02
   7119.33  6.7746420E-02
   7119.67  7.0454035E-02
   7120.00  7.2651633E-02
   7120.33  7.4308691E-02
   7120.67  7.5299212E-02
   7121.00  7.6146666E-02
   7121.33  7.7703049E-02
   7121.67  8.0079034E-02
   7122.00  8.3295722E-02
   7122.33  8.7303486E-02
   7122.67  9.1663762E-02
   7123.00  9.6315563E-02
   7123.33  1.0192848E-01
   7123.67  1.0922658E-01
   7124.00  1.1873310E-01
   7124.33  1.3111399E-01
   7124.67  1.4623225E-01
   7125.00  1.6417222E-01
   7125.33  1.8525133E-01
   7125.67  2.0888596E-01
   7126.00  2.3473382E-01
   7126.33  2.6255088E-01
   7126.67  2.9184404E-01
   7127.00  3.2267475E-01
   7127.33  3.5556067E-01
   7127.67  3.9052774E-01
   7128.00  4.2776431E-01
   7128.33  4.6825136E-01
   7128.67  5.1247810E-01
   7129.00  5.5970413E-01
   7129.33  6.0496265E-01
   7129.67  6.4024759E-01
   7130.00  6.5884707E-01
   7130.33  6.5604123E-01
   7130.67  6.3909469E-01
   7131.00  6.1472789E-01
   7131.33  5.8891852E-01
   7131.67  5.6482617E-01
   7132.00  5.4327375E-01
   7132.33  5.2470322E-01
   7132.67  5.0865081E-01
   7133.00  4.9500404E-01
   7133.33  4.8395128E-01
   7133.67  4.7512225E-01
   7134.00  4.6845535E-01
   7134.33  4.6415201E-01
   7134.67  4.6189771E-01
   7135.00  4.6164847E-01
   7135.33  4.6356089E-01
   7135.67  4.6721716E-01
   7136.00  4.7238580E-01
   7136.33  4.7884997E-01
   7136.67  4.8598104E-01
   7137.00  4.9327808E-01
   7137.33  5.0007083E-01
   7137.67  5.0588183E-01
   7138.00  5.1041402E-01
   7138.33  5.1341047E-01
   7138.67  5.1522485E-01
   7139.00  5.1616432E-01
   7139.33  5.1659947E-01
   7139.67  5.1699162E-01
   7140.00  5.1761885E-01
   7140.33  5.1879691E-01
   7140.67  5.2068064E-01
   7141.00  5.2341942E-01
   7141.33  5.2726533E-01
   7141.67  5.3218497E-01
   7142.00  5.3822453E-01
   7142.33  5.4552427E-01
   7142.67  5.5386690E-01
   7143.00  5.6312179E-01
   7143.33  5.7314902E-01
   7143.67  5.8355593E-01
   7144.00  5.9404124E-01
   7144.33  6.0421711E-01
   7144.67  6.1378978E-01
   7145.00  6.2251133E-01
   7145.33  6.3000381E-01
   7145.67  6.3620491E-01
   7146.00  6.4097065E-01
   7146.33  6.4402065E-01
   7146.67  6.4555432E-01
   7147.00  6.4563236E-01
   7147.33  6.4420173E-01
   7147.67  6.4158680E-01
   7148.00  6.3795214E-01
   7148.33  6.3338448E-01
   7148.67  6.2814279E-01
   7149.00  6.2235741E-01
   7149.33  6.1617397E-01
   7149.67  6.0990316E-01
   7150.00  6.0376246E-01
   7150.33  5.9796842E-01
   7150.67  5.9262043E-01
   7151.00  5.8782004E-01
   7151.33  5.8374972E-01
   7151.67  5.8041107E-01
   7152.00  5.7786160E-01
   7152.33  5.7625983E-01
   7152.67  5.7554081E-01
   7153.00  5.7572966E-01
   7153.33  5.7696373E-01
   7153.67  5.7914438E-01
   7154.00  5.8227499E-01
   7154.33  5.8645628E-01
   7154.67  5.9153976E-01
   7155.00  5.9748654E-01
   7155.33  6.0433792E-01
   7155.67  6.1191861E-01
   7156.00  6.2015102E-01
   7156.33  6.2899737E-01
   7156.67  6.3826923E-01
   7157.00  6.4785481E-01
   7157.33  6.5763924E-01
   7157.67  6.6745824E-01
   7158.00  6.7718701E-01
   7158.33  6.8664916E-01
   7158.67  6.9572721E-01
   7159.00  7.0429557E-01
   7159.33  7.1212862E-01
   7159.67  7.1916820E-01
   7160.00  7.2529980E-01
   7160.33  7.3027237E-01
   7160.67  7.3410924E-01
   7161.00  7.3673759E-01
   7161.33  7.3794201E-01
   7161.67  7.3785610E-01
   7162.00  7.3648319E-01
   7162.33  7.3369940E-01
   7162.67  7.2972390E-01
   7163.00  7.2463029E-01
   7163.33  7.1839501E-01
   7163.67  7.1126163E-01
   7164.00  7.0333736E-01
   7164.33  6.9466825E-01
   7164.67  6.8546934E-01
   7165.00  6.7585435E-01
   7165.33  6.6591224E-01
   7165.67  6.5579470E-01
   7166.00  6.4559259E-01
   7166.33  6.3540223E-01
   7166.67  6.2530563E-01
   7167.00  6.1536505E-01
   7167.33  6.0566803E-01
   7167.67  5.9623597E-01
   7168.00  5.8710239E-01
   7168.33  5.7833805E-01
   7168.67  5.6992310E-01
   7169.00  5.6187029E-01
   7169.33  5.5423524E-01
   7169.67  5.4697638E-01
   7170.00  5.4009660E-01
   7170.33  5.3364967E-01
   7170.67  5.2760243E-01
   7171.00  5.2198345E-01
   7171.33  5.1692580E-01
   7171.67  5.1251437E-01
   7172.00  5.0894907E-01
