    FDMNES
    energy     <xanes>
   7097.00  3.8451612E-03
   7097.33  3.9194164E-03
   7097.67  3.9965549E-03
   7098.00  4.0767554E-03
   7098.33  4.1606585E-03
   7098.67  4.2481069E-03
   7099.00  4.3393411E-03
   7099.33  4.4351840E-03
   7099.67  4.5354717E-03
   7100.00  4.6405365E-03
   7100.33  4.7514635E-03
   7100.67  4.8680921E-03
   7101.00  4.9908960E-03
   7101.33  5.1213501E-03
   7101.67  5.2593206E-03
   7102.00  5.4055072E-03
   7102.33  5.5619893E-03
   7102.67  5.7287110E-03
   7103.00  5.9067508E-03
   7103.33  6.0991719E-03
   7103.67  6.3061112E-03
   7104.00  6.5293192E-03
   7104.33  6.7735566E-03
   7104.67  7.0394208E-03
   7105.00  7.3299376E-03
   7105.33  7.6530168E-03
   7105.67  8.0103812E-03
   7106.00  8.4076932E-03
   7106.33  8.8592654E-03
   7106.67  9.3697573E-03
   7107.00  9.9509224E-03
   7107.33  1.0631765E-02
   7107.67  1.1425520E-02
   7108.00  1.2360327E-02
   7108.33  1.3505111E-02
   7108.67  1.4903097E-02
   7109.00  1.6637610E-02
   7109.33  1.8917988E-02
   7109.67  2.1928882E-02
   7110.00  2.6020559E-02
   7110.33  3.2148606E-02
   7110.67  4.1444296E-02
   7111.00  5.5716567E-02
   7111.33  7.7764365E-02
   7111.67  1.0485439E-01
   7112.00  1.3923725E-01
   7112.33  2.0392229E-01
   7112.67  2.9056386E-01
   7113.00  3.2686493E-01
   7113.33  2.5720310E-01
   7113.67  1.7148140E-01
   7114.00  1.1251511E-01
   7114.33  8.0894850E-02
   7114.67  6.2705284E-02
   7115.00  5.2255379E-02
   7115.33  4.6524358E-02
   7115.67  4.3313059E-02
   7116.00  4.1946372E-02
   7116.33  4.2233045E-02
   7116.67  4.3722548E-02
   7117.00  4.6066446E-02
   7117.33  4.8927908E-02
   7117.67  5.2057334E-02
   7118.00  5.5526982E-02
   7118.33  5.9801823E-02
   7118.67  6.5038002E-02
   7119.00  7.1160720E-02
   7119.33  7.8131293E-02
   7119.67  8.5834858E-02
   7120.00  9.4162231E-02
   7120.33  1.0284466E-01
   7120.67  1.1145423E-01
   7121.00  1.1948391E-01
   7121.33  1.2577994E-01
   7121.67  1.3007392E-01
   7122.00  1.3304557E-01
   7122.33  1.3596428E-01
   7122.67  1.3987447E-01
   7123.00  1.4519677E-01
   7123.33  1.5187772E-01
   7123.67  1.5922998E-01
   7124.00  1.6718120E-01
   7124.33  1.7659602E-01
   7124.67  1.8818662E-01
   7125.00  2.0216031E-01
   7125.33  2.1852647E-01
   7125.67  2.3690744E-01
   7126.00  2.5717067E-01
   7126.33  2.7850810E-01
   7126.67  2.9933511E-01
   7127.00  3.1871815E-01
   7127.33  3.3581842E-01
   7127.67  3.5050973E-01
   7128.00  3.6275279E-01
   7128.33  3.7276777E-01
   7128.67  3.8145770E-01
   7129.00  3.8925587E-01
   7129.33  3.9635024E-01
   7129.67  4.0278597E-01
   7130.00  4.0838867E-01
   7130.33  4.1301474E-01
   7130.67  4.1711980E-01
   7131.00  4.2117338E-01
   7131.33  4.2570035E-01
   7131.67  4.3095727E-01
   7132.00  4.3712810E-01
   7132.33  4.4455905E-01
   7132.67  4.5338549E-01
   7133.00  4.6392146E-01
   7133.33  4.7685119E-01
   7133.67  4.9222060E-01
   7134.00  5.1002342E-01
   7134.33  5.3009035E-01
   7134.67  5.5138481E-01
   7135.00  5.7305644E-01
   7135.33  5.9391153E-01
   7135.67  6.1286449E-01
   7136.00  6.2892009E-01
   7136.33  6.4070105E-01
   7136.67  6.4839283E-01
   7137.00  6.5237555E-01
   7137.33  6.5330378E-01
   7137.67  6.5263827E-01
   7138.00  6.5113574E-01
   7138.33  6.4936318E-01
   7138.67  6.4775993E-01
   7139.00  6.4659773E-01
   7139.33  6.4623585E-01
   7139.67  6.4685727E-01
   7140.00  6.4872883E-01
   7140.33  6.5236109E-01
   7140.67  6.5774605E-01
   7141.00  6.6481747E-01
   7141.33  6.7329956E-01
   7141.67  6.8225445E-01
   7142.00  6.9086366E-01
   7142.33  6.9808448E-01
   7142.67  7.0347835E-01
   7143.00  7.0687304E-01
   7143.33  7.0819511E-01
   7143.67  7.0805288E-01
   7144.00  7.0680060E-01
   7144.33  7.0467538E-01
   7144.67  7.0198925E-01
   7145.00  6.9884458E-01
   7145.33  6.9524847E-01
   7145.67  6.9128730E-01
   7146.00  6.8701681E-01
   7146.33  6.8253725E-01
   7146.67  6.7805498E-01
   7147.00  6.7377831E-01
   7147.33  6.7006824E-01
   7147.67  6.6715827E-01
   7148.00  6.6525583E-01
   7148.33  6.6465801E-01
   7148.67  6.6525497E-01
   7149.00  6.6697806E-01
   7149.33  6.6975728E-01
   7149.67  6.7319542E-01
   7150.00  6.7700818E-01
   7150.33  6.8086141E-01
   7150.67  6.8444540E-01
   7151.00  6.8755030E-01
   7151.33  6.8992742E-01
   7151.67  6.9157117E-01
   7152.00  6.9246114E-01
   7152.33  6.9252494E-01
   7152.67  6.9190000E-01
   7153.00  6.9063410E-01
   7153.33  6.8871196E-01
   7153.67  6.8626387E-01
   7154.00  6.8334033E-01
   7154.33  6.7995404E-01
   7154.67  6.7622968E-01
   7155.00  6.7223846E-01
   7155.33  6.6804922E-01
   7155.67  6.6377846E-01
   7156.00  6.5950500E-01
   7156.33  6.5531937E-01
   7156.67  6.5127074E-01
   7157.00  6.4738501E-01
   7157.33  6.4367787E-01
   7157.67  6.4008775E-01
   7158.00  6.3655280E-01
   7158.33  6.3297645E-01
   7158.67  6.2926526E-01
   7159.00  6.2533898E-01
   7159.33  6.2106987E-01
   7159.67  6.1641399E-01
   7160.00  6.1130849E-01
   7160.33  6.0562236E-01
   7160.67  5.9936180E-01
   7161.00  5.9248761E-01
   7161.33  5.8489371E-01
   7161.67  5.7666386E-01
   7162.00  5.6783044E-01
   7162.33  5.5840084E-01
   7162.67  5.4855132E-01
   7163.00  5.3839893E-01
   7163.33  5.2807528E-01
   7163.67  5.1775319E-01
   7164.00  5.0755893E-01
   7164.33  4.9765963E-01
   7164.67  4.8814123E-01
   7165.00  4.7909302E-01
   7165.33  4.7067432E-01
   7165.67  4.6288997E-01
   7166.00  4.5579252E-01
   7166.33  4.4951954E-01
   7166.67  4.4400653E-01
   7167.00  4.3925904E-01
   7167.33  4.3535330E-01
   7167.67  4.3215311E-01
   7168.00  4.2960405E-01
   7168.33  4.2769794E-01
   7168.67  4.2627396E-01
   7169.00  4.2525470E-01
   7169.33  4.2459609E-01
   7169.67  4.2418528E-01
   7170.00  4.2397063E-01
   7170.33  4.2392254E-01
   7170.67  4.2398460E-01
   7171.00  4.2412877E-01
   7171.33  4.2432712E-01
   7171.67  4.2452862E-01
   7172.00  4.2468089E-01
