    FDMNES
    energy     <xanes>
   7097.00  4.9213533E-03
   7097.33  5.0402238E-03
   7097.67  5.1646522E-03
   7098.00  5.2950299E-03
   7098.33  5.4326696E-03
   7098.67  5.5773307E-03
   7099.00  5.7295534E-03
   7099.33  5.8910758E-03
   7099.67  6.0616611E-03
   7100.00  6.2420767E-03
   7100.33  6.4346894E-03
   7100.67  6.6393004E-03
   7101.00  6.8570371E-03
   7101.33  7.0912317E-03
   7101.67  7.3417987E-03
   7102.00  7.6104607E-03
   7102.33  7.9021017E-03
   7102.67  8.2169164E-03
   7103.00  8.5576646E-03
   7103.33  8.9318652E-03
   7103.67  9.3403753E-03
   7104.00  9.7878829E-03
   7104.33  1.0286691E-02
   7104.67  1.0839252E-02
   7105.00  1.1454134E-02
   7105.33  1.2153105E-02
   7105.67  1.2942676E-02
   7106.00  1.3840089E-02
   7106.33  1.4888042E-02
   7106.67  1.6104490E-02
   7107.00  1.7528949E-02
   7107.33  1.9258102E-02
   7107.67  2.1347683E-02
   7108.00  2.3907007E-02
   7108.33  2.7207151E-02
   7108.67  3.1463976E-02
   7109.00  3.7083388E-02
   7109.33  4.5139031E-02
   7109.67  5.6860493E-02
   7110.00  7.4658532E-02
   7110.33  1.0544312E-01
   7110.67  1.5608059E-01
   7111.00  2.2569531E-01
   7111.33  2.8863316E-01
   7111.67  3.3764460E-01
   7112.00  3.8718255E-01
   7112.33  4.3210265E-01
   7112.67  4.3950004E-01
   7113.00  3.8834502E-01
   7113.33  3.0075445E-01
   7113.67  2.2466016E-01
   7114.00  1.7423643E-01
   7114.33  1.5126515E-01
   7114.67  1.4870488E-01
   7115.00  1.6269869E-01
   7115.33  1.7821412E-01
   7115.67  1.7245273E-01
   7116.00  1.4686615E-01
   7116.33  1.2136666E-01
   7116.67  1.0436732E-01
   7117.00  9.4959349E-02
   7117.33  9.1114771E-02
   7117.67  8.9945880E-02
   7118.00  9.0139398E-02
   7118.33  9.1307094E-02
   7118.67  9.3538259E-02
   7119.00  9.6523905E-02
   7119.33  9.9221585E-02
   7119.67  1.0139123E-01
   7120.00  1.0368880E-01
   7120.33  1.0717669E-01
   7120.67  1.1241829E-01
   7121.00  1.1997717E-01
   7121.33  1.3103950E-01
   7121.67  1.4611605E-01
   7122.00  1.6583657E-01
   7122.33  1.9115965E-01
   7122.67  2.2079652E-01
   7123.00  2.5280606E-01
   7123.33  2.8476889E-01
   7123.67  3.1574902E-01
   7124.00  3.4463124E-01
   7124.33  3.6796658E-01
   7124.67  3.8343605E-01
   7125.00  3.9061324E-01
   7125.33  3.9185096E-01
   7125.67  3.9246096E-01
   7126.00  3.9602985E-01
   7126.33  4.0621657E-01
   7126.67  4.2308230E-01
   7127.00  4.4519519E-01
   7127.33  4.6997809E-01
   7127.67  4.9584957E-01
   7128.00  5.2386297E-01
   7128.33  5.5542107E-01
   7128.67  5.8853388E-01
   7129.00  6.2116860E-01
   7129.33  6.5282297E-01
   7129.67  6.8424158E-01
   7130.00  7.1499647E-01
   7130.33  7.4289580E-01
   7130.67  7.6603764E-01
   7131.00  7.8325074E-01
   7131.33  7.9337209E-01
   7131.67  7.9708295E-01
   7132.00  7.9435917E-01
   7132.33  7.8548728E-01
   7132.67  7.7389893E-01
   7133.00  7.6284913E-01
   7133.33  7.5611150E-01
   7133.67  7.5464652E-01
   7134.00  7.5774108E-01
   7134.33  7.6295245E-01
   7134.67  7.6693623E-01
   7135.00  7.6795307E-01
   7135.33  7.6476835E-01
   7135.67  7.5795548E-01
   7136.00  7.4824355E-01
   7136.33  7.3682077E-01
   7136.67  7.2521305E-01
   7137.00  7.1422454E-01
   7137.33  7.0453917E-01
   7137.67  6.9619642E-01
   7138.00  6.8911047E-01
   7138.33  6.8309019E-01
   7138.67  6.7757857E-01
   7139.00  6.7216284E-01
   7139.33  6.6635537E-01
   7139.67  6.5988883E-01
   7140.00  6.5267109E-01
   7140.33  6.4476539E-01
   7140.67  6.3661407E-01
   7141.00  6.2864148E-01
   7141.33  6.2146134E-01
   7141.67  6.1537369E-01
   7142.00  6.1044432E-01
   7142.33  6.0642706E-01
   7142.67  6.0246932E-01
   7143.00  5.9778055E-01
   7143.33  5.9139089E-01
   7143.67  5.8312588E-01
   7144.00  5.7307718E-01
   7144.33  5.6153561E-01
   7144.67  5.4927450E-01
   7145.00  5.3678309E-01
   7145.33  5.2455302E-01
   7145.67  5.1295403E-01
   7146.00  5.0237242E-01
   7146.33  4.9348995E-01
   7146.67  4.8653431E-01
   7147.00  4.8173134E-01
   7147.33  4.7943952E-01
   7147.67  4.7928023E-01
   7148.00  4.8105835E-01
   7148.33  4.8466703E-01
   7148.67  4.8952274E-01
   7149.00  4.9526007E-01
   7149.33  5.0149643E-01
   7149.67  5.0776774E-01
   7150.00  5.1377642E-01
   7150.33  5.1919149E-01
   7150.67  5.2390224E-01
   7151.00  5.2781700E-01
   7151.33  5.3077532E-01
   7151.67  5.3287140E-01
   7152.00  5.3412332E-01
   7152.33  5.3448694E-01
   7152.67  5.3415239E-01
   7153.00  5.3322614E-01
   7153.33  5.3180316E-01
   7153.67  5.3010334E-01
   7154.00  5.2826572E-01
   7154.33  5.2643274E-01
   7154.67  5.2470747E-01
   7155.00  5.2313861E-01
   7155.33  5.2175343E-01
   7155.67  5.2048986E-01
   7156.00  5.1928125E-01
   7156.33  5.1801889E-01
   7156.67  5.1659155E-01
   7157.00  5.1489656E-01
   7157.33  5.1277183E-01
   7157.67  5.1016255E-01
   7158.00  5.0699453E-01
   7158.33  5.0312566E-01
   7158.67  4.9860258E-01
   7159.00  4.9343217E-01
   7159.33  4.8759289E-01
   7159.67  4.8126080E-01
   7160.00  4.7455669E-01
   7160.33  4.6761860E-01
   7160.67  4.6064295E-01
   7161.00  4.5376594E-01
   7161.33  4.4714782E-01
   7161.67  4.4085237E-01
   7162.00  4.3492062E-01
   7162.33  4.2940304E-01
   7162.67  4.2422552E-01
   7163.00  4.1934612E-01
   7163.33  4.1473364E-01
   7163.67  4.1029501E-01
   7164.00  4.0598194E-01
   7164.33  4.0176279E-01
   7164.67  3.9760518E-01
   7165.00  3.9350947E-01
   7165.33  3.8950809E-01
   7165.67  3.8563039E-01
   7166.00  3.8191957E-01
   7166.33  3.7845700E-01
   7166.67  3.7526529E-01
   7167.00  3.7237949E-01
   7167.33  3.6987041E-01
   7167.67  3.6771279E-01
   7168.00  3.6591192E-01
   7168.33  3.6450896E-01
   7168.67  3.6344925E-01
   7169.00  3.6272015E-01
   7169.33  3.6234294E-01
   7169.67  3.6225754E-01
   7170.00  3.6244273E-01
   7170.33  3.6289899E-01
   7170.67  3.6355924E-01
   7171.00  3.6438257E-01
   7171.33  3.6531337E-01
   7171.67  3.6623291E-01
   7172.00  3.6700992E-01
