    FDMNES
    energy     <xanes>
   7097.00  4.1592671E-03
   7097.33  4.2401962E-03
   7097.67  4.3241188E-03
   7098.00  4.4112074E-03
   7098.33  4.5021054E-03
   7098.67  4.5966321E-03
   7099.00  4.6950159E-03
   7099.33  4.7980694E-03
   7099.67  4.9056006E-03
   7100.00  5.0179200E-03
   7100.33  5.1360796E-03
   7100.67  5.2598840E-03
   7101.00  5.3897688E-03
   7101.33  5.5271373E-03
   7101.67  5.6718100E-03
   7102.00  5.8244210E-03
   7102.33  5.9869123E-03
   7102.67  6.1591642E-03
   7103.00  6.3421428E-03
   7103.33  6.5386610E-03
   7103.67  6.7487600E-03
   7104.00  6.9739965E-03
   7104.33  7.2186857E-03
   7104.67  7.4832733E-03
   7105.00  7.7704504E-03
   7105.33  8.0873454E-03
   7105.67  8.4354374E-03
   7106.00  8.8198230E-03
   7106.33  9.2534924E-03
   7106.67  9.7407707E-03
   7107.00  1.0292576E-02
   7107.33  1.0936028E-02
   7107.67  1.1684441E-02
   7108.00  1.2565727E-02
   7108.33  1.3649124E-02
   7108.67  1.4983597E-02
   7109.00  1.6663189E-02
   7109.33  1.8932594E-02
   7109.67  2.2047467E-02
   7110.00  2.6506139E-02
   7110.33  3.3725429E-02
   7110.67  4.5260827E-02
   7111.00  6.2028716E-02
   7111.33  8.1577736E-02
   7111.67  1.0055598E-01
   7112.00  1.1902533E-01
   7112.33  1.3838027E-01
   7112.67  1.5066038E-01
   7113.00  1.5202280E-01
   7113.33  1.4659911E-01
   7113.67  1.4114058E-01
   7114.00  1.4886692E-01
   7114.33  1.5798878E-01
   7114.67  1.4194348E-01
   7115.00  1.0870941E-01
   7115.33  8.0729846E-02
   7115.67  6.3232837E-02
   7116.00  5.3533824E-02
   7116.33  4.9059546E-02
   7116.67  4.7416616E-02
   7117.00  4.7728247E-02
   7117.33  4.9570896E-02
   7117.67  5.2411087E-02
   7118.00  5.6100276E-02
   7118.33  6.1073774E-02
   7118.67  6.7890284E-02
   7119.00  7.7330794E-02
   7119.33  9.1250735E-02
   7119.67  1.1125013E-01
   7120.00  1.3952275E-01
   7120.33  1.7875721E-01
   7120.67  2.2327973E-01
   7121.00  2.5917958E-01
   7121.33  2.6351486E-01
   7121.67  2.4319643E-01
   7122.00  2.1577354E-01
   7122.33  1.9532515E-01
   7122.67  1.8391288E-01
   7123.00  1.8056570E-01
   7123.33  1.8422082E-01
   7123.67  1.9246591E-01
   7124.00  2.0444276E-01
   7124.33  2.2053439E-01
   7124.67  2.4130229E-01
   7125.00  2.6778059E-01
   7125.33  3.0163868E-01
   7125.67  3.4195888E-01
   7126.00  3.8610865E-01
   7126.33  4.2837908E-01
   7126.67  4.6652381E-01
   7127.00  5.0366702E-01
   7127.33  5.4576658E-01
   7127.67  5.9411436E-01
   7128.00  6.4713012E-01
   7128.33  7.0147614E-01
   7128.67  7.5160636E-01
   7129.00  7.9051514E-01
   7129.33  8.0896340E-01
   7129.67  8.0953026E-01
   7130.00  7.9758370E-01
   7130.33  7.7892802E-01
   7130.67  7.5814747E-01
   7131.00  7.3685566E-01
   7131.33  7.1674718E-01
   7131.67  6.9961474E-01
   7132.00  6.8706828E-01
   7132.33  6.8083137E-01
   7132.67  6.7988446E-01
   7133.00  6.8301091E-01
   7133.33  6.8847766E-01
   7133.67  6.9402575E-01
   7134.00  6.9840087E-01
   7134.33  7.0092083E-01
   7134.67  7.0226815E-01
   7135.00  7.0302949E-01
   7135.33  7.0353332E-01
   7135.67  7.0386215E-01
   7136.00  7.0394615E-01
   7136.33  7.0356023E-01
   7136.67  7.0251464E-01
   7137.00  7.0058053E-01
   7137.33  6.9738330E-01
   7137.67  6.9294933E-01
   7138.00  6.8733886E-01
   7138.33  6.8071015E-01
   7138.67  6.7360959E-01
   7139.00  6.6646693E-01
   7139.33  6.5982587E-01
   7139.67  6.5404822E-01
   7140.00  6.4940919E-01
   7140.33  6.4628555E-01
   7140.67  6.4459450E-01
   7141.00  6.4431878E-01
   7141.33  6.4551671E-01
   7141.67  6.4785964E-01
   7142.00  6.5117939E-01
   7142.33  6.5535042E-01
   7142.67  6.6002525E-01
   7143.00  6.6494583E-01
   7143.33  6.6972065E-01
   7143.67  6.7389129E-01
   7144.00  6.7697780E-01
   7144.33  6.7819614E-01
   7144.67  6.7735578E-01
   7145.00  6.7443779E-01
   7145.33  6.6960267E-01
   7145.67  6.6362565E-01
   7146.00  6.5691267E-01
   7146.33  6.4965533E-01
   7146.67  6.4195358E-01
   7147.00  6.3374439E-01
   7147.33  6.2485345E-01
   7147.67  6.1529229E-01
   7148.00  6.0506007E-01
   7148.33  5.9416077E-01
   7148.67  5.8281826E-01
   7149.00  5.7118088E-01
   7149.33  5.5940184E-01
   7149.67  5.4766454E-01
   7150.00  5.3611148E-01
   7150.33  5.2492729E-01
   7150.67  5.1417542E-01
   7151.00  5.0391263E-01
   7151.33  4.9423709E-01
   7151.67  4.8508767E-01
   7152.00  4.7644173E-01
   7152.33  4.6829596E-01
   7152.67  4.6051789E-01
   7153.00  4.5304369E-01
   7153.33  4.4584919E-01
   7153.67  4.3886780E-01
   7154.00  4.3208312E-01
   7154.33  4.2551477E-01
   7154.67  4.1913705E-01
   7155.00  4.1293964E-01
   7155.33  4.0691255E-01
   7155.67  4.0098970E-01
   7156.00  3.9512088E-01
   7156.33  3.8924507E-01
   7156.67  3.8331286E-01
   7157.00  3.7729782E-01
   7157.33  3.7118338E-01
   7157.67  3.6500445E-01
   7158.00  3.5880574E-01
   7158.33  3.5267282E-01
   7158.67  3.4669783E-01
   7159.00  3.4097583E-01
   7159.33  3.3566486E-01
   7159.67  3.3082480E-01
   7160.00  3.2653509E-01
   7160.33  3.2294720E-01
   7160.67  3.2003191E-01
   7161.00  3.1780986E-01
   7161.33  3.1636940E-01
   7161.67  3.1560564E-01
   7162.00  3.1548989E-01
   7162.33  3.1604910E-01
   7162.67  3.1714065E-01
   7163.00  3.1869568E-01
   7163.33  3.2068809E-01
   7163.67  3.2300382E-01
   7164.00  3.2559554E-01
   7164.33  3.2845249E-01
   7164.67  3.3152361E-01
   7165.00  3.3480537E-01
   7165.33  3.3833565E-01
   7165.67  3.4210565E-01
   7166.00  3.4613090E-01
   7166.33  3.5045496E-01
   7166.67  3.5504322E-01
   7167.00  3.5988304E-01
   7167.33  3.6497474E-01
   7167.67  3.7025133E-01
   7168.00  3.7567348E-01
   7168.33  3.8120557E-01
   7168.67  3.8678911E-01
   7169.00  3.9238801E-01
   7169.33  3.9796360E-01
   7169.67  4.0348734E-01
   7170.00  4.0893414E-01
   7170.33  4.1425930E-01
   7170.67  4.1943516E-01
   7171.00  4.2440832E-01
   7171.33  4.2903410E-01
   7171.67  4.3315490E-01
   7172.00  4.3651429E-01
