    FDMNES
    energy     <xanes>
   7097.00  4.7832757E-03
   7097.33  4.8855723E-03
   7097.67  4.9920600E-03
   7098.00  5.1030013E-03
   7098.33  5.2193313E-03
   7098.67  5.3408244E-03
   7099.00  5.4678339E-03
   7099.33  5.6015630E-03
   7099.67  5.7417761E-03
   7100.00  5.8889619E-03
   7100.33  6.0447093E-03
   7100.67  6.2087895E-03
   7101.00  6.3819003E-03
   7101.33  6.5662081E-03
   7101.67  6.7615276E-03
   7102.00  6.9688953E-03
   7102.33  7.1913811E-03
   7102.67  7.4289273E-03
   7103.00  7.6831483E-03
   7103.33  7.9586068E-03
   7103.67  8.2555673E-03
   7104.00  8.5766939E-03
   7104.33  8.9291894E-03
   7104.67  9.3141103E-03
   7105.00  9.7361871E-03
   7105.33  1.0207702E-02
   7105.67  1.0731736E-02
   7106.00  1.1317518E-02
   7106.33  1.1988239E-02
   7106.67  1.2752606E-02
   7107.00  1.3631055E-02
   7107.33  1.4673917E-02
   7107.67  1.5907935E-02
   7108.00  1.7387159E-02
   7108.33  1.9245201E-02
   7108.67  2.1581027E-02
   7109.00  2.4581557E-02
   7109.33  2.8731769E-02
   7109.67  3.4543669E-02
   7110.00  4.3007340E-02
   7110.33  5.6977957E-02
   7110.67  8.0268671E-02
   7111.00  1.1843753E-01
   7111.33  1.7344050E-01
   7111.67  2.1440404E-01
   7112.00  2.2047533E-01
   7112.33  2.2259398E-01
   7112.67  2.2725785E-01
   7113.00  2.1705819E-01
   7113.33  1.9796864E-01
   7113.67  1.7135815E-01
   7114.00  1.3693637E-01
   7114.33  1.0868069E-01
   7114.67  9.0639024E-02
   7115.00  8.0831018E-02
   7115.33  7.7463765E-02
   7115.67  7.8240085E-02
   7116.00  8.2383897E-02
   7116.33  8.9724375E-02
   7116.67  9.9508876E-02
   7117.00  1.1132944E-01
   7117.33  1.2480738E-01
   7117.67  1.3950375E-01
   7118.00  1.5570447E-01
   7118.33  1.7375737E-01
   7118.67  1.9238137E-01
   7119.00  2.0995620E-01
   7119.33  2.2463054E-01
   7119.67  2.3625932E-01
   7120.00  2.4511615E-01
   7120.33  2.5135081E-01
   7120.67  2.5587432E-01
   7121.00  2.6023554E-01
   7121.33  2.6716720E-01
   7121.67  2.7762601E-01
   7122.00  2.9196509E-01
   7122.33  3.1138263E-01
   7122.67  3.3610465E-01
   7123.00  3.6643527E-01
   7123.33  4.0268749E-01
   7123.67  4.4298828E-01
   7124.00  4.8513736E-01
   7124.33  5.2417572E-01
   7124.67  5.5490157E-01
   7125.00  5.7492672E-01
   7125.33  5.8485640E-01
   7125.67  5.8872577E-01
   7126.00  5.8879851E-01
   7126.33  5.8811109E-01
   7126.67  5.8833749E-01
   7127.00  5.8973957E-01
   7127.33  5.9470313E-01
   7127.67  6.0527789E-01
   7128.00  6.2146932E-01
   7128.33  6.4169804E-01
   7128.67  6.6308532E-01
   7129.00  6.8318178E-01
   7129.33  6.9758830E-01
   7129.67  7.0336473E-01
   7130.00  6.9941182E-01
   7130.33  6.8706458E-01
   7130.67  6.7186725E-01
   7131.00  6.5739965E-01
   7131.33  6.4649601E-01
   7131.67  6.3976106E-01
   7132.00  6.3728001E-01
   7132.33  6.3836032E-01
   7132.67  6.4002747E-01
   7133.00  6.3976971E-01
   7133.33  6.3587722E-01
   7133.67  6.2972183E-01
   7134.00  6.2298902E-01
   7134.33  6.1745640E-01
   7134.67  6.1362298E-01
   7135.00  6.1120940E-01
   7135.33  6.0957766E-01
   7135.67  6.0818860E-01
   7136.00  6.0711274E-01
   7136.33  6.0689384E-01
   7136.67  6.0797137E-01
   7137.00  6.1070542E-01
   7137.33  6.1556259E-01
   7137.67  6.2232650E-01
   7138.00  6.3085288E-01
   7138.33  6.4097316E-01
   7138.67  6.5198572E-01
   7139.00  6.6331636E-01
   7139.33  6.7414152E-01
   7139.67  6.8372294E-01
   7140.00  6.9143605E-01
   7140.33  6.9641195E-01
   7140.67  6.9864106E-01
   7141.00  6.9808156E-01
   7141.33  6.9458875E-01
   7141.67  6.8881195E-01
   7142.00  6.8107700E-01
   7142.33  6.7157886E-01
   7142.67  6.6087856E-01
   7143.00  6.4925171E-01
   7143.33  6.3688922E-01
   7143.67  6.2409876E-01
   7144.00  6.1104379E-01
   7144.33  5.9787299E-01
   7144.67  5.8473515E-01
   7145.00  5.7172897E-01
   7145.33  5.5897696E-01
   7145.67  5.4652475E-01
   7146.00  5.3442113E-01
   7146.33  5.2275612E-01
   7146.67  5.1150873E-01
   7147.00  5.0069493E-01
   7147.33  4.9038312E-01
   7147.67  4.8052781E-01
   7148.00  4.7113720E-01
   7148.33  4.6227883E-01
   7148.67  4.5390134E-01
   7149.00  4.4601041E-01
   7149.33  4.3867031E-01
   7149.67  4.3181679E-01
   7150.00  4.2543960E-01
   7150.33  4.1956971E-01
   7150.67  4.1410924E-01
   7151.00  4.0901023E-01
   7151.33  4.0424039E-01
   7151.67  3.9968389E-01
   7152.00  3.9527000E-01
   7152.33  3.9093029E-01
   7152.67  3.8659338E-01
   7153.00  3.8222057E-01
   7153.33  3.7778184E-01
   7153.67  3.7327306E-01
   7154.00  3.6869190E-01
   7154.33  3.6404468E-01
   7154.67  3.5937295E-01
   7155.00  3.5471805E-01
   7155.33  3.5014586E-01
   7155.67  3.4571238E-01
   7156.00  3.4147864E-01
   7156.33  3.3755242E-01
   7156.67  3.3397134E-01
   7157.00  3.3079298E-01
   7157.33  3.2813421E-01
   7157.67  3.2598425E-01
   7158.00  3.2437231E-01
   7158.33  3.2338824E-01
   7158.67  3.2296488E-01
   7159.00  3.2309074E-01
   7159.33  3.2380739E-01
   7159.67  3.2502014E-01
   7160.00  3.2670541E-01
   7160.33  3.2890081E-01
   7160.67  3.3154560E-01
   7161.00  3.3465044E-01
   7161.33  3.3830346E-01
   7161.67  3.4248006E-01
   7162.00  3.4721020E-01
   7162.33  3.5258693E-01
   7162.67  3.5853630E-01
   7163.00  3.6503582E-01
   7163.33  3.7209302E-01
   7163.67  3.7956051E-01
   7164.00  3.8733851E-01
   7164.33  3.9530300E-01
   7164.67  4.0329110E-01
   7165.00  4.1119426E-01
   7165.33  4.1887483E-01
   7165.67  4.2626451E-01
   7166.00  4.3330307E-01
   7166.33  4.3989540E-01
   7166.67  4.4607002E-01
   7167.00  4.5182535E-01
   7167.33  4.5712491E-01
   7167.67  4.6204553E-01
   7168.00  4.6661527E-01
   7168.33  4.7083118E-01
   7168.67  4.7476951E-01
   7169.00  4.7845978E-01
   7169.33  4.8190484E-01
   7169.67  4.8515516E-01
   7170.00  4.8822321E-01
   7170.33  4.9109111E-01
   7170.67  4.9377350E-01
   7171.00  4.9625291E-01
   7171.33  4.9846252E-01
   7171.67  5.0037025E-01
   7172.00  5.0190475E-01
