    FDMNES
    energy     <xanes>
   7097.00  4.5757777E-03
   7097.33  4.6722321E-03
   7097.67  4.7726529E-03
   7098.00  4.8772938E-03
   7098.33  4.9870494E-03
   7098.67  5.1017144E-03
   7099.00  5.2216334E-03
   7099.33  5.3479656E-03
   7099.67  5.4805006E-03
   7100.00  5.6197196E-03
   7100.33  5.7671676E-03
   7100.67  5.9226475E-03
   7101.00  6.0868547E-03
   7101.33  6.2619184E-03
   7101.67  6.4476968E-03
   7102.00  6.6452368E-03
   7102.33  6.8575950E-03
   7102.67  7.0847793E-03
   7103.00  7.3284447E-03
   7103.33  7.5932056E-03
   7103.67  7.8794390E-03
   7104.00  8.1899235E-03
   7104.33  8.5320797E-03
   7104.67  8.9071890E-03
   7105.00  9.3202854E-03
   7105.33  9.7843071E-03
   7105.67  1.0302866E-02
   7106.00  1.0886026E-02
   7106.33  1.1558890E-02
   7106.67  1.2331683E-02
   7107.00  1.3227389E-02
   7107.33  1.4302467E-02
   7107.67  1.5589056E-02
   7108.00  1.7150684E-02
   7108.33  1.9145134E-02
   7108.67  2.1697556E-02
   7109.00  2.5043678E-02
   7109.33  2.9806762E-02
   7109.67  3.6698286E-02
   7110.00  4.7113308E-02
   7110.33  6.5080589E-02
   7110.67  9.4967264E-02
   7111.00  1.3779417E-01
   7111.33  1.7890210E-01
   7111.67  2.0581382E-01
   7112.00  2.1983725E-01
   7112.33  2.2985194E-01
   7112.67  2.3327346E-01
   7113.00  2.1674117E-01
   7113.33  1.8127617E-01
   7113.67  1.4696935E-01
   7114.00  1.2051888E-01
   7114.33  1.0026622E-01
   7114.67  8.5691909E-02
   7115.00  7.7128598E-02
   7115.33  7.3237444E-02
   7115.67  7.1046838E-02
   7116.00  6.9068261E-02
   7116.33  6.7929949E-02
   7116.67  6.8658880E-02
   7117.00  7.1321759E-02
   7117.33  7.5456819E-02
   7117.67  8.0129284E-02
   7118.00  8.5264770E-02
   7118.33  9.1583868E-02
   7118.67  9.9428967E-02
   7119.00  1.0900751E-01
   7119.33  1.2081176E-01
   7119.67  1.3478165E-01
   7120.00  1.5095907E-01
   7120.33  1.6951254E-01
   7120.67  1.8988042E-01
   7121.00  2.1158662E-01
   7121.33  2.3389912E-01
   7121.67  2.5595135E-01
   7122.00  2.7735932E-01
   7122.33  2.9807682E-01
   7122.67  3.1866043E-01
   7123.00  3.3952914E-01
   7123.33  3.5978842E-01
   7123.67  3.7736686E-01
   7124.00  3.9252594E-01
   7124.33  4.0849609E-01
   7124.67  4.2671674E-01
   7125.00  4.4610510E-01
   7125.33  4.6393878E-01
   7125.67  4.7850718E-01
   7126.00  4.8958538E-01
   7126.33  4.9745226E-01
   7126.67  5.0338056E-01
   7127.00  5.0812177E-01
   7127.33  5.1237847E-01
   7127.67  5.1708830E-01
   7128.00  5.2318787E-01
   7128.33  5.3224872E-01
   7128.67  5.4482606E-01
   7129.00  5.6072738E-01
   7129.33  5.7891628E-01
   7129.67  5.9775854E-01
   7130.00  6.1669906E-01
   7130.33  6.3577108E-01
   7130.67  6.5508203E-01
   7131.00  6.7455555E-01
   7131.33  6.9411371E-01
   7131.67  7.1392304E-01
   7132.00  7.3417591E-01
   7132.33  7.5438190E-01
   7132.67  7.7269427E-01
   7133.00  7.8686698E-01
   7133.33  7.9439171E-01
   7133.67  7.9603813E-01
   7134.00  7.9262463E-01
   7134.33  7.8447788E-01
   7134.67  7.7305641E-01
   7135.00  7.5953465E-01
   7135.33  7.4529554E-01
   7135.67  7.3151320E-01
   7136.00  7.1873029E-01
   7136.33  7.0739440E-01
   7136.67  6.9740421E-01
   7137.00  6.8870064E-01
   7137.33  6.8128024E-01
   7137.67  6.7480735E-01
   7138.00  6.6909696E-01
   7138.33  6.6398786E-01
   7138.67  6.5917975E-01
   7139.00  6.5447611E-01
   7139.33  6.4965686E-01
   7139.67  6.4457949E-01
   7140.00  6.3917513E-01
   7140.33  6.3341437E-01
   7140.67  6.2744189E-01
   7141.00  6.2140952E-01
   7141.33  6.1555494E-01
   7141.67  6.1006936E-01
   7142.00  6.0508498E-01
   7142.33  6.0076269E-01
   7142.67  5.9704907E-01
   7143.00  5.9390733E-01
   7143.33  5.9130013E-01
   7143.67  5.8903508E-01
   7144.00  5.8698996E-01
   7144.33  5.8504687E-01
   7144.67  5.8309665E-01
   7145.00  5.8108776E-01
   7145.33  5.7898746E-01
   7145.67  5.7681572E-01
   7146.00  5.7459578E-01
   7146.33  5.7235252E-01
   7146.67  5.7010322E-01
   7147.00  5.6784524E-01
   7147.33  5.6554970E-01
   7147.67  5.6317445E-01
   7148.00  5.6066706E-01
   7148.33  5.5793248E-01
   7148.67  5.5492331E-01
   7149.00  5.5157997E-01
   7149.33  5.4779206E-01
   7149.67  5.4356023E-01
   7150.00  5.3885268E-01
   7150.33  5.3358380E-01
   7150.67  5.2780994E-01
   7151.00  5.2154038E-01
   7151.33  5.1474734E-01
   7151.67  5.0753461E-01
   7152.00  4.9995102E-01
   7152.33  4.9202903E-01
   7152.67  4.8389108E-01
   7153.00  4.7562053E-01
   7153.33  4.6731934E-01
   7153.67  4.5910109E-01
   7154.00  4.5105996E-01
   7154.33  4.4333244E-01
   7154.67  4.3596844E-01
   7155.00  4.2902183E-01
   7155.33  4.2258854E-01
   7155.67  4.1663030E-01
   7156.00  4.1114393E-01
   7156.33  4.0615168E-01
   7156.67  4.0154754E-01
   7157.00  3.9728380E-01
   7157.33  3.9334500E-01
   7157.67  3.8965552E-01
   7158.00  3.8619582E-01
   7158.33  3.8299066E-01
   7158.67  3.8002866E-01
   7159.00  3.7733805E-01
   7159.33  3.7500282E-01
   7159.67  3.7303520E-01
   7160.00  3.7148043E-01
   7160.33  3.7044403E-01
   7160.67  3.6990715E-01
   7161.00  3.6989343E-01
   7161.33  3.7048315E-01
   7161.67  3.7160336E-01
   7162.00  3.7323891E-01
   7162.33  3.7542714E-01
   7162.67  3.7807422E-01
   7163.00  3.8114610E-01
   7163.33  3.8464067E-01
   7163.67  3.8845332E-01
   7164.00  3.9253737E-01
   7164.33  3.9686895E-01
   7164.67  4.0136890E-01
   7165.00  4.0599250E-01
   7165.33  4.1069682E-01
   7165.67  4.1542149E-01
   7166.00  4.2012323E-01
   7166.33  4.2474553E-01
   7166.67  4.2925353E-01
   7167.00  4.3361348E-01
   7167.33  4.3776835E-01
   7167.67  4.4171243E-01
   7168.00  4.4542641E-01
   7168.33  4.4886372E-01
   7168.67  4.5204615E-01
   7169.00  4.5497097E-01
   7169.33  4.5760820E-01
   7169.67  4.5999630E-01
   7170.00  4.6214388E-01
   7170.33  4.6403499E-01
   7170.67  4.6571118E-01
   7171.00  4.6718213E-01
   7171.33  4.6842944E-01
   7171.67  4.6947348E-01
   7172.00  4.7030054E-01
