    FDMNES
    energy     <xanes>
   7097.00  5.0226544E-03
   7097.33  5.1404313E-03
   7097.67  5.2635243E-03
   7098.00  5.3922938E-03
   7098.33  5.5279709E-03
   7098.67  5.6703053E-03
   7099.00  5.8197884E-03
   7099.33  5.9780318E-03
   7099.67  6.1447806E-03
   7100.00  6.3207239E-03
   7100.33  6.5080277E-03
   7100.67  6.7064581E-03
   7101.00  6.9170127E-03
   7101.33  7.1426956E-03
   7101.67  7.3833515E-03
   7102.00  7.6404793E-03
   7102.33  7.9184069E-03
   7102.67  8.2171851E-03
   7103.00  8.5391714E-03
   7103.33  8.8908964E-03
   7103.67  9.2729088E-03
   7104.00  9.6891300E-03
   7104.33  1.0150004E-02
   7104.67  1.0657280E-02
   7105.00  1.1217960E-02
   7105.33  1.1850040E-02
   7105.67  1.2558310E-02
   7106.00  1.3356484E-02
   7106.33  1.4278818E-02
   7106.67  1.5338552E-02
   7107.00  1.6566184E-02
   7107.33  1.8036671E-02
   7107.67  1.9790623E-02
   7108.00  2.1909595E-02
   7108.33  2.4595712E-02
   7108.67  2.8002726E-02
   7109.00  3.2421913E-02
   7109.33  3.8618758E-02
   7109.67  4.7440926E-02
   7110.00  6.0549471E-02
   7110.33  8.2749957E-02
   7110.67  1.1955390E-01
   7111.00  1.7357213E-01
   7111.33  2.2583989E-01
   7111.67  2.5688570E-01
   7112.00  2.7687446E-01
   7112.33  3.0178515E-01
   7112.67  3.3020488E-01
   7113.00  3.5121603E-01
   7113.33  3.5345824E-01
   7113.67  3.5349900E-01
   7114.00  3.5415566E-01
   7114.33  3.2156615E-01
   7114.67  2.6894411E-01
   7115.00  2.2518500E-01
   7115.33  2.0005322E-01
   7115.67  1.8530520E-01
   7116.00  1.7426063E-01
   7116.33  1.6017323E-01
   7116.67  1.4335425E-01
   7117.00  1.2857483E-01
   7117.33  1.1968235E-01
   7117.67  1.1552487E-01
   7118.00  1.1494509E-01
   7118.33  1.1742895E-01
   7118.67  1.2228684E-01
   7119.00  1.2905728E-01
   7119.33  1.3652590E-01
   7119.67  1.4318407E-01
   7120.00  1.4894722E-01
   7120.33  1.5512059E-01
   7120.67  1.6251901E-01
   7121.00  1.7105606E-01
   7121.33  1.8038129E-01
   7121.67  1.8983913E-01
   7122.00  1.9959379E-01
   7122.33  2.1090172E-01
   7122.67  2.2406623E-01
   7123.00  2.3845998E-01
   7123.33  2.5280011E-01
   7123.67  2.6629540E-01
   7124.00  2.7926606E-01
   7124.33  2.9319343E-01
   7124.67  3.0942688E-01
   7125.00  3.2890796E-01
   7125.33  3.5348023E-01
   7125.67  3.8396232E-01
   7126.00  4.2033412E-01
   7126.33  4.6045124E-01
   7126.67  5.0100509E-01
   7127.00  5.4090096E-01
   7127.33  5.7831291E-01
   7127.67  6.1055655E-01
   7128.00  6.3530967E-01
   7128.33  6.5082064E-01
   7128.67  6.5953996E-01
   7129.00  6.6353180E-01
   7129.33  6.6496974E-01
   7129.67  6.6639217E-01
   7130.00  6.6945678E-01
   7130.33  6.7568402E-01
   7130.67  6.8470649E-01
   7131.00  6.9582012E-01
   7131.33  7.0825917E-01
   7131.67  7.2131010E-01
   7132.00  7.3481641E-01
   7132.33  7.4893059E-01
   7132.67  7.6377163E-01
   7133.00  7.7940182E-01
   7133.33  7.9561480E-01
   7133.67  8.1149298E-01
   7134.00  8.2574121E-01
   7134.33  8.3580519E-01
   7134.67  8.3982809E-01
   7135.00  8.3615736E-01
   7135.33  8.2287242E-01
   7135.67  8.0168847E-01
   7136.00  7.7417347E-01
   7136.33  7.4220627E-01
   7136.67  7.0863764E-01
   7137.00  6.7515511E-01
   7137.33  6.4337029E-01
   7137.67  6.1395997E-01
   7138.00  5.8730823E-01
   7138.33  5.6392963E-01
   7138.67  5.4340971E-01
   7139.00  5.2562292E-01
   7139.33  5.1071905E-01
   7139.67  4.9823516E-01
   7140.00  4.8809495E-01
   7140.33  4.8054789E-01
   7140.67  4.7528744E-01
   7141.00  4.7227001E-01
   7141.33  4.7161854E-01
   7141.67  4.7280064E-01
   7142.00  4.7548539E-01
   7142.33  4.7933645E-01
   7142.67  4.8371889E-01
   7143.00  4.8820573E-01
   7143.33  4.9230806E-01
   7143.67  4.9571644E-01
   7144.00  4.9822652E-01
   7144.33  4.9960160E-01
   7144.67  4.9999300E-01
   7145.00  4.9951794E-01
   7145.33  4.9831651E-01
   7145.67  4.9674486E-01
   7146.00  4.9505292E-01
   7146.33  4.9353472E-01
   7146.67  4.9240251E-01
   7147.00  4.9180843E-01
   7147.33  4.9195442E-01
   7147.67  4.9282123E-01
   7148.00  4.9442592E-01
   7148.33  4.9684761E-01
   7148.67  4.9995897E-01
   7149.00  5.0371245E-01
   7149.33  5.0810314E-01
   7149.67  5.1296560E-01
   7150.00  5.1821065E-01
   7150.33  5.2375031E-01
   7150.67  5.2940641E-01
   7151.00  5.3503548E-01
   7151.33  5.4043108E-01
   7151.67  5.4543971E-01
   7152.00  5.4992506E-01
   7152.33  5.5369077E-01
   7152.67  5.5676185E-01
   7153.00  5.5914589E-01
   7153.33  5.6083410E-01
   7153.67  5.6202062E-01
   7154.00  5.6282651E-01
   7154.33  5.6336549E-01
   7154.67  5.6379335E-01
   7155.00  5.6419349E-01
   7155.33  5.6463275E-01
   7155.67  5.6513335E-01
   7156.00  5.6569426E-01
   7156.33  5.6630070E-01
   7156.67  5.6691928E-01
   7157.00  5.6752664E-01
   7157.33  5.6809781E-01
   7157.67  5.6862417E-01
   7158.00  5.6910052E-01
   7158.33  5.6951808E-01
   7158.67  5.6988177E-01
   7159.00  5.7018834E-01
   7159.33  5.7042234E-01
   7159.67  5.7058010E-01
   7160.00  5.7064798E-01
   7160.33  5.7059284E-01
   7160.67  5.7040549E-01
   7161.00  5.7006292E-01
   7161.33  5.6950847E-01
   7161.67  5.6872670E-01
   7162.00  5.6768445E-01
   7162.33  5.6630614E-01
   7162.67  5.6458982E-01
   7163.00  5.6250198E-01
   7163.33  5.5995733E-01
   7163.67  5.5698569E-01
   7164.00  5.5357430E-01
   7164.33  5.4965313E-01
   7164.67  5.4527764E-01
   7165.00  5.4045872E-01
   7165.33  5.3516817E-01
   7165.67  5.2949351E-01
   7166.00  5.2347266E-01
   7166.33  5.1712026E-01
   7166.67  5.1053019E-01
   7167.00  5.0375451E-01
   7167.33  4.9684124E-01
   7167.67  4.8987119E-01
   7168.00  4.8290122E-01
   7168.33  4.7600315E-01
   7168.67  4.6922839E-01
   7169.00  4.6262492E-01
   7169.33  4.5627305E-01
   7169.67  4.5019373E-01
   7170.00  4.4442576E-01
   7170.33  4.3904856E-01
   7170.67  4.3404949E-01
   7171.00  4.2946496E-01
   7171.33  4.2541679E-01
   7171.67  4.2194708E-01
   7172.00  4.1918006E-01
