    FDMNES
    energy     <xanes>
   7097.00  4.1794058E-03
   7097.33  4.2554799E-03
   7097.67  4.3342714E-03
   7098.00  4.4159392E-03
   7098.33  4.5010721E-03
   7098.67  4.5895111E-03
   7099.00  4.6814705E-03
   7099.33  4.7777025E-03
   7099.67  4.8780439E-03
   7100.00  4.9827934E-03
   7100.33  5.0929421E-03
   7100.67  5.2083359E-03
   7101.00  5.3294074E-03
   7101.33  5.4575141E-03
   7101.67  5.5925405E-03
   7102.00  5.7351447E-03
   7102.33  5.8872758E-03
   7102.67  6.0489274E-03
   7103.00  6.2211591E-03
   7103.33  6.4069428E-03
   7103.67  6.6065479E-03
   7104.00  6.8218071E-03
   7104.33  7.0576086E-03
   7104.67  7.3149250E-03
   7105.00  7.5972233E-03
   7105.33  7.9133685E-03
   7105.67  8.2662388E-03
   7106.00  8.6632003E-03
   7106.33  9.1225411E-03
   7106.67  9.6529314E-03
   7107.00  1.0272672E-02
   7107.33  1.1026798E-02
   7107.67  1.1945080E-02
   7108.00  1.3084370E-02
   7108.33  1.4588220E-02
   7108.67  1.6588480E-02
   7109.00  1.9333571E-02
   7109.33  2.3506855E-02
   7109.67  3.0001841E-02
   7110.00  4.0606170E-02
   7110.33  6.0423705E-02
   7110.67  9.2518082E-02
   7111.00  1.2526649E-01
   7111.33  1.2427549E-01
   7111.67  1.0665152E-01
   7112.00  9.0328398E-02
   7112.33  7.8472663E-02
   7112.67  6.9849200E-02
   7113.00  6.3983170E-02
   7113.33  5.9720098E-02
   7113.67  5.5504406E-02
   7114.00  5.1102166E-02
   7114.33  4.6881439E-02
   7114.67  4.1911328E-02
   7115.00  3.6350314E-02
   7115.33  3.2234699E-02
   7115.67  2.9729343E-02
   7116.00  2.8383382E-02
   7116.33  2.7857414E-02
   7116.67  2.7811553E-02
   7117.00  2.8126720E-02
   7117.33  2.8770284E-02
   7117.67  2.9699233E-02
   7118.00  3.0953758E-02
   7118.33  3.2680616E-02
   7118.67  3.4975182E-02
   7119.00  3.8024606E-02
   7119.33  4.2293651E-02
   7119.67  4.8113566E-02
   7120.00  5.5867491E-02
   7120.33  6.5489268E-02
   7120.67  7.5032192E-02
   7121.00  8.3280715E-02
   7121.33  9.1409014E-02
   7121.67  1.0168120E-01
   7122.00  1.1556701E-01
   7122.33  1.3512225E-01
   7122.67  1.6119349E-01
   7123.00  1.9477298E-01
   7123.33  2.3591067E-01
   7123.67  2.7842221E-01
   7124.00  3.1469522E-01
   7124.33  3.3859281E-01
   7124.67  3.5515853E-01
   7125.00  3.6996370E-01
   7125.33  3.8825808E-01
   7125.67  4.1269599E-01
   7126.00  4.4407822E-01
   7126.33  4.7708393E-01
   7126.67  5.0386312E-01
   7127.00  5.2842133E-01
   7127.33  5.6114485E-01
   7127.67  6.0545157E-01
   7128.00  6.6322327E-01
   7128.33  7.3628063E-01
   7128.67  8.1816123E-01
   7129.00  9.0059756E-01
   7129.33  9.7026086E-01
   7129.67  1.0170840E+00
   7130.00  1.0337381E+00
   7130.33  1.0142561E+00
   7130.67  9.6940888E-01
   7131.00  9.0961071E-01
   7131.33  8.4687099E-01
   7131.67  7.9035127E-01
   7132.00  7.4405750E-01
   7132.33  7.1080715E-01
   7132.67  6.8828190E-01
   7133.00  6.7480588E-01
   7133.33  6.6889190E-01
   7133.67  6.6762165E-01
   7134.00  6.6996763E-01
   7134.33  6.7624393E-01
   7134.67  6.8604348E-01
   7135.00  6.9858183E-01
   7135.33  7.1252780E-01
   7135.67  7.2679688E-01
   7136.00  7.4129495E-01
   7136.33  7.5620126E-01
   7136.67  7.7124745E-01
   7137.00  7.8573315E-01
   7137.33  7.9805654E-01
   7137.67  8.0680581E-01
   7138.00  8.1070912E-01
   7138.33  8.0826177E-01
   7138.67  8.0042922E-01
   7139.00  7.8821717E-01
   7139.33  7.7290921E-01
   7139.67  7.5641751E-01
   7140.00  7.3975876E-01
   7140.33  7.2371361E-01
   7140.67  7.0849768E-01
   7141.00  6.9412798E-01
   7141.33  6.8057625E-01
   7141.67  6.6757955E-01
   7142.00  6.5499938E-01
   7142.33  6.4275192E-01
   7142.67  6.3072880E-01
   7143.00  6.1889400E-01
   7143.33  6.0723001E-01
   7143.67  5.9567237E-01
   7144.00  5.8417081E-01
   7144.33  5.7265815E-01
   7144.67  5.6107972E-01
   7145.00  5.4941256E-01
   7145.33  5.3766434E-01
   7145.67  5.2591289E-01
   7146.00  5.1425362E-01
   7146.33  5.0285148E-01
   7146.67  4.9182198E-01
   7147.00  4.8128136E-01
   7147.33  4.7141765E-01
   7147.67  4.6223447E-01
   7148.00  4.5376898E-01
   7148.33  4.4611559E-01
   7148.67  4.3913847E-01
   7149.00  4.3274886E-01
   7149.33  4.2684488E-01
   7149.67  4.2118202E-01
   7150.00  4.1558410E-01
   7150.33  4.0984082E-01
   7150.67  4.0381137E-01
   7151.00  3.9740636E-01
   7151.33  3.9052711E-01
   7151.67  3.8324051E-01
   7152.00  3.7560392E-01
   7152.33  3.6769298E-01
   7152.67  3.5967447E-01
   7153.00  3.5168369E-01
   7153.33  3.4391487E-01
   7153.67  3.3650904E-01
   7154.00  3.2958502E-01
   7154.33  3.2330104E-01
   7154.67  3.1761383E-01
   7155.00  3.1250074E-01
   7155.33  3.0795052E-01
   7155.67  3.0379725E-01
   7156.00  2.9995039E-01
   7156.33  2.9635473E-01
   7156.67  2.9294076E-01
   7157.00  2.8970991E-01
   7157.33  2.8672433E-01
   7157.67  2.8400638E-01
   7158.00  2.8159016E-01
   7158.33  2.7952212E-01
   7158.67  2.7772297E-01
   7159.00  2.7611703E-01
   7159.33  2.7459505E-01
   7159.67  2.7302904E-01
   7160.00  2.7134169E-01
   7160.33  2.6947530E-01
   7160.67  2.6748679E-01
   7161.00  2.6547231E-01
   7161.33  2.6362862E-01
   7161.67  2.6216597E-01
   7162.00  2.6130286E-01
   7162.33  2.6138873E-01
   7162.67  2.6253617E-01
   7163.00  2.6492142E-01
   7163.33  2.6889401E-01
   7163.67  2.7440208E-01
   7164.00  2.8151251E-01
   7164.33  2.9046441E-01
   7164.67  3.0104402E-01
   7165.00  3.1321159E-01
   7165.33  3.2707730E-01
   7165.67  3.4234192E-01
   7166.00  3.5888576E-01
   7166.33  3.7667948E-01
   7166.67  3.9538040E-01
   7167.00  4.1477977E-01
   7167.33  4.3464115E-01
   7167.67  4.5457331E-01
   7168.00  4.7424231E-01
   7168.33  4.9312786E-01
   7168.67  5.1085845E-01
   7169.00  5.2705433E-01
   7169.33  5.4109446E-01
   7169.67  5.5294430E-01
   7170.00  5.6248193E-01
   7170.33  5.6942750E-01
   7170.67  5.7423631E-01
   7171.00  5.7716579E-01
   7171.33  5.7844962E-01
   7171.67  5.7881171E-01
   7172.00  5.7880519E-01
