    FDMNES
    energy     <xanes>
   7097.00  5.5705068E-03
   7097.33  5.7206501E-03
   7097.67  5.8784969E-03
   7098.00  6.0446212E-03
   7098.33  6.2208943E-03
   7098.67  6.4070235E-03
   7099.00  6.6038075E-03
   7099.33  6.8137530E-03
   7099.67  7.0365810E-03
   7100.00  7.2734346E-03
   7100.33  7.5277647E-03
   7100.67  7.7993593E-03
   7101.00  8.0899074E-03
   7101.33  8.4043171E-03
   7101.67  8.7425579E-03
   7102.00  9.1072230E-03
   7102.33  9.5055678E-03
   7102.67  9.9379960E-03
   7103.00  1.0408675E-02
   7103.33  1.0928845E-02
   7103.67  1.1499920E-02
   7104.00  1.2128979E-02
   7104.33  1.2834485E-02
   7104.67  1.3620236E-02
   7105.00  1.4499139E-02
   7105.33  1.5503843E-02
   7105.67  1.6644131E-02
   7106.00  1.7945764E-02
   7106.33  1.9472373E-02
   7106.67  2.1250270E-02
   7107.00  2.3337555E-02
   7107.33  2.5876014E-02
   7107.67  2.8944873E-02
   7108.00  3.2700189E-02
   7108.33  3.7526546E-02
   7108.67  4.3716579E-02
   7109.00  5.1819062E-02
   7109.33  6.3262232E-02
   7109.67  7.9586981E-02
   7110.00  1.0377714E-01
   7110.33  1.4434675E-01
   7110.67  2.1109657E-01
   7111.00  3.1196101E-01
   7111.33  4.4073469E-01
   7111.67  5.7150652E-01
   7112.00  6.7481416E-01
   7112.33  7.1504738E-01
   7112.67  6.9674110E-01
   7113.00  6.2453864E-01
   7113.33  5.1050857E-01
   7113.67  3.9497696E-01
   7114.00  3.0050480E-01
   7114.33  2.3605194E-01
   7114.67  1.9276759E-01
   7115.00  1.6486517E-01
   7115.33  1.4886733E-01
   7115.67  1.4089144E-01
   7116.00  1.3948043E-01
   7116.33  1.4225320E-01
   7116.67  1.4457260E-01
   7117.00  1.4462182E-01
   7117.33  1.4307411E-01
   7117.67  1.4138281E-01
   7118.00  1.3974809E-01
   7118.33  1.3845377E-01
   7118.67  1.3842669E-01
   7119.00  1.4027662E-01
   7119.33  1.4428801E-01
   7119.67  1.4963064E-01
   7120.00  1.5511468E-01
   7120.33  1.5932561E-01
   7120.67  1.6276675E-01
   7121.00  1.6676511E-01
   7121.33  1.7305363E-01
   7121.67  1.8196604E-01
   7122.00  1.9333893E-01
   7122.33  2.0710997E-01
   7122.67  2.2251288E-01
   7123.00  2.3854192E-01
   7123.33  2.5404949E-01
   7123.67  2.6954246E-01
   7124.00  2.8670673E-01
   7124.33  3.0861113E-01
   7124.67  3.3674690E-01
   7125.00  3.7132703E-01
   7125.33  4.0993579E-01
   7125.67  4.4590741E-01
   7126.00  4.7337137E-01
   7126.33  4.8718984E-01
   7126.67  4.9010517E-01
   7127.00  4.8591172E-01
   7127.33  4.7978896E-01
   7127.67  4.7663353E-01
   7128.00  4.7887505E-01
   7128.33  4.8718739E-01
   7128.67  4.9861931E-01
   7129.00  5.1140058E-01
   7129.33  5.2406185E-01
   7129.67  5.3406819E-01
   7130.00  5.3884967E-01
   7130.33  5.3667233E-01
   7130.67  5.3009789E-01
   7131.00  5.2177812E-01
   7131.33  5.1481556E-01
   7131.67  5.1114138E-01
   7132.00  5.1180287E-01
   7132.33  5.1796166E-01
   7132.67  5.2877235E-01
   7133.00  5.4309959E-01
   7133.33  5.5834904E-01
   7133.67  5.7071778E-01
   7134.00  5.7744335E-01
   7134.33  5.7665403E-01
   7134.67  5.7037662E-01
   7135.00  5.6007725E-01
   7135.33  5.4665235E-01
   7135.67  5.3143579E-01
   7136.00  5.1545964E-01
   7136.33  5.0027068E-01
   7136.67  4.8716430E-01
   7137.00  4.7699560E-01
   7137.33  4.7068061E-01
   7137.67  4.6776898E-01
   7138.00  4.6793130E-01
   7138.33  4.7091287E-01
   7138.67  4.7583557E-01
   7139.00  4.8232443E-01
   7139.33  4.9023081E-01
   7139.67  4.9914117E-01
   7140.00  5.0879968E-01
   7140.33  5.1890171E-01
   7140.67  5.2906371E-01
   7141.00  5.3908573E-01
   7141.33  5.4884839E-01
   7141.67  5.5842259E-01
   7142.00  5.6790318E-01
   7142.33  5.7741421E-01
   7142.67  5.8704999E-01
   7143.00  5.9687385E-01
   7143.33  6.0698625E-01
   7143.67  6.1743307E-01
   7144.00  6.2828854E-01
   7144.33  6.3969258E-01
   7144.67  6.5162840E-01
   7145.00  6.6408752E-01
   7145.33  6.7705252E-01
   7145.67  6.9032717E-01
   7146.00  7.0374759E-01
   7146.33  7.1707860E-01
   7146.67  7.3008211E-01
   7147.00  7.4253841E-01
   7147.33  7.5410908E-01
   7147.67  7.6469125E-01
   7148.00  7.7414184E-01
   7148.33  7.8216503E-01
   7148.67  7.8881213E-01
   7149.00  7.9401189E-01
   7149.33  7.9751824E-01
   7149.67  7.9948682E-01
   7150.00  7.9990514E-01
   7150.33  7.9858960E-01
   7150.67  7.9577438E-01
   7151.00  7.9152413E-01
   7151.33  7.8578408E-01
   7151.67  7.7886841E-01
   7152.00  7.7093247E-01
   7152.33  7.6208133E-01
   7152.67  7.5263919E-01
   7153.00  7.4279667E-01
   7153.33  7.3273457E-01
   7153.67  7.2264831E-01
   7154.00  7.1264661E-01
   7154.33  7.0282560E-01
   7154.67  6.9318988E-01
   7155.00  6.8372582E-01
   7155.33  6.7440420E-01
   7155.67  6.6514994E-01
   7156.00  6.5591186E-01
   7156.33  6.4663350E-01
   7156.67  6.3728197E-01
   7157.00  6.2784006E-01
   7157.33  6.1829323E-01
   7157.67  6.0866694E-01
   7158.00  5.9898332E-01
   7158.33  5.8927126E-01
   7158.67  5.7957057E-01
   7159.00  5.6991376E-01
   7159.33  5.6034174E-01
   7159.67  5.5086829E-01
   7160.00  5.4150724E-01
   7160.33  5.3228390E-01
   7160.67  5.2319111E-01
   7161.00  5.1423819E-01
   7161.33  5.0545992E-01
   7161.67  4.9686074E-01
   7162.00  4.8847045E-01
   7162.33  4.8035987E-01
   7162.67  4.7253807E-01
   7163.00  4.6503690E-01
   7163.33  4.5793038E-01
   7163.67  4.5119564E-01
   7164.00  4.4484242E-01
   7164.33  4.3891898E-01
   7164.67  4.3336891E-01
   7165.00  4.2817972E-01
   7165.33  4.2337476E-01
   7165.67  4.1888943E-01
   7166.00  4.1470384E-01
   7166.33  4.1082441E-01
   7166.67  4.0718314E-01
   7167.00  4.0374845E-01
   7167.33  4.0050570E-01
   7167.67  3.9739622E-01
   7168.00  3.9438607E-01
   7168.33  3.9144267E-01
   7168.67  3.8852072E-01
   7169.00  3.8559167E-01
   7169.33  3.8262611E-01
   7169.67  3.7961555E-01
   7170.00  3.7656240E-01
   7170.33  3.7348402E-01
   7170.67  3.7042349E-01
   7171.00  3.6743367E-01
   7171.33  3.6462467E-01
   7171.67  3.6211248E-01
   7172.00  3.6005190E-01
