    FDMNES
    energy     <xanes>
   7097.00  5.1530538E-03
   7097.33  5.2808818E-03
   7097.67  5.4148885E-03
   7098.00  5.5555148E-03
   7098.33  5.7042287E-03
   7098.67  5.8607680E-03
   7099.00  6.0257391E-03
   7099.33  6.2010846E-03
   7099.67  6.3865427E-03
   7100.00  6.5829698E-03
   7100.33  6.7930038E-03
   7100.67  7.0164160E-03
   7101.00  7.2544535E-03
   7101.33  7.5108082E-03
   7101.67  7.7853571E-03
   7102.00  8.0799807E-03
   7102.33  8.4000362E-03
   7102.67  8.7456635E-03
   7103.00  9.1198218E-03
   7103.33  9.5306306E-03
   7103.67  9.9788453E-03
   7104.00  1.0469371E-02
   7104.33  1.1015192E-02
   7104.67  1.1618512E-02
   7105.00  1.2288006E-02
   7105.33  1.3045906E-02
   7105.67  1.3897982E-02
   7106.00  1.4860930E-02
   7106.33  1.5976399E-02
   7106.67  1.7259753E-02
   7107.00  1.8747046E-02
   7107.33  2.0526741E-02
   7107.67  2.2643981E-02
   7108.00  2.5190898E-02
   7108.33  2.8394632E-02
   7108.67  3.2417057E-02
   7109.00  3.7566832E-02
   7109.33  4.4645606E-02
   7109.67  5.4491964E-02
   7110.00  6.8739899E-02
   7110.33  9.1998100E-02
   7110.67  1.2885197E-01
   7111.00  1.8009202E-01
   7111.33  2.3493698E-01
   7111.67  2.8760586E-01
   7112.00  3.4036090E-01
   7112.33  4.1642149E-01
   7112.67  5.4754010E-01
   7113.00  7.2306893E-01
   7113.33  7.6664754E-01
   7113.67  6.6016923E-01
   7114.00  5.2144461E-01
   7114.33  3.8139941E-01
   7114.67  2.7140894E-01
   7115.00  1.9825221E-01
   7115.33  1.5325111E-01
   7115.67  1.2389552E-01
   7116.00  1.0517810E-01
   7116.33  9.4307117E-02
   7116.67  8.8786449E-02
   7117.00  8.8328421E-02
   7117.33  9.3589402E-02
   7117.67  1.0252116E-01
   7118.00  1.1190335E-01
   7118.33  1.1791830E-01
   7118.67  1.1948571E-01
   7119.00  1.1712986E-01
   7119.33  1.1294674E-01
   7119.67  1.0893154E-01
   7120.00  1.0576297E-01
   7120.33  1.0375531E-01
   7120.67  1.0255366E-01
   7121.00  1.0179227E-01
   7121.33  1.0097921E-01
   7121.67  1.0002375E-01
   7122.00  9.9327233E-02
   7122.33  9.9290759E-02
   7122.67  9.9585475E-02
   7123.00  9.9869024E-02
   7123.33  1.0015692E-01
   7123.67  1.0096146E-01
   7124.00  1.0280901E-01
   7124.33  1.0631606E-01
   7124.67  1.1153932E-01
   7125.00  1.1864463E-01
   7125.33  1.2818714E-01
   7125.67  1.4039365E-01
   7126.00  1.5597724E-01
   7126.33  1.7666002E-01
   7126.67  2.0236199E-01
   7127.00  2.3134899E-01
   7127.33  2.5877078E-01
   7127.67  2.8223459E-01
   7128.00  3.0472902E-01
   7128.33  3.3252519E-01
   7128.67  3.6695379E-01
   7129.00  4.0564935E-01
   7129.33  4.4388464E-01
   7129.67  4.7842668E-01
   7130.00  5.0893622E-01
   7130.33  5.3678937E-01
   7130.67  5.6492969E-01
   7131.00  5.9658332E-01
   7131.33  6.3770242E-01
   7131.67  6.9013638E-01
   7132.00  7.5117321E-01
   7132.33  8.1223932E-01
   7132.67  8.6585883E-01
   7133.00  9.1032734E-01
   7133.33  9.4655729E-01
   7133.67  9.7746898E-01
   7134.00  1.0032962E+00
   7134.33  1.0224156E+00
   7134.67  1.0342240E+00
   7135.00  1.0369040E+00
   7135.33  1.0271300E+00
   7135.67  1.0056836E+00
   7136.00  9.7219119E-01
   7136.33  9.2548777E-01
   7136.67  8.7012303E-01
   7137.00  8.1061968E-01
   7137.33  7.5247362E-01
   7137.67  6.9949681E-01
   7138.00  6.5374367E-01
   7138.33  6.1739928E-01
   7138.67  5.8958579E-01
   7139.00  5.6986222E-01
   7139.33  5.5800875E-01
   7139.67  5.5152723E-01
   7140.00  5.4875728E-01
   7140.33  5.4801819E-01
   7140.67  5.4761563E-01
   7141.00  5.4683810E-01
   7141.33  5.4540435E-01
   7141.67  5.4363394E-01
   7142.00  5.4189658E-01
   7142.33  5.4069124E-01
   7142.67  5.4032996E-01
   7143.00  5.4106534E-01
   7143.33  5.4329790E-01
   7143.67  5.4705155E-01
   7144.00  5.5246673E-01
   7144.33  5.5991226E-01
   7144.67  5.6927598E-01
   7145.00  5.8061981E-01
   7145.33  5.9421157E-01
   7145.67  6.0972302E-01
   7146.00  6.2696341E-01
   7146.33  6.4566025E-01
   7146.67  6.6491694E-01
   7147.00  6.8383665E-01
   7147.33  7.0094961E-01
   7147.67  7.1519421E-01
   7148.00  7.2575563E-01
   7148.33  7.3168863E-01
   7148.67  7.3358521E-01
   7149.00  7.3179034E-01
   7149.33  7.2647270E-01
   7149.67  7.1861540E-01
   7150.00  7.0868812E-01
   7150.33  6.9696790E-01
   7150.67  6.8405438E-01
   7151.00  6.7024139E-01
   7151.33  6.5575346E-01
   7151.67  6.4092678E-01
   7152.00  6.2595440E-01
   7152.33  6.1103648E-01
   7152.67  5.9633316E-01
   7153.00  5.8196720E-01
   7153.33  5.6811751E-01
   7153.67  5.5483487E-01
   7154.00  5.4220643E-01
   7154.33  5.3040848E-01
   7154.67  5.1941861E-01
   7155.00  5.0929084E-01
   7155.33  5.0019423E-01
   7155.67  4.9205845E-01
   7156.00  4.8491245E-01
   7156.33  4.7890050E-01
   7156.67  4.7388942E-01
   7157.00  4.6984754E-01
   7157.33  4.6681731E-01
   7157.67  4.6458410E-01
   7158.00  4.6304026E-01
   7158.33  4.6211611E-01
   7158.67  4.6160310E-01
   7159.00  4.6138982E-01
   7159.33  4.6138705E-01
   7159.67  4.6148081E-01
   7160.00  4.6161159E-01
   7160.33  4.6172727E-01
   7160.67  4.6179532E-01
   7161.00  4.6179823E-01
   7161.33  4.6171929E-01
   7161.67  4.6156873E-01
   7162.00  4.6135005E-01
   7162.33  4.6105999E-01
   7162.67  4.6071362E-01
   7163.00  4.6032270E-01
   7163.33  4.5989626E-01
   7163.67  4.5944667E-01
   7164.00  4.5897788E-01
   7164.33  4.5848937E-01
   7164.67  4.5798238E-01
   7165.00  4.5745387E-01
   7165.33  4.5689399E-01
   7165.67  4.5629705E-01
   7166.00  4.5565270E-01
   7166.33  4.5493918E-01
   7166.67  4.5414884E-01
   7167.00  4.5326803E-01
   7167.33  4.5226847E-01
   7167.67  4.5115229E-01
   7168.00  4.4991934E-01
   7168.33  4.4856664E-01
   7168.67  4.4711869E-01
   7169.00  4.4558534E-01
   7169.33  4.4397563E-01
   7169.67  4.4232182E-01
   7170.00  4.4064753E-01
   7170.33  4.3898287E-01
   7170.67  4.3735759E-01
   7171.00  4.3580189E-01
   7171.33  4.3437429E-01
   7171.67  4.3312244E-01
   7172.00  4.3211372E-01
