    FDMNES
    energy     <xanes>
   7097.00  4.3173376E-03
   7097.33  4.4074977E-03
   7097.67  4.5012055E-03
   7098.00  4.5986774E-03
   7098.33  4.7006959E-03
   7098.67  4.8070633E-03
   7099.00  4.9180707E-03
   7099.33  5.0347215E-03
   7099.67  5.1568105E-03
   7100.00  5.2847409E-03
   7100.33  5.4198357E-03
   7100.67  5.5618970E-03
   7101.00  5.7115032E-03
   7101.33  5.8704594E-03
   7101.67  6.0386090E-03
   7102.00  6.2168182E-03
   7102.33  6.4076555E-03
   7102.67  6.6110840E-03
   7103.00  6.8284694E-03
   7103.33  7.0636641E-03
   7103.67  7.3169353E-03
   7104.00  7.5905788E-03
   7104.33  7.8907722E-03
   7104.67  8.2185454E-03
   7105.00  8.5780831E-03
   7105.33  8.9801866E-03
   7105.67  9.4278935E-03
   7106.00  9.9296787E-03
   7106.33  1.0506730E-02
   7106.67  1.1167923E-02
   7107.00  1.1933050E-02
   7107.33  1.2850836E-02
   7107.67  1.3950153E-02
   7108.00  1.5287644E-02
   7108.33  1.7004796E-02
   7108.67  1.9219176E-02
   7109.00  2.2152262E-02
   7109.33  2.6397186E-02
   7109.67  3.2663641E-02
   7110.00  4.2356168E-02
   7110.33  5.9590215E-02
   7110.67  8.8817780E-02
   7111.00  1.2915675E-01
   7111.33  1.5210387E-01
   7111.67  1.5282050E-01
   7112.00  1.5624665E-01
   7112.33  1.7041934E-01
   7112.67  1.6968828E-01
   7113.00  1.4267480E-01
   7113.33  1.1137533E-01
   7113.67  8.9218681E-02
   7114.00  7.5307264E-02
   7114.33  6.6014699E-02
   7114.67  5.9407453E-02
   7115.00  5.5363834E-02
   7115.33  5.3519484E-02
   7115.67  5.3083059E-02
   7116.00  5.3798148E-02
   7116.33  5.5620008E-02
   7116.67  5.8303881E-02
   7117.00  6.1736290E-02
   7117.33  6.5864989E-02
   7117.67  7.0638628E-02
   7118.00  7.6334866E-02
   7118.33  8.3709467E-02
   7118.67  9.3258650E-02
   7119.00  1.0563992E-01
   7119.33  1.2220768E-01
   7119.67  1.4341171E-01
   7120.00  1.6973999E-01
   7120.33  2.0117085E-01
   7120.67  2.3432955E-01
   7121.00  2.6511669E-01
   7121.33  2.8860751E-01
   7121.67  3.0580062E-01
   7122.00  3.2048279E-01
   7122.33  3.3797179E-01
   7122.67  3.6044241E-01
   7123.00  3.8769790E-01
   7123.33  4.1870891E-01
   7123.67  4.5217980E-01
   7124.00  4.8838370E-01
   7124.33  5.2789134E-01
   7124.67  5.6883237E-01
   7125.00  6.0853118E-01
   7125.33  6.4167554E-01
   7125.67  6.6306961E-01
   7126.00  6.6879163E-01
   7126.33  6.5778364E-01
   7126.67  6.3885129E-01
   7127.00  6.1917216E-01
   7127.33  6.0419992E-01
   7127.67  5.9363919E-01
   7128.00  5.8568086E-01
   7128.33  5.7870279E-01
   7128.67  5.7269564E-01
   7129.00  5.6900948E-01
   7129.33  5.6987196E-01
   7129.67  5.7567975E-01
   7130.00  5.8652047E-01
   7130.33  6.0247135E-01
   7130.67  6.2184192E-01
   7131.00  6.4322680E-01
   7131.33  6.6480358E-01
   7131.67  6.8492048E-01
   7132.00  7.0261366E-01
   7132.33  7.1695402E-01
   7132.67  7.2822344E-01
   7133.00  7.3656719E-01
   7133.33  7.4184138E-01
   7133.67  7.4442313E-01
   7134.00  7.4457884E-01
   7134.33  7.4343028E-01
   7134.67  7.4254927E-01
   7135.00  7.4218023E-01
   7135.33  7.4127047E-01
   7135.67  7.3829588E-01
   7136.00  7.3212521E-01
   7136.33  7.2180291E-01
   7136.67  7.0827454E-01
   7137.00  6.9249305E-01
   7137.33  6.7560911E-01
   7137.67  6.5880944E-01
   7138.00  6.4269600E-01
   7138.33  6.2775245E-01
   7138.67  6.1394406E-01
   7139.00  6.0124810E-01
   7139.33  5.8973530E-01
   7139.67  5.7922234E-01
   7140.00  5.6968206E-01
   7140.33  5.6121725E-01
   7140.67  5.5370395E-01
   7141.00  5.4714805E-01
   7141.33  5.4169091E-01
   7141.67  5.3726085E-01
   7142.00  5.3392327E-01
   7142.33  5.3185462E-01
   7142.67  5.3089993E-01
   7143.00  5.3102059E-01
   7143.33  5.3227082E-01
   7143.67  5.3443298E-01
   7144.00  5.3741829E-01
   7144.33  5.4120689E-01
   7144.67  5.4559520E-01
   7145.00  5.5047866E-01
   7145.33  5.5576841E-01
   7145.67  5.6126766E-01
   7146.00  5.6683020E-01
   7146.33  5.7225322E-01
   7146.67  5.7735551E-01
   7147.00  5.8197239E-01
   7147.33  5.8584954E-01
   7147.67  5.8892325E-01
   7148.00  5.9107844E-01
   7148.33  5.9207741E-01
   7148.67  5.9198842E-01
   7149.00  5.9078436E-01
   7149.33  5.8830979E-01
   7149.67  5.8470910E-01
   7150.00  5.7999987E-01
   7150.33  5.7408782E-01
   7150.67  5.6716716E-01
   7151.00  5.5930669E-01
   7151.33  5.5049880E-01
   7151.67  5.4095785E-01
   7152.00  5.3078386E-01
   7152.33  5.2003659E-01
   7152.67  5.0889319E-01
   7153.00  4.9743883E-01
   7153.33  4.8573603E-01
   7153.67  4.7389484E-01
   7154.00  4.6198105E-01
   7154.33  4.5006648E-01
   7154.67  4.3822004E-01
   7155.00  4.2649793E-01
   7155.33  4.1498611E-01
   7155.67  4.0372287E-01
   7156.00  3.9275920E-01
   7156.33  3.8219344E-01
   7156.67  3.7202901E-01
   7157.00  3.6230188E-01
   7157.33  3.5310653E-01
   7157.67  3.4441264E-01
   7158.00  3.3624050E-01
   7158.33  3.2867520E-01
   7158.67  3.2165949E-01
   7159.00  3.1519790E-01
   7159.33  3.0936458E-01
   7159.67  3.0409609E-01
   7160.00  2.9940081E-01
   7160.33  2.9536484E-01
   7160.67  2.9193095E-01
   7161.00  2.8911458E-01
   7161.33  2.8701322E-01
   7161.67  2.8556339E-01
   7162.00  2.8477356E-01
   7162.33  2.8472626E-01
   7162.67  2.8533220E-01
   7163.00  2.8657950E-01
   7163.33  2.8851579E-01
   7163.67  2.9101171E-01
   7164.00  2.9400853E-01
   7164.33  2.9747422E-01
   7164.67  3.0126935E-01
   7165.00  3.0532042E-01
   7165.33  3.0955794E-01
   7165.67  3.1386851E-01
   7166.00  3.1817466E-01
   7166.33  3.2238341E-01
   7166.67  3.2643698E-01
   7167.00  3.3029038E-01
   7167.33  3.3388116E-01
   7167.67  3.3722689E-01
   7168.00  3.4033481E-01
   7168.33  3.4320539E-01
   7168.67  3.4590734E-01
   7169.00  3.4848491E-01
   7169.33  3.5098461E-01
   7169.67  3.5346768E-01
   7170.00  3.5597240E-01
   7170.33  3.5853670E-01
   7170.67  3.6116390E-01
   7171.00  3.6383751E-01
   7171.33  3.6648836E-01
   7171.67  3.6896486E-01
   7172.00  3.7104811E-01
