    FDMNES
    energy     <xanes>
   7097.00  4.3770734E-03
   7097.33  4.4654424E-03
   7097.67  4.5573334E-03
   7098.00  4.6529695E-03
   7098.33  4.7531417E-03
   7098.67  4.8576655E-03
   7099.00  4.9668442E-03
   7099.33  5.0817028E-03
   7099.67  5.2020535E-03
   7100.00  5.3283215E-03
   7100.33  5.4618743E-03
   7100.67  5.6025384E-03
   7101.00  5.7509315E-03
   7101.33  5.9089437E-03
   7101.67  6.0764558E-03
   7102.00  6.2544040E-03
   7102.33  6.4455154E-03
   7102.67  6.6498163E-03
   7103.00  6.8688006E-03
   7103.33  7.1066185E-03
   7103.67  7.3636540E-03
   7104.00  7.6424481E-03
   7104.33  7.9497546E-03
   7104.67  8.2868445E-03
   7105.00  8.6584019E-03
   7105.33  9.0764093E-03
   7105.67  9.5444657E-03
   7106.00  1.0072164E-02
   7106.33  1.0683355E-02
   7106.67  1.1388435E-02
   7107.00  1.2210082E-02
   7107.33  1.3204012E-02
   7107.67  1.4404149E-02
   7108.00  1.5876445E-02
   7108.33  1.7785900E-02
   7108.67  2.0272817E-02
   7109.00  2.3601375E-02
   7109.33  2.8483521E-02
   7109.67  3.5790154E-02
   7110.00  4.7248733E-02
   7110.33  6.7867531E-02
   7110.67  1.0229642E-01
   7111.00  1.4677623E-01
   7111.33  1.7148855E-01
   7111.67  1.7193877E-01
   7112.00  1.5909887E-01
   7112.33  1.3838601E-01
   7112.67  1.2444613E-01
   7113.00  1.2490975E-01
   7113.33  1.4130099E-01
   7113.67  1.6310779E-01
   7114.00  1.7459749E-01
   7114.33  1.6289921E-01
   7114.67  1.3775032E-01
   7115.00  1.0865841E-01
   7115.33  8.5872794E-02
   7115.67  7.0398629E-02
   7116.00  6.0475648E-02
   7116.33  5.4514158E-02
   7116.67  5.0663950E-02
   7117.00  4.8153592E-02
   7117.33  4.6699201E-02
   7117.67  4.6151778E-02
   7118.00  4.6542332E-02
   7118.33  4.7933640E-02
   7118.67  5.0063416E-02
   7119.00  5.2753729E-02
   7119.33  5.5890081E-02
   7119.67  5.9450725E-02
   7120.00  6.3679605E-02
   7120.33  6.9183753E-02
   7120.67  7.6313420E-02
   7121.00  8.5388957E-02
   7121.33  9.6818934E-02
   7121.67  1.1016017E-01
   7122.00  1.2494332E-01
   7122.33  1.4036673E-01
   7122.67  1.5567943E-01
   7123.00  1.7119102E-01
   7123.33  1.8842825E-01
   7123.67  2.0841979E-01
   7124.00  2.3176261E-01
   7124.33  2.5978785E-01
   7124.67  2.9270881E-01
   7125.00  3.3007001E-01
   7125.33  3.7042364E-01
   7125.67  4.1344540E-01
   7126.00  4.6212939E-01
   7126.33  5.2082989E-01
   7126.67  5.8710077E-01
   7127.00  6.5562698E-01
   7127.33  7.1504529E-01
   7127.67  7.5388379E-01
   7128.00  7.6699698E-01
   7128.33  7.5936419E-01
   7128.67  7.4605971E-01
   7129.00  7.3439841E-01
   7129.33  7.2781828E-01
   7129.67  7.2484001E-01
   7130.00  7.2376970E-01
   7130.33  7.2358812E-01
   7130.67  7.2452503E-01
   7131.00  7.2742101E-01
   7131.33  7.3326271E-01
   7131.67  7.4185811E-01
   7132.00  7.5311965E-01
   7132.33  7.6652616E-01
   7132.67  7.7955797E-01
   7133.00  7.8949162E-01
   7133.33  7.9375626E-01
   7133.67  7.9378951E-01
   7134.00  7.9199953E-01
   7134.33  7.9147751E-01
   7134.67  7.9329022E-01
   7135.00  7.9624853E-01
   7135.33  7.9676298E-01
   7135.67  7.9213060E-01
   7136.00  7.8189789E-01
   7136.33  7.6755825E-01
   7136.67  7.5244442E-01
   7137.00  7.3852023E-01
   7137.33  7.2731357E-01
   7137.67  7.1882755E-01
   7138.00  7.1290081E-01
   7138.33  7.0941804E-01
   7138.67  7.0766708E-01
   7139.00  7.0727327E-01
   7139.33  7.0791071E-01
   7139.67  7.0898451E-01
   7140.00  7.1002383E-01
   7140.33  7.1033888E-01
   7140.67  7.0942361E-01
   7141.00  7.0691142E-01
   7141.33  7.0244030E-01
   7141.67  6.9641206E-01
   7142.00  6.8918165E-01
   7142.33  6.8113283E-01
   7142.67  6.7269859E-01
   7143.00  6.6399376E-01
   7143.33  6.5494853E-01
   7143.67  6.4549799E-01
   7144.00  6.3558185E-01
   7144.33  6.2515535E-01
   7144.67  6.1436815E-01
   7145.00  6.0333512E-01
   7145.33  5.9217776E-01
   7145.67  5.8101917E-01
   7146.00  5.6992102E-01
   7146.33  5.5892710E-01
   7146.67  5.4802360E-01
   7147.00  5.3719019E-01
   7147.33  5.2639467E-01
   7147.67  5.1559689E-01
   7148.00  5.0478566E-01
   7148.33  4.9397579E-01
   7148.67  4.8320377E-01
   7149.00  4.7252967E-01
   7149.33  4.6209240E-01
   7149.67  4.5202110E-01
   7150.00  4.4247157E-01
   7150.33  4.3371937E-01
   7150.67  4.2584709E-01
   7151.00  4.1896955E-01
   7151.33  4.1329141E-01
   7151.67  4.0867283E-01
   7152.00  4.0504412E-01
   7152.33  4.0235798E-01
   7152.67  4.0029392E-01
   7153.00  3.9862950E-01
   7153.33  3.9709445E-01
   7153.67  3.9538579E-01
   7154.00  3.9327602E-01
   7154.33  3.9048011E-01
   7154.67  3.8695956E-01
   7155.00  3.8270983E-01
   7155.33  3.7776157E-01
   7155.67  3.7240368E-01
   7156.00  3.6686863E-01
   7156.33  3.6145745E-01
   7156.67  3.5641605E-01
   7157.00  3.5190664E-01
   7157.33  3.4809319E-01
   7157.67  3.4487176E-01
   7158.00  3.4214900E-01
   7158.33  3.3982195E-01
   7158.67  3.3770849E-01
   7159.00  3.3572651E-01
   7159.33  3.3384750E-01
   7159.67  3.3207578E-01
   7160.00  3.3045808E-01
   7160.33  3.2909718E-01
   7160.67  3.2804465E-01
   7161.00  3.2736798E-01
   7161.33  3.2720726E-01
   7161.67  3.2758210E-01
   7162.00  3.2854368E-01
   7162.33  3.3021310E-01
   7162.67  3.3253270E-01
   7163.00  3.3550251E-01
   7163.33  3.3918287E-01
   7163.67  3.4345912E-01
   7164.00  3.4829003E-01
   7164.33  3.5368218E-01
   7164.67  3.5951304E-01
   7165.00  3.6573120E-01
   7165.33  3.7232237E-01
   7165.67  3.7919285E-01
   7166.00  3.8630031E-01
   7166.33  3.9362647E-01
   7166.67  4.0111120E-01
   7167.00  4.0872581E-01
   7167.33  4.1644683E-01
   7167.67  4.2421859E-01
   7168.00  4.3199108E-01
   7168.33  4.3967821E-01
   7168.67  4.4719110E-01
   7169.00  4.5442905E-01
   7169.33  4.6121169E-01
   7169.67  4.6745671E-01
   7170.00  4.7305855E-01
   7170.33  4.7782700E-01
   7170.67  4.8179855E-01
   7171.00  4.8496666E-01
   7171.33  4.8728441E-01
   7171.67  4.8895893E-01
   7172.00  4.9014007E-01
