    FDMNES
    energy     <xanes>
   7097.00  4.4818760E-03
   7097.33  4.5764445E-03
   7097.67  4.6747907E-03
   7098.00  4.7771449E-03
   7098.33  4.8843392E-03
   7098.67  4.9961618E-03
   7099.00  5.1129206E-03
   7099.33  5.2356793E-03
   7099.67  5.3642148E-03
   7100.00  5.4989502E-03
   7100.33  5.6412805E-03
   7100.67  5.7909845E-03
   7101.00  5.9486629E-03
   7101.33  6.1162033E-03
   7101.67  6.2934172E-03
   7102.00  6.4811914E-03
   7102.33  6.6821810E-03
   7102.67  6.8963004E-03
   7103.00  7.1249237E-03
   7103.33  7.3719708E-03
   7103.67  7.6376231E-03
   7104.00  7.9241416E-03
   7104.33  8.2376826E-03
   7104.67  8.5790972E-03
   7105.00  8.9524013E-03
   7105.33  9.3680736E-03
   7105.67  9.8287081E-03
   7106.00  1.0342187E-02
   7106.33  1.0928376E-02
   7106.67  1.1594834E-02
   7107.00  1.2359275E-02
   7107.33  1.3265473E-02
   7107.67  1.4337447E-02
   7108.00  1.5623543E-02
   7108.33  1.7244120E-02
   7108.67  1.9293001E-02
   7109.00  2.1947976E-02
   7109.33  2.5679158E-02
   7109.67  3.1019458E-02
   7110.00  3.9014710E-02
   7110.33  5.2683426E-02
   7110.67  7.5299280E-02
   7111.00  1.0772874E-01
   7111.33  1.4007494E-01
   7111.67  1.6420986E-01
   7112.00  1.7483618E-01
   7112.33  1.6832960E-01
   7112.67  1.5920547E-01
   7113.00  1.5228184E-01
   7113.33  1.4680381E-01
   7113.67  1.3780113E-01
   7114.00  1.2203475E-01
   7114.33  1.0137022E-01
   7114.67  8.2993444E-02
   7115.00  7.1083513E-02
   7115.33  6.6357143E-02
   7115.67  6.6655508E-02
   7116.00  7.1506168E-02
   7116.33  8.1744838E-02
   7116.67  9.6898981E-02
   7117.00  1.1600382E-01
   7117.33  1.3847248E-01
   7117.67  1.6471860E-01
   7118.00  1.9374447E-01
   7118.33  2.2164537E-01
   7118.67  2.4663500E-01
   7119.00  2.6895069E-01
   7119.33  2.8913239E-01
   7119.67  3.1070700E-01
   7120.00  3.3511174E-01
   7120.33  3.5450004E-01
   7120.67  3.5970185E-01
   7121.00  3.5176564E-01
   7121.33  3.3948404E-01
   7121.67  3.3005498E-01
   7122.00  3.2533197E-01
   7122.33  3.2591172E-01
   7122.67  3.3071997E-01
   7123.00  3.3965224E-01
   7123.33  3.5334253E-01
   7123.67  3.7117236E-01
   7124.00  3.9276515E-01
   7124.33  4.1678451E-01
   7124.67  4.3970397E-01
   7125.00  4.5873438E-01
   7125.33  4.7131668E-01
   7125.67  4.7832881E-01
   7126.00  4.8157893E-01
   7126.33  4.8367979E-01
   7126.67  4.8692371E-01
   7127.00  4.9287666E-01
   7127.33  5.0370056E-01
   7127.67  5.1918927E-01
   7128.00  5.3764963E-01
   7128.33  5.5522121E-01
   7128.67  5.6899523E-01
   7129.00  5.7868088E-01
   7129.33  5.8523285E-01
   7129.67  5.8976693E-01
   7130.00  5.9219482E-01
   7130.33  5.9258048E-01
   7130.67  5.9235782E-01
   7131.00  5.9287208E-01
   7131.33  5.9583632E-01
   7131.67  6.0188666E-01
   7132.00  6.1098089E-01
   7132.33  6.2212488E-01
   7132.67  6.3299855E-01
   7133.00  6.4175719E-01
   7133.33  6.4645453E-01
   7133.67  6.4735390E-01
   7134.00  6.4551853E-01
   7134.33  6.4257999E-01
   7134.67  6.3966552E-01
   7135.00  6.3690778E-01
   7135.33  6.3443827E-01
   7135.67  6.3269002E-01
   7136.00  6.3226538E-01
   7136.33  6.3407108E-01
   7136.67  6.3814796E-01
   7137.00  6.4424849E-01
   7137.33  6.5151865E-01
   7137.67  6.5806190E-01
   7138.00  6.6186373E-01
   7138.33  6.5998450E-01
   7138.67  6.5183648E-01
   7139.00  6.3782163E-01
   7139.33  6.1929316E-01
   7139.67  5.9907481E-01
   7140.00  5.7883742E-01
   7140.33  5.6002604E-01
   7140.67  5.4316381E-01
   7141.00  5.2851791E-01
   7141.33  5.1647138E-01
   7141.67  5.0668283E-01
   7142.00  4.9902233E-01
   7142.33  4.9350018E-01
   7142.67  4.8960521E-01
   7143.00  4.8710171E-01
   7143.33  4.8589238E-01
   7143.67  4.8563640E-01
   7144.00  4.8618993E-01
   7144.33  4.8747643E-01
   7144.67  4.8925144E-01
   7145.00  4.9136741E-01
   7145.33  4.9367098E-01
   7145.67  4.9597641E-01
   7146.00  4.9815566E-01
   7146.33  5.0004086E-01
   7146.67  5.0153905E-01
   7147.00  5.0255084E-01
   7147.33  5.0290493E-01
   7147.67  5.0260427E-01
   7148.00  5.0161809E-01
   7148.33  4.9987380E-01
   7148.67  4.9751329E-01
   7149.00  4.9460788E-01
   7149.33  4.9119542E-01
   7149.67  4.8743172E-01
   7150.00  4.8340628E-01
   7150.33  4.7920913E-01
   7150.67  4.7496691E-01
   7151.00  4.7076268E-01
   7151.33  4.6669983E-01
   7151.67  4.6284436E-01
   7152.00  4.5926170E-01
   7152.33  4.5606510E-01
   7152.67  4.5327473E-01
   7153.00  4.5094024E-01
   7153.33  4.4918090E-01
   7153.67  4.4798247E-01
   7154.00  4.4738184E-01
   7154.33  4.4749650E-01
   7154.67  4.4827597E-01
   7155.00  4.4973271E-01
   7155.33  4.5194342E-01
   7155.67  4.5478655E-01
   7156.00  4.5820034E-01
   7156.33  4.6213409E-01
   7156.67  4.6638330E-01
   7157.00  4.7079628E-01
   7157.33  4.7517491E-01
   7157.67  4.7932639E-01
   7158.00  4.8309384E-01
   7158.33  4.8625443E-01
   7158.67  4.8875612E-01
   7159.00  4.9052578E-01
   7159.33  4.9141756E-01
   7159.67  4.9152578E-01
   7160.00  4.9088257E-01
   7160.33  4.8948328E-01
   7160.67  4.8753390E-01
   7161.00  4.8515998E-01
   7161.33  4.8247101E-01
   7161.67  4.7962540E-01
   7162.00  4.7670690E-01
   7162.33  4.7378260E-01
   7162.67  4.7089168E-01
   7163.00  4.6804970E-01
   7163.33  4.6526787E-01
   7163.67  4.6253569E-01
   7164.00  4.5984783E-01
   7164.33  4.5720400E-01
   7164.67  4.5459773E-01
   7165.00  4.5203164E-01
   7165.33  4.4951891E-01
   7165.67  4.4706532E-01
   7166.00  4.4468491E-01
   7166.33  4.4240979E-01
   7166.67  4.4025165E-01
   7167.00  4.3823131E-01
   7167.33  4.3639147E-01
   7167.67  4.3473025E-01
   7168.00  4.3325901E-01
   7168.33  4.3201158E-01
   7168.67  4.3096810E-01
   7169.00  4.3013064E-01
   7169.33  4.2952594E-01
   7169.67  4.2912667E-01
   7170.00  4.2892868E-01
   7170.33  4.2894668E-01
   7170.67  4.2914036E-01
   7171.00  4.2948667E-01
   7171.33  4.2995462E-01
   7171.67  4.3045580E-01
   7172.00  4.3089761E-01
