    FDMNES
    energy     <xanes>
   7097.00  5.3597546E-03
   7097.33  5.5003750E-03
   7097.67  5.6480746E-03
   7098.00  5.8033755E-03
   7098.33  5.9679896E-03
   7098.67  6.1416414E-03
   7099.00  6.3250576E-03
   7099.33  6.5205269E-03
   7099.67  6.7277859E-03
   7100.00  6.9478738E-03
   7100.33  7.1839376E-03
   7100.67  7.4357743E-03
   7101.00  7.7049196E-03
   7101.33  7.9958451E-03
   7101.67  8.3085142E-03
   7102.00  8.6452853E-03
   7102.33  9.0127680E-03
   7102.67  9.4113243E-03
   7103.00  9.8447499E-03
   7103.33  1.0323293E-02
   7103.67  1.0848247E-02
   7104.00  1.1426077E-02
   7104.33  1.2073650E-02
   7104.67  1.2794472E-02
   7105.00  1.3600383E-02
   7105.33  1.4521318E-02
   7105.67  1.5566382E-02
   7106.00  1.6759350E-02
   7106.33  1.8158935E-02
   7106.67  1.9789819E-02
   7107.00  2.1706118E-02
   7107.33  2.4039900E-02
   7107.67  2.6866216E-02
   7108.00  3.0332168E-02
   7108.33  3.4800578E-02
   7108.67  4.0551559E-02
   7109.00  4.8109016E-02
   7109.33  5.8837616E-02
   7109.67  7.4220027E-02
   7110.00  9.7124563E-02
   7110.33  1.3580176E-01
   7110.67  2.0057645E-01
   7111.00  3.0344142E-01
   7111.33  4.4851732E-01
   7111.67  5.8272738E-01
   7112.00  6.1395159E-01
   7112.33  5.3901067E-01
   7112.67  4.6320776E-01
   7113.00  4.0923980E-01
   7113.33  3.6708301E-01
   7113.67  3.2596792E-01
   7114.00  2.9103617E-01
   7114.33  2.7056823E-01
   7114.67  2.5710319E-01
   7115.00  2.4126939E-01
   7115.33  2.2351949E-01
   7115.67  2.0852718E-01
   7116.00  1.9411764E-01
   7116.33  1.7872254E-01
   7116.67  1.6502958E-01
   7117.00  1.5447517E-01
   7117.33  1.4713083E-01
   7117.67  1.4175358E-01
   7118.00  1.3793222E-01
   7118.33  1.3584921E-01
   7118.67  1.3523507E-01
   7119.00  1.3557681E-01
   7119.33  1.3599010E-01
   7119.67  1.3626529E-01
   7120.00  1.3712146E-01
   7120.33  1.3975873E-01
   7120.67  1.4431921E-01
   7121.00  1.5065154E-01
   7121.33  1.5877570E-01
   7121.67  1.6861396E-01
   7122.00  1.8034845E-01
   7122.33  1.9381792E-01
   7122.67  2.0811000E-01
   7123.00  2.2289131E-01
   7123.33  2.3790803E-01
   7123.67  2.5273565E-01
   7124.00  2.6717178E-01
   7124.33  2.8131512E-01
   7124.67  2.9536549E-01
   7125.00  3.0906836E-01
   7125.33  3.2158817E-01
   7125.67  3.3260352E-01
   7126.00  3.4233029E-01
   7126.33  3.5147994E-01
   7126.67  3.6095943E-01
   7127.00  3.7106447E-01
   7127.33  3.8110957E-01
   7127.67  3.8973679E-01
   7128.00  3.9654267E-01
   7128.33  4.0311799E-01
   7128.67  4.1255904E-01
   7129.00  4.2712641E-01
   7129.33  4.4817801E-01
   7129.67  4.7324598E-01
   7130.00  4.9988183E-01
   7130.33  5.2571662E-01
   7130.67  5.4997946E-01
   7131.00  5.7287746E-01
   7131.33  5.9518657E-01
   7131.67  6.1812123E-01
   7132.00  6.4270709E-01
   7132.33  6.7024733E-01
   7132.67  7.0065527E-01
   7133.00  7.3279811E-01
   7133.33  7.6246692E-01
   7133.67  7.8368024E-01
   7134.00  7.9179591E-01
   7134.33  7.8392114E-01
   7134.67  7.6496976E-01
   7135.00  7.3879084E-01
   7135.33  7.0890739E-01
   7135.67  6.7856643E-01
   7136.00  6.4943237E-01
   7136.33  6.2314806E-01
   7136.67  6.0023576E-01
   7137.00  5.8107159E-01
   7137.33  5.6621224E-01
   7137.67  5.5496905E-01
   7138.00  5.4703290E-01
   7138.33  5.4235934E-01
   7138.67  5.4018991E-01
   7139.00  5.4020920E-01
   7139.33  5.4230238E-01
   7139.67  5.4591138E-01
   7140.00  5.5076818E-01
   7140.33  5.5668961E-01
   7140.67  5.6325969E-01
   7141.00  5.7022842E-01
   7141.33  5.7733114E-01
   7141.67  5.8429640E-01
   7142.00  5.9094170E-01
   7142.33  5.9707349E-01
   7142.67  6.0271872E-01
   7143.00  6.0793902E-01
   7143.33  6.1285538E-01
   7143.67  6.1771051E-01
   7144.00  6.2269583E-01
   7144.33  6.2805666E-01
   7144.67  6.3390547E-01
   7145.00  6.4031989E-01
   7145.33  6.4739298E-01
   7145.67  6.5499740E-01
   7146.00  6.6303451E-01
   7146.33  6.7137576E-01
   7146.67  6.7978707E-01
   7147.00  6.8807473E-01
   7147.33  6.9594968E-01
   7147.67  7.0321446E-01
   7148.00  7.0968861E-01
   7148.33  7.1507446E-01
   7148.67  7.1933711E-01
   7149.00  7.2236016E-01
   7149.33  7.2386825E-01
   7149.67  7.2396335E-01
   7150.00  7.2262557E-01
   7150.33  7.1969947E-01
   7150.67  7.1542887E-01
   7151.00  7.0990549E-01
   7151.33  7.0313209E-01
   7151.67  6.9542004E-01
   7152.00  6.8693141E-01
   7152.33  6.7778601E-01
   7152.67  6.6824483E-01
   7153.00  6.5845826E-01
   7153.33  6.4857059E-01
   7153.67  6.3872302E-01
   7154.00  6.2900509E-01
   7154.33  6.1952202E-01
   7154.67  6.1030248E-01
   7155.00  6.0137630E-01
   7155.33  5.9279959E-01
   7155.67  5.8453719E-01
   7156.00  5.7658596E-01
   7156.33  5.6897519E-01
   7156.67  5.6165289E-01
   7157.00  5.5460377E-01
   7157.33  5.4784029E-01
   7157.67  5.4131226E-01
   7158.00  5.3500554E-01
   7158.33  5.2893295E-01
   7158.67  5.2306229E-01
   7159.00  5.1739485E-01
   7159.33  5.1196609E-01
   7159.67  5.0676601E-01
   7160.00  5.0181371E-01
   7160.33  4.9716930E-01
   7160.67  4.9282542E-01
   7161.00  4.8880156E-01
   7161.33  4.8515223E-01
   7161.67  4.8183704E-01
   7162.00  4.7884504E-01
   7162.33  4.7618116E-01
   7162.67  4.7375641E-01
   7163.00  4.7151013E-01
   7163.33  4.6936854E-01
   7163.67  4.6722564E-01
   7164.00  4.6499899E-01
   7164.33  4.6257330E-01
   7164.67  4.5988280E-01
   7165.00  4.5686876E-01
   7165.33  4.5344648E-01
   7165.67  4.4964811E-01
   7166.00  4.4548003E-01
   7166.33  4.4092371E-01
   7166.67  4.3606195E-01
   7167.00  4.3093998E-01
   7167.33  4.2559984E-01
   7167.67  4.2013450E-01
   7168.00  4.1459952E-01
   7168.33  4.0905815E-01
   7168.67  4.0357352E-01
   7169.00  3.9819683E-01
   7169.33  3.9300402E-01
   7169.67  3.8802497E-01
   7170.00  3.8329867E-01
   7170.33  3.7890212E-01
   7170.67  3.7483612E-01
   7171.00  3.7113410E-01
   7171.33  3.6789548E-01
   7171.67  3.6514062E-01
   7172.00  3.6295195E-01
