    FDMNES
    energy     <xanes>
   7097.00  5.3990951E-03
   7097.33  5.5402527E-03
   7097.67  5.6885346E-03
   7098.00  5.8444697E-03
   7098.33  6.0097860E-03
   7098.67  6.1842112E-03
   7099.00  6.3684823E-03
   7099.33  6.5649149E-03
   7099.67  6.7732516E-03
   7100.00  6.9945495E-03
   7100.33  7.2320011E-03
   7100.67  7.4854149E-03
   7101.00  7.7563587E-03
   7101.33  8.0493836E-03
   7101.67  8.3644763E-03
   7102.00  8.7040552E-03
   7102.33  9.0748743E-03
   7102.67  9.4773456E-03
   7103.00  9.9153806E-03
   7103.33  1.0399506E-02
   7103.67  1.0931125E-02
   7104.00  1.1516943E-02
   7104.33  1.2174396E-02
   7104.67  1.2907257E-02
   7105.00  1.3727897E-02
   7105.33  1.4667520E-02
   7105.67  1.5735924E-02
   7106.00  1.6958203E-02
   7106.33  1.8396215E-02
   7106.67  2.0076696E-02
   7107.00  2.2057513E-02
   7107.33  2.4479823E-02
   7107.67  2.7425926E-02
   7108.00  3.1055958E-02
   7108.33  3.5765661E-02
   7108.67  4.1868387E-02
   7109.00  4.9949471E-02
   7109.33  6.1543028E-02
   7109.67  7.8359896E-02
   7110.00  1.0372466E-01
   7110.33  1.4725029E-01
   7110.67  2.2074099E-01
   7111.00  3.3578490E-01
   7111.33  4.8511094E-01
   7111.67  6.0079820E-01
   7112.00  6.0561683E-01
   7112.33  5.2449221E-01
   7112.67  4.4961523E-01
   7113.00  3.9148888E-01
   7113.33  3.4102242E-01
   7113.67  2.9714637E-01
   7114.00  2.6345873E-01
   7114.33  2.3868050E-01
   7114.67  2.1596580E-01
   7115.00  1.9714926E-01
   7115.33  1.8764951E-01
   7115.67  1.8378423E-01
   7116.00  1.7884243E-01
   7116.33  1.6772069E-01
   7116.67  1.5505738E-01
   7117.00  1.4528325E-01
   7117.33  1.4014250E-01
   7117.67  1.3763817E-01
   7118.00  1.3649158E-01
   7118.33  1.3624762E-01
   7118.67  1.3653321E-01
   7119.00  1.3727525E-01
   7119.33  1.3844346E-01
   7119.67  1.3987502E-01
   7120.00  1.4232793E-01
   7120.33  1.4677567E-01
   7120.67  1.5276511E-01
   7121.00  1.5987567E-01
   7121.33  1.6808024E-01
   7121.67  1.7779374E-01
   7122.00  1.8948200E-01
   7122.33  2.0317442E-01
   7122.67  2.1830468E-01
   7123.00  2.3489145E-01
   7123.33  2.5336004E-01
   7123.67  2.7325708E-01
   7124.00  2.9363986E-01
   7124.33  3.1263645E-01
   7124.67  3.2884256E-01
   7125.00  3.4184503E-01
   7125.33  3.5238144E-01
   7125.67  3.6267529E-01
   7126.00  3.7400015E-01
   7126.33  3.8632385E-01
   7126.67  3.9842396E-01
   7127.00  4.0995358E-01
   7127.33  4.2043862E-01
   7127.67  4.2913308E-01
   7128.00  4.3610201E-01
   7128.33  4.4293889E-01
   7128.67  4.5143687E-01
   7129.00  4.6200721E-01
   7129.33  4.7401363E-01
   7129.67  4.8629884E-01
   7130.00  4.9862699E-01
   7130.33  5.1155643E-01
   7130.67  5.2575420E-01
   7131.00  5.4165104E-01
   7131.33  5.5972110E-01
   7131.67  5.7988929E-01
   7132.00  6.0232418E-01
   7132.33  6.2731054E-01
   7132.67  6.5388902E-01
   7133.00  6.8060897E-01
   7133.33  7.0450534E-01
   7133.67  7.2301056E-01
   7134.00  7.3438402E-01
   7134.33  7.3708982E-01
   7134.67  7.3281757E-01
   7135.00  7.2278692E-01
   7135.33  7.0822550E-01
   7135.67  6.9136384E-01
   7136.00  6.7341602E-01
   7136.33  6.5530117E-01
   7136.67  6.3755120E-01
   7137.00  6.2046851E-01
   7137.33  6.0461039E-01
   7137.67  5.9039767E-01
   7138.00  5.7832071E-01
   7138.33  5.6909134E-01
   7138.67  5.6248424E-01
   7139.00  5.5835169E-01
   7139.33  5.5664672E-01
   7139.67  5.5674533E-01
   7140.00  5.5836603E-01
   7140.33  5.6139080E-01
   7140.67  5.6543953E-01
   7141.00  5.7034319E-01
   7141.33  5.7600658E-01
   7141.67  5.8218205E-01
   7142.00  5.8874091E-01
   7142.33  5.9557374E-01
   7142.67  6.0251864E-01
   7143.00  6.0947129E-01
   7143.33  6.1631730E-01
   7143.67  6.2299753E-01
   7144.00  6.2948250E-01
   7144.33  6.3575224E-01
   7144.67  6.4186862E-01
   7145.00  6.4788098E-01
   7145.33  6.5384663E-01
   7145.67  6.5982276E-01
   7146.00  6.6583466E-01
   7146.33  6.7188380E-01
   7146.67  6.7792261E-01
   7147.00  6.8388464E-01
   7147.33  6.8964804E-01
   7147.67  6.9511588E-01
   7148.00  7.0017472E-01
   7148.33  7.0462085E-01
   7148.67  7.0839382E-01
   7149.00  7.1139157E-01
   7149.33  7.1339654E-01
   7149.67  7.1442973E-01
   7150.00  7.1443018E-01
   7150.33  7.1320932E-01
   7150.67  7.1086874E-01
   7151.00  7.0739437E-01
   7151.33  7.0264916E-01
   7151.67  6.9680002E-01
   7152.00  6.8988232E-01
   7152.33  6.8182935E-01
   7152.67  6.7285015E-01
   7153.00  6.6303587E-01
   7153.33  6.5242513E-01
   7153.67  6.4125251E-01
   7154.00  6.2965496E-01
   7154.33  6.1776546E-01
   7154.67  6.0578057E-01
   7155.00  5.9383782E-01
   7155.33  5.8211575E-01
   7155.67  5.7072782E-01
   7156.00  5.5977280E-01
   7156.33  5.4940420E-01
   7156.67  5.3961758E-01
   7157.00  5.3044433E-01
   7157.33  5.2197593E-01
   7157.67  5.1412489E-01
   7158.00  5.0686867E-01
   7158.33  5.0024038E-01
   7158.67  4.9412907E-01
   7159.00  4.8849673E-01
   7159.33  4.8335029E-01
   7159.67  4.7858816E-01
   7160.00  4.7417522E-01
   7160.33  4.7011819E-01
   7160.67  4.6635048E-01
   7161.00  4.6285266E-01
   7161.33  4.5963886E-01
   7161.67  4.5666638E-01
   7162.00  4.5392929E-01
   7162.33  4.5145352E-01
   7162.67  4.4921016E-01
   7163.00  4.4719998E-01
   7163.33  4.4544872E-01
   7163.67  4.4391429E-01
   7164.00  4.4257282E-01
   7164.33  4.4139487E-01
   7164.67  4.4029064E-01
   7165.00  4.3918942E-01
   7165.33  4.3800057E-01
   7165.67  4.3665964E-01
   7166.00  4.3511517E-01
   7166.33  4.3329767E-01
   7166.67  4.3122592E-01
   7167.00  4.2890973E-01
   7167.33  4.2634163E-01
   7167.67  4.2357924E-01
   7168.00  4.2065373E-01
   7168.33  4.1758834E-01
   7168.67  4.1443839E-01
   7169.00  4.1123871E-01
   7169.33  4.0802935E-01
   7169.67  4.0485353E-01
   7170.00  4.0174856E-01
   7170.33  3.9877432E-01
   7170.67  3.9596460E-01
   7171.00  3.9336393E-01
   7171.33  3.9106370E-01
   7171.67  3.8910134E-01
   7172.00  3.8754578E-01
