    FDMNES
    energy     <xanes>
   7097.00  4.5427761E-03
   7097.33  4.6263769E-03
   7097.67  4.7127455E-03
   7098.00  4.8020166E-03
   7098.33  4.8947431E-03
   7098.67  4.9907246E-03
   7099.00  5.0901309E-03
   7099.33  5.1936320E-03
   7099.67  5.3010076E-03
   7100.00  5.4124767E-03
   7100.33  5.5288653E-03
   7100.67  5.6499346E-03
   7101.00  5.7759747E-03
   7101.33  5.9080267E-03
   7101.67  6.0458391E-03
   7102.00  6.1898087E-03
   7102.33  6.3412871E-03
   7102.67  6.5000260E-03
   7103.00  6.6665919E-03
   7103.33  6.8428090E-03
   7103.67  7.0284730E-03
   7104.00  7.2244411E-03
   7104.33  7.4333092E-03
   7104.67  7.6550233E-03
   7105.00  7.8909831E-03
   7105.33  8.1451720E-03
   7105.67  8.4179750E-03
   7106.00  8.7119315E-03
   7106.33  9.0338590E-03
   7106.67  9.3854575E-03
   7107.00  9.7720687E-03
   7107.33  1.0207407E-02
   7107.67  1.0697646E-02
   7108.00  1.1256696E-02
   7108.33  1.1919820E-02
   7108.67  1.2712490E-02
   7109.00  1.3684782E-02
   7109.33  1.4970127E-02
   7109.67  1.6717734E-02
   7110.00  1.9223451E-02
   7110.33  2.3341601E-02
   7110.67  2.9958283E-02
   7111.00  3.9109300E-02
   7111.33  4.7487722E-02
   7111.67  5.2921051E-02
   7112.00  5.5044399E-02
   7112.33  5.5569827E-02
   7112.67  5.4776164E-02
   7113.00  5.1996951E-02
   7113.33  5.1042149E-02
   7113.67  5.1588993E-02
   7114.00  5.1267021E-02
   7114.33  4.9035214E-02
   7114.67  4.6450831E-02
   7115.00  4.3986585E-02
   7115.33  4.2179276E-02
   7115.67  4.1720238E-02
   7116.00  4.2740972E-02
   7116.33  4.5304327E-02
   7116.67  4.9204047E-02
   7117.00  5.4534577E-02
   7117.33  6.1757094E-02
   7117.67  7.1023266E-02
   7118.00  8.2638120E-02
   7118.33  9.7107202E-02
   7118.67  1.1433404E-01
   7119.00  1.3526050E-01
   7119.33  1.6332387E-01
   7119.67  2.0112442E-01
   7120.00  2.5037898E-01
   7120.33  3.1017883E-01
   7120.67  3.7212618E-01
   7121.00  4.2811909E-01
   7121.33  4.6991861E-01
   7121.67  5.0070663E-01
   7122.00  5.3000521E-01
   7122.33  5.7047864E-01
   7122.67  6.1651469E-01
   7123.00  6.5207952E-01
   7123.33  6.7235148E-01
   7123.67  6.9250955E-01
   7124.00  7.1873327E-01
   7124.33  7.4832459E-01
   7124.67  7.7016830E-01
   7125.00  7.7252345E-01
   7125.33  7.5008609E-01
   7125.67  7.1631680E-01
   7126.00  6.8451453E-01
   7126.33  6.7096917E-01
   7126.67  6.7388706E-01
   7127.00  6.8284960E-01
   7127.33  6.8855043E-01
   7127.67  6.9193129E-01
   7128.00  6.9591968E-01
   7128.33  7.0121091E-01
   7128.67  7.0710944E-01
   7129.00  7.1456457E-01
   7129.33  7.2496160E-01
   7129.67  7.3722352E-01
   7130.00  7.4757013E-01
   7130.33  7.4925781E-01
   7130.67  7.4368733E-01
   7131.00  7.3472776E-01
   7131.33  7.2599725E-01
   7131.67  7.1891884E-01
   7132.00  7.1338914E-01
   7132.33  7.0860593E-01
   7132.67  7.0350872E-01
   7133.00  6.9760331E-01
   7133.33  6.9100522E-01
   7133.67  6.8491742E-01
   7134.00  6.8019066E-01
   7134.33  6.7490880E-01
   7134.67  6.6502443E-01
   7135.00  6.4971320E-01
   7135.33  6.3091198E-01
   7135.67  6.1132062E-01
   7136.00  5.9207187E-01
   7136.33  5.7384204E-01
   7136.67  5.5662012E-01
   7137.00  5.4032827E-01
   7137.33  5.2489402E-01
   7137.67  5.1000993E-01
   7138.00  4.9547395E-01
   7138.33  4.8109705E-01
   7138.67  4.6679146E-01
   7139.00  4.5267654E-01
   7139.33  4.3916228E-01
   7139.67  4.2664120E-01
   7140.00  4.1549218E-01
   7140.33  4.0625762E-01
   7140.67  3.9888099E-01
   7141.00  3.9333046E-01
   7141.33  3.8956496E-01
   7141.67  3.8697156E-01
   7142.00  3.8512804E-01
   7142.33  3.8360538E-01
   7142.67  3.8201262E-01
   7143.00  3.8015595E-01
   7143.33  3.7787408E-01
   7143.67  3.7518033E-01
   7144.00  3.7207769E-01
   7144.33  3.6853208E-01
   7144.67  3.6461151E-01
   7145.00  3.6033780E-01
   7145.33  3.5571394E-01
   7145.67  3.5084704E-01
   7146.00  3.4581514E-01
   7146.33  3.4071859E-01
   7146.67  3.3568460E-01
   7147.00  3.3082004E-01
   7147.33  3.2628119E-01
   7147.67  3.2214001E-01
   7148.00  3.1847677E-01
   7148.33  3.1543756E-01
   7148.67  3.1300961E-01
   7149.00  3.1122497E-01
   7149.33  3.1018368E-01
   7149.67  3.0979660E-01
   7150.00  3.1003848E-01
   7150.33  3.1092262E-01
   7150.67  3.1228986E-01
   7151.00  3.1405563E-01
   7151.33  3.1616551E-01
   7151.67  3.1852045E-01
   7152.00  3.2111303E-01
   7152.33  3.2400214E-01
   7152.67  3.2718973E-01
   7153.00  3.3069960E-01
   7153.33  3.3456730E-01
   7153.67  3.3871170E-01
   7154.00  3.4308141E-01
   7154.33  3.4764093E-01
   7154.67  3.5233024E-01
   7155.00  3.5713419E-01
   7155.33  3.6206557E-01
   7155.67  3.6711564E-01
   7156.00  3.7228915E-01
   7156.33  3.7760391E-01
   7156.67  3.8304155E-01
   7157.00  3.8859818E-01
   7157.33  3.9428840E-01
   7157.67  4.0010817E-01
   7158.00  4.0607923E-01
   7158.33  4.1226599E-01
   7158.67  4.1869420E-01
   7159.00  4.2540424E-01
   7159.33  4.3246713E-01
   7159.67  4.3984778E-01
   7160.00  4.4752233E-01
   7160.33  4.5546147E-01
   7160.67  4.6354887E-01
   7161.00  4.7169267E-01
   7161.33  4.7977016E-01
   7161.67  4.8767952E-01
   7162.00  4.9534152E-01
   7162.33  5.0265135E-01
   7162.67  5.0961562E-01
   7163.00  5.1622930E-01
   7163.33  5.2246628E-01
   7163.67  5.2839484E-01
   7164.00  5.3403805E-01
   7164.33  5.3938608E-01
   7164.67  5.4448617E-01
   7165.00  5.4934320E-01
   7165.33  5.5392664E-01
   7165.67  5.5826384E-01
   7166.00  5.6235248E-01
   7166.33  5.6616320E-01
   7166.67  5.6973460E-01
   7167.00  5.7307781E-01
   7167.33  5.7618354E-01
   7167.67  5.7909709E-01
   7168.00  5.8183461E-01
   7168.33  5.8439379E-01
   7168.67  5.8680861E-01
   7169.00  5.8908724E-01
   7169.33  5.9121697E-01
   7169.67  5.9321197E-01
   7170.00  5.9506593E-01
   7170.33  5.9674868E-01
   7170.67  5.9826553E-01
   7171.00  5.9960439E-01
   7171.33  6.0072924E-01
   7171.67  6.0165633E-01
   7172.00  6.0238702E-01
