    FDMNES
    energy     <xanes>
   7097.00  4.3977623E-03
   7097.33  4.4852503E-03
   7097.67  4.5760688E-03
   7098.00  4.6704149E-03
   7098.33  4.7690122E-03
   7098.67  4.8716662E-03
   7099.00  4.9786389E-03
   7099.33  5.0908498E-03
   7099.67  5.2080934E-03
   7100.00  5.3307279E-03
   7100.33  5.4599518E-03
   7100.67  5.5955590E-03
   7101.00  5.7380557E-03
   7101.33  5.8890533E-03
   7101.67  6.0483697E-03
   7102.00  6.2167489E-03
   7102.33  6.3964423E-03
   7102.67  6.5873491E-03
   7103.00  6.7906164E-03
   7103.33  7.0095452E-03
   7103.67  7.2442496E-03
   7104.00  7.4966075E-03
   7104.33  7.7717679E-03
   7104.67  8.0703880E-03
   7105.00  8.3957881E-03
   7105.33  8.7566770E-03
   7105.67  9.1551346E-03
   7106.00  9.5976584E-03
   7106.33  1.0100686E-02
   7106.67  1.0670386E-02
   7107.00  1.1321378E-02
   7107.33  1.2089899E-02
   7107.67  1.2995897E-02
   7108.00  1.4079689E-02
   7108.33  1.5442095E-02
   7108.67  1.7163246E-02
   7109.00  1.9395678E-02
   7109.33  2.2546820E-02
   7109.67  2.7093663E-02
   7110.00  3.3979797E-02
   7110.33  4.5933628E-02
   7110.67  6.5653424E-02
   7111.00  9.2345100E-02
   7111.33  1.1319639E-01
   7111.67  1.2094242E-01
   7112.00  1.1693623E-01
   7112.33  1.0776032E-01
   7112.67  1.0236187E-01
   7113.00  1.0489958E-01
   7113.33  1.1683560E-01
   7113.67  1.3456151E-01
   7114.00  1.5588016E-01
   7114.33  1.8052152E-01
   7114.67  2.0173743E-01
   7115.00  2.0143064E-01
   7115.33  1.6932613E-01
   7115.67  1.3286979E-01
   7116.00  1.0558019E-01
   7116.33  8.9804864E-02
   7116.67  8.1265303E-02
   7117.00  7.7826835E-02
   7117.33  7.8329020E-02
   7117.67  8.1358826E-02
   7118.00  8.6354099E-02
   7118.33  9.3073508E-02
   7118.67  1.0101850E-01
   7119.00  1.0987114E-01
   7119.33  1.1917988E-01
   7119.67  1.2834471E-01
   7120.00  1.3699797E-01
   7120.33  1.4510625E-01
   7120.67  1.5366233E-01
   7121.00  1.6402047E-01
   7121.33  1.7753634E-01
   7121.67  1.9336064E-01
   7122.00  2.1035862E-01
   7122.33  2.2763922E-01
   7122.67  2.4482353E-01
   7123.00  2.6147773E-01
   7123.33  2.7708232E-01
   7123.67  2.9240615E-01
   7124.00  3.0850900E-01
   7124.33  3.2653531E-01
   7124.67  3.4700493E-01
   7125.00  3.7040906E-01
   7125.33  3.9669581E-01
   7125.67  4.2388177E-01
   7126.00  4.5020348E-01
   7126.33  4.7418451E-01
   7126.67  4.9634558E-01
   7127.00  5.1752827E-01
   7127.33  5.3860660E-01
   7127.67  5.6066401E-01
   7128.00  5.8457059E-01
   7128.33  6.1047426E-01
   7128.67  6.3689863E-01
   7129.00  6.6280062E-01
   7129.33  6.8736340E-01
   7129.67  7.0989550E-01
   7130.00  7.2937208E-01
   7130.33  7.4482448E-01
   7130.67  7.5770418E-01
   7131.00  7.6954268E-01
   7131.33  7.8135268E-01
   7131.67  7.9247110E-01
   7132.00  8.0121365E-01
   7132.33  8.0473839E-01
   7132.67  8.0233459E-01
   7133.00  7.9463493E-01
   7133.33  7.8451770E-01
   7133.67  7.7668566E-01
   7134.00  7.7385785E-01
   7134.33  7.7645652E-01
   7134.67  7.8057073E-01
   7135.00  7.8301311E-01
   7135.33  7.8156777E-01
   7135.67  7.7705878E-01
   7136.00  7.7057499E-01
   7136.33  7.6319959E-01
   7136.67  7.5579269E-01
   7137.00  7.4862996E-01
   7137.33  7.4162568E-01
   7137.67  7.3431353E-01
   7138.00  7.2622590E-01
   7138.33  7.1685739E-01
   7138.67  7.0634624E-01
   7139.00  6.9495176E-01
   7139.33  6.8305946E-01
   7139.67  6.7114156E-01
   7140.00  6.5946307E-01
   7140.33  6.4826763E-01
   7140.67  6.3760012E-01
   7141.00  6.2752188E-01
   7141.33  6.1819868E-01
   7141.67  6.0962977E-01
   7142.00  6.0187514E-01
   7142.33  5.9508406E-01
   7142.67  5.8914398E-01
   7143.00  5.8400362E-01
   7143.33  5.7963564E-01
   7143.67  5.7579635E-01
   7144.00  5.7232944E-01
   7144.33  5.6906862E-01
   7144.67  5.6580836E-01
   7145.00  5.6240401E-01
   7145.33  5.5866765E-01
   7145.67  5.5450869E-01
   7146.00  5.4984331E-01
   7146.33  5.4454794E-01
   7146.67  5.3870342E-01
   7147.00  5.3237837E-01
   7147.33  5.2567329E-01
   7147.67  5.1881073E-01
   7148.00  5.1194128E-01
   7148.33  5.0522593E-01
   7148.67  4.9873741E-01
   7149.00  4.9249536E-01
   7149.33  4.8649025E-01
   7149.67  4.8061771E-01
   7150.00  4.7479096E-01
   7150.33  4.6890615E-01
   7150.67  4.6289959E-01
   7151.00  4.5674352E-01
   7151.33  4.5043055E-01
   7151.67  4.4402647E-01
   7152.00  4.3758883E-01
   7152.33  4.3119404E-01
   7152.67  4.2490209E-01
   7153.00  4.1875410E-01
   7153.33  4.1278915E-01
   7153.67  4.0696911E-01
   7154.00  4.0125209E-01
   7154.33  3.9557489E-01
   7154.67  3.8986118E-01
   7155.00  3.8405263E-01
   7155.33  3.7807936E-01
   7155.67  3.7193765E-01
   7156.00  3.6563502E-01
   7156.33  3.5919206E-01
   7156.67  3.5268418E-01
   7157.00  3.4617712E-01
   7157.33  3.3976946E-01
   7157.67  3.3354156E-01
   7158.00  3.2756691E-01
   7158.33  3.2196049E-01
   7158.67  3.1674257E-01
   7159.00  3.1195662E-01
   7159.33  3.0771069E-01
   7159.67  3.0399857E-01
   7160.00  3.0087474E-01
   7160.33  2.9849488E-01
   7160.67  2.9685590E-01
   7161.00  2.9602729E-01
   7161.33  2.9619577E-01
   7161.67  2.9731226E-01
   7162.00  2.9941410E-01
   7162.33  3.0265737E-01
   7162.67  3.0692784E-01
   7163.00  3.1222051E-01
   7163.33  3.1863482E-01
   7163.67  3.2599820E-01
   7164.00  3.3424989E-01
   7164.33  3.4339565E-01
   7164.67  3.5321627E-01
   7165.00  3.6358571E-01
   7165.33  3.7438637E-01
   7165.67  3.8539569E-01
   7166.00  3.9646270E-01
   7166.33  4.0740331E-01
   7166.67  4.1807309E-01
   7167.00  4.2834840E-01
   7167.33  4.3803779E-01
   7167.67  4.4710073E-01
   7168.00  4.5546438E-01
   7168.33  4.6297084E-01
   7168.67  4.6967499E-01
   7169.00  4.7555761E-01
   7169.33  4.8050830E-01
   7169.67  4.8463826E-01
   7170.00  4.8796510E-01
   7170.33  4.9042881E-01
   7170.67  4.9218238E-01
   7171.00  4.9329713E-01
   7171.33  4.9382791E-01
   7171.67  4.9401486E-01
   7172.00  4.9405715E-01
