    FDMNES
    energy     <xanes>
   7097.00  4.8588572E-03
   7097.33  4.9695942E-03
   7097.67  5.0851951E-03
   7098.00  5.2059809E-03
   7098.33  5.3330637E-03
   7098.67  5.4662022E-03
   7099.00  5.6058310E-03
   7099.33  5.7533945E-03
   7099.67  5.9086419E-03
   7100.00  6.0721769E-03
   7100.33  6.2459224E-03
   7100.67  6.4296375E-03
   7101.00  6.6241852E-03
   7101.33  6.8322025E-03
   7101.67  7.0535004E-03
   7102.00  7.2893576E-03
   7102.33  7.5435186E-03
   7102.67  7.8159410E-03
   7103.00  8.1085999E-03
   7103.33  8.4270447E-03
   7103.67  8.7715912E-03
   7104.00  9.1454507E-03
   7104.33  9.5572939E-03
   7104.67  1.0008293E-02
   7105.00  1.0504014E-02
   7105.33  1.1058946E-02
   7105.67  1.1676374E-02
   7106.00  1.2366782E-02
   7106.33  1.3156614E-02
   7106.67  1.4054788E-02
   7107.00  1.5083396E-02
   7107.33  1.6296967E-02
   7107.67  1.7721562E-02
   7108.00  1.9411879E-02
   7108.33  2.1502736E-02
   7108.67  2.4084956E-02
   7109.00  2.7333271E-02
   7109.33  3.1696789E-02
   7109.67  3.7619010E-02
   7110.00  4.5958275E-02
   7110.33  5.9115276E-02
   7110.67  7.9652018E-02
   7111.00  1.0946432E-01
   7111.33  1.4746979E-01
   7111.67  1.9037817E-01
   7112.00  2.4151520E-01
   7112.33  3.0424387E-01
   7112.67  3.5642845E-01
   7113.00  3.9409775E-01
   7113.33  4.2344561E-01
   7113.67  4.0257811E-01
   7114.00  3.2172122E-01
   7114.33  2.3986221E-01
   7114.67  1.8838498E-01
   7115.00  1.6530042E-01
   7115.33  1.6783896E-01
   7115.67  1.9086581E-01
   7116.00  2.3046062E-01
   7116.33  2.6836880E-01
   7116.67  2.7837136E-01
   7117.00  2.5588619E-01
   7117.33  2.1916750E-01
   7117.67  1.8692341E-01
   7118.00  1.6293984E-01
   7118.33  1.4652558E-01
   7118.67  1.3436451E-01
   7119.00  1.2540538E-01
   7119.33  1.1951528E-01
   7119.67  1.1563169E-01
   7120.00  1.1300146E-01
   7120.33  1.1103504E-01
   7120.67  1.0977485E-01
   7121.00  1.1003510E-01
   7121.33  1.1310910E-01
   7121.67  1.1918440E-01
   7122.00  1.2824745E-01
   7122.33  1.4009678E-01
   7122.67  1.5361278E-01
   7123.00  1.6816013E-01
   7123.33  1.8339705E-01
   7123.67  1.9909881E-01
   7124.00  2.1518905E-01
   7124.33  2.3150698E-01
   7124.67  2.4759038E-01
   7125.00  2.6282256E-01
   7125.33  2.7625971E-01
   7125.67  2.8777671E-01
   7126.00  2.9759825E-01
   7126.33  3.0630258E-01
   7126.67  3.1500548E-01
   7127.00  3.2464996E-01
   7127.33  3.3648723E-01
   7127.67  3.5120716E-01
   7128.00  3.6970960E-01
   7128.33  3.9380785E-01
   7128.67  4.2386120E-01
   7129.00  4.6010086E-01
   7129.33  5.0246051E-01
   7129.67  5.4855253E-01
   7130.00  5.9655984E-01
   7130.33  6.4470552E-01
   7130.67  6.9176298E-01
   7131.00  7.3669540E-01
   7131.33  7.7724008E-01
   7131.67  8.1177828E-01
   7132.00  8.3891861E-01
   7132.33  8.5727855E-01
   7132.67  8.6895833E-01
   7133.00  8.7590638E-01
   7133.33  8.8054176E-01
   7133.67  8.8527945E-01
   7134.00  8.9102469E-01
   7134.33  8.9785405E-01
   7134.67  9.0480555E-01
   7135.00  9.1040027E-01
   7135.33  9.1079004E-01
   7135.67  9.0282651E-01
   7136.00  8.8531341E-01
   7136.33  8.5918791E-01
   7136.67  8.2901538E-01
   7137.00  7.9767425E-01
   7137.33  7.6764213E-01
   7137.67  7.4006519E-01
   7138.00  7.1547396E-01
   7138.33  6.9449417E-01
   7138.67  6.7671932E-01
   7139.00  6.6207858E-01
   7139.33  6.5084791E-01
   7139.67  6.4251324E-01
   7140.00  6.3690765E-01
   7140.33  6.3404947E-01
   7140.67  6.3322395E-01
   7141.00  6.3397462E-01
   7141.33  6.3577029E-01
   7141.67  6.3775179E-01
   7142.00  6.3924195E-01
   7142.33  6.3931025E-01
   7142.67  6.3744457E-01
   7143.00  6.3322396E-01
   7143.33  6.2608511E-01
   7143.67  6.1641955E-01
   7144.00  6.0451802E-01
   7144.33  5.9071937E-01
   7144.67  5.7591168E-01
   7145.00  5.6066440E-01
   7145.33  5.4554508E-01
   7145.67  5.3100340E-01
   7146.00  5.1738468E-01
   7146.33  5.0518026E-01
   7146.67  4.9448964E-01
   7147.00  4.8547065E-01
   7147.33  4.7843572E-01
   7147.67  4.7314582E-01
   7148.00  4.6951950E-01
   7148.33  4.6757624E-01
   7148.67  4.6688355E-01
   7149.00  4.6720959E-01
   7149.33  4.6839329E-01
   7149.67  4.7011694E-01
   7150.00  4.7222639E-01
   7150.33  4.7462043E-01
   7150.67  4.7718434E-01
   7151.00  4.7988339E-01
   7151.33  4.8272913E-01
   7151.67  4.8572878E-01
   7152.00  4.8891610E-01
   7152.33  4.9236498E-01
   7152.67  4.9608698E-01
   7153.00  5.0010770E-01
   7153.33  5.0448007E-01
   7153.67  5.0915660E-01
   7154.00  5.1410899E-01
   7154.33  5.1930556E-01
   7154.67  5.2463318E-01
   7155.00  5.2999909E-01
   7155.33  5.3526938E-01
   7155.67  5.4032370E-01
   7156.00  5.4505114E-01
   7156.33  5.4927813E-01
   7156.67  5.5296275E-01
   7157.00  5.5604246E-01
   7157.33  5.5839102E-01
   7157.67  5.6007433E-01
   7158.00  5.6110031E-01
   7158.33  5.6141944E-01
   7158.67  5.6115427E-01
   7159.00  5.6035001E-01
   7159.33  5.5900420E-01
   7159.67  5.5723546E-01
   7160.00  5.5509053E-01
   7160.33  5.5257802E-01
   7160.67  5.4978306E-01
   7161.00  5.4674171E-01
   7161.33  5.4347124E-01
   7161.67  5.4003207E-01
   7162.00  5.3644739E-01
   7162.33  5.3272651E-01
   7162.67  5.2890853E-01
   7163.00  5.2501324E-01
   7163.33  5.2105238E-01
   7163.67  5.1704715E-01
   7164.00  5.1300481E-01
   7164.33  5.0892260E-01
   7164.67  5.0479990E-01
   7165.00  5.0062802E-01
   7165.33  4.9638704E-01
   7165.67  4.9207513E-01
   7166.00  4.8768906E-01
   7166.33  4.8322348E-01
   7166.67  4.7870034E-01
   7167.00  4.7413788E-01
   7167.33  4.6955982E-01
   7167.67  4.6499530E-01
   7168.00  4.6047078E-01
   7168.33  4.5603117E-01
   7168.67  4.5169639E-01
   7169.00  4.4748525E-01
   7169.33  4.4343818E-01
   7169.67  4.3956089E-01
   7170.00  4.3587476E-01
   7170.33  4.3243268E-01
   7170.67  4.2923518E-01
   7171.00  4.2630987E-01
   7171.33  4.2373821E-01
   7171.67  4.2154413E-01
   7172.00  4.1979907E-01
