    FDMNES
    energy     <xanes>
   7097.00  4.8550593E-03
   7097.33  4.9653770E-03
   7097.67  5.0805715E-03
   7098.00  5.2009693E-03
   7098.33  5.3276934E-03
   7098.67  5.4605087E-03
   7099.00  5.5998597E-03
   7099.33  5.7472119E-03
   7099.67  5.9023244E-03
   7100.00  6.0658185E-03
   7100.33  6.2396575E-03
   7100.67  6.4236167E-03
   7101.00  6.6185920E-03
   7101.33  6.8272958E-03
   7101.67  7.0495687E-03
   7102.00  7.2867511E-03
   7102.33  7.5427312E-03
   7102.67  7.8175240E-03
   7103.00  8.1132243E-03
   7103.33  8.4356632E-03
   7103.67  8.7852757E-03
   7104.00  9.1655175E-03
   7104.33  9.5856340E-03
   7104.67  1.0047065E-02
   7105.00  1.0555908E-02
   7105.33  1.1127898E-02
   7105.67  1.1766978E-02
   7106.00  1.2484880E-02
   7106.33  1.3311000E-02
   7106.67  1.4256051E-02
   7107.00  1.5345418E-02
   7107.33  1.6641509E-02
   7107.67  1.8176066E-02
   7108.00  2.0014000E-02
   7108.33  2.2315233E-02
   7108.67  2.5192914E-02
   7109.00  2.8862161E-02
   7109.33  3.3877905E-02
   7109.67  4.0806373E-02
   7110.00  5.0741070E-02
   7110.33  6.6759313E-02
   7110.67  9.2272435E-02
   7111.00  1.3018820E-01
   7111.33  1.8115574E-01
   7111.67  2.4001600E-01
   7112.00  2.9834769E-01
   7112.33  3.4674917E-01
   7112.67  3.8063649E-01
   7113.00  3.8701905E-01
   7113.33  3.5209907E-01
   7113.67  2.9276397E-01
   7114.00  2.2870689E-01
   7114.33  1.8438247E-01
   7114.67  1.6209753E-01
   7115.00  1.5824046E-01
   7115.33  1.6636439E-01
   7115.67  1.7788384E-01
   7116.00  1.9101446E-01
   7116.33  1.9850399E-01
   7116.67  1.9054332E-01
   7117.00  1.7080991E-01
   7117.33  1.5149750E-01
   7117.67  1.3798565E-01
   7118.00  1.3016113E-01
   7118.33  1.2713428E-01
   7118.67  1.2737075E-01
   7119.00  1.3011205E-01
   7119.33  1.3352795E-01
   7119.67  1.3641999E-01
   7120.00  1.3895528E-01
   7120.33  1.3990781E-01
   7120.67  1.3859154E-01
   7121.00  1.3656290E-01
   7121.33  1.3634126E-01
   7121.67  1.3882308E-01
   7122.00  1.4440617E-01
   7122.33  1.5393486E-01
   7122.67  1.6713129E-01
   7123.00  1.8367517E-01
   7123.33  2.0323338E-01
   7123.67  2.2453122E-01
   7124.00  2.4639241E-01
   7124.33  2.6740461E-01
   7124.67  2.8713403E-01
   7125.00  3.0570649E-01
   7125.33  3.2273139E-01
   7125.67  3.3707895E-01
   7126.00  3.4781628E-01
   7126.33  3.5587640E-01
   7126.67  3.6456915E-01
   7127.00  3.7605217E-01
   7127.33  3.9195009E-01
   7127.67  4.1156265E-01
   7128.00  4.3395537E-01
   7128.33  4.5816306E-01
   7128.67  4.8334281E-01
   7129.00  5.0916509E-01
   7129.33  5.3546585E-01
   7129.67  5.6269238E-01
   7130.00  5.9163437E-01
   7130.33  6.2273931E-01
   7130.67  6.5526825E-01
   7131.00  6.8905023E-01
   7131.33  7.2401386E-01
   7131.67  7.5823803E-01
   7132.00  7.8843152E-01
   7132.33  8.0926332E-01
   7132.67  8.1980135E-01
   7133.00  8.2132385E-01
   7133.33  8.1678465E-01
   7133.67  8.1052571E-01
   7134.00  8.0476869E-01
   7134.33  8.0124465E-01
   7134.67  8.0016723E-01
   7135.00  8.0112477E-01
   7135.33  8.0299721E-01
   7135.67  8.0411366E-01
   7136.00  8.0320099E-01
   7136.33  7.9889574E-01
   7136.67  7.9139549E-01
   7137.00  7.8113401E-01
   7137.33  7.6872578E-01
   7137.67  7.5530949E-01
   7138.00  7.4157535E-01
   7138.33  7.2826811E-01
   7138.67  7.1593570E-01
   7139.00  7.0503081E-01
   7139.33  6.9626610E-01
   7139.67  6.8980239E-01
   7140.00  6.8589734E-01
   7140.33  6.8505722E-01
   7140.67  6.8690172E-01
   7141.00  6.9116050E-01
   7141.33  6.9734764E-01
   7141.67  7.0404372E-01
   7142.00  7.0981893E-01
   7142.33  7.1240347E-01
   7142.67  7.1043614E-01
   7143.00  7.0304750E-01
   7143.33  6.8959035E-01
   7143.67  6.7180030E-01
   7144.00  6.5107012E-01
   7144.33  6.2892671E-01
   7144.67  6.0692487E-01
   7145.00  5.8590994E-01
   7145.33  5.6664688E-01
   7145.67  5.4920150E-01
   7146.00  5.3365801E-01
   7146.33  5.2024059E-01
   7146.67  5.0860967E-01
   7147.00  4.9862806E-01
   7147.33  4.9028920E-01
   7147.67  4.8321209E-01
   7148.00  4.7723175E-01
   7148.33  4.7229116E-01
   7148.67  4.6814085E-01
   7149.00  4.6470271E-01
   7149.33  4.6200614E-01
   7149.67  4.5994122E-01
   7150.00  4.5849828E-01
   7150.33  4.5775977E-01
   7150.67  4.5766533E-01
   7151.00  4.5823583E-01
   7151.33  4.5957914E-01
   7151.67  4.6162270E-01
   7152.00  4.6436385E-01
   7152.33  4.6785410E-01
   7152.67  4.7193606E-01
   7153.00  4.7651650E-01
   7153.33  4.8151083E-01
   7153.67  4.8672623E-01
   7154.00  4.9203140E-01
   7154.33  4.9726860E-01
   7154.67  5.0230441E-01
   7155.00  5.0702901E-01
   7155.33  5.1127895E-01
   7155.67  5.1501827E-01
   7156.00  5.1819045E-01
   7156.33  5.2067830E-01
   7156.67  5.2254336E-01
   7157.00  5.2379302E-01
   7157.33  5.2438307E-01
   7157.67  5.2443358E-01
   7158.00  5.2399489E-01
   7158.33  5.2308006E-01
   7158.67  5.2181185E-01
   7159.00  5.2025065E-01
   7159.33  5.1843661E-01
   7159.67  5.1646127E-01
   7160.00  5.1437325E-01
   7160.33  5.1221281E-01
   7160.67  5.1002883E-01
   7161.00  5.0785334E-01
   7161.33  5.0571851E-01
   7161.67  5.0363159E-01
   7162.00  5.0159541E-01
   7162.33  4.9961234E-01
   7162.67  4.9766530E-01
   7163.00  4.9574065E-01
   7163.33  4.9382090E-01
   7163.67  4.9188538E-01
   7164.00  4.8991610E-01
   7164.33  4.8788574E-01
   7164.67  4.8578180E-01
   7165.00  4.8359042E-01
   7165.33  4.8128782E-01
   7165.67  4.7888053E-01
   7166.00  4.7636871E-01
   7166.33  4.7374762E-01
   7166.67  4.7104427E-01
   7167.00  4.6827609E-01
   7167.33  4.6546269E-01
   7167.67  4.6263931E-01
   7168.00  4.5983810E-01
   7168.33  4.5710372E-01
   7168.67  4.5445806E-01
   7169.00  4.5192345E-01
   7169.33  4.4954010E-01
   7169.67  4.4731050E-01
   7170.00  4.4524736E-01
   7170.33  4.4338326E-01
   7170.67  4.4170370E-01
   7171.00  4.4021445E-01
   7171.33  4.3894832E-01
   7171.67  4.3789368E-01
   7172.00  4.3706531E-01
