    FDMNES
    energy     <xanes>
   7097.00  5.2702477E-03
   7097.33  5.3990232E-03
   7097.67  5.5337877E-03
   7098.00  5.6749494E-03
   7098.33  5.8238985E-03
   7098.67  5.9803538E-03
   7099.00  6.1448694E-03
   7099.33  6.3192608E-03
   7099.67  6.5032364E-03
   7100.00  6.6975672E-03
   7100.33  6.9046813E-03
   7100.67  7.1243001E-03
   7101.00  7.3575269E-03
   7101.33  7.6077014E-03
   7101.67  7.8746105E-03
   7102.00  8.1598858E-03
   7102.33  8.4682764E-03
   7102.67  8.7997487E-03
   7103.00  9.1568126E-03
   7103.33  9.5464973E-03
   7103.67  9.9692019E-03
   7104.00  1.0428977E-02
   7104.33  1.0936751E-02
   7104.67  1.1493942E-02
   7105.00  1.2107487E-02
   7105.33  1.2795463E-02
   7105.67  1.3561752E-02
   7106.00  1.4419187E-02
   7106.33  1.5400191E-02
   7106.67  1.6515050E-02
   7107.00  1.7790077E-02
   7107.33  1.9290303E-02
   7107.67  2.1044837E-02
   7108.00  2.3116308E-02
   7108.33  2.5658747E-02
   7108.67  2.8769257E-02
   7109.00  3.2637004E-02
   7109.33  3.7743918E-02
   7109.67  4.4538223E-02
   7110.00  5.3887365E-02
   7110.33  6.8200119E-02
   7110.67  9.0068492E-02
   7111.00  1.2164937E-01
   7111.33  1.6052212E-01
   7111.67  2.0323144E-01
   7112.00  2.5998260E-01
   7112.33  3.4541056E-01
   7112.67  4.5316715E-01
   7113.00  5.7577389E-01
   7113.33  6.7938307E-01
   7113.67  6.9546327E-01
   7114.00  6.0972483E-01
   7114.33  4.8828277E-01
   7114.67  3.8733887E-01
   7115.00  3.1437695E-01
   7115.33  2.6687604E-01
   7115.67  2.3575599E-01
   7116.00  2.1727933E-01
   7116.33  2.0933377E-01
   7116.67  2.0633677E-01
   7117.00  2.0291784E-01
   7117.33  1.9428419E-01
   7117.67  1.8175162E-01
   7118.00  1.6785088E-01
   7118.33  1.5551941E-01
   7118.67  1.4594442E-01
   7119.00  1.3898617E-01
   7119.33  1.3400431E-01
   7119.67  1.3002317E-01
   7120.00  1.2678950E-01
   7120.33  1.2454524E-01
   7120.67  1.2348924E-01
   7121.00  1.2371917E-01
   7121.33  1.2511875E-01
   7121.67  1.2734087E-01
   7122.00  1.3037108E-01
   7122.33  1.3419509E-01
   7122.67  1.3851643E-01
   7123.00  1.4317267E-01
   7123.33  1.4805738E-01
   7123.67  1.5310427E-01
   7124.00  1.5845233E-01
   7124.33  1.6476604E-01
   7124.67  1.7286860E-01
   7125.00  1.8353947E-01
   7125.33  1.9774268E-01
   7125.67  2.1528080E-01
   7126.00  2.3606741E-01
   7126.33  2.6010533E-01
   7126.67  2.8654828E-01
   7127.00  3.1505505E-01
   7127.33  3.4548211E-01
   7127.67  3.7696653E-01
   7128.00  4.0860648E-01
   7128.33  4.3939627E-01
   7128.67  4.6987199E-01
   7129.00  5.0199370E-01
   7129.33  5.3916038E-01
   7129.67  5.8178838E-01
   7130.00  6.2787055E-01
   7130.33  6.7228082E-01
   7130.67  7.1081660E-01
   7131.00  7.4286645E-01
   7131.33  7.7103371E-01
   7131.67  8.0015132E-01
   7132.00  8.3316492E-01
   7132.33  8.7224954E-01
   7132.67  9.1586422E-01
   7133.00  9.6117047E-01
   7133.33  1.0018592E+00
   7133.67  1.0310392E+00
   7134.00  1.0430172E+00
   7134.33  1.0320068E+00
   7134.67  1.0019995E+00
   7135.00  9.5703861E-01
   7135.33  9.0182213E-01
   7135.67  8.4280310E-01
   7136.00  7.8349574E-01
   7136.33  7.2707834E-01
   7136.67  6.7504560E-01
   7137.00  6.2838251E-01
   7137.33  5.8856598E-01
   7137.67  5.5523632E-01
   7138.00  5.2853786E-01
   7138.33  5.0921268E-01
   7138.67  4.9605055E-01
   7139.00  4.8842776E-01
   7139.33  4.8584777E-01
   7139.67  4.8645258E-01
   7140.00  4.8909668E-01
   7140.33  4.9273769E-01
   7140.67  4.9647958E-01
   7141.00  4.9999048E-01
   7141.33  5.0318255E-01
   7141.67  5.0625987E-01
   7142.00  5.0942907E-01
   7142.33  5.1293885E-01
   7142.67  5.1687350E-01
   7143.00  5.2125358E-01
   7143.33  5.2606603E-01
   7143.67  5.3113792E-01
   7144.00  5.3633603E-01
   7144.33  5.4149755E-01
   7144.67  5.4648343E-01
   7145.00  5.5119198E-01
   7145.33  5.5548595E-01
   7145.67  5.5934568E-01
   7146.00  5.6272967E-01
   7146.33  5.6553765E-01
   7146.67  5.6780571E-01
   7147.00  5.6951416E-01
   7147.33  5.7057779E-01
   7147.67  5.7106403E-01
   7148.00  5.7097665E-01
   7148.33  5.7026334E-01
   7148.67  5.6902972E-01
   7149.00  5.6732466E-01
   7149.33  5.6517813E-01
   7149.67  5.6274125E-01
   7150.00  5.6011540E-01
   7150.33  5.5741481E-01
   7150.67  5.5476853E-01
   7151.00  5.5227503E-01
   7151.33  5.5007035E-01
   7151.67  5.4821140E-01
   7152.00  5.4676163E-01
   7152.33  5.4583763E-01
   7152.67  5.4542233E-01
   7153.00  5.4553751E-01
   7153.33  5.4625939E-01
   7153.67  5.4751206E-01
   7154.00  5.4927518E-01
   7154.33  5.5157121E-01
   7154.67  5.5429565E-01
   7155.00  5.5740787E-01
   7155.33  5.6090647E-01
   7155.67  5.6470954E-01
   7156.00  5.6878707E-01
   7156.33  5.7313440E-01
   7156.67  5.7768034E-01
   7157.00  5.8237808E-01
   7157.33  5.8716364E-01
   7157.67  5.9192922E-01
   7158.00  5.9657121E-01
   7158.33  6.0091766E-01
   7158.67  6.0484981E-01
   7159.00  6.0823545E-01
   7159.33  6.1084250E-01
   7159.67  6.1263167E-01
   7160.00  6.1351814E-01
   7160.33  6.1331564E-01
   7160.67  6.1211677E-01
   7161.00  6.0992556E-01
   7161.33  6.0666279E-01
   7161.67  6.0251524E-01
   7162.00  5.9755499E-01
   7162.33  5.9179406E-01
   7162.67  5.8543410E-01
   7163.00  5.7857450E-01
   7163.33  5.7127845E-01
   7163.67  5.6369786E-01
   7164.00  5.5591339E-01
   7164.33  5.4799295E-01
   7164.67  5.4002212E-01
   7165.00  5.3205301E-01
   7165.33  5.2414471E-01
   7165.67  5.1633461E-01
   7166.00  5.0865592E-01
   7166.33  5.0116287E-01
   7166.67  4.9386250E-01
   7167.00  4.8677485E-01
   7167.33  4.7994923E-01
   7167.67  4.7337437E-01
   7168.00  4.6706447E-01
   7168.33  4.6107099E-01
   7168.67  4.5537411E-01
   7169.00  4.4998571E-01
   7169.33  4.4495619E-01
   7169.67  4.4025462E-01
   7170.00  4.3588882E-01
   7170.33  4.3191117E-01
   7170.67  4.2828811E-01
   7171.00  4.2503000E-01
   7171.33  4.2220610E-01
   7171.67  4.1981136E-01
   7172.00  4.1790330E-01
