    FDMNES
    energy     <xanes>
   7097.00  5.2811460E-03
   7097.33  5.4093485E-03
   7097.67  5.5434518E-03
   7098.00  5.6838539E-03
   7098.33  5.8319175E-03
   7098.67  5.9873599E-03
   7099.00  6.1507202E-03
   7099.33  6.3237730E-03
   7099.67  6.5062239E-03
   7100.00  6.6988205E-03
   7100.33  6.9039297E-03
   7100.67  7.1212667E-03
   7101.00  7.3518984E-03
   7101.33  7.5990699E-03
   7101.67  7.8625549E-03
   7102.00  8.1439264E-03
   7102.33  8.4477824E-03
   7102.67  8.7740623E-03
   7103.00  9.1251771E-03
   7103.33  9.5079054E-03
   7103.67  9.9225892E-03
   7104.00  1.0373104E-02
   7104.33  1.0869940E-02
   7104.67  1.1414389E-02
   7105.00  1.2013057E-02
   7105.33  1.2683204E-02
   7105.67  1.3428415E-02
   7106.00  1.4260831E-02
   7106.33  1.5211210E-02
   7106.67  1.6289055E-02
   7107.00  1.7519061E-02
   7107.33  1.8962349E-02
   7107.67  2.0645626E-02
   7108.00  2.2626934E-02
   7108.33  2.5048924E-02
   7108.67  2.7999217E-02
   7109.00  3.1649212E-02
   7109.33  3.6433317E-02
   7109.67  4.2742798E-02
   7110.00  5.1331682E-02
   7110.33  6.4266507E-02
   7110.67  8.3679348E-02
   7111.00  1.1145386E-01
   7111.33  1.4879269E-01
   7111.67  1.9729629E-01
   7112.00  2.6089487E-01
   7112.33  3.4406155E-01
   7112.67  4.4302239E-01
   7113.00  5.4590809E-01
   7113.33  6.1771156E-01
   7113.67  6.2010761E-01
   7114.00  5.5873568E-01
   7114.33  4.8080046E-01
   7114.67  4.1222409E-01
   7115.00  3.5385913E-01
   7115.33  3.0542257E-01
   7115.67  2.6714419E-01
   7116.00  2.3977264E-01
   7116.33  2.2303586E-01
   7116.67  2.1212311E-01
   7117.00  2.0325124E-01
   7117.33  1.9360792E-01
   7117.67  1.8329433E-01
   7118.00  1.7347337E-01
   7118.33  1.6527770E-01
   7118.67  1.5841828E-01
   7119.00  1.5241537E-01
   7119.33  1.4687199E-01
   7119.67  1.4154348E-01
   7120.00  1.3647575E-01
   7120.33  1.3205392E-01
   7120.67  1.2872371E-01
   7121.00  1.2689385E-01
   7121.33  1.2694659E-01
   7121.67  1.2850335E-01
   7122.00  1.3129210E-01
   7122.33  1.3518688E-01
   7122.67  1.4000207E-01
   7123.00  1.4583594E-01
   7123.33  1.5313525E-01
   7123.67  1.6223016E-01
   7124.00  1.7373297E-01
   7124.33  1.8897849E-01
   7124.67  2.0857551E-01
   7125.00  2.3326570E-01
   7125.33  2.6386701E-01
   7125.67  2.9836833E-01
   7126.00  3.3411668E-01
   7126.33  3.6684162E-01
   7126.67  3.9380809E-01
   7127.00  4.1399709E-01
   7127.33  4.2769738E-01
   7127.67  4.3896095E-01
   7128.00  4.5172241E-01
   7128.33  4.7056924E-01
   7128.67  4.9641011E-01
   7129.00  5.2836304E-01
   7129.33  5.6404336E-01
   7129.67  5.9983719E-01
   7130.00  6.3394617E-01
   7130.33  6.6586763E-01
   7130.67  6.9709889E-01
   7131.00  7.2923512E-01
   7131.33  7.6453571E-01
   7131.67  8.0419003E-01
   7132.00  8.4870841E-01
   7132.33  8.9747354E-01
   7132.67  9.4665036E-01
   7133.00  9.9146743E-01
   7133.33  1.0233412E+00
   7133.67  1.0369714E+00
   7134.00  1.0293319E+00
   7134.33  9.9919820E-01
   7134.67  9.5416307E-01
   7135.00  8.9946936E-01
   7135.33  8.3984503E-01
   7135.67  7.7972390E-01
   7136.00  7.2148164E-01
   7136.33  6.6753793E-01
   7136.67  6.1869063E-01
   7137.00  5.7564161E-01
   7137.33  5.3966702E-01
   7137.67  5.1018701E-01
   7138.00  4.8715687E-01
   7138.33  4.7101476E-01
   7138.67  4.6034107E-01
   7139.00  4.5432440E-01
   7139.33  4.5229236E-01
   7139.67  4.5271304E-01
   7140.00  4.5482138E-01
   7140.33  4.5813566E-01
   7140.67  4.6217829E-01
   7141.00  4.6680849E-01
   7141.33  4.7202157E-01
   7141.67  4.7771713E-01
   7142.00  4.8385676E-01
   7142.33  4.9041233E-01
   7142.67  4.9722416E-01
   7143.00  5.0416530E-01
   7143.33  5.1105814E-01
   7143.67  5.1772473E-01
   7144.00  5.2401038E-01
   7144.33  5.2967642E-01
   7144.67  5.3464679E-01
   7145.00  5.3883432E-01
   7145.33  5.4208653E-01
   7145.67  5.4451466E-01
   7146.00  5.4616528E-01
   7146.33  5.4704617E-01
   7146.67  5.4736747E-01
   7147.00  5.4725210E-01
   7147.33  5.4681639E-01
   7147.67  5.4624839E-01
   7148.00  5.4567396E-01
   7148.33  5.4524589E-01
   7148.67  5.4507013E-01
   7149.00  5.4523802E-01
   7149.33  5.4589488E-01
   7149.67  5.4706096E-01
   7150.00  5.4878306E-01
   7150.33  5.5116831E-01
   7150.67  5.5415183E-01
   7151.00  5.5771850E-01
   7151.33  5.6188679E-01
   7151.67  5.6650357E-01
   7152.00  5.7146633E-01
   7152.33  5.7665735E-01
   7152.67  5.8189437E-01
   7153.00  5.8704232E-01
   7153.33  5.9192743E-01
   7153.67  5.9645972E-01
   7154.00  6.0056335E-01
   7154.33  6.0412249E-01
   7154.67  6.0717430E-01
   7155.00  6.0971930E-01
   7155.33  6.1171415E-01
   7155.67  6.1324887E-01
   7156.00  6.1435199E-01
   7156.33  6.1500705E-01
   7156.67  6.1529420E-01
   7157.00  6.1523591E-01
   7157.33  6.1481324E-01
   7157.67  6.1408318E-01
   7158.00  6.1305616E-01
   7158.33  6.1170477E-01
   7158.67  6.1007113E-01
   7159.00  6.0815933E-01
   7159.33  6.0593868E-01
   7159.67  6.0344590E-01
   7160.00  6.0068211E-01
   7160.33  5.9761414E-01
   7160.67  5.9427719E-01
   7161.00  5.9067280E-01
   7161.33  5.8676597E-01
   7161.67  5.8259011E-01
   7162.00  5.7814892E-01
   7162.33  5.7341444E-01
   7162.67  5.6842878E-01
   7163.00  5.6320531E-01
   7163.33  5.5773575E-01
   7163.67  5.5206921E-01
   7164.00  5.4622616E-01
   7164.33  5.4021272E-01
   7164.67  5.3407379E-01
   7165.00  5.2783311E-01
   7165.33  5.2151044E-01
   7165.67  5.1514370E-01
   7166.00  5.0875756E-01
   7166.33  5.0238129E-01
   7166.67  4.9604019E-01
   7167.00  4.8975533E-01
   7167.33  4.8356012E-01
   7167.67  4.7746827E-01
   7168.00  4.7150059E-01
   7168.33  4.6569892E-01
   7168.67  4.6006662E-01
   7169.00  4.5462172E-01
   7169.33  4.4940960E-01
   7169.67  4.4442276E-01
   7170.00  4.3967779E-01
   7170.33  4.3522840E-01
   7170.67  4.3106690E-01
   7171.00  4.2722248E-01
   7171.33  4.2379424E-01
   7171.67  4.2082896E-01
   7172.00  4.1844413E-01
