    FDMNES
    energy     <xanes>
   7097.00  4.1518042E-03
   7097.33  4.2419784E-03
   7097.67  4.3360981E-03
   7098.00  4.4344336E-03
   7098.33  4.5379044E-03
   7098.67  4.6463303E-03
   7099.00  4.7600840E-03
   7099.33  4.8803776E-03
   7099.67  5.0070334E-03
   7100.00  5.1405805E-03
   7100.33  5.2826646E-03
   7100.67  5.4331349E-03
   7101.00  5.5927691E-03
   7101.33  5.7638812E-03
   7101.67  5.9464009E-03
   7102.00  6.1415205E-03
   7102.33  6.3526329E-03
   7102.67  6.5798697E-03
   7103.00  6.8251516E-03
   7103.33  7.0937178E-03
   7103.67  7.3861818E-03
   7104.00  7.7058333E-03
   7104.33  8.0613029E-03
   7104.67  8.4543760E-03
   7105.00  8.8911418E-03
   7105.33  9.3870415E-03
   7105.67  9.9468958E-03
   7106.00  1.0583171E-02
   7106.33  1.1326694E-02
   7106.67  1.2191023E-02
   7107.00  1.3205440E-02
   7107.33  1.4441622E-02
   7107.67  1.5942816E-02
   7108.00  1.7792901E-02
   7108.33  2.0200807E-02
   7108.67  2.3340700E-02
   7109.00  2.7539610E-02
   7109.33  3.3672174E-02
   7109.67  4.2783224E-02
   7110.00  5.6933612E-02
   7110.33  8.2055845E-02
   7110.67  1.2369203E-01
   7111.00  1.7872918E-01
   7111.33  2.2001106E-01
   7111.67  2.3999029E-01
   7112.00  2.4695292E-01
   7112.33  2.4520515E-01
   7112.67  2.3277967E-01
   7113.00  2.0868020E-01
   7113.33  1.7814956E-01
   7113.67  1.4905244E-01
   7114.00  1.2472834E-01
   7114.33  1.0673098E-01
   7114.67  9.3628402E-02
   7115.00  8.4387490E-02
   7115.33  7.8120491E-02
   7115.67  7.3634916E-02
   7116.00  7.0666749E-02
   7116.33  6.9260858E-02
   7116.67  6.9027316E-02
   7117.00  6.9794178E-02
   7117.33  7.1641976E-02
   7117.67  7.4552625E-02
   7118.00  7.8625378E-02
   7118.33  8.4076655E-02
   7118.67  9.0425765E-02
   7119.00  9.6694368E-02
   7119.33  1.0132863E-01
   7119.67  1.0453396E-01
   7120.00  1.0754295E-01
   7120.33  1.1166098E-01
   7120.67  1.1721939E-01
   7121.00  1.2441451E-01
   7121.33  1.3378105E-01
   7121.67  1.4549949E-01
   7122.00  1.5995126E-01
   7122.33  1.7790004E-01
   7122.67  1.9914562E-01
   7123.00  2.2339562E-01
   7123.33  2.4975909E-01
   7123.67  2.7657507E-01
   7124.00  3.0291114E-01
   7124.33  3.2789566E-01
   7124.67  3.5108829E-01
   7125.00  3.7196068E-01
   7125.33  3.8942894E-01
   7125.67  4.0282222E-01
   7126.00  4.1094524E-01
   7126.33  4.1250581E-01
   7126.67  4.0971755E-01
   7127.00  4.0433300E-01
   7127.33  3.9654192E-01
   7127.67  3.8584286E-01
   7128.00  3.7230753E-01
   7128.33  3.5803159E-01
   7128.67  3.4663334E-01
   7129.00  3.4080008E-01
   7129.33  3.4311018E-01
   7129.67  3.5270999E-01
   7130.00  3.6869256E-01
   7130.33  3.9000532E-01
   7130.67  4.1407454E-01
   7131.00  4.3872482E-01
   7131.33  4.6026305E-01
   7131.67  4.7596304E-01
   7132.00  4.8507056E-01
   7132.33  4.8888577E-01
   7132.67  4.9115738E-01
   7133.00  4.9397704E-01
   7133.33  4.9840727E-01
   7133.67  5.0373519E-01
   7134.00  5.0896496E-01
   7134.33  5.1286742E-01
   7134.67  5.1493172E-01
   7135.00  5.1499282E-01
   7135.33  5.1299579E-01
   7135.67  5.0955146E-01
   7136.00  5.0515059E-01
   7136.33  5.0055540E-01
   7136.67  4.9662729E-01
   7137.00  4.9397502E-01
   7137.33  4.9330870E-01
   7137.67  4.9462732E-01
   7138.00  4.9791056E-01
   7138.33  5.0321568E-01
   7138.67  5.1017786E-01
   7139.00  5.1879919E-01
   7139.33  5.2938220E-01
   7139.67  5.4168485E-01
   7140.00  5.5548151E-01
   7140.33  5.7040534E-01
   7140.67  5.8568769E-01
   7141.00  6.0070897E-01
   7141.33  6.1458073E-01
   7141.67  6.2674955E-01
   7142.00  6.3686475E-01
   7142.33  6.4469736E-01
   7142.67  6.5093510E-01
   7143.00  6.5607922E-01
   7143.33  6.6053919E-01
   7143.67  6.6469325E-01
   7144.00  6.6869433E-01
   7144.33  6.7267474E-01
   7144.67  6.7679676E-01
   7145.00  6.8125159E-01
   7145.33  6.8639700E-01
   7145.67  6.9243988E-01
   7146.00  6.9954960E-01
   7146.33  7.0788944E-01
   7146.67  7.1713486E-01
   7147.00  7.2697845E-01
   7147.33  7.3699457E-01
   7147.67  7.4672543E-01
   7148.00  7.5586003E-01
   7148.33  7.6404209E-01
   7148.67  7.7124668E-01
   7149.00  7.7743463E-01
   7149.33  7.8247556E-01
   7149.67  7.8649531E-01
   7150.00  7.8946846E-01
   7150.33  7.9119158E-01
   7150.67  7.9171795E-01
   7151.00  7.9098189E-01
   7151.33  7.8877642E-01
   7151.67  7.8526253E-01
   7152.00  7.8047869E-01
   7152.33  7.7437252E-01
   7152.67  7.6722542E-01
   7153.00  7.5916941E-01
   7153.33  7.5026586E-01
   7153.67  7.4075392E-01
   7154.00  7.3074323E-01
   7154.33  7.2029036E-01
   7154.67  7.0952635E-01
   7155.00  6.9850530E-01
   7155.33  6.8724912E-01
   7155.67  6.7582267E-01
   7156.00  6.6425719E-01
   7156.33  6.5257948E-01
   7156.67  6.4085027E-01
   7157.00  6.2912142E-01
   7157.33  6.1747719E-01
   7157.67  6.0599363E-01
   7158.00  5.9474370E-01
   7158.33  5.8384770E-01
   7158.67  5.7334006E-01
   7159.00  5.6327504E-01
   7159.33  5.5376219E-01
   7159.67  5.4476812E-01
   7160.00  5.3629714E-01
   7160.33  5.2840027E-01
   7160.67  5.2098832E-01
   7161.00  5.1402388E-01
   7161.33  5.0748668E-01
   7161.67  5.0124170E-01
   7162.00  4.9520703E-01
   7162.33  4.8930774E-01
   7162.67  4.8345970E-01
   7163.00  4.7762865E-01
   7163.33  4.7180503E-01
   7163.67  4.6600033E-01
   7164.00  4.6023198E-01
   7164.33  4.5452409E-01
   7164.67  4.4888199E-01
   7165.00  4.4331214E-01
   7165.33  4.3782949E-01
   7165.67  4.3243303E-01
   7166.00  4.2713618E-01
   7166.33  4.2197834E-01
   7166.67  4.1697727E-01
   7167.00  4.1216716E-01
   7167.33  4.0761879E-01
   7167.67  4.0334218E-01
   7168.00  3.9936615E-01
   7168.33  3.9575745E-01
   7168.67  3.9249277E-01
   7169.00  3.8958102E-01
   7169.33  3.8707138E-01
   7169.67  3.8491978E-01
   7170.00  3.8312507E-01
   7170.33  3.8172793E-01
   7170.67  3.8067653E-01
   7171.00  3.7995673E-01
   7171.33  3.7956908E-01
   7171.67  3.7939885E-01
   7172.00  3.7933234E-01
