    FDMNES
    energy     <xanes>
   7097.00  4.0192966E-03
   7097.33  4.1005631E-03
   7097.67  4.1850206E-03
   7098.00  4.2728696E-03
   7098.33  4.3648239E-03
   7098.67  4.4607145E-03
   7099.00  4.5608141E-03
   7099.33  4.6660474E-03
   7099.67  4.7762430E-03
   7100.00  4.8917843E-03
   7100.33  5.0139059E-03
   7100.67  5.1424510E-03
   7101.00  5.2779786E-03
   7101.33  5.4221988E-03
   7101.67  5.5750085E-03
   7102.00  5.7372595E-03
   7102.33  5.9114302E-03
   7102.67  6.0975585E-03
   7103.00  6.2970157E-03
   7103.33  6.5135998E-03
   7103.67  6.7476981E-03
   7104.00  7.0016695E-03
   7104.33  7.2817605E-03
   7104.67  7.5892312E-03
   7105.00  7.9284968E-03
   7105.33  8.3108085E-03
   7105.67  8.7397477E-03
   7106.00  9.2245375E-03
   7106.33  9.7880434E-03
   7106.67  1.0440752E-02
   7107.00  1.1205030E-02
   7107.33  1.2135812E-02
   7107.67  1.3268075E-02
   7108.00  1.4669051E-02
   7108.33  1.6507592E-02
   7108.67  1.8933079E-02
   7109.00  2.2226532E-02
   7109.33  2.7152571E-02
   7109.67  3.4678118E-02
   7110.00  4.6729583E-02
   7110.33  6.8875738E-02
   7110.67  1.0565426E-01
   7111.00  1.4958521E-01
   7111.33  1.6301065E-01
   7111.67  1.4842653E-01
   7112.00  1.2835585E-01
   7112.33  1.1511325E-01
   7112.67  1.0808757E-01
   7113.00  1.0475218E-01
   7113.33  1.0258103E-01
   7113.67  1.0168034E-01
   7114.00  1.0257118E-01
   7114.33  9.8876944E-02
   7114.67  8.4981820E-02
   7115.00  6.7489417E-02
   7115.33  5.6004521E-02
   7115.67  4.9895126E-02
   7116.00  4.7014906E-02
   7116.33  4.5799652E-02
   7116.67  4.5270636E-02
   7117.00  4.5199041E-02
   7117.33  4.5584283E-02
   7117.67  4.6448641E-02
   7118.00  4.7882356E-02
   7118.33  5.0041276E-02
   7118.67  5.2902390E-02
   7119.00  5.6522664E-02
   7119.33  6.1090037E-02
   7119.67  6.6606335E-02
   7120.00  7.3193695E-02
   7120.33  8.1186978E-02
   7120.67  9.0633910E-02
   7121.00  1.0172342E-01
   7121.33  1.1493921E-01
   7121.67  1.3036938E-01
   7122.00  1.4844225E-01
   7122.33  1.7026105E-01
   7122.67  1.9593124E-01
   7123.00  2.2540552E-01
   7123.33  2.5822236E-01
   7123.67  2.9233623E-01
   7124.00  3.2591021E-01
   7124.33  3.5703005E-01
   7124.67  3.8581191E-01
   7125.00  4.1275809E-01
   7125.33  4.3723929E-01
   7125.67  4.5799285E-01
   7126.00  4.7346167E-01
   7126.33  4.8094331E-01
   7126.67  4.7963563E-01
   7127.00  4.6973721E-01
   7127.33  4.5489742E-01
   7127.67  4.4244029E-01
   7128.00  4.3715119E-01
   7128.33  4.4264750E-01
   7128.67  4.5770786E-01
   7129.00  4.8190725E-01
   7129.33  5.1619091E-01
   7129.67  5.5885672E-01
   7130.00  6.0803621E-01
   7130.33  6.5950669E-01
   7130.67  7.0686995E-01
   7131.00  7.4523748E-01
   7131.33  7.6982590E-01
   7131.67  7.8187244E-01
   7132.00  7.8271200E-01
   7132.33  7.7396741E-01
   7132.67  7.6025584E-01
   7133.00  7.4468924E-01
   7133.33  7.3050950E-01
   7133.67  7.2038268E-01
   7134.00  7.1676355E-01
   7134.33  7.2278981E-01
   7134.67  7.3705935E-01
   7135.00  7.5706460E-01
   7135.33  7.7890362E-01
   7135.67  7.9862928E-01
   7136.00  8.1402067E-01
   7136.33  8.2320660E-01
   7136.67  8.2706635E-01
   7137.00  8.2651908E-01
   7137.33  8.2261953E-01
   7137.67  8.1709687E-01
   7138.00  8.1084328E-01
   7138.33  8.0449674E-01
   7138.67  7.9833157E-01
   7139.00  7.9233313E-01
   7139.33  7.8629502E-01
   7139.67  7.7989064E-01
   7140.00  7.7276833E-01
   7140.33  7.6434094E-01
   7140.67  7.5435115E-01
   7141.00  7.4256026E-01
   7141.33  7.2866655E-01
   7141.67  7.1311424E-01
   7142.00  6.9630163E-01
   7142.33  6.7879996E-01
   7142.67  6.6141939E-01
   7143.00  6.4476678E-01
   7143.33  6.2960442E-01
   7143.67  6.1620052E-01
   7144.00  6.0480096E-01
   7144.33  5.9584155E-01
   7144.67  5.8906096E-01
   7145.00  5.8436018E-01
   7145.33  5.8178749E-01
   7145.67  5.8088387E-01
   7146.00  5.8144679E-01
   7146.33  5.8336793E-01
   7146.67  5.8620655E-01
   7147.00  5.8969029E-01
   7147.33  5.9351751E-01
   7147.67  5.9729729E-01
   7148.00  6.0072951E-01
   7148.33  6.0340316E-01
   7148.67  6.0512341E-01
   7149.00  6.0570526E-01
   7149.33  6.0485061E-01
   7149.67  6.0266653E-01
   7150.00  5.9917065E-01
   7150.33  5.9429196E-01
   7150.67  5.8831487E-01
   7151.00  5.8137253E-01
   7151.33  5.7352488E-01
   7151.67  5.6501828E-01
   7152.00  5.5595798E-01
   7152.33  5.4638143E-01
   7152.67  5.3641186E-01
   7153.00  5.2608689E-01
   7153.33  5.1539404E-01
   7153.67  5.0439383E-01
   7154.00  4.9310166E-01
   7154.33  4.8150858E-01
   7154.67  4.6968546E-01
   7155.00  4.5767523E-01
   7155.33  4.4552150E-01
   7155.67  4.3330823E-01
   7156.00  4.2109887E-01
   7156.33  4.0897952E-01
   7156.67  3.9701667E-01
   7157.00  3.8527577E-01
   7157.33  3.7386876E-01
   7157.67  3.6283108E-01
   7158.00  3.5222111E-01
   7158.33  3.4215888E-01
   7158.67  3.3263199E-01
   7159.00  3.2367399E-01
   7159.33  3.1539098E-01
   7159.67  3.0773479E-01
   7160.00  3.0072837E-01
   7160.33  2.9448534E-01
   7160.67  2.8895300E-01
   7161.00  2.8415862E-01
   7161.33  2.8021992E-01
   7161.67  2.7704694E-01
   7162.00  2.7462695E-01
   7162.33  2.7300717E-01
   7162.67  2.7201924E-01
   7163.00  2.7158709E-01
   7163.33  2.7168555E-01
   7163.67  2.7217490E-01
   7164.00  2.7299812E-01
   7164.33  2.7413572E-01
   7164.67  2.7550932E-01
   7165.00  2.7709072E-01
   7165.33  2.7888065E-01
   7165.67  2.8084356E-01
   7166.00  2.8297608E-01
   7166.33  2.8530353E-01
   7166.67  2.8781425E-01
   7167.00  2.9052064E-01
   7167.33  2.9346645E-01
   7167.67  2.9664219E-01
   7168.00  3.0006048E-01
   7168.33  3.0376359E-01
   7168.67  3.0772408E-01
   7169.00  3.1193901E-01
   7169.33  3.1642732E-01
   7169.67  3.2113724E-01
   7170.00  3.2604033E-01
   7170.33  3.3110637E-01
   7170.67  3.3624662E-01
   7171.00  3.4137325E-01
   7171.33  3.4630424E-01
   7171.67  3.5078667E-01
   7172.00  3.5447304E-01
