    FDMNES
    energy     <xanes>
   7097.00  5.0880108E-03
   7097.33  5.2080747E-03
   7097.67  5.3335624E-03
   7098.00  5.4648363E-03
   7098.33  5.6031435E-03
   7098.67  5.7482199E-03
   7099.00  5.9005564E-03
   7099.33  6.0617747E-03
   7099.67  6.2316001E-03
   7100.00  6.4107135E-03
   7100.33  6.6012764E-03
   7100.67  6.8030238E-03
   7101.00  7.0169283E-03
   7101.33  7.2459541E-03
   7101.67  7.4898928E-03
   7102.00  7.7501823E-03
   7102.33  8.0310293E-03
   7102.67  8.3323854E-03
   7103.00  8.6564659E-03
   7103.33  9.0094960E-03
   7103.67  9.3918198E-03
   7104.00  9.8070286E-03
   7104.33  1.0264826E-02
   7104.67  1.0766497E-02
   7105.00  1.1318248E-02
   7105.33  1.1936248E-02
   7105.67  1.2624109E-02
   7106.00  1.3393490E-02
   7106.33  1.4273827E-02
   7106.67  1.5274969E-02
   7107.00  1.6421458E-02
   7107.33  1.7773949E-02
   7107.67  1.9361414E-02
   7108.00  2.1244818E-02
   7108.33  2.3574672E-02
   7108.67  2.6453120E-02
   7109.00  3.0076903E-02
   7109.33  3.4953282E-02
   7109.67  4.1589301E-02
   7110.00  5.0968219E-02
   7110.33  6.5851952E-02
   7110.67  8.9234596E-02
   7111.00  1.2344854E-01
   7111.33  1.6889322E-01
   7111.67  2.2382080E-01
   7112.00  2.7616877E-01
   7112.33  2.9952945E-01
   7112.67  3.1174724E-01
   7113.00  3.2747422E-01
   7113.33  3.5429469E-01
   7113.67  3.8976810E-01
   7114.00  4.2523823E-01
   7114.33  4.3955615E-01
   7114.67  4.1992488E-01
   7115.00  3.7950141E-01
   7115.33  3.4563027E-01
   7115.67  3.2782110E-01
   7116.00  3.2091868E-01
   7116.33  3.1042674E-01
   7116.67  2.8936535E-01
   7117.00  2.6251039E-01
   7117.33  2.3740349E-01
   7117.67  2.1633552E-01
   7118.00  1.9913885E-01
   7118.33  1.8544841E-01
   7118.67  1.7389500E-01
   7119.00  1.6373512E-01
   7119.33  1.5476407E-01
   7119.67  1.4695330E-01
   7120.00  1.4038776E-01
   7120.33  1.3517327E-01
   7120.67  1.3111871E-01
   7121.00  1.2828607E-01
   7121.33  1.2699716E-01
   7121.67  1.2720373E-01
   7122.00  1.2892007E-01
   7122.33  1.3218894E-01
   7122.67  1.3665443E-01
   7123.00  1.4228425E-01
   7123.33  1.4941560E-01
   7123.67  1.5819318E-01
   7124.00  1.6894201E-01
   7124.33  1.8241861E-01
   7124.67  1.9883660E-01
   7125.00  2.1854874E-01
   7125.33  2.4194058E-01
   7125.67  2.6780354E-01
   7126.00  2.9488078E-01
   7126.33  3.2161684E-01
   7126.67  3.4694842E-01
   7127.00  3.7021363E-01
   7127.33  3.9083540E-01
   7127.67  4.0976785E-01
   7128.00  4.2844118E-01
   7128.33  4.4888820E-01
   7128.67  4.7181408E-01
   7129.00  4.9741787E-01
   7129.33  5.2638875E-01
   7129.67  5.5798688E-01
   7130.00  5.9032344E-01
   7130.33  6.1957143E-01
   7130.67  6.4401663E-01
   7131.00  6.6445522E-01
   7131.33  6.8336569E-01
   7131.67  7.0329967E-01
   7132.00  7.2536673E-01
   7132.33  7.5025128E-01
   7132.67  7.7740440E-01
   7133.00  8.0632025E-01
   7133.33  8.3610266E-01
   7133.67  8.6494480E-01
   7134.00  8.9063368E-01
   7134.33  9.0917691E-01
   7134.67  9.1816157E-01
   7135.00  9.1526165E-01
   7135.33  8.9719762E-01
   7135.67  8.6630321E-01
   7136.00  8.2510846E-01
   7136.33  7.7695490E-01
   7136.67  7.2663995E-01
   7137.00  6.7696942E-01
   7137.33  6.3073568E-01
   7137.67  5.8920887E-01
   7138.00  5.5336611E-01
   7138.33  5.2476806E-01
   7138.67  5.0297463E-01
   7139.00  4.8792333E-01
   7139.33  4.7974817E-01
   7139.67  4.7643064E-01
   7140.00  4.7653600E-01
   7140.33  4.7856744E-01
   7140.67  4.8099494E-01
   7141.00  4.8320645E-01
   7141.33  4.8500666E-01
   7141.67  4.8668326E-01
   7142.00  4.8856270E-01
   7142.33  4.9105146E-01
   7142.67  4.9427188E-01
   7143.00  4.9823715E-01
   7143.33  5.0287182E-01
   7143.67  5.0781389E-01
   7144.00  5.1275341E-01
   7144.33  5.1727703E-01
   7144.67  5.2112594E-01
   7145.00  5.2413080E-01
   7145.33  5.2611348E-01
   7145.67  5.2725991E-01
   7146.00  5.2771722E-01
   7146.33  5.2765599E-01
   7146.67  5.2737844E-01
   7147.00  5.2707900E-01
   7147.33  5.2696632E-01
   7147.67  5.2715672E-01
   7148.00  5.2772680E-01
   7148.33  5.2877760E-01
   7148.67  5.3027209E-01
   7149.00  5.3220951E-01
   7149.33  5.3463729E-01
   7149.67  5.3749708E-01
   7150.00  5.4078677E-01
   7150.33  5.4455085E-01
   7150.67  5.4872333E-01
   7151.00  5.5329115E-01
   7151.33  5.5827858E-01
   7151.67  5.6360143E-01
   7152.00  5.6921028E-01
   7152.33  5.7504890E-01
   7152.67  5.8098165E-01
   7153.00  5.8689024E-01
   7153.33  5.9258908E-01
   7153.67  5.9793294E-01
   7154.00  6.0278509E-01
   7154.33  6.0692752E-01
   7154.67  6.1033556E-01
   7155.00  6.1295728E-01
   7155.33  6.1467921E-01
   7155.67  6.1563551E-01
   7156.00  6.1588755E-01
   7156.33  6.1545909E-01
   7156.67  6.1454376E-01
   7157.00  6.1324742E-01
   7157.33  6.1165513E-01
   7157.67  6.0990443E-01
   7158.00  6.0807073E-01
   7158.33  6.0622098E-01
   7158.67  6.0440441E-01
   7159.00  6.0264535E-01
   7159.33  6.0096345E-01
   7159.67  5.9934530E-01
   7160.00  5.9777620E-01
   7160.33  5.9623144E-01
   7160.67  5.9467178E-01
   7161.00  5.9306015E-01
   7161.33  5.9133710E-01
   7161.67  5.8946728E-01
   7162.00  5.8741048E-01
   7162.33  5.8509333E-01
   7162.67  5.8250935E-01
   7163.00  5.7963686E-01
   7163.33  5.7642142E-01
   7163.67  5.7289433E-01
   7164.00  5.6905698E-01
   7164.33  5.6487933E-01
   7164.67  5.6041087E-01
   7165.00  5.5566342E-01
   7165.33  5.5061833E-01
   7165.67  5.4532443E-01
   7166.00  5.3979774E-01
   7166.33  5.3403347E-01
   7166.67  5.2808330E-01
   7167.00  5.2197331E-01
   7167.33  5.1572276E-01
   7167.67  5.0938556E-01
   7168.00  5.0299731E-01
   7168.33  4.9660353E-01
   7168.67  4.9025668E-01
   7169.00  4.8400043E-01
   7169.33  4.7789648E-01
   7169.67  4.7196995E-01
   7170.00  4.6625694E-01
   7170.33  4.6083200E-01
   7170.67  4.5570898E-01
   7171.00  4.5093543E-01
   7171.33  4.4664473E-01
   7171.67  4.4291755E-01
   7172.00  4.3992085E-01
