    FDMNES
    energy     <xanes>
   7097.00  5.3104524E-03
   7097.33  5.4415612E-03
   7097.67  5.5788212E-03
   7098.00  5.7226550E-03
   7098.33  5.8744968E-03
   7098.67  6.0340628E-03
   7099.00  6.2019288E-03
   7099.33  6.3799723E-03
   7099.67  6.5679014E-03
   7100.00  6.7665198E-03
   7100.33  6.9783470E-03
   7100.67  7.2031090E-03
   7101.00  7.4419607E-03
   7101.33  7.6983817E-03
   7101.67  7.9721743E-03
   7102.00  8.2650554E-03
   7102.33  8.5819987E-03
   7102.67  8.9230097E-03
   7103.00  9.2907480E-03
   7103.33  9.6926229E-03
   7103.67  1.0129128E-02
   7104.00  1.0604593E-02
   7104.33  1.1130634E-02
   7104.67  1.1708899E-02
   7105.00  1.2346884E-02
   7105.33  1.3064025E-02
   7105.67  1.3864782E-02
   7106.00  1.4763223E-02
   7106.33  1.5794750E-02
   7106.67  1.6971240E-02
   7107.00  1.8322111E-02
   7107.33  1.9919879E-02
   7107.67  2.1798673E-02
   7108.00  2.4030381E-02
   7108.33  2.6791830E-02
   7108.67  3.0199570E-02
   7109.00  3.4478208E-02
   7109.33  4.0202051E-02
   7109.67  4.7923408E-02
   7110.00  5.8708521E-02
   7110.33  7.5539116E-02
   7110.67  1.0179334E-01
   7111.00  1.4098113E-01
   7111.33  1.9393517E-01
   7111.67  2.5232267E-01
   7112.00  3.0962491E-01
   7112.33  3.7254648E-01
   7112.67  4.5413578E-01
   7113.00  5.5750470E-01
   7113.33  6.4409310E-01
   7113.67  6.5086370E-01
   7114.00  5.6818661E-01
   7114.33  4.5114813E-01
   7114.67  3.5417651E-01
   7115.00  2.8621172E-01
   7115.33  2.4484865E-01
   7115.67  2.2057084E-01
   7116.00  2.0909694E-01
   7116.33  2.0646574E-01
   7116.67  2.0521269E-01
   7117.00  2.0045563E-01
   7117.33  1.9113819E-01
   7117.67  1.8090532E-01
   7118.00  1.7192447E-01
   7118.33  1.6546274E-01
   7118.67  1.6129790E-01
   7119.00  1.5906276E-01
   7119.33  1.5810413E-01
   7119.67  1.5708008E-01
   7120.00  1.5478160E-01
   7120.33  1.5065369E-01
   7120.67  1.4620229E-01
   7121.00  1.4257995E-01
   7121.33  1.4042888E-01
   7121.67  1.3958492E-01
   7122.00  1.4013485E-01
   7122.33  1.4248040E-01
   7122.67  1.4656881E-01
   7123.00  1.5250273E-01
   7123.33  1.6071132E-01
   7123.67  1.7121616E-01
   7124.00  1.8433159E-01
   7124.33  2.0080953E-01
   7124.67  2.2035957E-01
   7125.00  2.4240115E-01
   7125.33  2.6538072E-01
   7125.67  2.8737035E-01
   7126.00  3.0786479E-01
   7126.33  3.2775831E-01
   7126.67  3.4854378E-01
   7127.00  3.7080848E-01
   7127.33  3.9430970E-01
   7127.67  4.1794060E-01
   7128.00  4.4087149E-01
   7128.33  4.6232116E-01
   7128.67  4.8272354E-01
   7129.00  5.0333499E-01
   7129.33  5.2689573E-01
   7129.67  5.5525609E-01
   7130.00  5.8897662E-01
   7130.33  6.2771857E-01
   7130.67  6.6968762E-01
   7131.00  7.1437574E-01
   7131.33  7.6195141E-01
   7131.67  8.1172198E-01
   7132.00  8.6294377E-01
   7132.33  9.1436064E-01
   7132.67  9.6412721E-01
   7133.00  1.0097048E+00
   7133.33  1.0448700E+00
   7133.67  1.0634596E+00
   7134.00  1.0592227E+00
   7134.33  1.0257567E+00
   7134.67  9.7039869E-01
   7135.00  9.0130579E-01
   7135.33  8.2817731E-01
   7135.67  7.5848015E-01
   7136.00  6.9517890E-01
   7136.33  6.4030805E-01
   7136.67  5.9282865E-01
   7137.00  5.5236293E-01
   7137.33  5.1929365E-01
   7137.67  4.9244685E-01
   7138.00  4.7156243E-01
   7138.33  4.5700327E-01
   7138.67  4.4760440E-01
   7139.00  4.4282862E-01
   7139.33  4.4235551E-01
   7139.67  4.4477265E-01
   7140.00  4.4924359E-01
   7140.33  4.5500515E-01
   7140.67  4.6118057E-01
   7141.00  4.6732575E-01
   7141.33  4.7310812E-01
   7141.67  4.7848674E-01
   7142.00  4.8351499E-01
   7142.33  4.8830930E-01
   7142.67  4.9306494E-01
   7143.00  4.9791300E-01
   7143.33  5.0299061E-01
   7143.67  5.0832754E-01
   7144.00  5.1392370E-01
   7144.33  5.1975295E-01
   7144.67  5.2568805E-01
   7145.00  5.3160991E-01
   7145.33  5.3733113E-01
   7145.67  5.4269429E-01
   7146.00  5.4754670E-01
   7146.33  5.5164827E-01
   7146.67  5.5497082E-01
   7147.00  5.5747174E-01
   7147.33  5.5907954E-01
   7147.67  5.6000477E-01
   7148.00  5.6039397E-01
   7148.33  5.6040848E-01
   7148.67  5.6030619E-01
   7149.00  5.6026719E-01
   7149.33  5.6049877E-01
   7149.67  5.6109933E-01
   7150.00  5.6213727E-01
   7150.33  5.6370561E-01
   7150.67  5.6573674E-01
   7151.00  5.6819511E-01
   7151.33  5.7105967E-01
   7151.67  5.7420052E-01
   7152.00  5.7753710E-01
   7152.33  5.8098847E-01
   7152.67  5.8445516E-01
   7153.00  5.8787270E-01
   7153.33  5.9117002E-01
   7153.67  5.9432069E-01
   7154.00  5.9730126E-01
   7154.33  6.0006848E-01
   7154.67  6.0262937E-01
   7155.00  6.0496837E-01
   7155.33  6.0703374E-01
   7155.67  6.0883104E-01
   7156.00  6.1033703E-01
   7156.33  6.1148588E-01
   7156.67  6.1229671E-01
   7157.00  6.1275847E-01
   7157.33  6.1282273E-01
   7157.67  6.1253860E-01
   7158.00  6.1191670E-01
   7158.33  6.1093393E-01
   7158.67  6.0964961E-01
   7159.00  6.0808100E-01
   7159.33  6.0621491E-01
   7159.67  6.0409595E-01
   7160.00  6.0172261E-01
   7160.33  5.9904755E-01
   7160.67  5.9608013E-01
   7161.00  5.9279185E-01
   7161.33  5.8909942E-01
   7161.67  5.8500843E-01
   7162.00  5.8048893E-01
   7162.33  5.7546127E-01
   7162.67  5.6997737E-01
   7163.00  5.6405090E-01
   7163.33  5.5766627E-01
   7163.67  5.5092849E-01
   7164.00  5.4389538E-01
   7164.33  5.3661292E-01
   7164.67  5.2918533E-01
   7165.00  5.2167792E-01
   7165.33  5.1416073E-01
   7165.67  5.0669813E-01
   7166.00  4.9933650E-01
   7166.33  4.9213701E-01
   7166.67  4.8511463E-01
   7167.00  4.7829101E-01
   7167.33  4.7171119E-01
   7167.67  4.6536214E-01
   7168.00  4.5925741E-01
   7168.33  4.5344407E-01
   7168.67  4.4790074E-01
   7169.00  4.4263306E-01
   7169.33  4.3768205E-01
   7169.67  4.3302037E-01
   7170.00  4.2865706E-01
   7170.33  4.2464355E-01
   7170.67  4.2095675E-01
   7171.00  4.1761544E-01
   7171.33  4.1470052E-01
   7171.67  4.1222149E-01
   7172.00  4.1024626E-01
