    FDMNES
    energy     <xanes>
   7097.00  5.1932448E-03
   7097.33  5.3227730E-03
   7097.67  5.4585147E-03
   7098.00  5.6009089E-03
   7098.33  5.7514250E-03
   7098.67  5.9097937E-03
   7099.00  6.0766182E-03
   7099.33  6.2538383E-03
   7099.67  6.4411838E-03
   7100.00  6.6395051E-03
   7100.33  6.8514305E-03
   7100.67  7.0767213E-03
   7101.00  7.3166130E-03
   7101.33  7.5747774E-03
   7101.67  7.8510777E-03
   7102.00  8.1473753E-03
   7102.33  8.4689879E-03
   7102.67  8.8160359E-03
   7103.00  9.1914457E-03
   7103.33  9.6032633E-03
   7103.67  1.0052215E-02
   7104.00  1.0543145E-02
   7104.33  1.1088904E-02
   7104.67  1.1691642E-02
   7105.00  1.2359921E-02
   7105.33  1.3115705E-02
   7105.67  1.3964643E-02
   7106.00  1.4923178E-02
   7106.33  1.6032342E-02
   7106.67  1.7307114E-02
   7107.00  1.8782788E-02
   7107.33  2.0545894E-02
   7107.67  2.2639772E-02
   7108.00  2.5153122E-02
   7108.33  2.8303593E-02
   7108.67  3.2240681E-02
   7109.00  3.7248409E-02
   7109.33  4.4052333E-02
   7109.67  5.3361785E-02
   7110.00  6.6535078E-02
   7110.33  8.7338674E-02
   7110.67  1.1988068E-01
   7111.00  1.6823882E-01
   7111.33  2.3859598E-01
   7111.67  3.3903914E-01
   7112.00  4.6731048E-01
   7112.33  5.6371632E-01
   7112.67  5.7398372E-01
   7113.00  5.3030272E-01
   7113.33  5.0679779E-01
   7113.67  4.5512470E-01
   7114.00  3.5478118E-01
   7114.33  2.6682515E-01
   7114.67  2.1180567E-01
   7115.00  1.8362418E-01
   7115.33  1.7866711E-01
   7115.67  1.9347037E-01
   7116.00  2.2704118E-01
   7116.33  2.5979901E-01
   7116.67  2.5721227E-01
   7117.00  2.2374312E-01
   7117.33  1.8882626E-01
   7117.67  1.6409915E-01
   7118.00  1.4876736E-01
   7118.33  1.4064194E-01
   7118.67  1.3653477E-01
   7119.00  1.3513803E-01
   7119.33  1.3554533E-01
   7119.67  1.3653625E-01
   7120.00  1.3752254E-01
   7120.33  1.3778232E-01
   7120.67  1.3694411E-01
   7121.00  1.3553918E-01
   7121.33  1.3470280E-01
   7121.67  1.3482736E-01
   7122.00  1.3565210E-01
   7122.33  1.3634538E-01
   7122.67  1.3627810E-01
   7123.00  1.3593067E-01
   7123.33  1.3665026E-01
   7123.67  1.3889622E-01
   7124.00  1.4292003E-01
   7124.33  1.4966290E-01
   7124.67  1.5933274E-01
   7125.00  1.7192023E-01
   7125.33  1.8752117E-01
   7125.67  2.0587239E-01
   7126.00  2.2731092E-01
   7126.33  2.5196292E-01
   7126.67  2.7749200E-01
   7127.00  3.0140504E-01
   7127.33  3.2236508E-01
   7127.67  3.4289355E-01
   7128.00  3.6599260E-01
   7128.33  3.9519042E-01
   7128.67  4.3115542E-01
   7129.00  4.7369365E-01
   7129.33  5.2111571E-01
   7129.67  5.6826018E-01
   7130.00  6.1100630E-01
   7130.33  6.4679266E-01
   7130.67  6.7878026E-01
   7131.00  7.1062200E-01
   7131.33  7.4493448E-01
   7131.67  7.8018205E-01
   7132.00  8.1319749E-01
   7132.33  8.3907026E-01
   7132.67  8.5594492E-01
   7133.00  8.6335299E-01
   7133.33  8.6127611E-01
   7133.67  8.5264877E-01
   7134.00  8.3929124E-01
   7134.33  8.2273631E-01
   7134.67  8.0453008E-01
   7135.00  7.8504863E-01
   7135.33  7.6409971E-01
   7135.67  7.4173790E-01
   7136.00  7.1809602E-01
   7136.33  6.9362868E-01
   7136.67  6.6927626E-01
   7137.00  6.4587698E-01
   7137.33  6.2470985E-01
   7137.67  6.0659527E-01
   7138.00  5.9243928E-01
   7138.33  5.8375998E-01
   7138.67  5.8047416E-01
   7139.00  5.8252534E-01
   7139.33  5.8966975E-01
   7139.67  5.9980625E-01
   7140.00  6.1130053E-01
   7140.33  6.2229154E-01
   7140.67  6.3155186E-01
   7141.00  6.3853990E-01
   7141.33  6.4288988E-01
   7141.67  6.4519581E-01
   7142.00  6.4584198E-01
   7142.33  6.4513238E-01
   7142.67  6.4360984E-01
   7143.00  6.4154663E-01
   7143.33  6.3915872E-01
   7143.67  6.3667736E-01
   7144.00  6.3423068E-01
   7144.33  6.3194042E-01
   7144.67  6.2984165E-01
   7145.00  6.2793824E-01
   7145.33  6.2621684E-01
   7145.67  6.2458658E-01
   7146.00  6.2296467E-01
   7146.33  6.2123333E-01
   7146.67  6.1930738E-01
   7147.00  6.1712274E-01
   7147.33  6.1460019E-01
   7147.67  6.1177527E-01
   7148.00  6.0867562E-01
   7148.33  6.0532908E-01
   7148.67  6.0183265E-01
   7149.00  5.9825373E-01
   7149.33  5.9465829E-01
   7149.67  5.9110329E-01
   7150.00  5.8762797E-01
   7150.33  5.8427939E-01
   7150.67  5.8106309E-01
   7151.00  5.7798701E-01
   7151.33  5.7507074E-01
   7151.67  5.7229448E-01
   7152.00  5.6965569E-01
   7152.33  5.6716991E-01
   7152.67  5.6482310E-01
   7153.00  5.6262220E-01
   7153.33  5.6060018E-01
   7153.67  5.5875441E-01
   7154.00  5.5710134E-01
   7154.33  5.5568660E-01
   7154.67  5.5450019E-01
   7155.00  5.5355183E-01
   7155.33  5.5287598E-01
   7155.67  5.5243713E-01
   7156.00  5.5222180E-01
   7156.33  5.5222712E-01
   7156.67  5.5238777E-01
   7157.00  5.5265765E-01
   7157.33  5.5297811E-01
   7157.67  5.5327097E-01
   7158.00  5.5346900E-01
   7158.33  5.5347268E-01
   7158.67  5.5323127E-01
   7159.00  5.5269021E-01
   7159.33  5.5175509E-01
   7159.67  5.5043640E-01
   7160.00  5.4872131E-01
   7160.33  5.4656367E-01
   7160.67  5.4402945E-01
   7161.00  5.4114030E-01
   7161.33  5.3788590E-01
   7161.67  5.3433766E-01
   7162.00  5.3051761E-01
   7162.33  5.2640971E-01
   7162.67  5.2205634E-01
   7163.00  5.1746380E-01
   7163.33  5.1260666E-01
   7163.67  5.0751823E-01
   7164.00  5.0220490E-01
   7164.33  4.9665361E-01
   7164.67  4.9091195E-01
   7165.00  4.8500430E-01
   7165.33  4.7894967E-01
   7165.67  4.7280728E-01
   7166.00  4.6662000E-01
   7166.33  4.6044314E-01
   7166.67  4.5433163E-01
   7167.00  4.4833313E-01
   7167.33  4.4251904E-01
   7167.67  4.3691412E-01
   7168.00  4.3155337E-01
   7168.33  4.2650529E-01
   7168.67  4.2176098E-01
   7169.00  4.1733502E-01
   7169.33  4.1327724E-01
   7169.67  4.0955135E-01
   7170.00  4.0615794E-01
   7170.33  4.0313504E-01
   7170.67  4.0043686E-01
   7171.00  3.9806039E-01
   7171.33  3.9604639E-01
   7171.67  3.9436515E-01
   7172.00  3.9303442E-01
