    FDMNES
    energy     <xanes>
   7097.00  5.0375672E-03
   7097.33  5.1595788E-03
   7097.67  5.2872720E-03
   7098.00  5.4210411E-03
   7098.33  5.5622178E-03
   7098.67  5.7105472E-03
   7099.00  5.8665698E-03
   7099.33  6.0320390E-03
   7099.67  6.2066979E-03
   7100.00  6.3913087E-03
   7100.33  6.5882414E-03
   7100.67  6.7972678E-03
   7101.00  7.0194965E-03
   7101.33  7.2582346E-03
   7101.67  7.5133489E-03
   7102.00  7.7865134E-03
   7102.33  8.0825223E-03
   7102.67  8.4014839E-03
   7103.00  8.7460441E-03
   7103.33  9.1234827E-03
   7103.67  9.5344853E-03
   7104.00  9.9834739E-03
   7104.33  1.0482163E-02
   7104.67  1.1032623E-02
   7105.00  1.1642787E-02
   7105.33  1.2332960E-02
   7105.67  1.3108709E-02
   7106.00  1.3985638E-02
   7106.33  1.5002613E-02
   7106.67  1.6174906E-02
   7107.00  1.7537335E-02
   7107.33  1.9175330E-02
   7107.67  2.1135563E-02
   7108.00  2.3511333E-02
   7108.33  2.6533684E-02
   7108.67  3.0378910E-02
   7109.00  3.5380500E-02
   7109.33  4.2414776E-02
   7109.67  5.2453081E-02
   7110.00  6.7394714E-02
   7110.33  9.2652482E-02
   7110.67  1.3365596E-01
   7111.00  1.9073840E-01
   7111.33  2.4930049E-01
   7111.67  3.0431982E-01
   7112.00  3.5769085E-01
   7112.33  3.9704170E-01
   7112.67  4.0538312E-01
   7113.00  3.8025439E-01
   7113.33  3.3794919E-01
   7113.67  2.9980904E-01
   7114.00  2.7392188E-01
   7114.33  2.6421347E-01
   7114.67  2.6591105E-01
   7115.00  2.7199941E-01
   7115.33  2.7089360E-01
   7115.67  2.5883507E-01
   7116.00  2.3950248E-01
   7116.33  2.1901184E-01
   7116.67  2.0079907E-01
   7117.00  1.8545314E-01
   7117.33  1.7302221E-01
   7117.67  1.6286614E-01
   7118.00  1.5484891E-01
   7118.33  1.4903937E-01
   7118.67  1.4490351E-01
   7119.00  1.4218968E-01
   7119.33  1.4081191E-01
   7119.67  1.4025392E-01
   7120.00  1.3993849E-01
   7120.33  1.3910048E-01
   7120.67  1.3760606E-01
   7121.00  1.3583313E-01
   7121.33  1.3453813E-01
   7121.67  1.3420583E-01
   7122.00  1.3504195E-01
   7122.33  1.3725063E-01
   7122.67  1.4066550E-01
   7123.00  1.4529202E-01
   7123.33  1.5138616E-01
   7123.67  1.5907868E-01
   7124.00  1.6888852E-01
   7124.33  1.8210691E-01
   7124.67  1.9931554E-01
   7125.00  2.2101702E-01
   7125.33  2.4739092E-01
   7125.67  2.7622155E-01
   7126.00  3.0523332E-01
   7126.33  3.3149259E-01
   7126.67  3.5388060E-01
   7127.00  3.7297374E-01
   7127.33  3.9167829E-01
   7127.67  4.1360022E-01
   7128.00  4.4069947E-01
   7128.33  4.7460361E-01
   7128.67  5.1447947E-01
   7129.00  5.5974150E-01
   7129.33  6.0972046E-01
   7129.67  6.6226412E-01
   7130.00  7.1581715E-01
   7130.33  7.6869380E-01
   7130.67  8.2004239E-01
   7131.00  8.6989280E-01
   7131.33  9.1911939E-01
   7131.67  9.6891417E-01
   7132.00  1.0190846E+00
   7132.33  1.0656164E+00
   7132.67  1.1007616E+00
   7133.00  1.1157613E+00
   7133.33  1.1004436E+00
   7133.67  1.0592243E+00
   7134.00  9.9851414E-01
   7134.33  9.2649065E-01
   7134.67  8.5224754E-01
   7135.00  7.8020734E-01
   7135.33  7.1389431E-01
   7135.67  6.5396567E-01
   7136.00  6.0082499E-01
   7136.33  5.5541303E-01
   7136.67  5.1677272E-01
   7137.00  4.8475443E-01
   7137.33  4.5990518E-01
   7137.67  4.4106597E-01
   7138.00  4.2780956E-01
   7138.33  4.2010964E-01
   7138.67  4.1658143E-01
   7139.00  4.1652042E-01
   7139.33  4.1946318E-01
   7139.67  4.2437964E-01
   7140.00  4.3079417E-01
   7140.33  4.3844897E-01
   7140.67  4.4696579E-01
   7141.00  4.5623150E-01
   7141.33  4.6625832E-01
   7141.67  4.7690095E-01
   7142.00  4.8808088E-01
   7142.33  4.9969744E-01
   7142.67  5.1148023E-01
   7143.00  5.2318396E-01
   7143.33  5.3442731E-01
   7143.67  5.4491602E-01
   7144.00  5.5437264E-01
   7144.33  5.6237190E-01
   7144.67  5.6890692E-01
   7145.00  5.7392159E-01
   7145.33  5.7726872E-01
   7145.67  5.7926695E-01
   7146.00  5.8008634E-01
   7146.33  5.7984422E-01
   7146.67  5.7890512E-01
   7147.00  5.7746982E-01
   7147.33  5.7571093E-01
   7147.67  5.7385234E-01
   7148.00  5.7203752E-01
   7148.33  5.7040522E-01
   7148.67  5.6901114E-01
   7149.00  5.6790024E-01
   7149.33  5.6714604E-01
   7149.67  5.6672624E-01
   7150.00  5.6664525E-01
   7150.33  5.6694199E-01
   7150.67  5.6756589E-01
   7151.00  5.6850492E-01
   7151.33  5.6977593E-01
   7151.67  5.7131650E-01
   7152.00  5.7310137E-01
   7152.33  5.7512553E-01
   7152.67  5.7732986E-01
   7153.00  5.7968634E-01
   7153.33  5.8217792E-01
   7153.67  5.8475815E-01
   7154.00  5.8740013E-01
   7154.33  5.9007656E-01
   7154.67  5.9275227E-01
   7155.00  5.9539923E-01
   7155.33  5.9797419E-01
   7155.67  6.0044618E-01
   7156.00  6.0277870E-01
   7156.33  6.0490333E-01
   7156.67  6.0679554E-01
   7157.00  6.0841362E-01
   7157.33  6.0966778E-01
   7157.67  6.1054733E-01
   7158.00  6.1101189E-01
   7158.33  6.1096548E-01
   7158.67  6.1043187E-01
   7159.00  6.0938796E-01
   7159.33  6.0774749E-01
   7159.67  6.0556495E-01
   7160.00  6.0283638E-01
   7160.33  5.9949530E-01
   7160.67  5.9561772E-01
   7161.00  5.9121528E-01
   7161.33  5.8624319E-01
   7161.67  5.8078850E-01
   7162.00  5.7487546E-01
   7162.33  5.6848287E-01
   7162.67  5.6170060E-01
   7163.00  5.5456365E-01
   7163.33  5.4707799E-01
   7163.67  5.3933002E-01
   7164.00  5.3136206E-01
   7164.33  5.2320180E-01
   7164.67  5.1491944E-01
   7165.00  5.0655744E-01
   7165.33  4.9816022E-01
   7165.67  4.8977891E-01
   7166.00  4.8145326E-01
   7166.33  4.7323790E-01
   7166.67  4.6516111E-01
   7167.00  4.5726356E-01
   7167.33  4.4961809E-01
   7167.67  4.4222728E-01
   7168.00  4.3511357E-01
   7168.33  4.2834025E-01
   7168.67  4.2189300E-01
   7169.00  4.1578925E-01
   7169.33  4.1009011E-01
   7169.67  4.0476297E-01
   7170.00  3.9981646E-01
   7170.33  3.9530707E-01
   7170.67  3.9119368E-01
   7171.00  3.8748624E-01
   7171.33  3.8426231E-01
   7171.67  3.8152027E-01
   7172.00  3.7933063E-01
