    FDMNES
    energy     <xanes>
   7097.00  4.5630908E-03
   7097.33  4.6662498E-03
   7097.67  4.7741566E-03
   7098.00  4.8871465E-03
   7098.33  5.0063435E-03
   7098.67  5.1315436E-03
   7099.00  5.2632113E-03
   7099.33  5.4028362E-03
   7099.67  5.5502194E-03
   7100.00  5.7060216E-03
   7100.33  5.8722755E-03
   7100.67  6.0488167E-03
   7101.00  6.2366184E-03
   7101.33  6.4385488E-03
   7101.67  6.6545454E-03
   7102.00  6.8860990E-03
   7102.33  7.1374263E-03
   7102.67  7.4087146E-03
   7103.00  7.7023612E-03
   7103.33  8.0248828E-03
   7103.67  8.3770579E-03
   7104.00  8.7629802E-03
   7104.33  9.1933687E-03
   7104.67  9.6704334E-03
   7105.00  1.0201713E-02
   7105.33  1.0806314E-02
   7105.67  1.1490131E-02
   7106.00  1.2268495E-02
   7106.33  1.3179320E-02
   7106.67  1.4239044E-02
   7107.00  1.5483384E-02
   7107.33  1.6999766E-02
   7107.67  1.8840261E-02
   7108.00  2.1106242E-02
   7108.33  2.4050096E-02
   7108.67  2.7880138E-02
   7109.00  3.2988084E-02
   7109.33  4.0420338E-02
   7109.67  5.1419454E-02
   7110.00  6.8435230E-02
   7110.33  9.8501497E-02
   7110.67  1.4810256E-01
   7111.00  2.1380353E-01
   7111.33  2.6826968E-01
   7111.67  2.9498594E-01
   7112.00  2.8502156E-01
   7112.33  2.6738418E-01
   7112.67  2.7569278E-01
   7113.00  2.9992166E-01
   7113.33  2.9048815E-01
   7113.67  2.4253959E-01
   7114.00  1.9385819E-01
   7114.33  1.6885039E-01
   7114.67  1.6114222E-01
   7115.00  1.5900991E-01
   7115.33  1.5220109E-01
   7115.67  1.4911863E-01
   7116.00  1.5234870E-01
   7116.33  1.4785380E-01
   7116.67  1.3319100E-01
   7117.00  1.1805766E-01
   7117.33  1.0876589E-01
   7117.67  1.0435479E-01
   7118.00  1.0347461E-01
   7118.33  1.0446631E-01
   7118.67  1.0534673E-01
   7119.00  1.0576080E-01
   7119.33  1.0658919E-01
   7119.67  1.0874383E-01
   7120.00  1.1303156E-01
   7120.33  1.2058657E-01
   7120.67  1.3009265E-01
   7121.00  1.3817383E-01
   7121.33  1.4171205E-01
   7121.67  1.4350572E-01
   7122.00  1.4584242E-01
   7122.33  1.5009983E-01
   7122.67  1.5660437E-01
   7123.00  1.6554243E-01
   7123.33  1.7708881E-01
   7123.67  1.9039798E-01
   7124.00  2.0455168E-01
   7124.33  2.1826499E-01
   7124.67  2.3088769E-01
   7125.00  2.4239327E-01
   7125.33  2.5276975E-01
   7125.67  2.6202319E-01
   7126.00  2.6997801E-01
   7126.33  2.7657538E-01
   7126.67  2.8261177E-01
   7127.00  2.8908730E-01
   7127.33  2.9770552E-01
   7127.67  3.0948180E-01
   7128.00  3.2482537E-01
   7128.33  3.4326480E-01
   7128.67  3.6231206E-01
   7129.00  3.7982064E-01
   7129.33  3.9366631E-01
   7129.67  4.0381505E-01
   7130.00  4.1072474E-01
   7130.33  4.1531274E-01
   7130.67  4.1935543E-01
   7131.00  4.2408348E-01
   7131.33  4.3074414E-01
   7131.67  4.3965638E-01
   7132.00  4.5093640E-01
   7132.33  4.6463656E-01
   7132.67  4.7991981E-01
   7133.00  4.9614470E-01
   7133.33  5.1275821E-01
   7133.67  5.2948644E-01
   7134.00  5.4622153E-01
   7134.33  5.6228563E-01
   7134.67  5.7627394E-01
   7135.00  5.8646516E-01
   7135.33  5.9065158E-01
   7135.67  5.8949585E-01
   7136.00  5.8437352E-01
   7136.33  5.7744659E-01
   7136.67  5.7098953E-01
   7137.00  5.6605903E-01
   7137.33  5.6330625E-01
   7137.67  5.6233824E-01
   7138.00  5.6283543E-01
   7138.33  5.6455070E-01
   7138.67  5.6706958E-01
   7139.00  5.7026559E-01
   7139.33  5.7418721E-01
   7139.67  5.7879699E-01
   7140.00  5.8414291E-01
   7140.33  5.9032878E-01
   7140.67  5.9717412E-01
   7141.00  6.0450267E-01
   7141.33  6.1201246E-01
   7141.67  6.1927509E-01
   7142.00  6.2593221E-01
   7142.33  6.3154161E-01
   7142.67  6.3609217E-01
   7143.00  6.3966783E-01
   7143.33  6.4243743E-01
   7143.67  6.4483407E-01
   7144.00  6.4719359E-01
   7144.33  6.4995013E-01
   7144.67  6.5338669E-01
   7145.00  6.5770216E-01
   7145.33  6.6314520E-01
   7145.67  6.6959832E-01
   7146.00  6.7697923E-01
   7146.33  6.8518908E-01
   7146.67  6.9387597E-01
   7147.00  7.0277908E-01
   7147.33  7.1154761E-01
   7147.67  7.1985078E-01
   7148.00  7.2740660E-01
   7148.33  7.3379968E-01
   7148.67  7.3893761E-01
   7149.00  7.4269057E-01
   7149.33  7.4479799E-01
   7149.67  7.4544061E-01
   7150.00  7.4467061E-01
   7150.33  7.4244184E-01
   7150.67  7.3908099E-01
   7151.00  7.3475392E-01
   7151.33  7.2957071E-01
   7151.67  7.2383105E-01
   7152.00  7.1770058E-01
   7152.33  7.1132389E-01
   7152.67  7.0487072E-01
   7153.00  6.9843675E-01
   7153.33  6.9211414E-01
   7153.67  6.8593861E-01
   7154.00  6.7992987E-01
   7154.33  6.7411405E-01
   7154.67  6.6846146E-01
   7155.00  6.6295931E-01
   7155.33  6.5760737E-01
   7155.67  6.5237347E-01
   7156.00  6.4724697E-01
   7156.33  6.4223024E-01
   7156.67  6.3730327E-01
   7157.00  6.3246083E-01
   7157.33  6.2770756E-01
   7157.67  6.2302875E-01
   7158.00  6.1842158E-01
   7158.33  6.1389389E-01
   7158.67  6.0943755E-01
   7159.00  6.0505405E-01
   7159.33  6.0075601E-01
   7159.67  5.9653966E-01
   7160.00  5.9241333E-01
   7160.33  5.8840547E-01
   7160.67  5.8452107E-01
   7161.00  5.8077045E-01
   7161.33  5.7718613E-01
   7161.67  5.7377644E-01
   7162.00  5.7056599E-01
   7162.33  5.6760504E-01
   7162.67  5.6487769E-01
   7163.00  5.6238179E-01
   7163.33  5.6012243E-01
   7163.67  5.5803170E-01
   7164.00  5.5606286E-01
   7164.33  5.5415289E-01
   7164.67  5.5220798E-01
   7165.00  5.5015070E-01
   7165.33  5.4787431E-01
   7165.67  5.4533644E-01
   7166.00  5.4249616E-01
   7166.33  5.3928505E-01
   7166.67  5.3573843E-01
   7167.00  5.3186765E-01
   7167.33  5.2767512E-01
   7167.67  5.2325744E-01
   7168.00  5.1866917E-01
   7168.33  5.1396016E-01
   7168.67  5.0920997E-01
   7169.00  5.0447705E-01
   7169.33  4.9983790E-01
   7169.67  4.9534311E-01
   7170.00  4.9104022E-01
   7170.33  4.8700902E-01
   7170.67  4.8326423E-01
   7171.00  4.7984355E-01
   7171.33  4.7684420E-01
   7171.67  4.7429139E-01
   7172.00  4.7226694E-01
