    FDMNES
    energy     <xanes>
   7097.00  4.4411723E-03
   7097.33  4.5299179E-03
   7097.67  4.6220212E-03
   7098.00  4.7176785E-03
   7098.33  4.8176165E-03
   7098.67  4.9216368E-03
   7099.00  5.0300008E-03
   7099.33  5.1436305E-03
   7099.67  5.2623167E-03
   7100.00  5.3864172E-03
   7100.33  5.5171333E-03
   7100.67  5.6542560E-03
   7101.00  5.7982925E-03
   7101.33  5.9508593E-03
   7101.67  6.1117749E-03
   7102.00  6.2817884E-03
   7102.33  6.4631656E-03
   7102.67  6.6558146E-03
   7103.00  6.8609000E-03
   7103.33  7.0817664E-03
   7103.67  7.3185584E-03
   7104.00  7.5732078E-03
   7104.33  7.8509894E-03
   7104.67  8.1526536E-03
   7105.00  8.4816782E-03
   7105.33  8.8471404E-03
   7105.67  9.2514013E-03
   7106.00  9.7014353E-03
   7106.33  1.0214808E-02
   7106.67  1.0798607E-02
   7107.00  1.1469026E-02
   7107.33  1.2266123E-02
   7107.67  1.3213328E-02
   7108.00  1.4357060E-02
   7108.33  1.5813685E-02
   7108.67  1.7680278E-02
   7109.00  2.0140617E-02
   7109.33  2.3689606E-02
   7109.67  2.8927663E-02
   7110.00  3.7047270E-02
   7110.33  5.1521916E-02
   7110.67  7.5728481E-02
   7111.00  1.0727334E-01
   7111.33  1.2201885E-01
   7111.67  1.2035910E-01
   7112.00  1.2123968E-01
   7112.33  1.2350051E-01
   7112.67  1.1884033E-01
   7113.00  1.1185940E-01
   7113.33  1.0979764E-01
   7113.67  1.0302528E-01
   7114.00  8.4739708E-02
   7114.33  6.7789532E-02
   7114.67  5.7851013E-02
   7115.00  5.3529217E-02
   7115.33  5.3711007E-02
   7115.67  5.7505813E-02
   7116.00  6.5394349E-02
   7116.33  7.9217277E-02
   7116.67  9.8736286E-02
   7117.00  1.2120069E-01
   7117.33  1.3952725E-01
   7117.67  1.5124313E-01
   7118.00  1.5753228E-01
   7118.33  1.5896115E-01
   7118.67  1.5754494E-01
   7119.00  1.5539626E-01
   7119.33  1.5482244E-01
   7119.67  1.5680778E-01
   7120.00  1.6220903E-01
   7120.33  1.7229026E-01
   7120.67  1.8634239E-01
   7121.00  2.0361883E-01
   7121.33  2.2352691E-01
   7121.67  2.4563182E-01
   7122.00  2.7053040E-01
   7122.33  2.9958393E-01
   7122.67  3.3280575E-01
   7123.00  3.6988981E-01
   7123.33  4.0920702E-01
   7123.67  4.4631519E-01
   7124.00  4.7674454E-01
   7124.33  4.9740452E-01
   7124.67  5.1298814E-01
   7125.00  5.2725867E-01
   7125.33  5.4105084E-01
   7125.67  5.5347251E-01
   7126.00  5.6500608E-01
   7126.33  5.7878229E-01
   7126.67  5.9799358E-01
   7127.00  6.2438716E-01
   7127.33  6.5825430E-01
   7127.67  6.9501733E-01
   7128.00  7.2975754E-01
   7128.33  7.5705844E-01
   7128.67  7.7687476E-01
   7129.00  7.9033544E-01
   7129.33  7.9685087E-01
   7129.67  7.9509984E-01
   7130.00  7.8319625E-01
   7130.33  7.6116096E-01
   7130.67  7.3562231E-01
   7131.00  7.1230257E-01
   7131.33  6.9587567E-01
   7131.67  6.8605197E-01
   7132.00  6.8219582E-01
   7132.33  6.8443930E-01
   7132.67  6.9128787E-01
   7133.00  7.0095884E-01
   7133.33  7.1039730E-01
   7133.67  7.1726546E-01
   7134.00  7.2104922E-01
   7134.33  7.2226746E-01
   7134.67  7.2228404E-01
   7135.00  7.2158906E-01
   7135.33  7.1999866E-01
   7135.67  7.1702041E-01
   7136.00  7.1206369E-01
   7136.33  7.0448245E-01
   7136.67  6.9475883E-01
   7137.00  6.8336398E-01
   7137.33  6.7075555E-01
   7137.67  6.5751681E-01
   7138.00  6.4390986E-01
   7138.33  6.3015044E-01
   7138.67  6.1644209E-01
   7139.00  6.0288983E-01
   7139.33  5.8956751E-01
   7139.67  5.7646124E-01
   7140.00  5.6360364E-01
   7140.33  5.5114267E-01
   7140.67  5.3920387E-01
   7141.00  5.2795122E-01
   7141.33  5.1764119E-01
   7141.67  5.0823170E-01
   7142.00  4.9969785E-01
   7142.33  4.9202772E-01
   7142.67  4.8496607E-01
   7143.00  4.7837215E-01
   7143.33  4.7215374E-01
   7143.67  4.6617882E-01
   7144.00  4.6039765E-01
   7144.33  4.5478563E-01
   7144.67  4.4928428E-01
   7145.00  4.4386206E-01
   7145.33  4.3849981E-01
   7145.67  4.3318789E-01
   7146.00  4.2794613E-01
   7146.33  4.2283709E-01
   7146.67  4.1791776E-01
   7147.00  4.1326589E-01
   7147.33  4.0903289E-01
   7147.67  4.0528403E-01
   7148.00  4.0210678E-01
   7148.33  3.9964386E-01
   7148.67  3.9780827E-01
   7149.00  3.9653385E-01
   7149.33  3.9575240E-01
   7149.67  3.9524640E-01
   7150.00  3.9486131E-01
   7150.33  3.9442907E-01
   7150.67  3.9384157E-01
   7151.00  3.9305844E-01
   7151.33  3.9208750E-01
   7151.67  3.9104355E-01
   7152.00  3.9003839E-01
   7152.33  3.8923244E-01
   7152.67  3.8872596E-01
   7153.00  3.8859263E-01
   7153.33  3.8890303E-01
   7153.67  3.8954339E-01
   7154.00  3.9039140E-01
   7154.33  3.9124328E-01
   7154.67  3.9185959E-01
   7155.00  3.9204120E-01
   7155.33  3.9152573E-01
   7155.67  3.9029145E-01
   7156.00  3.8833655E-01
   7156.33  3.8567267E-01
   7156.67  3.8254553E-01
   7157.00  3.7913366E-01
   7157.33  3.7564772E-01
   7157.67  3.7230173E-01
   7158.00  3.6924560E-01
   7158.33  3.6666590E-01
   7158.67  3.6459866E-01
   7159.00  3.6308689E-01
   7159.33  3.6221980E-01
   7159.67  3.6191953E-01
   7160.00  3.6217063E-01
   7160.33  3.6301044E-01
   7160.67  3.6433742E-01
   7161.00  3.6611843E-01
   7161.33  3.6836507E-01
   7161.67  3.7097757E-01
   7162.00  3.7390777E-01
   7162.33  3.7713145E-01
   7162.67  3.8056111E-01
   7163.00  3.8415399E-01
   7163.33  3.8788527E-01
   7163.67  3.9171385E-01
   7164.00  3.9563048E-01
   7164.33  3.9964997E-01
   7164.67  4.0377527E-01
   7165.00  4.0802109E-01
   7165.33  4.1242153E-01
   7165.67  4.1697454E-01
   7166.00  4.2168629E-01
   7166.33  4.2657091E-01
   7166.67  4.3158741E-01
   7167.00  4.3670353E-01
   7167.33  4.4187641E-01
   7167.67  4.4704312E-01
   7168.00  4.5215335E-01
   7168.33  4.5713812E-01
   7168.67  4.6196330E-01
   7169.00  4.6659243E-01
   7169.33  4.7096409E-01
   7169.67  4.7508857E-01
   7170.00  4.7895784E-01
   7170.33  4.8253511E-01
   7170.67  4.8584926E-01
   7171.00  4.8889243E-01
   7171.33  4.9160164E-01
   7171.67  4.9395006E-01
   7172.00  4.9584457E-01
