    FDMNES
    energy     <xanes>
   7097.00  4.7645097E-03
   7097.33  4.8824337E-03
   7097.67  5.0061776E-03
   7098.00  5.1361757E-03
   7098.33  5.2738447E-03
   7098.67  5.4189673E-03
   7099.00  5.5721527E-03
   7099.33  5.7353075E-03
   7099.67  5.9082322E-03
   7100.00  6.0918074E-03
   7100.33  6.2886769E-03
   7100.67  6.4987067E-03
   7101.00  6.7232139E-03
   7101.33  6.9659976E-03
   7101.67  7.2270921E-03
   7102.00  7.5085515E-03
   7102.33  7.8160712E-03
   7102.67  8.1500826E-03
   7103.00  8.5139525E-03
   7103.33  8.9166728E-03
   7103.67  9.3596020E-03
   7104.00  9.8486059E-03
   7104.33  1.0398824E-02
   7104.67  1.1013851E-02
   7105.00  1.1704727E-02
   7105.33  1.2499122E-02
   7105.67  1.3406413E-02
   7106.00  1.4449568E-02
   7106.33  1.5684965E-02
   7106.67  1.7138664E-02
   7107.00  1.8865427E-02
   7107.33  2.0998788E-02
   7107.67  2.3621654E-02
   7108.00  2.6892818E-02
   7108.33  3.1207169E-02
   7108.67  3.6897906E-02
   7109.00  4.4587156E-02
   7109.33  5.5934566E-02
   7109.67  7.2918334E-02
   7110.00  9.9431771E-02
   7110.33  1.4683353E-01
   7110.67  2.2772523E-01
   7111.00  3.4492685E-01
   7111.33  4.4713959E-01
   7111.67  4.7118483E-01
   7112.00  4.2746147E-01
   7112.33  3.7495594E-01
   7112.67  3.3504657E-01
   7113.00  3.0241390E-01
   7113.33  2.6727634E-01
   7113.67  2.2216941E-01
   7114.00  1.7658222E-01
   7114.33  1.4483231E-01
   7114.67  1.2272605E-01
   7115.00  1.0440382E-01
   7115.33  9.1432704E-02
   7115.67  8.4518603E-02
   7116.00  8.2956261E-02
   7116.33  8.5290121E-02
   7116.67  8.7592799E-02
   7117.00  8.7910781E-02
   7117.33  8.8075511E-02
   7117.67  9.0276632E-02
   7118.00  9.4675683E-02
   7118.33  1.0021442E-01
   7118.67  1.0503495E-01
   7119.00  1.0824912E-01
   7119.33  1.0959986E-01
   7119.67  1.0920799E-01
   7120.00  1.0678714E-01
   7120.33  1.0240638E-01
   7120.67  9.7316102E-02
   7121.00  9.2389577E-02
   7121.33  8.8346205E-02
   7121.67  8.5594356E-02
   7122.00  8.4599624E-02
   7122.33  8.6015976E-02
   7122.67  8.9919957E-02
   7123.00  9.6728344E-02
   7123.33  1.0741246E-01
   7123.67  1.2166670E-01
   7124.00  1.3866614E-01
   7124.33  1.5632314E-01
   7124.67  1.7241370E-01
   7125.00  1.8582650E-01
   7125.33  1.9549155E-01
   7125.67  2.0266807E-01
   7126.00  2.0934554E-01
   7126.33  2.1785694E-01
   7126.67  2.2895338E-01
   7127.00  2.4251217E-01
   7127.33  2.5794905E-01
   7127.67  2.7456741E-01
   7128.00  2.9293354E-01
   7128.33  3.1485568E-01
   7128.67  3.4080887E-01
   7129.00  3.7043481E-01
   7129.33  4.0227258E-01
   7129.67  4.3394946E-01
   7130.00  4.6474718E-01
   7130.33  4.9589636E-01
   7130.67  5.2877372E-01
   7131.00  5.6315620E-01
   7131.33  5.9835611E-01
   7131.67  6.3531490E-01
   7132.00  6.7635650E-01
   7132.33  7.2502947E-01
   7132.67  7.8233272E-01
   7133.00  8.4910420E-01
   7133.33  9.2631633E-01
   7133.67  1.0105622E+00
   7134.00  1.0976062E+00
   7134.33  1.1788497E+00
   7134.67  1.2439672E+00
   7135.00  1.2822787E+00
   7135.33  1.2795866E+00
   7135.67  1.2396456E+00
   7136.00  1.1702180E+00
   7136.33  1.0833916E+00
   7136.67  9.9372438E-01
   7137.00  9.0818554E-01
   7137.33  8.3169931E-01
   7137.67  7.6431230E-01
   7138.00  7.0580632E-01
   7138.33  6.5647939E-01
   7138.67  6.1450018E-01
   7139.00  5.7922402E-01
   7139.33  5.5071283E-01
   7139.67  5.2756132E-01
   7140.00  5.0923148E-01
   7140.33  4.9567863E-01
   7140.67  4.8589039E-01
   7141.00  4.7953646E-01
   7141.33  4.7668448E-01
   7141.67  4.7664033E-01
   7142.00  4.7911612E-01
   7142.33  4.8397718E-01
   7142.67  4.9049435E-01
   7143.00  4.9825305E-01
   7143.33  5.0691269E-01
   7143.67  5.1603194E-01
   7144.00  5.2542039E-01
   7144.33  5.3499779E-01
   7144.67  5.4475115E-01
   7145.00  5.5474786E-01
   7145.33  5.6514199E-01
   7145.67  5.7598499E-01
   7146.00  5.8730626E-01
   7146.33  5.9907996E-01
   7146.67  6.1102459E-01
   7147.00  6.2281942E-01
   7147.33  6.3391312E-01
   7147.67  6.4388816E-01
   7148.00  6.5238778E-01
   7148.33  6.5894215E-01
   7148.67  6.6371702E-01
   7149.00  6.6681415E-01
   7149.33  6.6828263E-01
   7149.67  6.6857762E-01
   7150.00  6.6792604E-01
   7150.33  6.6647111E-01
   7150.67  6.6449399E-01
   7151.00  6.6212518E-01
   7151.33  6.5943912E-01
   7151.67  6.5654370E-01
   7152.00  6.5347673E-01
   7152.33  6.5023469E-01
   7152.67  6.4682599E-01
   7153.00  6.4322509E-01
   7153.33  6.3935967E-01
   7153.67  6.3520954E-01
   7154.00  6.3073084E-01
   7154.33  6.2582331E-01
   7154.67  6.2048328E-01
   7155.00  6.1467179E-01
   7155.33  6.0828710E-01
   7155.67  6.0136495E-01
   7156.00  5.9389134E-01
   7156.33  5.8579231E-01
   7156.67  5.7714668E-01
   7157.00  5.6797534E-01
   7157.33  5.5825784E-01
   7157.67  5.4811434E-01
   7158.00  5.3761351E-01
   7158.33  5.2681978E-01
   7158.67  5.1587395E-01
   7159.00  5.0487215E-01
   7159.33  4.9392820E-01
   7159.67  4.8313264E-01
   7160.00  4.7256024E-01
   7160.33  4.6233195E-01
   7160.67  4.5249386E-01
   7161.00  4.4312365E-01
   7161.33  4.3439018E-01
   7161.67  4.2632490E-01
   7162.00  4.1901219E-01
   7162.33  4.1263868E-01
   7162.67  4.0715246E-01
   7163.00  4.0256803E-01
   7163.33  3.9895382E-01
   7163.67  3.9609186E-01
   7164.00  3.9383488E-01
   7164.33  3.9201634E-01
   7164.67  3.9035615E-01
   7165.00  3.8867083E-01
   7165.33  3.8676822E-01
   7165.67  3.8457132E-01
   7166.00  3.8205021E-01
   7166.33  3.7919049E-01
   7166.67  3.7610056E-01
   7167.00  3.7286603E-01
   7167.33  3.6959773E-01
   7167.67  3.6641805E-01
   7168.00  3.6342363E-01
   7168.33  3.6074958E-01
   7168.67  3.5844093E-01
   7169.00  3.5654828E-01
   7169.33  3.5516174E-01
   7169.67  3.5423251E-01
   7170.00  3.5374841E-01
   7170.33  3.5372563E-01
   7170.67  3.5405610E-01
   7171.00  3.5467403E-01
   7171.33  3.5550099E-01
   7171.67  3.5637013E-01
   7172.00  3.5711902E-01
