    FDMNES
    energy     <xanes>
   7097.00  5.0957613E-03
   7097.33  5.2202975E-03
   7097.67  5.3507204E-03
   7098.00  5.4874452E-03
   7098.33  5.6318630E-03
   7098.67  5.7837187E-03
   7099.00  5.9435844E-03
   7099.33  6.1132993E-03
   7099.67  6.2926106E-03
   7100.00  6.4823277E-03
   7100.33  6.6849502E-03
   7100.67  6.9002604E-03
   7101.00  7.1294420E-03
   7101.33  7.3760017E-03
   7101.67  7.6398314E-03
   7102.00  7.9227282E-03
   7102.33  8.2298042E-03
   7102.67  8.5612238E-03
   7103.00  8.9198414E-03
   7103.33  9.3134654E-03
   7103.67  9.7429016E-03
   7104.00  1.0212942E-02
   7104.33  1.0736221E-02
   7104.67  1.1315068E-02
   7105.00  1.1958106E-02
   7105.33  1.2687325E-02
   7105.67  1.3508868E-02
   7106.00  1.4439696E-02
   7106.33  1.5521931E-02
   7106.67  1.6772158E-02
   7107.00  1.8227985E-02
   7107.33  1.9981442E-02
   7107.67  2.2082066E-02
   7108.00  2.4628806E-02
   7108.33  2.7865316E-02
   7108.67  3.1971346E-02
   7109.00  3.7285397E-02
   7109.33  4.4683692E-02
   7109.67  5.5085577E-02
   7110.00  7.0266535E-02
   7110.33  9.5282416E-02
   7110.67  1.3618422E-01
   7111.00  1.9923351E-01
   7111.33  2.8380725E-01
   7111.67  3.6877348E-01
   7112.00  4.3515463E-01
   7112.33  4.8654538E-01
   7112.67  5.1134033E-01
   7113.00  4.7672405E-01
   7113.33  3.9737310E-01
   7113.67  3.1820549E-01
   7114.00  2.5324800E-01
   7114.33  2.0704943E-01
   7114.67  1.7453237E-01
   7115.00  1.5334966E-01
   7115.33  1.4335710E-01
   7115.67  1.4070675E-01
   7116.00  1.3940589E-01
   7116.33  1.3168653E-01
   7116.67  1.2069615E-01
   7117.00  1.1133985E-01
   7117.33  1.0622060E-01
   7117.67  1.0484595E-01
   7118.00  1.0696335E-01
   7118.33  1.1235112E-01
   7118.67  1.1934892E-01
   7119.00  1.2669848E-01
   7119.33  1.3249837E-01
   7119.67  1.3487007E-01
   7120.00  1.3416049E-01
   7120.33  1.3331663E-01
   7120.67  1.3456395E-01
   7121.00  1.3831899E-01
   7121.33  1.4490928E-01
   7121.67  1.5429819E-01
   7122.00  1.6679028E-01
   7122.33  1.8299768E-01
   7122.67  2.0264137E-01
   7123.00  2.2584558E-01
   7123.33  2.5291371E-01
   7123.67  2.8249336E-01
   7124.00  3.1289294E-01
   7124.33  3.4119453E-01
   7124.67  3.6533671E-01
   7125.00  3.8473476E-01
   7125.33  4.0047217E-01
   7125.67  4.1588223E-01
   7126.00  4.3332711E-01
   7126.33  4.5470013E-01
   7126.67  4.7926748E-01
   7127.00  5.0568852E-01
   7127.33  5.3186194E-01
   7127.67  5.5566292E-01
   7128.00  5.7532244E-01
   7128.33  5.8830633E-01
   7128.67  5.9440729E-01
   7129.00  5.9409002E-01
   7129.33  5.8910659E-01
   7129.67  5.8327289E-01
   7130.00  5.7913856E-01
   7130.33  5.7870760E-01
   7130.67  5.8162851E-01
   7131.00  5.8735367E-01
   7131.33  5.9568921E-01
   7131.67  6.0639169E-01
   7132.00  6.1984017E-01
   7132.33  6.3699509E-01
   7132.67  6.5775473E-01
   7133.00  6.8170889E-01
   7133.33  7.0675383E-01
   7133.67  7.2858281E-01
   7134.00  7.4386490E-01
   7134.33  7.5052730E-01
   7134.67  7.5073673E-01
   7135.00  7.4585166E-01
   7135.33  7.3661297E-01
   7135.67  7.2447242E-01
   7136.00  7.1019717E-01
   7136.33  6.9448223E-01
   7136.67  6.7828958E-01
   7137.00  6.6226416E-01
   7137.33  6.4719119E-01
   7137.67  6.3349947E-01
   7138.00  6.2148121E-01
   7138.33  6.1151458E-01
   7138.67  6.0338986E-01
   7139.00  5.9708114E-01
   7139.33  5.9280354E-01
   7139.67  5.9037691E-01
   7140.00  5.8985780E-01
   7140.33  5.9150211E-01
   7140.67  5.9496401E-01
   7141.00  6.0002628E-01
   7141.33  6.0644599E-01
   7141.67  6.1358166E-01
   7142.00  6.2100106E-01
   7142.33  6.2825097E-01
   7142.67  6.3504968E-01
   7143.00  6.4126332E-01
   7143.33  6.4678674E-01
   7143.67  6.5176327E-01
   7144.00  6.5628894E-01
   7144.33  6.6044461E-01
   7144.67  6.6438029E-01
   7145.00  6.6816748E-01
   7145.33  6.7184331E-01
   7145.67  6.7542766E-01
   7146.00  6.7889450E-01
   7146.33  6.8214779E-01
   7146.67  6.8507979E-01
   7147.00  6.8752740E-01
   7147.33  6.8916321E-01
   7147.67  6.8981310E-01
   7148.00  6.8925206E-01
   7148.33  6.8707902E-01
   7148.67  6.8333261E-01
   7149.00  6.7797461E-01
   7149.33  6.7087486E-01
   7149.67  6.6240532E-01
   7150.00  6.5278445E-01
   7150.33  6.4219314E-01
   7150.67  6.3103113E-01
   7151.00  6.1952505E-01
   7151.33  6.0787045E-01
   7151.67  5.9623011E-01
   7152.00  5.8468030E-01
   7152.33  5.7328049E-01
   7152.67  5.6202322E-01
   7153.00  5.5090262E-01
   7153.33  5.3992500E-01
   7153.67  5.2907572E-01
   7154.00  5.1836994E-01
   7154.33  5.0786107E-01
   7154.67  4.9757344E-01
   7155.00  4.8755850E-01
   7155.33  4.7793005E-01
   7155.67  4.6872527E-01
   7156.00  4.6001821E-01
   7156.33  4.5196943E-01
   7156.67  4.4458785E-01
   7157.00  4.3793280E-01
   7157.33  4.3214695E-01
   7157.67  4.2714693E-01
   7158.00  4.2291291E-01
   7158.33  4.1947047E-01
   7158.67  4.1663126E-01
   7159.00  4.1428834E-01
   7159.33  4.1235193E-01
   7159.67  4.1064216E-01
   7160.00  4.0905497E-01
   7160.33  4.0749602E-01
   7160.67  4.0589251E-01
   7161.00  4.0421172E-01
   7161.33  4.0243743E-01
   7161.67  4.0060096E-01
   7162.00  3.9873561E-01
   7162.33  3.9689288E-01
   7162.67  3.9512305E-01
   7163.00  3.9346883E-01
   7163.33  3.9199103E-01
   7163.67  3.9069902E-01
   7164.00  3.8960645E-01
   7164.33  3.8874068E-01
   7164.67  3.8806593E-01
   7165.00  3.8756513E-01
   7165.33  3.8722966E-01
   7165.67  3.8700928E-01
   7166.00  3.8687561E-01
   7166.33  3.8680274E-01
   7166.67  3.8675609E-01
   7167.00  3.8672126E-01
   7167.33  3.8669483E-01
   7167.67  3.8668801E-01
   7168.00  3.8672189E-01
   7168.33  3.8683248E-01
   7168.67  3.8704511E-01
   7169.00  3.8739174E-01
   7169.33  3.8792987E-01
   7169.67  3.8866968E-01
   7170.00  3.8963137E-01
   7170.33  3.9085585E-01
   7170.67  3.9230720E-01
   7171.00  3.9395792E-01
   7171.33  3.9574856E-01
   7171.67  3.9750820E-01
   7172.00  3.9902214E-01
