    FDMNES
    energy     <xanes>
   7097.00  5.3566467E-03
   7097.33  5.4929354E-03
   7097.67  5.6358630E-03
   7098.00  5.7859074E-03
   7098.33  5.9446541E-03
   7098.67  6.1118290E-03
   7099.00  6.2880943E-03
   7099.33  6.4755583E-03
   7099.67  6.6739547E-03
   7100.00  6.8842270E-03
   7100.33  7.1092592E-03
   7100.67  7.3488357E-03
   7101.00  7.6043462E-03
   7101.33  7.8798695E-03
   7101.67  8.1753351E-03
   7102.00  8.4928722E-03
   7102.33  8.8384842E-03
   7102.67  9.2124544E-03
   7103.00  9.6182032E-03
   7103.33  1.0065007E-02
   7103.67  1.0553982E-02
   7104.00  1.1090948E-02
   7104.33  1.1691134E-02
   7104.67  1.2357645E-02
   7105.00  1.3101133E-02
   7105.33  1.3948588E-02
   7105.67  1.4908157E-02
   7106.00  1.6001245E-02
   7106.33  1.7280768E-02
   7106.67  1.8768934E-02
   7107.00  2.0514525E-02
   7107.33  2.2636668E-02
   7107.67  2.5203150E-02
   7108.00  2.8346890E-02
   7108.33  3.2395944E-02
   7108.67  3.7604499E-02
   7109.00  4.4448292E-02
   7109.33  5.4168916E-02
   7109.67  6.8124602E-02
   7110.00  8.8947770E-02
   7110.33  1.2419909E-01
   7110.67  1.8297024E-01
   7111.00  2.7398966E-01
   7111.33  3.9344632E-01
   7111.67  5.0247250E-01
   7112.00  5.5642320E-01
   7112.33  5.3857051E-01
   7112.67  4.8448937E-01
   7113.00  4.1172366E-01
   7113.33  3.3450125E-01
   7113.67  2.6954785E-01
   7114.00  2.1858572E-01
   7114.33  1.7940164E-01
   7114.67  1.5001743E-01
   7115.00  1.2930649E-01
   7115.33  1.1569044E-01
   7115.67  1.0620720E-01
   7116.00  9.9906084E-02
   7116.33  9.7007149E-02
   7116.67  9.7028408E-02
   7117.00  9.9738514E-02
   7117.33  1.0505171E-01
   7117.67  1.1232956E-01
   7118.00  1.2159388E-01
   7118.33  1.3338802E-01
   7118.67  1.4609767E-01
   7119.00  1.5641346E-01
   7119.33  1.6103824E-01
   7119.67  1.6254651E-01
   7120.00  1.6449190E-01
   7120.33  1.7077561E-01
   7120.67  1.8263287E-01
   7121.00  2.0040246E-01
   7121.33  2.2462642E-01
   7121.67  2.5425397E-01
   7122.00  2.8875151E-01
   7122.33  3.2670657E-01
   7122.67  3.6526594E-01
   7123.00  4.0359303E-01
   7123.33  4.4112233E-01
   7123.67  4.7548864E-01
   7124.00  5.0534839E-01
   7124.33  5.3152525E-01
   7124.67  5.5529336E-01
   7125.00  5.7640850E-01
   7125.33  5.9515905E-01
   7125.67  6.1303787E-01
   7126.00  6.3032528E-01
   7126.33  6.4637046E-01
   7126.67  6.6081490E-01
   7127.00  6.7331829E-01
   7127.33  6.8255404E-01
   7127.67  6.8672328E-01
   7128.00  6.8342973E-01
   7128.33  6.7051872E-01
   7128.67  6.5240275E-01
   7129.00  6.3455314E-01
   7129.33  6.2220689E-01
   7129.67  6.1479200E-01
   7130.00  6.0979316E-01
   7130.33  6.0407509E-01
   7130.67  5.9625145E-01
   7131.00  5.8655899E-01
   7131.33  5.7634788E-01
   7131.67  5.6735591E-01
   7132.00  5.6063030E-01
   7132.33  5.5694051E-01
   7132.67  5.5561999E-01
   7133.00  5.5609205E-01
   7133.33  5.5783057E-01
   7133.67  5.6008136E-01
   7134.00  5.6246543E-01
   7134.33  5.6513172E-01
   7134.67  5.6850401E-01
   7135.00  5.7262883E-01
   7135.33  5.7706911E-01
   7135.67  5.8109312E-01
   7136.00  5.8409955E-01
   7136.33  5.8538725E-01
   7136.67  5.8504321E-01
   7137.00  5.8326731E-01
   7137.33  5.8021925E-01
   7137.67  5.7624733E-01
   7138.00  5.7151327E-01
   7138.33  5.6627466E-01
   7138.67  5.6106269E-01
   7139.00  5.5634400E-01
   7139.33  5.5271002E-01
   7139.67  5.5031109E-01
   7140.00  5.4918623E-01
   7140.33  5.4931265E-01
   7140.67  5.5023019E-01
   7141.00  5.5161380E-01
   7141.33  5.5314701E-01
   7141.67  5.5461371E-01
   7142.00  5.5597924E-01
   7142.33  5.5733904E-01
   7142.67  5.5886676E-01
   7143.00  5.6070423E-01
   7143.33  5.6298997E-01
   7143.67  5.6564486E-01
   7144.00  5.6855380E-01
   7144.33  5.7152815E-01
   7144.67  5.7436132E-01
   7145.00  5.7692649E-01
   7145.33  5.7911755E-01
   7145.67  5.8099095E-01
   7146.00  5.8258931E-01
   7146.33  5.8393244E-01
   7146.67  5.8507366E-01
   7147.00  5.8598166E-01
   7147.33  5.8649316E-01
   7147.67  5.8646457E-01
   7148.00  5.8570769E-01
   7148.33  5.8388207E-01
   7148.67  5.8090545E-01
   7149.00  5.7663130E-01
   7149.33  5.7074264E-01
   7149.67  5.6333510E-01
   7150.00  5.5440584E-01
   7150.33  5.4387703E-01
   7150.67  5.3213849E-01
   7151.00  5.1944618E-01
   7151.33  5.0606859E-01
   7151.67  4.9243162E-01
   7152.00  4.7881204E-01
   7152.33  4.6552591E-01
   7152.67  4.5276719E-01
   7153.00  4.4069953E-01
   7153.33  4.2958194E-01
   7153.67  4.1942266E-01
   7154.00  4.1028403E-01
   7154.33  4.0231788E-01
   7154.67  3.9534951E-01
   7155.00  3.8928514E-01
   7155.33  3.8405251E-01
   7155.67  3.7935734E-01
   7156.00  3.7501803E-01
   7156.33  3.7085448E-01
   7156.67  3.6667660E-01
   7157.00  3.6236970E-01
   7157.33  3.5781249E-01
   7157.67  3.5298212E-01
   7158.00  3.4786752E-01
   7158.33  3.4245660E-01
   7158.67  3.3683435E-01
   7159.00  3.3106696E-01
   7159.33  3.2524532E-01
   7159.67  3.1948572E-01
   7160.00  3.1388618E-01
   7160.33  3.0858924E-01
   7160.67  3.0365751E-01
   7161.00  2.9915928E-01
   7161.33  2.9521867E-01
   7161.67  2.9181806E-01
   7162.00  2.8897964E-01
   7162.33  2.8678709E-01
   7162.67  2.8516859E-01
   7163.00  2.8411458E-01
   7163.33  2.8367610E-01
   7163.67  2.8376598E-01
   7164.00  2.8436943E-01
   7164.33  2.8553612E-01
   7164.67  2.8719790E-01
   7165.00  2.8935656E-01
   7165.33  2.9208453E-01
   7165.67  2.9533312E-01
   7166.00  2.9911702E-01
   7166.33  3.0352127E-01
   7166.67  3.0848572E-01
   7167.00  3.1401047E-01
   7167.33  3.2015731E-01
   7167.67  3.2683812E-01
   7168.00  3.3402541E-01
   7168.33  3.4173252E-01
   7168.67  3.4984377E-01
   7169.00  3.5829868E-01
   7169.33  3.6704835E-01
   7169.67  3.7596748E-01
   7170.00  3.8496798E-01
   7170.33  3.9393075E-01
   7170.67  4.0272501E-01
   7171.00  4.1120759E-01
   7171.33  4.1908244E-01
   7171.67  4.2606021E-01
   7172.00  4.3171141E-01
