    FDMNES
    energy     <xanes>
   7097.00  4.1859880E-03
   7097.33  4.2696786E-03
   7097.67  4.3566294E-03
   7098.00  4.4470429E-03
   7098.33  4.5416445E-03
   7098.67  4.6402583E-03
   7099.00  4.7431589E-03
   7099.33  4.8512827E-03
   7099.67  4.9644499E-03
   7100.00  5.0830443E-03
   7100.33  5.2083109E-03
   7100.67  5.3400816E-03
   7101.00  5.4789130E-03
   7101.33  5.6265201E-03
   7101.67  5.7827826E-03
   7102.00  5.9485432E-03
   7102.33  6.1262691E-03
   7102.67  6.3159699E-03
   7103.00  6.5189894E-03
   7103.33  6.7390739E-03
   7103.67  6.9765546E-03
   7104.00  7.2337163E-03
   7104.33  7.5166467E-03
   7104.67  7.8264745E-03
   7105.00  8.1674120E-03
   7105.33  8.5502488E-03
   7105.67  8.9782061E-03
   7106.00  9.4599078E-03
   7106.33  1.0016804E-02
   7106.67  1.0658208E-02
   7107.00  1.1404469E-02
   7107.33  1.2305564E-02
   7107.67  1.3391758E-02
   7108.00  1.4721923E-02
   7108.33  1.6443139E-02
   7108.67  1.8679450E-02
   7109.00  2.1664193E-02
   7109.33  2.6024218E-02
   7109.67  3.2518793E-02
   7110.00  4.2650056E-02
   7110.33  6.0755628E-02
   7110.67  9.0846089E-02
   7111.00  1.3012630E-01
   7111.33  1.5539276E-01
   7111.67  1.5894068E-01
   7112.00  1.5602793E-01
   7112.33  1.6129969E-01
   7112.67  1.5861576E-01
   7113.00  1.3786314E-01
   7113.33  1.1401168E-01
   7113.67  9.8061532E-02
   7114.00  8.7991746E-02
   7114.33  7.8495360E-02
   7114.67  6.9271742E-02
   7115.00  6.0177503E-02
   7115.33  5.2238095E-02
   7115.67  4.7034852E-02
   7116.00  4.4180161E-02
   7116.33  4.2993809E-02
   7116.67  4.2795360E-02
   7117.00  4.3433831E-02
   7117.33  4.5008072E-02
   7117.67  4.7489933E-02
   7118.00  5.0966905E-02
   7118.33  5.5660713E-02
   7118.67  6.1428242E-02
   7119.00  6.8095580E-02
   7119.33  7.5237268E-02
   7119.67  8.2127885E-02
   7120.00  8.8293715E-02
   7120.33  9.3515126E-02
   7120.67  9.8292207E-02
   7121.00  1.0322953E-01
   7121.33  1.0923721E-01
   7121.67  1.1686248E-01
   7122.00  1.2648865E-01
   7122.33  1.3871664E-01
   7122.67  1.5359471E-01
   7123.00  1.7156169E-01
   7123.33  1.9390684E-01
   7123.67  2.2126390E-01
   7124.00  2.5469992E-01
   7124.33  2.9607277E-01
   7124.67  3.4451182E-01
   7125.00  3.9830290E-01
   7125.33  4.5159097E-01
   7125.67  4.9477937E-01
   7126.00  5.2126242E-01
   7126.33  5.2920292E-01
   7126.67  5.2736861E-01
   7127.00  5.2314675E-01
   7127.33  5.2398156E-01
   7127.67  5.3252669E-01
   7128.00  5.4937637E-01
   7128.33  5.7536770E-01
   7128.67  6.0908887E-01
   7129.00  6.4998400E-01
   7129.33  6.9747782E-01
   7129.67  7.4834142E-01
   7130.00  7.9939186E-01
   7130.33  8.4589861E-01
   7130.67  8.8493501E-01
   7131.00  9.1500171E-01
   7131.33  9.3490812E-01
   7131.67  9.4670709E-01
   7132.00  9.5112126E-01
   7132.33  9.4733747E-01
   7132.67  9.3581323E-01
   7133.00  9.1668455E-01
   7133.33  8.9121509E-01
   7133.67  8.6366064E-01
   7134.00  8.3680628E-01
   7134.33  8.1229392E-01
   7134.67  7.8947785E-01
   7135.00  7.6763935E-01
   7135.33  7.4646047E-01
   7135.67  7.2606879E-01
   7136.00  7.0688241E-01
   7136.33  6.8959004E-01
   7136.67  6.7429041E-01
   7137.00  6.6107904E-01
   7137.33  6.5014711E-01
   7137.67  6.4105288E-01
   7138.00  6.3358555E-01
   7138.33  6.2766299E-01
   7138.67  6.2288335E-01
   7139.00  6.1907859E-01
   7139.33  6.1618554E-01
   7139.67  6.1396336E-01
   7140.00  6.1230495E-01
   7140.33  6.1115156E-01
   7140.67  6.1034485E-01
   7141.00  6.0980768E-01
   7141.33  6.0947942E-01
   7141.67  6.0925542E-01
   7142.00  6.0907116E-01
   7142.33  6.0884065E-01
   7142.67  6.0846940E-01
   7143.00  6.0787135E-01
   7143.33  6.0692909E-01
   7143.67  6.0564576E-01
   7144.00  6.0404094E-01
   7144.33  6.0217441E-01
   7144.67  6.0022827E-01
   7145.00  5.9836650E-01
   7145.33  5.9681454E-01
   7145.67  5.9567819E-01
   7146.00  5.9499483E-01
   7146.33  5.9471027E-01
   7146.67  5.9450109E-01
   7147.00  5.9399915E-01
   7147.33  5.9258040E-01
   7147.67  5.8981629E-01
   7148.00  5.8533584E-01
   7148.33  5.7862905E-01
   7148.67  5.6989999E-01
   7149.00  5.5929418E-01
   7149.33  5.4696722E-01
   7149.67  5.3357581E-01
   7150.00  5.1954980E-01
   7150.33  5.0534256E-01
   7150.67  4.9137332E-01
   7151.00  4.7790350E-01
   7151.33  4.6523537E-01
   7151.67  4.5341060E-01
   7152.00  4.4248873E-01
   7152.33  4.3260765E-01
   7152.67  4.2363970E-01
   7153.00  4.1555532E-01
   7153.33  4.0839949E-01
   7153.67  4.0199210E-01
   7154.00  3.9625726E-01
   7154.33  3.9116767E-01
   7154.67  3.8654327E-01
   7155.00  3.8228629E-01
   7155.33  3.7831153E-01
   7155.67  3.7447289E-01
   7156.00  3.7067697E-01
   7156.33  3.6681991E-01
   7156.67  3.6283297E-01
   7157.00  3.5867428E-01
   7157.33  3.5430161E-01
   7157.67  3.4975447E-01
   7158.00  3.4507303E-01
   7158.33  3.4032314E-01
   7158.67  3.3560742E-01
   7159.00  3.3101788E-01
   7159.33  3.2669443E-01
   7159.67  3.2271410E-01
   7160.00  3.1916185E-01
   7160.33  3.1619026E-01
   7160.67  3.1380367E-01
   7161.00  3.1204216E-01
   7161.33  3.1102523E-01
   7161.67  3.1069692E-01
   7162.00  3.1106928E-01
   7162.33  3.1223035E-01
   7162.67  3.1407122E-01
   7163.00  3.1655028E-01
   7163.33  3.1967662E-01
   7163.67  3.2330196E-01
   7164.00  3.2735438E-01
   7164.33  3.3179406E-01
   7164.67  3.3649231E-01
   7165.00  3.4137292E-01
   7165.33  3.4636264E-01
   7165.67  3.5137390E-01
   7166.00  3.5635200E-01
   7166.33  3.6123603E-01
   7166.67  3.6599942E-01
   7167.00  3.7062253E-01
   7167.33  3.7507924E-01
   7167.67  3.7939371E-01
   7168.00  3.8357920E-01
   7168.33  3.8764568E-01
   7168.67  3.9163450E-01
   7169.00  3.9557108E-01
   7169.33  3.9948050E-01
   7169.67  4.0338847E-01
   7170.00  4.0730704E-01
   7170.33  4.1123935E-01
   7170.67  4.1516545E-01
   7171.00  4.1904485E-01
   7171.33  4.2276326E-01
   7171.67  4.2614968E-01
   7172.00  4.2895244E-01
