    FDMNES
    energy     <xanes>
   7097.00  4.2171822E-03
   7097.33  4.3019868E-03
   7097.67  4.3901512E-03
   7098.00  4.4818879E-03
   7098.33  4.5779510E-03
   7098.67  4.6781643E-03
   7099.00  4.7828170E-03
   7099.33  4.8928865E-03
   7099.67  5.0081935E-03
   7100.00  5.1291438E-03
   7100.33  5.2570418E-03
   7100.67  5.3917223E-03
   7101.00  5.5337747E-03
   7101.33  5.6850027E-03
   7101.67  5.8452932E-03
   7102.00  6.0155402E-03
   7102.33  6.1983463E-03
   7102.67  6.3937373E-03
   7103.00  6.6031391E-03
   7103.33  6.8305117E-03
   7103.67  7.0762205E-03
   7104.00  7.3426869E-03
   7104.33  7.6363471E-03
   7104.67  7.9584012E-03
   7105.00  8.3132977E-03
   7105.33  8.7124161E-03
   7105.67  9.1591257E-03
   7106.00  9.6624715E-03
   7106.33  1.0244935E-02
   7106.67  1.0916123E-02
   7107.00  1.1697130E-02
   7107.33  1.2639710E-02
   7107.67  1.3774541E-02
   7108.00  1.5161516E-02
   7108.33  1.6949733E-02
   7108.67  1.9261729E-02
   7109.00  2.2327682E-02
   7109.33  2.6760694E-02
   7109.67  3.3282336E-02
   7110.00  4.3312937E-02
   7110.33  6.0968020E-02
   7110.67  9.0559153E-02
   7111.00  1.3210691E-01
   7111.33  1.6731488E-01
   7111.67  1.8101678E-01
   7112.00  1.8163933E-01
   7112.33  1.8422237E-01
   7112.67  1.7591219E-01
   7113.00  1.4983662E-01
   7113.33  1.2574990E-01
   7113.67  1.1374831E-01
   7114.00  1.0867111E-01
   7114.33  9.7442027E-02
   7114.67  8.1255272E-02
   7115.00  6.5326916E-02
   7115.33  5.3723263E-02
   7115.67  4.6711639E-02
   7116.00  4.2969160E-02
   7116.33  4.1418737E-02
   7116.67  4.1138574E-02
   7117.00  4.1883021E-02
   7117.33  4.3683427E-02
   7117.67  4.6441286E-02
   7118.00  5.0209324E-02
   7118.33  5.5167635E-02
   7118.67  6.1098802E-02
   7119.00  6.7695744E-02
   7119.33  7.4312079E-02
   7119.67  8.0304587E-02
   7120.00  8.5468430E-02
   7120.33  8.9980051E-02
   7120.67  9.4421547E-02
   7121.00  9.9212904E-02
   7121.33  1.0479965E-01
   7121.67  1.1132468E-01
   7122.00  1.1894891E-01
   7122.33  1.2809024E-01
   7122.67  1.3895860E-01
   7123.00  1.5200350E-01
   7123.33  1.6827374E-01
   7123.67  1.8826032E-01
   7124.00  2.1274014E-01
   7124.33  2.4326093E-01
   7124.67  2.7989396E-01
   7125.00  3.2276668E-01
   7125.33  3.7025036E-01
   7125.67  4.1419817E-01
   7126.00  4.4346546E-01
   7126.33  4.4714320E-01
   7126.67  4.3705416E-01
   7127.00  4.2778244E-01
   7127.33  4.2984318E-01
   7127.67  4.4279820E-01
   7128.00  4.6500978E-01
   7128.33  4.9534457E-01
   7128.67  5.3102132E-01
   7129.00  5.7041074E-01
   7129.33  6.1269826E-01
   7129.67  6.5844437E-01
   7130.00  7.0972380E-01
   7130.33  7.6940339E-01
   7130.67  8.3617306E-01
   7131.00  9.0723456E-01
   7131.33  9.7613348E-01
   7131.67  1.0347359E+00
   7132.00  1.0762129E+00
   7132.33  1.0935254E+00
   7132.67  1.0903919E+00
   7133.00  1.0711262E+00
   7133.33  1.0409457E+00
   7133.67  1.0064697E+00
   7134.00  9.7032499E-01
   7134.33  9.3312457E-01
   7134.67  8.9462055E-01
   7135.00  8.5492976E-01
   7135.33  8.1514983E-01
   7135.67  7.7683807E-01
   7136.00  7.4111512E-01
   7136.33  7.0919105E-01
   7136.67  6.8092440E-01
   7137.00  6.5627605E-01
   7137.33  6.3543368E-01
   7137.67  6.1763596E-01
   7138.00  6.0256347E-01
   7138.33  5.9013839E-01
   7138.67  5.7971597E-01
   7139.00  5.7102246E-01
   7139.33  5.6395749E-01
   7139.67  5.5810994E-01
   7140.00  5.5333689E-01
   7140.33  5.4968594E-01
   7140.67  5.4708040E-01
   7141.00  5.4566915E-01
   7141.33  5.4589879E-01
   7141.67  5.4784836E-01
   7142.00  5.5162892E-01
   7142.33  5.5735201E-01
   7142.67  5.6444832E-01
   7143.00  5.7249720E-01
   7143.33  5.8106297E-01
   7143.67  5.8968923E-01
   7144.00  5.9813987E-01
   7144.33  6.0621100E-01
   7144.67  6.1385407E-01
   7145.00  6.2101613E-01
   7145.33  6.2757788E-01
   7145.67  6.3354202E-01
   7146.00  6.3882774E-01
   7146.33  6.4318552E-01
   7146.67  6.4650976E-01
   7147.00  6.4858591E-01
   7147.33  6.4895821E-01
   7147.67  6.4757615E-01
   7148.00  6.4427221E-01
   7148.33  6.3865834E-01
   7148.67  6.3096581E-01
   7149.00  6.2128071E-01
   7149.33  6.0961299E-01
   7149.67  5.9653021E-01
   7150.00  5.8239232E-01
   7150.33  5.6756829E-01
   7150.67  5.5255294E-01
   7151.00  5.3765657E-01
   7151.33  5.2322225E-01
   7151.67  5.0941249E-01
   7152.00  4.9635284E-01
   7152.33  4.8423677E-01
   7152.67  4.7300365E-01
   7153.00  4.6266149E-01
   7153.33  4.5328930E-01
   7153.67  4.4472220E-01
   7154.00  4.3689716E-01
   7154.33  4.2980951E-01
   7154.67  4.2327998E-01
   7155.00  4.1721973E-01
   7155.33  4.1156832E-01
   7155.67  4.0617710E-01
   7156.00  4.0096233E-01
   7156.33  3.9584584E-01
   7156.67  3.9074230E-01
   7157.00  3.8560369E-01
   7157.33  3.8038682E-01
   7157.67  3.7509148E-01
   7158.00  3.6973182E-01
   7158.33  3.6434685E-01
   7158.67  3.5900700E-01
   7159.00  3.5378815E-01
   7159.33  3.4882117E-01
   7159.67  3.4418874E-01
   7160.00  3.3998484E-01
   7160.33  3.3637355E-01
   7160.67  3.3336876E-01
   7161.00  3.3102305E-01
   7161.33  3.2946811E-01
   7161.67  3.2863741E-01
   7162.00  3.2853092E-01
   7162.33  3.2921842E-01
   7162.67  3.3056865E-01
   7163.00  3.3252120E-01
   7163.33  3.3506662E-01
   7163.67  3.3806714E-01
   7164.00  3.4145854E-01
   7164.33  3.4520040E-01
   7164.67  3.4917360E-01
   7165.00  3.5331446E-01
   7165.33  3.5757221E-01
   7165.67  3.6188356E-01
   7166.00  3.6621689E-01
   7166.33  3.7054915E-01
   7166.67  3.7486820E-01
   7167.00  3.7916454E-01
   7167.33  3.8342831E-01
   7167.67  3.8766667E-01
   7168.00  3.9188379E-01
   7168.33  3.9607960E-01
   7168.67  4.0025461E-01
   7169.00  4.0440340E-01
   7169.33  4.0851041E-01
   7169.67  4.1256395E-01
   7170.00  4.1654558E-01
   7170.33  4.2041603E-01
   7170.67  4.2415225E-01
   7171.00  4.2771216E-01
   7171.33  4.3098833E-01
   7171.67  4.3388146E-01
   7172.00  4.3622674E-01
