    FDMNES
    energy     <xanes>
   7097.00  4.5275062E-03
   7097.33  4.6236769E-03
   7097.67  4.7237094E-03
   7098.00  4.8278412E-03
   7098.33  4.9369264E-03
   7098.67  5.0507511E-03
   7099.00  5.1696336E-03
   7099.33  5.2946685E-03
   7099.67  5.4256318E-03
   7100.00  5.5629623E-03
   7100.33  5.7081002E-03
   7100.67  5.8608258E-03
   7101.00  6.0217646E-03
   7101.33  6.1928726E-03
   7101.67  6.3739680E-03
   7102.00  6.5659783E-03
   7102.33  6.7716671E-03
   7102.67  6.9909657E-03
   7103.00  7.2253186E-03
   7103.33  7.4788255E-03
   7103.67  7.7517077E-03
   7104.00  8.0463525E-03
   7104.33  8.3692310E-03
   7104.67  8.7212857E-03
   7105.00  9.1067723E-03
   7105.33  9.5367562E-03
   7105.67  1.0014044E-02
   7106.00  1.0547004E-02
   7106.33  1.1156682E-02
   7106.67  1.1851152E-02
   7107.00  1.2649210E-02
   7107.33  1.3597209E-02
   7107.67  1.4720541E-02
   7108.00  1.6070196E-02
   7108.33  1.7772835E-02
   7108.67  1.9926260E-02
   7109.00  2.2715483E-02
   7109.33  2.6627665E-02
   7109.67  3.2207299E-02
   7110.00  4.0519160E-02
   7110.33  5.4620697E-02
   7110.67  7.7820461E-02
   7111.00  1.1134847E-01
   7111.33  1.4789250E-01
   7111.67  1.7967393E-01
   7112.00  1.9889554E-01
   7112.33  1.9605315E-01
   7112.67  1.8558746E-01
   7113.00  1.7570155E-01
   7113.33  1.6229575E-01
   7113.67  1.4103881E-01
   7114.00  1.1776237E-01
   7114.33  1.0003016E-01
   7114.67  8.7891559E-02
   7115.00  8.0178906E-02
   7115.33  7.6011996E-02
   7115.67  7.4202467E-02
   7116.00  7.4413778E-02
   7116.33  7.6709267E-02
   7116.67  8.0783201E-02
   7117.00  8.6526069E-02
   7117.33  9.3802865E-02
   7117.67  1.0205575E-01
   7118.00  1.1113873E-01
   7118.33  1.2128292E-01
   7118.67  1.3258241E-01
   7119.00  1.4526811E-01
   7119.33  1.5996686E-01
   7119.67  1.7686980E-01
   7120.00  1.9616809E-01
   7120.33  2.1815828E-01
   7120.67  2.4241803E-01
   7121.00  2.6884883E-01
   7121.33  2.9772181E-01
   7121.67  3.2890049E-01
   7122.00  3.6245340E-01
   7122.33  3.9846439E-01
   7122.67  4.3608628E-01
   7123.00  4.7439932E-01
   7123.33  5.1126366E-01
   7123.67  5.4334726E-01
   7124.00  5.6698768E-01
   7124.33  5.7879307E-01
   7124.67  5.8366359E-01
   7125.00  5.8795912E-01
   7125.33  5.9702356E-01
   7125.67  6.0996141E-01
   7126.00  6.2436849E-01
   7126.33  6.3772102E-01
   7126.67  6.4850469E-01
   7127.00  6.5467064E-01
   7127.33  6.5283030E-01
   7127.67  6.4405679E-01
   7128.00  6.3121155E-01
   7128.33  6.1885166E-01
   7128.67  6.1049549E-01
   7129.00  6.0752665E-01
   7129.33  6.1009748E-01
   7129.67  6.1537618E-01
   7130.00  6.2069552E-01
   7130.33  6.2289862E-01
   7130.67  6.2109324E-01
   7131.00  6.1579870E-01
   7131.33  6.0852729E-01
   7131.67  6.0137190E-01
   7132.00  5.9553451E-01
   7132.33  5.9207243E-01
   7132.67  5.9090904E-01
   7133.00  5.9178989E-01
   7133.33  5.9434506E-01
   7133.67  5.9801291E-01
   7134.00  6.0282670E-01
   7134.33  6.0896220E-01
   7134.67  6.1577488E-01
   7135.00  6.2248973E-01
   7135.33  6.2808727E-01
   7135.67  6.3205254E-01
   7136.00  6.3407485E-01
   7136.33  6.3378471E-01
   7136.67  6.3156806E-01
   7137.00  6.2769493E-01
   7137.33  6.2244133E-01
   7137.67  6.1642214E-01
   7138.00  6.0999131E-01
   7138.33  6.0346103E-01
   7138.67  5.9708001E-01
   7139.00  5.9099159E-01
   7139.33  5.8533687E-01
   7139.67  5.8008150E-01
   7140.00  5.7518379E-01
   7140.33  5.7058368E-01
   7140.67  5.6613514E-01
   7141.00  5.6174650E-01
   7141.33  5.5732854E-01
   7141.67  5.5282879E-01
   7142.00  5.4822571E-01
   7142.33  5.4351088E-01
   7142.67  5.3872789E-01
   7143.00  5.3391937E-01
   7143.33  5.2914704E-01
   7143.67  5.2446247E-01
   7144.00  5.1990456E-01
   7144.33  5.1552101E-01
   7144.67  5.1129766E-01
   7145.00  5.0722243E-01
   7145.33  5.0328725E-01
   7145.67  4.9945075E-01
   7146.00  4.9569341E-01
   7146.33  4.9200628E-01
   7146.67  4.8837393E-01
   7147.00  4.8480072E-01
   7147.33  4.8131613E-01
   7147.67  4.7794374E-01
   7148.00  4.7471997E-01
   7148.33  4.7171547E-01
   7148.67  4.6895031E-01
   7149.00  4.6645575E-01
   7149.33  4.6429816E-01
   7149.67  4.6246757E-01
   7150.00  4.6098262E-01
   7150.33  4.5988846E-01
   7150.67  4.5912172E-01
   7151.00  4.5865068E-01
   7151.33  4.5845595E-01
   7151.67  4.5844758E-01
   7152.00  4.5857259E-01
   7152.33  4.5877834E-01
   7152.67  4.5899016E-01
   7153.00  4.5915119E-01
   7153.33  4.5920506E-01
   7153.67  4.5913938E-01
   7154.00  4.5894118E-01
   7154.33  4.5858410E-01
   7154.67  4.5808177E-01
   7155.00  4.5743237E-01
   7155.33  4.5661566E-01
   7155.67  4.5564861E-01
   7156.00  4.5452989E-01
   7156.33  4.5323916E-01
   7156.67  4.5179500E-01
   7157.00  4.5019834E-01
   7157.33  4.4843487E-01
   7157.67  4.4653175E-01
   7158.00  4.4450030E-01
   7158.33  4.4234417E-01
   7158.67  4.4009726E-01
   7159.00  4.3777740E-01
   7159.33  4.3540017E-01
   7159.67  4.3299603E-01
   7160.00  4.3058601E-01
   7160.33  4.2819501E-01
   7160.67  4.2584245E-01
   7161.00  4.2354691E-01
   7161.33  4.2134020E-01
   7161.67  4.1923392E-01
   7162.00  4.1724600E-01
   7162.33  4.1541207E-01
   7162.67  4.1372949E-01
   7163.00  4.1220819E-01
   7163.33  4.1087699E-01
   7163.67  4.0972164E-01
   7164.00  4.0874876E-01
   7164.33  4.0798838E-01
   7164.67  4.0742095E-01
   7165.00  4.0704790E-01
   7165.33  4.0689343E-01
   7165.67  4.0693124E-01
   7166.00  4.0715739E-01
   7166.33  4.0758637E-01
   7166.67  4.0818372E-01
   7167.00  4.0893608E-01
   7167.33  4.0984106E-01
   7167.67  4.1085837E-01
   7168.00  4.1196524E-01
   7168.33  4.1314092E-01
   7168.67  4.1434826E-01
   7169.00  4.1556136E-01
   7169.33  4.1674844E-01
   7169.67  4.1788655E-01
   7170.00  4.1895678E-01
   7170.33  4.1993108E-01
   7170.67  4.2080780E-01
   7171.00  4.2157976E-01
   7171.33  4.2222741E-01
   7171.67  4.2275830E-01
   7172.00  4.2316523E-01
