    FDMNES
    energy     <xanes>
   7097.00  4.8111131E-03
   7097.33  4.9208456E-03
   7097.67  5.0353950E-03
   7098.00  5.1550779E-03
   7098.33  5.2809932E-03
   7098.67  5.4129001E-03
   7099.00  5.5512269E-03
   7099.33  5.6973992E-03
   7099.67  5.8511667E-03
   7100.00  6.0131234E-03
   7100.33  6.1851659E-03
   7100.67  6.3670531E-03
   7101.00  6.5596344E-03
   7101.33  6.7655093E-03
   7101.67  6.9844888E-03
   7102.00  7.2178326E-03
   7102.33  7.4692342E-03
   7102.67  7.7386529E-03
   7103.00  8.0280408E-03
   7103.33  8.3428841E-03
   7103.67  8.6835108E-03
   7104.00  9.0531155E-03
   7104.33  9.4603170E-03
   7104.67  9.9063419E-03
   7105.00  1.0396795E-02
   7105.33  1.0946239E-02
   7105.67  1.1558181E-02
   7106.00  1.2243403E-02
   7106.33  1.3029054E-02
   7106.67  1.3924976E-02
   7107.00  1.4954736E-02
   7107.33  1.6176552E-02
   7107.67  1.7620799E-02
   7108.00  1.9349653E-02
   7108.33  2.1517690E-02
   7108.67  2.4240763E-02
   7109.00  2.7740299E-02
   7109.33  3.2600689E-02
   7109.67  3.9472500E-02
   7110.00  4.9636178E-02
   7110.33  6.6760966E-02
   7110.67  9.4506753E-02
   7111.00  1.3251164E-01
   7111.33  1.6661370E-01
   7111.67  1.9092800E-01
   7112.00  2.0794684E-01
   7112.33  2.2100585E-01
   7112.67  2.3780394E-01
   7113.00  2.6289304E-01
   7113.33  3.0158232E-01
   7113.67  3.4242026E-01
   7114.00  3.4887622E-01
   7114.33  2.9493050E-01
   7114.67  2.3747331E-01
   7115.00  2.0557332E-01
   7115.33  2.0493021E-01
   7115.67  2.2665790E-01
   7116.00  2.6381177E-01
   7116.33  3.0149126E-01
   7116.67  3.2207278E-01
   7117.00  3.1984655E-01
   7117.33  2.9986849E-01
   7117.67  2.7450647E-01
   7118.00  2.4928281E-01
   7118.33  2.2705035E-01
   7118.67  2.0795958E-01
   7119.00  1.9197679E-01
   7119.33  1.7912486E-01
   7119.67  1.6828554E-01
   7120.00  1.5893119E-01
   7120.33  1.5140615E-01
   7120.67  1.4608154E-01
   7121.00  1.4331106E-01
   7121.33  1.4345505E-01
   7121.67  1.4583771E-01
   7122.00  1.4992778E-01
   7122.33  1.5522744E-01
   7122.67  1.6130725E-01
   7123.00  1.6831048E-01
   7123.33  1.7689641E-01
   7123.67  1.8750879E-01
   7124.00  2.0066148E-01
   7124.33  2.1725626E-01
   7124.67  2.3741323E-01
   7125.00  2.6158757E-01
   7125.33  2.9037385E-01
   7125.67  3.2152163E-01
   7126.00  3.5136262E-01
   7126.33  3.7397103E-01
   7126.67  3.8748914E-01
   7127.00  3.9265680E-01
   7127.33  3.9184710E-01
   7127.67  3.8944989E-01
   7128.00  3.8839515E-01
   7128.33  3.9172776E-01
   7128.67  4.0047722E-01
   7129.00  4.1526387E-01
   7129.33  4.3696211E-01
   7129.67  4.6443101E-01
   7130.00  4.9702445E-01
   7130.33  5.3408512E-01
   7130.67  5.7356173E-01
   7131.00  6.1392061E-01
   7131.33  6.5322932E-01
   7131.67  6.8990704E-01
   7132.00  7.2269567E-01
   7132.33  7.4996691E-01
   7132.67  7.7207952E-01
   7133.00  7.8957415E-01
   7133.33  8.0356936E-01
   7133.67  8.1661587E-01
   7134.00  8.3063088E-01
   7134.33  8.4739052E-01
   7134.67  8.6612914E-01
   7135.00  8.8400406E-01
   7135.33  8.9367950E-01
   7135.67  8.8852685E-01
   7136.00  8.6483063E-01
   7136.33  8.2258812E-01
   7136.67  7.7101239E-01
   7137.00  7.1666143E-01
   7137.33  6.6503235E-01
   7137.67  6.1816376E-01
   7138.00  5.7657452E-01
   7138.33  5.4071636E-01
   7138.67  5.0949196E-01
   7139.00  4.8249905E-01
   7139.33  4.5981125E-01
   7139.67  4.4062009E-01
   7140.00  4.2468961E-01
   7140.33  4.1215249E-01
   7140.67  4.0239829E-01
   7141.00  3.9522103E-01
   7141.33  3.9065365E-01
   7141.67  3.8813532E-01
   7142.00  3.8743459E-01
   7142.33  3.8849661E-01
   7142.67  3.9091118E-01
   7143.00  3.9452973E-01
   7143.33  3.9935114E-01
   7143.67  4.0513550E-01
   7144.00  4.1179951E-01
   7144.33  4.1933351E-01
   7144.67  4.2750764E-01
   7145.00  4.3617958E-01
   7145.33  4.4519806E-01
   7145.67  4.5433692E-01
   7146.00  4.6346914E-01
   7146.33  4.7251695E-01
   7146.67  4.8151736E-01
   7147.00  4.9055293E-01
   7147.33  4.9973903E-01
   7147.67  5.0909298E-01
   7148.00  5.1859098E-01
   7148.33  5.2816322E-01
   7148.67  5.3768927E-01
   7149.00  5.4706722E-01
   7149.33  5.5616390E-01
   7149.67  5.6493798E-01
   7150.00  5.7335048E-01
   7150.33  5.8132896E-01
   7150.67  5.8891123E-01
   7151.00  5.9609331E-01
   7151.33  6.0282485E-01
   7151.67  6.0916362E-01
   7152.00  6.1512214E-01
   7152.33  6.2066989E-01
   7152.67  6.2586549E-01
   7153.00  6.3071864E-01
   7153.33  6.3519834E-01
   7153.67  6.3935470E-01
   7154.00  6.4319310E-01
   7154.33  6.4667824E-01
   7154.67  6.4985001E-01
   7155.00  6.5270581E-01
   7155.33  6.5519961E-01
   7155.67  6.5736319E-01
   7156.00  6.5918741E-01
   7156.33  6.6061670E-01
   7156.67  6.6168310E-01
   7157.00  6.6237672E-01
   7157.33  6.6263845E-01
   7157.67  6.6250597E-01
   7158.00  6.6197172E-01
   7158.33  6.6097776E-01
   7158.67  6.5957045E-01
   7159.00  6.5774729E-01
   7159.33  6.5545431E-01
   7159.67  6.5274322E-01
   7160.00  6.4961502E-01
   7160.33  6.4602351E-01
   7160.67  6.4203003E-01
   7161.00  6.3764288E-01
   7161.33  6.3282421E-01
   7161.67  6.2763447E-01
   7162.00  6.2208677E-01
   7162.33  6.1615613E-01
   7162.67  6.0990539E-01
   7163.00  6.0335416E-01
   7163.33  5.9649352E-01
   7163.67  5.8938688E-01
   7164.00  5.8206152E-01
   7164.33  5.7452848E-01
   7164.67  5.6684901E-01
   7165.00  5.5905848E-01
   7165.33  5.5119021E-01
   7165.67  5.4329636E-01
   7166.00  5.3541640E-01
   7166.33  5.2760444E-01
   7166.67  5.1989716E-01
   7167.00  5.1232685E-01
   7167.33  5.0494500E-01
   7167.67  4.9775456E-01
   7168.00  4.9077142E-01
   7168.33  4.8403774E-01
   7168.67  4.7753755E-01
   7169.00  4.7127904E-01
   7169.33  4.6530057E-01
   7169.67  4.5957966E-01
   7170.00  4.5412705E-01
   7170.33  4.4899507E-01
   7170.67  4.4417112E-01
   7171.00  4.3968543E-01
   7171.33  4.3565034E-01
   7171.67  4.3213414E-01
   7172.00  4.2929150E-01
