    FDMNES
    energy     <xanes>
   7097.00  5.2223001E-03
   7097.33  5.3467807E-03
   7097.67  5.4770158E-03
   7098.00  5.6134011E-03
   7098.33  5.7572783E-03
   7098.67  5.9083831E-03
   7099.00  6.0672554E-03
   7099.33  6.2356553E-03
   7099.67  6.4133129E-03
   7100.00  6.6009851E-03
   7100.33  6.8010397E-03
   7100.67  7.0132289E-03
   7101.00  7.2386459E-03
   7101.33  7.4805746E-03
   7101.67  7.7388489E-03
   7102.00  8.0151061E-03
   7102.33  8.3140685E-03
   7102.67  8.6357845E-03
   7103.00  8.9828150E-03
   7103.33  9.3622583E-03
   7103.67  9.7746775E-03
   7104.00  1.0224298E-02
   7104.33  1.0722396E-02
   7104.67  1.1270764E-02
   7105.00  1.1876864E-02
   7105.33  1.2559921E-02
   7105.67  1.3324808E-02
   7106.00  1.4185920E-02
   7106.33  1.5179295E-02
   7106.67  1.6318242E-02
   7107.00  1.7634133E-02
   7107.33  1.9204168E-02
   7107.67  2.1068485E-02
   7108.00  2.3308872E-02
   7108.33  2.6127812E-02
   7108.67  2.9674177E-02
   7109.00  3.4231745E-02
   7109.33  4.0543688E-02
   7109.67  4.9414817E-02
   7110.00  6.2420115E-02
   7110.33  8.4040340E-02
   7110.67  1.1880826E-01
   7111.00  1.6748692E-01
   7111.33  2.1874501E-01
   7111.67  2.6227743E-01
   7112.00  2.9660769E-01
   7112.33  3.2637438E-01
   7112.67  3.5948684E-01
   7113.00  4.0445289E-01
   7113.33  4.5547307E-01
   7113.67  4.8440434E-01
   7114.00  4.7665403E-01
   7114.33  4.2972966E-01
   7114.67  3.6819638E-01
   7115.00  3.1193593E-01
   7115.33  2.7218174E-01
   7115.67  2.4611617E-01
   7116.00  2.3041763E-01
   7116.33  2.2155566E-01
   7116.67  2.1396677E-01
   7117.00  2.0279661E-01
   7117.33  1.8449015E-01
   7117.67  1.6406464E-01
   7118.00  1.4655030E-01
   7118.33  1.3494060E-01
   7118.67  1.2812761E-01
   7119.00  1.2496037E-01
   7119.33  1.2414288E-01
   7119.67  1.2414571E-01
   7120.00  1.2447644E-01
   7120.33  1.2503896E-01
   7120.67  1.2548082E-01
   7121.00  1.2529247E-01
   7121.33  1.2440421E-01
   7121.67  1.2375237E-01
   7122.00  1.2415071E-01
   7122.33  1.2642508E-01
   7122.67  1.3068593E-01
   7123.00  1.3710614E-01
   7123.33  1.4615133E-01
   7123.67  1.5749875E-01
   7124.00  1.7065109E-01
   7124.33  1.8460275E-01
   7124.67  1.9862650E-01
   7125.00  2.1312748E-01
   7125.33  2.2930628E-01
   7125.67  2.4781960E-01
   7126.00  2.6896579E-01
   7126.33  2.9266451E-01
   7126.67  3.1749572E-01
   7127.00  3.4224902E-01
   7127.33  3.6603869E-01
   7127.67  3.8907920E-01
   7128.00  4.1147940E-01
   7128.33  4.3277426E-01
   7128.67  4.5294291E-01
   7129.00  4.7282849E-01
   7129.33  4.9491915E-01
   7129.67  5.2165334E-01
   7130.00  5.5470249E-01
   7130.33  5.9540910E-01
   7130.67  6.4163048E-01
   7131.00  6.9108415E-01
   7131.33  7.4075634E-01
   7131.67  7.8849269E-01
   7132.00  8.3376329E-01
   7132.33  8.7666519E-01
   7132.67  9.1757232E-01
   7133.00  9.5561060E-01
   7133.33  9.8794035E-01
   7133.67  1.0123721E+00
   7134.00  1.0267254E+00
   7134.33  1.0280650E+00
   7134.67  1.0178615E+00
   7135.00  9.9727318E-01
   7135.33  9.6747285E-01
   7135.67  9.3198296E-01
   7136.00  8.9281857E-01
   7136.33  8.5176526E-01
   7136.67  8.1063303E-01
   7137.00  7.7053217E-01
   7137.33  7.3278385E-01
   7137.67  6.9798179E-01
   7138.00  6.6670612E-01
   7138.33  6.3993491E-01
   7138.67  6.1740492E-01
   7139.00  5.9911526E-01
   7139.33  5.8533672E-01
   7139.67  5.7513468E-01
   7140.00  5.6802815E-01
   7140.33  5.6371332E-01
   7140.67  5.6127170E-01
   7141.00  5.6021573E-01
   7141.33  5.6014254E-01
   7141.67  5.6049883E-01
   7142.00  5.6096037E-01
   7142.33  5.6119136E-01
   7142.67  5.6098180E-01
   7143.00  5.6018823E-01
   7143.33  5.5861853E-01
   7143.67  5.5630628E-01
   7144.00  5.5323783E-01
   7144.33  5.4933079E-01
   7144.67  5.4471493E-01
   7145.00  5.3944511E-01
   7145.33  5.3354888E-01
   7145.67  5.2723200E-01
   7146.00  5.2064025E-01
   7146.33  5.1395706E-01
   7146.67  5.0738512E-01
   7147.00  5.0105477E-01
   7147.33  4.9511454E-01
   7147.67  4.8959672E-01
   7148.00  4.8454330E-01
   7148.33  4.8004297E-01
   7148.67  4.7604412E-01
   7149.00  4.7254128E-01
   7149.33  4.6957555E-01
   7149.67  4.6706456E-01
   7150.00  4.6499231E-01
   7150.33  4.6339415E-01
   7150.67  4.6220624E-01
   7151.00  4.6142852E-01
   7151.33  4.6112517E-01
   7151.67  4.6126526E-01
   7152.00  4.6187284E-01
   7152.33  4.6303973E-01
   7152.67  4.6473025E-01
   7153.00  4.6696082E-01
   7153.33  4.6980797E-01
   7153.67  4.7319610E-01
   7154.00  4.7710529E-01
   7154.33  4.8155643E-01
   7154.67  4.8643057E-01
   7155.00  4.9166019E-01
   7155.33  4.9718272E-01
   7155.67  5.0285618E-01
   7156.00  5.0857688E-01
   7156.33  5.1420501E-01
   7156.67  5.1961603E-01
   7157.00  5.2469449E-01
   7157.33  5.2925577E-01
   7157.67  5.3324624E-01
   7158.00  5.3659016E-01
   7158.33  5.3914183E-01
   7158.67  5.4097009E-01
   7159.00  5.4209113E-01
   7159.33  5.4247942E-01
   7159.67  5.4230636E-01
   7160.00  5.4166883E-01
   7160.33  5.4064884E-01
   7160.67  5.3941463E-01
   7161.00  5.3806671E-01
   7161.33  5.3670094E-01
   7161.67  5.3539132E-01
   7162.00  5.3417801E-01
   7162.33  5.3309830E-01
   7162.67  5.3213265E-01
   7163.00  5.3124860E-01
   7163.33  5.3039333E-01
   7163.67  5.2951108E-01
   7164.00  5.2855680E-01
   7164.33  5.2746256E-01
   7164.67  5.2619694E-01
   7165.00  5.2472808E-01
   7165.33  5.2300301E-01
   7165.67  5.2104168E-01
   7166.00  5.1885042E-01
   7166.33  5.1642462E-01
   7166.67  5.1382462E-01
   7167.00  5.1108824E-01
   7167.33  5.0825425E-01
   7167.67  5.0538479E-01
   7168.00  5.0252275E-01
   7168.33  4.9972088E-01
   7168.67  4.9701189E-01
   7169.00  4.9442271E-01
   7169.33  4.9199640E-01
   7169.67  4.8973409E-01
   7170.00  4.8764266E-01
   7170.33  4.8574173E-01
   7170.67  4.8400459E-01
   7171.00  4.8242748E-01
   7171.33  4.8103486E-01
   7171.67  4.7983150E-01
   7172.00  4.7886164E-01
