    FDMNES
    energy     <xanes>
   7097.00  5.2928059E-03
   7097.33  5.4155624E-03
   7097.67  5.5437779E-03
   7098.00  5.6778137E-03
   7098.33  5.8189190E-03
   7098.67  5.9668235E-03
   7099.00  6.1220156E-03
   7099.33  6.2861173E-03
   7099.67  6.4588472E-03
   7100.00  6.6408828E-03
   7100.33  6.8343827E-03
   7100.67  7.0390752E-03
   7101.00  7.2559282E-03
   7101.33  7.4878998E-03
   7101.67  7.7347759E-03
   7102.00  7.9979892E-03
   7102.33  8.2817386E-03
   7102.67  8.5859742E-03
   7103.00  8.9129101E-03
   7103.33  9.2687711E-03
   7103.67  9.6539144E-03
   7104.00  1.0071949E-02
   7104.33  1.0532624E-02
   7104.67  1.1037285E-02
   7105.00  1.1592235E-02
   7105.33  1.2213868E-02
   7105.67  1.2906042E-02
   7106.00  1.3680811E-02
   7106.33  1.4568576E-02
   7106.67  1.5580188E-02
   7107.00  1.6741884E-02
   7107.33  1.8118620E-02
   7107.67  1.9744155E-02
   7108.00  2.1687993E-02
   7108.33  2.4123680E-02
   7108.67  2.7183400E-02
   7109.00  3.1121635E-02
   7109.33  3.6618959E-02
   7109.67  4.4464506E-02
   7110.00  5.6226257E-02
   7110.33  7.6312923E-02
   7110.67  1.0751768E-01
   7111.00  1.4182015E-01
   7111.33  1.5700209E-01
   7111.67  1.7162647E-01
   7112.00  1.9711623E-01
   7112.33  2.3754178E-01
   7112.67  2.8814508E-01
   7113.00  3.3497344E-01
   7113.33  3.7048509E-01
   7113.67  4.2052564E-01
   7114.00  4.7775627E-01
   7114.33  4.9676158E-01
   7114.67  4.7969387E-01
   7115.00  4.2786075E-01
   7115.33  3.5482738E-01
   7115.67  2.9376468E-01
   7116.00  2.5337637E-01
   7116.33  2.3315462E-01
   7116.67  2.2549135E-01
   7117.00  2.2473861E-01
   7117.33  2.2034930E-01
   7117.67  2.0502261E-01
   7118.00  1.8328286E-01
   7118.33  1.6532191E-01
   7118.67  1.5408347E-01
   7119.00  1.4876521E-01
   7119.33  1.4816290E-01
   7119.67  1.4993042E-01
   7120.00  1.5210025E-01
   7120.33  1.5194255E-01
   7120.67  1.4928284E-01
   7121.00  1.4558569E-01
   7121.33  1.4255138E-01
   7121.67  1.4126395E-01
   7122.00  1.4267572E-01
   7122.33  1.4790831E-01
   7122.67  1.5658076E-01
   7123.00  1.6869346E-01
   7123.33  1.8528541E-01
   7123.67  2.0660308E-01
   7124.00  2.3264514E-01
   7124.33  2.6184108E-01
   7124.67  2.8926585E-01
   7125.00  3.1010444E-01
   7125.33  3.2030230E-01
   7125.67  3.2328356E-01
   7126.00  3.2345286E-01
   7126.33  3.2578978E-01
   7126.67  3.3307351E-01
   7127.00  3.4677031E-01
   7127.33  3.6881677E-01
   7127.67  3.9874271E-01
   7128.00  4.3624178E-01
   7128.33  4.8049526E-01
   7128.67  5.2829100E-01
   7129.00  5.7777002E-01
   7129.33  6.2787128E-01
   7129.67  6.7768921E-01
   7130.00  7.2585505E-01
   7130.33  7.6934165E-01
   7130.67  8.0617509E-01
   7131.00  8.3545568E-01
   7131.33  8.5732258E-01
   7131.67  8.7471182E-01
   7132.00  8.8942327E-01
   7132.33  9.0264312E-01
   7132.67  9.1484225E-01
   7133.00  9.2563399E-01
   7133.33  9.3401589E-01
   7133.67  9.3956119E-01
   7134.00  9.4177804E-01
   7134.33  9.3968290E-01
   7134.67  9.3327025E-01
   7135.00  9.2211500E-01
   7135.33  9.0501044E-01
   7135.67  8.8204286E-01
   7136.00  8.5295304E-01
   7136.33  8.1775216E-01
   7136.67  7.7920252E-01
   7137.00  7.3953128E-01
   7137.33  7.0091018E-01
   7137.67  6.6455619E-01
   7138.00  6.3130291E-01
   7138.33  6.0241403E-01
   7138.67  5.7789132E-01
   7139.00  5.5784069E-01
   7139.33  5.4262418E-01
   7139.67  5.3130619E-01
   7140.00  5.2343589E-01
   7140.33  5.1880998E-01
   7140.67  5.1653465E-01
   7141.00  5.1620582E-01
   7141.33  5.1761473E-01
   7141.67  5.2021900E-01
   7142.00  5.2373556E-01
   7142.33  5.2790112E-01
   7142.67  5.3229022E-01
   7143.00  5.3658913E-01
   7143.33  5.4038577E-01
   7143.67  5.4342364E-01
   7144.00  5.4549807E-01
   7144.33  5.4633354E-01
   7144.67  5.4604784E-01
   7145.00  5.4470763E-01
   7145.33  5.4234647E-01
   7145.67  5.3926396E-01
   7146.00  5.3562402E-01
   7146.33  5.3154926E-01
   7146.67  5.2722386E-01
   7147.00  5.2273470E-01
   7147.33  5.1814495E-01
   7147.67  5.1352506E-01
   7148.00  5.0892491E-01
   7148.33  5.0442134E-01
   7148.67  5.0008136E-01
   7149.00  4.9597857E-01
   7149.33  4.9224040E-01
   7149.67  4.8890715E-01
   7150.00  4.8603862E-01
   7150.33  4.8375572E-01
   7150.67  4.8203439E-01
   7151.00  4.8089825E-01
   7151.33  4.8043606E-01
   7151.67  4.8057154E-01
   7152.00  4.8129251E-01
   7152.33  4.8264397E-01
   7152.67  4.8451772E-01
   7153.00  4.8686869E-01
   7153.33  4.8968026E-01
   7153.67  4.9281818E-01
   7154.00  4.9620091E-01
   7154.33  4.9974293E-01
   7154.67  5.0331944E-01
   7155.00  5.0683973E-01
   7155.33  5.1018443E-01
   7155.67  5.1328292E-01
   7156.00  5.1606821E-01
   7156.33  5.1843102E-01
   7156.67  5.2037687E-01
   7157.00  5.2189011E-01
   7157.33  5.2292554E-01
   7157.67  5.2357316E-01
   7158.00  5.2388651E-01
   7158.33  5.2391814E-01
   7158.67  5.2379958E-01
   7159.00  5.2362370E-01
   7159.33  5.2350615E-01
   7159.67  5.2354446E-01
   7160.00  5.2381979E-01
   7160.33  5.2445321E-01
   7160.67  5.2546818E-01
   7161.00  5.2690211E-01
   7161.33  5.2883180E-01
   7161.67  5.3119763E-01
   7162.00  5.3397362E-01
   7162.33  5.3714815E-01
   7162.67  5.4059127E-01
   7163.00  5.4420733E-01
   7163.33  5.4787641E-01
   7163.67  5.5145654E-01
   7164.00  5.5482707E-01
   7164.33  5.5780867E-01
   7164.67  5.6031943E-01
   7165.00  5.6226397E-01
   7165.33  5.6347645E-01
   7165.67  5.6399190E-01
   7166.00  5.6379604E-01
   7166.33  5.6280886E-01
   7166.67  5.6115155E-01
   7167.00  5.5886738E-01
   7167.33  5.5594509E-01
   7167.67  5.5252165E-01
   7168.00  5.4865707E-01
   7168.33  5.4437660E-01
   7168.67  5.3979719E-01
   7169.00  5.3497723E-01
   7169.33  5.2995940E-01
   7169.67  5.2482884E-01
   7170.00  5.1964045E-01
   7170.33  5.1446259E-01
   7170.67  5.0937010E-01
   7171.00  5.0444327E-01
   7171.33  4.9985098E-01
   7171.67  4.9576827E-01
   7172.00  4.9245539E-01
