    FDMNES
    energy     <xanes>
   7097.00  5.2750325E-03
   7097.33  5.3986413E-03
   7097.67  5.5278355E-03
   7098.00  5.6629915E-03
   7098.33  5.8053985E-03
   7098.67  5.9547896E-03
   7099.00  6.1116759E-03
   7099.33  6.2777403E-03
   7099.67  6.4527076E-03
   7100.00  6.6372909E-03
   7100.33  6.8337425E-03
   7100.67  7.0418032E-03
   7101.00  7.2624986E-03
   7101.33  7.4989346E-03
   7101.67  7.7509221E-03
   7102.00  8.0199895E-03
   7102.33  8.3105774E-03
   7102.67  8.6226862E-03
   7103.00  8.9586943E-03
   7103.33  9.3252360E-03
   7103.67  9.7227724E-03
   7104.00  1.0155207E-02
   7104.33  1.0633012E-02
   7104.67  1.1157753E-02
   7105.00  1.1736286E-02
   7105.33  1.2386344E-02
   7105.67  1.3112263E-02
   7106.00  1.3927187E-02
   7106.33  1.4864115E-02
   7106.67  1.5934945E-02
   7107.00  1.7168122E-02
   7107.33  1.8633744E-02
   7107.67  2.0367622E-02
   7108.00  2.2443252E-02
   7108.33  2.5042554E-02
   7108.67  2.8297355E-02
   7109.00  3.2459489E-02
   7109.33  3.8186788E-02
   7109.67  4.6182518E-02
   7110.00  5.7822371E-02
   7110.33  7.7036659E-02
   7110.67  1.0804389E-01
   7111.00  1.5224542E-01
   7111.33  1.9725240E-01
   7111.67  2.3639963E-01
   7112.00  2.7562095E-01
   7112.33  3.1011852E-01
   7112.67  3.4486810E-01
   7113.00  3.8984661E-01
   7113.33  4.2660471E-01
   7113.67  4.4249380E-01
   7114.00  4.3556479E-01
   7114.33  3.9115712E-01
   7114.67  3.3225366E-01
   7115.00  2.8132977E-01
   7115.33  2.4814528E-01
   7115.67  2.2841177E-01
   7116.00  2.1881212E-01
   7116.33  2.1631066E-01
   7116.67  2.1478562E-01
   7117.00  2.0833090E-01
   7117.33  1.9422491E-01
   7117.67  1.7887703E-01
   7118.00  1.6676407E-01
   7118.33  1.5979819E-01
   7118.67  1.5656340E-01
   7119.00  1.5593075E-01
   7119.33  1.5655184E-01
   7119.67  1.5674496E-01
   7120.00  1.5587922E-01
   7120.33  1.5447535E-01
   7120.67  1.5342932E-01
   7121.00  1.5277862E-01
   7121.33  1.5261022E-01
   7121.67  1.5411080E-01
   7122.00  1.5849019E-01
   7122.33  1.6681671E-01
   7122.67  1.7904434E-01
   7123.00  1.9564754E-01
   7123.33  2.1738695E-01
   7123.67  2.4240306E-01
   7124.00  2.6772936E-01
   7124.33  2.8800601E-01
   7124.67  3.0065860E-01
   7125.00  3.0631223E-01
   7125.33  3.0816946E-01
   7125.67  3.1069051E-01
   7126.00  3.1641744E-01
   7126.33  3.2783220E-01
   7126.67  3.4537667E-01
   7127.00  3.6953517E-01
   7127.33  4.0103374E-01
   7127.67  4.3802560E-01
   7128.00  4.7904778E-01
   7128.33  5.2252843E-01
   7128.67  5.6662617E-01
   7129.00  6.1021520E-01
   7129.33  6.5141842E-01
   7129.67  6.8814103E-01
   7130.00  7.1846826E-01
   7130.33  7.4143149E-01
   7130.67  7.6054999E-01
   7131.00  7.7864935E-01
   7131.33  7.9768093E-01
   7131.67  8.1780745E-01
   7132.00  8.3847694E-01
   7132.33  8.5845336E-01
   7132.67  8.7638371E-01
   7133.00  8.9110433E-01
   7133.33  9.0118427E-01
   7133.67  9.0678514E-01
   7134.00  9.0774949E-01
   7134.33  9.0292147E-01
   7134.67  8.9211922E-01
   7135.00  8.7495007E-01
   7135.33  8.5131203E-01
   7135.67  8.2353530E-01
   7136.00  7.9311498E-01
   7136.33  7.6117005E-01
   7136.67  7.2872453E-01
   7137.00  6.9639345E-01
   7137.33  6.6507950E-01
   7137.67  6.3560332E-01
   7138.00  6.0879974E-01
   7138.33  5.8593924E-01
   7138.67  5.6710689E-01
   7139.00  5.5244371E-01
   7139.33  5.4228261E-01
   7139.67  5.3571109E-01
   7140.00  5.3228936E-01
   7140.33  5.3184395E-01
   7140.67  5.3361331E-01
   7141.00  5.3729834E-01
   7141.33  5.4280586E-01
   7141.67  5.4963462E-01
   7142.00  5.5746836E-01
   7142.33  5.6586971E-01
   7142.67  5.7410628E-01
   7143.00  5.8149383E-01
   7143.33  5.8699249E-01
   7143.67  5.9010448E-01
   7144.00  5.9045265E-01
   7144.33  5.8760455E-01
   7144.67  5.8221265E-01
   7145.00  5.7474671E-01
   7145.33  5.6568512E-01
   7145.67  5.5584801E-01
   7146.00  5.4570954E-01
   7146.33  5.3571598E-01
   7146.67  5.2615275E-01
   7147.00  5.1719195E-01
   7147.33  5.0904824E-01
   7147.67  5.0169647E-01
   7148.00  4.9516181E-01
   7148.33  4.8955298E-01
   7148.67  4.8475826E-01
   7149.00  4.8076410E-01
   7149.33  4.7764928E-01
   7149.67  4.7529615E-01
   7150.00  4.7368615E-01
   7150.33  4.7288545E-01
   7150.67  4.7277880E-01
   7151.00  4.7334118E-01
   7151.33  4.7461648E-01
   7151.67  4.7648106E-01
   7152.00  4.7888735E-01
   7152.33  4.8182589E-01
   7152.67  4.8515254E-01
   7153.00  4.8878002E-01
   7153.33  4.9261324E-01
   7153.67  4.9649790E-01
   7154.00  5.0031580E-01
   7154.33  5.0390610E-01
   7154.67  5.0717079E-01
   7155.00  5.1002156E-01
   7155.33  5.1232150E-01
   7155.67  5.1408794E-01
   7156.00  5.1530773E-01
   7156.33  5.1592312E-01
   7156.67  5.1603119E-01
   7157.00  5.1566913E-01
   7157.33  5.1483656E-01
   7157.67  5.1364371E-01
   7158.00  5.1214424E-01
   7158.33  5.1037541E-01
   7158.67  5.0843979E-01
   7159.00  5.0640413E-01
   7159.33  5.0434859E-01
   7159.67  5.0236156E-01
   7160.00  5.0051787E-01
   7160.33  4.9893040E-01
   7160.67  4.9765216E-01
   7161.00  4.9674833E-01
   7161.33  4.9633865E-01
   7161.67  4.9641674E-01
   7162.00  4.9700861E-01
   7162.33  4.9819058E-01
   7162.67  4.9988564E-01
   7163.00  5.0206620E-01
   7163.33  5.0473079E-01
   7163.67  5.0773587E-01
   7164.00  5.1098672E-01
   7164.33  5.1439021E-01
   7164.67  5.1781466E-01
   7165.00  5.2115630E-01
   7165.33  5.2427080E-01
   7165.67  5.2707400E-01
   7166.00  5.2948176E-01
   7166.33  5.3135123E-01
   7166.67  5.3267983E-01
   7167.00  5.3343210E-01
   7167.33  5.3351238E-01
   7167.67  5.3299420E-01
   7168.00  5.3189140E-01
   7168.33  5.3016687E-01
   7168.67  5.2793605E-01
   7169.00  5.2524732E-01
   7169.33  5.2211504E-01
   7169.67  5.1865944E-01
   7170.00  5.1494732E-01
   7170.33  5.1104194E-01
   7170.67  5.0705867E-01
   7171.00  5.0309145E-01
   7171.33  4.9930335E-01
   7171.67  4.9588991E-01
   7172.00  4.9310607E-01
