    FDMNES
    energy     <xanes>
   7097.00  5.3390072E-03
   7097.33  5.4717544E-03
   7097.67  5.6108986E-03
   7098.00  5.7568958E-03
   7098.33  5.9112650E-03
   7098.67  6.0737350E-03
   7099.00  6.2449339E-03
   7099.33  6.4268740E-03
   7099.67  6.6192863E-03
   7100.00  6.8230608E-03
   7100.33  7.0409352E-03
   7100.67  7.2726801E-03
   7101.00  7.5195967E-03
   7101.33  7.7855301E-03
   7101.67  8.0703713E-03
   7102.00  8.3760958E-03
   7102.33  8.7083135E-03
   7102.67  9.0672145E-03
   7103.00  9.4559365E-03
   7103.33  9.8830529E-03
   7103.67  1.0349459E-02
   7104.00  1.0860423E-02
   7104.33  1.1429825E-02
   7104.67  1.2060242E-02
   7105.00  1.2761160E-02
   7105.33  1.3556768E-02
   7105.67  1.4453870E-02
   7106.00  1.5471174E-02
   7106.33  1.6655160E-02
   7106.67  1.8024309E-02
   7107.00  1.9620392E-02
   7107.33  2.1545721E-02
   7107.67  2.3856296E-02
   7108.00  2.6663712E-02
   7108.33  3.0243814E-02
   7108.67  3.4805935E-02
   7109.00  4.0745337E-02
   7109.33  4.9097369E-02
   7109.67  6.0997940E-02
   7110.00  7.8662657E-02
   7110.33  1.0839562E-01
   7110.67  1.5663309E-01
   7111.00  2.2456244E-01
   7111.33  2.9686410E-01
   7111.67  3.6649492E-01
   7112.00  4.3876082E-01
   7112.33  5.0505241E-01
   7112.67  5.3569078E-01
   7113.00  5.1389680E-01
   7113.33  4.4934191E-01
   7113.67  3.7739832E-01
   7114.00  3.1510646E-01
   7114.33  2.7041240E-01
   7114.67  2.3641657E-01
   7115.00  2.0588794E-01
   7115.33  1.8105009E-01
   7115.67  1.6666177E-01
   7116.00  1.6344747E-01
   7116.33  1.7094404E-01
   7116.67  1.8275718E-01
   7117.00  1.9107603E-01
   7117.33  1.8905915E-01
   7117.67  1.8098971E-01
   7118.00  1.7223992E-01
   7118.33  1.6740931E-01
   7118.67  1.6665560E-01
   7119.00  1.6809817E-01
   7119.33  1.6946341E-01
   7119.67  1.7036530E-01
   7120.00  1.7056956E-01
   7120.33  1.6843806E-01
   7120.67  1.6485435E-01
   7121.00  1.6269118E-01
   7121.33  1.6511496E-01
   7121.67  1.7269396E-01
   7122.00  1.8589747E-01
   7122.33  2.0553691E-01
   7122.67  2.2912780E-01
   7123.00  2.5256880E-01
   7123.33  2.6901063E-01
   7123.67  2.7618988E-01
   7124.00  2.7595412E-01
   7124.33  2.7336495E-01
   7124.67  2.7289664E-01
   7125.00  2.7631945E-01
   7125.33  2.8537861E-01
   7125.67  2.9916322E-01
   7126.00  3.1598833E-01
   7126.33  3.3379204E-01
   7126.67  3.5176346E-01
   7127.00  3.7052840E-01
   7127.33  3.9095637E-01
   7127.67  4.1255609E-01
   7128.00  4.3463721E-01
   7128.33  4.5649009E-01
   7128.67  4.7782683E-01
   7129.00  4.9858971E-01
   7129.33  5.1822919E-01
   7129.67  5.3563152E-01
   7130.00  5.4950407E-01
   7130.33  5.5939602E-01
   7130.67  5.6840657E-01
   7131.00  5.7946921E-01
   7131.33  5.9474565E-01
   7131.67  6.1341452E-01
   7132.00  6.3424223E-01
   7132.33  6.5534224E-01
   7132.67  6.7470531E-01
   7133.00  6.9099185E-01
   7133.33  7.0297780E-01
   7133.67  7.1131124E-01
   7134.00  7.1662692E-01
   7134.33  7.1953315E-01
   7134.67  7.2090506E-01
   7135.00  7.2079600E-01
   7135.33  7.1838525E-01
   7135.67  7.1297504E-01
   7136.00  7.0389592E-01
   7136.33  6.9065121E-01
   7136.67  6.7469450E-01
   7137.00  6.5749899E-01
   7137.33  6.4109026E-01
   7137.67  6.2704860E-01
   7138.00  6.1636359E-01
   7138.33  6.1012602E-01
   7138.67  6.0788403E-01
   7139.00  6.0925675E-01
   7139.33  6.1367521E-01
   7139.67  6.1952688E-01
   7140.00  6.2568537E-01
   7140.33  6.3115512E-01
   7140.67  6.3578541E-01
   7141.00  6.3986009E-01
   7141.33  6.4391076E-01
   7141.67  6.4835805E-01
   7142.00  6.5336058E-01
   7142.33  6.5894853E-01
   7142.67  6.6483577E-01
   7143.00  6.7073506E-01
   7143.33  6.7621135E-01
   7143.67  6.8091480E-01
   7144.00  6.8452886E-01
   7144.33  6.8656730E-01
   7144.67  6.8698033E-01
   7145.00  6.8565710E-01
   7145.33  6.8234931E-01
   7145.67  6.7735389E-01
   7146.00  6.7080761E-01
   7146.33  6.6276300E-01
   7146.67  6.5364108E-01
   7147.00  6.4366637E-01
   7147.33  6.3301016E-01
   7147.67  6.2196644E-01
   7148.00  6.1069596E-01
   7148.33  5.9934931E-01
   7148.67  5.8807420E-01
   7149.00  5.7697213E-01
   7149.33  5.6614974E-01
   7149.67  5.5562581E-01
   7150.00  5.4544196E-01
   7150.33  5.3568941E-01
   7150.67  5.2635280E-01
   7151.00  5.1745129E-01
   7151.33  5.0905489E-01
   7151.67  5.0111274E-01
   7152.00  4.9362352E-01
   7152.33  4.8663789E-01
   7152.67  4.8009520E-01
   7153.00  4.7399507E-01
   7153.33  4.6840101E-01
   7153.67  4.6327734E-01
   7154.00  4.5865540E-01
   7154.33  4.5465842E-01
   7154.67  4.5128967E-01
   7155.00  4.4862499E-01
   7155.33  4.4686297E-01
   7155.67  4.4600295E-01
   7156.00  4.4612281E-01
   7156.33  4.4742509E-01
   7156.67  4.4981866E-01
   7157.00  4.5330758E-01
   7157.33  4.5798981E-01
   7157.67  4.6365157E-01
   7158.00  4.7018656E-01
   7158.33  4.7752676E-01
   7158.67  4.8539736E-01
   7159.00  4.9362131E-01
   7159.33  5.0199121E-01
   7159.67  5.1025349E-01
   7160.00  5.1819597E-01
   7160.33  5.2549429E-01
   7160.67  5.3197125E-01
   7161.00  5.3742868E-01
   7161.33  5.4152165E-01
   7161.67  5.4427068E-01
   7162.00  5.4562708E-01
   7162.33  5.4544477E-01
   7162.67  5.4400400E-01
   7163.00  5.4145585E-01
   7163.33  5.3790835E-01
   7163.67  5.3370859E-01
   7164.00  5.2905377E-01
   7164.33  5.2411891E-01
   7164.67  5.1910389E-01
   7165.00  5.1412059E-01
   7165.33  5.0927850E-01
   7165.67  5.0462405E-01
   7166.00  5.0019600E-01
   7166.33  4.9605215E-01
   7166.67  4.9216054E-01
   7167.00  4.8851322E-01
   7167.33  4.8513016E-01
   7167.67  4.8197133E-01
   7168.00  4.7902677E-01
   7168.33  4.7630667E-01
   7168.67  4.7376931E-01
   7169.00  4.7139948E-01
   7169.33  4.6919730E-01
   7169.67  4.6712706E-01
   7170.00  4.6517687E-01
   7170.33  4.6335046E-01
   7170.67  4.6162985E-01
   7171.00  4.6001842E-01
   7171.33  4.5855014E-01
   7171.67  4.5725433E-01
   7172.00  4.5619553E-01
