    FDMNES
    energy     <xanes>
   7097.00  4.6514411E-03
   7097.33  4.7478186E-03
   7097.67  4.8480006E-03
   7098.00  4.9522146E-03
   7098.33  5.0612919E-03
   7098.67  5.1750130E-03
   7099.00  5.2936799E-03
   7099.33  5.4183478E-03
   7099.67  5.5487826E-03
   7100.00  5.6853947E-03
   7100.33  5.8295559E-03
   7100.67  5.9810264E-03
   7101.00  6.1403809E-03
   7101.33  6.3094529E-03
   7101.67  6.4880202E-03
   7102.00  6.6769155E-03
   7102.33  6.8786739E-03
   7102.67  7.0931435E-03
   7103.00  7.3215820E-03
   7103.33  7.5676448E-03
   7103.67  7.8313690E-03
   7104.00  8.1147550E-03
   7104.33  8.4233564E-03
   7104.67  8.7576806E-03
   7105.00  9.1211199E-03
   7105.33  9.5226962E-03
   7105.67  9.9640930E-03
   7106.00  1.0451559E-02
   7106.33  1.1001097E-02
   7106.67  1.1617519E-02
   7107.00  1.2313678E-02
   7107.33  1.3121580E-02
   7107.67  1.4055400E-02
   7108.00  1.5146004E-02
   7108.33  1.6469570E-02
   7108.67  1.8074312E-02
   7109.00  2.0054125E-02
   7109.33  2.2647733E-02
   7109.67  2.6075193E-02
   7110.00  3.0758946E-02
   7110.33  3.7867278E-02
   7110.67  4.8747584E-02
   7111.00  6.5196897E-02
   7111.33  8.9698298E-02
   7111.67  1.2109799E-01
   7112.00  1.5878403E-01
   7112.33  1.9903003E-01
   7112.67  2.3021923E-01
   7113.00  2.4064639E-01
   7113.33  2.3223106E-01
   7113.67  2.1376467E-01
   7114.00  1.8746995E-01
   7114.33  1.6154258E-01
   7114.67  1.3915551E-01
   7115.00  1.2372749E-01
   7115.33  1.1560551E-01
   7115.67  1.1101738E-01
   7116.00  1.0833362E-01
   7116.33  1.0760319E-01
   7116.67  1.0933718E-01
   7117.00  1.1422723E-01
   7117.33  1.2345360E-01
   7117.67  1.3701948E-01
   7118.00  1.5470957E-01
   7118.33  1.7403836E-01
   7118.67  1.8897992E-01
   7119.00  1.9698663E-01
   7119.33  2.0347659E-01
   7119.67  2.1422593E-01
   7120.00  2.2903052E-01
   7120.33  2.4587737E-01
   7120.67  2.6347925E-01
   7121.00  2.8221981E-01
   7121.33  3.0321084E-01
   7121.67  3.2602376E-01
   7122.00  3.4889586E-01
   7122.33  3.6794824E-01
   7122.67  3.8097682E-01
   7123.00  3.8845181E-01
   7123.33  3.9391177E-01
   7123.67  4.0193411E-01
   7124.00  4.1428712E-01
   7124.33  4.3072078E-01
   7124.67  4.4908295E-01
   7125.00  4.6854144E-01
   7125.33  4.8878171E-01
   7125.67  5.0830259E-01
   7126.00  5.2410763E-01
   7126.33  5.3153949E-01
   7126.67  5.3120589E-01
   7127.00  5.2602944E-01
   7127.33  5.2016511E-01
   7127.67  5.1662055E-01
   7128.00  5.1681844E-01
   7128.33  5.2201406E-01
   7128.67  5.3116811E-01
   7129.00  5.4321805E-01
   7129.33  5.5717099E-01
   7129.67  5.7195480E-01
   7130.00  5.8700921E-01
   7130.33  6.0168311E-01
   7130.67  6.1516777E-01
   7131.00  6.2643652E-01
   7131.33  6.3381068E-01
   7131.67  6.3694605E-01
   7132.00  6.3577375E-01
   7132.33  6.3039489E-01
   7132.67  6.2236993E-01
   7133.00  6.1284660E-01
   7133.33  6.0310144E-01
   7133.67  5.9421577E-01
   7134.00  5.8682386E-01
   7134.33  5.8158041E-01
   7134.67  5.7835871E-01
   7135.00  5.7706085E-01
   7135.33  5.7760899E-01
   7135.67  5.7938681E-01
   7136.00  5.8198603E-01
   7136.33  5.8499219E-01
   7136.67  5.8801636E-01
   7137.00  5.9090405E-01
   7137.33  5.9358592E-01
   7137.67  5.9608377E-01
   7138.00  5.9835917E-01
   7138.33  6.0024571E-01
   7138.67  6.0160570E-01
   7139.00  6.0230700E-01
   7139.33  6.0219430E-01
   7139.67  6.0139606E-01
   7140.00  6.0002418E-01
   7140.33  5.9823648E-01
   7140.67  5.9632859E-01
   7141.00  5.9452461E-01
   7141.33  5.9311809E-01
   7141.67  5.9228089E-01
   7142.00  5.9215527E-01
   7142.33  5.9293940E-01
   7142.67  5.9454122E-01
   7143.00  5.9689382E-01
   7143.33  5.9991145E-01
   7143.67  6.0328767E-01
   7144.00  6.0678142E-01
   7144.33  6.1006916E-01
   7144.67  6.1289229E-01
   7145.00  6.1504189E-01
   7145.33  6.1619954E-01
   7145.67  6.1631186E-01
   7146.00  6.1528156E-01
   7146.33  6.1289946E-01
   7146.67  6.0931545E-01
   7147.00  6.0457395E-01
   7147.33  5.9864044E-01
   7147.67  5.9178808E-01
   7148.00  5.8416489E-01
   7148.33  5.7588915E-01
   7148.67  5.6722991E-01
   7149.00  5.5834930E-01
   7149.33  5.4940806E-01
   7149.67  5.4054619E-01
   7150.00  5.3184503E-01
   7150.33  5.2338579E-01
   7150.67  5.1515784E-01
   7151.00  5.0715231E-01
   7151.33  4.9936580E-01
   7151.67  4.9174117E-01
   7152.00  4.8426217E-01
   7152.33  4.7694876E-01
   7152.67  4.6980524E-01
   7153.00  4.6286751E-01
   7153.33  4.5622094E-01
   7153.67  4.4988590E-01
   7154.00  4.4390244E-01
   7154.33  4.3836041E-01
   7154.67  4.3324366E-01
   7155.00  4.2857203E-01
   7155.33  4.2441439E-01
   7155.67  4.2071557E-01
   7156.00  4.1747146E-01
   7156.33  4.1472661E-01
   7156.67  4.1241025E-01
   7157.00  4.1050848E-01
   7157.33  4.0905666E-01
   7157.67  4.0799379E-01
   7158.00  4.0731473E-01
   7158.33  4.0706767E-01
   7158.67  4.0720997E-01
   7159.00  4.0774666E-01
   7159.33  4.0872835E-01
   7159.67  4.1009953E-01
   7160.00  4.1184837E-01
   7160.33  4.1399723E-01
   7160.67  4.1647009E-01
   7161.00  4.1923232E-01
   7161.33  4.2226616E-01
   7161.67  4.2548658E-01
   7162.00  4.2884126E-01
   7162.33  4.3227166E-01
   7162.67  4.3570589E-01
   7163.00  4.3909872E-01
   7163.33  4.4240040E-01
   7163.67  4.4559760E-01
   7164.00  4.4868286E-01
   7164.33  4.5164646E-01
   7164.67  4.5451541E-01
   7165.00  4.5730567E-01
   7165.33  4.6002985E-01
   7165.67  4.6271396E-01
   7166.00  4.6537252E-01
   7166.33  4.6801800E-01
   7166.67  4.7065953E-01
   7167.00  4.7329921E-01
   7167.33  4.7593513E-01
   7167.67  4.7856205E-01
   7168.00  4.8117218E-01
   7168.33  4.8375086E-01
   7168.67  4.8628901E-01
   7169.00  4.8877499E-01
   7169.33  4.9118653E-01
   7169.67  4.9351773E-01
   7170.00  4.9575647E-01
   7170.33  4.9787574E-01
   7170.67  4.9987456E-01
   7171.00  5.0173754E-01
   7171.33  5.0341556E-01
   7171.67  5.0487736E-01
   7172.00  5.0605680E-01
