    FDMNES
    energy     <xanes>
   7097.00  4.8038603E-03
   7097.33  4.9070330E-03
   7097.67  5.0144141E-03
   7098.00  5.1262658E-03
   7098.33  5.2435247E-03
   7098.67  5.3659627E-03
   7099.00  5.4939326E-03
   7099.33  5.6286393E-03
   7099.67  5.7698456E-03
   7100.00  5.9180405E-03
   7100.33  6.0748165E-03
   7100.67  6.2399450E-03
   7101.00  6.4141275E-03
   7101.33  6.5995403E-03
   7101.67  6.7960044E-03
   7102.00  7.0045687E-03
   7102.33  7.2283330E-03
   7102.67  7.4672613E-03
   7103.00  7.7230051E-03
   7103.33  8.0002137E-03
   7103.67  8.2992149E-03
   7104.00  8.6227797E-03
   7104.33  8.9783590E-03
   7104.67  9.3671934E-03
   7105.00  9.7943248E-03
   7105.33  1.0272765E-02
   7105.67  1.0806162E-02
   7106.00  1.1404707E-02
   7106.33  1.2093889E-02
   7106.67  1.2884350E-02
   7107.00  1.3799854E-02
   7107.33  1.4898901E-02
   7107.67  1.6216022E-02
   7108.00  1.7818981E-02
   7108.33  1.9876836E-02
   7108.67  2.2528951E-02
   7109.00  2.6037274E-02
   7109.33  3.1099579E-02
   7109.67  3.8537114E-02
   7110.00  4.9967293E-02
   7110.33  7.0155412E-02
   7110.67  1.0497936E-01
   7111.00  1.5819586E-01
   7111.33  2.0853932E-01
   7111.67  2.1394841E-01
   7112.00  1.7582551E-01
   7112.33  1.4420657E-01
   7112.67  1.3195703E-01
   7113.00  1.2807747E-01
   7113.33  1.2351905E-01
   7113.67  1.1597246E-01
   7114.00  1.0503324E-01
   7114.33  9.5179537E-02
   7114.67  8.8471580E-02
   7115.00  8.4615375E-02
   7115.33  8.3438578E-02
   7115.67  8.4503494E-02
   7116.00  8.7882596E-02
   7116.33  9.4173480E-02
   7116.67  1.0355809E-01
   7117.00  1.1655536E-01
   7117.33  1.3374870E-01
   7117.67  1.5308473E-01
   7118.00  1.7175397E-01
   7118.33  1.8799608E-01
   7118.67  2.0501624E-01
   7119.00  2.2548923E-01
   7119.33  2.4905307E-01
   7119.67  2.7188881E-01
   7120.00  2.9140180E-01
   7120.33  3.0692899E-01
   7120.67  3.2148381E-01
   7121.00  3.3802808E-01
   7121.33  3.5973382E-01
   7121.67  3.8651642E-01
   7122.00  4.1690381E-01
   7122.33  4.4838358E-01
   7122.67  4.7937734E-01
   7123.00  5.1015622E-01
   7123.33  5.4090862E-01
   7123.67  5.7042770E-01
   7124.00  5.9775027E-01
   7124.33  6.2285280E-01
   7124.67  6.4599943E-01
   7125.00  6.6550177E-01
   7125.33  6.7791966E-01
   7125.67  6.8409891E-01
   7126.00  6.8570357E-01
   7126.33  6.8150965E-01
   7126.67  6.7053211E-01
   7127.00  6.5368739E-01
   7127.33  6.3441461E-01
   7127.67  6.1758042E-01
   7128.00  6.0622675E-01
   7128.33  6.0290620E-01
   7128.67  6.0605885E-01
   7129.00  6.1346791E-01
   7129.33  6.2209609E-01
   7129.67  6.2948839E-01
   7130.00  6.3479346E-01
   7130.33  6.3775695E-01
   7130.67  6.3908469E-01
   7131.00  6.3910769E-01
   7131.33  6.3779673E-01
   7131.67  6.3524917E-01
   7132.00  6.3155260E-01
   7132.33  6.2703189E-01
   7132.67  6.2238107E-01
   7133.00  6.1812603E-01
   7133.33  6.1498086E-01
   7133.67  6.1336993E-01
   7134.00  6.1360904E-01
   7134.33  6.1590042E-01
   7134.67  6.1950638E-01
   7135.00  6.2370030E-01
   7135.33  6.2742326E-01
   7135.67  6.2974394E-01
   7136.00  6.3001285E-01
   7136.33  6.2759060E-01
   7136.67  6.2293791E-01
   7137.00  6.1650256E-01
   7137.33  6.0881311E-01
   7137.67  6.0060333E-01
   7138.00  5.9223066E-01
   7138.33  5.8393932E-01
   7138.67  5.7580499E-01
   7139.00  5.6783086E-01
   7139.33  5.6000963E-01
   7139.67  5.5229787E-01
   7140.00  5.4466271E-01
   7140.33  5.3703200E-01
   7140.67  5.2930608E-01
   7141.00  5.2141384E-01
   7141.33  5.1331363E-01
   7141.67  5.0510865E-01
   7142.00  4.9694609E-01
   7142.33  4.8909442E-01
   7142.67  4.8177483E-01
   7143.00  4.7519014E-01
   7143.33  4.6964818E-01
   7143.67  4.6514704E-01
   7144.00  4.6170557E-01
   7144.33  4.5939030E-01
   7144.67  4.5794860E-01
   7145.00  4.5722868E-01
   7145.33  4.5708064E-01
   7145.67  4.5720938E-01
   7146.00  4.5743040E-01
   7146.33  4.5754473E-01
   7146.67  4.5739223E-01
   7147.00  4.5683886E-01
   7147.33  4.5569255E-01
   7147.67  4.5393977E-01
   7148.00  4.5155689E-01
   7148.33  4.4849190E-01
   7148.67  4.4489004E-01
   7149.00  4.4083512E-01
   7149.33  4.3639306E-01
   7149.67  4.3171313E-01
   7150.00  4.2687728E-01
   7150.33  4.2195829E-01
   7150.67  4.1703519E-01
   7151.00  4.1216210E-01
   7151.33  4.0741098E-01
   7151.67  4.0282649E-01
   7152.00  3.9846199E-01
   7152.33  3.9441305E-01
   7152.67  3.9069878E-01
   7153.00  3.8735763E-01
   7153.33  3.8447054E-01
   7153.67  3.8200015E-01
   7154.00  3.7994606E-01
   7154.33  3.7834347E-01
   7154.67  3.7711747E-01
   7155.00  3.7625035E-01
   7155.33  3.7576027E-01
   7155.67  3.7557065E-01
   7156.00  3.7564084E-01
   7156.33  3.7593423E-01
   7156.67  3.7635149E-01
   7157.00  3.7682319E-01
   7157.33  3.7726719E-01
   7157.67  3.7761816E-01
   7158.00  3.7783228E-01
   7158.33  3.7786039E-01
   7158.67  3.7772040E-01
   7159.00  3.7742958E-01
   7159.33  3.7701516E-01
   7159.67  3.7655175E-01
   7160.00  3.7610433E-01
   7160.33  3.7577061E-01
   7160.67  3.7562575E-01
   7161.00  3.7574172E-01
   7161.33  3.7623831E-01
   7161.67  3.7713985E-01
   7162.00  3.7849086E-01
   7162.33  3.8038831E-01
   7162.67  3.8279172E-01
   7163.00  3.8570504E-01
   7163.33  3.8917885E-01
   7163.67  3.9312178E-01
   7164.00  3.9749675E-01
   7164.33  4.0229727E-01
   7164.67  4.0741285E-01
   7165.00  4.1278377E-01
   7165.33  4.1836235E-01
   7165.67  4.2405783E-01
   7166.00  4.2981624E-01
   7166.33  4.3558124E-01
   7166.67  4.4130128E-01
   7167.00  4.4693706E-01
   7167.33  4.5243156E-01
   7167.67  4.5776298E-01
   7168.00  4.6290105E-01
   7168.33  4.6778362E-01
   7168.67  4.7240618E-01
   7169.00  4.7674154E-01
   7169.33  4.8072100E-01
   7169.67  4.8435882E-01
   7170.00  4.8763786E-01
   7170.33  4.9049914E-01
   7170.67  4.9298518E-01
   7171.00  4.9510019E-01
   7171.33  4.9681303E-01
   7171.67  4.9818834E-01
   7172.00  4.9924759E-01
