    FDMNES
    energy     <xanes>
   7097.00  5.3525898E-03
   7097.33  5.4881679E-03
   7097.67  5.6303193E-03
   7098.00  5.7795169E-03
   7098.33  5.9373301E-03
   7098.67  6.1034877E-03
   7099.00  6.2786454E-03
   7099.33  6.4648921E-03
   7099.67  6.6619656E-03
   7100.00  6.8708021E-03
   7100.33  7.0942626E-03
   7100.67  7.3321383E-03
   7101.00  7.5858124E-03
   7101.33  7.8593394E-03
   7101.67  8.1526615E-03
   7102.00  8.4679063E-03
   7102.33  8.8110605E-03
   7102.67  9.1824343E-03
   7103.00  9.5854628E-03
   7103.33  1.0029441E-02
   7103.67  1.0515547E-02
   7104.00  1.1049666E-02
   7104.33  1.1647162E-02
   7104.67  1.2311298E-02
   7105.00  1.3052949E-02
   7105.33  1.3899603E-02
   7105.67  1.4859866E-02
   7106.00  1.5955870E-02
   7106.33  1.7242232E-02
   7106.67  1.8742687E-02
   7107.00  2.0508571E-02
   7107.33  2.2665239E-02
   7107.67  2.5286534E-02
   7108.00  2.8515958E-02
   7108.33  3.2708902E-02
   7108.67  3.8150984E-02
   7109.00  4.5376419E-02
   7109.33  5.5793549E-02
   7109.67  7.1006000E-02
   7110.00  9.4144971E-02
   7110.33  1.3425357E-01
   7110.67  2.0153152E-01
   7111.00  3.0070408E-01
   7111.33  4.0769644E-01
   7111.67  4.9753245E-01
   7112.00  5.4122573E-01
   7112.33  5.0882862E-01
   7112.67  4.4630781E-01
   7113.00  3.6289821E-01
   7113.33  2.7829856E-01
   7113.67  2.1272191E-01
   7114.00  1.6673747E-01
   7114.33  1.3664782E-01
   7114.67  1.1629402E-01
   7115.00  1.0266898E-01
   7115.33  9.3382843E-02
   7115.67  8.6976963E-02
   7116.00  8.3299250E-02
   7116.33  8.2310778E-02
   7116.67  8.3409109E-02
   7117.00  8.6456459E-02
   7117.33  9.1620876E-02
   7117.67  9.8647128E-02
   7118.00  1.0765574E-01
   7118.33  1.1933984E-01
   7118.67  1.3375824E-01
   7119.00  1.5074895E-01
   7119.33  1.6972176E-01
   7119.67  1.8972430E-01
   7120.00  2.1021193E-01
   7120.33  2.2877785E-01
   7120.67  2.4438269E-01
   7121.00  2.6045221E-01
   7121.33  2.8332782E-01
   7121.67  3.1499694E-01
   7122.00  3.5571275E-01
   7122.33  4.0520612E-01
   7122.67  4.5930041E-01
   7123.00  5.1323211E-01
   7123.33  5.5843148E-01
   7123.67  5.8898210E-01
   7124.00  6.0344446E-01
   7124.33  6.0550739E-01
   7124.67  6.0437513E-01
   7125.00  6.0539391E-01
   7125.33  6.1301124E-01
   7125.67  6.2793810E-01
   7126.00  6.4962486E-01
   7126.33  6.7566461E-01
   7126.67  7.0087056E-01
   7127.00  7.2104979E-01
   7127.33  7.3175681E-01
   7127.67  7.3271814E-01
   7128.00  7.2371794E-01
   7128.33  7.0341240E-01
   7128.67  6.7361833E-01
   7129.00  6.3650846E-01
   7129.33  5.9654061E-01
   7129.67  5.5933863E-01
   7130.00  5.2823759E-01
   7130.33  5.0602638E-01
   7130.67  4.9164182E-01
   7131.00  4.8404602E-01
   7131.33  4.8227867E-01
   7131.67  4.8434771E-01
   7132.00  4.8961271E-01
   7132.33  4.9823738E-01
   7132.67  5.0977869E-01
   7133.00  5.2377688E-01
   7133.33  5.3890148E-01
   7133.67  5.5297008E-01
   7134.00  5.6471888E-01
   7134.33  5.7372599E-01
   7134.67  5.8103312E-01
   7135.00  5.8717714E-01
   7135.33  5.9225940E-01
   7135.67  5.9640717E-01
   7136.00  5.9968000E-01
   7136.33  6.0224060E-01
   7136.67  6.0453783E-01
   7137.00  6.0686616E-01
   7137.33  6.0943512E-01
   7137.67  6.1220691E-01
   7138.00  6.1501314E-01
   7138.33  6.1745727E-01
   7138.67  6.1912632E-01
   7139.00  6.1963410E-01
   7139.33  6.1846443E-01
   7139.67  6.1570958E-01
   7140.00  6.1151026E-01
   7140.33  6.0610038E-01
   7140.67  6.0009461E-01
   7141.00  5.9391963E-01
   7141.33  5.8804736E-01
   7141.67  5.8276124E-01
   7142.00  5.7821658E-01
   7142.33  5.7456019E-01
   7142.67  5.7161798E-01
   7143.00  5.6924746E-01
   7143.33  5.6726106E-01
   7143.67  5.6534431E-01
   7144.00  5.6325267E-01
   7144.33  5.6066238E-01
   7144.67  5.5740945E-01
   7145.00  5.5336322E-01
   7145.33  5.4834117E-01
   7145.67  5.4246216E-01
   7146.00  5.3579558E-01
   7146.33  5.2839583E-01
   7146.67  5.2052064E-01
   7147.00  5.1233658E-01
   7147.33  5.0401823E-01
   7147.67  4.9574585E-01
   7148.00  4.8763272E-01
   7148.33  4.7980697E-01
   7148.67  4.7229922E-01
   7149.00  4.6514269E-01
   7149.33  4.5840716E-01
   7149.67  4.5205983E-01
   7150.00  4.4610840E-01
   7150.33  4.4061103E-01
   7150.67  4.3552945E-01
   7151.00  4.3088026E-01
   7151.33  4.2675022E-01
   7151.67  4.2312328E-01
   7152.00  4.2004408E-01
   7152.33  4.1764407E-01
   7152.67  4.1589714E-01
   7153.00  4.1482929E-01
   7153.33  4.1452024E-01
   7153.67  4.1482698E-01
   7154.00  4.1564768E-01
   7154.33  4.1684638E-01
   7154.67  4.1814630E-01
   7155.00  4.1930939E-01
   7155.33  4.1997509E-01
   7155.67  4.1988419E-01
   7156.00  4.1878004E-01
   7156.33  4.1625050E-01
   7156.67  4.1228281E-01
   7157.00  4.0681815E-01
   7157.33  3.9972081E-01
   7157.67  3.9133364E-01
   7158.00  3.8186963E-01
   7158.33  3.7153598E-01
   7158.67  3.6075941E-01
   7159.00  3.4982213E-01
   7159.33  3.3904920E-01
   7159.67  3.2869112E-01
   7160.00  3.1894292E-01
   7160.33  3.1008728E-01
   7160.67  3.0216272E-01
   7161.00  2.9525209E-01
   7161.33  2.8954728E-01
   7161.67  2.8493643E-01
   7162.00  2.8141432E-01
   7162.33  2.7908364E-01
   7162.67  2.7776569E-01
   7163.00  2.7741341E-01
   7163.33  2.7807833E-01
   7163.67  2.7958326E-01
   7164.00  2.8187543E-01
   7164.33  2.8498866E-01
   7164.67  2.8877809E-01
   7165.00  2.9320025E-01
   7165.33  2.9827915E-01
   7165.67  3.0389202E-01
   7166.00  3.0999372E-01
   7166.33  3.1658227E-01
   7166.67  3.2354338E-01
   7167.00  3.3082193E-01
   7167.33  3.3838158E-01
   7167.67  3.4612097E-01
   7168.00  3.5397932E-01
   7168.33  3.6189302E-01
   7168.67  3.6978848E-01
   7169.00  3.7760928E-01
   7169.33  3.8527431E-01
   7169.67  3.9273942E-01
   7170.00  3.9995370E-01
   7170.33  4.0682003E-01
   7170.67  4.1331532E-01
   7171.00  4.1937650E-01
   7171.33  4.2483119E-01
   7171.67  4.2956997E-01
   7172.00  4.3337147E-01
