    FDMNES
    energy     <xanes>
   7097.00  5.1755657E-03
   7097.33  5.2973334E-03
   7097.67  5.4246730E-03
   7098.00  5.5579719E-03
   7098.33  5.6985386E-03
   7098.67  5.8461264E-03
   7099.00  6.0012705E-03
   7099.33  6.1657014E-03
   7099.67  6.3391775E-03
   7100.00  6.5224612E-03
   7100.33  6.7179095E-03
   7100.67  6.9253227E-03
   7101.00  7.1458254E-03
   7101.33  7.3827447E-03
   7101.67  7.6360036E-03
   7102.00  7.9073330E-03
   7102.33  8.2016354E-03
   7102.67  8.5191391E-03
   7103.00  8.8626481E-03
   7103.33  9.2397788E-03
   7103.67  9.6514902E-03
   7104.00  1.0102620E-02
   7104.33  1.0605813E-02
   7104.67  1.1163815E-02
   7105.00  1.1785666E-02
   7105.33  1.2494215E-02
   7105.67  1.3296873E-02
   7106.00  1.4212366E-02
   7106.33  1.5286901E-02
   7106.67  1.6541436E-02
   7107.00  1.8020587E-02
   7107.33  1.9833467E-02
   7107.67  2.2047526E-02
   7108.00  2.4792538E-02
   7108.33  2.8391871E-02
   7108.67  3.3119278E-02
   7109.00  3.9486834E-02
   7109.33  4.8863661E-02
   7109.67  6.2891354E-02
   7110.00  8.4805574E-02
   7110.33  1.2405692E-01
   7110.67  1.9109386E-01
   7111.00  2.8812595E-01
   7111.33  3.7022584E-01
   7111.67  3.7987600E-01
   7112.00  3.3495850E-01
   7112.33  2.8242817E-01
   7112.67  2.4719369E-01
   7113.00  2.2636904E-01
   7113.33  2.0219841E-01
   7113.67  1.7180391E-01
   7114.00  1.4218456E-01
   7114.33  1.1941038E-01
   7114.67  1.0293771E-01
   7115.00  9.1791828E-02
   7115.33  8.5335051E-02
   7115.67  8.1965739E-02
   7116.00  8.1006118E-02
   7116.33  8.2190671E-02
   7116.67  8.4957279E-02
   7117.00  8.9124224E-02
   7117.33  9.4897006E-02
   7117.67  1.0248067E-01
   7118.00  1.1235269E-01
   7118.33  1.2520606E-01
   7118.67  1.4042213E-01
   7119.00  1.5718645E-01
   7119.33  1.7473836E-01
   7119.67  1.9287279E-01
   7120.00  2.1134279E-01
   7120.33  2.2893694E-01
   7120.67  2.4642499E-01
   7121.00  2.6690797E-01
   7121.33  2.9447570E-01
   7121.67  3.2925648E-01
   7122.00  3.7057569E-01
   7122.33  4.1691492E-01
   7122.67  4.6401350E-01
   7123.00  5.0732446E-01
   7123.33  5.3998442E-01
   7123.67  5.6023988E-01
   7124.00  5.6971123E-01
   7124.33  5.7267595E-01
   7124.67  5.7453940E-01
   7125.00  5.7775111E-01
   7125.33  5.8402990E-01
   7125.67  5.9336105E-01
   7126.00  6.0549605E-01
   7126.33  6.2004506E-01
   7126.67  6.3554002E-01
   7127.00  6.5023234E-01
   7127.33  6.6046217E-01
   7127.67  6.6284753E-01
   7128.00  6.5552415E-01
   7128.33  6.4016863E-01
   7128.67  6.2389184E-01
   7129.00  6.1124541E-01
   7129.33  6.0513530E-01
   7129.67  6.0464039E-01
   7130.00  6.0892265E-01
   7130.33  6.1746869E-01
   7130.67  6.2901444E-01
   7131.00  6.4303539E-01
   7131.33  6.5925899E-01
   7131.67  6.7690302E-01
   7132.00  6.9527319E-01
   7132.33  7.1279811E-01
   7132.67  7.2716481E-01
   7133.00  7.3597377E-01
   7133.33  7.3640320E-01
   7133.67  7.2940038E-01
   7134.00  7.1629937E-01
   7134.33  6.9885123E-01
   7134.67  6.7981402E-01
   7135.00  6.6087077E-01
   7135.33  6.4371791E-01
   7135.67  6.2913395E-01
   7136.00  6.1758606E-01
   7136.33  6.0967880E-01
   7136.67  6.0494000E-01
   7137.00  6.0315957E-01
   7137.33  6.0427491E-01
   7137.67  6.0745759E-01
   7138.00  6.1220027E-01
   7138.33  6.1798083E-01
   7138.67  6.2404507E-01
   7139.00  6.2988378E-01
   7139.33  6.3490775E-01
   7139.67  6.3885527E-01
   7140.00  6.4153217E-01
   7140.33  6.4263804E-01
   7140.67  6.4232215E-01
   7141.00  6.4062545E-01
   7141.33  6.3748108E-01
   7141.67  6.3316873E-01
   7142.00  6.2779448E-01
   7142.33  6.2135638E-01
   7142.67  6.1407650E-01
   7143.00  6.0603661E-01
   7143.33  5.9724712E-01
   7143.67  5.8789022E-01
   7144.00  5.7805697E-01
   7144.33  5.6781282E-01
   7144.67  5.5731669E-01
   7145.00  5.4666489E-01
   7145.33  5.3595947E-01
   7145.67  5.2530868E-01
   7146.00  5.1479466E-01
   7146.33  5.0453195E-01
   7146.67  4.9456787E-01
   7147.00  4.8495670E-01
   7147.33  4.7579849E-01
   7147.67  4.6707856E-01
   7148.00  4.5881750E-01
   7148.33  4.5108902E-01
   7148.67  4.4384178E-01
   7149.00  4.3707951E-01
   7149.33  4.3086632E-01
   7149.67  4.2514231E-01
   7150.00  4.1990522E-01
   7150.33  4.1520916E-01
   7150.67  4.1098170E-01
   7151.00  4.0720413E-01
   7151.33  4.0389408E-01
   7151.67  4.0095008E-01
   7152.00  3.9831680E-01
   7152.33  3.9594308E-01
   7152.67  3.9370403E-01
   7153.00  3.9150571E-01
   7153.33  3.8921859E-01
   7153.67  3.8672853E-01
   7154.00  3.8393216E-01
   7154.33  3.8066970E-01
   7154.67  3.7691036E-01
   7155.00  3.7261212E-01
   7155.33  3.6769806E-01
   7155.67  3.6227482E-01
   7156.00  3.5641147E-01
   7156.33  3.5018323E-01
   7156.67  3.4377346E-01
   7157.00  3.3731577E-01
   7157.33  3.3098028E-01
   7157.67  3.2490172E-01
   7158.00  3.1919409E-01
   7158.33  3.1403044E-01
   7158.67  3.0944068E-01
   7159.00  3.0548489E-01
   7159.33  3.0230128E-01
   7159.67  2.9984218E-01
   7160.00  2.9813087E-01
   7160.33  2.9727976E-01
   7160.67  2.9719979E-01
   7161.00  2.9788894E-01
   7161.33  2.9942760E-01
   7161.67  3.0169448E-01
   7162.00  3.0466298E-01
   7162.33  3.0838199E-01
   7162.67  3.1272661E-01
   7163.00  3.1765749E-01
   7163.33  3.2319383E-01
   7163.67  3.2921792E-01
   7164.00  3.3568583E-01
   7164.33  3.4259672E-01
   7164.67  3.4985249E-01
   7165.00  3.5741092E-01
   7165.33  3.6525405E-01
   7165.67  3.7329999E-01
   7166.00  3.8150415E-01
   7166.33  3.8982522E-01
   7166.67  3.9819230E-01
   7167.00  4.0655243E-01
   7167.33  4.1483063E-01
   7167.67  4.2296637E-01
   7168.00  4.3089974E-01
   7168.33  4.3852899E-01
   7168.67  4.4582396E-01
   7169.00  4.5273519E-01
   7169.33  4.5916041E-01
   7169.67  4.6511661E-01
   7170.00  4.7058103E-01
   7170.33  4.7547418E-01
   7170.67  4.7985269E-01
   7171.00  4.8371438E-01
   7171.33  4.8698833E-01
   7171.67  4.8971749E-01
   7172.00  4.9186536E-01
