    FDMNES
    energy     <xanes>
   7097.00  5.3388512E-03
   7097.33  5.4714774E-03
   7097.67  5.6104064E-03
   7098.00  5.7560846E-03
   7098.33  5.9100052E-03
   7098.67  6.0718988E-03
   7099.00  6.2423829E-03
   7099.33  6.4234381E-03
   7099.67  6.6148016E-03
   7100.00  6.8173532E-03
   7100.33  7.0337969E-03
   7100.67  7.2639183E-03
   7101.00  7.5090150E-03
   7101.33  7.7729094E-03
   7101.67  8.0555274E-03
   7102.00  8.3588640E-03
   7102.33  8.6885544E-03
   7102.67  9.0448713E-03
   7103.00  9.4310400E-03
   7103.33  9.8558088E-03
   7103.67  1.0320278E-02
   7104.00  1.0829994E-02
   7104.33  1.1399451E-02
   7104.67  1.2031762E-02
   7105.00  1.2737249E-02
   7105.33  1.3542002E-02
   7105.67  1.4454374E-02
   7106.00  1.5495619E-02
   7106.33  1.6718201E-02
   7106.67  1.8145603E-02
   7107.00  1.9828086E-02
   7107.33  2.1888557E-02
   7107.67  2.4402021E-02
   7108.00  2.7513231E-02
   7108.33  3.1582375E-02
   7108.67  3.6910492E-02
   7109.00  4.4060580E-02
   7109.33  5.4532104E-02
   7109.67  7.0098919E-02
   7110.00  9.4251049E-02
   7110.33  1.3724065E-01
   7110.67  2.1139904E-01
   7111.00  3.2374555E-01
   7111.33  4.2786025E-01
   7111.67  4.3890005E-01
   7112.00  3.7018913E-01
   7112.33  3.0821566E-01
   7112.67  2.8057677E-01
   7113.00  2.7164905E-01
   7113.33  2.6335589E-01
   7113.67  2.4862069E-01
   7114.00  2.2059954E-01
   7114.33  1.8027019E-01
   7114.67  1.4511449E-01
   7115.00  1.2141200E-01
   7115.33  1.0887859E-01
   7115.67  1.0331194E-01
   7116.00  1.0297553E-01
   7116.33  1.0695795E-01
   7116.67  1.1371023E-01
   7117.00  1.2267192E-01
   7117.33  1.3418463E-01
   7117.67  1.4858398E-01
   7118.00  1.6630194E-01
   7118.33  1.8758900E-01
   7118.67  2.1077302E-01
   7119.00  2.3368568E-01
   7119.33  2.5265366E-01
   7119.67  2.6600026E-01
   7120.00  2.7451396E-01
   7120.33  2.8159364E-01
   7120.67  2.9145722E-01
   7121.00  3.0680668E-01
   7121.33  3.3056428E-01
   7121.67  3.6250268E-01
   7122.00  4.0192799E-01
   7122.33  4.4628897E-01
   7122.67  4.8905861E-01
   7123.00  5.2391428E-01
   7123.33  5.4389681E-01
   7123.67  5.5062316E-01
   7124.00  5.4804456E-01
   7124.33  5.4196174E-01
   7124.67  5.3815473E-01
   7125.00  5.3998176E-01
   7125.33  5.5093735E-01
   7125.67  5.7100235E-01
   7126.00  5.9970742E-01
   7126.33  6.3501026E-01
   7126.67  6.7069731E-01
   7127.00  7.0120210E-01
   7127.33  7.2043264E-01
   7127.67  7.2749219E-01
   7128.00  7.2200290E-01
   7128.33  7.0338096E-01
   7128.67  6.7602047E-01
   7129.00  6.4395160E-01
   7129.33  6.1210913E-01
   7129.67  5.8421040E-01
   7130.00  5.6208944E-01
   7130.33  5.4709127E-01
   7130.67  5.3768808E-01
   7131.00  5.3273393E-01
   7131.33  5.3131565E-01
   7131.67  5.3217034E-01
   7132.00  5.3496547E-01
   7132.33  5.3977152E-01
   7132.67  5.4592032E-01
   7133.00  5.5236561E-01
   7133.33  5.5708964E-01
   7133.67  5.5892147E-01
   7134.00  5.5782499E-01
   7134.33  5.5459861E-01
   7134.67  5.5074952E-01
   7135.00  5.4706864E-01
   7135.33  5.4414785E-01
   7135.67  5.4211085E-01
   7136.00  5.4101117E-01
   7136.33  5.4097122E-01
   7136.67  5.4186245E-01
   7137.00  5.4369543E-01
   7137.33  5.4662923E-01
   7137.67  5.5056434E-01
   7138.00  5.5548204E-01
   7138.33  5.6140790E-01
   7138.67  5.6806521E-01
   7139.00  5.7525231E-01
   7139.33  5.8270634E-01
   7139.67  5.9006272E-01
   7140.00  5.9702032E-01
   7140.33  6.0315925E-01
   7140.67  6.0830632E-01
   7141.00  6.1229202E-01
   7141.33  6.1481645E-01
   7141.67  6.1596430E-01
   7142.00  6.1570928E-01
   7142.33  6.1388329E-01
   7142.67  6.1070196E-01
   7143.00  6.0622631E-01
   7143.33  6.0040868E-01
   7143.67  5.9353455E-01
   7144.00  5.8574970E-01
   7144.33  5.7716439E-01
   7144.67  5.6808763E-01
   7145.00  5.5871193E-01
   7145.33  5.4923680E-01
   7145.67  5.3985335E-01
   7146.00  5.3068362E-01
   7146.33  5.2186770E-01
   7146.67  5.1342554E-01
   7147.00  5.0538044E-01
   7147.33  4.9778388E-01
   7147.67  4.9056745E-01
   7148.00  4.8370452E-01
   7148.33  4.7719478E-01
   7148.67  4.7095396E-01
   7149.00  4.6494148E-01
   7149.33  4.5913189E-01
   7149.67  4.5345655E-01
   7150.00  4.4788021E-01
   7150.33  4.4237741E-01
   7150.67  4.3691840E-01
   7151.00  4.3149788E-01
   7151.33  4.2613444E-01
   7151.67  4.2085655E-01
   7152.00  4.1571300E-01
   7152.33  4.1080603E-01
   7152.67  4.0619784E-01
   7153.00  4.0196431E-01
   7153.33  3.9823717E-01
   7153.67  3.9500735E-01
   7154.00  3.9228061E-01
   7154.33  3.9006976E-01
   7154.67  3.8821393E-01
   7155.00  3.8658070E-01
   7155.33  3.8498451E-01
   7155.67  3.8322082E-01
   7156.00  3.8113534E-01
   7156.33  3.7854125E-01
   7156.67  3.7543634E-01
   7157.00  3.7183089E-01
   7157.33  3.6774381E-01
   7157.67  3.6334580E-01
   7158.00  3.5875618E-01
   7158.33  3.5411229E-01
   7158.67  3.4955421E-01
   7159.00  3.4518293E-01
   7159.33  3.4113346E-01
   7159.67  3.3744918E-01
   7160.00  3.3418166E-01
   7160.33  3.3143168E-01
   7160.67  3.2917056E-01
   7161.00  3.2741306E-01
   7161.33  3.2622871E-01
   7161.67  3.2554851E-01
   7162.00  3.2536098E-01
   7162.33  3.2570765E-01
   7162.67  3.2651306E-01
   7163.00  3.2776489E-01
   7163.33  3.2950300E-01
   7163.67  3.3166065E-01
   7164.00  3.3422923E-01
   7164.33  3.3725132E-01
   7164.67  3.4066959E-01
   7165.00  3.4447760E-01
   7165.33  3.4871276E-01
   7165.67  3.5331205E-01
   7166.00  3.5825592E-01
   7166.33  3.6355262E-01
   7166.67  3.6912221E-01
   7167.00  3.7492128E-01
   7167.33  3.8091109E-01
   7167.67  3.8700525E-01
   7168.00  3.9314597E-01
   7168.33  3.9926291E-01
   7168.67  4.0529334E-01
   7169.00  4.1118518E-01
   7169.33  4.1686000E-01
   7169.67  4.2229511E-01
   7170.00  4.2745647E-01
   7170.33  4.3227172E-01
   7170.67  4.3674791E-01
   7171.00  4.4085498E-01
   7171.33  4.4448974E-01
   7171.67  4.4761350E-01
   7172.00  4.5010769E-01
