    FDMNES
    energy     <xanes>
   7097.00  5.3579972E-03
   7097.33  5.4934893E-03
   7097.67  5.6355148E-03
   7098.00  5.7845367E-03
   7098.33  5.9421016E-03
   7098.67  6.1079280E-03
   7099.00  6.2826523E-03
   7099.33  6.4683185E-03
   7099.67  6.6646455E-03
   7100.00  6.8725318E-03
   7100.33  7.0947514E-03
   7100.67  7.3310588E-03
   7101.00  7.5827637E-03
   7101.33  7.8537496E-03
   7101.67  8.1438860E-03
   7102.00  8.4551537E-03
   7102.33  8.7931981E-03
   7102.67  9.1581779E-03
   7103.00  9.5532270E-03
   7103.33  9.9869381E-03
   7103.67  1.0460157E-02
   7104.00  1.0978127E-02
   7104.33  1.1554701E-02
   7104.67  1.2192374E-02
   7105.00  1.2900558E-02
   7105.33  1.3703316E-02
   7105.67  1.4607316E-02
   7106.00  1.5631113E-02
   7106.33  1.6820901E-02
   7106.67  1.8195020E-02
   7107.00  1.9795100E-02
   7107.33  2.1723350E-02
   7107.67  2.4036434E-02
   7108.00  2.6847373E-02
   7108.33  3.0436938E-02
   7108.67  3.5024406E-02
   7109.00  4.1025376E-02
   7109.33  4.9541736E-02
   7109.67  6.1834357E-02
   7110.00  8.0386395E-02
   7110.33  1.1231793E-01
   7110.67  1.6449326E-01
   7111.00  2.3522793E-01
   7111.33  2.9801704E-01
   7111.67  3.2988314E-01
   7112.00  3.2658116E-01
   7112.33  3.2707826E-01
   7112.67  3.6535636E-01
   7113.00  4.5323707E-01
   7113.33  5.6365824E-01
   7113.67  6.0739169E-01
   7114.00  5.6268298E-01
   7114.33  4.8138957E-01
   7114.67  4.0180643E-01
   7115.00  3.3623127E-01
   7115.33  2.8995997E-01
   7115.67  2.5522908E-01
   7116.00  2.2624551E-01
   7116.33  2.0071071E-01
   7116.67  1.7910020E-01
   7117.00  1.6196302E-01
   7117.33  1.4924963E-01
   7117.67  1.3946903E-01
   7118.00  1.3193809E-01
   7118.33  1.2650884E-01
   7118.67  1.2267134E-01
   7119.00  1.2002555E-01
   7119.33  1.1837166E-01
   7119.67  1.1779339E-01
   7120.00  1.1852967E-01
   7120.33  1.2046163E-01
   7120.67  1.2279403E-01
   7121.00  1.2521543E-01
   7121.33  1.2793039E-01
   7121.67  1.3123698E-01
   7122.00  1.3535334E-01
   7122.33  1.4064733E-01
   7122.67  1.4726490E-01
   7123.00  1.5547875E-01
   7123.33  1.6586362E-01
   7123.67  1.7847066E-01
   7124.00  1.9343443E-01
   7124.33  2.1086149E-01
   7124.67  2.2968991E-01
   7125.00  2.4867546E-01
   7125.33  2.6607958E-01
   7125.67  2.8140468E-01
   7126.00  2.9513193E-01
   7126.33  3.0841587E-01
   7126.67  3.2240707E-01
   7127.00  3.3777980E-01
   7127.33  3.5554807E-01
   7127.67  3.7650531E-01
   7128.00  4.0189814E-01
   7128.33  4.3408801E-01
   7128.67  4.7347974E-01
   7129.00  5.2003283E-01
   7129.33  5.7276875E-01
   7129.67  6.2811382E-01
   7130.00  6.8353471E-01
   7130.33  7.3675055E-01
   7130.67  7.8719153E-01
   7131.00  8.3483598E-01
   7131.33  8.7959317E-01
   7131.67  9.2181622E-01
   7132.00  9.6103717E-01
   7132.33  9.9517320E-01
   7132.67  1.0220151E+00
   7133.00  1.0384255E+00
   7133.33  1.0391586E+00
   7133.67  1.0240740E+00
   7134.00  9.9365555E-01
   7134.33  9.4923586E-01
   7134.67  8.9667628E-01
   7135.00  8.3978566E-01
   7135.33  7.8222597E-01
   7135.67  7.2675012E-01
   7136.00  6.7486361E-01
   7136.33  6.2820618E-01
   7136.67  5.8675743E-01
   7137.00  5.5075411E-01
   7137.33  5.2098359E-01
   7137.67  4.9669428E-01
   7138.00  4.7770481E-01
   7138.33  4.6425188E-01
   7138.67  4.5518743E-01
   7139.00  4.4995753E-01
   7139.33  4.4824083E-01
   7139.67  4.4893362E-01
   7140.00  4.5147775E-01
   7140.33  4.5549619E-01
   7140.67  4.6042283E-01
   7141.00  4.6601841E-01
   7141.33  4.7216189E-01
   7141.67  4.7867585E-01
   7142.00  4.8548139E-01
   7142.33  4.9250964E-01
   7142.67  4.9963071E-01
   7143.00  5.0675207E-01
   7143.33  5.1377422E-01
   7143.67  5.2066261E-01
   7144.00  5.2742081E-01
   7144.33  5.3408631E-01
   7144.67  5.4074439E-01
   7145.00  5.4746484E-01
   7145.33  5.5433540E-01
   7145.67  5.6138112E-01
   7146.00  5.6860334E-01
   7146.33  5.7597444E-01
   7146.67  5.8338513E-01
   7147.00  5.9072230E-01
   7147.33  5.9779894E-01
   7147.67  6.0447568E-01
   7148.00  6.1061492E-01
   7148.33  6.1599329E-01
   7148.67  6.2059518E-01
   7149.00  6.2437811E-01
   7149.33  6.2723720E-01
   7149.67  6.2931379E-01
   7150.00  6.3066494E-01
   7150.33  6.3129378E-01
   7150.67  6.3137126E-01
   7151.00  6.3097457E-01
   7151.33  6.3013965E-01
   7151.67  6.2899233E-01
   7152.00  6.2759351E-01
   7152.33  6.2598656E-01
   7152.67  6.2425660E-01
   7153.00  6.2245260E-01
   7153.33  6.2062290E-01
   7153.67  6.1881416E-01
   7154.00  6.1705720E-01
   7154.33  6.1538782E-01
   7154.67  6.1380958E-01
   7155.00  6.1232242E-01
   7155.33  6.1092195E-01
   7155.67  6.0956984E-01
   7156.00  6.0823037E-01
   7156.33  6.0684511E-01
   7156.67  6.0535645E-01
   7157.00  6.0370614E-01
   7157.33  6.0179583E-01
   7157.67  5.9958740E-01
   7158.00  5.9702867E-01
   7158.33  5.9401871E-01
   7158.67  5.9057143E-01
   7159.00  5.8666930E-01
   7159.33  5.8225054E-01
   7159.67  5.7738467E-01
   7160.00  5.7209430E-01
   7160.33  5.6637010E-01
   7160.67  5.6031049E-01
   7161.00  5.5396524E-01
   7161.33  5.4736601E-01
   7161.67  5.4059643E-01
   7162.00  5.3370415E-01
   7162.33  5.2673709E-01
   7162.67  5.1975272E-01
   7163.00  5.1278664E-01
   7163.33  5.0588029E-01
   7163.67  4.9905492E-01
   7164.00  4.9232907E-01
   7164.33  4.8573359E-01
   7164.67  4.7926570E-01
   7165.00  4.7293311E-01
   7165.33  4.6676049E-01
   7165.67  4.6073465E-01
   7166.00  4.5485849E-01
   7166.33  4.4915397E-01
   7166.67  4.4360531E-01
   7167.00  4.3821598E-01
   7167.33  4.3301072E-01
   7167.67  4.2797548E-01
   7168.00  4.2311930E-01
   7168.33  4.1847724E-01
   7168.67  4.1403777E-01
   7169.00  4.0981210E-01
   7169.33  4.0583948E-01
   7169.67  4.0210363E-01
   7170.00  3.9861536E-01
   7170.33  3.9541871E-01
   7170.67  3.9249304E-01
   7171.00  3.8985034E-01
   7171.33  3.8754968E-01
   7171.67  3.8559151E-01
   7172.00  3.8402475E-01
