    FDMNES
    energy     <xanes>
   7097.00  4.5302519E-03
   7097.33  4.6334600E-03
   7097.67  4.7412910E-03
   7098.00  4.8540609E-03
   7098.33  4.9728457E-03
   7098.67  5.0974323E-03
   7099.00  5.2282542E-03
   7099.33  5.3667250E-03
   7099.67  5.5126307E-03
   7100.00  5.6665824E-03
   7100.33  5.8304895E-03
   7100.67  6.0041615E-03
   7101.00  6.1884887E-03
   7101.33  6.3861348E-03
   7101.67  6.5969882E-03
   7102.00  6.8223965E-03
   7102.33  7.0662243E-03
   7102.67  7.3285602E-03
   7103.00  7.6115415E-03
   7103.33  7.9210488E-03
   7103.67  8.2576499E-03
   7104.00  8.6249329E-03
   7104.33  9.0323954E-03
   7104.67  9.4817574E-03
   7105.00  9.9794925E-03
   7105.33  1.0542153E-02
   7105.67  1.1174382E-02
   7106.00  1.1889007E-02
   7106.33  1.2717945E-02
   7106.67  1.3673999E-02
   7107.00  1.4786060E-02
   7107.33  1.6124980E-02
   7107.67  1.7730180E-02
   7108.00  1.9679987E-02
   7108.33  2.2168524E-02
   7108.67  2.5346294E-02
   7109.00  2.9497464E-02
   7109.33  3.5370853E-02
   7109.67  4.3807590E-02
   7110.00  5.6454752E-02
   7110.33  7.8021171E-02
   7110.67  1.1323864E-01
   7111.00  1.6210197E-01
   7111.33  2.0926588E-01
   7111.67  2.4913668E-01
   7112.00  2.8966654E-01
   7112.33  3.2818405E-01
   7112.67  3.3393340E-01
   7113.00  2.9225562E-01
   7113.33  2.4139679E-01
   7113.67  2.1119293E-01
   7114.00  2.0742347E-01
   7114.33  2.2964194E-01
   7114.67  2.4757409E-01
   7115.00  2.2986999E-01
   7115.33  1.8996756E-01
   7115.67  1.5915826E-01
   7116.00  1.3612850E-01
   7116.33  1.1301786E-01
   7116.67  9.3510538E-02
   7117.00  8.1688758E-02
   7117.33  7.7751950E-02
   7117.67  7.8858393E-02
   7118.00  8.3703417E-02
   7118.33  9.1201987E-02
   7118.67  9.9476818E-02
   7119.00  1.0714883E-01
   7119.33  1.1312436E-01
   7119.67  1.1756291E-01
   7120.00  1.2068304E-01
   7120.33  1.2259652E-01
   7120.67  1.2377807E-01
   7121.00  1.2466418E-01
   7121.33  1.2591387E-01
   7121.67  1.2815539E-01
   7122.00  1.3199884E-01
   7122.33  1.3844563E-01
   7122.67  1.4774134E-01
   7123.00  1.5990207E-01
   7123.33  1.7408534E-01
   7123.67  1.8775698E-01
   7124.00  1.9908536E-01
   7124.33  2.0784246E-01
   7124.67  2.1636356E-01
   7125.00  2.2631092E-01
   7125.33  2.3869774E-01
   7125.67  2.5272510E-01
   7126.00  2.6755401E-01
   7126.33  2.8257340E-01
   7126.67  2.9681177E-01
   7127.00  3.0908070E-01
   7127.33  3.1904600E-01
   7127.67  3.2905957E-01
   7128.00  3.4158222E-01
   7128.33  3.5908289E-01
   7128.67  3.8129824E-01
   7129.00  4.0764814E-01
   7129.33  4.3795757E-01
   7129.67  4.7196347E-01
   7130.00  5.1055290E-01
   7130.33  5.5564155E-01
   7130.67  6.0622711E-01
   7131.00  6.5988564E-01
   7131.33  7.1167070E-01
   7131.67  7.5691739E-01
   7132.00  7.9271224E-01
   7132.33  8.1657852E-01
   7132.67  8.3084589E-01
   7133.00  8.3730827E-01
   7133.33  8.3743234E-01
   7133.67  8.3396389E-01
   7134.00  8.2906636E-01
   7134.33  8.2615182E-01
   7134.67  8.2709389E-01
   7135.00  8.3100302E-01
   7135.33  8.3431866E-01
   7135.67  8.3389052E-01
   7136.00  8.2863736E-01
   7136.33  8.1891485E-01
   7136.67  8.0730393E-01
   7137.00  7.9539107E-01
   7137.33  7.8407736E-01
   7137.67  7.7314783E-01
   7138.00  7.6211748E-01
   7138.33  7.5042797E-01
   7138.67  7.3796377E-01
   7139.00  7.2477030E-01
   7139.33  7.1097653E-01
   7139.67  6.9695875E-01
   7140.00  6.8307607E-01
   7140.33  6.6992302E-01
   7140.67  6.5796356E-01
   7141.00  6.4760019E-01
   7141.33  6.3935604E-01
   7141.67  6.3303840E-01
   7142.00  6.2850566E-01
   7142.33  6.2564682E-01
   7142.67  6.2393229E-01
   7143.00  6.2308751E-01
   7143.33  6.2292133E-01
   7143.67  6.2316128E-01
   7144.00  6.2370614E-01
   7144.33  6.2457487E-01
   7144.67  6.2581316E-01
   7145.00  6.2756109E-01
   7145.33  6.3012417E-01
   7145.67  6.3360645E-01
   7146.00  6.3808976E-01
   7146.33  6.4361910E-01
   7146.67  6.4979141E-01
   7147.00  6.5619086E-01
   7147.33  6.6213704E-01
   7147.67  6.6700967E-01
   7148.00  6.7030734E-01
   7148.33  6.7135986E-01
   7148.67  6.7019694E-01
   7149.00  6.6676713E-01
   7149.33  6.6082717E-01
   7149.67  6.5273547E-01
   7150.00  6.4257408E-01
   7150.33  6.3022866E-01
   7150.67  6.1613745E-01
   7151.00  6.0054173E-01
   7151.33  5.8366027E-01
   7151.67  5.6602779E-01
   7152.00  5.4795103E-01
   7152.33  5.2972951E-01
   7152.67  5.1164734E-01
   7153.00  4.9389344E-01
   7153.33  4.7671347E-01
   7153.67  4.6019528E-01
   7154.00  4.4445025E-01
   7154.33  4.2969902E-01
   7154.67  4.1592175E-01
   7155.00  4.0317953E-01
   7155.33  3.9165624E-01
   7155.67  3.8124065E-01
   7156.00  3.7193569E-01
   7156.33  3.6386166E-01
   7156.67  3.5684624E-01
   7157.00  3.5084579E-01
   7157.33  3.4591477E-01
   7157.67  3.4185772E-01
   7158.00  3.3860101E-01
   7158.33  3.3614237E-01
   7158.67  3.3430296E-01
   7159.00  3.3300944E-01
   7159.33  3.3224687E-01
   7159.67  3.3190460E-01
   7160.00  3.3195899E-01
   7160.33  3.3245096E-01
   7160.67  3.3333101E-01
   7161.00  3.3459648E-01
   7161.33  3.3629791E-01
   7161.67  3.3839316E-01
   7162.00  3.4087851E-01
   7162.33  3.4377435E-01
   7162.67  3.4698467E-01
   7163.00  3.5044692E-01
   7163.33  3.5409062E-01
   7163.67  3.5779427E-01
   7164.00  3.6147056E-01
   7164.33  3.6501277E-01
   7164.67  3.6836142E-01
   7165.00  3.7146898E-01
   7165.33  3.7426370E-01
   7165.67  3.7675959E-01
   7166.00  3.7894915E-01
   7166.33  3.8079679E-01
   7166.67  3.8235494E-01
   7167.00  3.8364629E-01
   7167.33  3.8468271E-01
   7167.67  3.8554717E-01
   7168.00  3.8629542E-01
   7168.33  3.8699079E-01
   7168.67  3.8770553E-01
   7169.00  3.8848899E-01
   7169.33  3.8939903E-01
   7169.67  3.9044747E-01
   7170.00  3.9164128E-01
   7170.33  3.9298935E-01
   7170.67  3.9444962E-01
   7171.00  3.9598638E-01
   7171.33  3.9753658E-01
   7171.67  3.9899091E-01
   7172.00  4.0021207E-01
