    FDMNES
    energy     <xanes>
   7097.00  4.4513742E-03
   7097.33  4.5475108E-03
   7097.67  4.6475495E-03
   7098.00  4.7517318E-03
   7098.33  4.8609234E-03
   7098.67  4.9749104E-03
   7099.00  5.0940166E-03
   7099.33  5.2193525E-03
   7099.67  5.3506937E-03
   7100.00  5.4884869E-03
   7100.33  5.6341936E-03
   7100.67  5.7875936E-03
   7101.00  5.9493225E-03
   7101.33  6.1213654E-03
   7101.67  6.3035384E-03
   7102.00  6.4967822E-03
   7102.33  6.7038973E-03
   7102.67  6.9248102E-03
   7103.00  7.1609791E-03
   7103.33  7.4165458E-03
   7103.67  7.6917169E-03
   7104.00  7.9888858E-03
   7104.33  8.3145512E-03
   7104.67  8.6696085E-03
   7105.00  9.0582776E-03
   7105.33  9.4915548E-03
   7105.67  9.9720842E-03
   7106.00  1.0508020E-02
   7106.33  1.1119903E-02
   7106.67  1.1815179E-02
   7107.00  1.2611645E-02
   7107.33  1.3553157E-02
   7107.67  1.4662228E-02
   7108.00  1.5984832E-02
   7108.33  1.7634277E-02
   7108.67  1.9691238E-02
   7109.00  2.2308365E-02
   7109.33  2.5877519E-02
   7109.67  3.0792799E-02
   7110.00  3.7808395E-02
   7110.33  4.9051378E-02
   7110.67  6.7208837E-02
   7111.00  9.6311524E-02
   7111.33  1.4336977E-01
   7111.67  2.0355994E-01
   7112.00  2.5437630E-01
   7112.33  2.5431269E-01
   7112.67  2.1329964E-01
   7113.00  1.6677437E-01
   7113.33  1.3637243E-01
   7113.67  1.2011572E-01
   7114.00  1.1352206E-01
   7114.33  1.0678524E-01
   7114.67  9.5900561E-02
   7115.00  8.6193139E-02
   7115.33  8.0796036E-02
   7115.67  7.8451188E-02
   7116.00  7.8343732E-02
   7116.33  8.0124202E-02
   7116.67  8.3337854E-02
   7117.00  8.7933293E-02
   7117.33  9.4141617E-02
   7117.67  1.0191757E-01
   7118.00  1.1142963E-01
   7118.33  1.2318204E-01
   7118.67  1.3724087E-01
   7119.00  1.5391722E-01
   7119.33  1.7397025E-01
   7119.67  1.9734712E-01
   7120.00  2.2413107E-01
   7120.33  2.5425833E-01
   7120.67  2.8604255E-01
   7121.00  3.1787498E-01
   7121.33  3.4879207E-01
   7121.67  3.8021028E-01
   7122.00  4.1294570E-01
   7122.33  4.4516037E-01
   7122.67  4.7412732E-01
   7123.00  4.9828071E-01
   7123.33  5.1664560E-01
   7123.67  5.3053009E-01
   7124.00  5.4060792E-01
   7124.33  5.4664803E-01
   7124.67  5.4890379E-01
   7125.00  5.4754722E-01
   7125.33  5.4299278E-01
   7125.67  5.3669727E-01
   7126.00  5.2958800E-01
   7126.33  5.2231397E-01
   7126.67  5.1503808E-01
   7127.00  5.0772876E-01
   7127.33  5.0055348E-01
   7127.67  4.9382611E-01
   7128.00  4.8786199E-01
   7128.33  4.8316358E-01
   7128.67  4.7980947E-01
   7129.00  4.7787007E-01
   7129.33  4.7756076E-01
   7129.67  4.7872194E-01
   7130.00  4.8137547E-01
   7130.33  4.8573841E-01
   7130.67  4.9163417E-01
   7131.00  4.9905054E-01
   7131.33  5.0812193E-01
   7131.67  5.1857677E-01
   7132.00  5.3031210E-01
   7132.33  5.4331781E-01
   7132.67  5.5725751E-01
   7133.00  5.7191156E-01
   7133.33  5.8698631E-01
   7133.67  6.0199304E-01
   7134.00  6.1648985E-01
   7134.33  6.2982160E-01
   7134.67  6.4166251E-01
   7135.00  6.5173854E-01
   7135.33  6.5966739E-01
   7135.67  6.6572111E-01
   7136.00  6.7003122E-01
   7136.33  6.7262128E-01
   7136.67  6.7391183E-01
   7137.00  6.7408496E-01
   7137.33  6.7320377E-01
   7137.67  6.7152641E-01
   7138.00  6.6914345E-01
   7138.33  6.6605243E-01
   7138.67  6.6238970E-01
   7139.00  6.5820527E-01
   7139.33  6.5351039E-01
   7139.67  6.4840148E-01
   7140.00  6.4287216E-01
   7140.33  6.3687439E-01
   7140.67  6.3051057E-01
   7141.00  6.2385705E-01
   7141.33  6.1700721E-01
   7141.67  6.1011485E-01
   7142.00  6.0329825E-01
   7142.33  5.9671828E-01
   7142.67  5.9047270E-01
   7143.00  5.8465555E-01
   7143.33  5.7942346E-01
   7143.67  5.7478277E-01
   7144.00  5.7077952E-01
   7144.33  5.6753837E-01
   7144.67  5.6499974E-01
   7145.00  5.6317002E-01
   7145.33  5.6213211E-01
   7145.67  5.6178337E-01
   7146.00  5.6210355E-01
   7146.33  5.6313691E-01
   7146.67  5.6475670E-01
   7147.00  5.6691412E-01
   7147.33  5.6960065E-01
   7147.67  5.7267844E-01
   7148.00  5.7607064E-01
   7148.33  5.7970461E-01
   7148.67  5.8344453E-01
   7149.00  5.8719125E-01
   7149.33  5.9081197E-01
   7149.67  5.9420207E-01
   7150.00  5.9726304E-01
   7150.33  5.9983337E-01
   7150.67  6.0187305E-01
   7151.00  6.0331368E-01
   7151.33  6.0400996E-01
   7151.67  6.0400111E-01
   7152.00  6.0326340E-01
   7152.33  6.0169426E-01
   7152.67  5.9939712E-01
   7153.00  5.9639568E-01
   7153.33  5.9264774E-01
   7153.67  5.8828813E-01
   7154.00  5.8336830E-01
   7154.33  5.7789131E-01
   7154.67  5.7198635E-01
   7155.00  5.6571034E-01
   7155.33  5.5908733E-01
   7155.67  5.5221310E-01
   7156.00  5.4513183E-01
   7156.33  5.3787012E-01
   7156.67  5.3048925E-01
   7157.00  5.2301796E-01
   7157.33  5.1547659E-01
   7157.67  5.0789816E-01
   7158.00  5.0030273E-01
   7158.33  4.9271201E-01
   7158.67  4.8514544E-01
   7159.00  4.7762049E-01
   7159.33  4.7016531E-01
   7159.67  4.6279211E-01
   7160.00  4.5551664E-01
   7160.33  4.4836873E-01
   7160.67  4.4134861E-01
   7161.00  4.3446897E-01
   7161.33  4.2776404E-01
   7161.67  4.2123004E-01
   7162.00  4.1488185E-01
   7162.33  4.0876471E-01
   7162.67  4.0287129E-01
   7163.00  3.9721584E-01
   7163.33  3.9184628E-01
   7163.67  3.8674576E-01
   7164.00  3.8192553E-01
   7164.33  3.7743278E-01
   7164.67  3.7323887E-01
   7165.00  3.6934723E-01
   7165.33  3.6579592E-01
   7165.67  3.6254468E-01
   7166.00  3.5958968E-01
   7166.33  3.5695981E-01
   7166.67  3.5460929E-01
   7167.00  3.5252910E-01
   7167.33  3.5074074E-01
   7167.67  3.4919998E-01
   7168.00  3.4789564E-01
   7168.33  3.4684246E-01
   7168.67  3.4600018E-01
   7169.00  3.4535896E-01
   7169.33  3.4493177E-01
   7169.67  3.4468402E-01
   7170.00  3.4460583E-01
   7170.33  3.4470377E-01
   7170.67  3.4494175E-01
   7171.00  3.4529995E-01
   7171.33  3.4575203E-01
   7171.67  3.4622246E-01
   7172.00  3.4662537E-01
