    FDMNES
    energy     <xanes>
   7097.00  5.3538106E-03
   7097.33  5.4869696E-03
   7097.67  5.6264405E-03
   7098.00  5.7726627E-03
   7098.33  5.9271171E-03
   7098.67  6.0895206E-03
   7099.00  6.2604740E-03
   7099.33  6.4419243E-03
   7099.67  6.6335837E-03
   7100.00  6.8362955E-03
   7100.33  7.0526851E-03
   7100.67  7.2824904E-03
   7101.00  7.5269309E-03
   7101.33  7.7896549E-03
   7101.67  8.0704932E-03
   7102.00  8.3712732E-03
   7102.33  8.6972500E-03
   7102.67  9.0484944E-03
   7103.00  9.4278654E-03
   7103.33  9.8432698E-03
   7103.67  1.0295351E-02
   7104.00  1.0788823E-02
   7104.33  1.1336246E-02
   7104.67  1.1939624E-02
   7105.00  1.2607260E-02
   7105.33  1.3360535E-02
   7105.67  1.4204832E-02
   7106.00  1.5156092E-02
   7106.33  1.6254210E-02
   7106.67  1.7513708E-02
   7107.00  1.8968996E-02
   7107.33  2.0704669E-02
   7107.67  2.2763719E-02
   7108.00  2.5234164E-02
   7108.33  2.8333090E-02
   7108.67  3.2214776E-02
   7109.00  3.7173081E-02
   7109.33  4.3968631E-02
   7109.67  5.3387026E-02
   7110.00  6.6952160E-02
   7110.33  8.8992609E-02
   7110.67  1.2450208E-01
   7111.00  1.7806889E-01
   7111.33  2.4740654E-01
   7111.67  3.1269454E-01
   7112.00  3.5887398E-01
   7112.33  3.9108691E-01
   7112.67  4.2674168E-01
   7113.00  4.7472959E-01
   7113.33  5.2298294E-01
   7113.67  5.3629631E-01
   7114.00  5.0480067E-01
   7114.33  4.4316525E-01
   7114.67  3.7908500E-01
   7115.00  3.2613025E-01
   7115.33  2.8975892E-01
   7115.67  2.6477469E-01
   7116.00  2.4691913E-01
   7116.33  2.3246511E-01
   7116.67  2.1879405E-01
   7117.00  2.0528887E-01
   7117.33  1.9227436E-01
   7117.67  1.8054587E-01
   7118.00  1.7061014E-01
   7118.33  1.6255610E-01
   7118.67  1.5567120E-01
   7119.00  1.4954219E-01
   7119.33  1.4387041E-01
   7119.67  1.3849916E-01
   7120.00  1.3368703E-01
   7120.33  1.3028782E-01
   7120.67  1.2868526E-01
   7121.00  1.2875299E-01
   7121.33  1.3001593E-01
   7121.67  1.3183718E-01
   7122.00  1.3405897E-01
   7122.33  1.3675594E-01
   7122.67  1.3998684E-01
   7123.00  1.4389222E-01
   7123.33  1.4884022E-01
   7123.67  1.5510261E-01
   7124.00  1.6316229E-01
   7124.33  1.7415647E-01
   7124.67  1.8889395E-01
   7125.00  2.0857171E-01
   7125.33  2.3531025E-01
   7125.67  2.6879899E-01
   7126.00  3.0794948E-01
   7126.33  3.4981224E-01
   7126.67  3.9009854E-01
   7127.00  4.2648518E-01
   7127.33  4.5781393E-01
   7127.67  4.8550724E-01
   7128.00  5.1097566E-01
   7128.33  5.3626677E-01
   7128.67  5.6248328E-01
   7129.00  5.8932287E-01
   7129.33  6.1593547E-01
   7129.67  6.4191184E-01
   7130.00  6.6756863E-01
   7130.33  6.9412382E-01
   7130.67  7.2296305E-01
   7131.00  7.5526549E-01
   7131.33  7.9244726E-01
   7131.67  8.3394622E-01
   7132.00  8.7868942E-01
   7132.33  9.2358711E-01
   7132.67  9.6296858E-01
   7133.00  9.9044830E-01
   7133.33  9.9723861E-01
   7133.67  9.8359349E-01
   7134.00  9.5204472E-01
   7134.33  9.0672955E-01
   7134.67  8.5487178E-01
   7135.00  8.0021755E-01
   7135.33  7.4581330E-01
   7135.67  6.9362716E-01
   7136.00  6.4482813E-01
   7136.33  6.0087382E-01
   7136.67  5.6179974E-01
   7137.00  5.2789650E-01
   7137.33  4.9997981E-01
   7137.67  4.7734873E-01
   7138.00  4.5981739E-01
   7138.33  4.4756055E-01
   7138.67  4.3939180E-01
   7139.00  4.3469973E-01
   7139.33  4.3309419E-01
   7139.67  4.3356827E-01
   7140.00  4.3566231E-01
   7140.33  4.3915235E-01
   7140.67  4.4366395E-01
   7141.00  4.4910837E-01
   7141.33  4.5556289E-01
   7141.67  4.6290428E-01
   7142.00  4.7110962E-01
   7142.33  4.8021138E-01
   7142.67  4.8998754E-01
   7143.00  5.0028929E-01
   7143.33  5.1094294E-01
   7143.67  5.2167153E-01
   7144.00  5.3226648E-01
   7144.33  5.4245367E-01
   7144.67  5.5208277E-01
   7145.00  5.6102417E-01
   7145.33  5.6908508E-01
   7145.67  5.7633245E-01
   7146.00  5.8278710E-01
   7146.33  5.8843099E-01
   7146.67  5.9346499E-01
   7147.00  5.9800227E-01
   7147.33  6.0213417E-01
   7147.67  6.0602877E-01
   7148.00  6.0976848E-01
   7148.33  6.1339964E-01
   7148.67  6.1694537E-01
   7149.00  6.2037449E-01
   7149.33  6.2358006E-01
   7149.67  6.2647219E-01
   7150.00  6.2893969E-01
   7150.33  6.3078138E-01
   7150.67  6.3194892E-01
   7151.00  6.3236436E-01
   7151.33  6.3187506E-01
   7151.67  6.3057839E-01
   7152.00  6.2851243E-01
   7152.33  6.2567985E-01
   7152.67  6.2229238E-01
   7153.00  6.1848241E-01
   7153.33  6.1438649E-01
   7153.67  6.1020326E-01
   7154.00  6.0606485E-01
   7154.33  6.0212634E-01
   7154.67  5.9847013E-01
   7155.00  5.9516129E-01
   7155.33  5.9229669E-01
   7155.67  5.8984662E-01
   7156.00  5.8780851E-01
   7156.33  5.8620896E-01
   7156.67  5.8496110E-01
   7157.00  5.8402337E-01
   7157.33  5.8337260E-01
   7157.67  5.8291787E-01
   7158.00  5.8260728E-01
   7158.33  5.8239125E-01
   7158.67  5.8220139E-01
   7159.00  5.8199072E-01
   7159.33  5.8169886E-01
   7159.67  5.8128696E-01
   7160.00  5.8071632E-01
   7160.33  5.7991795E-01
   7160.67  5.7887565E-01
   7161.00  5.7755722E-01
   7161.33  5.7588803E-01
   7161.67  5.7387231E-01
   7162.00  5.7148068E-01
   7162.33  5.6863541E-01
   7162.67  5.6536973E-01
   7163.00  5.6167484E-01
   7163.33  5.5749384E-01
   7163.67  5.5288675E-01
   7164.00  5.4786617E-01
   7164.33  5.4240632E-01
   7164.67  5.3658771E-01
   7165.00  5.3044438E-01
   7165.33  5.2398794E-01
   7165.67  5.1730436E-01
   7166.00  5.1044004E-01
   7166.33  5.0343446E-01
   7166.67  4.9635768E-01
   7167.00  4.8925464E-01
   7167.33  4.8217909E-01
   7167.67  4.7517786E-01
   7168.00  4.6829078E-01
   7168.33  4.6157598E-01
   7168.67  4.5505411E-01
   7169.00  4.4875905E-01
   7169.33  4.4275630E-01
   7169.67  4.3704192E-01
   7170.00  4.3163801E-01
   7170.33  4.2660984E-01
   7170.67  4.2194035E-01
   7171.00  4.1765657E-01
   7171.33  4.1386283E-01
   7171.67  4.1059669E-01
   7172.00  4.0797750E-01
