    FDMNES
    energy     <xanes>
   7097.00  4.0538193E-03
   7097.33  4.1374531E-03
   7097.67  4.2245039E-03
   7098.00  4.3151951E-03
   7098.33  4.4103054E-03
   7098.67  4.5096650E-03
   7099.00  4.6135798E-03
   7099.33  4.7230670E-03
   7099.67  4.8379566E-03
   7100.00  4.9586805E-03
   7100.33  5.0866074E-03
   7100.67  5.2215862E-03
   7101.00  5.3642487E-03
   7101.33  5.5165032E-03
   7101.67  5.6782598E-03
   7102.00  5.8504826E-03
   7102.33  6.0359477E-03
   7102.67  6.2347220E-03
   7103.00  6.4483515E-03
   7103.33  6.6810908E-03
   7103.67  6.9333838E-03
   7104.00  7.2078650E-03
   7104.33  7.5114897E-03
   7104.67  7.8456175E-03
   7105.00  8.2150934E-03
   7105.33  8.6322562E-03
   7105.67  9.1008188E-03
   7106.00  9.6306104E-03
   7106.33  1.0245993E-02
   7106.67  1.0957363E-02
   7107.00  1.1787480E-02
   7107.33  1.2792052E-02
   7107.67  1.4003693E-02
   7108.00  1.5486084E-02
   7108.33  1.7397212E-02
   7108.67  1.9864351E-02
   7109.00  2.3126236E-02
   7109.33  2.7814577E-02
   7109.67  3.4656120E-02
   7110.00  4.5073924E-02
   7110.33  6.3150595E-02
   7110.67  9.3025638E-02
   7111.00  1.3470626E-01
   7111.33  1.7477725E-01
   7111.67  2.0835100E-01
   7112.00  2.4175707E-01
   7112.33  2.5211574E-01
   7112.67  2.2046155E-01
   7113.00  1.7166293E-01
   7113.33  1.3032893E-01
   7113.67  9.9856463E-02
   7114.00  7.9569397E-02
   7114.33  6.8925179E-02
   7114.67  6.4415172E-02
   7115.00  6.1284662E-02
   7115.33  5.4489542E-02
   7115.67  4.8050234E-02
   7116.00  4.4077370E-02
   7116.33  4.2123505E-02
   7116.67  4.1056560E-02
   7117.00  4.0680916E-02
   7117.33  4.1259097E-02
   7117.67  4.2811132E-02
   7118.00  4.5332606E-02
   7118.33  4.8814553E-02
   7118.67  5.2861656E-02
   7119.00  5.7055578E-02
   7119.33  6.0871435E-02
   7119.67  6.4169411E-02
   7120.00  6.6987616E-02
   7120.33  6.9309092E-02
   7120.67  7.1241390E-02
   7121.00  7.2956408E-02
   7121.33  7.4818938E-02
   7121.67  7.7200607E-02
   7122.00  8.0413287E-02
   7122.33  8.4970028E-02
   7122.67  9.1122532E-02
   7123.00  9.9238911E-02
   7123.33  1.1000210E-01
   7123.67  1.2335392E-01
   7124.00  1.3926773E-01
   7124.33  1.5760444E-01
   7124.67  1.7737096E-01
   7125.00  1.9794051E-01
   7125.33  2.1905188E-01
   7125.67  2.4121908E-01
   7126.00  2.6536976E-01
   7126.33  2.9192858E-01
   7126.67  3.1942482E-01
   7127.00  3.4703027E-01
   7127.33  3.7560802E-01
   7127.67  4.0709496E-01
   7128.00  4.4284277E-01
   7128.33  4.8285201E-01
   7128.67  5.2364833E-01
   7129.00  5.6206212E-01
   7129.33  5.9623880E-01
   7129.67  6.2855907E-01
   7130.00  6.6135741E-01
   7130.33  6.9616140E-01
   7130.67  7.3260534E-01
   7131.00  7.7005130E-01
   7131.33  8.0726607E-01
   7131.67  8.4234599E-01
   7132.00  8.7325299E-01
   7132.33  8.9741020E-01
   7132.67  9.1559477E-01
   7133.00  9.2971465E-01
   7133.33  9.4312078E-01
   7133.67  9.5880314E-01
   7134.00  9.7777592E-01
   7134.33  9.9933717E-01
   7134.67  1.0200646E+00
   7135.00  1.0362937E+00
   7135.33  1.0431836E+00
   7135.67  1.0398449E+00
   7136.00  1.0264306E+00
   7136.33  1.0036956E+00
   7136.67  9.7531435E-01
   7137.00  9.4355547E-01
   7137.33  9.1040017E-01
   7137.67  8.7742859E-01
   7138.00  8.4535941E-01
   7138.33  8.1480252E-01
   7138.67  7.8580084E-01
   7139.00  7.5846476E-01
   7139.33  7.3313707E-01
   7139.67  7.0971886E-01
   7140.00  6.8829421E-01
   7140.33  6.6917578E-01
   7140.67  6.5213205E-01
   7141.00  6.3715590E-01
   7141.33  6.2444929E-01
   7141.67  6.1366735E-01
   7142.00  6.0470351E-01
   7142.33  5.9761912E-01
   7142.67  5.9204159E-01
   7143.00  5.8782127E-01
   7143.33  5.8492045E-01
   7143.67  5.8299806E-01
   7144.00  5.8188407E-01
   7144.33  5.8146144E-01
   7144.67  5.8143950E-01
   7145.00  5.8162135E-01
   7145.33  5.8178648E-01
   7145.67  5.8174549E-01
   7146.00  5.8136383E-01
   7146.33  5.8046682E-01
   7146.67  5.7904109E-01
   7147.00  5.7707100E-01
   7147.33  5.7452764E-01
   7147.67  5.7154832E-01
   7148.00  5.6821525E-01
   7148.33  5.6460311E-01
   7148.67  5.6084522E-01
   7149.00  5.5701697E-01
   7149.33  5.5318392E-01
   7149.67  5.4938759E-01
   7150.00  5.4564497E-01
   7150.33  5.4196580E-01
   7150.67  5.3833343E-01
   7151.00  5.3473389E-01
   7151.33  5.3114736E-01
   7151.67  5.2755089E-01
   7152.00  5.2392837E-01
   7152.33  5.2025733E-01
   7152.67  5.1652556E-01
   7153.00  5.1271462E-01
   7153.33  5.0877973E-01
   7153.67  5.0468485E-01
   7154.00  5.0036756E-01
   7154.33  4.9569947E-01
   7154.67  4.9061380E-01
   7155.00  4.8501297E-01
   7155.33  4.7871898E-01
   7155.67  4.7173687E-01
   7156.00  4.6403427E-01
   7156.33  4.5551850E-01
   7156.67  4.4631267E-01
   7157.00  4.3646784E-01
   7157.33  4.2599275E-01
   7157.67  4.1505261E-01
   7158.00  4.0373983E-01
   7158.33  3.9213920E-01
   7158.67  3.8040701E-01
   7159.00  3.6865499E-01
   7159.33  3.5703228E-01
   7159.67  3.4566372E-01
   7160.00  3.3467095E-01
   7160.33  3.2425835E-01
   7160.67  3.1449763E-01
   7161.00  3.0550277E-01
   7161.33  2.9750914E-01
   7161.67  2.9051191E-01
   7162.00  2.8458458E-01
   7162.33  2.7992633E-01
   7162.67  2.7642144E-01
   7163.00  2.7407067E-01
   7163.33  2.7299129E-01
   7163.67  2.7298732E-01
   7164.00  2.7398718E-01
   7164.33  2.7599618E-01
   7164.67  2.7877606E-01
   7165.00  2.8220427E-01
   7165.33  2.8618752E-01
   7165.67  2.9050333E-01
   7166.00  2.9501669E-01
   7166.33  2.9959182E-01
   7166.67  3.0410632E-01
   7167.00  3.0848763E-01
   7167.33  3.1266309E-01
   7167.67  3.1664309E-01
   7168.00  3.2044174E-01
   7168.33  3.2407744E-01
   7168.67  3.2761639E-01
   7169.00  3.3110175E-01
   7169.33  3.3457781E-01
   7169.67  3.3807970E-01
   7170.00  3.4162456E-01
   7170.33  3.4522108E-01
   7170.67  3.4884321E-01
   7171.00  3.5244807E-01
   7171.33  3.5592331E-01
   7171.67  3.5909609E-01
   7172.00  3.6171835E-01
