    FDMNES
    energy     <xanes>
   7097.00  4.0783777E-03
   7097.33  4.1579051E-03
   7097.67  4.2404001E-03
   7098.00  4.3260388E-03
   7098.33  4.4154683E-03
   7098.67  4.5085178E-03
   7099.00  4.6054242E-03
   7099.33  4.7070142E-03
   7099.67  4.8131107E-03
   7100.00  4.9240418E-03
   7100.33  5.0408947E-03
   7100.67  5.1634985E-03
   7101.00  5.2923246E-03
   7101.33  5.4288538E-03
   7101.67  5.5729502E-03
   7102.00  5.7253216E-03
   7102.33  5.8880747E-03
   7102.67  6.0611750E-03
   7103.00  6.2457427E-03
   7103.33  6.4449435E-03
   7103.67  6.6590007E-03
   7104.00  6.8898086E-03
   7104.33  7.1424642E-03
   7104.67  7.4178413E-03
   7105.00  7.7194206E-03
   7105.33  8.0561778E-03
   7105.67  8.4307112E-03
   7106.00  8.8501478E-03
   7106.33  9.3322882E-03
   7106.67  9.8848039E-03
   7107.00  1.0524588E-02
   7107.33  1.1293237E-02
   7107.67  1.2216074E-02
   7108.00  1.3342435E-02
   7108.33  1.4795866E-02
   7108.67  1.6681620E-02
   7109.00  1.9197782E-02
   7109.33  2.2877754E-02
   7109.67  2.8372845E-02
   7110.00  3.6974900E-02
   7110.33  5.2472856E-02
   7110.67  7.8898162E-02
   7111.00  1.1556020E-01
   7111.33  1.3780449E-01
   7111.67  1.2905848E-01
   7112.00  1.0771473E-01
   7112.33  9.3842803E-02
   7112.67  8.8080795E-02
   7113.00  8.6995814E-02
   7113.33  8.9512924E-02
   7113.67  9.7510853E-02
   7114.00  1.0771583E-01
   7114.33  1.0577005E-01
   7114.67  9.0257079E-02
   7115.00  7.1912862E-02
   7115.33  5.9478612E-02
   7115.67  5.2020867E-02
   7116.00  4.8028488E-02
   7116.33  4.6561923E-02
   7116.67  4.6632581E-02
   7117.00  4.7854778E-02
   7117.33  5.0064790E-02
   7117.67  5.3115572E-02
   7118.00  5.7151996E-02
   7118.33  6.2518180E-02
   7118.67  6.9128269E-02
   7119.00  7.6853399E-02
   7119.33  8.5154781E-02
   7119.67  9.2766495E-02
   7120.00  9.8613704E-02
   7120.33  1.0194032E-01
   7120.67  1.0372981E-01
   7121.00  1.0514688E-01
   7121.33  1.0754664E-01
   7121.67  1.1163420E-01
   7122.00  1.1783516E-01
   7122.33  1.2680488E-01
   7122.67  1.3853855E-01
   7123.00  1.5331572E-01
   7123.33  1.7197257E-01
   7123.67  1.9464654E-01
   7124.00  2.2206305E-01
   7124.33  2.5604210E-01
   7124.67  2.9657231E-01
   7125.00  3.4304854E-01
   7125.33  3.9252525E-01
   7125.67  4.3889287E-01
   7126.00  4.7757676E-01
   7126.33  5.0545489E-01
   7126.67  5.2553412E-01
   7127.00  5.4183131E-01
   7127.33  5.6039551E-01
   7127.67  5.8522340E-01
   7128.00  6.1807532E-01
   7128.33  6.6036450E-01
   7128.67  7.0958595E-01
   7129.00  7.6245799E-01
   7129.33  8.1193127E-01
   7129.67  8.5055321E-01
   7130.00  8.7445510E-01
   7130.33  8.8382691E-01
   7130.67  8.8588464E-01
   7131.00  8.8483597E-01
   7131.33  8.8373705E-01
   7131.67  8.8443280E-01
   7132.00  8.8777148E-01
   7132.33  8.9386828E-01
   7132.67  9.0077054E-01
   7133.00  9.0629863E-01
   7133.33  9.0772666E-01
   7133.67  9.0457684E-01
   7134.00  8.9711836E-01
   7134.33  8.8553680E-01
   7134.67  8.7057039E-01
   7135.00  8.5226570E-01
   7135.33  8.3066632E-01
   7135.67  8.0717028E-01
   7136.00  7.8292757E-01
   7136.33  7.5920201E-01
   7136.67  7.3674697E-01
   7137.00  7.1591698E-01
   7137.33  6.9703432E-01
   7137.67  6.7977855E-01
   7138.00  6.6397565E-01
   7138.33  6.4955176E-01
   7138.67  6.3616035E-01
   7139.00  6.2369479E-01
   7139.33  6.1222117E-01
   7139.67  6.0165461E-01
   7140.00  5.9203987E-01
   7140.33  5.8354227E-01
   7140.67  5.7605209E-01
   7141.00  5.6955253E-01
   7141.33  5.6410277E-01
   7141.67  5.5949693E-01
   7142.00  5.5564046E-01
   7142.33  5.5247712E-01
   7142.67  5.4978250E-01
   7143.00  5.4743178E-01
   7143.33  5.4531620E-01
   7143.67  5.4328988E-01
   7144.00  5.4126568E-01
   7144.33  5.3915579E-01
   7144.67  5.3692276E-01
   7145.00  5.3455536E-01
   7145.33  5.3206104E-01
   7145.67  5.2950771E-01
   7146.00  5.2695956E-01
   7146.33  5.2451141E-01
   7146.67  5.2223297E-01
   7147.00  5.2018338E-01
   7147.33  5.1844962E-01
   7147.67  5.1702402E-01
   7148.00  5.1590642E-01
   7148.33  5.1510509E-01
   7148.67  5.1453357E-01
   7149.00  5.1413261E-01
   7149.33  5.1383279E-01
   7149.67  5.1353650E-01
   7150.00  5.1316848E-01
   7150.33  5.1262159E-01
   7150.67  5.1183382E-01
   7151.00  5.1073852E-01
   7151.33  5.0920936E-01
   7151.67  5.0721318E-01
   7152.00  5.0467694E-01
   7152.33  5.0143589E-01
   7152.67  4.9748767E-01
   7153.00  4.9277410E-01
   7153.33  4.8714931E-01
   7153.67  4.8070582E-01
   7154.00  4.7347134E-01
   7154.33  4.6543853E-01
   7154.67  4.5682191E-01
   7155.00  4.4774493E-01
   7155.33  4.3832458E-01
   7155.67  4.2875680E-01
   7156.00  4.1916830E-01
   7156.33  4.0970328E-01
   7156.67  4.0045989E-01
   7157.00  3.9151923E-01
   7157.33  3.8300580E-01
   7157.67  3.7493294E-01
   7158.00  3.6734198E-01
   7158.33  3.6033405E-01
   7158.67  3.5386941E-01
   7159.00  3.4796133E-01
   7159.33  3.4268656E-01
   7159.67  3.3797323E-01
   7160.00  3.3381539E-01
   7160.33  3.3026840E-01
   7160.67  3.2724374E-01
   7161.00  3.2471992E-01
   7161.33  3.2272976E-01
   7161.67  3.2118538E-01
   7162.00  3.2005955E-01
   7162.33  3.1936200E-01
   7162.67  3.1900124E-01
   7163.00  3.1893941E-01
   7163.33  3.1916607E-01
   7163.67  3.1961037E-01
   7164.00  3.2024525E-01
   7164.33  3.2107501E-01
   7164.67  3.2207803E-01
   7165.00  3.2326778E-01
   7165.33  3.2469944E-01
   7165.67  3.2638254E-01
   7166.00  3.2835027E-01
   7166.33  3.3067870E-01
   7166.67  3.3335462E-01
   7167.00  3.3638989E-01
   7167.33  3.3982941E-01
   7167.67  3.4361305E-01
   7168.00  3.4771589E-01
   7168.33  3.5213241E-01
   7168.67  3.5677862E-01
   7169.00  3.6160865E-01
   7169.33  3.6658496E-01
   7169.67  3.7163848E-01
   7170.00  3.7672463E-01
   7170.33  3.8178832E-01
   7170.67  3.8677240E-01
   7171.00  3.9161005E-01
   7171.33  3.9614784E-01
   7171.67  4.0020883E-01
   7172.00  4.0352250E-01
