    FDMNES
    energy     <xanes>
   7097.00  5.2684718E-03
   7097.33  5.4039305E-03
   7097.67  5.5460619E-03
   7098.00  5.6953449E-03
   7098.33  5.8533689E-03
   7098.67  6.0198536E-03
   7099.00  6.1954577E-03
   7099.33  6.3822853E-03
   7099.67  6.5800562E-03
   7100.00  6.7896996E-03
   7100.33  7.0140731E-03
   7100.67  7.2529314E-03
   7101.00  7.5076256E-03
   7101.33  7.7821537E-03
   7101.67  8.0763819E-03
   7102.00  8.3923445E-03
   7102.33  8.7358371E-03
   7102.67  9.1070040E-03
   7103.00  9.5090392E-03
   7103.33  9.9507103E-03
   7103.67  1.0432813E-02
   7104.00  1.0960624E-02
   7104.33  1.1548123E-02
   7104.67  1.2197634E-02
   7105.00  1.2918443E-02
   7105.33  1.3734384E-02
   7105.67  1.4651509E-02
   7106.00  1.5687574E-02
   7106.33  1.6886906E-02
   7106.67  1.8265491E-02
   7107.00  1.9861246E-02
   7107.33  2.1767207E-02
   7107.67  2.4029597E-02
   7108.00  2.6743483E-02
   7108.33  3.0142571E-02
   7108.67  3.4387858E-02
   7109.00  3.9786773E-02
   7109.33  4.7130289E-02
   7109.67  5.7211020E-02
   7110.00  7.1560998E-02
   7110.33  9.4430351E-02
   7110.67  1.2987262E-01
   7111.00  1.7891013E-01
   7111.33  2.3937564E-01
   7111.67  3.2483007E-01
   7112.00  4.4166186E-01
   7112.33  5.3950365E-01
   7112.67  6.0868547E-01
   7113.00  6.8152817E-01
   7113.33  7.1577084E-01
   7113.67  6.6606541E-01
   7114.00  5.4576733E-01
   7114.33  4.2032448E-01
   7114.67  3.2539372E-01
   7115.00  2.5928788E-01
   7115.33  2.1569158E-01
   7115.67  1.8539405E-01
   7116.00  1.6460504E-01
   7116.33  1.5111974E-01
   7116.67  1.4203978E-01
   7117.00  1.3607687E-01
   7117.33  1.3242762E-01
   7117.67  1.2994837E-01
   7118.00  1.2768318E-01
   7118.33  1.2478712E-01
   7118.67  1.2281182E-01
   7119.00  1.2358205E-01
   7119.33  1.2705411E-01
   7119.67  1.3018230E-01
   7120.00  1.3083013E-01
   7120.33  1.2924700E-01
   7120.67  1.2729984E-01
   7121.00  1.2508577E-01
   7121.33  1.2266834E-01
   7121.67  1.2040430E-01
   7122.00  1.1844839E-01
   7122.33  1.1688152E-01
   7122.67  1.1566259E-01
   7123.00  1.1481327E-01
   7123.33  1.1456929E-01
   7123.67  1.1531807E-01
   7124.00  1.1765282E-01
   7124.33  1.2253357E-01
   7124.67  1.3009167E-01
   7125.00  1.4030942E-01
   7125.33  1.5272140E-01
   7125.67  1.6592012E-01
   7126.00  1.7928631E-01
   7126.33  1.9311880E-01
   7126.67  2.0862367E-01
   7127.00  2.2755203E-01
   7127.33  2.5300319E-01
   7127.67  2.8639148E-01
   7128.00  3.2883912E-01
   7128.33  3.8120700E-01
   7128.67  4.3975795E-01
   7129.00  5.0014501E-01
   7129.33  5.5549140E-01
   7129.67  6.0092064E-01
   7130.00  6.3413732E-01
   7130.33  6.5447344E-01
   7130.67  6.6692646E-01
   7131.00  6.7557532E-01
   7131.33  6.8517350E-01
   7131.67  6.9911049E-01
   7132.00  7.1881837E-01
   7132.33  7.4452917E-01
   7132.67  7.7308349E-01
   7133.00  8.0090966E-01
   7133.33  8.2159844E-01
   7133.67  8.3022068E-01
   7134.00  8.2435374E-01
   7134.33  8.0419739E-01
   7134.67  7.7614383E-01
   7135.00  7.4470373E-01
   7135.33  7.1416715E-01
   7135.67  6.8680501E-01
   7136.00  6.6333263E-01
   7136.33  6.4403247E-01
   7136.67  6.2772794E-01
   7137.00  6.1379508E-01
   7137.33  6.0212771E-01
   7137.67  5.9261369E-01
   7138.00  5.8556599E-01
   7138.33  5.8150601E-01
   7138.67  5.7985513E-01
   7139.00  5.8003212E-01
   7139.33  5.8116674E-01
   7139.67  5.8212176E-01
   7140.00  5.8225408E-01
   7140.33  5.8126193E-01
   7140.67  5.7973469E-01
   7141.00  5.7835009E-01
   7141.33  5.7790438E-01
   7141.67  5.7858275E-01
   7142.00  5.8026464E-01
   7142.33  5.8256329E-01
   7142.67  5.8478371E-01
   7143.00  5.8637409E-01
   7143.33  5.8665159E-01
   7143.67  5.8542295E-01
   7144.00  5.8257268E-01
   7144.33  5.7797609E-01
   7144.67  5.7209167E-01
   7145.00  5.6525356E-01
   7145.33  5.5784231E-01
   7145.67  5.5035973E-01
   7146.00  5.4313659E-01
   7146.33  5.3654548E-01
   7146.67  5.3071991E-01
   7147.00  5.2576627E-01
   7147.33  5.2185564E-01
   7147.67  5.1886791E-01
   7148.00  5.1677864E-01
   7148.33  5.1566259E-01
   7148.67  5.1538408E-01
   7149.00  5.1594991E-01
   7149.33  5.1752705E-01
   7149.67  5.2011460E-01
   7150.00  5.2385330E-01
   7150.33  5.2911313E-01
   7150.67  5.3593984E-01
   7151.00  5.4450566E-01
   7151.33  5.5520546E-01
   7151.67  5.6788527E-01
   7152.00  5.8254887E-01
   7152.33  5.9936288E-01
   7152.67  6.1790455E-01
   7153.00  6.3788128E-01
   7153.33  6.5887248E-01
   7153.67  6.8003240E-01
   7154.00  7.0061679E-01
   7154.33  7.1954436E-01
   7154.67  7.3620133E-01
   7155.00  7.5007019E-01
   7155.33  7.6039062E-01
   7155.67  7.6741310E-01
   7156.00  7.7113365E-01
   7156.33  7.7121596E-01
   7156.67  7.6817351E-01
   7157.00  7.6212868E-01
   7157.33  7.5291873E-01
   7157.67  7.4114763E-01
   7158.00  7.2708607E-01
   7158.33  7.1086598E-01
   7158.67  6.9314436E-01
   7159.00  6.7429913E-01
   7159.33  6.5468716E-01
   7159.67  6.3481984E-01
   7160.00  6.1502811E-01
   7160.33  5.9568474E-01
   7160.67  5.7699390E-01
   7161.00  5.5912507E-01
   7161.33  5.4234556E-01
   7161.67  5.2662426E-01
   7162.00  5.1199785E-01
   7162.33  4.9861129E-01
   7162.67  4.8630653E-01
   7163.00  4.7504889E-01
   7163.33  4.6490438E-01
   7163.67  4.5567860E-01
   7164.00  4.4730640E-01
   7164.33  4.3980959E-01
   7164.67  4.3302077E-01
   7165.00  4.2688310E-01
   7165.33  4.2140990E-01
   7165.67  4.1648263E-01
   7166.00  4.1207144E-01
   7166.33  4.0820506E-01
   7166.67  4.0479719E-01
   7167.00  4.0183060E-01
   7167.33  3.9933948E-01
   7167.67  3.9725089E-01
   7168.00  3.9554391E-01
   7168.33  3.9423075E-01
   7168.67  3.9322772E-01
   7169.00  3.9249489E-01
   7169.33  3.9200830E-01
   7169.67  3.9168662E-01
   7170.00  3.9148397E-01
   7170.33  3.9135999E-01
   7170.67  3.9126433E-01
   7171.00  3.9116858E-01
   7171.33  3.9104791E-01
   7171.67  3.9089833E-01
   7172.00  3.9072820E-01
