    FDMNES
    energy     <xanes>
   7097.00  4.3340545E-03
   7097.33  4.4291610E-03
   7097.67  4.5284367E-03
   7098.00  4.6321685E-03
   7098.33  4.7413312E-03
   7098.67  4.8557369E-03
   7099.00  4.9757826E-03
   7099.33  5.1027560E-03
   7099.67  5.2364732E-03
   7100.00  5.3774996E-03
   7100.33  5.5275876E-03
   7100.67  5.6865841E-03
   7101.00  5.8553227E-03
   7101.33  6.0362734E-03
   7101.67  6.2293726E-03
   7102.00  6.4359003E-03
   7102.33  6.6594879E-03
   7102.67  6.9002912E-03
   7103.00  7.1603746E-03
   7103.33  7.4453562E-03
   7103.67  7.7559095E-03
   7104.00  8.0955697E-03
   7104.33  8.4735928E-03
   7104.67  8.8918996E-03
   7105.00  9.3570109E-03
   7105.33  9.8854436E-03
   7105.67  1.0482303E-02
   7106.00  1.1160832E-02
   7106.33  1.1953750E-02
   7106.67  1.2875155E-02
   7107.00  1.3955675E-02
   7107.33  1.5270134E-02
   7107.67  1.6862333E-02
   7108.00  1.8817598E-02
   7108.33  2.1347277E-02
   7108.67  2.4620714E-02
   7109.00  2.8955208E-02
   7109.33  3.5188454E-02
   7109.67  4.4277099E-02
   7110.00  5.8090060E-02
   7110.33  8.1951099E-02
   7110.67  1.2099143E-01
   7111.00  1.7437124E-01
   7111.33  2.2921400E-01
   7111.67  2.9303522E-01
   7112.00  3.5534723E-01
   7112.33  3.4955577E-01
   7112.67  2.8973144E-01
   7113.00  2.2060990E-01
   7113.33  1.6840727E-01
   7113.67  1.3624807E-01
   7114.00  1.1994211E-01
   7114.33  1.0593981E-01
   7114.67  8.9009193E-02
   7115.00  7.6625558E-02
   7115.33  6.9378805E-02
   7115.67  6.0823429E-02
   7116.00  5.2171563E-02
   7116.33  4.6648574E-02
   7116.67  4.3322371E-02
   7117.00  4.1124966E-02
   7117.33  3.9352576E-02
   7117.67  3.7820940E-02
   7118.00  3.6670667E-02
   7118.33  3.6121565E-02
   7118.67  3.6157662E-02
   7119.00  3.6781960E-02
   7119.33  3.8075343E-02
   7119.67  3.9944752E-02
   7120.00  4.2297829E-02
   7120.33  4.4972517E-02
   7120.67  4.7772463E-02
   7121.00  5.0717798E-02
   7121.33  5.4084354E-02
   7121.67  5.8162061E-02
   7122.00  6.3239483E-02
   7122.33  6.9802317E-02
   7122.67  7.8042587E-02
   7123.00  8.8355892E-02
   7123.33  1.0170914E-01
   7123.67  1.1853531E-01
   7124.00  1.3930770E-01
   7124.33  1.6357571E-01
   7124.67  1.8770533E-01
   7125.00  2.0925527E-01
   7125.33  2.2986062E-01
   7125.67  2.5365247E-01
   7126.00  2.8267164E-01
   7126.33  3.1887813E-01
   7126.67  3.6262143E-01
   7127.00  4.1434477E-01
   7127.33  4.7239976E-01
   7127.67  5.2992509E-01
   7128.00  5.8184812E-01
   7128.33  6.2566931E-01
   7128.67  6.6217627E-01
   7129.00  6.8996933E-01
   7129.33  7.0816304E-01
   7129.67  7.2175198E-01
   7130.00  7.3422739E-01
   7130.33  7.4712565E-01
   7130.67  7.6037475E-01
   7131.00  7.7457274E-01
   7131.33  7.9223242E-01
   7131.67  8.1467586E-01
   7132.00  8.4052397E-01
   7132.33  8.6335255E-01
   7132.67  8.7612094E-01
   7133.00  8.7650436E-01
   7133.33  8.6714952E-01
   7133.67  8.5528546E-01
   7134.00  8.4473710E-01
   7134.33  8.3804368E-01
   7134.67  8.3517321E-01
   7135.00  8.3572879E-01
   7135.33  8.3942797E-01
   7135.67  8.4532263E-01
   7136.00  8.5269352E-01
   7136.33  8.6028738E-01
   7136.67  8.6652106E-01
   7137.00  8.7015150E-01
   7137.33  8.6973853E-01
   7137.67  8.6539372E-01
   7138.00  8.5730249E-01
   7138.33  8.4564255E-01
   7138.67  8.3157110E-01
   7139.00  8.1576123E-01
   7139.33  7.9878714E-01
   7139.67  7.8134653E-01
   7140.00  7.6381230E-01
   7140.33  7.4652673E-01
   7140.67  7.2967355E-01
   7141.00  7.1337365E-01
   7141.33  6.9780022E-01
   7141.67  6.8293374E-01
   7142.00  6.6881401E-01
   7142.33  6.5557783E-01
   7142.67  6.4316212E-01
   7143.00  6.3159543E-01
   7143.33  6.2101732E-01
   7143.67  6.1134428E-01
   7144.00  6.0259643E-01
   7144.33  5.9490581E-01
   7144.67  5.8815409E-01
   7145.00  5.8233830E-01
   7145.33  5.7758430E-01
   7145.67  5.7379577E-01
   7146.00  5.7100852E-01
   7146.33  5.6942049E-01
   7146.67  5.6893460E-01
   7147.00  5.6953956E-01
   7147.33  5.7130015E-01
   7147.67  5.7395523E-01
   7148.00  5.7732976E-01
   7148.33  5.8121187E-01
   7148.67  5.8523364E-01
   7149.00  5.8912295E-01
   7149.33  5.9254067E-01
   7149.67  5.9531082E-01
   7150.00  5.9729237E-01
   7150.33  5.9826988E-01
   7150.67  5.9829646E-01
   7151.00  5.9733724E-01
   7151.33  5.9522852E-01
   7151.67  5.9205963E-01
   7152.00  5.8778960E-01
   7152.33  5.8221601E-01
   7152.67  5.7542468E-01
   7153.00  5.6737187E-01
   7153.33  5.5786122E-01
   7153.67  5.4704940E-01
   7154.00  5.3496394E-01
   7154.33  5.2152972E-01
   7154.67  5.0702107E-01
   7155.00  4.9158781E-01
   7155.33  4.7535400E-01
   7155.67  4.5864795E-01
   7156.00  4.4169148E-01
   7156.33  4.2474692E-01
   7156.67  4.0806614E-01
   7157.00  3.9185381E-01
   7157.33  3.7641029E-01
   7157.67  3.6183500E-01
   7158.00  3.4825922E-01
   7158.33  3.3593873E-01
   7158.67  3.2481110E-01
   7159.00  3.1491421E-01
   7159.33  3.0641996E-01
   7159.67  2.9916539E-01
   7160.00  2.9312975E-01
   7160.33  2.8842314E-01
   7160.67  2.8485217E-01
   7161.00  2.8237496E-01
   7161.33  2.8106926E-01
   7161.67  2.8074801E-01
   7162.00  2.8135992E-01
   7162.33  2.8294673E-01
   7162.67  2.8532203E-01
   7163.00  2.8840756E-01
   7163.33  2.9216909E-01
   7163.67  2.9639771E-01
   7164.00  3.0096718E-01
   7164.33  3.0574754E-01
   7164.67  3.1057481E-01
   7165.00  3.1534436E-01
   7165.33  3.1993271E-01
   7165.67  3.2428284E-01
   7166.00  3.2835242E-01
   7166.33  3.3208258E-01
   7166.67  3.3551687E-01
   7167.00  3.3867718E-01
   7167.33  3.4157389E-01
   7167.67  3.4428465E-01
   7168.00  3.4685230E-01
   7168.33  3.4931210E-01
   7168.67  3.5171826E-01
   7169.00  3.5410139E-01
   7169.33  3.5648976E-01
   7169.67  3.5890108E-01
   7170.00  3.6134324E-01
   7170.33  3.6381890E-01
   7170.67  3.6630898E-01
   7171.00  3.6878404E-01
   7171.33  3.7116788E-01
   7171.67  3.7334418E-01
   7172.00  3.7514482E-01
