    FDMNES
    energy     <xanes>
   7097.00  5.3170605E-03
   7097.33  5.4436556E-03
   7097.67  5.5759583E-03
   7098.00  5.7143518E-03
   7098.33  5.8601528E-03
   7098.67  6.0130883E-03
   7099.00  6.1736811E-03
   7099.33  6.3436524E-03
   7099.67  6.5227243E-03
   7100.00  6.7116303E-03
   7100.33  6.9126827E-03
   7100.67  7.1256276E-03
   7101.00  7.3515292E-03
   7101.33  7.5935972E-03
   7101.67  7.8516674E-03
   7102.00  8.1273463E-03
   7102.33  8.4252721E-03
   7102.67  8.7455174E-03
   7103.00  9.0906294E-03
   7103.33  9.4676524E-03
   7103.67  9.8772381E-03
   7104.00  1.0323678E-02
   7104.33  1.0818367E-02
   7104.67  1.1363379E-02
   7105.00  1.1966527E-02
   7105.33  1.2647814E-02
   7105.67  1.3413011E-02
   7106.00  1.4277859E-02
   7106.33  1.5281548E-02
   7106.67  1.6440503E-02
   7107.00  1.7791185E-02
   7107.33  1.9423194E-02
   7107.67  2.1389186E-02
   7108.00  2.3792567E-02
   7108.33  2.6891457E-02
   7108.67  3.0898933E-02
   7109.00  3.6217247E-02
   7109.33  4.3924856E-02
   7109.67  5.5313154E-02
   7110.00  7.2935071E-02
   7110.33  1.0409506E-01
   7110.67  1.5496687E-01
   7111.00  2.1903788E-01
   7111.33  2.6374919E-01
   7111.67  2.9007190E-01
   7112.00  3.0088250E-01
   7112.33  2.8669613E-01
   7112.67  2.7123158E-01
   7113.00  2.6975309E-01
   7113.33  2.8167643E-01
   7113.67  2.8144511E-01
   7114.00  2.4698752E-01
   7114.33  2.0111234E-01
   7114.67  1.6847544E-01
   7115.00  1.4711980E-01
   7115.33  1.3241593E-01
   7115.67  1.2341675E-01
   7116.00  1.2090847E-01
   7116.33  1.2518933E-01
   7116.67  1.3484806E-01
   7117.00  1.4964393E-01
   7117.33  1.6991088E-01
   7117.67  1.9416219E-01
   7118.00  2.2096621E-01
   7118.33  2.4858770E-01
   7118.67  2.7564375E-01
   7119.00  3.0084537E-01
   7119.33  3.2157625E-01
   7119.67  3.3755483E-01
   7120.00  3.4970466E-01
   7120.33  3.5968512E-01
   7120.67  3.6969352E-01
   7121.00  3.8109578E-01
   7121.33  3.9527656E-01
   7121.67  4.1233460E-01
   7122.00  4.3188672E-01
   7122.33  4.5236038E-01
   7122.67  4.7123256E-01
   7123.00  4.8782518E-01
   7123.33  5.0370339E-01
   7123.67  5.1986843E-01
   7124.00  5.3555804E-01
   7124.33  5.4960351E-01
   7124.67  5.6175269E-01
   7125.00  5.7158823E-01
   7125.33  5.7816279E-01
   7125.67  5.8175254E-01
   7126.00  5.8296610E-01
   7126.33  5.8287893E-01
   7126.67  5.8290075E-01
   7127.00  5.8407108E-01
   7127.33  5.8794950E-01
   7127.67  5.9515769E-01
   7128.00  6.0579181E-01
   7128.33  6.1959930E-01
   7128.67  6.3523818E-01
   7129.00  6.5178051E-01
   7129.33  6.6820629E-01
   7129.67  6.8368171E-01
   7130.00  6.9763580E-01
   7130.33  7.0932928E-01
   7130.67  7.1864113E-01
   7131.00  7.2527237E-01
   7131.33  7.2857249E-01
   7131.67  7.2879931E-01
   7132.00  7.2598964E-01
   7132.33  7.1995769E-01
   7132.67  7.1137840E-01
   7133.00  7.0063967E-01
   7133.33  6.8810434E-01
   7133.67  6.7460870E-01
   7134.00  6.6071307E-01
   7134.33  6.4705094E-01
   7134.67  6.3409298E-01
   7135.00  6.2213874E-01
   7135.33  6.1151191E-01
   7135.67  6.0204911E-01
   7136.00  5.9358397E-01
   7136.33  5.8586013E-01
   7136.67  5.7845351E-01
   7137.00  5.7115332E-01
   7137.33  5.6383822E-01
   7137.67  5.5653654E-01
   7138.00  5.4936385E-01
   7138.33  5.4253564E-01
   7138.67  5.3615881E-01
   7139.00  5.3027944E-01
   7139.33  5.2488791E-01
   7139.67  5.1976274E-01
   7140.00  5.1470788E-01
   7140.33  5.0944753E-01
   7140.67  5.0377321E-01
   7141.00  4.9754560E-01
   7141.33  4.9061733E-01
   7141.67  4.8309828E-01
   7142.00  4.7508777E-01
   7142.33  4.6672367E-01
   7142.67  4.5826039E-01
   7143.00  4.4988957E-01
   7143.33  4.4185427E-01
   7143.67  4.3428220E-01
   7144.00  4.2727399E-01
   7144.33  4.2098183E-01
   7144.67  4.1536491E-01
   7145.00  4.1044242E-01
   7145.33  4.0632150E-01
   7145.67  4.0293264E-01
   7146.00  4.0029167E-01
   7146.33  3.9850025E-01
   7146.67  3.9744587E-01
   7147.00  3.9708579E-01
   7147.33  3.9741450E-01
   7147.67  3.9824378E-01
   7148.00  3.9946124E-01
   7148.33  4.0095900E-01
   7148.67  4.0256832E-01
   7149.00  4.0417941E-01
   7149.33  4.0566744E-01
   7149.67  4.0695519E-01
   7150.00  4.0797917E-01
   7150.33  4.0863972E-01
   7150.67  4.0893281E-01
   7151.00  4.0883094E-01
   7151.33  4.0826112E-01
   7151.67  4.0726474E-01
   7152.00  4.0583986E-01
   7152.33  4.0393827E-01
   7152.67  4.0162361E-01
   7153.00  3.9890888E-01
   7153.33  3.9576844E-01
   7153.67  3.9228349E-01
   7154.00  3.8849874E-01
   7154.33  3.8445876E-01
   7154.67  3.8028443E-01
   7155.00  3.7606632E-01
   7155.33  3.7192359E-01
   7155.67  3.6795532E-01
   7156.00  3.6424348E-01
   7156.33  3.6090572E-01
   7156.67  3.5795154E-01
   7157.00  3.5540485E-01
   7157.33  3.5332632E-01
   7157.67  3.5165855E-01
   7158.00  3.5039138E-01
   7158.33  3.4956104E-01
   7158.67  3.4911070E-01
   7159.00  3.4903790E-01
   7159.33  3.4939257E-01
   7159.67  3.5013366E-01
   7160.00  3.5126741E-01
   7160.33  3.5284840E-01
   7160.67  3.5482642E-01
   7161.00  3.5719524E-01
   7161.33  3.5998884E-01
   7161.67  3.6314528E-01
   7162.00  3.6664924E-01
   7162.33  3.7051227E-01
   7162.67  3.7465910E-01
   7163.00  3.7905734E-01
   7163.33  3.8369436E-01
   7163.67  3.8850260E-01
   7164.00  3.9344413E-01
   7164.33  3.9848446E-01
   7164.67  4.0357172E-01
   7165.00  4.0867451E-01
   7165.33  4.1375636E-01
   7165.67  4.1878795E-01
   7166.00  4.2374486E-01
   7166.33  4.2859061E-01
   7166.67  4.3331832E-01
   7167.00  4.3791578E-01
   7167.33  4.4235688E-01
   7167.67  4.4665497E-01
   7168.00  4.5080967E-01
   7168.33  4.5480572E-01
   7168.67  4.5866473E-01
   7169.00  4.6239024E-01
   7169.33  4.6596935E-01
   7169.67  4.6941928E-01
   7170.00  4.7273796E-01
   7170.33  4.7590139E-01
   7170.67  4.7891245E-01
   7171.00  4.8174925E-01
   7171.33  4.8433823E-01
   7171.67  4.8661934E-01
   7172.00  4.8847668E-01
