    FDMNES
    energy     <xanes>
   7097.00  5.1892133E-03
   7097.33  5.3145366E-03
   7097.67  5.4456982E-03
   7098.00  5.5831028E-03
   7098.33  5.7281175E-03
   7098.67  5.8804792E-03
   7099.00  6.0407420E-03
   7099.33  6.2107044E-03
   7099.67  6.3901003E-03
   7100.00  6.5797098E-03
   7100.33  6.7819614E-03
   7100.67  6.9966165E-03
   7101.00  7.2248074E-03
   7101.33  7.4699178E-03
   7101.67  7.7318029E-03
   7102.00  8.0121687E-03
   7102.33  8.3159100E-03
   7102.67  8.6431221E-03
   7103.00  8.9964942E-03
   7103.33  9.3834388E-03
   7103.67  9.8046255E-03
   7104.00  1.0264533E-02
   7104.33  1.0775050E-02
   7104.67  1.1338221E-02
   7105.00  1.1962049E-02
   7105.33  1.2667051E-02
   7105.67  1.3458746E-02
   7106.00  1.4352796E-02
   7106.33  1.5388277E-02
   7106.67  1.6580326E-02
   7107.00  1.7963728E-02
   7107.33  1.9623925E-02
   7107.67  2.1607180E-02
   7108.00  2.4006400E-02
   7108.33  2.7051900E-02
   7108.67  3.0919112E-02
   7109.00  3.5940909E-02
   7109.33  4.2994455E-02
   7109.67  5.3059048E-02
   7110.00  6.8056692E-02
   7110.33  9.3475400E-02
   7110.67  1.3466979E-01
   7111.00  1.9077124E-01
   7111.33  2.4158692E-01
   7111.67  2.8006456E-01
   7112.00  3.1533876E-01
   7112.33  3.5778511E-01
   7112.67  4.0963715E-01
   7113.00  4.6126496E-01
   7113.33  4.7477415E-01
   7113.67  4.3743404E-01
   7114.00  3.7300194E-01
   7114.33  3.1405211E-01
   7114.67  2.7072989E-01
   7115.00  2.4196392E-01
   7115.33  2.2447011E-01
   7115.67  2.1120782E-01
   7116.00  1.9734023E-01
   7116.33  1.8060345E-01
   7116.67  1.6449589E-01
   7117.00  1.5238907E-01
   7117.33  1.4619194E-01
   7117.67  1.4404482E-01
   7118.00  1.4401780E-01
   7118.33  1.4415269E-01
   7118.67  1.4411769E-01
   7119.00  1.4495201E-01
   7119.33  1.4775353E-01
   7119.67  1.5121723E-01
   7120.00  1.5346937E-01
   7120.33  1.5395200E-01
   7120.67  1.5465995E-01
   7121.00  1.5668061E-01
   7121.33  1.6028751E-01
   7121.67  1.6564470E-01
   7122.00  1.7309829E-01
   7122.33  1.8279816E-01
   7122.67  1.9455428E-01
   7123.00  2.0850668E-01
   7123.33  2.2429399E-01
   7123.67  2.4004761E-01
   7124.00  2.5405211E-01
   7124.33  2.6492438E-01
   7124.67  2.7353411E-01
   7125.00  2.8104588E-01
   7125.33  2.8877860E-01
   7125.67  2.9743178E-01
   7126.00  3.0716578E-01
   7126.33  3.1832456E-01
   7126.67  3.3150736E-01
   7127.00  3.4790520E-01
   7127.33  3.6946493E-01
   7127.67  3.9598403E-01
   7128.00  4.2668258E-01
   7128.33  4.6018094E-01
   7128.67  4.9471388E-01
   7129.00  5.3030847E-01
   7129.33  5.6924763E-01
   7129.67  6.1343285E-01
   7130.00  6.6294616E-01
   7130.33  7.1435550E-01
   7130.67  7.6174127E-01
   7131.00  8.0251404E-01
   7131.33  8.3822643E-01
   7131.67  8.7324240E-01
   7132.00  9.0784519E-01
   7132.33  9.3702334E-01
   7132.67  9.5548691E-01
   7133.00  9.6098995E-01
   7133.33  9.5445824E-01
   7133.67  9.4179170E-01
   7134.00  9.2581081E-01
   7134.33  9.0739951E-01
   7134.67  8.8689747E-01
   7135.00  8.6406509E-01
   7135.33  8.3793705E-01
   7135.67  8.0854494E-01
   7136.00  7.7640793E-01
   7136.33  7.4284507E-01
   7136.67  7.0970697E-01
   7137.00  6.7809427E-01
   7137.33  6.4892533E-01
   7137.67  6.2199417E-01
   7138.00  5.9707984E-01
   7138.33  5.7404741E-01
   7138.67  5.5244019E-01
   7139.00  5.3220164E-01
   7139.33  5.1362577E-01
   7139.67  4.9675621E-01
   7140.00  4.8181798E-01
   7140.33  4.6931703E-01
   7140.67  4.5915621E-01
   7141.00  4.5142208E-01
   7141.33  4.4643113E-01
   7141.67  4.4377444E-01
   7142.00  4.4327849E-01
   7142.33  4.4493585E-01
   7142.67  4.4825752E-01
   7143.00  4.5304412E-01
   7143.33  4.5924378E-01
   7143.67  4.6651598E-01
   7144.00  4.7472459E-01
   7144.33  4.8384040E-01
   7144.67  4.9365597E-01
   7145.00  5.0407715E-01
   7145.33  5.1500211E-01
   7145.67  5.2611171E-01
   7146.00  5.3706741E-01
   7146.33  5.4726884E-01
   7146.67  5.5622072E-01
   7147.00  5.6346877E-01
   7147.33  5.6840201E-01
   7147.67  5.7120097E-01
   7148.00  5.7202925E-01
   7148.33  5.7107415E-01
   7148.67  5.6901383E-01
   7149.00  5.6625101E-01
   7149.33  5.6313750E-01
   7149.67  5.5998788E-01
   7150.00  5.5695667E-01
   7150.33  5.5418662E-01
   7150.67  5.5171279E-01
   7151.00  5.4956302E-01
   7151.33  5.4779167E-01
   7151.67  5.4635603E-01
   7152.00  5.4525011E-01
   7152.33  5.4450484E-01
   7152.67  5.4407121E-01
   7153.00  5.4394265E-01
   7153.33  5.4414943E-01
   7153.67  5.4464543E-01
   7154.00  5.4541871E-01
   7154.33  5.4647883E-01
   7154.67  5.4775813E-01
   7155.00  5.4921172E-01
   7155.33  5.5078133E-01
   7155.67  5.5236283E-01
   7156.00  5.5386388E-01
   7156.33  5.5514064E-01
   7156.67  5.5609409E-01
   7157.00  5.5662018E-01
   7157.33  5.5653992E-01
   7157.67  5.5582555E-01
   7158.00  5.5441245E-01
   7158.33  5.5215691E-01
   7158.67  5.4913679E-01
   7159.00  5.4536708E-01
   7159.33  5.4081149E-01
   7159.67  5.3564284E-01
   7160.00  5.2995853E-01
   7160.33  5.2384838E-01
   7160.67  5.1751393E-01
   7161.00  5.1109426E-01
   7161.33  5.0474969E-01
   7161.67  4.9860317E-01
   7162.00  4.9275317E-01
   7162.33  4.8733550E-01
   7162.67  4.8235656E-01
   7163.00  4.7783920E-01
   7163.33  4.7384715E-01
   7163.67  4.7031406E-01
   7164.00  4.6722833E-01
   7164.33  4.6462926E-01
   7164.67  4.6244838E-01
   7165.00  4.6067248E-01
   7165.33  4.5933049E-01
   7165.67  4.5834706E-01
   7166.00  4.5768929E-01
   7166.33  4.5733984E-01
   7166.67  4.5719910E-01
   7167.00  4.5720133E-01
   7167.33  4.5726854E-01
   7167.67  4.5730376E-01
   7168.00  4.5723369E-01
   7168.33  4.5696518E-01
   7168.67  4.5646465E-01
   7169.00  4.5569845E-01
   7169.33  4.5461230E-01
   7169.67  4.5324495E-01
   7170.00  4.5161511E-01
   7170.33  4.4973296E-01
   7170.67  4.4768266E-01
   7171.00  4.4552946E-01
   7171.33  4.4337890E-01
   7171.67  4.4138654E-01
   7172.00  4.3973062E-01
