    FDMNES
    energy     <xanes>
   7097.00  5.1455473E-03
   7097.33  5.2685927E-03
   7097.67  5.3973036E-03
   7098.00  5.5320667E-03
   7098.33  5.6741984E-03
   7098.67  5.8234347E-03
   7099.00  5.9803023E-03
   7099.33  6.1465244E-03
   7099.67  6.3218301E-03
   7100.00  6.5069558E-03
   7100.33  6.7042144E-03
   7100.67  6.9133535E-03
   7101.00  7.1354342E-03
   7101.33  7.3736549E-03
   7101.67  7.6278383E-03
   7102.00  7.8995684E-03
   7102.33  8.1934296E-03
   7102.67  8.5094442E-03
   7103.00  8.8500805E-03
   7103.33  9.2222027E-03
   7103.67  9.6263145E-03
   7104.00  1.0066471E-02
   7104.33  1.0553523E-02
   7104.67  1.1089126E-02
   7105.00  1.1680400E-02
   7105.33  1.2345741E-02
   7105.67  1.3089672E-02
   7106.00  1.3925835E-02
   7106.33  1.4888450E-02
   7106.67  1.5989851E-02
   7107.00  1.7259492E-02
   7107.33  1.8769921E-02
   7107.67  2.0558043E-02
   7108.00  2.2699634E-02
   7108.33  2.5382101E-02
   7108.67  2.8740330E-02
   7109.00  3.3032012E-02
   7109.33  3.8928999E-02
   7109.67  4.7143751E-02
   7110.00  5.9067697E-02
   7110.33  7.8660727E-02
   7110.67  1.1012858E-01
   7111.00  1.5512497E-01
   7111.33  2.0411930E-01
   7111.67  2.4774062E-01
   7112.00  2.8741648E-01
   7112.33  3.2691270E-01
   7112.67  3.6351150E-01
   7113.00  3.9922163E-01
   7113.33  4.4097282E-01
   7113.67  4.7307171E-01
   7114.00  4.7045685E-01
   7114.33  4.2426588E-01
   7114.67  3.6552086E-01
   7115.00  3.1312172E-01
   7115.33  2.7534341E-01
   7115.67  2.4919286E-01
   7116.00  2.3156716E-01
   7116.33  2.1822746E-01
   7116.67  2.0419218E-01
   7117.00  1.8760612E-01
   7117.33  1.7018463E-01
   7117.67  1.5622131E-01
   7118.00  1.4793315E-01
   7118.33  1.4571286E-01
   7118.67  1.4658220E-01
   7119.00  1.4829980E-01
   7119.33  1.4978373E-01
   7119.67  1.5155722E-01
   7120.00  1.5437402E-01
   7120.33  1.5910098E-01
   7120.67  1.6500900E-01
   7121.00  1.7034679E-01
   7121.33  1.7219123E-01
   7121.67  1.7010057E-01
   7122.00  1.6585013E-01
   7122.33  1.6251195E-01
   7122.67  1.6140607E-01
   7123.00  1.6260789E-01
   7123.33  1.6589663E-01
   7123.67  1.7065402E-01
   7124.00  1.7713356E-01
   7124.33  1.8644960E-01
   7124.67  1.9913386E-01
   7125.00  2.1583344E-01
   7125.33  2.3723120E-01
   7125.67  2.6110217E-01
   7126.00  2.8446630E-01
   7126.33  3.0477146E-01
   7126.67  3.2350100E-01
   7127.00  3.4259655E-01
   7127.33  3.6326996E-01
   7127.67  3.8489733E-01
   7128.00  4.0673725E-01
   7128.33  4.2847757E-01
   7128.67  4.5045562E-01
   7129.00  4.7323683E-01
   7129.33  4.9774809E-01
   7129.67  5.2420471E-01
   7130.00  5.5257993E-01
   7130.33  5.8300887E-01
   7130.67  6.1566626E-01
   7131.00  6.5141066E-01
   7131.33  6.9183959E-01
   7131.67  7.3675079E-01
   7132.00  7.8536524E-01
   7132.33  8.3606694E-01
   7132.67  8.8683492E-01
   7133.00  9.3662344E-01
   7133.33  9.8347017E-01
   7133.67  1.0240020E+00
   7134.00  1.0529554E+00
   7134.33  1.0610174E+00
   7134.67  1.0461713E+00
   7135.00  1.0095270E+00
   7135.33  9.5618498E-01
   7135.67  8.9718940E-01
   7136.00  8.3874749E-01
   7136.33  7.8513317E-01
   7136.67  7.3677737E-01
   7137.00  6.9350957E-01
   7137.33  6.5547688E-01
   7137.67  6.2175867E-01
   7138.00  5.9216102E-01
   7138.33  5.6697016E-01
   7138.67  5.4545141E-01
   7139.00  5.2734553E-01
   7139.33  5.1268089E-01
   7139.67  5.0068516E-01
   7140.00  4.9101959E-01
   7140.33  4.8357550E-01
   7140.67  4.7784260E-01
   7141.00  4.7368406E-01
   7141.33  4.7119973E-01
   7141.67  4.7013874E-01
   7142.00  4.7042586E-01
   7142.33  4.7208678E-01
   7142.67  4.7480264E-01
   7143.00  4.7841799E-01
   7143.33  4.8286240E-01
   7143.67  4.8792026E-01
   7144.00  4.9352015E-01
   7144.33  4.9967358E-01
   7144.67  5.0628880E-01
   7145.00  5.1332338E-01
   7145.33  5.2069201E-01
   7145.67  5.2811012E-01
   7146.00  5.3524938E-01
   7146.33  5.4152432E-01
   7146.67  5.4651661E-01
   7147.00  5.4986844E-01
   7147.33  5.5114991E-01
   7147.67  5.5068389E-01
   7148.00  5.4876321E-01
   7148.33  5.4575670E-01
   7148.67  5.4230593E-01
   7149.00  5.3880122E-01
   7149.33  5.3561322E-01
   7149.67  5.3290569E-01
   7150.00  5.3075476E-01
   7150.33  5.2924020E-01
   7150.67  5.2825032E-01
   7151.00  5.2773100E-01
   7151.33  5.2766140E-01
   7151.67  5.2792223E-01
   7152.00  5.2846052E-01
   7152.33  5.2925402E-01
   7152.67  5.3023720E-01
   7153.00  5.3138898E-01
   7153.33  5.3271513E-01
   7153.67  5.3419112E-01
   7154.00  5.3581624E-01
   7154.33  5.3760860E-01
   7154.67  5.3954573E-01
   7155.00  5.4161977E-01
   7155.33  5.4383009E-01
   7155.67  5.4613709E-01
   7156.00  5.4851207E-01
   7156.33  5.5091616E-01
   7156.67  5.5329487E-01
   7157.00  5.5559734E-01
   7157.33  5.5773988E-01
   7157.67  5.5966856E-01
   7158.00  5.6131875E-01
   7158.33  5.6256962E-01
   7158.67  5.6339048E-01
   7159.00  5.6372001E-01
   7159.33  5.6342425E-01
   7159.67  5.6252233E-01
   7160.00  5.6098788E-01
   7160.33  5.5873089E-01
   7160.67  5.5584333E-01
   7161.00  5.5235323E-01
   7161.33  5.4824593E-01
   7161.67  5.4366280E-01
   7162.00  5.3867319E-01
   7162.33  5.3331476E-01
   7162.67  5.2771234E-01
   7163.00  5.2194106E-01
   7163.33  5.1607347E-01
   7163.67  5.1019773E-01
   7164.00  5.0437604E-01
   7164.33  4.9869220E-01
   7164.67  4.9319528E-01
   7165.00  4.8793670E-01
   7165.33  4.8300691E-01
   7165.67  4.7841493E-01
   7166.00  4.7419175E-01
   7166.33  4.7041165E-01
   7166.67  4.6703657E-01
   7167.00  4.6406439E-01
   7167.33  4.6152868E-01
   7167.67  4.5935403E-01
   7168.00  4.5750883E-01
   7168.33  4.5598429E-01
   7168.67  4.5469643E-01
   7169.00  4.5360415E-01
   7169.33  4.5267828E-01
   7169.67  4.5185558E-01
   7170.00  4.5110427E-01
   7170.33  4.5040287E-01
   7170.67  4.4973054E-01
   7171.00  4.4908372E-01
   7171.33  4.4847412E-01
   7171.67  4.4792007E-01
   7172.00  4.4745197E-01
