    FDMNES
    energy     <xanes>
   7097.00  5.1857995E-03
   7097.33  5.3143422E-03
   7097.67  5.4490051E-03
   7098.00  5.5902193E-03
   7098.33  5.7394299E-03
   7098.67  5.8963703E-03
   7099.00  6.0616334E-03
   7099.33  6.2371276E-03
   7099.67  6.4225868E-03
   7100.00  6.6188483E-03
   7100.33  6.8285008E-03
   7100.67  7.0513124E-03
   7101.00  7.2885040E-03
   7101.33  7.5437004E-03
   7101.67  7.8167783E-03
   7102.00  8.1095872E-03
   7102.33  8.4273996E-03
   7102.67  8.7703670E-03
   7103.00  9.1414214E-03
   7103.33  9.5485999E-03
   7103.67  9.9927087E-03
   7104.00  1.0478667E-02
   7104.33  1.1019466E-02
   7104.67  1.1617486E-02
   7105.00  1.2281598E-02
   7105.33  1.3034457E-02
   7105.67  1.3882445E-02
   7106.00  1.4843146E-02
   7106.33  1.5960296E-02
   7106.67  1.7251528E-02
   7107.00  1.8756561E-02
   7107.33  2.0572865E-02
   7107.67  2.2755146E-02
   7108.00  2.5412002E-02
   7108.33  2.8813109E-02
   7108.67  3.3170431E-02
   7109.00  3.8884429E-02
   7109.33  4.7014795E-02
   7109.67  5.8770704E-02
   7110.00  7.6532431E-02
   7110.33  1.0725667E-01
   7110.67  1.5912167E-01
   7111.00  2.3563077E-01
   7111.33  2.9935410E-01
   7111.67  3.1309689E-01
   7112.00  3.0884693E-01
   7112.33  3.1705988E-01
   7112.67  3.4623631E-01
   7113.00  3.9229582E-01
   7113.33  4.3907905E-01
   7113.67  4.7243904E-01
   7114.00  4.6321130E-01
   7114.33  3.9760105E-01
   7114.67  3.2682460E-01
   7115.00  2.7521208E-01
   7115.33  2.5080837E-01
   7115.67  2.4761753E-01
   7116.00  2.5689015E-01
   7116.33  2.5628710E-01
   7116.67  2.3711790E-01
   7117.00  2.1102566E-01
   7117.33  1.8955430E-01
   7117.67  1.7312693E-01
   7118.00  1.6025063E-01
   7118.33  1.5017986E-01
   7118.67  1.4224398E-01
   7119.00  1.3614514E-01
   7119.33  1.3154968E-01
   7119.67  1.2784121E-01
   7120.00  1.2491593E-01
   7120.33  1.2316859E-01
   7120.67  1.2277650E-01
   7121.00  1.2365525E-01
   7121.33  1.2542542E-01
   7121.67  1.2762768E-01
   7122.00  1.3053918E-01
   7122.33  1.3496925E-01
   7122.67  1.4027812E-01
   7123.00  1.4542071E-01
   7123.33  1.5103407E-01
   7123.67  1.5886037E-01
   7124.00  1.6972702E-01
   7124.33  1.8458747E-01
   7124.67  2.0360286E-01
   7125.00  2.2717664E-01
   7125.33  2.5538014E-01
   7125.67  2.8554979E-01
   7126.00  3.1487912E-01
   7126.33  3.4040487E-01
   7126.67  3.6133331E-01
   7127.00  3.7682749E-01
   7127.33  3.8575930E-01
   7127.67  3.9075401E-01
   7128.00  3.9552721E-01
   7128.33  4.0574812E-01
   7128.67  4.2474232E-01
   7129.00  4.5428538E-01
   7129.33  4.9560354E-01
   7129.67  5.4486815E-01
   7130.00  5.9857839E-01
   7130.33  6.5295096E-01
   7130.67  7.0558783E-01
   7131.00  7.5567032E-01
   7131.33  8.0216677E-01
   7131.67  8.4396297E-01
   7132.00  8.7871764E-01
   7132.33  9.0237408E-01
   7132.67  9.1504935E-01
   7133.00  9.1755350E-01
   7133.33  9.1072405E-01
   7133.67  8.9728860E-01
   7134.00  8.7825352E-01
   7134.33  8.5390387E-01
   7134.67  8.2570168E-01
   7135.00  7.9452092E-01
   7135.33  7.6128127E-01
   7135.67  7.2739628E-01
   7136.00  6.9382929E-01
   7136.33  6.6174462E-01
   7136.67  6.3182725E-01
   7137.00  6.0469097E-01
   7137.33  5.8135133E-01
   7137.67  5.6186389E-01
   7138.00  5.4654573E-01
   7138.33  5.3616643E-01
   7138.67  5.3012955E-01
   7139.00  5.2804703E-01
   7139.33  5.2928872E-01
   7139.67  5.3194861E-01
   7140.00  5.3455716E-01
   7140.33  5.3558662E-01
   7140.67  5.3468066E-01
   7141.00  5.3208730E-01
   7141.33  5.2849739E-01
   7141.67  5.2495027E-01
   7142.00  5.2210104E-01
   7142.33  5.2058784E-01
   7142.67  5.2048168E-01
   7143.00  5.2182288E-01
   7143.33  5.2473044E-01
   7143.67  5.2891580E-01
   7144.00  5.3427387E-01
   7144.33  5.4083046E-01
   7144.67  5.4836275E-01
   7145.00  5.5680133E-01
   7145.33  5.6616510E-01
   7145.67  5.7624857E-01
   7146.00  5.8693315E-01
   7146.33  5.9807009E-01
   7146.67  6.0931867E-01
   7147.00  6.2035838E-01
   7147.33  6.3067152E-01
   7147.67  6.3985057E-01
   7148.00  6.4748082E-01
   7148.33  6.5292765E-01
   7148.67  6.5620743E-01
   7149.00  6.5728127E-01
   7149.33  6.5601020E-01
   7149.67  6.5291659E-01
   7150.00  6.4829885E-01
   7150.33  6.4239087E-01
   7150.67  6.3570166E-01
   7151.00  6.2851459E-01
   7151.33  6.2109529E-01
   7151.67  6.1372188E-01
   7152.00  6.0658182E-01
   7152.33  5.9991437E-01
   7152.67  5.9382220E-01
   7153.00  5.8841409E-01
   7153.33  5.8388663E-01
   7153.67  5.8020984E-01
   7154.00  5.7741498E-01
   7154.33  5.7561881E-01
   7154.67  5.7468506E-01
   7155.00  5.7456711E-01
   7155.33  5.7527392E-01
   7155.67  5.7660425E-01
   7156.00  5.7844649E-01
   7156.33  5.8070107E-01
   7156.67  5.8316587E-01
   7157.00  5.8570217E-01
   7157.33  5.8814025E-01
   7157.67  5.9034438E-01
   7158.00  5.9220296E-01
   7158.33  5.9355004E-01
   7158.67  5.9435899E-01
   7159.00  5.9458006E-01
   7159.33  5.9410274E-01
   7159.67  5.9299621E-01
   7160.00  5.9127013E-01
   7160.33  5.8887724E-01
   7160.67  5.8592919E-01
   7161.00  5.8246286E-01
   7161.33  5.7846360E-01
   7161.67  5.7403313E-01
   7162.00  5.6920406E-01
   7162.33  5.6396029E-01
   7162.67  5.5837172E-01
   7163.00  5.5245492E-01
   7163.33  5.4618806E-01
   7163.67  5.3962804E-01
   7164.00  5.3279200E-01
   7164.33  5.2567001E-01
   7164.67  5.1831903E-01
   7165.00  5.1076594E-01
   7165.33  5.0302897E-01
   7165.67  4.9517466E-01
   7166.00  4.8724858E-01
   7166.33  4.7930656E-01
   7166.67  4.7140916E-01
   7167.00  4.6360599E-01
   7167.33  4.5597085E-01
   7167.67  4.4853660E-01
   7168.00  4.4134631E-01
   7168.33  4.3448192E-01
   7168.67  4.2794331E-01
   7169.00  4.2175633E-01
   7169.33  4.1599013E-01
   7169.67  4.1061230E-01
   7170.00  4.0563180E-01
   7170.33  4.0110811E-01
   7170.67  3.9699889E-01
   7171.00  3.9331399E-01
   7171.33  3.9013106E-01
   7171.67  3.8744027E-01
   7172.00  3.8530157E-01
