    FDMNES
    energy     <xanes>
   7097.00  5.2559247E-03
   7097.33  5.3802364E-03
   7097.67  5.5102087E-03
   7098.00  5.6462228E-03
   7098.33  5.7895853E-03
   7098.67  5.9400247E-03
   7099.00  6.0980581E-03
   7099.33  6.2653884E-03
   7099.67  6.4417341E-03
   7100.00  6.6278146E-03
   7100.33  6.8259043E-03
   7100.67  7.0357348E-03
   7101.00  7.2583362E-03
   7101.33  7.4968363E-03
   7101.67  7.7510304E-03
   7102.00  8.0224464E-03
   7102.33  8.3155374E-03
   7102.67  8.6302761E-03
   7103.00  8.9690252E-03
   7103.33  9.3384000E-03
   7103.67  9.7388063E-03
   7104.00  1.0174091E-02
   7104.33  1.0654616E-02
   7104.67  1.1181825E-02
   7105.00  1.1762404E-02
   7105.33  1.2413721E-02
   7105.67  1.3139798E-02
   7106.00  1.3953283E-02
   7106.33  1.4886047E-02
   7106.67  1.5949050E-02
   7107.00  1.7169170E-02
   7107.33  1.8612750E-02
   7107.67  2.0312207E-02
   7108.00  2.2335111E-02
   7108.33  2.4848283E-02
   7108.67  2.7967062E-02
   7109.00  3.1912654E-02
   7109.33  3.7256283E-02
   7109.67  4.4576451E-02
   7110.00  5.4995292E-02
   7110.33  7.1693028E-02
   7110.67  9.8357935E-02
   7111.00  1.3851992E-01
   7111.33  1.9089781E-01
   7111.67  2.4498195E-01
   7112.00  2.9332566E-01
   7112.33  3.2443444E-01
   7112.67  3.3609165E-01
   7113.00  3.4448612E-01
   7113.33  3.6962881E-01
   7113.67  4.0430552E-01
   7114.00  4.2933837E-01
   7114.33  4.2399557E-01
   7114.67  3.9528509E-01
   7115.00  3.5637576E-01
   7115.33  3.2075724E-01
   7115.67  2.9438259E-01
   7116.00  2.7881697E-01
   7116.33  2.7510182E-01
   7116.67  2.7950269E-01
   7117.00  2.8715434E-01
   7117.33  2.8992750E-01
   7117.67  2.8461477E-01
   7118.00  2.7287883E-01
   7118.33  2.5758980E-01
   7118.67  2.4104720E-01
   7119.00  2.2433100E-01
   7119.33  2.0906718E-01
   7119.67  1.9620941E-01
   7120.00  1.8577906E-01
   7120.33  1.7682971E-01
   7120.67  1.6764729E-01
   7121.00  1.5764100E-01
   7121.33  1.4772880E-01
   7121.67  1.3947638E-01
   7122.00  1.3370336E-01
   7122.33  1.3097131E-01
   7122.67  1.3084919E-01
   7123.00  1.3320981E-01
   7123.33  1.3819189E-01
   7123.67  1.4540849E-01
   7124.00  1.5491856E-01
   7124.33  1.6730326E-01
   7124.67  1.8252534E-01
   7125.00  2.0067923E-01
   7125.33  2.2204166E-01
   7125.67  2.4603365E-01
   7126.00  2.7237661E-01
   7126.33  3.0081346E-01
   7126.67  3.3017603E-01
   7127.00  3.5918440E-01
   7127.33  3.8598599E-01
   7127.67  4.0965578E-01
   7128.00  4.2984387E-01
   7128.33  4.4651203E-01
   7128.67  4.6098447E-01
   7129.00  4.7432951E-01
   7129.33  4.8775688E-01
   7129.67  5.0205782E-01
   7130.00  5.1754261E-01
   7130.33  5.3449426E-01
   7130.67  5.5277925E-01
   7131.00  5.7245772E-01
   7131.33  5.9386593E-01
   7131.67  6.1690927E-01
   7132.00  6.4149392E-01
   7132.33  6.6733147E-01
   7132.67  6.9352933E-01
   7133.00  7.1928742E-01
   7133.33  7.4350062E-01
   7133.67  7.6554692E-01
   7134.00  7.8490292E-01
   7134.33  8.0072082E-01
   7134.67  8.1301819E-01
   7135.00  8.2146337E-01
   7135.33  8.2509195E-01
   7135.67  8.2402382E-01
   7136.00  8.1802453E-01
   7136.33  8.0651760E-01
   7136.67  7.9061174E-01
   7137.00  7.7112796E-01
   7137.33  7.4911638E-01
   7137.67  7.2640310E-01
   7138.00  7.0429403E-01
   7138.33  6.8428953E-01
   7138.67  6.6697155E-01
   7139.00  6.5262832E-01
   7139.33  6.4154602E-01
   7139.67  6.3301029E-01
   7140.00  6.2664626E-01
   7140.33  6.2227987E-01
   7140.67  6.1937843E-01
   7141.00  6.1773366E-01
   7141.33  6.1728607E-01
   7141.67  6.1773439E-01
   7142.00  6.1892600E-01
   7142.33  6.2071739E-01
   7142.67  6.2278801E-01
   7143.00  6.2488621E-01
   7143.33  6.2665248E-01
   7143.67  6.2778815E-01
   7144.00  6.2801432E-01
   7144.33  6.2689346E-01
   7144.67  6.2435635E-01
   7145.00  6.2029071E-01
   7145.33  6.1447589E-01
   7145.67  6.0719784E-01
   7146.00  5.9862288E-01
   7146.33  5.8889867E-01
   7146.67  5.7848633E-01
   7147.00  5.6769278E-01
   7147.33  5.5686835E-01
   7147.67  5.4633658E-01
   7148.00  5.3630958E-01
   7148.33  5.2703059E-01
   7148.67  5.1852427E-01
   7149.00  5.1085802E-01
   7149.33  5.0419330E-01
   7149.67  4.9844123E-01
   7150.00  4.9360294E-01
   7150.33  4.8977815E-01
   7150.67  4.8683056E-01
   7151.00  4.8473281E-01
   7151.33  4.8354301E-01
   7151.67  4.8310010E-01
   7152.00  4.8334253E-01
   7152.33  4.8427167E-01
   7152.67  4.8573171E-01
   7153.00  4.8764897E-01
   7153.33  4.8997902E-01
   7153.67  4.9258400E-01
   7154.00  4.9538645E-01
   7154.33  4.9831632E-01
   7154.67  5.0128642E-01
   7155.00  5.0424577E-01
   7155.33  5.0714380E-01
   7155.67  5.0996047E-01
   7156.00  5.1268374E-01
   7156.33  5.1529685E-01
   7156.67  5.1781652E-01
   7157.00  5.2025203E-01
   7157.33  5.2260888E-01
   7157.67  5.2491039E-01
   7158.00  5.2716731E-01
   7158.33  5.2938434E-01
   7158.67  5.3157028E-01
   7159.00  5.3372440E-01
   7159.33  5.3583561E-01
   7159.67  5.3789710E-01
   7160.00  5.3989628E-01
   7160.33  5.4180694E-01
   7160.67  5.4361974E-01
   7161.00  5.4531665E-01
   7161.33  5.4685761E-01
   7161.67  5.4823674E-01
   7162.00  5.4943573E-01
   7162.33  5.5040928E-01
   7162.67  5.5115474E-01
   7163.00  5.5164340E-01
   7163.33  5.5182061E-01
   7163.67  5.5171108E-01
   7164.00  5.5130868E-01
   7164.33  5.5057217E-01
   7164.67  5.4953912E-01
   7165.00  5.4821367E-01
   7165.33  5.4656963E-01
   7165.67  5.4465741E-01
   7166.00  5.4249428E-01
   7166.33  5.4007539E-01
   7166.67  5.3745592E-01
   7167.00  5.3466228E-01
   7167.33  5.3171333E-01
   7167.67  5.2866328E-01
   7168.00  5.2554032E-01
   7168.33  5.2236518E-01
   7168.67  5.1916374E-01
   7169.00  5.1595017E-01
   7169.33  5.1273999E-01
   7169.67  5.0954685E-01
   7170.00  5.0638237E-01
   7170.33  5.0326732E-01
   7170.67  5.0021866E-01
   7171.00  4.9726806E-01
   7171.33  4.9450123E-01
   7171.67  4.9202048E-01
   7172.00  4.8998844E-01
