    FDMNES
    energy     <xanes>
   7097.00  4.6855162E-03
   7097.33  4.7874226E-03
   7097.67  4.8936262E-03
   7098.00  5.0044076E-03
   7098.33  5.1207459E-03
   7098.67  5.2424267E-03
   7099.00  5.3698335E-03
   7099.33  5.5042429E-03
   7099.67  5.6454388E-03
   7100.00  5.7939610E-03
   7100.33  5.9515241E-03
   7100.67  6.1179339E-03
   7101.00  6.2939789E-03
   7101.33  6.4820453E-03
   7101.67  6.6820147E-03
   7102.00  6.8950896E-03
   7102.33  7.1247398E-03
   7102.67  7.3710450E-03
   7103.00  7.6359383E-03
   7103.33  7.9247464E-03
   7103.67  8.2380351E-03
   7104.00  8.5791208E-03
   7104.33  8.9567604E-03
   7104.67  9.3727260E-03
   7105.00  9.8331945E-03
   7105.33  1.0353887E-02
   7105.67  1.0939754E-02
   7106.00  1.1603595E-02
   7106.33  1.2377119E-02
   7106.67  1.3274602E-02
   7107.00  1.4326665E-02
   7107.33  1.5608376E-02
   7107.67  1.7166348E-02
   7108.00  1.9090425E-02
   7108.33  2.1605010E-02
   7108.67  2.4902011E-02
   7109.00  2.9340875E-02
   7109.33  3.5886145E-02
   7109.67  4.5707425E-02
   7110.00  6.1114682E-02
   7110.33  8.8853964E-02
   7110.67  1.3614999E-01
   7111.00  2.0314564E-01
   7111.33  2.5737279E-01
   7111.67  2.6358759E-01
   7112.00  2.2232377E-01
   7112.33  1.7117732E-01
   7112.67  1.3476934E-01
   7113.00  1.1217473E-01
   7113.33  9.9642890E-02
   7113.67  9.2803548E-02
   7114.00  8.9765787E-02
   7114.33  8.8314996E-02
   7114.67  8.6497083E-02
   7115.00  8.3893395E-02
   7115.33  8.0988068E-02
   7115.67  7.8724008E-02
   7116.00  7.7723005E-02
   7116.33  7.8638546E-02
   7116.67  8.1569546E-02
   7117.00  8.6826121E-02
   7117.33  9.5103840E-02
   7117.67  1.0614577E-01
   7118.00  1.1936109E-01
   7118.33  1.3278749E-01
   7118.67  1.4497810E-01
   7119.00  1.5627536E-01
   7119.33  1.6689310E-01
   7119.67  1.7836448E-01
   7120.00  1.9346140E-01
   7120.33  2.1534283E-01
   7120.67  2.4279787E-01
   7121.00  2.7216522E-01
   7121.33  2.9613439E-01
   7121.67  3.1294735E-01
   7122.00  3.2664424E-01
   7122.33  3.4324111E-01
   7122.67  3.6480121E-01
   7123.00  3.9158747E-01
   7123.33  4.2434414E-01
   7123.67  4.6257599E-01
   7124.00  5.0589450E-01
   7124.33  5.5247705E-01
   7124.67  5.9724637E-01
   7125.00  6.3487880E-01
   7125.33  6.5994653E-01
   7125.67  6.7363023E-01
   7126.00  6.7671401E-01
   7126.33  6.7086101E-01
   7126.67  6.6250581E-01
   7127.00  6.5443805E-01
   7127.33  6.4552820E-01
   7127.67  6.3412786E-01
   7128.00  6.2088732E-01
   7128.33  6.0853123E-01
   7128.67  5.9936189E-01
   7129.00  5.9430148E-01
   7129.33  5.9344011E-01
   7129.67  5.9474239E-01
   7130.00  5.9652431E-01
   7130.33  5.9718569E-01
   7130.67  5.9629613E-01
   7131.00  5.9392862E-01
   7131.33  5.9037974E-01
   7131.67  5.8653155E-01
   7132.00  5.8307446E-01
   7132.33  5.8061663E-01
   7132.67  5.7929709E-01
   7133.00  5.7934777E-01
   7133.33  5.8122878E-01
   7133.67  5.8480929E-01
   7134.00  5.9000900E-01
   7134.33  5.9690323E-01
   7134.67  6.0522647E-01
   7135.00  6.1485464E-01
   7135.33  6.2560743E-01
   7135.67  6.3691110E-01
   7136.00  6.4831299E-01
   7136.33  6.5920219E-01
   7136.67  6.6912244E-01
   7137.00  6.7771358E-01
   7137.33  6.8444937E-01
   7137.67  6.8927601E-01
   7138.00  6.9198226E-01
   7138.33  6.9205670E-01
   7138.67  6.8967757E-01
   7139.00  6.8489811E-01
   7139.33  6.7774740E-01
   7139.67  6.6897295E-01
   7140.00  6.5902389E-01
   7140.33  6.4832686E-01
   7140.67  6.3743125E-01
   7141.00  6.2668248E-01
   7141.33  6.1646979E-01
   7141.67  6.0698342E-01
   7142.00  5.9837348E-01
   7142.33  5.9086113E-01
   7142.67  5.8434603E-01
   7143.00  5.7879224E-01
   7143.33  5.7421697E-01
   7143.67  5.7038418E-01
   7144.00  5.6716722E-01
   7144.33  5.6445874E-01
   7144.67  5.6201948E-01
   7145.00  5.5968006E-01
   7145.33  5.5723031E-01
   7145.67  5.5451143E-01
   7146.00  5.5142334E-01
   7146.33  5.4787375E-01
   7146.67  5.4394432E-01
   7147.00  5.3969144E-01
   7147.33  5.3515586E-01
   7147.67  5.3042986E-01
   7148.00  5.2554728E-01
   7148.33  5.2049839E-01
   7148.67  5.1528175E-01
   7149.00  5.0986584E-01
   7149.33  5.0417679E-01
   7149.67  4.9820487E-01
   7150.00  4.9192733E-01
   7150.33  4.8529543E-01
   7150.67  4.7835189E-01
   7151.00  4.7111115E-01
   7151.33  4.6357328E-01
   7151.67  4.5581970E-01
   7152.00  4.4790128E-01
   7152.33  4.3987267E-01
   7152.67  4.3181870E-01
   7153.00  4.2380183E-01
   7153.33  4.1590253E-01
   7153.67  4.0816532E-01
   7154.00  4.0062924E-01
   7154.33  3.9335502E-01
   7154.67  3.8633351E-01
   7155.00  3.7957633E-01
   7155.33  3.7312862E-01
   7155.67  3.6696761E-01
   7156.00  3.6110626E-01
   7156.33  3.5560290E-01
   7156.67  3.5043951E-01
   7157.00  3.4563814E-01
   7157.33  3.4127714E-01
   7157.67  3.3734004E-01
   7158.00  3.3385586E-01
   7158.33  3.3091828E-01
   7158.67  3.2849729E-01
   7159.00  3.2661544E-01
   7159.33  3.2535998E-01
   7159.67  3.2466813E-01
   7160.00  3.2453660E-01
   7160.33  3.2501936E-01
   7160.67  3.2602465E-01
   7161.00  3.2752648E-01
   7161.33  3.2954315E-01
   7161.67  3.3197414E-01
   7162.00  3.3478819E-01
   7162.33  3.3799751E-01
   7162.67  3.4152698E-01
   7163.00  3.4534694E-01
   7163.33  3.4944989E-01
   7163.67  3.5376123E-01
   7164.00  3.5824120E-01
   7164.33  3.6285785E-01
   7164.67  3.6755160E-01
   7165.00  3.7228989E-01
   7165.33  3.7704778E-01
   7165.67  3.8180973E-01
   7166.00  3.8657481E-01
   7166.33  3.9135289E-01
   7166.67  3.9615560E-01
   7167.00  4.0099323E-01
   7167.33  4.0587821E-01
   7167.67  4.1080371E-01
   7168.00  4.1575969E-01
   7168.33  4.2072551E-01
   7168.67  4.2566831E-01
   7169.00  4.3055446E-01
   7169.33  4.3532803E-01
   7169.67  4.3995622E-01
   7170.00  4.4440004E-01
   7170.33  4.4858672E-01
   7170.67  4.5250154E-01
   7171.00  4.5610540E-01
   7171.33  4.5929583E-01
   7171.67  4.6203269E-01
   7172.00  4.6421380E-01
