    FDMNES
    energy     <xanes>
   7097.00  4.4450686E-03
   7097.33  4.5388180E-03
   7097.67  4.6362810E-03
   7098.00  4.7376831E-03
   7098.33  4.8438412E-03
   7098.67  4.9545462E-03
   7099.00  5.0701001E-03
   7099.33  5.1915478E-03
   7099.67  5.3186708E-03
   7100.00  5.4518856E-03
   7100.33  5.5925656E-03
   7100.67  5.7404974E-03
   7101.00  5.8962764E-03
   7101.33  6.0617694E-03
   7101.67  6.2368027E-03
   7102.00  6.4222646E-03
   7102.33  6.6208019E-03
   7102.67  6.8323607E-03
   7103.00  7.0583388E-03
   7103.33  7.3026959E-03
   7103.67  7.5656895E-03
   7104.00  7.8496718E-03
   7104.33  8.1609922E-03
   7104.67  8.5007061E-03
   7105.00  8.8731287E-03
   7105.33  9.2894196E-03
   7105.67  9.7527869E-03
   7106.00  1.0272102E-02
   7106.33  1.0869580E-02
   7106.67  1.1554906E-02
   7107.00  1.2349403E-02
   7107.33  1.3305761E-02
   7107.67  1.4456971E-02
   7108.00  1.5867252E-02
   7108.33  1.7698730E-02
   7108.67  2.0095806E-02
   7109.00  2.3332136E-02
   7109.33  2.8158894E-02
   7109.67  3.5545596E-02
   7110.00  4.7431342E-02
   7110.33  6.9302303E-02
   7110.67  1.0399743E-01
   7111.00  1.3760569E-01
   7111.33  1.3627159E-01
   7111.67  1.2510446E-01
   7112.00  1.2405388E-01
   7112.33  1.2989553E-01
   7112.67  1.2587341E-01
   7113.00  1.1300643E-01
   7113.33  1.0161616E-01
   7113.67  9.1654198E-02
   7114.00  8.1446665E-02
   7114.33  7.2091358E-02
   7114.67  6.4693737E-02
   7115.00  5.9808772E-02
   7115.33  5.7722362E-02
   7115.67  5.7774913E-02
   7116.00  5.9766141E-02
   7116.33  6.3977985E-02
   7116.67  7.0547497E-02
   7117.00  8.0134309E-02
   7117.33  9.4489488E-02
   7117.67  1.1482399E-01
   7118.00  1.4272735E-01
   7118.33  1.7977339E-01
   7118.67  2.2247514E-01
   7119.00  2.6688158E-01
   7119.33  3.0968930E-01
   7119.67  3.5095005E-01
   7120.00  3.9014810E-01
   7120.33  4.2458671E-01
   7120.67  4.5383428E-01
   7121.00  4.7912683E-01
   7121.33  5.0167807E-01
   7121.67  5.2078356E-01
   7122.00  5.3390454E-01
   7122.33  5.3745117E-01
   7122.67  5.3240493E-01
   7123.00  5.2108099E-01
   7123.33  5.0701890E-01
   7123.67  4.9343934E-01
   7124.00  4.8152151E-01
   7124.33  4.7173096E-01
   7124.67  4.6361607E-01
   7125.00  4.5717604E-01
   7125.33  4.5292069E-01
   7125.67  4.5069237E-01
   7126.00  4.5014316E-01
   7126.33  4.5066290E-01
   7126.67  4.5150400E-01
   7127.00  4.5247359E-01
   7127.33  4.5393251E-01
   7127.67  4.5658763E-01
   7128.00  4.6117008E-01
   7128.33  4.6858560E-01
   7128.67  4.7863638E-01
   7129.00  4.9099510E-01
   7129.33  5.0495318E-01
   7129.67  5.1909364E-01
   7130.00  5.3239033E-01
   7130.33  5.4371715E-01
   7130.67  5.5273398E-01
   7131.00  5.5919690E-01
   7131.33  5.6274898E-01
   7131.67  5.6393367E-01
   7132.00  5.6308029E-01
   7132.33  5.6042444E-01
   7132.67  5.5656956E-01
   7133.00  5.5180938E-01
   7133.33  5.4636491E-01
   7133.67  5.4059318E-01
   7134.00  5.3474610E-01
   7134.33  5.2916608E-01
   7134.67  5.2411269E-01
   7135.00  5.1978821E-01
   7135.33  5.1652227E-01
   7135.67  5.1437344E-01
   7136.00  5.1342089E-01
   7136.33  5.1381603E-01
   7136.67  5.1535367E-01
   7137.00  5.1796619E-01
   7137.33  5.2168392E-01
   7137.67  5.2627432E-01
   7138.00  5.3162557E-01
   7138.33  5.3765986E-01
   7138.67  5.4411958E-01
   7139.00  5.5082351E-01
   7139.33  5.5752968E-01
   7139.67  5.6397337E-01
   7140.00  5.6993753E-01
   7140.33  5.7515217E-01
   7140.67  5.7963728E-01
   7141.00  5.8345241E-01
   7141.33  5.8670688E-01
   7141.67  5.8966730E-01
   7142.00  5.9246587E-01
   7142.33  5.9516648E-01
   7142.67  5.9778528E-01
   7143.00  6.0028648E-01
   7143.33  6.0257844E-01
   7143.67  6.0460852E-01
   7144.00  6.0631967E-01
   7144.33  6.0761965E-01
   7144.67  6.0853229E-01
   7145.00  6.0905658E-01
   7145.33  6.0915803E-01
   7145.67  6.0890044E-01
   7146.00  6.0829365E-01
   7146.33  6.0729842E-01
   7146.67  6.0596128E-01
   7147.00  6.0428154E-01
   7147.33  6.0221338E-01
   7147.67  5.9981211E-01
   7148.00  5.9710749E-01
   7148.33  5.9413156E-01
   7148.67  5.9100189E-01
   7149.00  5.8779386E-01
   7149.33  5.8459198E-01
   7149.67  5.8148126E-01
   7150.00  5.7852820E-01
   7150.33  5.7582226E-01
   7150.67  5.7337840E-01
   7151.00  5.7121639E-01
   7151.33  5.6937761E-01
   7151.67  5.6780978E-01
   7152.00  5.6647704E-01
   7152.33  5.6533972E-01
   7152.67  5.6430319E-01
   7153.00  5.6330389E-01
   7153.33  5.6227333E-01
   7153.67  5.6116808E-01
   7154.00  5.5996554E-01
   7154.33  5.5864545E-01
   7154.67  5.5722826E-01
   7155.00  5.5572533E-01
   7155.33  5.5413875E-01
   7155.67  5.5248133E-01
   7156.00  5.5074879E-01
   7156.33  5.4891843E-01
   7156.67  5.4698424E-01
   7157.00  5.4493041E-01
   7157.33  5.4272153E-01
   7157.67  5.4035917E-01
   7158.00  5.3783373E-01
   7158.33  5.3511698E-01
   7158.67  5.3222792E-01
   7159.00  5.2916828E-01
   7159.33  5.2592099E-01
   7159.67  5.2251041E-01
   7160.00  5.1893883E-01
   7160.33  5.1518810E-01
   7160.67  5.1127833E-01
   7161.00  5.0720567E-01
   7161.33  5.0294144E-01
   7161.67  4.9850228E-01
   7162.00  4.9388779E-01
   7162.33  4.8908583E-01
   7162.67  4.8414167E-01
   7163.00  4.7907734E-01
   7163.33  4.7390455E-01
   7163.67  4.6866566E-01
   7164.00  4.6339225E-01
   7164.33  4.5812271E-01
   7164.67  4.5289376E-01
   7165.00  4.4773578E-01
   7165.33  4.4269334E-01
   7165.67  4.3777973E-01
   7166.00  4.3301282E-01
   7166.33  4.2842922E-01
   7166.67  4.2402103E-01
   7167.00  4.1979673E-01
   7167.33  4.1578753E-01
   7167.67  4.1197383E-01
   7168.00  4.0835743E-01
   7168.33  4.0496416E-01
   7168.67  4.0176961E-01
   7169.00  3.9877391E-01
   7169.33  3.9600203E-01
   7169.67  3.9342901E-01
   7170.00  3.9105461E-01
   7170.33  3.8890380E-01
   7170.67  3.8695345E-01
   7171.00  3.8520710E-01
   7171.33  3.8370054E-01
   7171.67  3.8242641E-01
   7172.00  3.8140884E-01
