    FDMNES
    energy     <xanes>
   7097.00  4.4378271E-03
   7097.33  4.5327979E-03
   7097.67  4.6317405E-03
   7098.00  4.7349144E-03
   7098.33  4.8432245E-03
   7098.67  4.9564729E-03
   7099.00  5.0750141E-03
   7099.33  5.2000280E-03
   7099.67  5.3313145E-03
   7100.00  5.4693722E-03
   7100.33  5.6157847E-03
   7100.67  5.7703707E-03
   7101.00  5.9338568E-03
   7101.33  6.1084430E-03
   7101.67  6.2940146E-03
   7102.00  6.4916749E-03
   7102.33  6.7046122E-03
   7102.67  6.9328847E-03
   7103.00  7.1782546E-03
   7103.33  7.4455887E-03
   7103.67  7.7353665E-03
   7104.00  8.0505821E-03
   7104.33  8.3991652E-03
   7104.67  8.7826297E-03
   7105.00  9.2064785E-03
   7105.33  9.6847610E-03
   7105.67  1.0221684E-02
   7106.00  1.0828454E-02
   7106.33  1.1532904E-02
   7106.67  1.2347037E-02
   7107.00  1.3297114E-02
   7107.33  1.4447611E-02
   7107.67  1.5837258E-02
   7108.00  1.7541593E-02
   7108.33  1.9749407E-02
   7108.67  2.2619527E-02
   7109.00  2.6451620E-02
   7109.33  3.2053248E-02
   7109.67  4.0409688E-02
   7110.00  5.3475947E-02
   7110.33  7.6850829E-02
   7110.67  1.1491370E-01
   7111.00  1.5980935E-01
   7111.33  1.7678894E-01
   7111.67  1.8200402E-01
   7112.00  2.0190160E-01
   7112.33  2.3070544E-01
   7112.67  2.4878268E-01
   7113.00  2.4298427E-01
   7113.33  2.0693905E-01
   7113.67  1.6560356E-01
   7114.00  1.3311029E-01
   7114.33  1.1355321E-01
   7114.67  9.8878877E-02
   7115.00  8.3409731E-02
   7115.33  6.8490346E-02
   7115.67  5.8418754E-02
   7116.00  5.3094877E-02
   7116.33  5.1467020E-02
   7116.67  5.2071220E-02
   7117.00  5.4378355E-02
   7117.33  5.8181605E-02
   7117.67  6.3112044E-02
   7118.00  6.9066750E-02
   7118.33  7.5940154E-02
   7118.67  8.3153075E-02
   7119.00  9.0097401E-02
   7119.33  9.6234024E-02
   7119.67  1.0207218E-01
   7120.00  1.0841810E-01
   7120.33  1.1603546E-01
   7120.67  1.2486443E-01
   7121.00  1.3475661E-01
   7121.33  1.4560881E-01
   7121.67  1.5715209E-01
   7122.00  1.6933291E-01
   7122.33  1.8233301E-01
   7122.67  1.9635084E-01
   7123.00  2.1182594E-01
   7123.33  2.2974256E-01
   7123.67  2.5055838E-01
   7124.00  2.7461326E-01
   7124.33  3.0206785E-01
   7124.67  3.3167274E-01
   7125.00  3.6255993E-01
   7125.33  3.9522370E-01
   7125.67  4.3101583E-01
   7126.00  4.7019041E-01
   7126.33  5.1114523E-01
   7126.67  5.4969753E-01
   7127.00  5.8024525E-01
   7127.33  5.9634733E-01
   7127.67  6.0301595E-01
   7128.00  6.0864184E-01
   7128.33  6.2304661E-01
   7128.67  6.4933487E-01
   7129.00  6.8730031E-01
   7129.33  7.3402854E-01
   7129.67  7.8201305E-01
   7130.00  8.2528727E-01
   7130.33  8.5647040E-01
   7130.67  8.7208095E-01
   7131.00  8.6964448E-01
   7131.33  8.4776237E-01
   7131.67  8.1380675E-01
   7132.00  7.7434717E-01
   7132.33  7.3695319E-01
   7132.67  7.0687215E-01
   7133.00  6.8701369E-01
   7133.33  6.7924024E-01
   7133.67  6.7853912E-01
   7134.00  6.7977160E-01
   7134.33  6.7997928E-01
   7134.67  6.8136027E-01
   7135.00  6.8627530E-01
   7135.33  6.9632131E-01
   7135.67  7.1027607E-01
   7136.00  7.2649722E-01
   7136.33  7.4234305E-01
   7136.67  7.5547832E-01
   7137.00  7.6466768E-01
   7137.33  7.6906487E-01
   7137.67  7.6977600E-01
   7138.00  7.6760377E-01
   7138.33  7.6320521E-01
   7138.67  7.5748978E-01
   7139.00  7.5079706E-01
   7139.33  7.4322626E-01
   7139.67  7.3495751E-01
   7140.00  7.2603700E-01
   7140.33  7.1646517E-01
   7140.67  7.0642617E-01
   7141.00  6.9604565E-01
   7141.33  6.8547029E-01
   7141.67  6.7490405E-01
   7142.00  6.6451484E-01
   7142.33  6.5453178E-01
   7142.67  6.4505268E-01
   7143.00  6.3617104E-01
   7143.33  6.2804391E-01
   7143.67  6.2061731E-01
   7144.00  6.1388044E-01
   7144.33  6.0785787E-01
   7144.67  6.0237427E-01
   7145.00  5.9732084E-01
   7145.33  5.9259343E-01
   7145.67  5.8802232E-01
   7146.00  5.8350059E-01
   7146.33  5.7890381E-01
   7146.67  5.7413902E-01
   7147.00  5.6913338E-01
   7147.33  5.6378050E-01
   7147.67  5.5807178E-01
   7148.00  5.5198263E-01
   7148.33  5.4544874E-01
   7148.67  5.3851591E-01
   7149.00  5.3118847E-01
   7149.33  5.2342613E-01
   7149.67  5.1528346E-01
   7150.00  5.0676387E-01
   7150.33  4.9782076E-01
   7150.67  4.8850014E-01
   7151.00  4.7880364E-01
   7151.33  4.6869486E-01
   7151.67  4.5824152E-01
   7152.00  4.4747740E-01
   7152.33  4.3643369E-01
   7152.67  4.2523535E-01
   7153.00  4.1399091E-01
   7153.33  4.0286543E-01
   7153.67  3.9201384E-01
   7154.00  3.8158530E-01
   7154.33  3.7182652E-01
   7154.67  3.6282383E-01
   7155.00  3.5469711E-01
   7155.33  3.4767736E-01
   7155.67  3.4170261E-01
   7156.00  3.3677485E-01
   7156.33  3.3295357E-01
   7156.67  3.2997947E-01
   7157.00  3.2767663E-01
   7157.33  3.2582579E-01
   7157.67  3.2408112E-01
   7158.00  3.2222837E-01
   7158.33  3.2006389E-01
   7158.67  3.1755791E-01
   7159.00  3.1473988E-01
   7159.33  3.1169471E-01
   7159.67  3.0860211E-01
   7160.00  3.0560423E-01
   7160.33  3.0288808E-01
   7160.67  3.0055567E-01
   7161.00  2.9869340E-01
   7161.33  2.9743364E-01
   7161.67  2.9674829E-01
   7162.00  2.9665603E-01
   7162.33  2.9724063E-01
   7162.67  2.9842538E-01
   7163.00  3.0020335E-01
   7163.33  3.0263185E-01
   7163.67  3.0561173E-01
   7164.00  3.0911253E-01
   7164.33  3.1315945E-01
   7164.67  3.1765008E-01
   7165.00  3.2253940E-01
   7165.33  3.2780715E-01
   7165.67  3.3334006E-01
   7166.00  3.3907177E-01
   7166.33  3.4493785E-01
   7166.67  3.5084680E-01
   7167.00  3.5673815E-01
   7167.33  3.6254078E-01
   7167.67  3.6821603E-01
   7168.00  3.7373377E-01
   7168.33  3.7905029E-01
   7168.67  3.8417866E-01
   7169.00  3.8911679E-01
   7169.33  3.9384046E-01
   7169.67  3.9836942E-01
   7170.00  4.0269378E-01
   7170.33  4.0676570E-01
   7170.67  4.1058357E-01
   7171.00  4.1411233E-01
   7171.33  4.1725088E-01
   7171.67  4.1995176E-01
   7172.00  4.2210743E-01
