    FDMNES
    energy     <xanes>
   7097.00  4.3420920E-03
   7097.33  4.4327278E-03
   7097.67  4.5270361E-03
   7098.00  4.6252495E-03
   7098.33  4.7281927E-03
   7098.67  4.8356725E-03
   7099.00  4.9480044E-03
   7099.33  5.0662550E-03
   7099.67  5.1902260E-03
   7100.00  5.3203574E-03
   7100.33  5.4580679E-03
   7100.67  5.6031708E-03
   7101.00  5.7563013E-03
   7101.33  5.9194109E-03
   7101.67  6.0923623E-03
   7102.00  6.2761106E-03
   7102.33  6.4734522E-03
   7102.67  6.6843848E-03
   7103.00  6.9104161E-03
   7103.33  7.1557599E-03
   7103.67  7.4207471E-03
   7104.00  7.7079060E-03
   7104.33  8.0239993E-03
   7104.67  8.3701758E-03
   7105.00  8.7510091E-03
   7105.33  9.1782685E-03
   7105.67  9.6552107E-03
   7106.00  1.0190969E-02
   7106.33  1.0808348E-02
   7106.67  1.1516601E-02
   7107.00  1.2336597E-02
   7107.33  1.3319650E-02
   7107.67  1.4495052E-02
   7108.00  1.5920801E-02
   7108.33  1.7741349E-02
   7108.67  2.0072799E-02
   7109.00  2.3134781E-02
   7109.33  2.7513295E-02
   7109.67  3.3896134E-02
   7110.00  4.3639163E-02
   7110.33  6.0570014E-02
   7110.67  8.7525092E-02
   7111.00  1.1974151E-01
   7111.33  1.4257743E-01
   7111.67  1.6765216E-01
   7112.00  2.0017562E-01
   7112.33  2.2878962E-01
   7112.67  2.4122340E-01
   7113.00  2.2445428E-01
   7113.33  1.8469797E-01
   7113.67  1.4853429E-01
   7114.00  1.2386438E-01
   7114.33  1.0630425E-01
   7114.67  9.0540736E-02
   7115.00  7.5238200E-02
   7115.33  6.2888431E-02
   7115.67  5.5374720E-02
   7116.00  5.1926626E-02
   7116.33  5.1592940E-02
   7116.67  5.3191087E-02
   7117.00  5.6296247E-02
   7117.33  6.0753810E-02
   7117.67  6.6197362E-02
   7118.00  7.2408583E-02
   7118.33  7.9028585E-02
   7118.67  8.5478172E-02
   7119.00  9.1459200E-02
   7119.33  9.7194462E-02
   7119.67  1.0342245E-01
   7120.00  1.1062718E-01
   7120.33  1.1911754E-01
   7120.67  1.2865094E-01
   7121.00  1.3907930E-01
   7121.33  1.5033080E-01
   7121.67  1.6221020E-01
   7122.00  1.7473295E-01
   7122.33  1.8821721E-01
   7122.67  2.0301445E-01
   7123.00  2.1970459E-01
   7123.33  2.3936416E-01
   7123.67  2.6217879E-01
   7124.00  2.8815455E-01
   7124.33  3.1695582E-01
   7124.67  3.4715042E-01
   7125.00  3.7825072E-01
   7125.33  4.1123656E-01
   7125.67  4.4642459E-01
   7126.00  4.8269457E-01
   7126.33  5.1666436E-01
   7126.67  5.4375279E-01
   7127.00  5.6110738E-01
   7127.33  5.7019249E-01
   7127.67  5.7862698E-01
   7128.00  5.9204059E-01
   7128.33  6.1582198E-01
   7128.67  6.5006423E-01
   7129.00  6.9307767E-01
   7129.33  7.4028150E-01
   7129.67  7.8488792E-01
   7130.00  8.2214449E-01
   7130.33  8.4589805E-01
   7130.67  8.5349582E-01
   7131.00  8.4262505E-01
   7131.33  8.1249900E-01
   7131.67  7.7204587E-01
   7132.00  7.2937680E-01
   7132.33  6.9338606E-01
   7132.67  6.6809062E-01
   7133.00  6.5490551E-01
   7133.33  6.5366988E-01
   7133.67  6.5793226E-01
   7134.00  6.6275665E-01
   7134.33  6.6644425E-01
   7134.67  6.7132244E-01
   7135.00  6.7916712E-01
   7135.33  6.9116256E-01
   7135.67  7.0626368E-01
   7136.00  7.2295815E-01
   7136.33  7.3867514E-01
   7136.67  7.5128848E-01
   7137.00  7.5973334E-01
   7137.33  7.6341305E-01
   7137.67  7.6364022E-01
   7138.00  7.6130106E-01
   7138.33  7.5706023E-01
   7138.67  7.5167845E-01
   7139.00  7.4538656E-01
   7139.33  7.3818508E-01
   7139.67  7.3021660E-01
   7140.00  7.2153408E-01
   7140.33  7.1217023E-01
   7140.67  7.0234888E-01
   7141.00  6.9221999E-01
   7141.33  6.8197404E-01
   7141.67  6.7183754E-01
   7142.00  6.6196898E-01
   7142.33  6.5257721E-01
   7142.67  6.4373521E-01
   7143.00  6.3552158E-01
   7143.33  6.2807155E-01
   7143.67  6.2130365E-01
   7144.00  6.1518379E-01
   7144.33  6.0970333E-01
   7144.67  6.0467649E-01
   7145.00  5.9998516E-01
   7145.33  5.9550313E-01
   7145.67  5.9105780E-01
   7146.00  5.8653055E-01
   7146.33  5.8177741E-01
   7146.67  5.7673144E-01
   7147.00  5.7133610E-01
   7147.33  5.6550089E-01
   7147.67  5.5925745E-01
   7148.00  5.5260673E-01
   7148.33  5.4551124E-01
   7148.67  5.3803616E-01
   7149.00  5.3019504E-01
   7149.33  5.2195722E-01
   7149.67  5.1337622E-01
   7150.00  5.0445815E-01
   7150.33  4.9516599E-01
   7150.67  4.8554541E-01
   7151.00  4.7560437E-01
   7151.33  4.6532324E-01
   7151.67  4.5477329E-01
   7152.00  4.4400037E-01
   7152.33  4.3306211E-01
   7152.67  4.2207844E-01
   7153.00  4.1115605E-01
   7153.33  4.0046354E-01
   7153.67  3.9013201E-01
   7154.00  3.8030010E-01
   7154.33  3.7120733E-01
   7154.67  3.6291430E-01
   7155.00  3.5552189E-01
   7155.33  3.4923232E-01
   7155.67  3.4395033E-01
   7156.00  3.3964631E-01
   7156.33  3.3631565E-01
   7156.67  3.3364295E-01
   7157.00  3.3140155E-01
   7157.33  3.2933790E-01
   7157.67  3.2718795E-01
   7158.00  3.2480019E-01
   7158.33  3.2205584E-01
   7158.67  3.1902258E-01
   7159.00  3.1579350E-01
   7159.33  3.1251763E-01
   7159.67  3.0936877E-01
   7160.00  3.0648341E-01
   7160.33  3.0403982E-01
   7160.67  3.0208239E-01
   7161.00  3.0066724E-01
   7161.33  2.9990909E-01
   7161.67  2.9975617E-01
   7162.00  3.0021482E-01
   7162.33  3.0135895E-01
   7162.67  3.0309925E-01
   7163.00  3.0541303E-01
   7163.33  3.0833800E-01
   7163.67  3.1177679E-01
   7164.00  3.1569942E-01
   7164.33  3.2011620E-01
   7164.67  3.2491352E-01
   7165.00  3.3003071E-01
   7165.33  3.3542051E-01
   7165.67  3.4097127E-01
   7166.00  3.4661305E-01
   7166.33  3.5227095E-01
   7166.67  3.5787548E-01
   7167.00  3.6337911E-01
   7167.33  3.6872540E-01
   7167.67  3.7391149E-01
   7168.00  3.7893331E-01
   7168.33  3.8377840E-01
   7168.67  3.8847934E-01
   7169.00  3.9304532E-01
   7169.33  3.9746243E-01
   7169.67  4.0173739E-01
   7170.00  4.0585136E-01
   7170.33  4.0974846E-01
   7170.67  4.1341274E-01
   7171.00  4.1680334E-01
   7171.33  4.1981851E-01
   7171.67  4.2241176E-01
   7172.00  4.2448047E-01
