    FDMNES
    energy     <xanes>
   7097.00  4.6887793E-03
   7097.33  4.7945430E-03
   7097.67  4.9048871E-03
   7098.00  5.0201124E-03
   7098.33  5.1412644E-03
   7098.67  5.2681150E-03
   7099.00  5.4010729E-03
   7099.33  5.5414980E-03
   7099.67  5.6891564E-03
   7100.00  5.8446190E-03
   7100.33  6.0097032E-03
   7100.67  6.1841904E-03
   7101.00  6.3689052E-03
   7101.33  6.5663562E-03
   7101.67  6.7763885E-03
   7102.00  7.0002407E-03
   7102.33  7.2415152E-03
   7102.67  7.5002296E-03
   7103.00  7.7783353E-03
   7103.33  8.0812649E-03
   7103.67  8.4094599E-03
   7104.00  8.7661837E-03
   7104.33  9.1601489E-03
   7104.67  9.5928374E-03
   7105.00  1.0070133E-02
   7105.33  1.0607170E-02
   7105.67  1.1208111E-02
   7106.00  1.1884666E-02
   7106.33  1.2666078E-02
   7106.67  1.3564134E-02
   7107.00  1.4605501E-02
   7107.33  1.5855760E-02
   7107.67  1.7352113E-02
   7108.00  1.9168343E-02
   7108.33  2.1488027E-02
   7108.67  2.4457450E-02
   7109.00  2.8352882E-02
   7109.33  3.3907747E-02
   7109.67  4.1969209E-02
   7110.00  5.4203888E-02
   7110.33  7.5419500E-02
   7110.67  1.1055437E-01
   7111.00  1.5942586E-01
   7111.33  2.0239056E-01
   7111.67  2.2728702E-01
   7112.00  2.3850760E-01
   7112.33  2.3998577E-01
   7112.67  2.3713495E-01
   7113.00  2.3455422E-01
   7113.33  2.2675240E-01
   7113.67  2.0583402E-01
   7114.00  1.7739670E-01
   7114.33  1.5380745E-01
   7114.67  1.3881763E-01
   7115.00  1.3194688E-01
   7115.33  1.3261867E-01
   7115.67  1.3808202E-01
   7116.00  1.4503046E-01
   7116.33  1.4725812E-01
   7116.67  1.4415524E-01
   7117.00  1.4019749E-01
   7117.33  1.4016008E-01
   7117.67  1.4466931E-01
   7118.00  1.5320568E-01
   7118.33  1.6493181E-01
   7118.67  1.7773051E-01
   7119.00  1.8939113E-01
   7119.33  1.9823134E-01
   7119.67  2.0584947E-01
   7120.00  2.1382290E-01
   7120.33  2.2406678E-01
   7120.67  2.3871308E-01
   7121.00  2.5897633E-01
   7121.33  2.8412063E-01
   7121.67  3.1114635E-01
   7122.00  3.3866291E-01
   7122.33  3.6591090E-01
   7122.67  3.9249201E-01
   7123.00  4.1788161E-01
   7123.33  4.4022943E-01
   7123.67  4.5718406E-01
   7124.00  4.6670733E-01
   7124.33  4.6875378E-01
   7124.67  4.6837432E-01
   7125.00  4.6879390E-01
   7125.33  4.7185945E-01
   7125.67  4.7772664E-01
   7126.00  4.8626694E-01
   7126.33  4.9640878E-01
   7126.67  5.0547388E-01
   7127.00  5.1116410E-01
   7127.33  5.1172615E-01
   7127.67  5.0906014E-01
   7128.00  5.0592565E-01
   7128.33  5.0603457E-01
   7128.67  5.1038902E-01
   7129.00  5.1773824E-01
   7129.33  5.2453994E-01
   7129.67  5.2750251E-01
   7130.00  5.2568583E-01
   7130.33  5.2011156E-01
   7130.67  5.1366451E-01
   7131.00  5.0789960E-01
   7131.33  5.0348845E-01
   7131.67  4.9957156E-01
   7132.00  4.9515482E-01
   7132.33  4.8968608E-01
   7132.67  4.8414953E-01
   7133.00  4.7975191E-01
   7133.33  4.7775308E-01
   7133.67  4.7819384E-01
   7134.00  4.8089609E-01
   7134.33  4.8541683E-01
   7134.67  4.9061050E-01
   7135.00  4.9576856E-01
   7135.33  5.0059402E-01
   7135.67  5.0554499E-01
   7136.00  5.1119090E-01
   7136.33  5.1792895E-01
   7136.67  5.2514592E-01
   7137.00  5.3196318E-01
   7137.33  5.3722955E-01
   7137.67  5.4072242E-01
   7138.00  5.4270484E-01
   7138.33  5.4384560E-01
   7138.67  5.4506167E-01
   7139.00  5.4684872E-01
   7139.33  5.4954514E-01
   7139.67  5.5299728E-01
   7140.00  5.5704665E-01
   7140.33  5.6157905E-01
   7140.67  5.6650162E-01
   7141.00  5.7191491E-01
   7141.33  5.7813152E-01
   7141.67  5.8528052E-01
   7142.00  5.9344776E-01
   7142.33  6.0267821E-01
   7142.67  6.1262316E-01
   7143.00  6.2301225E-01
   7143.33  6.3350919E-01
   7143.67  6.4374161E-01
   7144.00  6.5340103E-01
   7144.33  6.6203562E-01
   7144.67  6.6947405E-01
   7145.00  6.7553553E-01
   7145.33  6.7991262E-01
   7145.67  6.8277430E-01
   7146.00  6.8418711E-01
   7146.33  6.8415283E-01
   7146.67  6.8306318E-01
   7147.00  6.8115934E-01
   7147.33  6.7869236E-01
   7147.67  6.7604241E-01
   7148.00  6.7345593E-01
   7148.33  6.7119671E-01
   7148.67  6.6936363E-01
   7149.00  6.6798387E-01
   7149.33  6.6704796E-01
   7149.67  6.6637548E-01
   7150.00  6.6581647E-01
   7150.33  6.6516567E-01
   7150.67  6.6423652E-01
   7151.00  6.6287052E-01
   7151.33  6.6082977E-01
   7151.67  6.5806130E-01
   7152.00  6.5449267E-01
   7152.33  6.4998588E-01
   7152.67  6.4466579E-01
   7153.00  6.3858645E-01
   7153.33  6.3175131E-01
   7153.67  6.2433578E-01
   7154.00  6.1640626E-01
   7154.33  6.0796043E-01
   7154.67  5.9909456E-01
   7155.00  5.8984305E-01
   7155.33  5.8022381E-01
   7155.67  5.7036896E-01
   7156.00  5.6038416E-01
   7156.33  5.5041609E-01
   7156.67  5.4061376E-01
   7157.00  5.3109621E-01
   7157.33  5.2202253E-01
   7157.67  5.1341209E-01
   7158.00  5.0528902E-01
   7158.33  4.9770439E-01
   7158.67  4.9055950E-01
   7159.00  4.8380554E-01
   7159.33  4.7741641E-01
   7159.67  4.7128584E-01
   7160.00  4.6536586E-01
   7160.33  4.5963391E-01
   7160.67  4.5404213E-01
   7161.00  4.4858221E-01
   7161.33  4.4327741E-01
   7161.67  4.3813007E-01
   7162.00  4.3316591E-01
   7162.33  4.2845014E-01
   7162.67  4.2399740E-01
   7163.00  4.1984324E-01
   7163.33  4.1606383E-01
   7163.67  4.1264113E-01
   7164.00  4.0958502E-01
   7164.33  4.0693902E-01
   7164.67  4.0464061E-01
   7165.00  4.0266456E-01
   7165.33  4.0100775E-01
   7165.67  3.9959000E-01
   7166.00  3.9837115E-01
   7166.33  3.9732494E-01
   7166.67  3.9639219E-01
   7167.00  3.9554629E-01
   7167.33  3.9477644E-01
   7167.67  3.9406849E-01
   7168.00  3.9342762E-01
   7168.33  3.9287909E-01
   7168.67  3.9243342E-01
   7169.00  3.9211016E-01
   7169.33  3.9194830E-01
   7169.67  3.9194577E-01
   7170.00  3.9211079E-01
   7170.33  3.9246615E-01
   7170.67  3.9298078E-01
   7171.00  3.9363363E-01
   7171.33  3.9438935E-01
   7171.67  3.9515022E-01
   7172.00  3.9580341E-01
