    FDMNES
    energy     <xanes>
   7097.00  4.5900333E-03
   7097.33  4.6890192E-03
   7097.67  4.7921533E-03
   7098.00  4.8997047E-03
   7098.33  5.0126146E-03
   7098.67  5.1306727E-03
   7099.00  5.2542448E-03
   7099.33  5.3845539E-03
   7099.67  5.5213852E-03
   7100.00  5.6652505E-03
   7100.33  5.8177840E-03
   7100.67  5.9787864E-03
   7101.00  6.1489987E-03
   7101.33  6.3306790E-03
   7101.67  6.5236886E-03
   7102.00  6.7291450E-03
   7102.33  6.9502982E-03
   7102.67  7.1871726E-03
   7103.00  7.4415377E-03
   7103.33  7.7183137E-03
   7103.67  8.0179245E-03
   7104.00  8.3433486E-03
   7104.33  8.7025218E-03
   7104.67  9.0968506E-03
   7105.00  9.5317488E-03
   7105.33  1.0021108E-02
   7105.67  1.0568880E-02
   7106.00  1.1185947E-02
   7106.33  1.1899432E-02
   7106.67  1.2720584E-02
   7107.00  1.3674506E-02
   7107.33  1.4822893E-02
   7107.67  1.6201659E-02
   7108.00  1.7881516E-02
   7108.33  2.0038822E-02
   7108.67  2.2817856E-02
   7109.00  2.6491121E-02
   7109.33  3.1787879E-02
   7109.67  3.9575240E-02
   7110.00  5.1566452E-02
   7110.33  7.2661420E-02
   7110.67  1.0704109E-01
   7111.00  1.5057050E-01
   7111.33  1.8034779E-01
   7111.67  1.9385853E-01
   7112.00  2.0328749E-01
   7112.33  2.2042436E-01
   7112.67  2.4272021E-01
   7113.00  2.5269308E-01
   7113.33  2.2768661E-01
   7113.67  1.8772420E-01
   7114.00  1.5036757E-01
   7114.33  1.2098384E-01
   7114.67  9.9702561E-02
   7115.00  8.6798120E-02
   7115.33  8.0396142E-02
   7115.67  7.6685710E-02
   7116.00  7.4501979E-02
   7116.33  7.4674501E-02
   7116.67  7.7375029E-02
   7117.00  8.2393110E-02
   7117.33  8.9454903E-02
   7117.67  9.7836374E-02
   7118.00  1.0737915E-01
   7118.33  1.1831309E-01
   7118.67  1.3056298E-01
   7119.00  1.4390873E-01
   7119.33  1.5733486E-01
   7119.67  1.6925945E-01
   7120.00  1.7884176E-01
   7120.33  1.8633936E-01
   7120.67  1.9339900E-01
   7121.00  2.0100688E-01
   7121.33  2.0976146E-01
   7121.67  2.1975844E-01
   7122.00  2.3145984E-01
   7122.33  2.4611528E-01
   7122.67  2.6430261E-01
   7123.00  2.8621806E-01
   7123.33  3.1125720E-01
   7123.67  3.3729549E-01
   7124.00  3.6353107E-01
   7124.33  3.9080068E-01
   7124.67  4.1999117E-01
   7125.00  4.5071615E-01
   7125.33  4.8067111E-01
   7125.67  5.0706080E-01
   7126.00  5.2766754E-01
   7126.33  5.3968334E-01
   7126.67  5.4380605E-01
   7127.00  5.4159917E-01
   7127.33  5.3598575E-01
   7127.67  5.3038392E-01
   7128.00  5.2604377E-01
   7128.33  5.2335962E-01
   7128.67  5.2205836E-01
   7129.00  5.2212157E-01
   7129.33  5.2379796E-01
   7129.67  5.2730921E-01
   7130.00  5.3331520E-01
   7130.33  5.4300603E-01
   7130.67  5.5635526E-01
   7131.00  5.7327161E-01
   7131.33  5.9369863E-01
   7131.67  6.1663401E-01
   7132.00  6.4145770E-01
   7132.33  6.6734546E-01
   7132.67  6.9305492E-01
   7133.00  7.1778960E-01
   7133.33  7.4094828E-01
   7133.67  7.6239977E-01
   7134.00  7.8134591E-01
   7134.33  7.9569678E-01
   7134.67  8.0499707E-01
   7135.00  8.0973801E-01
   7135.33  8.1075656E-01
   7135.67  8.0935179E-01
   7136.00  8.0588795E-01
   7136.33  8.0036960E-01
   7136.67  7.9323192E-01
   7137.00  7.8468348E-01
   7137.33  7.7484796E-01
   7137.67  7.6412999E-01
   7138.00  7.5273167E-01
   7138.33  7.4079030E-01
   7138.67  7.2852164E-01
   7139.00  7.1602906E-01
   7139.33  7.0338914E-01
   7139.67  6.9069338E-01
   7140.00  6.7800252E-01
   7140.33  6.6540376E-01
   7140.67  6.5298049E-01
   7141.00  6.4083069E-01
   7141.33  6.2913755E-01
   7141.67  6.1799527E-01
   7142.00  6.0752434E-01
   7142.33  5.9791435E-01
   7142.67  5.8909370E-01
   7143.00  5.8105653E-01
   7143.33  5.7388236E-01
   7143.67  5.6745077E-01
   7144.00  5.6173679E-01
   7144.33  5.5679702E-01
   7144.67  5.5252116E-01
   7145.00  5.4889503E-01
   7145.33  5.4598818E-01
   7145.67  5.4371176E-01
   7146.00  5.4205323E-01
   7146.33  5.4106057E-01
   7146.67  5.4061886E-01
   7147.00  5.4066806E-01
   7147.33  5.4115131E-01
   7147.67  5.4189176E-01
   7148.00  5.4277016E-01
   7148.33  5.4364745E-01
   7148.67  5.4439229E-01
   7149.00  5.4490133E-01
   7149.33  5.4503002E-01
   7149.67  5.4474275E-01
   7150.00  5.4398954E-01
   7150.33  5.4266193E-01
   7150.67  5.4079162E-01
   7151.00  5.3835889E-01
   7151.33  5.3527683E-01
   7151.67  5.3161216E-01
   7152.00  5.2736865E-01
   7152.33  5.2249198E-01
   7152.67  5.1708486E-01
   7153.00  5.1119095E-01
   7153.33  5.0482461E-01
   7153.67  4.9811898E-01
   7154.00  4.9115130E-01
   7154.33  4.8399448E-01
   7154.67  4.7676383E-01
   7155.00  4.6954204E-01
   7155.33  4.6243341E-01
   7155.67  4.5550279E-01
   7156.00  4.4880568E-01
   7156.33  4.4243011E-01
   7156.67  4.3638172E-01
   7157.00  4.3068799E-01
   7157.33  4.2541818E-01
   7157.67  4.2053739E-01
   7158.00  4.1604916E-01
   7158.33  4.1199883E-01
   7158.67  4.0832848E-01
   7159.00  4.0502736E-01
   7159.33  4.0212521E-01
   7159.67  3.9956325E-01
   7160.00  3.9733133E-01
   7160.33  3.9546157E-01
   7160.67  3.9390978E-01
   7161.00  3.9267560E-01
   7161.33  3.9180148E-01
   7161.67  3.9124972E-01
   7162.00  3.9101600E-01
   7162.33  3.9112454E-01
   7162.67  3.9151635E-01
   7163.00  3.9216797E-01
   7163.33  3.9306970E-01
   7163.67  3.9415642E-01
   7164.00  3.9540214E-01
   7164.33  3.9679721E-01
   7164.67  3.9830186E-01
   7165.00  3.9989887E-01
   7165.33  4.0158095E-01
   7165.67  4.0332433E-01
   7166.00  4.0511745E-01
   7166.33  4.0695168E-01
   7166.67  4.0880971E-01
   7167.00  4.1068091E-01
   7167.33  4.1255351E-01
   7167.67  4.1441585E-01
   7168.00  4.1625865E-01
   7168.33  4.1806908E-01
   7168.67  4.1984331E-01
   7169.00  4.2157624E-01
   7169.33  4.2325734E-01
   7169.67  4.2488806E-01
   7170.00  4.2646473E-01
   7170.33  4.2797529E-01
   7170.67  4.2941988E-01
   7171.00  4.3078794E-01
   7171.33  4.3204386E-01
   7171.67  4.3315358E-01
   7172.00  4.3405391E-01
