    FDMNES
    energy     <xanes>
   7097.00  4.4094184E-03
   7097.33  4.5041159E-03
   7097.67  4.6027939E-03
   7098.00  4.7057131E-03
   7098.33  4.8137808E-03
   7098.67  4.9267986E-03
   7099.00  5.0451218E-03
   7099.33  5.1699328E-03
   7099.67  5.3010302E-03
   7100.00  5.4389127E-03
   7100.33  5.5851649E-03
   7100.67  5.7396025E-03
   7101.00  5.9029498E-03
   7101.33  6.0774035E-03
   7101.67  6.2628415E-03
   7102.00  6.4603589E-03
   7102.33  6.6731277E-03
   7102.67  6.9011889E-03
   7103.00  7.1462809E-03
   7103.33  7.4132186E-03
   7103.67  7.7024394E-03
   7104.00  8.0168714E-03
   7104.33  8.3642947E-03
   7104.67  8.7461096E-03
   7105.00  9.1676310E-03
   7105.33  9.6424707E-03
   7105.67  1.0174494E-02
   7106.00  1.0774325E-02
   7106.33  1.1468406E-02
   7106.67  1.2267544E-02
   7107.00  1.3195931E-02
   7107.33  1.4312887E-02
   7107.67  1.5652003E-02
   7108.00  1.7279609E-02
   7108.33  1.9360071E-02
   7108.67  2.2022179E-02
   7109.00  2.5508120E-02
   7109.33  3.0455000E-02
   7109.67  3.7577590E-02
   7110.00  4.8271862E-02
   7110.33  6.6562182E-02
   7110.67  9.6991530E-02
   7111.00  1.4189964E-01
   7111.33  1.9002811E-01
   7111.67  2.2612104E-01
   7112.00  2.4862077E-01
   7112.33  2.5747450E-01
   7112.67  2.5527317E-01
   7113.00  2.3011795E-01
   7113.33  1.8839927E-01
   7113.67  1.5243133E-01
   7114.00  1.2638923E-01
   7114.33  1.0741587E-01
   7114.67  9.1166877E-02
   7115.00  7.8809505E-02
   7115.33  7.1411351E-02
   7115.67  6.6453302E-02
   7116.00  6.2876001E-02
   7116.33  6.1008308E-02
   7116.67  6.0772588E-02
   7117.00  6.1898717E-02
   7117.33  6.4035382E-02
   7117.67  6.6781132E-02
   7118.00  7.0211571E-02
   7118.33  7.4690110E-02
   7118.67  8.0308196E-02
   7119.00  8.7253704E-02
   7119.33  9.6005742E-02
   7119.67  1.0666591E-01
   7120.00  1.1947148E-01
   7120.33  1.3493172E-01
   7120.67  1.5286727E-01
   7121.00  1.7327438E-01
   7121.33  1.9628525E-01
   7121.67  2.2125653E-01
   7122.00  2.4769899E-01
   7122.33  2.7484715E-01
   7122.67  3.0154956E-01
   7123.00  3.2686800E-01
   7123.33  3.4951788E-01
   7123.67  3.6920723E-01
   7124.00  3.8612620E-01
   7124.33  4.0079142E-01
   7124.67  4.1383463E-01
   7125.00  4.2477682E-01
   7125.33  4.3245095E-01
   7125.67  4.3732145E-01
   7126.00  4.4027643E-01
   7126.33  4.4249078E-01
   7126.67  4.4501093E-01
   7127.00  4.4821753E-01
   7127.33  4.5222810E-01
   7127.67  4.5691293E-01
   7128.00  4.6232569E-01
   7128.33  4.6853062E-01
   7128.67  4.7513355E-01
   7129.00  4.8177437E-01
   7129.33  4.8817364E-01
   7129.67  4.9434997E-01
   7130.00  5.0047793E-01
   7130.33  5.0705736E-01
   7130.67  5.1472271E-01
   7131.00  5.2417082E-01
   7131.33  5.3661023E-01
   7131.67  5.5259808E-01
   7132.00  5.7278730E-01
   7132.33  5.9809016E-01
   7132.67  6.2746950E-01
   7133.00  6.5970579E-01
   7133.33  6.9274527E-01
   7133.67  7.2425911E-01
   7134.00  7.5268069E-01
   7134.33  7.7597861E-01
   7134.67  7.9367090E-01
   7135.00  8.0543896E-01
   7135.33  8.1076587E-01
   7135.67  8.1087869E-01
   7136.00  8.0645625E-01
   7136.33  7.9815108E-01
   7136.67  7.8760460E-01
   7137.00  7.7574784E-01
   7137.33  7.6330120E-01
   7137.67  7.5075381E-01
   7138.00  7.3825981E-01
   7138.33  7.2593289E-01
   7138.67  7.1386658E-01
   7139.00  7.0220018E-01
   7139.33  6.9119984E-01
   7139.67  6.8097232E-01
   7140.00  6.7163255E-01
   7140.33  6.6336460E-01
   7140.67  6.5603628E-01
   7141.00  6.4958058E-01
   7141.33  6.4396232E-01
   7141.67  6.3892825E-01
   7142.00  6.3433548E-01
   7142.33  6.3007149E-01
   7142.67  6.2599231E-01
   7143.00  6.2205259E-01
   7143.33  6.1828019E-01
   7143.67  6.1472690E-01
   7144.00  6.1147808E-01
   7144.33  6.0868315E-01
   7144.67  6.0639392E-01
   7145.00  6.0469869E-01
   7145.33  6.0377135E-01
   7145.67  6.0358576E-01
   7146.00  6.0416166E-01
   7146.33  6.0557374E-01
   7146.67  6.0766419E-01
   7147.00  6.1034032E-01
   7147.33  6.1350765E-01
   7147.67  6.1691854E-01
   7148.00  6.2037687E-01
   7148.33  6.2361832E-01
   7148.67  6.2642763E-01
   7149.00  6.2860657E-01
   7149.33  6.2984027E-01
   7149.67  6.3007063E-01
   7150.00  6.2920479E-01
   7150.33  6.2704621E-01
   7150.67  6.2374599E-01
   7151.00  6.1935760E-01
   7151.33  6.1386448E-01
   7151.67  6.0752389E-01
   7152.00  6.0046070E-01
   7152.33  5.9274645E-01
   7152.67  5.8458486E-01
   7153.00  5.7607263E-01
   7153.33  5.6726629E-01
   7153.67  5.5826236E-01
   7154.00  5.4909851E-01
   7154.33  5.3978964E-01
   7154.67  5.3037741E-01
   7155.00  5.2088237E-01
   7155.33  5.1131474E-01
   7155.67  5.0169950E-01
   7156.00  4.9205603E-01
   7156.33  4.8241248E-01
   7156.67  4.7280291E-01
   7157.00  4.6326111E-01
   7157.33  4.5384358E-01
   7157.67  4.4458126E-01
   7158.00  4.3551357E-01
   7158.33  4.2671629E-01
   7158.67  4.1820510E-01
   7159.00  4.1001937E-01
   7159.33  4.0224968E-01
   7159.67  3.9489209E-01
   7160.00  3.8798160E-01
   7160.33  3.8161730E-01
   7160.67  3.7577370E-01
   7161.00  3.7047746E-01
   7161.33  3.6582717E-01
   7161.67  3.6177301E-01
   7162.00  3.5832833E-01
   7162.33  3.5557734E-01
   7162.67  3.5343740E-01
   7163.00  3.5189117E-01
   7163.33  3.5098263E-01
   7163.67  3.5060847E-01
   7164.00  3.5073404E-01
   7164.33  3.5136787E-01
   7164.67  3.5239979E-01
   7165.00  3.5378146E-01
   7165.33  3.5549258E-01
   7165.67  3.5744177E-01
   7166.00  3.5958567E-01
   7166.33  3.6189790E-01
   7166.67  3.6432106E-01
   7167.00  3.6682755E-01
   7167.33  3.6939842E-01
   7167.67  3.7200442E-01
   7168.00  3.7462853E-01
   7168.33  3.7725359E-01
   7168.67  3.7986409E-01
   7169.00  3.8244730E-01
   7169.33  3.8498281E-01
   7169.67  3.8745979E-01
   7170.00  3.8986343E-01
   7170.33  3.9216392E-01
   7170.67  3.9435192E-01
   7171.00  3.9640491E-01
   7171.33  3.9826236E-01
   7171.67  3.9987995E-01
   7172.00  4.0117442E-01
