    FDMNES
    energy     <xanes>
   7097.00  4.4161930E-03
   7097.33  4.5110665E-03
   7097.67  4.6099307E-03
   7098.00  4.7130468E-03
   7098.33  4.8213247E-03
   7098.67  4.9345654E-03
   7099.00  5.0531252E-03
   7099.33  5.1781895E-03
   7099.67  5.3095563E-03
   7100.00  5.4477257E-03
   7100.33  5.5942861E-03
   7100.67  5.7490525E-03
   7101.00  5.9127508E-03
   7101.33  6.0875826E-03
   7101.67  6.2734249E-03
   7102.00  6.4713748E-03
   7102.33  6.6846103E-03
   7102.67  6.9131713E-03
   7103.00  7.1587980E-03
   7103.33  7.4263126E-03
   7103.67  7.7161499E-03
   7104.00  8.0312395E-03
   7104.33  8.3793679E-03
   7104.67  8.7619298E-03
   7105.00  9.1842384E-03
   7105.33  9.6599045E-03
   7105.67  1.0192779E-02
   7106.00  1.0793471E-02
   7106.33  1.1488391E-02
   7106.67  1.2288302E-02
   7107.00  1.3217331E-02
   7107.33  1.4334650E-02
   7107.67  1.5673688E-02
   7108.00  1.7300518E-02
   7108.33  1.9378868E-02
   7108.67  2.2036857E-02
   7109.00  2.5515525E-02
   7109.33  3.0449046E-02
   7109.67  3.7548854E-02
   7110.00  4.8204696E-02
   7110.33  6.6418139E-02
   7110.67  9.6645453E-02
   7111.00  1.4096561E-01
   7111.33  1.8817164E-01
   7111.67  2.2391724E-01
   7112.00  2.4703090E-01
   7112.33  2.5778006E-01
   7112.67  2.5951691E-01
   7113.00  2.3786984E-01
   7113.33  1.9540228E-01
   7113.67  1.5725727E-01
   7114.00  1.2950448E-01
   7114.33  1.0958009E-01
   7114.67  9.2624668E-02
   7115.00  7.9695212E-02
   7115.33  7.1875109E-02
   7115.67  6.6638982E-02
   7116.00  6.2937396E-02
   7116.33  6.1039644E-02
   7116.67  6.0802151E-02
   7117.00  6.1975591E-02
   7117.33  6.4265871E-02
   7117.67  6.7226004E-02
   7118.00  7.0860121E-02
   7118.33  7.5503231E-02
   7118.67  8.1271041E-02
   7119.00  8.8369043E-02
   7119.33  9.7293021E-02
   7119.67  1.0814499E-01
   7120.00  1.2114844E-01
   7120.33  1.3676974E-01
   7120.67  1.5476880E-01
   7121.00  1.7506635E-01
   7121.33  1.9766188E-01
   7121.67  2.2186569E-01
   7122.00  2.4716781E-01
   7122.33  2.7283985E-01
   7122.67  2.9795623E-01
   7123.00  3.2182253E-01
   7123.33  3.4348540E-01
   7123.67  3.6264357E-01
   7124.00  3.7935583E-01
   7124.33  3.9406292E-01
   7124.67  4.0738350E-01
   7125.00  4.1889673E-01
   7125.33  4.2749677E-01
   7125.67  4.3356346E-01
   7126.00  4.3794430E-01
   7126.33  4.4179190E-01
   7126.67  4.4601646E-01
   7127.00  4.5080863E-01
   7127.33  4.5593665E-01
   7127.67  4.6107116E-01
   7128.00  4.6622816E-01
   7128.33  4.7159078E-01
   7128.67  4.7705117E-01
   7129.00  4.8236249E-01
   7129.33  4.8734761E-01
   7129.67  4.9217265E-01
   7130.00  4.9711285E-01
   7130.33  5.0275880E-01
   7130.67  5.0973970E-01
   7131.00  5.1876328E-01
   7131.33  5.3108162E-01
   7131.67  5.4721200E-01
   7132.00  5.6777556E-01
   7132.33  5.9363630E-01
   7132.67  6.2365611E-01
   7133.00  6.5655636E-01
   7133.33  6.9022461E-01
   7133.67  7.2229104E-01
   7134.00  7.5118614E-01
   7134.33  7.7492804E-01
   7134.67  7.9311342E-01
   7135.00  8.0548996E-01
   7135.33  8.1159755E-01
   7135.67  8.1259009E-01
   7136.00  8.0902707E-01
   7136.33  8.0135859E-01
   7136.67  7.9109426E-01
   7137.00  7.7909178E-01
   7137.33  7.6603926E-01
   7137.67  7.5260175E-01
   7138.00  7.3908587E-01
   7138.33  7.2578714E-01
   7138.67  7.1292292E-01
   7139.00  7.0068665E-01
   7139.33  6.8937615E-01
   7139.67  6.7903173E-01
   7140.00  6.6972449E-01
   7140.33  6.6160427E-01
   7140.67  6.5449239E-01
   7141.00  6.4830564E-01
   7141.33  6.4300889E-01
   7141.67  6.3834696E-01
   7142.00  6.3418347E-01
   7142.33  6.3041901E-01
   7142.67  6.2689919E-01
   7143.00  6.2356708E-01
   7143.33  6.2042815E-01
   7143.67  6.1749770E-01
   7144.00  6.1483509E-01
   7144.33  6.1255613E-01
   7144.67  6.1069260E-01
   7145.00  6.0931185E-01
   7145.33  6.0855486E-01
   7145.67  6.0840362E-01
   7146.00  6.0887820E-01
   7146.33  6.1004565E-01
   7146.67  6.1178046E-01
   7147.00  6.1401007E-01
   7147.33  6.1666261E-01
   7147.67  6.1953473E-01
   7148.00  6.2246592E-01
   7148.33  6.2524152E-01
   7148.67  6.2767811E-01
   7149.00  6.2960159E-01
   7149.33  6.3073261E-01
   7149.67  6.3099767E-01
   7150.00  6.3028527E-01
   7150.33  6.2836823E-01
   7150.67  6.2533527E-01
   7151.00  6.2119195E-01
   7151.33  6.1585872E-01
   7151.67  6.0956133E-01
   7152.00  6.0240662E-01
   7152.33  5.9444880E-01
   7152.67  5.8592772E-01
   7153.00  5.7696881E-01
   7153.33  5.6766491E-01
   7153.67  5.5816300E-01
   7154.00  5.4853688E-01
   7154.33  5.3884622E-01
   7154.67  5.2915101E-01
   7155.00  5.1948524E-01
   7155.33  5.0987539E-01
   7155.67  5.0032489E-01
   7156.00  4.9084118E-01
   7156.33  4.8144273E-01
   7156.67  4.7213188E-01
   7157.00  4.6292286E-01
   7157.33  4.5385233E-01
   7157.67  4.4493103E-01
   7158.00  4.3618512E-01
   7158.33  4.2767457E-01
   7158.67  4.1941064E-01
   7159.00  4.1142826E-01
   7159.33  4.0380965E-01
   7159.67  3.9655629E-01
   7160.00  3.8970417E-01
   7160.33  3.8334905E-01
   7160.67  3.7747344E-01
   7161.00  3.7210608E-01
   7161.33  3.6734301E-01
   7161.67  3.6314084E-01
   7162.00  3.5951441E-01
   7162.33  3.5654580E-01
   7162.67  3.5415914E-01
   7163.00  3.5234176E-01
   7163.33  3.5114268E-01
   7163.67  3.5046909E-01
   7164.00  3.5029472E-01
   7164.33  3.5063995E-01
   7164.67  3.5140380E-01
   7165.00  3.5254613E-01
   7165.33  3.5405910E-01
   7165.67  3.5585214E-01
   7166.00  3.5788454E-01
   7166.33  3.6013656E-01
   7166.67  3.6254408E-01
   7167.00  3.6507750E-01
   7167.33  3.6772018E-01
   7167.67  3.7043559E-01
   7168.00  3.7320469E-01
   7168.33  3.7601202E-01
   7168.67  3.7883586E-01
   7169.00  3.8166186E-01
   7169.33  3.8447103E-01
   7169.67  3.8724633E-01
   7170.00  3.8996944E-01
   7170.33  3.9260660E-01
   7170.67  3.9513830E-01
   7171.00  3.9753279E-01
   7171.33  3.9971331E-01
   7171.67  4.0161826E-01
   7172.00  4.0314423E-01
