    FDMNES
    energy     <xanes>
   7097.00  4.4010783E-03
   7097.33  4.4953750E-03
   7097.67  4.5936251E-03
   7098.00  4.6960867E-03
   7098.33  4.8036598E-03
   7098.67  4.9161464E-03
   7099.00  5.0338983E-03
   7099.33  5.1580873E-03
   7099.67  5.2885122E-03
   7100.00  5.4256661E-03
   7100.33  5.5711183E-03
   7100.67  5.7246839E-03
   7101.00  5.8870784E-03
   7101.33  6.0604749E-03
   7101.67  6.2447489E-03
   7102.00  6.4409811E-03
   7102.33  6.6523057E-03
   7102.67  6.8787573E-03
   7103.00  7.1220488E-03
   7103.33  7.3869313E-03
   7103.67  7.6738258E-03
   7104.00  7.9856133E-03
   7104.33  8.3299569E-03
   7104.67  8.7082174E-03
   7105.00  9.1256141E-03
   7105.33  9.5955252E-03
   7105.67  1.0121714E-02
   7106.00  1.0714589E-02
   7106.33  1.1400072E-02
   7106.67  1.2188679E-02
   7107.00  1.3104044E-02
   7107.33  1.4204134E-02
   7107.67  1.5521584E-02
   7108.00  1.7120977E-02
   7108.33  1.9162326E-02
   7108.67  2.1770481E-02
   7109.00  2.5180416E-02
   7109.33  3.0010041E-02
   7109.67  3.6950935E-02
   7110.00  4.7353606E-02
   7110.33  6.5101577E-02
   7110.67  9.4490231E-02
   7111.00  1.3748510E-01
   7111.33  1.8377221E-01
   7111.67  2.1999402E-01
   7112.00  2.4406447E-01
   7112.33  2.5515739E-01
   7112.67  2.5831368E-01
   7113.00  2.3956002E-01
   7113.33  1.9708452E-01
   7113.67  1.5616660E-01
   7114.00  1.2690908E-01
   7114.33  1.0693467E-01
   7114.67  9.0191851E-02
   7115.00  7.7942736E-02
   7115.33  7.0845600E-02
   7115.67  6.6156713E-02
   7116.00  6.2827192E-02
   7116.33  6.1181300E-02
   7116.67  6.1133581E-02
   7117.00  6.2412833E-02
   7117.33  6.4633355E-02
   7117.67  6.7290276E-02
   7118.00  7.0383162E-02
   7118.33  7.4361570E-02
   7118.67  7.9534967E-02
   7119.00  8.6188053E-02
   7119.33  9.4814237E-02
   7119.67  1.0542642E-01
   7120.00  1.1819976E-01
   7120.33  1.3359105E-01
   7120.67  1.5139946E-01
   7121.00  1.7161455E-01
   7121.33  1.9438422E-01
   7121.67  2.1913254E-01
   7122.00  2.4542690E-01
   7122.33  2.7251314E-01
   7122.67  2.9916908E-01
   7123.00  3.2442552E-01
   7123.33  3.4700877E-01
   7123.67  3.6658073E-01
   7124.00  3.8331632E-01
   7124.33  3.9786982E-01
   7124.67  4.1099550E-01
   7125.00  4.2224103E-01
   7125.33  4.3041788E-01
   7125.67  4.3589592E-01
   7126.00  4.3949723E-01
   7126.33  4.4228447E-01
   7126.67  4.4517936E-01
   7127.00  4.4845192E-01
   7127.33  4.5213088E-01
   7127.67  4.5626261E-01
   7128.00  4.6110989E-01
   7128.33  4.6692572E-01
   7128.67  4.7326485E-01
   7129.00  4.7962795E-01
   7129.33  4.8557436E-01
   7129.67  4.9114439E-01
   7130.00  4.9660574E-01
   7130.33  5.0255337E-01
   7130.67  5.0963945E-01
   7131.00  5.1856184E-01
   7131.33  5.3059354E-01
   7131.67  5.4640320E-01
   7132.00  5.6677239E-01
   7132.33  5.9276105E-01
   7132.67  6.2321723E-01
   7133.00  6.5670719E-01
   7133.33  6.9077921E-01
   7133.67  7.2295744E-01
   7134.00  7.5196528E-01
   7134.33  7.7633135E-01
   7134.67  7.9551967E-01
   7135.00  8.0880138E-01
   7135.33  8.1517980E-01
   7135.67  8.1581362E-01
   7136.00  8.1144379E-01
   7136.33  8.0279821E-01
   7136.67  7.9167541E-01
   7137.00  7.7909533E-01
   7137.33  7.6586871E-01
   7137.67  7.5257207E-01
   7138.00  7.3940788E-01
   7138.33  7.2653177E-01
   7138.67  7.1402658E-01
   7139.00  7.0202123E-01
   7139.33  6.9077601E-01
   7139.67  6.8037361E-01
   7140.00  6.7092144E-01
   7140.33  6.6260694E-01
   7140.67  6.5529105E-01
   7141.00  6.4891023E-01
   7141.33  6.4344472E-01
   7141.67  6.3864045E-01
   7142.00  6.3435974E-01
   7142.33  6.3050134E-01
   7142.67  6.2690301E-01
   7143.00  6.2350427E-01
   7143.33  6.2030980E-01
   7143.67  6.1733253E-01
   7144.00  6.1462714E-01
   7144.33  6.1230391E-01
   7144.67  6.1039679E-01
   7145.00  6.0897696E-01
   7145.33  6.0819102E-01
   7145.67  6.0802421E-01
   7146.00  6.0850006E-01
   7146.33  6.0969113E-01
   7146.67  6.1147058E-01
   7147.00  6.1376452E-01
   7147.33  6.1649799E-01
   7147.67  6.1945690E-01
   7148.00  6.2247009E-01
   7148.33  6.2530549E-01
   7148.67  6.2776717E-01
   7149.00  6.2967033E-01
   7149.33  6.3071709E-01
   7149.67  6.3083428E-01
   7150.00  6.2991735E-01
   7150.33  6.2775640E-01
   7150.67  6.2447303E-01
   7151.00  6.2009567E-01
   7151.33  6.1457657E-01
   7151.67  6.0815869E-01
   7152.00  6.0096050E-01
   7152.33  5.9305085E-01
   7152.67  5.8465503E-01
   7153.00  5.7588903E-01
   7153.33  5.6683695E-01
   7153.67  5.5762178E-01
   7154.00  5.4830236E-01
   7154.33  5.3892255E-01
   7154.67  5.2952508E-01
   7155.00  5.2013149E-01
   7155.33  5.1075950E-01
   7155.67  5.0141220E-01
   7156.00  4.9209362E-01
   7156.33  4.8281512E-01
   7156.67  4.7358350E-01
   7157.00  4.6441328E-01
   7157.33  4.5533712E-01
   7157.67  4.4637215E-01
   7158.00  4.3754618E-01
   7158.33  4.2891774E-01
   7158.67  4.2050622E-01
   7159.00  4.1235113E-01
   7159.33  4.0453952E-01
   7159.67  3.9708402E-01
   7160.00  3.9002927E-01
   7160.33  3.8348289E-01
   7160.67  3.7743655E-01
   7161.00  3.7192681E-01
   7161.33  3.6706100E-01
   7161.67  3.6279591E-01
   7162.00  3.5914800E-01
   7162.33  3.5620438E-01
   7162.67  3.5388456E-01
   7163.00  3.5217318E-01
   7163.33  3.5111105E-01
   7163.67  3.5059133E-01
   7164.00  3.5057963E-01
   7164.33  3.5108639E-01
   7164.67  3.5200112E-01
   7165.00  3.5327602E-01
   7165.33  3.5489245E-01
   7165.67  3.5675722E-01
   7166.00  3.5882624E-01
   7166.33  3.6107328E-01
   7166.67  3.6343908E-01
   7167.00  3.6589577E-01
   7167.33  3.6842598E-01
   7167.67  3.7100117E-01
   7168.00  3.7360674E-01
   7168.33  3.7623098E-01
   7168.67  3.7886032E-01
   7169.00  3.8148538E-01
   7169.33  3.8409245E-01
   7169.67  3.8666948E-01
   7170.00  3.8920194E-01
   7170.33  3.9166142E-01
   7170.67  3.9403044E-01
   7171.00  3.9627979E-01
   7171.33  3.9833784E-01
   7171.67  4.0014269E-01
   7172.00  4.0159227E-01
