    FDMNES
    energy     <xanes>
   7097.00  5.0021858E-03
   7097.33  5.1190246E-03
   7097.67  5.2410948E-03
   7098.00  5.3687469E-03
   7098.33  5.5031860E-03
   7098.67  5.6441599E-03
   7099.00  5.7921455E-03
   7099.33  5.9487150E-03
   7099.67  6.1136097E-03
   7100.00  6.2874959E-03
   7100.33  6.4724789E-03
   7100.67  6.6683174E-03
   7101.00  6.8759718E-03
   7101.33  7.0983509E-03
   7101.67  7.3352839E-03
   7102.00  7.5882086E-03
   7102.33  7.8612977E-03
   7102.67  8.1545705E-03
   7103.00  8.4702797E-03
   7103.33  8.8146939E-03
   7103.67  9.1882964E-03
   7104.00  9.5948207E-03
   7104.33  1.0044247E-02
   7104.67  1.0538184E-02
   7105.00  1.1083274E-02
   7105.33  1.1696643E-02
   7105.67  1.2382750E-02
   7106.00  1.3154567E-02
   7106.33  1.4044553E-02
   7106.67  1.5065091E-02
   7107.00  1.6244918E-02
   7107.33  1.7654713E-02
   7107.67  1.9332367E-02
   7108.00  2.1354217E-02
   7108.33  2.3909224E-02
   7108.67  2.7139216E-02
   7109.00  3.1312660E-02
   7109.33  3.7131317E-02
   7109.67  4.5356339E-02
   7110.00  5.7468543E-02
   7110.33  7.7683055E-02
   7110.67  1.1054588E-01
   7111.00  1.5849642E-01
   7111.33  2.1860906E-01
   7111.67  2.8606517E-01
   7112.00  3.3303681E-01
   7112.33  3.2307456E-01
   7112.67  2.9240189E-01
   7113.00  2.5786357E-01
   7113.33  2.1863685E-01
   7113.67  1.8806198E-01
   7114.00  1.7403493E-01
   7114.33  1.7966043E-01
   7114.67  2.0233772E-01
   7115.00  2.4041773E-01
   7115.33  2.8344425E-01
   7115.67  3.1266877E-01
   7116.00  3.2547692E-01
   7116.33  3.3033603E-01
   7116.67  3.2747353E-01
   7117.00  3.1332859E-01
   7117.33  2.9040680E-01
   7117.67  2.6622412E-01
   7118.00  2.4399568E-01
   7118.33  2.2444255E-01
   7118.67  2.0668875E-01
   7119.00  1.9085762E-01
   7119.33  1.7776625E-01
   7119.67  1.6738966E-01
   7120.00  1.5972187E-01
   7120.33  1.5500785E-01
   7120.67  1.5291487E-01
   7121.00  1.5354205E-01
   7121.33  1.5748827E-01
   7121.67  1.6446071E-01
   7122.00  1.7406744E-01
   7122.33  1.8564156E-01
   7122.67  1.9861608E-01
   7123.00  2.1395220E-01
   7123.33  2.3420662E-01
   7123.67  2.5967517E-01
   7124.00  2.8850042E-01
   7124.33  3.1467523E-01
   7124.67  3.3230375E-01
   7125.00  3.4037473E-01
   7125.33  3.4283457E-01
   7125.67  3.4560355E-01
   7126.00  3.5074286E-01
   7126.33  3.5871856E-01
   7126.67  3.6912779E-01
   7127.00  3.8249898E-01
   7127.33  3.9990007E-01
   7127.67  4.2065679E-01
   7128.00  4.4381139E-01
   7128.33  4.6806293E-01
   7128.67  4.9240717E-01
   7129.00  5.1679625E-01
   7129.33  5.4151868E-01
   7129.67  5.6664159E-01
   7130.00  5.9192035E-01
   7130.33  6.1629299E-01
   7130.67  6.3813598E-01
   7131.00  6.5584135E-01
   7131.33  6.6783880E-01
   7131.67  6.7561106E-01
   7132.00  6.8118746E-01
   7132.33  6.8762621E-01
   7132.67  6.9735016E-01
   7133.00  7.1147638E-01
   7133.33  7.3003400E-01
   7133.67  7.5008607E-01
   7134.00  7.6853681E-01
   7134.33  7.8162220E-01
   7134.67  7.8878951E-01
   7135.00  7.9072400E-01
   7135.33  7.8839838E-01
   7135.67  7.8324502E-01
   7136.00  7.7542506E-01
   7136.33  7.6427045E-01
   7136.67  7.4981114E-01
   7137.00  7.3204239E-01
   7137.33  7.1112978E-01
   7137.67  6.8845146E-01
   7138.00  6.6513269E-01
   7138.33  6.4258603E-01
   7138.67  6.2183668E-01
   7139.00  6.0355423E-01
   7139.33  5.8850537E-01
   7139.67  5.7638979E-01
   7140.00  5.6708472E-01
   7140.33  5.6067421E-01
   7140.67  5.5655539E-01
   7141.00  5.5446882E-01
   7141.33  5.5429882E-01
   7141.67  5.5546810E-01
   7142.00  5.5763892E-01
   7142.33  5.6048222E-01
   7142.67  5.6353839E-01
   7143.00  5.6651532E-01
   7143.33  5.6909099E-01
   7143.67  5.7110767E-01
   7144.00  5.7245051E-01
   7144.33  5.7295493E-01
   7144.67  5.7270186E-01
   7145.00  5.7172163E-01
   7145.33  5.7000848E-01
   7145.67  5.6775650E-01
   7146.00  5.6508597E-01
   7146.33  5.6211220E-01
   7146.67  5.5900491E-01
   7147.00  5.5587424E-01
   7147.33  5.5286248E-01
   7147.67  5.5008316E-01
   7148.00  5.4763887E-01
   7148.33  5.4569447E-01
   7148.67  5.4429126E-01
   7149.00  5.4349537E-01
   7149.33  5.4343863E-01
   7149.67  5.4405562E-01
   7150.00  5.4532819E-01
   7150.33  5.4726730E-01
   7150.67  5.4968796E-01
   7151.00  5.5245568E-01
   7151.33  5.5540282E-01
   7151.67  5.5830078E-01
   7152.00  5.6096535E-01
   7152.33  5.6315442E-01
   7152.67  5.6477780E-01
   7153.00  5.6575590E-01
   7153.33  5.6596196E-01
   7153.67  5.6549192E-01
   7154.00  5.6438848E-01
   7154.33  5.6266190E-01
   7154.67  5.6048259E-01
   7155.00  5.5794705E-01
   7155.33  5.5514090E-01
   7155.67  5.5220674E-01
   7156.00  5.4923440E-01
   7156.33  5.4632388E-01
   7156.67  5.4354596E-01
   7157.00  5.4095279E-01
   7157.33  5.3861429E-01
   7157.67  5.3652255E-01
   7158.00  5.3467915E-01
   7158.33  5.3309896E-01
   7158.67  5.3172460E-01
   7159.00  5.3052436E-01
   7159.33  5.2947294E-01
   7159.67  5.2851097E-01
   7160.00  5.2760408E-01
   7160.33  5.2671916E-01
   7160.67  5.2582389E-01
   7161.00  5.2489839E-01
   7161.33  5.2391858E-01
   7161.67  5.2287345E-01
   7162.00  5.2174583E-01
   7162.33  5.2049761E-01
   7162.67  5.1911150E-01
   7163.00  5.1755446E-01
   7163.33  5.1575946E-01
   7163.67  5.1371228E-01
   7164.00  5.1137939E-01
   7164.33  5.0868788E-01
   7164.67  5.0565446E-01
   7165.00  5.0227042E-01
   7165.33  4.9849848E-01
   7165.67  4.9440411E-01
   7166.00  4.9001742E-01
   7166.33  4.8535148E-01
   7166.67  4.8048970E-01
   7167.00  4.7548214E-01
   7167.33  4.7037897E-01
   7167.67  4.6525088E-01
   7168.00  4.6014824E-01
   7168.33  4.5513933E-01
   7168.67  4.5026663E-01
   7169.00  4.4556985E-01
   7169.33  4.4111546E-01
   7169.67  4.3691122E-01
   7170.00  4.3298473E-01
   7170.33  4.2940446E-01
   7170.67  4.2616030E-01
   7171.00  4.2327578E-01
   7171.33  4.2082730E-01
   7171.67  4.1879902E-01
   7172.00  4.1721873E-01
