    FDMNES
    energy     <xanes>
   7097.00  4.0907566E-03
   7097.33  4.1707319E-03
   7097.67  4.2537017E-03
   7098.00  4.3398437E-03
   7098.33  4.4298101E-03
   7098.67  4.5234279E-03
   7099.00  4.6209350E-03
   7099.33  4.7231635E-03
   7099.67  4.8299325E-03
   7100.00  4.9415704E-03
   7100.33  5.0591678E-03
   7100.67  5.1825477E-03
   7101.00  5.3121788E-03
   7101.33  5.4495395E-03
   7101.67  5.5944825E-03
   7102.00  5.7477052E-03
   7102.33  5.9112954E-03
   7102.67  6.0851950E-03
   7103.00  6.2704945E-03
   7103.33  6.4702964E-03
   7103.67  6.6847701E-03
   7104.00  6.9157286E-03
   7104.33  7.1680877E-03
   7104.67  7.4425828E-03
   7105.00  7.7424699E-03
   7105.33  8.0762061E-03
   7105.67  8.4459948E-03
   7106.00  8.8582968E-03
   7106.33  9.3293346E-03
   7106.67  9.8654893E-03
   7107.00  1.0481432E-02
   7107.33  1.1213332E-02
   7107.67  1.2081466E-02
   7108.00  1.3126281E-02
   7108.33  1.4448485E-02
   7108.67  1.6127843E-02
   7109.00  1.8315314E-02
   7109.33  2.1411848E-02
   7109.67  2.5880124E-02
   7110.00  3.2629770E-02
   7110.33  4.4245928E-02
   7110.67  6.2973987E-02
   7111.00  8.7168369E-02
   7111.33  1.0819577E-01
   7111.67  1.2842541E-01
   7112.00  1.4835679E-01
   7112.33  1.6137315E-01
   7112.67  1.5826270E-01
   7113.00  1.3941488E-01
   7113.33  1.2434577E-01
   7113.67  1.1229317E-01
   7114.00  9.7946502E-02
   7114.33  8.7667336E-02
   7114.67  7.8567942E-02
   7115.00  6.4798903E-02
   7115.33  5.1830891E-02
   7115.67  4.3560708E-02
   7116.00  3.9016097E-02
   7116.33  3.7006773E-02
   7116.67  3.6372357E-02
   7117.00  3.6685710E-02
   7117.33  3.7796363E-02
   7117.67  3.9585738E-02
   7118.00  4.2081903E-02
   7118.33  4.5363455E-02
   7118.67  4.9303380E-02
   7119.00  5.3866950E-02
   7119.33  5.9098645E-02
   7119.67  6.4992742E-02
   7120.00  7.1809465E-02
   7120.33  8.0296272E-02
   7120.67  9.0901392E-02
   7121.00  1.0407338E-01
   7121.33  1.2049457E-01
   7121.67  1.3986937E-01
   7122.00  1.6214548E-01
   7122.33  1.8789556E-01
   7122.67  2.1746486E-01
   7123.00  2.5171048E-01
   7123.33  2.9174530E-01
   7123.67  3.3555476E-01
   7124.00  3.7946545E-01
   7124.33  4.1564258E-01
   7124.67  4.3865958E-01
   7125.00  4.4739015E-01
   7125.33  4.4427427E-01
   7125.67  4.3629121E-01
   7126.00  4.2759699E-01
   7126.33  4.2061992E-01
   7126.67  4.1519663E-01
   7127.00  4.1240422E-01
   7127.33  4.1627977E-01
   7127.67  4.2814468E-01
   7128.00  4.4738848E-01
   7128.33  4.7264967E-01
   7128.67  5.0187228E-01
   7129.00  5.3508999E-01
   7129.33  5.7355428E-01
   7129.67  6.1635968E-01
   7130.00  6.6167117E-01
   7130.33  7.0670279E-01
   7130.67  7.5089068E-01
   7131.00  7.9632106E-01
   7131.33  8.4604140E-01
   7131.67  8.9831941E-01
   7132.00  9.4825936E-01
   7132.33  9.8717707E-01
   7132.67  1.0106149E+00
   7133.00  1.0167315E+00
   7133.33  1.0056460E+00
   7133.67  9.8582768E-01
   7134.00  9.6422961E-01
   7134.33  9.4540250E-01
   7134.67  9.2735499E-01
   7135.00  9.0681249E-01
   7135.33  8.8143703E-01
   7135.67  8.5273963E-01
   7136.00  8.2247061E-01
   7136.33  7.9242141E-01
   7136.67  7.6364319E-01
   7137.00  7.3657972E-01
   7137.33  7.1162561E-01
   7137.67  6.8849908E-01
   7138.00  6.6709690E-01
   7138.33  6.4750748E-01
   7138.67  6.2947444E-01
   7139.00  6.1301004E-01
   7139.33  5.9838432E-01
   7139.67  5.8548290E-01
   7140.00  5.7437996E-01
   7140.33  5.6537415E-01
   7140.67  5.5826528E-01
   7141.00  5.5304454E-01
   7141.33  5.4987585E-01
   7141.67  5.4840318E-01
   7142.00  5.4845441E-01
   7142.33  5.4990777E-01
   7142.67  5.5227561E-01
   7143.00  5.5527716E-01
   7143.33  5.5870444E-01
   7143.67  5.6237612E-01
   7144.00  5.6627181E-01
   7144.33  5.7044091E-01
   7144.67  5.7482752E-01
   7145.00  5.7933366E-01
   7145.33  5.8373880E-01
   7145.67  5.8778741E-01
   7146.00  5.9126165E-01
   7146.33  5.9386564E-01
   7146.67  5.9556978E-01
   7147.00  5.9632139E-01
   7147.33  5.9599287E-01
   7147.67  5.9474408E-01
   7148.00  5.9263734E-01
   7148.33  5.8966594E-01
   7148.67  5.8601792E-01
   7149.00  5.8176283E-01
   7149.33  5.7689714E-01
   7149.67  5.7153805E-01
   7150.00  5.6571992E-01
   7150.33  5.5942534E-01
   7150.67  5.5274843E-01
   7151.00  5.4572818E-01
   7151.33  5.3836096E-01
   7151.67  5.3071017E-01
   7152.00  5.2279086E-01
   7152.33  5.1457931E-01
   7152.67  5.0610752E-01
   7153.00  4.9736612E-01
   7153.33  4.8830778E-01
   7153.67  4.7896923E-01
   7154.00  4.6936199E-01
   7154.33  4.5947882E-01
   7154.67  4.4939256E-01
   7155.00  4.3915624E-01
   7155.33  4.2883520E-01
   7155.67  4.1851849E-01
   7156.00  4.0827223E-01
   7156.33  3.9818370E-01
   7156.67  3.8829682E-01
   7157.00  3.7865897E-01
   7157.33  3.6935312E-01
   7157.67  3.6037841E-01
   7158.00  3.5176070E-01
   7158.33  3.4357529E-01
   7158.67  3.3580157E-01
   7159.00  3.2846580E-01
   7159.33  3.2166335E-01
   7159.67  3.1538181E-01
   7160.00  3.0967391E-01
   7160.33  3.0469503E-01
   7160.67  3.0044839E-01
   7161.00  2.9701575E-01
   7161.33  2.9460552E-01
   7161.67  2.9316922E-01
   7162.00  2.9272261E-01
   7162.33  2.9336539E-01
   7162.67  2.9490874E-01
   7163.00  2.9725774E-01
   7163.33  3.0036472E-01
   7163.67  3.0400201E-01
   7164.00  3.0804686E-01
   7164.33  3.1240337E-01
   7164.67  3.1692710E-01
   7165.00  3.2154408E-01
   7165.33  3.2619544E-01
   7165.67  3.3083438E-01
   7166.00  3.3543336E-01
   7166.33  3.3995993E-01
   7166.67  3.4440470E-01
   7167.00  3.4875719E-01
   7167.33  3.5299835E-01
   7167.67  3.5714033E-01
   7168.00  3.6118879E-01
   7168.33  3.6514768E-01
   7168.67  3.6904778E-01
   7169.00  3.7291082E-01
   7169.33  3.7676272E-01
   7169.67  3.8062980E-01
   7170.00  3.8452849E-01
   7170.33  3.8847221E-01
   7170.67  3.9244463E-01
   7171.00  3.9640965E-01
   7171.33  4.0025658E-01
   7171.67  4.0379401E-01
   7172.00  4.0673951E-01
