    FDMNES
    energy     <xanes>
   7097.00  4.6137549E-03
   7097.33  4.7157968E-03
   7097.67  4.8223741E-03
   7098.00  4.9337959E-03
   7098.33  5.0511153E-03
   7098.67  5.1741212E-03
   7099.00  5.3032362E-03
   7099.33  5.4398419E-03
   7099.67  5.5837248E-03
   7100.00  5.7354792E-03
   7100.33  5.8969666E-03
   7100.67  6.0679944E-03
   7101.00  6.2494255E-03
   7101.33  6.4438498E-03
   7101.67  6.6511465E-03
   7102.00  6.8726171E-03
   7102.33  7.1120058E-03
   7102.67  7.3693780E-03
   7103.00  7.6467890E-03
   7103.33  7.9499122E-03
   7103.67  8.2792606E-03
   7104.00  8.6382688E-03
   7104.33  9.0360566E-03
   7104.67  9.4742169E-03
   7105.00  9.9589192E-03
   7105.33  1.0505981E-02
   7105.67  1.1119747E-02
   7106.00  1.1812404E-02
   7106.33  1.2614345E-02
   7106.67  1.3537657E-02
   7107.00  1.4609818E-02
   7107.33  1.5898375E-02
   7107.67  1.7441124E-02
   7108.00  1.9313431E-02
   7108.33  2.1703054E-02
   7108.67  2.4759260E-02
   7109.00  2.8765736E-02
   7109.33  3.4481076E-02
   7109.67  4.2797944E-02
   7110.00  5.5483683E-02
   7110.33  7.7538323E-02
   7110.67  1.1254488E-01
   7111.00  1.5319949E-01
   7111.33  1.7406735E-01
   7111.67  1.8646688E-01
   7112.00  2.0950042E-01
   7112.33  2.6114501E-01
   7112.67  3.3966911E-01
   7113.00  4.0761856E-01
   7113.33  3.8873571E-01
   7113.67  3.1573904E-01
   7114.00  2.4383018E-01
   7114.33  1.9960336E-01
   7114.67  1.7387148E-01
   7115.00  1.6105434E-01
   7115.33  1.6310690E-01
   7115.67  1.7117565E-01
   7116.00  1.6555995E-01
   7116.33  1.4194794E-01
   7116.67  1.2032711E-01
   7117.00  1.0598939E-01
   7117.33  9.8462904E-02
   7117.67  9.5074947E-02
   7118.00  9.4758176E-02
   7118.33  9.6762219E-02
   7118.67  9.9779919E-02
   7119.00  1.0333086E-01
   7119.33  1.0755181E-01
   7119.67  1.1307597E-01
   7120.00  1.2071538E-01
   7120.33  1.2949183E-01
   7120.67  1.3527520E-01
   7121.00  1.3695869E-01
   7121.33  1.3811136E-01
   7121.67  1.4159954E-01
   7122.00  1.4780797E-01
   7122.33  1.5680254E-01
   7122.67  1.6809743E-01
   7123.00  1.8161245E-01
   7123.33  1.9751351E-01
   7123.67  2.1535552E-01
   7124.00  2.3479562E-01
   7124.33  2.5515520E-01
   7124.67  2.7512582E-01
   7125.00  2.9353427E-01
   7125.33  3.0926384E-01
   7125.67  3.2309366E-01
   7126.00  3.3623004E-01
   7126.33  3.5002589E-01
   7126.67  3.6490642E-01
   7127.00  3.8056702E-01
   7127.33  3.9577919E-01
   7127.67  4.0889192E-01
   7128.00  4.1863910E-01
   7128.33  4.2391691E-01
   7128.67  4.2569109E-01
   7129.00  4.2500090E-01
   7129.33  4.2320024E-01
   7129.67  4.2163343E-01
   7130.00  4.2092500E-01
   7130.33  4.2156718E-01
   7130.67  4.2355905E-01
   7131.00  4.2698686E-01
   7131.33  4.3215191E-01
   7131.67  4.3901359E-01
   7132.00  4.4775946E-01
   7132.33  4.5894135E-01
   7132.67  4.7257915E-01
   7133.00  4.8881399E-01
   7133.33  5.0777131E-01
   7133.67  5.2836662E-01
   7134.00  5.4932573E-01
   7134.33  5.6836562E-01
   7134.67  5.8352988E-01
   7135.00  5.9346613E-01
   7135.33  5.9701374E-01
   7135.67  5.9567260E-01
   7136.00  5.9075439E-01
   7136.33  5.8368779E-01
   7136.67  5.7610815E-01
   7137.00  5.6886649E-01
   7137.33  5.6269020E-01
   7137.67  5.5775807E-01
   7138.00  5.5416219E-01
   7138.33  5.5207144E-01
   7138.67  5.5126908E-01
   7139.00  5.5170515E-01
   7139.33  5.5348194E-01
   7139.67  5.5642091E-01
   7140.00  5.6050040E-01
   7140.33  5.6579582E-01
   7140.67  5.7204815E-01
   7141.00  5.7911544E-01
   7141.33  5.8688629E-01
   7141.67  5.9507717E-01
   7142.00  6.0351401E-01
   7142.33  6.1203049E-01
   7142.67  6.2049622E-01
   7143.00  6.2886096E-01
   7143.33  6.3711733E-01
   7143.67  6.4533478E-01
   7144.00  6.5358456E-01
   7144.33  6.6196067E-01
   7144.67  6.7049707E-01
   7145.00  6.7919295E-01
   7145.33  6.8800328E-01
   7145.67  6.9679678E-01
   7146.00  7.0542969E-01
   7146.33  7.1365474E-01
   7146.67  7.2129548E-01
   7147.00  7.2816085E-01
   7147.33  7.3392320E-01
   7147.67  7.3853438E-01
   7148.00  7.4188422E-01
   7148.33  7.4372579E-01
   7148.67  7.4420385E-01
   7149.00  7.4334409E-01
   7149.33  7.4106743E-01
   7149.67  7.3765311E-01
   7150.00  7.3323137E-01
   7150.33  7.2786673E-01
   7150.67  7.2183940E-01
   7151.00  7.1529526E-01
   7151.33  7.0834435E-01
   7151.67  7.0116570E-01
   7152.00  6.9385533E-01
   7152.33  6.8649842E-01
   7152.67  6.7917110E-01
   7153.00  6.7192221E-01
   7153.33  6.6481391E-01
   7153.67  6.5787261E-01
   7154.00  6.5113366E-01
   7154.33  6.4466354E-01
   7154.67  6.3846251E-01
   7155.00  6.3255059E-01
   7155.33  6.2698093E-01
   7155.67  6.2172289E-01
   7156.00  6.1677767E-01
   7156.33  6.1217968E-01
   7156.67  6.0788181E-01
   7157.00  6.0387503E-01
   7157.33  6.0018450E-01
   7157.67  5.9676850E-01
   7158.00  5.9362563E-01
   7158.33  5.9079374E-01
   7158.67  5.8824586E-01
   7159.00  5.8599051E-01
   7159.33  5.8407503E-01
   7159.67  5.8246719E-01
   7160.00  5.8116530E-01
   7160.33  5.8019411E-01
   7160.67  5.7949307E-01
   7161.00  5.7902680E-01
   7161.33  5.7875699E-01
   7161.67  5.7858490E-01
   7162.00  5.7843202E-01
   7162.33  5.7819368E-01
   7162.67  5.7778412E-01
   7163.00  5.7712359E-01
   7163.33  5.7608512E-01
   7163.67  5.7464269E-01
   7164.00  5.7275637E-01
   7164.33  5.7033940E-01
   7164.67  5.6744458E-01
   7165.00  5.6408525E-01
   7165.33  5.6024261E-01
   7165.67  5.5602232E-01
   7166.00  5.5147958E-01
   7166.33  5.4665592E-01
   7166.67  5.4166113E-01
   7167.00  5.3656430E-01
   7167.33  5.3143874E-01
   7167.67  5.2635712E-01
   7168.00  5.2137338E-01
   7168.33  5.1656836E-01
   7168.67  5.1197786E-01
   7169.00  5.0763523E-01
   7169.33  5.0360361E-01
   7169.67  4.9987226E-01
   7170.00  4.9645816E-01
   7170.33  4.9341799E-01
   7170.67  4.9072080E-01
   7171.00  4.8837282E-01
   7171.33  4.8642323E-01
   7171.67  4.8483204E-01
   7172.00  4.8359994E-01
