    FDMNES
    energy     <xanes>
   7097.00  5.2096151E-03
   7097.33  5.3376685E-03
   7097.67  5.4717976E-03
   7098.00  5.6124292E-03
   7098.33  5.7609959E-03
   7098.67  5.9172313E-03
   7099.00  6.0817216E-03
   7099.33  6.2563565E-03
   7099.67  6.4408687E-03
   7100.00  6.6360842E-03
   7100.33  6.8445623E-03
   7100.67  7.0660663E-03
   7101.00  7.3017974E-03
   7101.33  7.5553297E-03
   7101.67  7.8265273E-03
   7102.00  8.1172016E-03
   7102.33  8.4325313E-03
   7102.67  8.7726350E-03
   7103.00  9.1403660E-03
   7103.33  9.5435703E-03
   7103.67  9.9829679E-03
   7104.00  1.0463299E-02
   7104.33  1.0997124E-02
   7104.67  1.1586589E-02
   7105.00  1.2240106E-02
   7105.33  1.2979250E-02
   7105.67  1.3809685E-02
   7106.00  1.4747695E-02
   7106.33  1.5833883E-02
   7106.67  1.7083426E-02
   7107.00  1.8531690E-02
   7107.33  2.0265382E-02
   7107.67  2.2329133E-02
   7108.00  2.4813558E-02
   7108.33  2.7941567E-02
   7108.67  3.1871442E-02
   7109.00  3.6903310E-02
   7109.33  4.3810606E-02
   7109.67  5.3381807E-02
   7110.00  6.7137273E-02
   7110.33  8.9334093E-02
   7110.67  1.2449785E-01
   7111.00  1.7577748E-01
   7111.33  2.4378680E-01
   7111.67  3.3111514E-01
   7112.00  4.3600337E-01
   7112.33  5.2889419E-01
   7112.67  5.6112727E-01
   7113.00  5.1928444E-01
   7113.33  4.2907219E-01
   7113.67  3.4423911E-01
   7114.00  2.8262714E-01
   7114.33  2.4666379E-01
   7114.67  2.2913296E-01
   7115.00  2.2709490E-01
   7115.33  2.3619607E-01
   7115.67  2.4334182E-01
   7116.00  2.3880847E-01
   7116.33  2.2153801E-01
   7116.67  2.0079233E-01
   7117.00  1.8215044E-01
   7117.33  1.6897513E-01
   7117.67  1.6084697E-01
   7118.00  1.5698539E-01
   7118.33  1.5629149E-01
   7118.67  1.5625933E-01
   7119.00  1.5459533E-01
   7119.33  1.4940454E-01
   7119.67  1.4213937E-01
   7120.00  1.3487888E-01
   7120.33  1.2979607E-01
   7120.67  1.2730851E-01
   7121.00  1.2711454E-01
   7121.33  1.2874857E-01
   7121.67  1.3152634E-01
   7122.00  1.3524938E-01
   7122.33  1.3994277E-01
   7122.67  1.4550907E-01
   7123.00  1.5202506E-01
   7123.33  1.5978050E-01
   7123.67  1.6879694E-01
   7124.00  1.7916888E-01
   7124.33  1.9096930E-01
   7124.67  2.0349587E-01
   7125.00  2.1614522E-01
   7125.33  2.2890550E-01
   7125.67  2.4245835E-01
   7126.00  2.5727178E-01
   7126.33  2.7351859E-01
   7126.67  2.9091776E-01
   7127.00  3.0963468E-01
   7127.33  3.3048056E-01
   7127.67  3.5419550E-01
   7128.00  3.8188697E-01
   7128.33  4.1545912E-01
   7128.67  4.5481218E-01
   7129.00  4.9936852E-01
   7129.33  5.4743644E-01
   7129.67  5.9582310E-01
   7130.00  6.4320071E-01
   7130.33  6.9107153E-01
   7130.67  7.4268159E-01
   7131.00  7.9967240E-01
   7131.33  8.6119184E-01
   7131.67  9.2226227E-01
   7132.00  9.7771166E-01
   7132.33  1.0204231E+00
   7132.67  1.0481751E+00
   7133.00  1.0596084E+00
   7133.33  1.0522850E+00
   7133.67  1.0292020E+00
   7134.00  9.9245907E-01
   7134.33  9.4452751E-01
   7134.67  8.9079365E-01
   7135.00  8.3444580E-01
   7135.33  7.7841553E-01
   7135.67  7.2470450E-01
   7136.00  6.7452103E-01
   7136.33  6.2939639E-01
   7136.67  5.8942606E-01
   7137.00  5.5501695E-01
   7137.33  5.2725001E-01
   7137.67  5.0558220E-01
   7138.00  4.9000570E-01
   7138.33  4.8090111E-01
   7138.67  4.7673187E-01
   7139.00  4.7639130E-01
   7139.33  4.7857526E-01
   7139.67  4.8151084E-01
   7140.00  4.8434335E-01
   7140.33  4.8671906E-01
   7140.67  4.8899296E-01
   7141.00  4.9165305E-01
   7141.33  4.9534571E-01
   7141.67  5.0026940E-01
   7142.00  5.0648855E-01
   7142.33  5.1402336E-01
   7142.67  5.2243338E-01
   7143.00  5.3137229E-01
   7143.33  5.4038765E-01
   7143.67  5.4900575E-01
   7144.00  5.5687186E-01
   7144.33  5.6354505E-01
   7144.67  5.6899817E-01
   7145.00  5.7321970E-01
   7145.33  5.7618018E-01
   7145.67  5.7820612E-01
   7146.00  5.7946903E-01
   7146.33  5.8006551E-01
   7146.67  5.8018500E-01
   7147.00  5.7988117E-01
   7147.33  5.7913002E-01
   7147.67  5.7799652E-01
   7148.00  5.7651090E-01
   7148.33  5.7471128E-01
   7148.67  5.7274584E-01
   7149.00  5.7072933E-01
   7149.33  5.6880583E-01
   7149.67  5.6708367E-01
   7150.00  5.6564992E-01
   7150.33  5.6463341E-01
   7150.67  5.6404904E-01
   7151.00  5.6393464E-01
   7151.33  5.6438395E-01
   7151.67  5.6535498E-01
   7152.00  5.6685882E-01
   7152.33  5.6896776E-01
   7152.67  5.7160818E-01
   7153.00  5.7476221E-01
   7153.33  5.7844926E-01
   7153.67  5.8254544E-01
   7154.00  5.8697410E-01
   7154.33  5.9164971E-01
   7154.67  5.9640904E-01
   7155.00  6.0112152E-01
   7155.33  6.0559950E-01
   7155.67  6.0970468E-01
   7156.00  6.1330038E-01
   7156.33  6.1615887E-01
   7156.67  6.1823854E-01
   7157.00  6.1945622E-01
   7157.33  6.1963005E-01
   7157.67  6.1884735E-01
   7158.00  6.1711597E-01
   7158.33  6.1436973E-01
   7158.67  6.1080245E-01
   7159.00  6.0650349E-01
   7159.33  6.0151693E-01
   7159.67  5.9604816E-01
   7160.00  5.9020221E-01
   7160.33  5.8405299E-01
   7160.67  5.7772391E-01
   7161.00  5.7127711E-01
   7161.33  5.6476028E-01
   7161.67  5.5822047E-01
   7162.00  5.5168051E-01
   7162.33  5.4515759E-01
   7162.67  5.3865545E-01
   7163.00  5.3217408E-01
   7163.33  5.2571279E-01
   7163.67  5.1926714E-01
   7164.00  5.1283864E-01
   7164.33  5.0643809E-01
   7164.67  5.0007800E-01
   7165.00  4.9377827E-01
   7165.33  4.8757852E-01
   7165.67  4.8150077E-01
   7166.00  4.7557533E-01
   7166.33  4.6985986E-01
   7166.67  4.6436740E-01
   7167.00  4.5912977E-01
   7167.33  4.5420970E-01
   7167.67  4.4958533E-01
   7168.00  4.4526141E-01
   7168.33  4.4127655E-01
   7168.67  4.3758987E-01
   7169.00  4.3419635E-01
   7169.33  4.3112325E-01
   7169.67  4.2832336E-01
   7170.00  4.2578440E-01
   7170.33  4.2352189E-01
   7170.67  4.2149091E-01
   7171.00  4.1968174E-01
   7171.33  4.1811669E-01
   7171.67  4.1678000E-01
   7172.00  4.1569876E-01
