    FDMNES
    energy     <xanes>
   7097.00  4.2887324E-03
   7097.33  4.3761610E-03
   7097.67  4.4671148E-03
   7098.00  4.5618203E-03
   7098.33  4.6610749E-03
   7098.67  4.7646984E-03
   7099.00  4.8730004E-03
   7099.33  4.9870183E-03
   7099.67  5.1065704E-03
   7100.00  5.2320924E-03
   7100.33  5.3649750E-03
   7100.67  5.5050540E-03
   7101.00  5.6529653E-03
   7101.33  5.8106411E-03
   7101.67  5.9779776E-03
   7102.00  6.1559434E-03
   7102.33  6.3473422E-03
   7102.67  6.5522272E-03
   7103.00  6.7721523E-03
   7103.33  7.0114087E-03
   7103.67  7.2704327E-03
   7104.00  7.5518790E-03
   7104.33  7.8627704E-03
   7104.67  8.2044849E-03
   7105.00  8.5819332E-03
   7105.33  9.0076333E-03
   7105.67  9.4854184E-03
   7106.00  1.0025359E-02
   7106.33  1.0652426E-02
   7106.67  1.1377563E-02
   7107.00  1.2224509E-02
   7107.33  1.3251457E-02
   7107.67  1.4493636E-02
   7108.00  1.6019402E-02
   7108.33  1.7999199E-02
   7108.67  2.0575799E-02
   7109.00  2.4017247E-02
   7109.33  2.9040995E-02
   7109.67  3.6506772E-02
   7110.00  4.8111130E-02
   7110.33  6.8759051E-02
   7110.67  1.0323036E-01
   7111.00  1.4962656E-01
   7111.33  1.8403832E-01
   7111.67  1.9674841E-01
   7112.00  1.9969713E-01
   7112.33  1.9566639E-01
   7112.67  1.7128445E-01
   7113.00  1.3914010E-01
   7113.33  1.1954050E-01
   7113.67  1.1304083E-01
   7114.00  1.1279666E-01
   7114.33  1.0433369E-01
   7114.67  8.7008987E-02
   7115.00  6.8132547E-02
   7115.33  5.5312384E-02
   7115.67  4.7884706E-02
   7116.00  4.3987374E-02
   7116.33  4.2446493E-02
   7116.67  4.2284032E-02
   7117.00  4.3200878E-02
   7117.33  4.5174718E-02
   7117.67  4.8107138E-02
   7118.00  5.2093005E-02
   7118.33  5.7369708E-02
   7118.67  6.3666126E-02
   7119.00  7.0495927E-02
   7119.33  7.6844534E-02
   7119.67  8.2060311E-02
   7120.00  8.6265687E-02
   7120.33  9.0173407E-02
   7120.67  9.4546022E-02
   7121.00  9.9746425E-02
   7121.33  1.0606364E-01
   7121.67  1.1340107E-01
   7122.00  1.2177466E-01
   7122.33  1.3143209E-01
   7122.67  1.4253398E-01
   7123.00  1.5556522E-01
   7123.33  1.7172341E-01
   7123.67  1.9177081E-01
   7124.00  2.1679594E-01
   7124.33  2.4896580E-01
   7124.67  2.8869756E-01
   7125.00  3.3614319E-01
   7125.33  3.8829816E-01
   7125.67  4.3252165E-01
   7126.00  4.5490908E-01
   7126.33  4.5467167E-01
   7126.67  4.5373671E-01
   7127.00  4.6169630E-01
   7127.33  4.7922613E-01
   7127.67  5.0172173E-01
   7128.00  5.2708753E-01
   7128.33  5.5509702E-01
   7128.67  5.8634370E-01
   7129.00  6.2166440E-01
   7129.33  6.6212147E-01
   7129.67  7.0739203E-01
   7130.00  7.5741317E-01
   7130.33  8.1122904E-01
   7130.67  8.6490599E-01
   7131.00  9.1427380E-01
   7131.33  9.5387807E-01
   7131.67  9.8243222E-01
   7132.00  9.9961895E-01
   7132.33  1.0050115E+00
   7132.67  1.0013583E+00
   7133.00  9.9002246E-01
   7133.33  9.7217169E-01
   7133.67  9.5097633E-01
   7134.00  9.2846216E-01
   7134.33  9.0526554E-01
   7134.67  8.8004501E-01
   7135.00  8.5137840E-01
   7135.33  8.1883096E-01
   7135.67  7.8454425E-01
   7136.00  7.5040829E-01
   7136.33  7.1845864E-01
   7136.67  6.8953041E-01
   7137.00  6.6403944E-01
   7137.33  6.4249291E-01
   7137.67  6.2424893E-01
   7138.00  6.0902117E-01
   7138.33  5.9675555E-01
   7138.67  5.8673861E-01
   7139.00  5.7866450E-01
   7139.33  5.7242308E-01
   7139.67  5.6755537E-01
   7140.00  5.6390093E-01
   7140.33  5.6150210E-01
   7140.67  5.6023362E-01
   7141.00  5.6018614E-01
   7141.33  5.6167679E-01
   7141.67  5.6462789E-01
   7142.00  5.6898888E-01
   7142.33  5.7463337E-01
   7142.67  5.8096763E-01
   7143.00  5.8755827E-01
   7143.33  5.9395592E-01
   7143.67  5.9991484E-01
   7144.00  6.0534377E-01
   7144.33  6.1017704E-01
   7144.67  6.1452295E-01
   7145.00  6.1841752E-01
   7145.33  6.2181940E-01
   7145.67  6.2475462E-01
   7146.00  6.2716761E-01
   7146.33  6.2886612E-01
   7146.67  6.2975175E-01
   7147.00  6.2961782E-01
   7147.33  6.2801943E-01
   7147.67  6.2484571E-01
   7148.00  6.1990216E-01
   7148.33  6.1280340E-01
   7148.67  6.0378249E-01
   7149.00  5.9297423E-01
   7149.33  5.8050733E-01
   7149.67  5.6699725E-01
   7150.00  5.5285194E-01
   7150.33  5.3850323E-01
   7150.67  5.2436151E-01
   7151.00  5.1068241E-01
   7151.33  4.9775118E-01
   7151.67  4.8560202E-01
   7152.00  4.7428284E-01
   7152.33  4.6390746E-01
   7152.67  4.5434610E-01
   7153.00  4.4555910E-01
   7153.33  4.3756600E-01
   7153.67  4.3019261E-01
   7154.00  4.2335736E-01
   7154.33  4.1701298E-01
   7154.67  4.1099969E-01
   7155.00  4.0522817E-01
   7155.33  3.9961712E-01
   7155.67  3.9406008E-01
   7156.00  3.8849210E-01
   7156.33  3.8284329E-01
   7156.67  3.7708151E-01
   7157.00  3.7119041E-01
   7157.33  3.6515981E-01
   7157.67  3.5903934E-01
   7158.00  3.5288306E-01
   7158.33  3.4678930E-01
   7158.67  3.4087016E-01
   7159.00  3.3524530E-01
   7159.33  3.3012088E-01
   7159.67  3.2559353E-01
   7160.00  3.2178666E-01
   7160.33  3.1892708E-01
   7160.67  3.1699566E-01
   7161.00  3.1604103E-01
   7161.33  3.1621575E-01
   7161.67  3.1738474E-01
   7162.00  3.1950797E-01
   7162.33  3.2261758E-01
   7162.67  3.2650478E-01
   7163.00  3.3106689E-01
   7163.33  3.3624574E-01
   7163.67  3.4184433E-01
   7164.00  3.4775268E-01
   7164.33  3.5386939E-01
   7164.67  3.6005297E-01
   7165.00  3.6621321E-01
   7165.33  3.7225138E-01
   7165.67  3.7811788E-01
   7166.00  3.8377504E-01
   7166.33  3.8916863E-01
   7166.67  3.9431802E-01
   7167.00  3.9921772E-01
   7167.33  4.0383647E-01
   7167.67  4.0821690E-01
   7168.00  4.1237192E-01
   7168.33  4.1629031E-01
   7168.67  4.2001274E-01
   7169.00  4.2355092E-01
   7169.33  4.2689683E-01
   7169.67  4.3008424E-01
   7170.00  4.3312218E-01
   7170.33  4.3599979E-01
   7170.67  4.3873400E-01
   7171.00  4.4131287E-01
   7171.33  4.4367502E-01
   7171.67  4.4576305E-01
   7172.00  4.4746550E-01
