    FDMNES
    energy     <xanes>
   7097.00  4.2874197E-03
   7097.33  4.3748146E-03
   7097.67  4.4657331E-03
   7098.00  4.5604018E-03
   7098.33  4.6596175E-03
   7098.67  4.7632004E-03
   7099.00  4.8714597E-03
   7099.33  4.9854326E-03
   7099.67  5.1049375E-03
   7100.00  5.2304099E-03
   7100.33  5.3632401E-03
   7100.67  5.5032640E-03
   7101.00  5.6511175E-03
   7101.33  5.8087321E-03
   7101.67  5.9760043E-03
   7102.00  6.1539027E-03
   7102.33  6.3452304E-03
   7102.67  6.5500410E-03
   7103.00  6.7698885E-03
   7103.33  7.0090639E-03
   7103.67  7.2680041E-03
   7104.00  7.5493643E-03
   7104.33  7.8601684E-03
   7104.67  8.2017959E-03
   7105.00  8.5791595E-03
   7105.33  9.0047816E-03
   7105.67  9.4825002E-03
   7106.00  1.0022392E-02
   7106.33  1.0649445E-02
   7106.67  1.1374619E-02
   7107.00  1.2221676E-02
   7107.33  1.3248873E-02
   7107.67  1.4491498E-02
   7108.00  1.6018016E-02
   7108.33  1.7999146E-02
   7108.67  2.0577985E-02
   7109.00  2.4023180E-02
   7109.33  2.9053909E-02
   7109.67  3.6532462E-02
   7110.00  4.8160603E-02
   7110.33  6.8858687E-02
   7110.67  1.0341693E-01
   7111.00  1.4989568E-01
   7111.33  1.8419578E-01
   7111.67  1.9667025E-01
   7112.00  1.9943820E-01
   7112.33  1.9514613E-01
   7112.67  1.7066954E-01
   7113.00  1.3865258E-01
   7113.33  1.1915551E-01
   7113.67  1.1268829E-01
   7114.00  1.1249336E-01
   7114.33  1.0412273E-01
   7114.67  8.6828473E-02
   7115.00  6.7985395E-02
   7115.33  5.5205835E-02
   7115.67  4.7806717E-02
   7116.00  4.3927869E-02
   7116.33  4.2398911E-02
   7116.67  4.2245217E-02
   7117.00  4.3169268E-02
   7117.33  4.5150302E-02
   7117.67  4.8090476E-02
   7118.00  5.2083148E-02
   7118.33  5.7358812E-02
   7118.67  6.3635493E-02
   7119.00  7.0417925E-02
   7119.33  7.6702388E-02
   7119.67  8.1881080E-02
   7120.00  8.6102191E-02
   7120.33  9.0070434E-02
   7120.67  9.4506228E-02
   7121.00  9.9746314E-02
   7121.33  1.0606341E-01
   7121.67  1.1337227E-01
   7122.00  1.2170396E-01
   7122.33  1.3132434E-01
   7122.67  1.4240139E-01
   7123.00  1.5541600E-01
   7123.33  1.7155251E-01
   7123.67  1.9156237E-01
   7124.00  2.1653449E-01
   7124.33  2.4865591E-01
   7124.67  2.8837485E-01
   7125.00  3.3585226E-01
   7125.33  3.8802467E-01
   7125.67  4.3215485E-01
   7126.00  4.5438359E-01
   7126.33  4.5415016E-01
   7126.67  4.5339033E-01
   7127.00  4.6161465E-01
   7127.33  4.7945378E-01
   7127.67  5.0227038E-01
   7128.00  5.2795791E-01
   7128.33  5.5630397E-01
   7128.67  5.8788464E-01
   7129.00  6.2349101E-01
   7129.33  6.6411270E-01
   7129.67  7.0940698E-01
   7130.00  7.5930638E-01
   7130.33  8.1285151E-01
   7130.67  8.6615549E-01
   7131.00  9.1508455E-01
   7131.33  9.5422562E-01
   7131.67  9.8233303E-01
   7132.00  9.9911590E-01
   7132.33  1.0041745E+00
   7132.67  1.0002525E+00
   7133.00  9.8870840E-01
   7133.33  9.7071779E-01
   7133.67  9.4945432E-01
   7134.00  9.2694978E-01
   7134.33  9.0383542E-01
   7134.67  8.7873282E-01
   7135.00  8.5019797E-01
   7135.33  8.1778275E-01
   7135.67  7.8362386E-01
   7136.00  7.4960944E-01
   7136.33  7.1777232E-01
   7136.67  6.8894735E-01
   7137.00  6.6354985E-01
   7137.33  6.4208606E-01
   7137.67  6.2391627E-01
   7138.00  6.0875550E-01
   7138.33  5.9655088E-01
   7138.67  5.8659146E-01
   7139.00  5.7857274E-01
   7139.33  5.7238548E-01
   7139.67  5.6757109E-01
   7140.00  5.6396827E-01
   7140.33  5.6161594E-01
   7140.67  5.6038599E-01
   7141.00  5.6036631E-01
   7141.33  5.6186910E-01
   7141.67  5.6481627E-01
   7142.00  5.6915722E-01
   7142.33  5.7476698E-01
   7142.67  5.8105936E-01
   7143.00  5.8760708E-01
   7143.33  5.9396811E-01
   7143.67  5.9990113E-01
   7144.00  6.0531782E-01
   7144.33  6.1015597E-01
   7144.67  6.1452145E-01
   7145.00  6.1844793E-01
   7145.33  6.2189012E-01
   7145.67  6.2486664E-01
   7146.00  6.2731591E-01
   7146.33  6.2903781E-01
   7146.67  6.2993066E-01
   7147.00  6.2978564E-01
   7147.33  6.2815301E-01
   7147.67  6.2492448E-01
   7148.00  6.1991178E-01
   7148.33  6.1274002E-01
   7148.67  6.0365303E-01
   7149.00  5.9279187E-01
   7149.33  5.8029006E-01
   7149.67  5.6675930E-01
   7150.00  5.5260373E-01
   7150.33  5.3825068E-01
   7150.67  5.2410563E-01
   7151.00  5.1042196E-01
   7151.33  4.9748352E-01
   7151.67  4.8532491E-01
   7152.00  4.7399460E-01
   7152.33  4.6360709E-01
   7152.67  4.5403347E-01
   7153.00  4.4523461E-01
   7153.33  4.3723077E-01
   7153.67  4.2984824E-01
   7154.00  4.2300594E-01
   7154.33  4.1665773E-01
   7154.67  4.1064435E-01
   7155.00  4.0487730E-01
   7155.33  3.9927679E-01
   7155.67  3.9373616E-01
   7156.00  3.8819075E-01
   7156.33  3.8257158E-01
   7156.67  3.7684538E-01
   7157.00  3.7099510E-01
   7157.33  3.6500991E-01
   7157.67  3.5893748E-01
   7158.00  3.5283053E-01
   7158.33  3.4678568E-01
   7158.67  3.4091349E-01
   7159.00  3.3533233E-01
   7159.33  3.3024662E-01
   7159.67  3.2575274E-01
   7160.00  3.2197378E-01
   7160.33  3.1913607E-01
   7160.67  3.1722178E-01
   7161.00  3.1628043E-01
   7161.33  3.1646561E-01
   7161.67  3.1764406E-01
   7162.00  3.1977686E-01
   7162.33  3.2289489E-01
   7162.67  3.2678534E-01
   7163.00  3.3134726E-01
   7163.33  3.3652481E-01
   7163.67  3.4211991E-01
   7164.00  3.4802117E-01
   7164.33  3.5412640E-01
   7164.67  3.6029483E-01
   7165.00  3.6643573E-01
   7165.33  3.7244899E-01
   7165.67  3.7828536E-01
   7166.00  3.8390725E-01
   7166.33  3.8926043E-01
   7166.67  3.9436582E-01
   7167.00  3.9921914E-01
   7167.33  4.0379077E-01
   7167.67  4.0812529E-01
   7168.00  4.1223719E-01
   7168.33  4.1611751E-01
   7168.67  4.1980772E-01
   7169.00  4.2332034E-01
   7169.33  4.2664865E-01
   7169.67  4.2982546E-01
   7170.00  4.3285933E-01
   7170.33  4.3573923E-01
   7170.67  4.3848025E-01
   7171.00  4.4106933E-01
   7171.33  4.4344381E-01
   7171.67  4.4554422E-01
   7172.00  4.4725720E-01
