    FDMNES
    energy     <xanes>
   7097.00  4.3270050E-03
   7097.33  4.4164436E-03
   7097.67  4.5095355E-03
   7098.00  4.6065186E-03
   7098.33  4.7082244E-03
   7098.67  4.8144706E-03
   7099.00  4.9255836E-03
   7099.33  5.0426496E-03
   7099.67  5.1654869E-03
   7100.00  5.2945572E-03
   7100.33  5.4313239E-03
   7100.67  5.5756275E-03
   7101.00  5.7281462E-03
   7101.33  5.8909258E-03
   7101.67  6.0638779E-03
   7102.00  6.2480438E-03
   7102.33  6.4464152E-03
   7102.67  6.6590858E-03
   7103.00  6.8877420E-03
   7103.33  7.1370087E-03
   7103.67  7.4074227E-03
   7104.00  7.7019001E-03
   7104.33  8.0281067E-03
   7104.67  8.3876763E-03
   7105.00  8.7860871E-03
   7105.33  9.2372304E-03
   7105.67  9.7456385E-03
   7106.00  1.0322772E-02
   7106.33  1.0996956E-02
   7106.67  1.1781288E-02
   7107.00  1.2703516E-02
   7107.33  1.3831650E-02
   7107.67  1.5208919E-02
   7108.00  1.6918229E-02
   7108.33  1.9167364E-02
   7108.67  2.2138765E-02
   7109.00  2.6175069E-02
   7109.33  3.2205435E-02
   7109.67  4.1394071E-02
   7110.00  5.6056205E-02
   7110.33  8.2889780E-02
   7110.67  1.2756121E-01
   7111.00  1.8186101E-01
   7111.33  1.9994399E-01
   7111.67  1.8935398E-01
   7112.00  1.8419327E-01
   7112.33  1.8429658E-01
   7112.67  1.6545990E-01
   7113.00  1.3481297E-01
   7113.33  1.1220764E-01
   7113.67  9.9320314E-02
   7114.00  9.0712062E-02
   7114.33  8.0707478E-02
   7114.67  6.9657777E-02
   7115.00  5.8663265E-02
   7115.33  5.0696367E-02
   7115.67  4.5867201E-02
   7116.00  4.3337483E-02
   7116.33  4.2498121E-02
   7116.67  4.2688676E-02
   7117.00  4.3663380E-02
   7117.33  4.5354522E-02
   7117.67  4.7702958E-02
   7118.00  5.0855474E-02
   7118.33  5.5189121E-02
   7118.67  6.0785408E-02
   7119.00  6.7684736E-02
   7119.33  7.5683187E-02
   7119.67  8.3805374E-02
   7120.00  9.1151485E-02
   7120.33  9.7066862E-02
   7120.67  1.0214802E-01
   7121.00  1.0717920E-01
   7121.33  1.1313141E-01
   7121.67  1.2053569E-01
   7122.00  1.2976603E-01
   7122.33  1.4138346E-01
   7122.67  1.5536153E-01
   7123.00  1.7200291E-01
   7123.33  1.9236262E-01
   7123.67  2.1702495E-01
   7124.00  2.4703170E-01
   7124.33  2.8442638E-01
   7124.67  3.2916668E-01
   7125.00  3.8067075E-01
   7125.33  4.3469348E-01
   7125.67  4.8083000E-01
   7126.00  5.1277573E-01
   7126.33  5.3422216E-01
   7126.67  5.5296758E-01
   7127.00  5.7004517E-01
   7127.33  5.8581119E-01
   7127.67  6.0295112E-01
   7128.00  6.2419412E-01
   7128.33  6.5194063E-01
   7128.67  6.8451985E-01
   7129.00  7.1941711E-01
   7129.33  7.5327686E-01
   7129.67  7.8418435E-01
   7130.00  8.1162493E-01
   7130.33  8.3527685E-01
   7130.67  8.5567635E-01
   7131.00  8.7277119E-01
   7131.33  8.8595759E-01
   7131.67  8.9531876E-01
   7132.00  9.0038392E-01
   7132.33  9.0001445E-01
   7132.67  8.9461587E-01
   7133.00  8.8448188E-01
   7133.33  8.7023103E-01
   7133.67  8.5426124E-01
   7134.00  8.3849973E-01
   7134.33  8.2427811E-01
   7134.67  8.1049458E-01
   7135.00  7.9540774E-01
   7135.33  7.7734235E-01
   7135.67  7.5678744E-01
   7136.00  7.3474519E-01
   7136.33  7.1266037E-01
   7136.67  6.9180702E-01
   7137.00  6.7297546E-01
   7137.33  6.5704985E-01
   7137.67  6.4393725E-01
   7138.00  6.3362516E-01
   7138.33  6.2624292E-01
   7138.67  6.2113538E-01
   7139.00  6.1795750E-01
   7139.33  6.1646427E-01
   7139.67  6.1603814E-01
   7140.00  6.1633347E-01
   7140.33  6.1704588E-01
   7140.67  6.1784416E-01
   7141.00  6.1853190E-01
   7141.33  6.1889509E-01
   7141.67  6.1884182E-01
   7142.00  6.1829856E-01
   7142.33  6.1715950E-01
   7142.67  6.1549281E-01
   7143.00  6.1331533E-01
   7143.33  6.1061029E-01
   7143.67  6.0750793E-01
   7144.00  6.0409304E-01
   7144.33  6.0046449E-01
   7144.67  5.9678695E-01
   7145.00  5.9318564E-01
   7145.33  5.8981587E-01
   7145.67  5.8673382E-01
   7146.00  5.8394973E-01
   7146.33  5.8141065E-01
   7146.67  5.7889934E-01
   7147.00  5.7617518E-01
   7147.33  5.7284162E-01
   7147.67  5.6864796E-01
   7148.00  5.6336622E-01
   7148.33  5.5666054E-01
   7148.67  5.4864111E-01
   7149.00  5.3938172E-01
   7149.33  5.2895608E-01
   7149.67  5.1778328E-01
   7150.00  5.0614029E-01
   7150.33  4.9431728E-01
   7150.67  4.8259956E-01
   7151.00  4.7116905E-01
   7151.33  4.6023252E-01
   7151.67  4.4982272E-01
   7152.00  4.3997457E-01
   7152.33  4.3076381E-01
   7152.67  4.2209606E-01
   7153.00  4.1393619E-01
   7153.33  4.0628870E-01
   7153.67  3.9903839E-01
   7154.00  3.9213630E-01
   7154.33  3.8556679E-01
   7154.67  3.7924695E-01
   7155.00  3.7314237E-01
   7155.33  3.6723836E-01
   7155.67  3.6147724E-01
   7156.00  3.5582913E-01
   7156.33  3.5027081E-01
   7156.67  3.4476626E-01
   7157.00  3.3930406E-01
   7157.33  3.3389499E-01
   7157.67  3.2856274E-01
   7158.00  3.2335447E-01
   7158.33  3.1837392E-01
   7158.67  3.1369489E-01
   7159.00  3.0941342E-01
   7159.33  3.0571039E-01
   7159.67  3.0263486E-01
   7160.00  3.0027396E-01
   7160.33  2.9880914E-01
   7160.67  2.9819324E-01
   7161.00  2.9844351E-01
   7161.33  2.9967069E-01
   7161.67  3.0175395E-01
   7162.00  3.0466545E-01
   7162.33  3.0844515E-01
   7162.67  3.1292401E-01
   7163.00  3.1802986E-01
   7163.33  3.2373695E-01
   7163.67  3.2988507E-01
   7164.00  3.3638531E-01
   7164.33  3.4315764E-01
   7164.67  3.5006923E-01
   7165.00  3.5703824E-01
   7165.33  3.6397255E-01
   7165.67  3.7079688E-01
   7166.00  3.7745158E-01
   7166.33  3.8384884E-01
   7166.67  3.8996768E-01
   7167.00  3.9577221E-01
   7167.33  4.0118670E-01
   7167.67  4.0623223E-01
   7168.00  4.1089748E-01
   7168.33  4.1513148E-01
   7168.67  4.1899105E-01
   7169.00  4.2249390E-01
   7169.33  4.2563150E-01
   7169.67  4.2848640E-01
   7170.00  4.3109975E-01
   7170.33  4.3349666E-01
   7170.67  4.3574465E-01
   7171.00  4.3786854E-01
   7171.33  4.3985191E-01
   7171.67  4.4165170E-01
   7172.00  4.4315798E-01
