    FDMNES
    energy     <xanes>
   7097.00  5.3241769E-03
   7097.33  5.4626781E-03
   7097.67  5.6079135E-03
   7098.00  5.7603536E-03
   7098.33  5.9215805E-03
   7098.67  6.0912926E-03
   7099.00  6.2701305E-03
   7099.33  6.4601699E-03
   7099.67  6.6610994E-03
   7100.00  6.8738128E-03
   7100.33  7.1010979E-03
   7100.67  7.3426611E-03
   7101.00  7.5997837E-03
   7101.33  7.8763146E-03
   7101.67  8.1720387E-03
   7102.00  8.4888530E-03
   7102.33  8.8322470E-03
   7102.67  9.2022156E-03
   7103.00  9.6016783E-03
   7103.33  1.0038776E-02
   7103.67  1.0514006E-02
   7104.00  1.1032076E-02
   7104.33  1.1605653E-02
   7104.67  1.2236409E-02
   7105.00  1.2932392E-02
   7105.33  1.3714547E-02
   7105.67  1.4587374E-02
   7106.00  1.5565723E-02
   7106.33  1.6687103E-02
   7106.67  1.7963369E-02
   7107.00  1.9424906E-02
   7107.33  2.1146852E-02
   7107.67  2.3162833E-02
   7108.00  2.5545368E-02
   7108.33  2.8473265E-02
   7108.67  3.2060860E-02
   7109.00  3.6531872E-02
   7109.33  4.2462279E-02
   7109.67  5.0411329E-02
   7110.00  6.1473698E-02
   7110.33  7.8693287E-02
   7110.67  1.0481033E-01
   7111.00  1.3932963E-01
   7111.33  1.7308704E-01
   7111.67  2.0705938E-01
   7112.00  2.5284815E-01
   7112.33  3.3420914E-01
   7112.67  4.7034093E-01
   7113.00  6.6950083E-01
   7113.33  8.7891105E-01
   7113.67  9.7325287E-01
   7114.00  9.1056998E-01
   7114.33  7.4791774E-01
   7114.67  5.7518401E-01
   7115.00  4.2808372E-01
   7115.33  3.2322192E-01
   7115.67  2.5085616E-01
   7116.00  2.0244851E-01
   7116.33  1.7155976E-01
   7116.67  1.5078118E-01
   7117.00  1.3722779E-01
   7117.33  1.2943345E-01
   7117.67  1.2526834E-01
   7118.00  1.2357741E-01
   7118.33  1.2356945E-01
   7118.67  1.2438006E-01
   7119.00  1.2482053E-01
   7119.33  1.2345801E-01
   7119.67  1.2172506E-01
   7120.00  1.2115258E-01
   7120.33  1.2253150E-01
   7120.67  1.2561745E-01
   7121.00  1.3001730E-01
   7121.33  1.3464157E-01
   7121.67  1.3782273E-01
   7122.00  1.3863170E-01
   7122.33  1.3781106E-01
   7122.67  1.3726932E-01
   7123.00  1.3733137E-01
   7123.33  1.3785543E-01
   7123.67  1.3949324E-01
   7124.00  1.4329411E-01
   7124.33  1.5041950E-01
   7124.67  1.6068377E-01
   7125.00  1.7421477E-01
   7125.33  1.9235421E-01
   7125.67  2.1624115E-01
   7126.00  2.4685898E-01
   7126.33  2.8301497E-01
   7126.67  3.1972171E-01
   7127.00  3.5367842E-01
   7127.33  3.8176049E-01
   7127.67  4.0446647E-01
   7128.00  4.2273668E-01
   7128.33  4.3683432E-01
   7128.67  4.4813401E-01
   7129.00  4.5802117E-01
   7129.33  4.6834172E-01
   7129.67  4.8037120E-01
   7130.00  4.9474681E-01
   7130.33  5.1250460E-01
   7130.67  5.3429935E-01
   7131.00  5.6102276E-01
   7131.33  5.9323180E-01
   7131.67  6.2808599E-01
   7132.00  6.6242422E-01
   7132.33  6.9301124E-01
   7132.67  7.1936119E-01
   7133.00  7.4116684E-01
   7133.33  7.5662516E-01
   7133.67  7.6480030E-01
   7134.00  7.6476289E-01
   7134.33  7.5545264E-01
   7134.67  7.3862358E-01
   7135.00  7.1527280E-01
   7135.33  6.8653479E-01
   7135.67  6.5530370E-01
   7136.00  6.2338540E-01
   7136.33  5.9201822E-01
   7136.67  5.6147247E-01
   7137.00  5.3178700E-01
   7137.33  5.0319826E-01
   7137.67  4.7597135E-01
   7138.00  4.5069277E-01
   7138.33  4.2852254E-01
   7138.67  4.0981375E-01
   7139.00  3.9495587E-01
   7139.33  3.8469609E-01
   7139.67  3.7860599E-01
   7140.00  3.7663941E-01
   7140.33  3.7901744E-01
   7140.67  3.8472550E-01
   7141.00  3.9312985E-01
   7141.33  4.0364557E-01
   7141.67  4.1527988E-01
   7142.00  4.2752527E-01
   7142.33  4.4004163E-01
   7142.67  4.5264938E-01
   7143.00  4.6534042E-01
   7143.33  4.7818499E-01
   7143.67  4.9124104E-01
   7144.00  5.0458517E-01
   7144.33  5.1837940E-01
   7144.67  5.3269624E-01
   7145.00  5.4761313E-01
   7145.33  5.6321601E-01
   7145.67  5.7932509E-01
   7146.00  5.9576701E-01
   7146.33  6.1228859E-01
   7146.67  6.2860537E-01
   7147.00  6.4450591E-01
   7147.33  6.5972663E-01
   7147.67  6.7422953E-01
   7148.00  6.8797240E-01
   7148.33  7.0088889E-01
   7148.67  7.1319806E-01
   7149.00  7.2507830E-01
   7149.33  7.3676063E-01
   7149.67  7.4852168E-01
   7150.00  7.6054874E-01
   7150.33  7.7302528E-01
   7150.67  7.8590142E-01
   7151.00  7.9906342E-01
   7151.33  8.1226575E-01
   7151.67  8.2516217E-01
   7152.00  8.3743718E-01
   7152.33  8.4864320E-01
   7152.67  8.5860781E-01
   7153.00  8.6708882E-01
   7153.33  8.7357843E-01
   7153.67  8.7799699E-01
   7154.00  8.8007269E-01
   7154.33  8.7915562E-01
   7154.67  8.7529673E-01
   7155.00  8.6832186E-01
   7155.33  8.5775707E-01
   7155.67  8.4410121E-01
   7156.00  8.2758937E-01
   7156.33  8.0834955E-01
   7156.67  7.8724510E-01
   7157.00  7.6481540E-01
   7157.33  7.4161138E-01
   7157.67  7.1831430E-01
   7158.00  6.9537206E-01
   7158.33  6.7330772E-01
   7158.67  6.5233824E-01
   7159.00  6.3264935E-01
   7159.33  6.1454764E-01
   7159.67  5.9791143E-01
   7160.00  5.8274046E-01
   7160.33  5.6916860E-01
   7160.67  5.5694156E-01
   7161.00  5.4597877E-01
   7161.33  5.3632043E-01
   7161.67  5.2770524E-01
   7162.00  5.2002197E-01
   7162.33  5.1323674E-01
   7162.67  5.0712694E-01
   7163.00  5.0159379E-01
   7163.33  4.9658165E-01
   7163.67  4.9191758E-01
   7164.00  4.8749920E-01
   7164.33  4.8321610E-01
   7164.67  4.7892391E-01
   7165.00  4.7451298E-01
   7165.33  4.6983458E-01
   7165.67  4.6481898E-01
   7166.00  4.5940417E-01
   7166.33  4.5349549E-01
   7166.67  4.4714273E-01
   7167.00  4.4036493E-01
   7167.33  4.3316361E-01
   7167.67  4.2566424E-01
   7168.00  4.1794782E-01
   7168.33  4.1009486E-01
   7168.67  4.0220866E-01
   7169.00  3.9435553E-01
   7169.33  3.8661427E-01
   7169.67  3.7902915E-01
   7170.00  3.7164442E-01
   7170.33  3.6454473E-01
   7170.67  3.5776254E-01
   7171.00  3.5137131E-01
   7171.33  3.4556131E-01
   7171.67  3.4047392E-01
   7172.00  3.3635958E-01
