    FDMNES
    energy     <xanes>
   7097.00  4.1991642E-03
   7097.33  4.2792434E-03
   7097.67  4.3621993E-03
   7098.00  4.4481946E-03
   7098.33  4.5378429E-03
   7098.67  4.6309677E-03
   7099.00  4.7277853E-03
   7099.33  4.8290704E-03
   7099.67  4.9346375E-03
   7100.00  5.0447824E-03
   7100.33  5.1605110E-03
   7100.67  5.2816382E-03
   7101.00  5.4085841E-03
   7101.33  5.5426993E-03
   7101.67  5.6838233E-03
   7102.00  5.8325783E-03
   7102.33  5.9908580E-03
   7102.67  6.1585801E-03
   7103.00  6.3367182E-03
   7103.33  6.5280736E-03
   7103.67  6.7327719E-03
   7104.00  6.9524401E-03
   7104.33  7.1915187E-03
   7104.67  7.4506642E-03
   7105.00  7.7328312E-03
   7105.33  8.0457179E-03
   7105.67  8.3913890E-03
   7106.00  8.7758205E-03
   7106.33  9.2140287E-03
   7106.67  9.7121907E-03
   7107.00  1.0284254E-02
   7107.33  1.0964632E-02
   7107.67  1.1773555E-02
   7108.00  1.2750845E-02
   7108.33  1.3995917E-02
   7108.67  1.5590657E-02
   7109.00  1.7689080E-02
   7109.33  2.0701531E-02
   7109.67  2.5111023E-02
   7110.00  3.1868493E-02
   7110.33  4.3763502E-02
   7110.67  6.4127686E-02
   7111.00  9.4870163E-02
   7111.33  1.2282908E-01
   7111.67  1.2540516E-01
   7112.00  1.1437771E-01
   7112.33  1.0626593E-01
   7112.67  9.6495399E-02
   7113.00  8.2492325E-02
   7113.33  6.6436411E-02
   7113.67  5.4665329E-02
   7114.00  4.8312059E-02
   7114.33  4.6222455E-02
   7114.67  4.4385702E-02
   7115.00  4.0993445E-02
   7115.33  3.8817180E-02
   7115.67  3.8731111E-02
   7116.00  4.0436261E-02
   7116.33  4.3791305E-02
   7116.67  4.8109157E-02
   7117.00  5.2424814E-02
   7117.33  5.5008234E-02
   7117.67  5.5311956E-02
   7118.00  5.3911914E-02
   7118.33  5.2548598E-02
   7118.67  5.2674124E-02
   7119.00  5.4636171E-02
   7119.33  5.8578351E-02
   7119.67  6.4190594E-02
   7120.00  7.1398346E-02
   7120.33  8.0145312E-02
   7120.67  9.0279591E-02
   7121.00  1.0243832E-01
   7121.33  1.1809933E-01
   7121.67  1.3792326E-01
   7122.00  1.6276784E-01
   7122.33  1.9428925E-01
   7122.67  2.3247180E-01
   7123.00  2.7784774E-01
   7123.33  3.3191448E-01
   7123.67  3.9352258E-01
   7124.00  4.6115663E-01
   7124.33  5.3142756E-01
   7124.67  5.9939435E-01
   7125.00  6.6156086E-01
   7125.33  7.1346737E-01
   7125.67  7.5356261E-01
   7126.00  7.8076008E-01
   7126.33  7.9319630E-01
   7126.67  7.9280176E-01
   7127.00  7.8220950E-01
   7127.33  7.6767924E-01
   7127.67  7.5537367E-01
   7128.00  7.4616600E-01
   7128.33  7.3711864E-01
   7128.67  7.2601913E-01
   7129.00  7.1408900E-01
   7129.33  7.0313379E-01
   7129.67  6.9256199E-01
   7130.00  6.8260227E-01
   7130.33  6.7742878E-01
   7130.67  6.8169547E-01
   7131.00  6.9777868E-01
   7131.33  7.2487354E-01
   7131.67  7.5527303E-01
   7132.00  7.8230386E-01
   7132.33  7.9917942E-01
   7132.67  8.0525150E-01
   7133.00  8.0165179E-01
   7133.33  7.9037875E-01
   7133.67  7.7546023E-01
   7134.00  7.5945230E-01
   7134.33  7.4529105E-01
   7134.67  7.3470980E-01
   7135.00  7.2795406E-01
   7135.33  7.2394437E-01
   7135.67  7.2046528E-01
   7136.00  7.1632020E-01
   7136.33  7.1066626E-01
   7136.67  7.0355001E-01
   7137.00  6.9510301E-01
   7137.33  6.8544107E-01
   7137.67  6.7496559E-01
   7138.00  6.6388636E-01
   7138.33  6.5236059E-01
   7138.67  6.4060380E-01
   7139.00  6.2873169E-01
   7139.33  6.1685619E-01
   7139.67  6.0507574E-01
   7140.00  5.9346930E-01
   7140.33  5.8215871E-01
   7140.67  5.7120771E-01
   7141.00  5.6072630E-01
   7141.33  5.5092190E-01
   7141.67  5.4181411E-01
   7142.00  5.3346751E-01
   7142.33  5.2604195E-01
   7142.67  5.1946290E-01
   7143.00  5.1372406E-01
   7143.33  5.0888415E-01
   7143.67  5.0477030E-01
   7144.00  5.0129368E-01
   7144.33  4.9838429E-01
   7144.67  4.9582208E-01
   7145.00  4.9346189E-01
   7145.33  4.9113985E-01
   7145.67  4.8870168E-01
   7146.00  4.8604427E-01
   7146.33  4.8304657E-01
   7146.67  4.7970437E-01
   7147.00  4.7601180E-01
   7147.33  4.7194898E-01
   7147.67  4.6760075E-01
   7148.00  4.6301676E-01
   7148.33  4.5824254E-01
   7148.67  4.5337283E-01
   7149.00  4.4847525E-01
   7149.33  4.4363896E-01
   7149.67  4.3894106E-01
   7150.00  4.3445048E-01
   7150.33  4.3027028E-01
   7150.67  4.2641447E-01
   7151.00  4.2290410E-01
   7151.33  4.1977979E-01
   7151.67  4.1697033E-01
   7152.00  4.1443577E-01
   7152.33  4.1214609E-01
   7152.67  4.1001599E-01
   7153.00  4.0800006E-01
   7153.33  4.0605184E-01
   7153.67  4.0411022E-01
   7154.00  4.0213170E-01
   7154.33  4.0005569E-01
   7154.67  3.9784478E-01
   7155.00  3.9546048E-01
   7155.33  3.9283437E-01
   7155.67  3.8996346E-01
   7156.00  3.8683380E-01
   7156.33  3.8340866E-01
   7156.67  3.7973526E-01
   7157.00  3.7584271E-01
   7157.33  3.7175015E-01
   7157.67  3.6753171E-01
   7158.00  3.6324477E-01
   7158.33  3.5897167E-01
   7158.67  3.5480406E-01
   7159.00  3.5082856E-01
   7159.33  3.4718515E-01
   7159.67  3.4393373E-01
   7160.00  3.4114425E-01
   7160.33  3.3893707E-01
   7160.67  3.3726578E-01
   7161.00  3.3611405E-01
   7161.33  3.3549269E-01
   7161.67  3.3528418E-01
   7162.00  3.3545277E-01
   7162.33  3.3604680E-01
   7162.67  3.3707696E-01
   7163.00  3.3863071E-01
   7163.33  3.4090807E-01
   7163.67  3.4392938E-01
   7164.00  3.4772807E-01
   7164.33  3.5235827E-01
   7164.67  3.5764135E-01
   7165.00  3.6347182E-01
   7165.33  3.6974172E-01
   7165.67  3.7622609E-01
   7166.00  3.8277438E-01
   7166.33  3.8921761E-01
   7166.67  3.9544156E-01
   7167.00  4.0136858E-01
   7167.33  4.0690243E-01
   7167.67  4.1207301E-01
   7168.00  4.1689527E-01
   7168.33  4.2137240E-01
   7168.67  4.2560145E-01
   7169.00  4.2963962E-01
   7169.33  4.3353922E-01
   7169.67  4.3737698E-01
   7170.00  4.4119489E-01
   7170.33  4.4502746E-01
   7170.67  4.4888519E-01
   7171.00  4.5274517E-01
   7171.33  4.5650241E-01
   7171.67  4.5996588E-01
   7172.00  4.6285928E-01
