    FDMNES
    energy     <xanes>
   7097.00  4.5999856E-03
   7097.33  4.6971929E-03
   7097.67  4.7983918E-03
   7098.00  4.9038375E-03
   7098.33  5.0144299E-03
   7098.67  5.1299622E-03
   7099.00  5.2507811E-03
   7099.33  5.3780535E-03
   7099.67  5.5115680E-03
   7100.00  5.6518095E-03
   7100.33  5.8003345E-03
   7100.67  5.9569465E-03
   7101.00  6.1223481E-03
   7101.33  6.2986881E-03
   7101.67  6.4858290E-03
   7102.00  6.6848323E-03
   7102.33  6.8987918E-03
   7102.67  7.1277290E-03
   7103.00  7.3733306E-03
   7103.33  7.6402891E-03
   7103.67  7.9290181E-03
   7104.00  8.2423710E-03
   7104.33  8.5879464E-03
   7104.67  8.9671263E-03
   7105.00  9.3851334E-03
   7105.33  9.8553533E-03
   7105.67  1.0381690E-02
   7106.00  1.0974734E-02
   7106.33  1.1660844E-02
   7106.67  1.2451196E-02
   7107.00  1.3370453E-02
   7107.33  1.4479178E-02
   7107.67  1.5813179E-02
   7108.00  1.7442505E-02
   7108.33  1.9541691E-02
   7108.67  2.2254347E-02
   7109.00  2.5850552E-02
   7109.33  3.1050703E-02
   7109.67  3.8705720E-02
   7110.00  5.0491267E-02
   7110.33  7.1239347E-02
   7110.67  1.0572292E-01
   7111.00  1.5286887E-01
   7111.33  1.9313190E-01
   7111.67  2.1424512E-01
   7112.00  2.1819277E-01
   7112.33  2.1102415E-01
   7112.67  1.9468332E-01
   7113.00  1.7021951E-01
   7113.33  1.4488710E-01
   7113.67  1.2319602E-01
   7114.00  1.0431633E-01
   7114.33  8.9357257E-02
   7114.67  7.9585558E-02
   7115.00  7.4184723E-02
   7115.33  7.1329673E-02
   7115.67  6.9015486E-02
   7116.00  6.7243561E-02
   7116.33  6.7098677E-02
   7116.67  6.8737625E-02
   7117.00  7.2098710E-02
   7117.33  7.7255774E-02
   7117.67  8.3717685E-02
   7118.00  9.1109787E-02
   7118.33  9.9540149E-02
   7118.67  1.0936735E-01
   7119.00  1.2098035E-01
   7119.33  1.3491069E-01
   7119.67  1.5102039E-01
   7120.00  1.6936639E-01
   7120.33  1.9016993E-01
   7120.67  2.1279066E-01
   7121.00  2.3659545E-01
   7121.33  2.6060130E-01
   7121.67  2.8386813E-01
   7122.00  3.0608860E-01
   7122.33  3.2758903E-01
   7122.67  3.4930572E-01
   7123.00  3.7161094E-01
   7123.33  3.9383759E-01
   7123.67  4.1519915E-01
   7124.00  4.3600721E-01
   7124.33  4.5704710E-01
   7124.67  4.7767563E-01
   7125.00  4.9592943E-01
   7125.33  5.0964648E-01
   7125.67  5.1961059E-01
   7126.00  5.2655356E-01
   7126.33  5.3132703E-01
   7126.67  5.3568148E-01
   7127.00  5.4071397E-01
   7127.33  5.4721550E-01
   7127.67  5.5509222E-01
   7128.00  5.6424618E-01
   7128.33  5.7486169E-01
   7128.67  5.8691279E-01
   7129.00  6.0029645E-01
   7129.33  6.1457769E-01
   7129.67  6.2901385E-01
   7130.00  6.4321380E-01
   7130.33  6.5682216E-01
   7130.67  6.6954195E-01
   7131.00  6.8094949E-01
   7131.33  6.9078412E-01
   7131.67  7.0003413E-01
   7132.00  7.0969710E-01
   7132.33  7.2019314E-01
   7132.67  7.3024798E-01
   7133.00  7.3821805E-01
   7133.33  7.4242764E-01
   7133.67  7.4338812E-01
   7134.00  7.4186728E-01
   7134.33  7.3862079E-01
   7134.67  7.3455304E-01
   7135.00  7.3001850E-01
   7135.33  7.2507987E-01
   7135.67  7.1968493E-01
   7136.00  7.1370634E-01
   7136.33  7.0695150E-01
   7136.67  6.9949645E-01
   7137.00  6.9142183E-01
   7137.33  6.8284096E-01
   7137.67  6.7401157E-01
   7138.00  6.6509564E-01
   7138.33  6.5624932E-01
   7138.67  6.4756262E-01
   7139.00  6.3908413E-01
   7139.33  6.3087118E-01
   7139.67  6.2290610E-01
   7140.00  6.1519618E-01
   7140.33  6.0778682E-01
   7140.67  6.0066458E-01
   7141.00  5.9385359E-01
   7141.33  5.8743101E-01
   7141.67  5.8139273E-01
   7142.00  5.7577488E-01
   7142.33  5.7066754E-01
   7142.67  5.6602979E-01
   7143.00  5.6187682E-01
   7143.33  5.5830387E-01
   7143.67  5.5528570E-01
   7144.00  5.5285433E-01
   7144.33  5.5110981E-01
   7144.67  5.4997459E-01
   7145.00  5.4942193E-01
   7145.33  5.4945239E-01
   7145.67  5.4990170E-01
   7146.00  5.5065879E-01
   7146.33  5.5159139E-01
   7146.67  5.5251473E-01
   7147.00  5.5328458E-01
   7147.33  5.5370066E-01
   7147.67  5.5365958E-01
   7148.00  5.5306107E-01
   7148.33  5.5174027E-01
   7148.67  5.4973076E-01
   7149.00  5.4702291E-01
   7149.33  5.4355262E-01
   7149.67  5.3945495E-01
   7150.00  5.3479212E-01
   7150.33  5.2958807E-01
   7150.67  5.2399157E-01
   7151.00  5.1807854E-01
   7151.33  5.1189975E-01
   7151.67  5.0555229E-01
   7152.00  4.9908675E-01
   7152.33  4.9254525E-01
   7152.67  4.8597570E-01
   7153.00  4.7940524E-01
   7153.33  4.7286256E-01
   7153.67  4.6636568E-01
   7154.00  4.5993185E-01
   7154.33  4.5359287E-01
   7154.67  4.4735710E-01
   7155.00  4.4124205E-01
   7155.33  4.3528751E-01
   7155.67  4.2949519E-01
   7156.00  4.2388249E-01
   7156.33  4.1849659E-01
   7156.67  4.1333703E-01
   7157.00  4.0842748E-01
   7157.33  4.0383112E-01
   7157.67  3.9954053E-01
   7158.00  3.9557730E-01
   7158.33  3.9200867E-01
   7158.67  3.8881332E-01
   7159.00  3.8601060E-01
   7159.33  3.8367547E-01
   7159.67  3.8177964E-01
   7160.00  3.8034381E-01
   7160.33  3.7945170E-01
   7160.67  3.7906386E-01
   7161.00  3.7919421E-01
   7161.33  3.7991827E-01
   7161.67  3.8117248E-01
   7162.00  3.8295105E-01
   7162.33  3.8529916E-01
   7162.67  3.8812159E-01
   7163.00  3.9137524E-01
   7163.33  3.9504304E-01
   7163.67  3.9901183E-01
   7164.00  4.0321851E-01
   7164.33  4.0760402E-01
   7164.67  4.1206657E-01
   7165.00  4.1653554E-01
   7165.33  4.2092348E-01
   7165.67  4.2516960E-01
   7166.00  4.2922351E-01
   7166.33  4.3301038E-01
   7166.67  4.3653022E-01
   7167.00  4.3976948E-01
   7167.33  4.4269050E-01
   7167.67  4.4533896E-01
   7168.00  4.4773143E-01
   7168.33  4.4986435E-01
   7168.67  4.5179484E-01
   7169.00  4.5354719E-01
   7169.33  4.5512966E-01
   7169.67  4.5658618E-01
   7170.00  4.5793588E-01
   7170.33  4.5918638E-01
   7170.67  4.6036154E-01
   7171.00  4.6146555E-01
   7171.33  4.6248048E-01
   7171.67  4.6338546E-01
   7172.00  4.6413236E-01
