    FDMNES
    energy     <xanes>
   7097.00  4.9995135E-03
   7097.33  5.1172424E-03
   7097.67  5.2403072E-03
   7098.00  5.3690694E-03
   7098.33  5.5047652E-03
   7098.67  5.6471430E-03
   7099.00  5.7966964E-03
   7099.33  5.9550426E-03
   7099.67  6.1219254E-03
   7100.00  6.2980361E-03
   7100.33  6.4855477E-03
   7100.67  6.6842246E-03
   7101.00  6.8950664E-03
   7101.33  7.1210856E-03
   7101.67  7.3621242E-03
   7102.00  7.6196832E-03
   7102.33  7.8980992E-03
   7102.67  8.1974186E-03
   7103.00  8.5199998E-03
   7103.33  8.8723803E-03
   7103.67  9.2551008E-03
   7104.00  9.6720788E-03
   7104.33  1.0133755E-02
   7104.67  1.0641861E-02
   7105.00  1.1203377E-02
   7105.33  1.1836259E-02
   7105.67  1.2545239E-02
   7106.00  1.3343948E-02
   7106.33  1.4266444E-02
   7106.67  1.5325745E-02
   7107.00  1.6551981E-02
   7107.33  1.8019163E-02
   7107.67  1.9766802E-02
   7108.00  2.1874470E-02
   7108.33  2.4538876E-02
   7108.67  2.7906450E-02
   7109.00  3.2254321E-02
   7109.33  3.8305245E-02
   7109.67  4.6836049E-02
   7110.00  5.9355637E-02
   7110.33  8.0137272E-02
   7110.67  1.1366780E-01
   7111.00  1.6218691E-01
   7111.33  2.2381910E-01
   7111.67  2.9565902E-01
   7112.00  3.5898454E-01
   7112.33  3.6483099E-01
   7112.67  3.2481199E-01
   7113.00  2.8001689E-01
   7113.33  2.5293616E-01
   7113.67  2.3837495E-01
   7114.00  2.3183628E-01
   7114.33  2.4128392E-01
   7114.67  2.7319301E-01
   7115.00  3.1874919E-01
   7115.33  3.3854902E-01
   7115.67  3.0735507E-01
   7116.00  2.3642787E-01
   7116.33  1.7213773E-01
   7116.67  1.3125069E-01
   7117.00  1.0888387E-01
   7117.33  9.9432140E-02
   7117.67  9.7017890E-02
   7118.00  9.9210908E-02
   7118.33  1.0429657E-01
   7118.67  1.1222830E-01
   7119.00  1.2514639E-01
   7119.33  1.4691755E-01
   7119.67  1.7960187E-01
   7120.00  2.2465248E-01
   7120.33  2.7748324E-01
   7120.67  3.1858101E-01
   7121.00  3.3143899E-01
   7121.33  3.1588754E-01
   7121.67  2.9293677E-01
   7122.00  2.7306388E-01
   7122.33  2.6069297E-01
   7122.67  2.5415209E-01
   7123.00  2.5196301E-01
   7123.33  2.5326206E-01
   7123.67  2.5727355E-01
   7124.00  2.6419752E-01
   7124.33  2.7462616E-01
   7124.67  2.8864458E-01
   7125.00  3.0783122E-01
   7125.33  3.3424112E-01
   7125.67  3.6396557E-01
   7126.00  3.9140884E-01
   7126.33  4.1204558E-01
   7126.67  4.2889378E-01
   7127.00  4.4533036E-01
   7127.33  4.6283049E-01
   7127.67  4.8015523E-01
   7128.00  4.9637578E-01
   7128.33  5.1164048E-01
   7128.67  5.2664056E-01
   7129.00  5.4094941E-01
   7129.33  5.5296322E-01
   7129.67  5.6237133E-01
   7130.00  5.7032550E-01
   7130.33  5.7936051E-01
   7130.67  5.9017632E-01
   7131.00  6.0169451E-01
   7131.33  6.1541381E-01
   7131.67  6.3496461E-01
   7132.00  6.6099891E-01
   7132.33  6.9076406E-01
   7132.67  7.1910430E-01
   7133.00  7.4182710E-01
   7133.33  7.5330886E-01
   7133.67  7.5255755E-01
   7134.00  7.4105009E-01
   7134.33  7.2410920E-01
   7134.67  7.0932111E-01
   7135.00  7.0039740E-01
   7135.33  6.9923596E-01
   7135.67  7.0384168E-01
   7136.00  7.1248073E-01
   7136.33  7.2302432E-01
   7136.67  7.3286911E-01
   7137.00  7.4014880E-01
   7137.33  7.4272485E-01
   7137.67  7.4042268E-01
   7138.00  7.3345881E-01
   7138.33  7.2235698E-01
   7138.67  7.0890662E-01
   7139.00  6.9418482E-01
   7139.33  6.7910086E-01
   7139.67  6.6428501E-01
   7140.00  6.5002553E-01
   7140.33  6.3660296E-01
   7140.67  6.2403622E-01
   7141.00  6.1239909E-01
   7141.33  6.0185268E-01
   7141.67  5.9225177E-01
   7142.00  5.8352533E-01
   7142.33  5.7563546E-01
   7142.67  5.6833434E-01
   7143.00  5.6149652E-01
   7143.33  5.5505548E-01
   7143.67  5.4891288E-01
   7144.00  5.4307102E-01
   7144.33  5.3762253E-01
   7144.67  5.3259984E-01
   7145.00  5.2806831E-01
   7145.33  5.2414709E-01
   7145.67  5.2077526E-01
   7146.00  5.1791756E-01
   7146.33  5.1554362E-01
   7146.67  5.1348571E-01
   7147.00  5.1164001E-01
   7147.33  5.0991156E-01
   7147.67  5.0820831E-01
   7148.00  5.0650700E-01
   7148.33  5.0485710E-01
   7148.67  5.0334419E-01
   7149.00  5.0205055E-01
   7149.33  5.0107093E-01
   7149.67  5.0036670E-01
   7150.00  4.9988906E-01
   7150.33  4.9957371E-01
   7150.67  4.9932164E-01
   7151.00  4.9907531E-01
   7151.33  4.9876193E-01
   7151.67  4.9831274E-01
   7152.00  4.9765029E-01
   7152.33  4.9663483E-01
   7152.67  4.9520954E-01
   7153.00  4.9330720E-01
   7153.33  4.9079151E-01
   7153.67  4.8767785E-01
   7154.00  4.8394215E-01
   7154.33  4.7950440E-01
   7154.67  4.7446526E-01
   7155.00  4.6885983E-01
   7155.33  4.6267789E-01
   7155.67  4.5604851E-01
   7156.00  4.4903449E-01
   7156.33  4.4167621E-01
   7156.67  4.3409736E-01
   7157.00  4.2637924E-01
   7157.33  4.1862542E-01
   7157.67  4.1096367E-01
   7158.00  4.0351317E-01
   7158.33  3.9646829E-01
   7158.67  3.8993591E-01
   7159.00  3.8404005E-01
   7159.33  3.7900018E-01
   7159.67  3.7481286E-01
   7160.00  3.7152470E-01
   7160.33  3.6926577E-01
   7160.67  3.6790362E-01
   7161.00  3.6739561E-01
   7161.33  3.6776158E-01
   7161.67  3.6881278E-01
   7162.00  3.7046433E-01
   7162.33  3.7267766E-01
   7162.67  3.7530055E-01
   7163.00  3.7826736E-01
   7163.33  3.8154859E-01
   7163.67  3.8505791E-01
   7164.00  3.8876033E-01
   7164.33  3.9264148E-01
   7164.67  3.9665128E-01
   7165.00  4.0076617E-01
   7165.33  4.0496908E-01
   7165.67  4.0922037E-01
   7166.00  4.1349011E-01
   7166.33  4.1773482E-01
   7166.67  4.2191008E-01
   7167.00  4.2597087E-01
   7167.33  4.2984016E-01
   7167.67  4.3348253E-01
   7168.00  4.3685171E-01
   7168.33  4.3986114E-01
   7168.67  4.4251598E-01
   7169.00  4.4479788E-01
   7169.33  4.4665291E-01
   7169.67  4.4813798E-01
   7170.00  4.4927320E-01
   7170.33  4.5005496E-01
   7170.67  4.5056823E-01
   7171.00  4.5085810E-01
   7171.33  4.5096244E-01
   7171.67  4.5096939E-01
   7172.00  4.5094627E-01
