    FDMNES
    energy     <xanes>
   7097.00  4.9336322E-03
   7097.33  5.0476436E-03
   7097.67  5.1667070E-03
   7098.00  5.2911574E-03
   7098.33  5.4221528E-03
   7098.67  5.5594446E-03
   7099.00  5.7034874E-03
   7099.33  5.8557874E-03
   7099.67  6.0160879E-03
   7100.00  6.1850216E-03
   7100.33  6.3645987E-03
   7100.67  6.5545757E-03
   7101.00  6.7558608E-03
   7101.33  6.9712196E-03
   7101.67  7.2004694E-03
   7102.00  7.4449630E-03
   7102.33  7.7086467E-03
   7102.67  7.9915055E-03
   7103.00  8.2956448E-03
   7103.33  8.6269538E-03
   7103.67  8.9858276E-03
   7104.00  9.3757252E-03
   7104.33  9.8059412E-03
   7104.67  1.0277859E-02
   7105.00  1.0797564E-02
   7105.33  1.1380813E-02
   7105.67  1.2031470E-02
   7106.00  1.2761233E-02
   7106.33  1.3599476E-02
   7106.67  1.4556837E-02
   7107.00  1.5658684E-02
   7107.33  1.6967502E-02
   7107.67  1.8515247E-02
   7108.00  2.0367360E-02
   7108.33  2.2685526E-02
   7108.67  2.5585987E-02
   7109.00  2.9290086E-02
   7109.33  3.4372384E-02
   7109.67  4.1433826E-02
   7110.00  5.1641542E-02
   7110.33  6.8313276E-02
   7110.67  9.5187845E-02
   7111.00  1.3500344E-01
   7111.33  1.8368618E-01
   7111.67  2.3456795E-01
   7112.00  2.8573557E-01
   7112.33  3.2217004E-01
   7112.67  3.2521433E-01
   7113.00  3.0334087E-01
   7113.33  2.8220484E-01
   7113.67  2.6977829E-01
   7114.00  2.6580390E-01
   7114.33  2.7702105E-01
   7114.67  3.0228283E-01
   7115.00  3.2075745E-01
   7115.33  3.0413849E-01
   7115.67  2.5739386E-01
   7116.00  1.9920729E-01
   7116.33  1.5359829E-01
   7116.67  1.2396251E-01
   7117.00  1.0705722E-01
   7117.33  9.9754538E-02
   7117.67  9.7902192E-02
   7118.00  9.9614716E-02
   7118.33  1.0347495E-01
   7118.67  1.0842766E-01
   7119.00  1.1574834E-01
   7119.33  1.2872355E-01
   7119.67  1.4841972E-01
   7120.00  1.7552089E-01
   7120.33  2.1037834E-01
   7120.67  2.4871742E-01
   7121.00  2.8464636E-01
   7121.33  3.0934352E-01
   7121.67  3.2091177E-01
   7122.00  3.2150512E-01
   7122.33  3.1553327E-01
   7122.67  3.0839871E-01
   7123.00  3.0271651E-01
   7123.33  3.0062770E-01
   7123.67  3.0275926E-01
   7124.00  3.0985172E-01
   7124.33  3.2341483E-01
   7124.67  3.4300983E-01
   7125.00  3.6798668E-01
   7125.33  3.9620287E-01
   7125.67  4.2312309E-01
   7126.00  4.4558094E-01
   7126.33  4.6212673E-01
   7126.67  4.7538085E-01
   7127.00  4.8741813E-01
   7127.33  4.9971685E-01
   7127.67  5.1243445E-01
   7128.00  5.2509311E-01
   7128.33  5.3710676E-01
   7128.67  5.4850596E-01
   7129.00  5.5951129E-01
   7129.33  5.7026905E-01
   7129.67  5.8077650E-01
   7130.00  5.9087692E-01
   7130.33  6.0001891E-01
   7130.67  6.0787339E-01
   7131.00  6.1498612E-01
   7131.33  6.2383354E-01
   7131.67  6.3666313E-01
   7132.00  6.5396138E-01
   7132.33  6.7396276E-01
   7132.67  6.9240975E-01
   7133.00  7.0594788E-01
   7133.33  7.1143408E-01
   7133.67  7.1003740E-01
   7134.00  7.0377863E-01
   7134.33  6.9551389E-01
   7134.67  6.8775869E-01
   7135.00  6.8133725E-01
   7135.33  6.7653102E-01
   7135.67  6.7299890E-01
   7136.00  6.7058660E-01
   7136.33  6.6919921E-01
   7136.67  6.6847274E-01
   7137.00  6.6817736E-01
   7137.33  6.6808153E-01
   7137.67  6.6795721E-01
   7138.00  6.6768675E-01
   7138.33  6.6718523E-01
   7138.67  6.6648967E-01
   7139.00  6.6563960E-01
   7139.33  6.6465612E-01
   7139.67  6.6353268E-01
   7140.00  6.6217866E-01
   7140.33  6.6034856E-01
   7140.67  6.5782651E-01
   7141.00  6.5433699E-01
   7141.33  6.4938349E-01
   7141.67  6.4283469E-01
   7142.00  6.3451085E-01
   7142.33  6.2409420E-01
   7142.67  6.1189469E-01
   7143.00  5.9811912E-01
   7143.33  5.8301489E-01
   7143.67  5.6725580E-01
   7144.00  5.5135320E-01
   7144.33  5.3595945E-01
   7144.67  5.2154307E-01
   7145.00  5.0845591E-01
   7145.33  4.9717076E-01
   7145.67  4.8761982E-01
   7146.00  4.7982435E-01
   7146.33  4.7393984E-01
   7146.67  4.6962870E-01
   7147.00  4.6673718E-01
   7147.33  4.6519732E-01
   7147.67  4.6461772E-01
   7148.00  4.6476797E-01
   7148.33  4.6540252E-01
   7148.67  4.6617180E-01
   7149.00  4.6685500E-01
   7149.33  4.6720838E-01
   7149.67  4.6712584E-01
   7150.00  4.6654020E-01
   7150.33  4.6536679E-01
   7150.67  4.6369841E-01
   7151.00  4.6158070E-01
   7151.33  4.5903276E-01
   7151.67  4.5617065E-01
   7152.00  4.5304678E-01
   7152.33  4.4968853E-01
   7152.67  4.4617287E-01
   7153.00  4.4254544E-01
   7153.33  4.3885468E-01
   7153.67  4.3516676E-01
   7154.00  4.3153718E-01
   7154.33  4.2804468E-01
   7154.67  4.2473013E-01
   7155.00  4.2163269E-01
   7155.33  4.1881556E-01
   7155.67  4.1626504E-01
   7156.00  4.1398658E-01
   7156.33  4.1201113E-01
   7156.67  4.1029476E-01
   7157.00  4.0882460E-01
   7157.33  4.0761126E-01
   7157.67  4.0660699E-01
   7158.00  4.0579625E-01
   7158.33  4.0518535E-01
   7158.67  4.0474084E-01
   7159.00  4.0445866E-01
   7159.33  4.0436100E-01
   7159.67  4.0443550E-01
   7160.00  4.0469357E-01
   7160.33  4.0517749E-01
   7160.67  4.0588309E-01
   7161.00  4.0682600E-01
   7161.33  4.0804926E-01
   7161.67  4.0952197E-01
   7162.00  4.1123303E-01
   7162.33  4.1319593E-01
   7162.67  4.1536676E-01
   7163.00  4.1773023E-01
   7163.33  4.2028856E-01
   7163.67  4.2299813E-01
   7164.00  4.2583729E-01
   7164.33  4.2879217E-01
   7164.67  4.3182294E-01
   7165.00  4.3490559E-01
   7165.33  4.3801383E-01
   7165.67  4.4111410E-01
   7166.00  4.4417828E-01
   7166.33  4.4716263E-01
   7166.67  4.5003863E-01
   7167.00  4.5277238E-01
   7167.33  4.5530089E-01
   7167.67  4.5760696E-01
   7168.00  4.5965715E-01
   7168.33  4.6137851E-01
   7168.67  4.6277502E-01
   7169.00  4.6382284E-01
   7169.33  4.6445584E-01
   7169.67  4.6471161E-01
   7170.00  4.6459457E-01
   7170.33  4.6408356E-01
   7170.67  4.6326768E-01
   7171.00  4.6220702E-01
   7171.33  4.6098606E-01
   7171.67  4.5977417E-01
   7172.00  4.5874244E-01
