    FDMNES
    energy     <xanes>
   7097.00  5.3545701E-03
   7097.33  5.4877197E-03
   7097.67  5.6271664E-03
   7098.00  5.7733464E-03
   7098.33  5.9277331E-03
   7098.67  6.0900404E-03
   7099.00  6.2608632E-03
   7099.33  6.4421343E-03
   7099.67  6.6335606E-03
   7100.00  6.8359738E-03
   7100.33  7.0519728E-03
   7100.67  7.2812849E-03
   7101.00  7.5251075E-03
   7101.33  7.7870374E-03
   7101.67  8.0668839E-03
   7102.00  8.3664306E-03
   7102.33  8.6908293E-03
   7102.67  9.0401055E-03
   7103.00  9.4170265E-03
   7103.33  9.8292849E-03
   7103.67  1.0277421E-02
   7104.00  1.0765948E-02
   7104.33  1.1306955E-02
   7104.67  1.1902197E-02
   7105.00  1.2559504E-02
   7105.33  1.3299150E-02
   7105.67  1.4125851E-02
   7106.00  1.5054336E-02
   7106.33  1.6121630E-02
   7106.67  1.7340278E-02
   7107.00  1.8741173E-02
   7107.33  2.0400439E-02
   7107.67  2.2354243E-02
   7108.00  2.4678536E-02
   7108.33  2.7560330E-02
   7108.67  3.1124633E-02
   7109.00  3.5612431E-02
   7109.33  4.1643466E-02
   7109.67  4.9829524E-02
   7110.00  6.1359631E-02
   7110.33  7.9579070E-02
   7110.67  1.0806180E-01
   7111.00  1.4844769E-01
   7111.33  1.9124986E-01
   7111.67  2.3855237E-01
   7112.00  3.0748421E-01
   7112.33  4.0523295E-01
   7112.67  5.2064840E-01
   7113.00  6.4005568E-01
   7113.33  7.0357150E-01
   7113.67  6.6160293E-01
   7114.00  5.5004812E-01
   7114.33  4.4163393E-01
   7114.67  3.5804302E-01
   7115.00  2.9654609E-01
   7115.33  2.5459043E-01
   7115.67  2.2675715E-01
   7116.00  2.1062410E-01
   7116.33  2.0400517E-01
   7116.67  2.0090431E-01
   7117.00  1.9617415E-01
   7117.33  1.8576474E-01
   7117.67  1.7204370E-01
   7118.00  1.5858106E-01
   7118.33  1.4824573E-01
   7118.67  1.4091589E-01
   7119.00  1.3602977E-01
   7119.33  1.3322032E-01
   7119.67  1.3184264E-01
   7120.00  1.3135195E-01
   7120.33  1.3078007E-01
   7120.67  1.2959933E-01
   7121.00  1.2807289E-01
   7121.33  1.2686554E-01
   7121.67  1.2633393E-01
   7122.00  1.2664071E-01
   7122.33  1.2797777E-01
   7122.67  1.3021862E-01
   7123.00  1.3335916E-01
   7123.33  1.3757363E-01
   7123.67  1.4286664E-01
   7124.00  1.4940147E-01
   7124.33  1.5764120E-01
   7124.67  1.6777024E-01
   7125.00  1.8016570E-01
   7125.33  1.9559667E-01
   7125.67  2.1404490E-01
   7126.00  2.3559952E-01
   7126.33  2.6042280E-01
   7126.67  2.8765810E-01
   7127.00  3.1677982E-01
   7127.33  3.4727078E-01
   7127.67  3.7831436E-01
   7128.00  4.0959617E-01
   7128.33  4.4144132E-01
   7128.67  4.7492872E-01
   7129.00  5.1168056E-01
   7129.33  5.5395115E-01
   7129.67  6.0086652E-01
   7130.00  6.5022515E-01
   7130.33  6.9855563E-01
   7130.67  7.4419895E-01
   7131.00  7.8766158E-01
   7131.33  8.3073899E-01
   7131.67  8.7517711E-01
   7132.00  9.2158370E-01
   7132.33  9.6912405E-01
   7132.67  1.0143009E+00
   7133.00  1.0522540E+00
   7133.33  1.0745855E+00
   7133.67  1.0779545E+00
   7134.00  1.0611156E+00
   7134.33  1.0242636E+00
   7134.67  9.7467540E-01
   7135.00  9.1726934E-01
   7135.33  8.5675710E-01
   7135.67  7.9719431E-01
   7136.00  7.4067147E-01
   7136.33  6.8920899E-01
   7136.67  6.4301481E-01
   7137.00  6.0243511E-01
   7137.33  5.6840675E-01
   7137.67  5.4028439E-01
   7138.00  5.1804044E-01
   7138.33  5.0219325E-01
   7138.67  4.9163755E-01
   7139.00  4.8586008E-01
   7139.33  4.8457599E-01
   7139.67  4.8638791E-01
   7140.00  4.9053232E-01
   7140.33  4.9642922E-01
   7140.67  5.0329402E-01
   7141.00  5.1077212E-01
   7141.33  5.1863192E-01
   7141.67  5.2665165E-01
   7142.00  5.3471218E-01
   7142.33  5.4267011E-01
   7142.67  5.5039464E-01
   7143.00  5.5775339E-01
   7143.33  5.6452400E-01
   7143.67  5.7062691E-01
   7144.00  5.7596043E-01
   7144.33  5.8033877E-01
   7144.67  5.8382635E-01
   7145.00  5.8640525E-01
   7145.33  5.8796842E-01
   7145.67  5.8866940E-01
   7146.00  5.8856468E-01
   7146.33  5.8764511E-01
   7146.67  5.8609142E-01
   7147.00  5.8398349E-01
   7147.33  5.8135624E-01
   7147.67  5.7835816E-01
   7148.00  5.7506579E-01
   7148.33  5.7154178E-01
   7148.67  5.6790070E-01
   7149.00  5.6421975E-01
   7149.33  5.6059639E-01
   7149.67  5.5711707E-01
   7150.00  5.5386458E-01
   7150.33  5.5097346E-01
   7150.67  5.4848853E-01
   7151.00  5.4647607E-01
   7151.33  5.4507129E-01
   7151.67  5.4426116E-01
   7152.00  5.4408062E-01
   7152.33  5.4463635E-01
   7152.67  5.4585242E-01
   7153.00  5.4771779E-01
   7153.33  5.5027741E-01
   7153.67  5.5340026E-01
   7154.00  5.5702215E-01
   7154.33  5.6109801E-01
   7154.67  5.6546127E-01
   7155.00  5.6999838E-01
   7155.33  5.7456995E-01
   7155.67  5.7902487E-01
   7156.00  5.8324078E-01
   7156.33  5.8704297E-01
   7156.67  5.9037117E-01
   7157.00  5.9315642E-01
   7157.33  5.9527211E-01
   7157.67  5.9676889E-01
   7158.00  5.9764487E-01
   7158.33  5.9783750E-01
   7158.67  5.9744652E-01
   7159.00  5.9649611E-01
   7159.33  5.9494796E-01
   7159.67  5.9289377E-01
   7160.00  5.9035194E-01
   7160.33  5.8728273E-01
   7160.67  5.8376254E-01
   7161.00  5.7980499E-01
   7161.33  5.7537620E-01
   7161.67  5.7055364E-01
   7162.00  5.6535962E-01
   7162.33  5.5978138E-01
   7162.67  5.5390250E-01
   7163.00  5.4776323E-01
   7163.33  5.4138597E-01
   7163.67  5.3484606E-01
   7164.00  5.2818392E-01
   7164.33  5.2143167E-01
   7164.67  5.1463574E-01
   7165.00  5.0782373E-01
   7165.33  5.0102534E-01
   7165.67  4.9426387E-01
   7166.00  4.8755728E-01
   7166.33  4.8093205E-01
   7166.67  4.7439566E-01
   7167.00  4.6796428E-01
   7167.33  4.6167540E-01
   7167.67  4.5553783E-01
   7168.00  4.4957626E-01
   7168.33  4.4385035E-01
   7168.67  4.3837216E-01
   7169.00  4.3317362E-01
   7169.33  4.2832441E-01
   7169.67  4.2381224E-01
   7170.00  4.1965790E-01
   7170.33  4.1592826E-01
   7170.67  4.1258979E-01
   7171.00  4.0965086E-01
   7171.33  4.0717188E-01
   7171.67  4.0511721E-01
   7172.00  4.0350473E-01
