    FDMNES
    energy     <xanes>
   7097.00  4.7616006E-03
   7097.33  4.8670064E-03
   7097.67  4.9767800E-03
   7098.00  5.0911913E-03
   7098.33  5.2112087E-03
   7098.67  5.3365909E-03
   7099.00  5.4676981E-03
   7099.33  5.6057683E-03
   7099.67  5.7505456E-03
   7100.00  5.9025227E-03
   7100.33  6.0633208E-03
   7100.67  6.2326824E-03
   7101.00  6.4113021E-03
   7101.33  6.6013655E-03
   7101.67  6.8026441E-03
   7102.00  7.0161538E-03
   7102.33  7.2449468E-03
   7102.67  7.4888950E-03
   7103.00  7.7495506E-03
   7103.33  8.0313694E-03
   7103.67  8.3344871E-03
   7104.00  8.6614111E-03
   7104.33  9.0190226E-03
   7104.67  9.4081184E-03
   7105.00  9.8330451E-03
   7105.33  1.0305244E-02
   7105.67  1.0827209E-02
   7106.00  1.1407217E-02
   7106.33  1.2066288E-02
   7106.67  1.2811660E-02
   7107.00  1.3661262E-02
   7107.33  1.4659600E-02
   7107.67  1.5829270E-02
   7108.00  1.7217166E-02
   7108.33  1.8940011E-02
   7108.67  2.1083790E-02
   7109.00  2.3813348E-02
   7109.33  2.7562247E-02
   7109.67  3.2804992E-02
   7110.00  4.0473750E-02
   7110.33  5.3258779E-02
   7110.67  7.4191101E-02
   7111.00  1.0475040E-01
   7111.33  1.3551537E-01
   7111.67  1.5337773E-01
   7112.00  1.6178228E-01
   7112.33  1.7087209E-01
   7112.67  1.8540738E-01
   7113.00  2.0274576E-01
   7113.33  2.1786735E-01
   7113.67  2.3053846E-01
   7114.00  2.4063285E-01
   7114.33  2.3851943E-01
   7114.67  2.1604895E-01
   7115.00  1.8049753E-01
   7115.33  1.4911587E-01
   7115.67  1.2862853E-01
   7116.00  1.1891317E-01
   7116.33  1.1970823E-01
   7116.67  1.2944534E-01
   7117.00  1.4900711E-01
   7117.33  1.8199229E-01
   7117.67  2.2854838E-01
   7118.00  2.8662730E-01
   7118.33  3.4466702E-01
   7118.67  3.8331478E-01
   7119.00  3.9378584E-01
   7119.33  3.8577084E-01
   7119.67  3.7911566E-01
   7120.00  3.7899934E-01
   7120.33  3.8091477E-01
   7120.67  3.7717339E-01
   7121.00  3.6596065E-01
   7121.33  3.5102734E-01
   7121.67  3.3805954E-01
   7122.00  3.2947247E-01
   7122.33  3.2621867E-01
   7122.67  3.2647160E-01
   7123.00  3.2858918E-01
   7123.33  3.3057093E-01
   7123.67  3.3117436E-01
   7124.00  3.3085768E-01
   7124.33  3.3163397E-01
   7124.67  3.3425591E-01
   7125.00  3.3833728E-01
   7125.33  3.4401062E-01
   7125.67  3.5273679E-01
   7126.00  3.6666812E-01
   7126.33  3.8745955E-01
   7126.67  4.1265359E-01
   7127.00  4.3990317E-01
   7127.33  4.6673109E-01
   7127.67  4.9095587E-01
   7128.00  5.1061254E-01
   7128.33  5.2383564E-01
   7128.67  5.3281158E-01
   7129.00  5.4044823E-01
   7129.33  5.5032152E-01
   7129.67  5.6405343E-01
   7130.00  5.8191828E-01
   7130.33  6.0358030E-01
   7130.67  6.2725356E-01
   7131.00  6.5153699E-01
   7131.33  6.7457481E-01
   7131.67  6.9511769E-01
   7132.00  7.1254119E-01
   7132.33  7.2615129E-01
   7132.67  7.3623410E-01
   7133.00  7.4284050E-01
   7133.33  7.4599310E-01
   7133.67  7.4672577E-01
   7134.00  7.4581678E-01
   7134.33  7.4459772E-01
   7134.67  7.4431732E-01
   7135.00  7.4494716E-01
   7135.33  7.4506253E-01
   7135.67  7.4308058E-01
   7136.00  7.3826272E-01
   7136.33  7.3043821E-01
   7136.67  7.2078061E-01
   7137.00  7.1010079E-01
   7137.33  6.9903444E-01
   7137.67  6.8788628E-01
   7138.00  6.7658223E-01
   7138.33  6.6474712E-01
   7138.67  6.5204436E-01
   7139.00  6.3820500E-01
   7139.33  6.2295160E-01
   7139.67  6.0656222E-01
   7140.00  5.8930152E-01
   7140.33  5.7152606E-01
   7140.67  5.5373673E-01
   7141.00  5.3628633E-01
   7141.33  5.1958602E-01
   7141.67  5.0377367E-01
   7142.00  4.8897605E-01
   7142.33  4.7542550E-01
   7142.67  4.6302351E-01
   7143.00  4.5176882E-01
   7143.33  4.4176802E-01
   7143.67  4.3282276E-01
   7144.00  4.2486488E-01
   7144.33  4.1790753E-01
   7144.67  4.1172714E-01
   7145.00  4.0622325E-01
   7145.33  4.0135590E-01
   7145.67  3.9696354E-01
   7146.00  3.9299232E-01
   7146.33  3.8946157E-01
   7146.67  3.8633095E-01
   7147.00  3.8363764E-01
   7147.33  3.8152185E-01
   7147.67  3.8002528E-01
   7148.00  3.7923402E-01
   7148.33  3.7930356E-01
   7148.67  3.8014378E-01
   7149.00  3.8173087E-01
   7149.33  3.8411429E-01
   7149.67  3.8715186E-01
   7150.00  3.9078820E-01
   7150.33  3.9502650E-01
   7150.67  3.9974684E-01
   7151.00  4.0491586E-01
   7151.33  4.1056038E-01
   7151.67  4.1660769E-01
   7152.00  4.2303669E-01
   7152.33  4.2984948E-01
   7152.67  4.3693579E-01
   7153.00  4.4420652E-01
   7153.33  4.5152052E-01
   7153.67  4.5871790E-01
   7154.00  4.6567241E-01
   7154.33  4.7219479E-01
   7154.67  4.7820503E-01
   7155.00  4.8360950E-01
   7155.33  4.8823629E-01
   7155.67  4.9211349E-01
   7156.00  4.9521421E-01
   7156.33  4.9743678E-01
   7156.67  4.9890194E-01
   7157.00  4.9964794E-01
   7157.33  4.9964968E-01
   7157.67  4.9905376E-01
   7158.00  4.9791640E-01
   7158.33  4.9623785E-01
   7158.67  4.9412084E-01
   7159.00  4.9158617E-01
   7159.33  4.8859580E-01
   7159.67  4.8520865E-01
   7160.00  4.8144892E-01
   7160.33  4.7735204E-01
   7160.67  4.7307093E-01
   7161.00  4.6872300E-01
   7161.33  4.6446341E-01
   7161.67  4.6042176E-01
   7162.00  4.5669747E-01
   7162.33  4.5342017E-01
   7162.67  4.5058439E-01
   7163.00  4.4820529E-01
   7163.33  4.4633750E-01
   7163.67  4.4490820E-01
   7164.00  4.4389719E-01
   7164.33  4.4332452E-01
   7164.67  4.4310752E-01
   7165.00  4.4321146E-01
   7165.33  4.4362104E-01
   7165.67  4.4424268E-01
   7166.00  4.4501714E-01
   7166.33  4.4587560E-01
   7166.67  4.4672441E-01
   7167.00  4.4749199E-01
   7167.33  4.4808191E-01
   7167.67  4.4845014E-01
   7168.00  4.4855647E-01
   7168.33  4.4833689E-01
   7168.67  4.4782065E-01
   7169.00  4.4701808E-01
   7169.33  4.4592629E-01
   7169.67  4.4462182E-01
   7170.00  4.4315245E-01
   7170.33  4.4157054E-01
   7170.67  4.3996064E-01
   7171.00  4.3838797E-01
   7171.33  4.3694537E-01
   7171.67  4.3570051E-01
   7172.00  4.3472190E-01
