    FDMNES
    energy     <xanes>
   7097.00  4.7927142E-03
   7097.33  4.8990809E-03
   7097.67  5.0098820E-03
   7098.00  5.1253939E-03
   7098.33  5.2466032E-03
   7098.67  5.3732677E-03
   7099.00  5.5057570E-03
   7099.33  5.6453348E-03
   7099.67  5.7917452E-03
   7100.00  5.9454948E-03
   7100.33  6.1082426E-03
   7100.67  6.2797326E-03
   7101.00  6.4606811E-03
   7101.33  6.6533305E-03
   7101.67  6.8574580E-03
   7102.00  7.0741134E-03
   7102.33  7.3064388E-03
   7102.67  7.5543191E-03
   7103.00  7.8193640E-03
   7103.33  8.1061761E-03
   7103.67  8.4149215E-03
   7104.00  8.7482086E-03
   7104.33  9.1131722E-03
   7104.67  9.5106785E-03
   7105.00  9.9452639E-03
   7105.33  1.0428836E-02
   7105.67  1.0964054E-02
   7106.00  1.1559578E-02
   7106.33  1.2237363E-02
   7106.67  1.3005059E-02
   7107.00  1.3881462E-02
   7107.33  1.4913166E-02
   7107.67  1.6123937E-02
   7108.00  1.7562937E-02
   7108.33  1.9352428E-02
   7108.67  2.1582508E-02
   7109.00  2.4425760E-02
   7109.33  2.8336003E-02
   7109.67  3.3809939E-02
   7110.00  4.1822658E-02
   7110.33  5.5164948E-02
   7110.67  7.6723618E-02
   7111.00  1.0689686E-01
   7111.33  1.3651756E-01
   7111.67  1.5974838E-01
   7112.00  1.7794300E-01
   7112.33  1.9806480E-01
   7112.67  2.2005221E-01
   7113.00  2.3858241E-01
   7113.33  2.5049121E-01
   7113.67  2.4870306E-01
   7114.00  2.2458078E-01
   7114.33  1.8491606E-01
   7114.67  1.5023785E-01
   7115.00  1.2626381E-01
   7115.33  1.1330559E-01
   7115.67  1.0865584E-01
   7116.00  1.1185212E-01
   7116.33  1.2440759E-01
   7116.67  1.4709690E-01
   7117.00  1.8245242E-01
   7117.33  2.3464294E-01
   7117.67  2.9744486E-01
   7118.00  3.5539506E-01
   7118.33  3.8052384E-01
   7118.67  3.7488788E-01
   7119.00  3.5683377E-01
   7119.33  3.4075067E-01
   7119.67  3.2624064E-01
   7120.00  3.1225736E-01
   7120.33  3.0150823E-01
   7120.67  2.9566240E-01
   7121.00  2.9480328E-01
   7121.33  2.9863094E-01
   7121.67  3.0576349E-01
   7122.00  3.1558564E-01
   7122.33  3.2749012E-01
   7122.67  3.4001458E-01
   7123.00  3.5183528E-01
   7123.33  3.6135935E-01
   7123.67  3.6860465E-01
   7124.00  3.7446295E-01
   7124.33  3.7990791E-01
   7124.67  3.8512142E-01
   7125.00  3.9022181E-01
   7125.33  3.9632340E-01
   7125.67  4.0532316E-01
   7126.00  4.1888512E-01
   7126.33  4.3806288E-01
   7126.67  4.6088809E-01
   7127.00  4.8540447E-01
   7127.33  5.0917028E-01
   7127.67  5.3043456E-01
   7128.00  5.4832437E-01
   7128.33  5.6236544E-01
   7128.67  5.7367816E-01
   7129.00  5.8308606E-01
   7129.33  5.9170578E-01
   7129.67  6.0098006E-01
   7130.00  6.1165331E-01
   7130.33  6.2358086E-01
   7130.67  6.3524403E-01
   7131.00  6.4542706E-01
   7131.33  6.5360856E-01
   7131.67  6.6102709E-01
   7132.00  6.6883643E-01
   7132.33  6.7788877E-01
   7132.67  6.8785624E-01
   7133.00  6.9803812E-01
   7133.33  7.0716165E-01
   7133.67  7.1419454E-01
   7134.00  7.1861321E-01
   7134.33  7.2041662E-01
   7134.67  7.2055382E-01
   7135.00  7.1905397E-01
   7135.33  7.1486208E-01
   7135.67  7.0748611E-01
   7136.00  6.9686878E-01
   7136.33  6.8348884E-01
   7136.67  6.6889327E-01
   7137.00  6.5405514E-01
   7137.33  6.3976062E-01
   7137.67  6.2623369E-01
   7138.00  6.1348264E-01
   7138.33  6.0147407E-01
   7138.67  5.8996200E-01
   7139.00  5.7879610E-01
   7139.33  5.6783253E-01
   7139.67  5.5693282E-01
   7140.00  5.4607813E-01
   7140.33  5.3538605E-01
   7140.67  5.2504700E-01
   7141.00  5.1526986E-01
   7141.33  5.0633759E-01
   7141.67  4.9823393E-01
   7142.00  4.9093259E-01
   7142.33  4.8440085E-01
   7142.67  4.7837180E-01
   7143.00  4.7266826E-01
   7143.33  4.6710603E-01
   7143.67  4.6150776E-01
   7144.00  4.5578649E-01
   7144.33  4.4990330E-01
   7144.67  4.4395534E-01
   7145.00  4.3808681E-01
   7145.33  4.3256377E-01
   7145.67  4.2759001E-01
   7146.00  4.2334403E-01
   7146.33  4.2007579E-01
   7146.67  4.1773835E-01
   7147.00  4.1633131E-01
   7147.33  4.1592136E-01
   7147.67  4.1630823E-01
   7148.00  4.1737331E-01
   7148.33  4.1898881E-01
   7148.67  4.2086622E-01
   7149.00  4.2282302E-01
   7149.33  4.2467918E-01
   7149.67  4.2632720E-01
   7150.00  4.2772334E-01
   7150.33  4.2887531E-01
   7150.67  4.2993140E-01
   7151.00  4.3104156E-01
   7151.33  4.3242328E-01
   7151.67  4.3420485E-01
   7152.00  4.3647707E-01
   7152.33  4.3935695E-01
   7152.67  4.4277430E-01
   7153.00  4.4668655E-01
   7153.33  4.5106501E-01
   7153.67  4.5578256E-01
   7154.00  4.6077991E-01
   7154.33  4.6600615E-01
   7154.67  4.7134393E-01
   7155.00  4.7669635E-01
   7155.33  4.8190964E-01
   7155.67  4.8683387E-01
   7156.00  4.9130886E-01
   7156.33  4.9505549E-01
   7156.67  4.9795885E-01
   7157.00  4.9986377E-01
   7157.33  5.0047741E-01
   7157.67  4.9985315E-01
   7158.00  4.9797910E-01
   7158.33  4.9477558E-01
   7158.67  4.9053757E-01
   7159.00  4.8544218E-01
   7159.33  4.7965804E-01
   7159.67  4.7352445E-01
   7160.00  4.6726148E-01
   7160.33  4.6111260E-01
   7160.67  4.5525471E-01
   7161.00  4.4981044E-01
   7161.33  4.4494272E-01
   7161.67  4.4064651E-01
   7162.00  4.3694459E-01
   7162.33  4.3390942E-01
   7162.67  4.3144452E-01
   7163.00  4.2952001E-01
   7163.33  4.2815596E-01
   7163.67  4.2724469E-01
   7164.00  4.2674723E-01
   7164.33  4.2666598E-01
   7164.67  4.2691316E-01
   7165.00  4.2745428E-01
   7165.33  4.2828198E-01
   7165.67  4.2932556E-01
   7166.00  4.3055044E-01
   7166.33  4.3192988E-01
   7166.67  4.3339937E-01
   7167.00  4.3491707E-01
   7167.33  4.3643476E-01
   7167.67  4.3790668E-01
   7168.00  4.3929677E-01
   7168.33  4.4055391E-01
   7168.67  4.4166434E-01
   7169.00  4.4261063E-01
   7169.33  4.4335908E-01
   7169.67  4.4392955E-01
   7170.00  4.4432808E-01
   7170.33  4.4455073E-01
   7170.67  4.4464050E-01
   7171.00  4.4462285E-01
   7171.33  4.4452451E-01
   7171.67  4.4439688E-01
   7172.00  4.4427947E-01
