    FDMNES
    energy     <xanes>
   7097.00  4.5171818E-03
   7097.33  4.6179379E-03
   7097.67  4.7232639E-03
   7098.00  4.8334803E-03
   7098.33  4.9496639E-03
   7098.67  5.0716152E-03
   7099.00  5.1997767E-03
   7099.33  5.3355737E-03
   7099.67  5.4788105E-03
   7100.00  5.6301158E-03
   7100.33  5.7914309E-03
   7100.67  5.9625917E-03
   7101.00  6.1445227E-03
   7101.33  6.3399576E-03
   7101.67  6.5488264E-03
   7102.00  6.7725424E-03
   7102.33  7.0151140E-03
   7102.67  7.2767021E-03
   7103.00  7.5595724E-03
   7103.33  7.8698971E-03
   7103.67  8.2083813E-03
   7104.00  8.5788733E-03
   7104.33  8.9914708E-03
   7104.67  9.4481818E-03
   7105.00  9.9560324E-03
   7105.33  1.0532862E-02
   7105.67  1.1183976E-02
   7106.00  1.1923457E-02
   7106.33  1.2786159E-02
   7106.67  1.3786569E-02
   7107.00  1.4956678E-02
   7107.33  1.6374645E-02
   7107.67  1.8084621E-02
   7108.00  2.0173397E-02
   7108.33  2.2855100E-02
   7108.67  2.6294536E-02
   7109.00  3.0800268E-02
   7109.33  3.7176186E-02
   7109.67  4.6295150E-02
   7110.00  5.9846719E-02
   7110.33  8.2683872E-02
   7110.67  1.2075728E-01
   7111.00  1.8029590E-01
   7111.33  2.5996749E-01
   7111.67  3.3690346E-01
   7112.00  3.7940058E-01
   7112.33  3.5443867E-01
   7112.67  3.0904403E-01
   7113.00  2.7190113E-01
   7113.33  2.2621031E-01
   7113.67  1.7388137E-01
   7114.00  1.3545228E-01
   7114.33  1.1876234E-01
   7114.67  1.1509230E-01
   7115.00  1.1697934E-01
   7115.33  1.1810486E-01
   7115.67  1.1296307E-01
   7116.00  1.0219839E-01
   7116.33  9.2946560E-02
   7116.67  8.7983049E-02
   7117.00  8.6623342E-02
   7117.33  8.7182976E-02
   7117.67  8.7819861E-02
   7118.00  8.8376834E-02
   7118.33  9.0011817E-02
   7118.67  9.3371293E-02
   7119.00  9.8292171E-02
   7119.33  1.0430460E-01
   7119.67  1.1087745E-01
   7120.00  1.1788853E-01
   7120.33  1.2530366E-01
   7120.67  1.3287632E-01
   7121.00  1.4036961E-01
   7121.33  1.4783874E-01
   7121.67  1.5532562E-01
   7122.00  1.6243689E-01
   7122.33  1.6873921E-01
   7122.67  1.7474325E-01
   7123.00  1.8127161E-01
   7123.33  1.8937785E-01
   7123.67  1.9916279E-01
   7124.00  2.1038100E-01
   7124.33  2.2274074E-01
   7124.67  2.3596013E-01
   7125.00  2.5015406E-01
   7125.33  2.6542740E-01
   7125.67  2.8090801E-01
   7126.00  2.9537309E-01
   7126.33  3.0720742E-01
   7126.67  3.1620495E-01
   7127.00  3.2271172E-01
   7127.33  3.2766816E-01
   7127.67  3.3261612E-01
   7128.00  3.3837562E-01
   7128.33  3.4529595E-01
   7128.67  3.5313089E-01
   7129.00  3.6207617E-01
   7129.33  3.7294873E-01
   7129.67  3.8595771E-01
   7130.00  4.0095549E-01
   7130.33  4.1729880E-01
   7130.67  4.3380803E-01
   7131.00  4.4998169E-01
   7131.33  4.6603515E-01
   7131.67  4.8268292E-01
   7132.00  5.0043281E-01
   7132.33  5.1968382E-01
   7132.67  5.3990347E-01
   7133.00  5.6022889E-01
   7133.33  5.7933757E-01
   7133.67  5.9665811E-01
   7134.00  6.1222355E-01
   7134.33  6.2649823E-01
   7134.67  6.4041373E-01
   7135.00  6.5441253E-01
   7135.33  6.6837179E-01
   7135.67  6.8152899E-01
   7136.00  6.9306216E-01
   7136.33  7.0199372E-01
   7136.67  7.0840249E-01
   7137.00  7.1241615E-01
   7137.33  7.1410823E-01
   7137.67  7.1419049E-01
   7138.00  7.1316093E-01
   7138.33  7.1163893E-01
   7138.67  7.1028746E-01
   7139.00  7.0939916E-01
   7139.33  7.0897160E-01
   7139.67  7.0854131E-01
   7140.00  7.0766599E-01
   7140.33  7.0589743E-01
   7140.67  7.0328444E-01
   7141.00  6.9998826E-01
   7141.33  6.9625681E-01
   7141.67  6.9241614E-01
   7142.00  6.8861918E-01
   7142.33  6.8493612E-01
   7142.67  6.8131330E-01
   7143.00  6.7767697E-01
   7143.33  6.7391957E-01
   7143.67  6.6996212E-01
   7144.00  6.6571854E-01
   7144.33  6.6101754E-01
   7144.67  6.5577572E-01
   7145.00  6.4989414E-01
   7145.33  6.4324376E-01
   7145.67  6.3600076E-01
   7146.00  6.2837853E-01
   7146.33  6.2078448E-01
   7146.67  6.1372917E-01
   7147.00  6.0760064E-01
   7147.33  6.0279126E-01
   7147.67  5.9919159E-01
   7148.00  5.9669299E-01
   7148.33  5.9516192E-01
   7148.67  5.9420316E-01
   7149.00  5.9358484E-01
   7149.33  5.9311235E-01
   7149.67  5.9264873E-01
   7150.00  5.9215834E-01
   7150.33  5.9165227E-01
   7150.67  5.9117841E-01
   7151.00  5.9078696E-01
   7151.33  5.9055353E-01
   7151.67  5.9051084E-01
   7152.00  5.9069304E-01
   7152.33  5.9115954E-01
   7152.67  5.9189245E-01
   7153.00  5.9289082E-01
   7153.33  5.9416735E-01
   7153.67  5.9565144E-01
   7154.00  5.9728973E-01
   7154.33  5.9900430E-01
   7154.67  6.0067532E-01
   7155.00  6.0219223E-01
   7155.33  6.0338401E-01
   7155.67  6.0415980E-01
   7156.00  6.0442827E-01
   7156.33  6.0404094E-01
   7156.67  6.0303259E-01
   7157.00  6.0139942E-01
   7157.33  5.9908922E-01
   7157.67  5.9621974E-01
   7158.00  5.9283448E-01
   7158.33  5.8892545E-01
   7158.67  5.8459635E-01
   7159.00  5.7988279E-01
   7159.33  5.7478362E-01
   7159.67  5.6938896E-01
   7160.00  5.6374692E-01
   7160.33  5.5790654E-01
   7160.67  5.5197667E-01
   7161.00  5.4603191E-01
   7161.33  5.4016098E-01
   7161.67  5.3442346E-01
   7162.00  5.2886140E-01
   7162.33  5.2352359E-01
   7162.67  5.1838161E-01
   7163.00  5.1341677E-01
   7163.33  5.0861860E-01
   7163.67  5.0393766E-01
   7164.00  4.9934735E-01
   7164.33  4.9483377E-01
   7164.67  4.9038274E-01
   7165.00  4.8600558E-01
   7165.33  4.8174665E-01
   7165.67  4.7764016E-01
   7166.00  4.7373575E-01
   7166.33  4.7012915E-01
   7166.67  4.6684925E-01
   7167.00  4.6394406E-01
   7167.33  4.6151160E-01
   7167.67  4.5953059E-01
   7168.00  4.5801493E-01
   7168.33  4.5702361E-01
   7168.67  4.5648368E-01
   7169.00  4.5637161E-01
   7169.33  4.5669810E-01
   7169.67  4.5736734E-01
   7170.00  4.5833340E-01
   7170.33  4.5956754E-01
   7170.67  4.6097580E-01
   7171.00  4.6249606E-01
   7171.33  4.6404124E-01
   7171.67  4.6548014E-01
   7172.00  4.6666354E-01
