    FDMNES
    energy     <xanes>
   7097.00  4.4231047E-03
   7097.33  4.5150222E-03
   7097.67  4.6108861E-03
   7098.00  4.7109629E-03
   7098.33  4.8161654E-03
   7098.67  4.9263077E-03
   7099.00  5.0417547E-03
   7099.33  5.1637038E-03
   7099.67  5.2919677E-03
   7100.00  5.4270610E-03
   7100.33  5.5705980E-03
   7100.67  5.7224114E-03
   7101.00  5.8832507E-03
   7101.33  6.0553652E-03
   7101.67  6.2386538E-03
   7102.00  6.4342511E-03
   7102.33  6.6454173E-03
   7102.67  6.8722201E-03
   7103.00  7.1164590E-03
   7103.33  7.3830916E-03
   7103.67  7.6725891E-03
   7104.00  7.9879723E-03
   7104.33  8.3372435E-03
   7104.67  8.7218426E-03
   7105.00  9.1472174E-03
   7105.33  9.6273029E-03
   7105.67  1.0165989E-02
   7106.00  1.0774056E-02
   7106.33  1.1478326E-02
   7106.67  1.2289500E-02
   7107.00  1.3231770E-02
   7107.33  1.4364445E-02
   7107.67  1.5720243E-02
   7108.00  1.7364266E-02
   7108.33  1.9457572E-02
   7108.67  2.2123435E-02
   7109.00  2.5594402E-02
   7109.33  3.0480347E-02
   7109.67  3.7454497E-02
   7110.00  4.7830280E-02
   7110.33  6.5355527E-02
   7110.67  9.3938178E-02
   7111.00  1.3452405E-01
   7111.33  1.7780073E-01
   7111.67  2.1880142E-01
   7112.00  2.5937316E-01
   7112.33  2.9748825E-01
   7112.67  3.0574638E-01
   7113.00  2.6424535E-01
   7113.33  2.0159702E-01
   7113.67  1.5985867E-01
   7114.00  1.4531499E-01
   7114.33  1.5427669E-01
   7114.67  1.6840913E-01
   7115.00  1.6709043E-01
   7115.33  1.4518297E-01
   7115.67  1.2219729E-01
   7116.00  1.0502517E-01
   7116.33  9.4352954E-02
   7116.67  8.7824963E-02
   7117.00  8.4395651E-02
   7117.33  8.3451193E-02
   7117.67  8.3795269E-02
   7118.00  8.4877730E-02
   7118.33  8.6798314E-02
   7118.67  8.8894111E-02
   7119.00  9.0085123E-02
   7119.33  8.9855284E-02
   7119.67  8.9242009E-02
   7120.00  8.8893489E-02
   7120.33  8.8916887E-02
   7120.67  8.9289472E-02
   7121.00  9.0367169E-02
   7121.33  9.2820768E-02
   7121.67  9.6843626E-02
   7122.00  1.0260313E-01
   7122.33  1.1042957E-01
   7122.67  1.2010282E-01
   7123.00  1.3157939E-01
   7123.33  1.4501105E-01
   7123.67  1.6005767E-01
   7124.00  1.7646153E-01
   7124.33  1.9373501E-01
   7124.67  2.1090177E-01
   7125.00  2.2708670E-01
   7125.33  2.4104039E-01
   7125.67  2.5234894E-01
   7126.00  2.6116067E-01
   7126.33  2.6849845E-01
   7126.67  2.7617695E-01
   7127.00  2.8534013E-01
   7127.33  2.9696181E-01
   7127.67  3.1088193E-01
   7128.00  3.2689054E-01
   7128.33  3.4474296E-01
   7128.67  3.6365801E-01
   7129.00  3.8308184E-01
   7129.33  4.0228783E-01
   7129.67  4.2064446E-01
   7130.00  4.3780175E-01
   7130.33  4.5358047E-01
   7130.67  4.6846197E-01
   7131.00  4.8291347E-01
   7131.33  4.9750135E-01
   7131.67  5.1253836E-01
   7132.00  5.2810375E-01
   7132.33  5.4428849E-01
   7132.67  5.6115206E-01
   7133.00  5.7894016E-01
   7133.33  5.9819722E-01
   7133.67  6.1911102E-01
   7134.00  6.4184269E-01
   7134.33  6.6649430E-01
   7134.67  6.9229365E-01
   7135.00  7.1834953E-01
   7135.33  7.4304786E-01
   7135.67  7.6482077E-01
   7136.00  7.8220705E-01
   7136.33  7.9301987E-01
   7136.67  7.9699754E-01
   7137.00  7.9381105E-01
   7137.33  7.8300519E-01
   7137.67  7.6669152E-01
   7138.00  7.4649920E-01
   7138.33  7.2435153E-01
   7138.67  7.0242893E-01
   7139.00  6.8202996E-01
   7139.33  6.6442910E-01
   7139.67  6.4974003E-01
   7140.00  6.3799441E-01
   7140.33  6.2931120E-01
   7140.67  6.2296693E-01
   7141.00  6.1857407E-01
   7141.33  6.1585550E-01
   7141.67  6.1418867E-01
   7142.00  6.1322843E-01
   7142.33  6.1261401E-01
   7142.67  6.1191599E-01
   7143.00  6.1083547E-01
   7143.33  6.0899028E-01
   7143.67  6.0622391E-01
   7144.00  6.0237975E-01
   7144.33  5.9720028E-01
   7144.67  5.9082421E-01
   7145.00  5.8333750E-01
   7145.33  5.7484601E-01
   7145.67  5.6579592E-01
   7146.00  5.5654399E-01
   7146.33  5.4756911E-01
   7146.67  5.3926832E-01
   7147.00  5.3195218E-01
   7147.33  5.2603015E-01
   7147.67  5.2146595E-01
   7148.00  5.1824959E-01
   7148.33  5.1642813E-01
   7148.67  5.1569229E-01
   7149.00  5.1590440E-01
   7149.33  5.1701588E-01
   7149.67  5.1879853E-01
   7150.00  5.2116027E-01
   7150.33  5.2407563E-01
   7150.67  5.2741523E-01
   7151.00  5.3113344E-01
   7151.33  5.3523114E-01
   7151.67  5.3963470E-01
   7152.00  5.4432277E-01
   7152.33  5.4930777E-01
   7152.67  5.5453787E-01
   7153.00  5.5999596E-01
   7153.33  5.6568424E-01
   7153.67  5.7154768E-01
   7154.00  5.7755485E-01
   7154.33  5.8367510E-01
   7154.67  5.8984586E-01
   7155.00  5.9601957E-01
   7155.33  6.0212956E-01
   7155.67  6.0811930E-01
   7156.00  6.1393189E-01
   7156.33  6.1946929E-01
   7156.67  6.2469447E-01
   7157.00  6.2955121E-01
   7157.33  6.3392550E-01
   7157.67  6.3781832E-01
   7158.00  6.4119207E-01
   7158.33  6.4394403E-01
   7158.67  6.4612148E-01
   7159.00  6.4771486E-01
   7159.33  6.4864954E-01
   7159.67  6.4900549E-01
   7160.00  6.4879285E-01
   7160.33  6.4795825E-01
   7160.67  6.4659372E-01
   7161.00  6.4472426E-01
   7161.33  6.4231660E-01
   7161.67  6.3945335E-01
   7162.00  6.3615519E-01
   7162.33  6.3239815E-01
   7162.67  6.2826409E-01
   7163.00  6.2378318E-01
   7163.33  6.1895671E-01
   7163.67  6.1386831E-01
   7164.00  6.0856094E-01
   7164.33  6.0306955E-01
   7164.67  5.9748287E-01
   7165.00  5.9187210E-01
   7165.33  5.8632872E-01
   7165.67  5.8092841E-01
   7166.00  5.7574270E-01
   7166.33  5.7088765E-01
   7166.67  5.6639652E-01
   7167.00  5.6231872E-01
   7167.33  5.5875264E-01
   7167.67  5.5566605E-01
   7168.00  5.5307214E-01
   7168.33  5.5103409E-01
   7168.67  5.4946942E-01
   7169.00  5.4834926E-01
   7169.33  5.4768231E-01
   7169.67  5.4737013E-01
   7170.00  5.4736772E-01
   7170.33  5.4765088E-01
   7170.67  5.4812839E-01
   7171.00  5.4874532E-01
   7171.33  5.4943731E-01
   7171.67  5.5010557E-01
   7172.00  5.5065640E-01
