    FDMNES
    energy     <xanes>
   7097.00  4.2696011E-03
   7097.33  4.3628940E-03
   7097.67  4.4603032E-03
   7098.00  4.5621164E-03
   7098.33  4.6693030E-03
   7098.67  4.7816839E-03
   7099.00  4.8996587E-03
   7099.33  5.0245150E-03
   7099.67  5.1560809E-03
   7100.00  5.2949300E-03
   7100.33  5.4428253E-03
   7100.67  5.5996324E-03
   7101.00  5.7662038E-03
   7101.33  5.9450446E-03
   7101.67  6.1361228E-03
   7102.00  6.3407606E-03
   7102.33  6.5626777E-03
   7102.67  6.8020898E-03
   7103.00  7.0611554E-03
   7103.33  7.3457004E-03
   7103.67  7.6565254E-03
   7104.00  7.9973809E-03
   7104.33  8.3780143E-03
   7104.67  8.8006445E-03
   7105.00  9.2723155E-03
   7105.33  9.8107585E-03
   7105.67  1.0421861E-02
   7106.00  1.1120250E-02
   7106.33  1.1941905E-02
   7106.67  1.2903268E-02
   7107.00  1.4039093E-02
   7107.33  1.5434153E-02
   7107.67  1.7140557E-02
   7108.00  1.9258288E-02
   7108.33  2.2035483E-02
   7108.67  2.5678605E-02
   7109.00  3.0572338E-02
   7109.33  3.7736312E-02
   7109.67  4.8360738E-02
   7110.00  6.4773891E-02
   7110.33  9.3745550E-02
   7110.67  1.4317552E-01
   7111.00  2.1816344E-01
   7111.33  3.0389369E-01
   7111.67  3.4985744E-01
   7112.00  3.2123371E-01
   7112.33  2.4922201E-01
   7112.67  1.8378168E-01
   7113.00  1.3886599E-01
   7113.33  1.1367261E-01
   7113.67  9.9893395E-02
   7114.00  9.3715768E-02
   7114.33  8.8518076E-02
   7114.67  7.9093876E-02
   7115.00  7.0310479E-02
   7115.33  6.4054903E-02
   7115.67  5.6603555E-02
   7116.00  4.9533196E-02
   7116.33  4.4751726E-02
   7116.67  4.1353125E-02
   7117.00  3.8860363E-02
   7117.33  3.7235783E-02
   7117.67  3.6325193E-02
   7118.00  3.6039136E-02
   7118.33  3.6336819E-02
   7118.67  3.7084952E-02
   7119.00  3.8244242E-02
   7119.33  3.9799387E-02
   7119.67  4.1635128E-02
   7120.00  4.3729428E-02
   7120.33  4.6201697E-02
   7120.67  4.9178902E-02
   7121.00  5.2838027E-02
   7121.33  5.7519453E-02
   7121.67  6.3358220E-02
   7122.00  7.0599331E-02
   7122.33  7.9856996E-02
   7122.67  9.1488666E-02
   7123.00  1.0614533E-01
   7123.33  1.2490237E-01
   7123.67  1.4651554E-01
   7124.00  1.6807059E-01
   7124.33  1.8701796E-01
   7124.67  2.0718087E-01
   7125.00  2.3230837E-01
   7125.33  2.6433532E-01
   7125.67  3.0168158E-01
   7126.00  3.4358966E-01
   7126.33  3.8952939E-01
   7126.67  4.3656118E-01
   7127.00  4.8079929E-01
   7127.33  5.1653541E-01
   7127.67  5.4264304E-01
   7128.00  5.5992396E-01
   7128.33  5.7032917E-01
   7128.67  5.7872594E-01
   7129.00  5.8901250E-01
   7129.33  6.0493821E-01
   7129.67  6.2630579E-01
   7130.00  6.5181322E-01
   7130.33  6.7981265E-01
   7130.67  7.0880776E-01
   7131.00  7.3844497E-01
   7131.33  7.6839677E-01
   7131.67  7.9718294E-01
   7132.00  8.2199830E-01
   7132.33  8.3726901E-01
   7132.67  8.4126467E-01
   7133.00  8.3518678E-01
   7133.33  8.2289516E-01
   7133.67  8.0976581E-01
   7134.00  7.9839253E-01
   7134.33  7.9073387E-01
   7134.67  7.8702662E-01
   7135.00  7.8731429E-01
   7135.33  7.9168806E-01
   7135.67  7.9884379E-01
   7136.00  8.0744319E-01
   7136.33  8.1533357E-01
   7136.67  8.2065784E-01
   7137.00  8.2236179E-01
   7137.33  8.1961687E-01
   7137.67  8.1334518E-01
   7138.00  8.0424169E-01
   7138.33  7.9295458E-01
   7138.67  7.8051673E-01
   7139.00  7.6745875E-01
   7139.33  7.5419440E-01
   7139.67  7.4101632E-01
   7140.00  7.2805528E-01
   7140.33  7.1542162E-01
   7140.67  7.0310556E-01
   7141.00  6.9111654E-01
   7141.33  6.7951331E-01
   7141.67  6.6828965E-01
   7142.00  6.5749862E-01
   7142.33  6.4727880E-01
   7142.67  6.3764511E-01
   7143.00  6.2867290E-01
   7143.33  6.2055499E-01
   7143.67  6.1329884E-01
   7144.00  6.0699143E-01
   7144.33  6.0186326E-01
   7144.67  5.9790090E-01
   7145.00  5.9522248E-01
   7145.33  5.9409873E-01
   7145.67  5.9440202E-01
   7146.00  5.9612463E-01
   7146.33  5.9933770E-01
   7146.67  6.0365667E-01
   7147.00  6.0878334E-01
   7147.33  6.1430538E-01
   7147.67  6.1966360E-01
   7148.00  6.2443358E-01
   7148.33  6.2809650E-01
   7148.67  6.3052358E-01
   7149.00  6.3160980E-01
   7149.33  6.3117371E-01
   7149.67  6.2945652E-01
   7150.00  6.2655687E-01
   7150.33  6.2246790E-01
   7150.67  6.1743149E-01
   7151.00  6.1151993E-01
   7151.33  6.0469510E-01
   7151.67  5.9709952E-01
   7152.00  5.8874289E-01
   7152.33  5.7951832E-01
   7152.67  5.6950089E-01
   7153.00  5.5867273E-01
   7153.33  5.4691373E-01
   7153.67  5.3431746E-01
   7154.00  5.2088733E-01
   7154.33  5.0655236E-01
   7154.67  4.9147977E-01
   7155.00  4.7575550E-01
   7155.33  4.5944706E-01
   7155.67  4.4278704E-01
   7156.00  4.2594490E-01
   7156.33  4.0914515E-01
   7156.67  3.9261965E-01
   7157.00  3.7657703E-01
   7157.33  3.6134328E-01
   7157.67  3.4704556E-01
   7158.00  3.3384759E-01
   7158.33  3.2206252E-01
   7158.67  3.1164938E-01
   7159.00  3.0267571E-01
   7159.33  2.9536408E-01
   7159.67  2.8952520E-01
   7160.00  2.8512355E-01
   7160.33  2.8225688E-01
   7160.67  2.8065727E-01
   7161.00  2.8022796E-01
   7161.33  2.8097526E-01
   7161.67  2.8263134E-01
   7162.00  2.8507536E-01
   7162.33  2.8824618E-01
   7162.67  2.9192022E-01
   7163.00  2.9598755E-01
   7163.33  3.0036484E-01
   7163.67  3.0490657E-01
   7164.00  3.0952414E-01
   7164.33  3.1412370E-01
   7164.67  3.1863077E-01
   7165.00  3.2299340E-01
   7165.33  3.2714500E-01
   7165.67  3.3108512E-01
   7166.00  3.3480761E-01
   7166.33  3.3829341E-01
   7166.67  3.4158777E-01
   7167.00  3.4471338E-01
   7167.33  3.4768435E-01
   7167.67  3.5055180E-01
   7168.00  3.5334529E-01
   7168.33  3.5609171E-01
   7168.67  3.5882444E-01
   7169.00  3.6156519E-01
   7169.33  3.6433974E-01
   7169.67  3.6716028E-01
   7170.00  3.7003354E-01
   7170.33  3.7296319E-01
   7170.67  3.7592403E-01
   7171.00  3.7887968E-01
   7171.33  3.8173699E-01
   7171.67  3.8435070E-01
   7172.00  3.8651526E-01
