    FDMNES
    energy     <xanes>
   7097.00  4.2572748E-03
   7097.33  4.3500352E-03
   7097.67  4.4468780E-03
   7098.00  4.5480881E-03
   7098.33  4.6546263E-03
   7098.67  4.7663142E-03
   7099.00  4.8835477E-03
   7099.33  5.0076023E-03
   7099.67  5.1383072E-03
   7100.00  5.2762298E-03
   7100.33  5.4231168E-03
   7100.67  5.5788341E-03
   7101.00  5.7442252E-03
   7101.33  5.9217714E-03
   7101.67  6.1114397E-03
   7102.00  6.3145390E-03
   7102.33  6.5347525E-03
   7102.67  6.7722925E-03
   7103.00  7.0292961E-03
   7103.33  7.3115312E-03
   7103.67  7.6197899E-03
   7104.00  7.9577854E-03
   7104.33  8.3351694E-03
   7104.67  8.7541390E-03
   7105.00  9.2216706E-03
   7105.33  9.7553245E-03
   7105.67  1.0360936E-02
   7106.00  1.1052997E-02
   7106.33  1.1867157E-02
   7106.67  1.2819723E-02
   7107.00  1.3945154E-02
   7107.33  1.5327509E-02
   7107.67  1.7018522E-02
   7108.00  1.9117438E-02
   7108.33  2.1870613E-02
   7108.67  2.5483333E-02
   7109.00  3.0338113E-02
   7109.33  3.7449302E-02
   7109.67  4.8002900E-02
   7110.00  6.4319909E-02
   7110.33  9.3154148E-02
   7110.67  1.4240069E-01
   7111.00  2.1709302E-01
   7111.33  3.0126871E-01
   7111.67  3.4429217E-01
   7112.00  3.1479668E-01
   7112.33  2.4433544E-01
   7112.67  1.8076829E-01
   7113.00  1.3721672E-01
   7113.33  1.1266737E-01
   7113.67  9.9183179E-02
   7114.00  9.3239804E-02
   7114.33  8.8346443E-02
   7114.67  7.9109147E-02
   7115.00  7.0406681E-02
   7115.33  6.4146527E-02
   7115.67  5.6604730E-02
   7116.00  4.9430571E-02
   7116.33  4.4561646E-02
   7116.67  4.1103849E-02
   7117.00  3.8588664E-02
   7117.33  3.6969021E-02
   7117.67  3.6069225E-02
   7118.00  3.5791486E-02
   7118.33  3.6092973E-02
   7118.67  3.6842135E-02
   7119.00  3.7999419E-02
   7119.33  3.9547419E-02
   7119.67  4.1371757E-02
   7120.00  4.3453101E-02
   7120.33  4.5913724E-02
   7120.67  4.8879692E-02
   7121.00  5.2525274E-02
   7121.33  5.7185087E-02
   7121.67  6.2987312E-02
   7122.00  7.0167877E-02
   7122.33  7.9320243E-02
   7122.67  9.0776167E-02
   7123.00  1.0515703E-01
   7123.33  1.2356408E-01
   7123.67  1.4499063E-01
   7124.00  1.6681434E-01
   7124.33  1.8630296E-01
   7124.67  2.0678379E-01
   7125.00  2.3206085E-01
   7125.33  2.6421925E-01
   7125.67  3.0167111E-01
   7126.00  3.4360564E-01
   7126.33  3.8941080E-01
   7126.67  4.3606909E-01
   7127.00  4.7963195E-01
   7127.33  5.1441057E-01
   7127.67  5.3941341E-01
   7128.00  5.5551354E-01
   7128.33  5.6483480E-01
   7128.67  5.7244952E-01
   7129.00  5.8230912E-01
   7129.33  5.9808711E-01
   7129.67  6.1947821E-01
   7130.00  6.4520466E-01
   7130.33  6.7373561E-01
   7130.67  7.0364510E-01
   7131.00  7.3465622E-01
   7131.33  7.6644355E-01
   7131.67  7.9716488E-01
   7132.00  8.2362868E-01
   7132.33  8.3988177E-01
   7132.67  8.4425312E-01
   7133.00  8.3808256E-01
   7133.33  8.2537978E-01
   7133.67  8.1168944E-01
   7134.00  7.9968850E-01
   7134.33  7.9146061E-01
   7134.67  7.8735569E-01
   7135.00  7.8745316E-01
   7135.33  7.9180588E-01
   7135.67  7.9898153E-01
   7136.00  8.0757041E-01
   7136.33  8.1539948E-01
   7136.67  8.2065616E-01
   7137.00  8.2232567E-01
   7137.33  8.1960956E-01
   7137.67  8.1341860E-01
   7138.00  8.0443180E-01
   7138.33  7.9327881E-01
   7138.67  7.8097501E-01
   7139.00  7.6804360E-01
   7139.33  7.5489418E-01
   7139.67  7.4182183E-01
   7140.00  7.2895998E-01
   7140.33  7.1642211E-01
   7140.67  7.0420177E-01
   7141.00  6.9230988E-01
   7141.33  6.8080578E-01
   7141.67  6.6968213E-01
   7142.00  6.5899071E-01
   7142.33  6.4886881E-01
   7142.67  6.3933066E-01
   7143.00  6.3045116E-01
   7143.33  6.2242304E-01
   7143.67  6.1525516E-01
   7144.00  6.0903596E-01
   7144.33  6.0399816E-01
   7144.67  6.0012988E-01
   7145.00  5.9755025E-01
   7145.33  5.9653096E-01
   7145.67  5.9694272E-01
   7146.00  5.9877542E-01
   7146.33  6.0209488E-01
   7146.67  6.0651006E-01
   7147.00  6.1171566E-01
   7147.33  6.1728775E-01
   7147.67  6.2266366E-01
   7148.00  6.2741659E-01
   7148.33  6.3102443E-01
   7148.67  6.3336347E-01
   7149.00  6.3433150E-01
   7149.33  6.3374952E-01
   7149.67  6.3186781E-01
   7150.00  6.2878944E-01
   7150.33  6.2450893E-01
   7150.67  6.1927328E-01
   7151.00  6.1316282E-01
   7151.33  6.0615136E-01
   7151.67  5.9838174E-01
   7152.00  5.8986648E-01
   7152.33  5.8050830E-01
   7152.67  5.7038628E-01
   7153.00  5.5948734E-01
   7153.33  5.4769942E-01
   7153.67  5.3511006E-01
   7154.00  5.2171922E-01
   7154.33  5.0745637E-01
   7154.67  4.9247674E-01
   7155.00  4.7685589E-01
   7155.33  4.6064779E-01
   7155.67  4.4407277E-01
   7156.00  4.2729128E-01
   7156.33  4.1051613E-01
   7156.67  3.9397907E-01
   7157.00  3.7788801E-01
   7157.33  3.6256639E-01
   7157.67  3.4814941E-01
   7158.00  3.3480482E-01
   7158.33  3.2284829E-01
   7158.67  3.1224746E-01
   7159.00  3.0307609E-01
   7159.33  2.9556660E-01
   7159.67  2.8953964E-01
   7160.00  2.8496711E-01
   7160.33  2.8195938E-01
   7160.67  2.8025378E-01
   7161.00  2.7975910E-01
   7161.33  2.8049085E-01
   7161.67  2.8217567E-01
   7162.00  2.8468975E-01
   7162.33  2.8796962E-01
   7162.67  2.9177804E-01
   7163.00  2.9599592E-01
   7163.33  3.0052980E-01
   7163.67  3.0522381E-01
   7164.00  3.0998273E-01
   7164.33  3.1470543E-01
   7164.67  3.1931677E-01
   7165.00  3.2376438E-01
   7165.33  3.2798009E-01
   7165.67  3.3196700E-01
   7166.00  3.3572003E-01
   7166.33  3.3921934E-01
   7166.67  3.4251285E-01
   7167.00  3.4562372E-01
   7167.33  3.4856490E-01
   7167.67  3.5138975E-01
   7168.00  3.5412852E-01
   7168.33  3.5680813E-01
   7168.67  3.5946504E-01
   7169.00  3.6212257E-01
   7169.33  3.6480804E-01
   7169.67  3.6753677E-01
   7170.00  3.7031762E-01
   7170.33  3.7315682E-01
   7170.67  3.7603113E-01
   7171.00  3.7890599E-01
   7171.33  3.8169138E-01
   7171.67  3.8424354E-01
   7172.00  3.8635952E-01
