    FDMNES
    energy     <xanes>
   7097.00  5.1120096E-03
   7097.33  5.2339414E-03
   7097.67  5.3614789E-03
   7098.00  5.4950069E-03
   7098.33  5.6358321E-03
   7098.67  5.7836967E-03
   7099.00  5.9391267E-03
   7099.33  6.1038368E-03
   7099.67  6.2775653E-03
   7100.00  6.4610509E-03
   7100.33  6.6566032E-03
   7100.67  6.8639842E-03
   7101.00  7.0842638E-03
   7101.33  7.3206512E-03
   7101.67  7.5729929E-03
   7102.00  7.8428965E-03
   7102.33  8.1349898E-03
   7102.67  8.4493386E-03
   7103.00  8.7884677E-03
   7103.33  9.1593590E-03
   7103.67  9.5626024E-03
   7104.00  1.0002384E-02
   7104.33  1.0489846E-02
   7104.67  1.1026829E-02
   7105.00  1.1620761E-02
   7105.33  1.2290738E-02
   7105.67  1.3041722E-02
   7106.00  1.3888105E-02
   7106.33  1.4865845E-02
   7106.67  1.5988386E-02
   7107.00  1.7287124E-02
   7107.33  1.8839122E-02
   7107.67  2.0684349E-02
   7108.00  2.2903881E-02
   7108.33  2.5697436E-02
   7108.67  2.9208376E-02
   7109.00  3.3708254E-02
   7109.33  3.9897952E-02
   7109.67  4.8498079E-02
   7110.00  6.0899868E-02
   7110.33  8.1059947E-02
   7110.67  1.1378633E-01
   7111.00  1.6437252E-01
   7111.33  2.3278739E-01
   7111.67  3.0414597E-01
   7112.00  3.6259818E-01
   7112.33  4.0711444E-01
   7112.67  4.4741696E-01
   7113.00  4.4996917E-01
   7113.33  3.7192518E-01
   7113.67  2.7927318E-01
   7114.00  2.1436169E-01
   7114.33  1.8411190E-01
   7114.67  1.7779170E-01
   7115.00  1.9344752E-01
   7115.33  2.3372915E-01
   7115.67  2.8641175E-01
   7116.00  3.2449430E-01
   7116.33  3.1372484E-01
   7116.67  2.7382682E-01
   7117.00  2.2979758E-01
   7117.33  1.9593712E-01
   7117.67  1.7209773E-01
   7118.00  1.5623385E-01
   7118.33  1.4636361E-01
   7118.67  1.3973999E-01
   7119.00  1.3493691E-01
   7119.33  1.3098234E-01
   7119.67  1.2779042E-01
   7120.00  1.2549619E-01
   7120.33  1.2382206E-01
   7120.67  1.2308118E-01
   7121.00  1.2432754E-01
   7121.33  1.2872415E-01
   7121.67  1.3587486E-01
   7122.00  1.4520013E-01
   7122.33  1.5613711E-01
   7122.67  1.6818975E-01
   7123.00  1.8126731E-01
   7123.33  1.9511268E-01
   7123.67  2.0894958E-01
   7124.00  2.2215934E-01
   7124.33  2.3427432E-01
   7124.67  2.4561641E-01
   7125.00  2.5668140E-01
   7125.33  2.6830830E-01
   7125.67  2.8134933E-01
   7126.00  2.9654565E-01
   7126.33  3.1473008E-01
   7126.67  3.3565056E-01
   7127.00  3.5935523E-01
   7127.33  3.8665661E-01
   7127.67  4.1761223E-01
   7128.00  4.5191892E-01
   7128.33  4.8814646E-01
   7128.67  5.2386717E-01
   7129.00  5.5791773E-01
   7129.33  5.9034341E-01
   7129.67  6.2281573E-01
   7130.00  6.5697553E-01
   7130.33  6.9511013E-01
   7130.67  7.3795458E-01
   7131.00  7.8510058E-01
   7131.33  8.3357114E-01
   7131.67  8.7769401E-01
   7132.00  9.1262065E-01
   7132.33  9.3365908E-01
   7132.67  9.4293193E-01
   7133.00  9.4307839E-01
   7133.33  9.3703210E-01
   7133.67  9.2834425E-01
   7134.00  9.1843594E-01
   7134.33  9.0741975E-01
   7134.67  8.9426252E-01
   7135.00  8.7751621E-01
   7135.33  8.5551275E-01
   7135.67  8.2892889E-01
   7136.00  7.9854525E-01
   7136.33  7.6524751E-01
   7136.67  7.3067322E-01
   7137.00  6.9598855E-01
   7137.33  6.6265939E-01
   7137.67  6.3167753E-01
   7138.00  6.0381315E-01
   7138.33  5.8015260E-01
   7138.67  5.6053791E-01
   7139.00  5.4500169E-01
   7139.33  5.3383123E-01
   7139.67  5.2612108E-01
   7140.00  5.2138603E-01
   7140.33  5.1931819E-01
   7140.67  5.1909017E-01
   7141.00  5.2036498E-01
   7141.33  5.2305768E-01
   7141.67  5.2689082E-01
   7142.00  5.3180573E-01
   7142.33  5.3783086E-01
   7142.67  5.4463473E-01
   7143.00  5.5188563E-01
   7143.33  5.5894742E-01
   7143.67  5.6499284E-01
   7144.00  5.6919377E-01
   7144.33  5.7034113E-01
   7144.67  5.6828388E-01
   7145.00  5.6307074E-01
   7145.33  5.5496948E-01
   7145.67  5.4525023E-01
   7146.00  5.3483337E-01
   7146.33  5.2474725E-01
   7146.67  5.1569256E-01
   7147.00  5.0807492E-01
   7147.33  5.0234343E-01
   7147.67  4.9830310E-01
   7148.00  4.9585591E-01
   7148.33  4.9500737E-01
   7148.67  4.9538099E-01
   7149.00  4.9680030E-01
   7149.33  4.9916571E-01
   7149.67  5.0217662E-01
   7150.00  5.0567866E-01
   7150.33  5.0955459E-01
   7150.67  5.1363604E-01
   7151.00  5.1784474E-01
   7151.33  5.2213612E-01
   7151.67  5.2648662E-01
   7152.00  5.3091211E-01
   7152.33  5.3547120E-01
   7152.67  5.4020666E-01
   7153.00  5.4516552E-01
   7153.33  5.5041995E-01
   7153.67  5.5594821E-01
   7154.00  5.6173022E-01
   7154.33  5.6772903E-01
   7154.67  5.7382101E-01
   7155.00  5.7989551E-01
   7155.33  5.8578369E-01
   7155.67  5.9134922E-01
   7156.00  5.9645996E-01
   7156.33  6.0090225E-01
   7156.67  6.0463591E-01
   7157.00  6.0758734E-01
   7157.33  6.0959769E-01
   7157.67  6.1075072E-01
   7158.00  6.1105256E-01
   7158.33  6.1042926E-01
   7158.67  6.0902928E-01
   7159.00  6.0690079E-01
   7159.33  6.0402217E-01
   7159.67  6.0054018E-01
   7160.00  5.9650817E-01
   7160.33  5.9192315E-01
   7160.67  5.8689904E-01
   7161.00  5.8147872E-01
   7161.33  5.7566565E-01
   7161.67  5.6954354E-01
   7162.00  5.6314319E-01
   7162.33  5.5646805E-01
   7162.67  5.4958177E-01
   7163.00  5.4251287E-01
   7163.33  5.3527895E-01
   7163.67  5.2793922E-01
   7164.00  5.2053378E-01
   7164.33  5.1311300E-01
   7164.67  5.0573565E-01
   7165.00  4.9845484E-01
   7165.33  4.9135451E-01
   7165.67  4.8447787E-01
   7166.00  4.7787622E-01
   7166.33  4.7163988E-01
   7166.67  4.6576469E-01
   7167.00  4.6027052E-01
   7167.33  4.5521489E-01
   7167.67  4.5054317E-01
   7168.00  4.4624043E-01
   7168.33  4.4232366E-01
   7168.67  4.3871841E-01
   7169.00  4.3539515E-01
   7169.33  4.3234847E-01
   7169.67  4.2951112E-01
   7170.00  4.2685660E-01
   7170.33  4.2438316E-01
   7170.67  4.2205838E-01
   7171.00  4.1988300E-01
   7171.33  4.1790070E-01
   7171.67  4.1614870E-01
   7172.00  4.1470973E-01
