    FDMNES
    energy     <xanes>
   7097.00  5.0748260E-03
   7097.33  5.1946271E-03
   7097.67  5.3198960E-03
   7098.00  5.4510064E-03
   7098.33  5.5892296E-03
   7098.67  5.7343117E-03
   7099.00  5.8867627E-03
   7099.33  6.0482490E-03
   7099.67  6.2185123E-03
   7100.00  6.3982679E-03
   7100.33  6.5897578E-03
   7100.67  6.7927455E-03
   7101.00  7.0082660E-03
   7101.33  7.2394304E-03
   7101.67  7.4860823E-03
   7102.00  7.7497754E-03
   7102.33  8.0349898E-03
   7102.67  8.3417788E-03
   7103.00  8.6725797E-03
   7103.33  9.0341423E-03
   7103.67  9.4270223E-03
   7104.00  9.8552566E-03
   7104.33  1.0329602E-02
   7104.67  1.0851815E-02
   7105.00  1.1429053E-02
   7105.33  1.2079732E-02
   7105.67  1.2808607E-02
   7106.00  1.3629540E-02
   7106.33  1.4577185E-02
   7106.67  1.5664474E-02
   7107.00  1.6921665E-02
   7107.33  1.8423078E-02
   7107.67  2.0207345E-02
   7108.00  2.2352887E-02
   7108.33  2.5053157E-02
   7108.67  2.8448164E-02
   7109.00  3.2803567E-02
   7109.33  3.8808241E-02
   7109.67  4.7182916E-02
   7110.00  5.9325258E-02
   7110.33  7.9203404E-02
   7110.67  1.1127064E-01
   7111.00  1.5869152E-01
   7111.33  2.1657228E-01
   7111.67  2.7868809E-01
   7112.00  3.3835246E-01
   7112.33  3.8807820E-01
   7112.67  4.4108103E-01
   7113.00  4.5181010E-01
   7113.33  3.7237731E-01
   7113.67  2.7892521E-01
   7114.00  2.1385397E-01
   7114.33  1.8659622E-01
   7114.67  1.8729402E-01
   7115.00  2.1140945E-01
   7115.33  2.4875915E-01
   7115.67  2.8228498E-01
   7116.00  3.0124447E-01
   7116.33  2.8202242E-01
   7116.67  2.3843506E-01
   7117.00  1.9622874E-01
   7117.33  1.6857630E-01
   7117.67  1.5167184E-01
   7118.00  1.4149678E-01
   7118.33  1.3563117E-01
   7118.67  1.3264555E-01
   7119.00  1.3170588E-01
   7119.33  1.3296838E-01
   7119.67  1.3710487E-01
   7120.00  1.4302096E-01
   7120.33  1.4622026E-01
   7120.67  1.4566716E-01
   7121.00  1.4417041E-01
   7121.33  1.4425879E-01
   7121.67  1.4622864E-01
   7122.00  1.5062585E-01
   7122.33  1.5887068E-01
   7122.67  1.7144688E-01
   7123.00  1.8862348E-01
   7123.33  2.1021885E-01
   7123.67  2.3380413E-01
   7124.00  2.5676460E-01
   7124.33  2.7536713E-01
   7124.67  2.8847676E-01
   7125.00  2.9678939E-01
   7125.33  3.0185460E-01
   7125.67  3.0585985E-01
   7126.00  3.1047489E-01
   7126.33  3.1832937E-01
   7126.67  3.3117512E-01
   7127.00  3.5015064E-01
   7127.33  3.7610997E-01
   7127.67  4.0670189E-01
   7128.00  4.3913073E-01
   7128.33  4.6870747E-01
   7128.67  4.9246385E-01
   7129.00  5.1055474E-01
   7129.33  5.2642694E-01
   7129.67  5.4571018E-01
   7130.00  5.7278939E-01
   7130.33  6.1226901E-01
   7130.67  6.6236398E-01
   7131.00  7.1921800E-01
   7131.33  7.7568926E-01
   7131.67  8.2536938E-01
   7132.00  8.6573146E-01
   7132.33  8.9689424E-01
   7132.67  9.2329406E-01
   7133.00  9.4728063E-01
   7133.33  9.6868322E-01
   7133.67  9.8470260E-01
   7134.00  9.9098426E-01
   7134.33  9.8185423E-01
   7134.67  9.5953712E-01
   7135.00  9.2717533E-01
   7135.33  8.8757502E-01
   7135.67  8.4450167E-01
   7136.00  8.0038715E-01
   7136.33  7.5797635E-01
   7136.67  7.1885256E-01
   7137.00  6.8372772E-01
   7137.33  6.5315508E-01
   7137.67  6.2624203E-01
   7138.00  6.0263642E-01
   7138.33  5.8250769E-01
   7138.67  5.6544110E-01
   7139.00  5.5143126E-01
   7139.33  5.4072993E-01
   7139.67  5.3269453E-01
   7140.00  5.2698234E-01
   7140.33  5.2337605E-01
   7140.67  5.2123240E-01
   7141.00  5.2029696E-01
   7141.33  5.2052769E-01
   7141.67  5.2169183E-01
   7142.00  5.2366802E-01
   7142.33  5.2624748E-01
   7142.67  5.2891516E-01
   7143.00  5.3120213E-01
   7143.33  5.3248587E-01
   7143.67  5.3253251E-01
   7144.00  5.3121946E-01
   7144.33  5.2841412E-01
   7144.67  5.2445983E-01
   7145.00  5.1960788E-01
   7145.33  5.1419417E-01
   7145.67  5.0874521E-01
   7146.00  5.0366515E-01
   7146.33  4.9949322E-01
   7146.67  4.9647107E-01
   7147.00  4.9474619E-01
   7147.33  4.9445198E-01
   7147.67  4.9524211E-01
   7148.00  4.9689740E-01
   7148.33  4.9923189E-01
   7148.67  5.0194202E-01
   7149.00  5.0487646E-01
   7149.33  5.0792813E-01
   7149.67  5.1102025E-01
   7150.00  5.1413370E-01
   7150.33  5.1729120E-01
   7150.67  5.2054748E-01
   7151.00  5.2397293E-01
   7151.33  5.2768778E-01
   7151.67  5.3173762E-01
   7152.00  5.3616828E-01
   7152.33  5.4104833E-01
   7152.67  5.4630231E-01
   7153.00  5.5187054E-01
   7153.33  5.5766862E-01
   7153.67  5.6352997E-01
   7154.00  5.6932077E-01
   7154.33  5.7485723E-01
   7154.67  5.8002775E-01
   7155.00  5.8473448E-01
   7155.33  5.8882760E-01
   7155.67  5.9232950E-01
   7156.00  5.9522705E-01
   7156.33  5.9745533E-01
   7156.67  5.9911609E-01
   7157.00  6.0023947E-01
   7157.33  6.0079734E-01
   7157.67  6.0087996E-01
   7158.00  6.0050108E-01
   7158.33  5.9960585E-01
   7158.67  5.9824028E-01
   7159.00  5.9638656E-01
   7159.33  5.9395656E-01
   7159.67  5.9099439E-01
   7160.00  5.8749337E-01
   7160.33  5.8339898E-01
   7160.67  5.7881073E-01
   7161.00  5.7377402E-01
   7161.33  5.6831520E-01
   7161.67  5.6257609E-01
   7162.00  5.5664671E-01
   7162.33  5.5061991E-01
   7162.67  5.4459969E-01
   7163.00  5.3864991E-01
   7163.33  5.3283959E-01
   7163.67  5.2718433E-01
   7164.00  5.2169346E-01
   7164.33  5.1637946E-01
   7164.67  5.1120167E-01
   7165.00  5.0613755E-01
   7165.33  5.0117303E-01
   7165.67  4.9628019E-01
   7166.00  4.9145537E-01
   7166.33  4.8671628E-01
   7166.67  4.8207281E-01
   7167.00  4.7754778E-01
   7167.33  4.7318787E-01
   7167.67  4.6900003E-01
   7168.00  4.6500084E-01
   7168.33  4.6122665E-01
   7168.67  4.5765429E-01
   7169.00  4.5427729E-01
   7169.33  4.5110376E-01
   7169.67  4.4809567E-01
   7170.00  4.4523703E-01
   7170.33  4.4252206E-01
   7170.67  4.3991996E-01
   7171.00  4.3743173E-01
   7171.33  4.3510689E-01
   7171.67  4.3301369E-01
   7172.00  4.3127934E-01
