    FDMNES
    energy     <xanes>
   7097.00  4.3051236E-03
   7097.33  4.3972726E-03
   7097.67  4.4933656E-03
   7098.00  4.5936697E-03
   7098.33  4.6990992E-03
   7098.67  4.8094707E-03
   7099.00  4.9251523E-03
   7099.33  5.0473483E-03
   7099.67  5.1758778E-03
   7100.00  5.3112643E-03
   7100.33  5.4551415E-03
   7100.67  5.6073560E-03
   7101.00  5.7686789E-03
   7101.33  5.9414071E-03
   7101.67  6.1254692E-03
   7102.00  6.3220490E-03
   7102.33  6.5345171E-03
   7102.67  6.7630056E-03
   7103.00  7.0094251E-03
   7103.33  7.2789868E-03
   7103.67  7.5723063E-03
   7104.00  7.8926612E-03
   7104.33  8.2486441E-03
   7104.67  8.6420416E-03
   7105.00  9.0789200E-03
   7105.33  9.5746523E-03
   7105.67  1.0134031E-02
   7106.00  1.0769439E-02
   7106.33  1.1511471E-02
   7106.67  1.2373456E-02
   7107.00  1.3384222E-02
   7107.33  1.4614197E-02
   7107.67  1.6105040E-02
   7108.00  1.7937627E-02
   7108.33  2.0312281E-02
   7108.67  2.3390457E-02
   7109.00  2.7473857E-02
   7109.33  3.3357530E-02
   7109.67  4.1946377E-02
   7110.00  5.5004471E-02
   7110.33  7.7610327E-02
   7110.67  1.1542925E-01
   7111.00  1.7141131E-01
   7111.33  2.3774594E-01
   7111.67  2.9922106E-01
   7112.00  3.2068505E-01
   7112.33  2.7335015E-01
   7112.67  2.0694801E-01
   7113.00  1.5556743E-01
   7113.33  1.2833927E-01
   7113.67  1.1612319E-01
   7114.00  1.1154700E-01
   7114.33  1.0154802E-01
   7114.67  8.6984165E-02
   7115.00  7.6340722E-02
   7115.33  6.7571583E-02
   7115.67  5.7980061E-02
   7116.00  5.0622221E-02
   7116.33  4.6423681E-02
   7116.67  4.3579209E-02
   7117.00  4.1320826E-02
   7117.33  3.9604682E-02
   7117.67  3.8529082E-02
   7118.00  3.8149963E-02
   7118.33  3.8507355E-02
   7118.67  3.9411779E-02
   7119.00  4.0729377E-02
   7119.33  4.2342594E-02
   7119.67  4.4211835E-02
   7120.00  4.6487427E-02
   7120.33  4.9484105E-02
   7120.67  5.3312761E-02
   7121.00  5.8110723E-02
   7121.33  6.4217346E-02
   7121.67  7.1751790E-02
   7122.00  8.0999463E-02
   7122.33  9.2673760E-02
   7122.67  1.0715713E-01
   7123.00  1.2518261E-01
   7123.33  1.4800935E-01
   7123.67  1.7462020E-01
   7124.00  2.0268758E-01
   7124.33  2.2941802E-01
   7124.67  2.5655693E-01
   7125.00  2.8681395E-01
   7125.33  3.2141101E-01
   7125.67  3.5888956E-01
   7126.00  3.9866664E-01
   7126.33  4.4082739E-01
   7126.67  4.8416168E-01
   7127.00  5.2636188E-01
   7127.33  5.6319265E-01
   7127.67  5.9330938E-01
   7128.00  6.1661470E-01
   7128.33  6.3158532E-01
   7128.67  6.3896695E-01
   7129.00  6.4179385E-01
   7129.33  6.4699544E-01
   7129.67  6.5892602E-01
   7130.00  6.7774027E-01
   7130.33  7.0200197E-01
   7130.67  7.2930787E-01
   7131.00  7.5878307E-01
   7131.33  7.8934105E-01
   7131.67  8.1798182E-01
   7132.00  8.4052965E-01
   7132.33  8.5098826E-01
   7132.67  8.4960579E-01
   7133.00  8.3892067E-01
   7133.33  8.2308738E-01
   7133.67  8.0660861E-01
   7134.00  7.9144794E-01
   7134.33  7.7948543E-01
   7134.67  7.7182538E-01
   7135.00  7.6933079E-01
   7135.33  7.7246325E-01
   7135.67  7.7897284E-01
   7136.00  7.8663969E-01
   7136.33  7.9262683E-01
   7136.67  7.9529636E-01
   7137.00  7.9408051E-01
   7137.33  7.8888995E-01
   7137.67  7.8114132E-01
   7138.00  7.7178762E-01
   7138.33  7.6168730E-01
   7138.67  7.5155369E-01
   7139.00  7.4167519E-01
   7139.33  7.3219840E-01
   7139.67  7.2300961E-01
   7140.00  7.1397290E-01
   7140.33  7.0489255E-01
   7140.67  6.9559378E-01
   7141.00  6.8595651E-01
   7141.33  6.7583968E-01
   7141.67  6.6527808E-01
   7142.00  6.5432046E-01
   7142.33  6.4306575E-01
   7142.67  6.3175298E-01
   7143.00  6.2060780E-01
   7143.33  6.0999052E-01
   7143.67  6.0016833E-01
   7144.00  5.9144242E-01
   7144.33  5.8437377E-01
   7144.67  5.7908814E-01
   7145.00  5.7576221E-01
   7145.33  5.7475406E-01
   7145.67  5.7576207E-01
   7146.00  5.7860919E-01
   7146.33  5.8310252E-01
   7146.67  5.8852912E-01
   7147.00  5.9436033E-01
   7147.33  5.9994920E-01
   7147.67  6.0478341E-01
   7148.00  6.0851460E-01
   7148.33  6.1072961E-01
   7148.67  6.1152765E-01
   7149.00  6.1095626E-01
   7149.33  6.0896825E-01
   7149.67  6.0584628E-01
   7150.00  6.0168881E-01
   7150.33  5.9646630E-01
   7150.67  5.9035611E-01
   7151.00  5.8338671E-01
   7151.33  5.7546313E-01
   7151.67  5.6669189E-01
   7152.00  5.5707384E-01
   7152.33  5.4649316E-01
   7152.67  5.3504544E-01
   7153.00  5.2272861E-01
   7153.33  5.0944932E-01
   7153.67  4.9535153E-01
   7154.00  4.8048507E-01
   7154.33  4.6484562E-01
   7154.67  4.4863737E-01
   7155.00  4.3199474E-01
   7155.33  4.1507807E-01
   7155.67  3.9814320E-01
   7156.00  3.8140608E-01
   7156.33  3.6518831E-01
   7156.67  3.4969677E-01
   7157.00  3.3515190E-01
   7157.33  3.2193238E-01
   7157.67  3.1007759E-01
   7158.00  2.9970557E-01
   7158.33  2.9109736E-01
   7158.67  2.8408777E-01
   7159.00  2.7866447E-01
   7159.33  2.7496602E-01
   7159.67  2.7271406E-01
   7160.00  2.7181234E-01
   7160.33  2.7228485E-01
   7160.67  2.7384515E-01
   7161.00  2.7637991E-01
   7161.33  2.7986621E-01
   7161.67  2.8407301E-01
   7162.00  2.8889138E-01
   7162.33  2.9425329E-01
   7162.67  2.9997206E-01
   7163.00  3.0593820E-01
   7163.33  3.1205613E-01
   7163.67  3.1821076E-01
   7164.00  3.2432419E-01
   7164.33  3.3029985E-01
   7164.67  3.3608429E-01
   7165.00  3.4162982E-01
   7165.33  3.4686111E-01
   7165.67  3.5178843E-01
   7166.00  3.5640089E-01
   7166.33  3.6065897E-01
   7166.67  3.6461647E-01
   7167.00  3.6829564E-01
   7167.33  3.7170032E-01
   7167.67  3.7490143E-01
   7168.00  3.7793657E-01
   7168.33  3.8083571E-01
   7168.67  3.8365730E-01
   7169.00  3.8643520E-01
   7169.33  3.8920209E-01
   7169.67  3.9198441E-01
   7170.00  3.9479423E-01
   7170.33  3.9763499E-01
   7170.67  4.0048439E-01
   7171.00  4.0330640E-01
   7171.33  4.0601045E-01
   7171.67  4.0846838E-01
   7172.00  4.1049884E-01
