    FDMNES
    energy     <xanes>
   7097.00  4.6921098E-03
   7097.33  4.8063333E-03
   7097.67  4.9261250E-03
   7098.00  5.0518991E-03
   7098.33  5.1850090E-03
   7098.67  5.3252454E-03
   7099.00  5.4731897E-03
   7099.33  5.6306632E-03
   7099.67  5.7974745E-03
   7100.00  5.9744645E-03
   7100.33  6.1641598E-03
   7100.67  6.3664325E-03
   7101.00  6.5825421E-03
   7101.33  6.8161212E-03
   7101.67  7.0672046E-03
   7102.00  7.3377588E-03
   7102.33  7.6332338E-03
   7102.67  7.9540475E-03
   7103.00  8.3034256E-03
   7103.33  8.6899793E-03
   7103.67  9.1150172E-03
   7104.00  9.5841616E-03
   7104.33  1.0111916E-02
   7104.67  1.0701730E-02
   7105.00  1.1364176E-02
   7105.33  1.2125744E-02
   7105.67  1.2995387E-02
   7106.00  1.3995038E-02
   7106.33  1.5178515E-02
   7106.67  1.6570504E-02
   7107.00  1.8222958E-02
   7107.33  2.0262412E-02
   7107.67  2.2766380E-02
   7108.00  2.5883454E-02
   7108.33  2.9981855E-02
   7108.67  3.5365792E-02
   7109.00  4.2601540E-02
   7109.33  5.3185890E-02
   7109.67  6.8851011E-02
   7110.00  9.2986859E-02
   7110.33  1.3559804E-01
   7110.67  2.1000647E-01
   7111.00  3.2973526E-01
   7111.33  4.4969045E-01
   7111.67  4.6206324E-01
   7112.00  4.3012963E-01
   7112.33  4.4308742E-01
   7112.67  4.1714190E-01
   7113.00  3.1016060E-01
   7113.33  2.1051605E-01
   7113.67  1.4573765E-01
   7114.00  1.0657729E-01
   7114.33  8.5100839E-02
   7114.67  7.3059117E-02
   7115.00  6.6695530E-02
   7115.33  6.0862885E-02
   7115.67  5.4776650E-02
   7116.00  5.1165676E-02
   7116.33  4.9850973E-02
   7116.67  4.7692462E-02
   7117.00  4.4009916E-02
   7117.33  4.0603821E-02
   7117.67  3.8447849E-02
   7118.00  3.7543617E-02
   7118.33  3.7866503E-02
   7118.67  3.9219088E-02
   7119.00  4.1606975E-02
   7119.33  4.5008481E-02
   7119.67  4.8917475E-02
   7120.00  5.3319617E-02
   7120.33  5.9490919E-02
   7120.67  6.9000539E-02
   7121.00  8.3408165E-02
   7121.33  1.0374414E-01
   7121.67  1.2321956E-01
   7122.00  1.3131178E-01
   7122.33  1.2544217E-01
   7122.67  1.1780210E-01
   7123.00  1.1409746E-01
   7123.33  1.1737278E-01
   7123.67  1.2742160E-01
   7124.00  1.4441531E-01
   7124.33  1.6909085E-01
   7124.67  1.9892476E-01
   7125.00  2.2960497E-01
   7125.33  2.5124340E-01
   7125.67  2.6008692E-01
   7126.00  2.6202127E-01
   7126.33  2.6646168E-01
   7126.67  2.7615238E-01
   7127.00  2.8982920E-01
   7127.33  3.0532087E-01
   7127.67  3.2185896E-01
   7128.00  3.4086916E-01
   7128.33  3.6497405E-01
   7128.67  3.9441367E-01
   7129.00  4.2883263E-01
   7129.33  4.6762106E-01
   7129.67  5.0866432E-01
   7130.00  5.5049711E-01
   7130.33  5.9260904E-01
   7130.67  6.3624595E-01
   7131.00  6.8307594E-01
   7131.33  7.3425786E-01
   7131.67  7.8574961E-01
   7132.00  8.2849939E-01
   7132.33  8.4626126E-01
   7132.67  8.4208594E-01
   7133.00  8.3039656E-01
   7133.33  8.2734285E-01
   7133.67  8.3777770E-01
   7134.00  8.6306580E-01
   7134.33  9.0724937E-01
   7134.67  9.7208855E-01
   7135.00  1.0610429E+00
   7135.33  1.1724944E+00
   7135.67  1.2742236E+00
   7136.00  1.3183728E+00
   7136.33  1.2629790E+00
   7136.67  1.1540405E+00
   7137.00  1.0368135E+00
   7137.33  9.4007139E-01
   7137.67  8.6509119E-01
   7138.00  8.0843711E-01
   7138.33  7.6712426E-01
   7138.67  7.3582523E-01
   7139.00  7.1238647E-01
   7139.33  6.9590208E-01
   7139.67  6.8455373E-01
   7140.00  6.7778554E-01
   7140.33  6.7572279E-01
   7140.67  6.7760495E-01
   7141.00  6.8328116E-01
   7141.33  6.9299394E-01
   7141.67  7.0594525E-01
   7142.00  7.2161948E-01
   7142.33  7.3926499E-01
   7142.67  7.5719678E-01
   7143.00  7.7374832E-01
   7143.33  7.8623637E-01
   7143.67  7.9300003E-01
   7144.00  7.9276772E-01
   7144.33  7.8418971E-01
   7144.67  7.6901471E-01
   7145.00  7.4873007E-01
   7145.33  7.2510341E-01
   7145.67  7.0051163E-01
   7146.00  6.7627850E-01
   7146.33  6.5362802E-01
   7146.67  6.3298217E-01
   7147.00  6.1456972E-01
   7147.33  5.9870280E-01
   7147.67  5.8496135E-01
   7148.00  5.7315072E-01
   7148.33  5.6320711E-01
   7148.67  5.5463552E-01
   7149.00  5.4719208E-01
   7149.33  5.4071091E-01
   7149.67  5.3482667E-01
   7150.00  5.2932902E-01
   7150.33  5.2400310E-01
   7150.67  5.1860970E-01
   7151.00  5.1297080E-01
   7151.33  5.0682365E-01
   7151.67  5.0002232E-01
   7152.00  4.9240524E-01
   7152.33  4.8368378E-01
   7152.67  4.7384887E-01
   7153.00  4.6282380E-01
   7153.33  4.5041865E-01
   7153.67  4.3682192E-01
   7154.00  4.2213653E-01
   7154.33  4.0644300E-01
   7154.67  3.9009976E-01
   7155.00  3.7335939E-01
   7155.33  3.5654091E-01
   7155.67  3.3999685E-01
   7156.00  3.2403278E-01
   7156.33  3.0913164E-01
   7156.67  2.9546905E-01
   7157.00  2.8322162E-01
   7157.33  2.7272712E-01
   7157.67  2.6387240E-01
   7158.00  2.5668301E-01
   7158.33  2.5135188E-01
   7158.67  2.4762417E-01
   7159.00  2.4543994E-01
   7159.33  2.4489920E-01
   7159.67  2.4572993E-01
   7160.00  2.4785227E-01
   7160.33  2.5131672E-01
   7160.67  2.5586298E-01
   7161.00  2.6137609E-01
   7161.33  2.6778438E-01
   7161.67  2.7477782E-01
   7162.00  2.8215055E-01
   7162.33  2.8966100E-01
   7162.67  2.9703993E-01
   7163.00  3.0409028E-01
   7163.33  3.1056558E-01
   7163.67  3.1641167E-01
   7164.00  3.2157821E-01
   7164.33  3.2597428E-01
   7164.67  3.2972688E-01
   7165.00  3.3289896E-01
   7165.33  3.3552317E-01
   7165.67  3.3776211E-01
   7166.00  3.3970165E-01
   7166.33  3.4141018E-01
   7166.67  3.4299695E-01
   7167.00  3.4452246E-01
   7167.33  3.4604222E-01
   7167.67  3.4759757E-01
   7168.00  3.4921167E-01
   7168.33  3.5090920E-01
   7168.67  3.5268636E-01
   7169.00  3.5454166E-01
   7169.33  3.5647758E-01
   7169.67  3.5847532E-01
   7170.00  3.6052370E-01
   7170.33  3.6260926E-01
   7170.67  3.6470296E-01
   7171.00  3.6677364E-01
   7171.33  3.6875251E-01
   7171.67  3.7054664E-01
   7172.00  3.7202410E-01
