    FDMNES
    energy     <xanes>
   7097.00  4.2612032E-03
   7097.33  4.3548720E-03
   7097.67  4.4526933E-03
   7098.00  4.5549584E-03
   7098.33  4.6626472E-03
   7098.67  4.7755807E-03
   7099.00  4.8941643E-03
   7099.33  5.0197007E-03
   7099.67  5.1520192E-03
   7100.00  5.2917019E-03
   7100.33  5.4405354E-03
   7100.67  5.5983880E-03
   7101.00  5.7661261E-03
   7101.33  5.9462926E-03
   7101.67  6.1388614E-03
   7102.00  6.3451795E-03
   7102.33  6.5690292E-03
   7102.67  6.8106410E-03
   7103.00  7.0722185E-03
   7103.33  7.3597000E-03
   7103.67  7.6739217E-03
   7104.00  8.0187244E-03
   7104.33  8.4040750E-03
   7104.67  8.8322841E-03
   7105.00  9.3105952E-03
   7105.33  9.8572211E-03
   7105.67  1.0478309E-02
   7106.00  1.1188992E-02
   7106.33  1.2026483E-02
   7106.67  1.3008067E-02
   7107.00  1.4170063E-02
   7107.33  1.5601116E-02
   7107.67  1.7356755E-02
   7108.00  1.9543197E-02
   7108.33  2.2424941E-02
   7108.67  2.6227320E-02
   7109.00  3.1371049E-02
   7109.33  3.8981141E-02
   7109.67  5.0410198E-02
   7110.00  6.8325212E-02
   7110.33  1.0054168E-01
   7110.67  1.5587437E-01
   7111.00  2.3611627E-01
   7111.33  2.9706848E-01
   7111.67  2.9686632E-01
   7112.00  2.7774377E-01
   7112.33  2.6621837E-01
   7112.67  2.2992373E-01
   7113.00  1.7610657E-01
   7113.33  1.3301701E-01
   7113.67  1.0207178E-01
   7114.00  8.2339056E-02
   7114.33  7.1985446E-02
   7114.67  6.6633421E-02
   7115.00  6.2430288E-02
   7115.33  5.6458272E-02
   7115.67  5.1166915E-02
   7116.00  4.7492900E-02
   7116.33  4.4409961E-02
   7116.67  4.1078141E-02
   7117.00  3.7958087E-02
   7117.33  3.5869080E-02
   7117.67  3.4850948E-02
   7118.00  3.4816618E-02
   7118.33  3.5818800E-02
   7118.67  3.7803126E-02
   7119.00  4.0888466E-02
   7119.33  4.5208960E-02
   7119.67  5.0307110E-02
   7120.00  5.6297497E-02
   7120.33  6.4885787E-02
   7120.67  7.7887759E-02
   7121.00  9.7052071E-02
   7121.33  1.2264852E-01
   7121.67  1.4451232E-01
   7122.00  1.5023826E-01
   7122.33  1.4003422E-01
   7122.67  1.2975290E-01
   7123.00  1.2623380E-01
   7123.33  1.3203653E-01
   7123.67  1.4532861E-01
   7124.00  1.6502838E-01
   7124.33  1.8939537E-01
   7124.67  2.1379734E-01
   7125.00  2.3397048E-01
   7125.33  2.4562659E-01
   7125.67  2.5070525E-01
   7126.00  2.5398334E-01
   7126.33  2.6220607E-01
   7126.67  2.7703385E-01
   7127.00  2.9679471E-01
   7127.33  3.1858147E-01
   7127.67  3.4093582E-01
   7128.00  3.6477411E-01
   7128.33  3.9154709E-01
   7128.67  4.2067921E-01
   7129.00  4.5213050E-01
   7129.33  4.8837941E-01
   7129.67  5.3101102E-01
   7130.00  5.7926743E-01
   7130.33  6.2799220E-01
   7130.67  6.7130794E-01
   7131.00  7.0957780E-01
   7131.33  7.4791978E-01
   7131.67  7.8710153E-01
   7132.00  8.1976136E-01
   7132.33  8.3090749E-01
   7132.67  8.2347738E-01
   7133.00  8.1086846E-01
   7133.33  8.0730737E-01
   7133.67  8.1659814E-01
   7134.00  8.4021365E-01
   7134.33  8.8303544E-01
   7134.67  9.4849876E-01
   7135.00  1.0428526E+00
   7135.33  1.1698215E+00
   7135.67  1.2937706E+00
   7136.00  1.3512322E+00
   7136.33  1.2829926E+00
   7136.67  1.1526412E+00
   7137.00  1.0199376E+00
   7137.33  9.1718730E-01
   7137.67  8.4133020E-01
   7138.00  7.8661616E-01
   7138.33  7.4876327E-01
   7138.67  7.2160074E-01
   7139.00  7.0270587E-01
   7139.33  6.9104561E-01
   7139.67  6.8466909E-01
   7140.00  6.8294658E-01
   7140.33  6.8591380E-01
   7140.67  6.9269079E-01
   7141.00  7.0296354E-01
   7141.33  7.1659770E-01
   7141.67  7.3241616E-01
   7142.00  7.4938989E-01
   7142.33  7.6577408E-01
   7142.67  7.7950683E-01
   7143.00  7.8864155E-01
   7143.33  7.9045953E-01
   7143.67  7.8481114E-01
   7144.00  7.7189051E-01
   7144.33  7.5228889E-01
   7144.67  7.2881417E-01
   7145.00  7.0336148E-01
   7145.33  6.7783308E-01
   7145.67  6.5360543E-01
   7146.00  6.3139589E-01
   7146.33  6.1190016E-01
   7146.67  5.9486309E-01
   7147.00  5.8014018E-01
   7147.33  5.6771517E-01
   7147.67  5.5703671E-01
   7148.00  5.4786165E-01
   7148.33  5.4008537E-01
   7148.67  5.3332118E-01
   7149.00  5.2739167E-01
   7149.33  5.2218844E-01
   7149.67  5.1745394E-01
   7150.00  5.1304217E-01
   7150.33  5.0880364E-01
   7150.67  5.0453716E-01
   7151.00  5.0006992E-01
   7151.33  4.9513010E-01
   7151.67  4.8953896E-01
   7152.00  4.8309792E-01
   7152.33  4.7545595E-01
   7152.67  4.6656354E-01
   7153.00  4.5630825E-01
   7153.33  4.4445263E-01
   7153.67  4.3121842E-01
   7154.00  4.1673570E-01
   7154.33  4.0111012E-01
   7154.67  3.8478178E-01
   7155.00  3.6807464E-01
   7155.33  3.5141810E-01
   7155.67  3.3527608E-01
   7156.00  3.2001775E-01
   7156.33  3.0612307E-01
   7156.67  2.9368165E-01
   7157.00  2.8283582E-01
   7157.33  2.7388846E-01
   7157.67  2.6665231E-01
   7158.00  2.6110674E-01
   7158.33  2.5740035E-01
   7158.67  2.5525415E-01
   7159.00  2.5459805E-01
   7159.33  2.5552415E-01
   7159.67  2.5776957E-01
   7160.00  2.6125100E-01
   7160.33  2.6598851E-01
   7160.67  2.7168364E-01
   7161.00  2.7815798E-01
   7161.33  2.8522159E-01
   7161.67  2.9252039E-01
   7162.00  2.9980061E-01
   7162.33  3.0675499E-01
   7162.67  3.1320489E-01
   7163.00  3.1902603E-01
   7163.33  3.2405635E-01
   7163.67  3.2837707E-01
   7164.00  3.3202760E-01
   7164.33  3.3501837E-01
   7164.67  3.3753045E-01
   7165.00  3.3966283E-01
   7165.33  3.4149204E-01
   7165.67  3.4314846E-01
   7166.00  3.4470152E-01
   7166.33  3.4621065E-01
   7166.67  3.4772730E-01
   7167.00  3.4927843E-01
   7167.33  3.5088984E-01
   7167.67  3.5256350E-01
   7168.00  3.5430106E-01
   7168.33  3.5610809E-01
   7168.67  3.5797225E-01
   7169.00  3.5988883E-01
   7169.33  3.6185842E-01
   7169.67  3.6386935E-01
   7170.00  3.6591511E-01
   7170.33  3.6798740E-01
   7170.67  3.7006484E-01
   7171.00  3.7212124E-01
   7171.33  3.7409328E-01
   7171.67  3.7588912E-01
   7172.00  3.7737405E-01
