    FDMNES
    energy     <xanes>
   7097.00  4.4563003E-03
   7097.33  4.5473981E-03
   7097.67  4.6419429E-03
   7098.00  4.7401310E-03
   7098.33  4.8426984E-03
   7098.67  4.9494327E-03
   7099.00  5.0605914E-03
   7099.33  5.1770987E-03
   7099.67  5.2987263E-03
   7100.00  5.4258208E-03
   7100.33  5.5595698E-03
   7100.67  5.6997368E-03
   7101.00  5.8468029E-03
   7101.33  6.0023392E-03
   7101.67  6.1661202E-03
   7102.00  6.3388401E-03
   7102.33  6.5226534E-03
   7102.67  6.7173928E-03
   7103.00  6.9241088E-03
   7103.33  7.1458974E-03
   7103.67  7.3827617E-03
   7104.00  7.6363922E-03
   7104.33  7.9115196E-03
   7104.67  8.2085986E-03
   7105.00  8.5305761E-03
   7105.33  8.8853054E-03
   7105.67  9.2744574E-03
   7106.00  9.7037483E-03
   7106.33  1.0187798E-02
   7106.67  1.0731845E-02
   7107.00  1.1348735E-02
   7107.33  1.2070520E-02
   7107.67  1.2914665E-02
   7108.00  1.3916847E-02
   7108.33  1.5166642E-02
   7108.67  1.6735665E-02
   7109.00  1.8760593E-02
   7109.33  2.1607493E-02
   7109.67  2.5707927E-02
   7110.00  3.1915999E-02
   7110.33  4.2704227E-02
   7110.67  6.0543821E-02
   7111.00  8.4952523E-02
   7111.33  1.0547179E-01
   7111.67  1.1337202E-01
   7112.00  1.0765770E-01
   7112.33  9.5015120E-02
   7112.67  8.3143459E-02
   7113.00  7.4591845E-02
   7113.33  6.9969420E-02
   7113.67  6.8006887E-02
   7114.00  6.8164021E-02
   7114.33  7.0368494E-02
   7114.67  7.4299553E-02
   7115.00  7.9985795E-02
   7115.33  8.7801024E-02
   7115.67  9.7731017E-02
   7116.00  1.1000616E-01
   7116.33  1.2528382E-01
   7116.67  1.4361055E-01
   7117.00  1.6533312E-01
   7117.33  1.9129924E-01
   7117.67  2.2130620E-01
   7118.00  2.5544137E-01
   7118.33  2.9411667E-01
   7118.67  3.3642849E-01
   7119.00  3.8128865E-01
   7119.33  4.2439972E-01
   7119.67  4.5700441E-01
   7120.00  4.7104257E-01
   7120.33  4.6383386E-01
   7120.67  4.4668674E-01
   7121.00  4.2744226E-01
   7121.33  4.1153882E-01
   7121.67  4.0030926E-01
   7122.00  3.9386148E-01
   7122.33  3.9216387E-01
   7122.67  3.9381403E-01
   7123.00  3.9800637E-01
   7123.33  4.0410793E-01
   7123.67  4.1126352E-01
   7124.00  4.1912544E-01
   7124.33  4.2760464E-01
   7124.67  4.3672606E-01
   7125.00  4.4673159E-01
   7125.33  4.5804192E-01
   7125.67  4.7047310E-01
   7126.00  4.8361966E-01
   7126.33  4.9671196E-01
   7126.67  5.0887711E-01
   7127.00  5.1929229E-01
   7127.33  5.2663954E-01
   7127.67  5.3055412E-01
   7128.00  5.3092661E-01
   7128.33  5.2795546E-01
   7128.67  5.2310345E-01
   7129.00  5.1737958E-01
   7129.33  5.1173633E-01
   7129.67  5.0677321E-01
   7130.00  5.0278146E-01
   7130.33  5.0006024E-01
   7130.67  4.9850654E-01
   7131.00  4.9809174E-01
   7131.33  4.9885205E-01
   7131.67  5.0049225E-01
   7132.00  5.0281193E-01
   7132.33  5.0556390E-01
   7132.67  5.0836175E-01
   7133.00  5.1090479E-01
   7133.33  5.1278134E-01
   7133.67  5.1375653E-01
   7134.00  5.1359489E-01
   7134.33  5.1190967E-01
   7134.67  5.0878190E-01
   7135.00  5.0431949E-01
   7135.33  4.9880922E-01
   7135.67  4.9300697E-01
   7136.00  4.8750343E-01
   7136.33  4.8294346E-01
   7136.67  4.7950131E-01
   7137.00  4.7722111E-01
   7137.33  4.7614382E-01
   7137.67  4.7597798E-01
   7138.00  4.7658578E-01
   7138.33  4.7791150E-01
   7138.67  4.7977331E-01
   7139.00  4.8210697E-01
   7139.33  4.8490876E-01
   7139.67  4.8807989E-01
   7140.00  4.9158383E-01
   7140.33  4.9542578E-01
   7140.67  4.9954841E-01
   7141.00  5.0394395E-01
   7141.33  5.0864875E-01
   7141.67  5.1364387E-01
   7142.00  5.1895417E-01
   7142.33  5.2466646E-01
   7142.67  5.3078711E-01
   7143.00  5.3735986E-01
   7143.33  5.4448670E-01
   7143.67  5.5212180E-01
   7144.00  5.6024858E-01
   7144.33  5.6885796E-01
   7144.67  5.7778288E-01
   7145.00  5.8688595E-01
   7145.33  5.9596729E-01
   7145.67  6.0480849E-01
   7146.00  6.1321714E-01
   7146.33  6.2090860E-01
   7146.67  6.2779952E-01
   7147.00  6.3379239E-01
   7147.33  6.3870221E-01
   7147.67  6.4263375E-01
   7148.00  6.4560895E-01
   7148.33  6.4757609E-01
   7148.67  6.4873389E-01
   7149.00  6.4916808E-01
   7149.33  6.4890610E-01
   7149.67  6.4812849E-01
   7150.00  6.4691805E-01
   7150.33  6.4531856E-01
   7150.67  6.4344906E-01
   7151.00  6.4136542E-01
   7151.33  6.3910188E-01
   7151.67  6.3672114E-01
   7152.00  6.3425120E-01
   7152.33  6.3170675E-01
   7152.67  6.2910892E-01
   7153.00  6.2646041E-01
   7153.33  6.2374665E-01
   7153.67  6.2095670E-01
   7154.00  6.1806707E-01
   7154.33  6.1502552E-01
   7154.67  6.1180827E-01
   7155.00  6.0838036E-01
   7155.33  6.0467516E-01
   7155.67  6.0069804E-01
   7156.00  5.9643852E-01
   7156.33  5.9186416E-01
   7156.67  5.8702961E-01
   7157.00  5.8196433E-01
   7157.33  5.7668998E-01
   7157.67  5.7128323E-01
   7158.00  5.6579432E-01
   7158.33  5.6027842E-01
   7158.67  5.5479199E-01
   7159.00  5.4937579E-01
   7159.33  5.4408479E-01
   7159.67  5.3893676E-01
   7160.00  5.3394954E-01
   7160.33  5.2915665E-01
   7160.67  5.2453465E-01
   7161.00  5.2007486E-01
   7161.33  5.1578028E-01
   7161.67  5.1161321E-01
   7162.00  5.0755660E-01
   7162.33  5.0360343E-01
   7162.67  4.9972631E-01
   7163.00  4.9591401E-01
   7163.33  4.9216355E-01
   7163.67  4.8846180E-01
   7164.00  4.8480585E-01
   7164.33  4.8120044E-01
   7164.67  4.7764122E-01
   7165.00  4.7412998E-01
   7165.33  4.7067572E-01
   7165.67  4.6727573E-01
   7166.00  4.6393386E-01
   7166.33  4.6066281E-01
   7166.67  4.5745937E-01
   7167.00  4.5432651E-01
   7167.33  4.5127566E-01
   7167.67  4.4830029E-01
   7168.00  4.4540319E-01
   7168.33  4.4259836E-01
   7168.67  4.3987999E-01
   7169.00  4.3725221E-01
   7169.33  4.3473113E-01
   7169.67  4.3230903E-01
   7170.00  4.2999023E-01
   7170.33  4.2779524E-01
   7170.67  4.2572065E-01
   7171.00  4.2378062E-01
   7171.33  4.2202421E-01
   7171.67  4.2048473E-01
   7172.00  4.1923207E-01
