    FDMNES
    energy     <xanes>
   7097.00  5.3910624E-03
   7097.33  5.5248336E-03
   7097.67  5.6648015E-03
   7098.00  5.8113896E-03
   7098.33  5.9660392E-03
   7098.67  6.1284631E-03
   7099.00  6.2992406E-03
   7099.33  6.4802629E-03
   7099.67  6.6712397E-03
   7100.00  6.8729860E-03
   7100.33  7.0880519E-03
   7100.67  7.3161771E-03
   7101.00  7.5585470E-03
   7101.33  7.8187150E-03
   7101.67  8.0965250E-03
   7102.00  8.3937712E-03
   7102.33  8.7156071E-03
   7102.67  9.0621468E-03
   7103.00  9.4362414E-03
   7103.33  9.8457438E-03
   7103.67  1.0291423E-02
   7104.00  1.0778091E-02
   7104.33  1.1318482E-02
   7104.67  1.1914966E-02
   7105.00  1.2576301E-02
   7105.33  1.3324868E-02
   7105.67  1.4167162E-02
   7106.00  1.5120788E-02
   7106.33  1.6229512E-02
   7106.67  1.7511571E-02
   7107.00  1.9007435E-02
   7107.33  2.0816354E-02
   7107.67  2.2995677E-02
   7108.00  2.5658087E-02
   7108.33  2.9083395E-02
   7108.67  3.3495634E-02
   7109.00  3.9315777E-02
   7109.33  4.7657012E-02
   7109.67  5.9794171E-02
   7110.00  7.8222875E-02
   7110.33  1.1013762E-01
   7110.67  1.6333968E-01
   7111.00  2.4046074E-01
   7111.33  3.2279200E-01
   7111.67  3.8587805E-01
   7112.00  4.1135786E-01
   7112.33  3.7921395E-01
   7112.67  3.1560851E-01
   7113.00  2.5207048E-01
   7113.33  2.0686186E-01
   7113.67  1.7717516E-01
   7114.00  1.5932543E-01
   7114.33  1.5083714E-01
   7114.67  1.4855363E-01
   7115.00  1.5143359E-01
   7115.33  1.5925945E-01
   7115.67  1.7087138E-01
   7116.00  1.8567693E-01
   7116.33  2.0317297E-01
   7116.67  2.2233408E-01
   7117.00  2.4256994E-01
   7117.33  2.6229280E-01
   7117.67  2.7849756E-01
   7118.00  2.8872196E-01
   7118.33  2.9197988E-01
   7118.67  2.9154537E-01
   7119.00  2.9059772E-01
   7119.33  2.9326870E-01
   7119.67  3.0183060E-01
   7120.00  3.1744430E-01
   7120.33  3.4136568E-01
   7120.67  3.7209343E-01
   7121.00  4.0833871E-01
   7121.33  4.4812356E-01
   7121.67  4.8830812E-01
   7122.00  5.2687223E-01
   7122.33  5.6187508E-01
   7122.67  5.9289084E-01
   7123.00  6.1951465E-01
   7123.33  6.4082731E-01
   7123.67  6.5723437E-01
   7124.00  6.6871983E-01
   7124.33  6.7476564E-01
   7124.67  6.7622069E-01
   7125.00  6.7342725E-01
   7125.33  6.6644685E-01
   7125.67  6.5643047E-01
   7126.00  6.4408219E-01
   7126.33  6.3010707E-01
   7126.67  6.1551030E-01
   7127.00  6.0085637E-01
   7127.33  5.8665147E-01
   7127.67  5.7303872E-01
   7128.00  5.6003917E-01
   7128.33  5.4769318E-01
   7128.67  5.3587563E-01
   7129.00  5.2455543E-01
   7129.33  5.1379150E-01
   7129.67  5.0354890E-01
   7130.00  4.9385802E-01
   7130.33  4.8481283E-01
   7130.67  4.7634180E-01
   7131.00  4.6843478E-01
   7131.33  4.6115904E-01
   7131.67  4.5447863E-01
   7132.00  4.4846977E-01
   7132.33  4.4338568E-01
   7132.67  4.3933165E-01
   7133.00  4.3651444E-01
   7133.33  4.3536281E-01
   7133.67  4.3590232E-01
   7134.00  4.3825679E-01
   7134.33  4.4270740E-01
   7134.67  4.4895771E-01
   7135.00  4.5688055E-01
   7135.33  4.6646643E-01
   7135.67  4.7730430E-01
   7136.00  4.8914926E-01
   7136.33  5.0166276E-01
   7136.67  5.1416320E-01
   7137.00  5.2598096E-01
   7137.33  5.3607985E-01
   7137.67  5.4393200E-01
   7138.00  5.4918116E-01
   7138.33  5.5148334E-01
   7138.67  5.5152736E-01
   7139.00  5.4983168E-01
   7139.33  5.4692950E-01
   7139.67  5.4356110E-01
   7140.00  5.4015511E-01
   7140.33  5.3710648E-01
   7140.67  5.3461966E-01
   7141.00  5.3283362E-01
   7141.33  5.3192301E-01
   7141.67  5.3179839E-01
   7142.00  5.3243056E-01
   7142.33  5.3384847E-01
   7142.67  5.3589024E-01
   7143.00  5.3848146E-01
   7143.33  5.4157817E-01
   7143.67  5.4500828E-01
   7144.00  5.4866232E-01
   7144.33  5.5242345E-01
   7144.67  5.5616700E-01
   7145.00  5.5982532E-01
   7145.33  5.6335712E-01
   7145.67  5.6681266E-01
   7146.00  5.7026976E-01
   7146.33  5.7386827E-01
   7146.67  5.7771116E-01
   7147.00  5.8185720E-01
   7147.33  5.8632155E-01
   7147.67  5.9093374E-01
   7148.00  5.9549124E-01
   7148.33  5.9964556E-01
   7148.67  6.0311754E-01
   7149.00  6.0565751E-01
   7149.33  6.0690858E-01
   7149.67  6.0690959E-01
   7150.00  6.0566223E-01
   7150.33  6.0311598E-01
   7150.67  5.9957902E-01
   7151.00  5.9522093E-01
   7151.33  5.9016363E-01
   7151.67  5.8466149E-01
   7152.00  5.7883506E-01
   7152.33  5.7275178E-01
   7152.67  5.6648682E-01
   7153.00  5.6004290E-01
   7153.33  5.5336005E-01
   7153.67  5.4640404E-01
   7154.00  5.3910982E-01
   7154.33  5.3134473E-01
   7154.67  5.2308922E-01
   7155.00  5.1429714E-01
   7155.33  5.0487030E-01
   7155.67  4.9489020E-01
   7156.00  4.8440244E-01
   7156.33  4.7344904E-01
   7156.67  4.6221385E-01
   7157.00  4.5083430E-01
   7157.33  4.3948893E-01
   7157.67  4.2834941E-01
   7158.00  4.1755584E-01
   7158.33  4.0731080E-01
   7158.67  3.9766776E-01
   7159.00  3.8869880E-01
   7159.33  3.8054600E-01
   7159.67  3.7314073E-01
   7160.00  3.6648387E-01
   7160.33  3.6065149E-01
   7160.67  3.5552377E-01
   7161.00  3.5107015E-01
   7161.33  3.4732962E-01
   7161.67  3.4418126E-01
   7162.00  3.4159016E-01
   7162.33  3.3958222E-01
   7162.67  3.3805663E-01
   7163.00  3.3698467E-01
   7163.33  3.3638761E-01
   7163.67  3.3618336E-01
   7164.00  3.3634823E-01
   7164.33  3.3689898E-01
   7164.67  3.3776777E-01
   7165.00  3.3893330E-01
   7165.33  3.4040497E-01
   7165.67  3.4212487E-01
   7166.00  3.4407306E-01
   7166.33  3.4625270E-01
   7166.67  3.4861633E-01
   7167.00  3.5114605E-01
   7167.33  3.5384009E-01
   7167.67  3.5666069E-01
   7168.00  3.5959164E-01
   7168.33  3.6262628E-01
   7168.67  3.6573478E-01
   7169.00  3.6890102E-01
   7169.33  3.7211082E-01
   7169.67  3.7533958E-01
   7170.00  3.7856879E-01
   7170.33  3.8177047E-01
   7170.67  3.8491513E-01
   7171.00  3.8796282E-01
   7171.33  3.9081767E-01
   7171.67  3.9336935E-01
   7172.00  3.9544803E-01
