    FDMNES
    energy     <xanes>
   7097.00  4.3809284E-03
   7097.33  4.4771754E-03
   7097.67  4.5778998E-03
   7098.00  4.6834303E-03
   7098.33  4.7948486E-03
   7098.67  4.9119819E-03
   7099.00  5.0352923E-03
   7099.33  5.1662349E-03
   7099.67  5.3046530E-03
   7100.00  5.4512176E-03
   7100.33  5.6079499E-03
   7100.67  5.7747488E-03
   7101.00  5.9526258E-03
   7101.33  6.1444978E-03
   7101.67  6.3504063E-03
   7102.00  6.5719451E-03
   7102.33  6.8135230E-03
   7102.67  7.0755192E-03
   7103.00  7.3605847E-03
   7103.33  7.6757689E-03
   7103.67  8.0222515E-03
   7104.00  8.4047436E-03
   7104.33  8.8353405E-03
   7104.67  9.3171933E-03
   7105.00  9.8594082E-03
   7105.33  1.0484698E-02
   7105.67  1.1201462E-02
   7106.00  1.2029341E-02
   7106.33  1.3016403E-02
   7106.67  1.4186808E-02
   7107.00  1.5589714E-02
   7107.33  1.7345184E-02
   7107.67  1.9534040E-02
   7108.00  2.2308532E-02
   7108.33  2.6050948E-02
   7108.67  3.1110013E-02
   7109.00  3.8137470E-02
   7109.33  4.8908688E-02
   7109.67  6.5695362E-02
   7110.00  9.3037054E-02
   7110.33  1.4450110E-01
   7110.67  2.3523436E-01
   7111.00  3.5780991E-01
   7111.33  3.7404966E-01
   7111.67  2.7348832E-01
   7112.00  1.8241974E-01
   7112.33  1.4439852E-01
   7112.67  1.3946040E-01
   7113.00  1.4582428E-01
   7113.33  1.3348819E-01
   7113.67  1.1315225E-01
   7114.00  9.1742937E-02
   7114.33  8.0590684E-02
   7114.67  7.9305083E-02
   7115.00  7.9354744E-02
   7115.33  7.4843279E-02
   7115.67  7.4648070E-02
   7116.00  8.3068531E-02
   7116.33  9.8942180E-02
   7116.67  1.1198538E-01
   7117.00  1.1379005E-01
   7117.33  1.0476168E-01
   7117.67  9.2561954E-02
   7118.00  8.0930309E-02
   7118.33  7.3143883E-02
   7118.67  6.9217405E-02
   7119.00  6.8619635E-02
   7119.33  7.1175585E-02
   7119.67  7.6243440E-02
   7120.00  8.3631831E-02
   7120.33  9.3134973E-02
   7120.67  1.0355878E-01
   7121.00  1.1386714E-01
   7121.33  1.2344373E-01
   7121.67  1.3274534E-01
   7122.00  1.4184348E-01
   7122.33  1.4946645E-01
   7122.67  1.5470480E-01
   7123.00  1.5833661E-01
   7123.33  1.6247031E-01
   7123.67  1.6845601E-01
   7124.00  1.7696133E-01
   7124.33  1.8885297E-01
   7124.67  2.0386860E-01
   7125.00  2.2174188E-01
   7125.33  2.4203195E-01
   7125.67  2.6343320E-01
   7126.00  2.8494743E-01
   7126.33  3.0542440E-01
   7126.67  3.2412328E-01
   7127.00  3.4032686E-01
   7127.33  3.5285670E-01
   7127.67  3.6185258E-01
   7128.00  3.6791038E-01
   7128.33  3.7280802E-01
   7128.67  3.7952178E-01
   7129.00  3.9038298E-01
   7129.33  4.0730251E-01
   7129.67  4.2885591E-01
   7130.00  4.5370313E-01
   7130.33  4.8074279E-01
   7130.67  5.0846899E-01
   7131.00  5.3571550E-01
   7131.33  5.6102666E-01
   7131.67  5.8372626E-01
   7132.00  6.0334270E-01
   7132.33  6.1895478E-01
   7132.67  6.3019281E-01
   7133.00  6.3603253E-01
   7133.33  6.3480650E-01
   7133.67  6.2773368E-01
   7134.00  6.1643044E-01
   7134.33  6.0324247E-01
   7134.67  5.9061871E-01
   7135.00  5.7977279E-01
   7135.33  5.7160030E-01
   7135.67  5.6581083E-01
   7136.00  5.6212459E-01
   7136.33  5.6010835E-01
   7136.67  5.5881213E-01
   7137.00  5.5769269E-01
   7137.33  5.5630286E-01
   7137.67  5.5447015E-01
   7138.00  5.5213717E-01
   7138.33  5.4925664E-01
   7138.67  5.4592684E-01
   7139.00  5.4218651E-01
   7139.33  5.3812932E-01
   7139.67  5.3402539E-01
   7140.00  5.3010946E-01
   7140.33  5.2668834E-01
   7140.67  5.2390899E-01
   7141.00  5.2192632E-01
   7141.33  5.2106701E-01
   7141.67  5.2142770E-01
   7142.00  5.2316988E-01
   7142.33  5.2654286E-01
   7142.67  5.3123293E-01
   7143.00  5.3696581E-01
   7143.33  5.4337814E-01
   7143.67  5.4992742E-01
   7144.00  5.5626930E-01
   7144.33  5.6207151E-01
   7144.67  5.6727452E-01
   7145.00  5.7187508E-01
   7145.33  5.7586574E-01
   7145.67  5.7939076E-01
   7146.00  5.8250104E-01
   7146.33  5.8517927E-01
   7146.67  5.8746922E-01
   7147.00  5.8933231E-01
   7147.33  5.9063274E-01
   7147.67  5.9134999E-01
   7148.00  5.9140688E-01
   7148.33  5.9063096E-01
   7148.67  5.8907671E-01
   7149.00  5.8676935E-01
   7149.33  5.8374359E-01
   7149.67  5.8027398E-01
   7150.00  5.7654484E-01
   7150.33  5.7272902E-01
   7150.67  5.6899007E-01
   7151.00  5.6543843E-01
   7151.33  5.6220897E-01
   7151.67  5.5933887E-01
   7152.00  5.5687852E-01
   7152.33  5.5493803E-01
   7152.67  5.5350756E-01
   7153.00  5.5262244E-01
   7153.33  5.5238395E-01
   7153.67  5.5273298E-01
   7154.00  5.5366614E-01
   7154.33  5.5523571E-01
   7154.67  5.5734159E-01
   7155.00  5.5995267E-01
   7155.33  5.6308447E-01
   7155.67  5.6662698E-01
   7156.00  5.7052250E-01
   7156.33  5.7471481E-01
   7156.67  5.7905380E-01
   7157.00  5.8341878E-01
   7157.33  5.8764235E-01
   7157.67  5.9159636E-01
   7158.00  5.9517998E-01
   7158.33  5.9826084E-01
   7158.67  6.0086740E-01
   7159.00  6.0301128E-01
   7159.33  6.0468200E-01
   7159.67  6.0599029E-01
   7160.00  6.0698860E-01
   7160.33  6.0770088E-01
   7160.67  6.0820283E-01
   7161.00  6.0851930E-01
   7161.33  6.0864000E-01
   7161.67  6.0858008E-01
   7162.00  6.0832386E-01
   7162.33  6.0781617E-01
   7162.67  6.0705125E-01
   7163.00  6.0600266E-01
   7163.33  6.0461129E-01
   7163.67  6.0290894E-01
   7164.00  6.0090363E-01
   7164.33  5.9858502E-01
   7164.67  5.9602642E-01
   7165.00  5.9326866E-01
   7165.33  5.9034434E-01
   7165.67  5.8732071E-01
   7166.00  5.8423344E-01
   7166.33  5.8110896E-01
   7166.67  5.7796999E-01
   7167.00  5.7482582E-01
   7167.33  5.7168519E-01
   7167.67  5.6855721E-01
   7168.00  5.6545312E-01
   7168.33  5.6239622E-01
   7168.67  5.5940460E-01
   7169.00  5.5650101E-01
   7169.33  5.5372611E-01
   7169.67  5.5108890E-01
   7170.00  5.4860580E-01
   7170.33  5.4631245E-01
   7170.67  5.4419875E-01
   7171.00  5.4227400E-01
   7171.33  5.4058079E-01
   7171.67  5.3912877E-01
   7172.00  5.3796858E-01
