    FDMNES
    energy     <xanes>
   7097.00  4.4178789E-03
   7097.33  4.5173293E-03
   7097.67  4.6212322E-03
   7098.00  4.7298913E-03
   7098.33  4.8443417E-03
   7098.67  4.9643768E-03
   7099.00  5.0904122E-03
   7099.33  5.2238057E-03
   7099.67  5.3643480E-03
   7100.00  5.5126232E-03
   7100.33  5.6704603E-03
   7100.67  5.8376696E-03
   7101.00  6.0150980E-03
   7101.33  6.2052875E-03
   7101.67  6.4081169E-03
   7102.00  6.6248605E-03
   7102.33  6.8591867E-03
   7102.67  7.1111504E-03
   7103.00  7.3827559E-03
   7103.33  7.6795436E-03
   7103.67  8.0019888E-03
   7104.00  8.3534202E-03
   7104.33  8.7426910E-03
   7104.67  9.1712796E-03
   7105.00  9.6451038E-03
   7105.33  1.0179365E-02
   7105.67  1.0778049E-02
   7106.00  1.1452648E-02
   7106.33  1.2231871E-02
   7106.67  1.3126549E-02
   7107.00  1.4161880E-02
   7107.33  1.5399740E-02
   7107.67  1.6872661E-02
   7108.00  1.8646488E-02
   7108.33  2.0883954E-02
   7108.67  2.3704867E-02
   7109.00  2.7336888E-02
   7109.33  3.2374838E-02
   7109.67  3.9459648E-02
   7110.00  4.9844406E-02
   7110.33  6.7111304E-02
   7110.67  9.5050916E-02
   7111.00  1.3415772E-01
   7111.33  1.6906934E-01
   7111.67  2.0214786E-01
   7112.00  2.5283770E-01
   7112.33  3.0083050E-01
   7112.67  3.4858958E-01
   7113.00  4.2339958E-01
   7113.33  4.4439280E-01
   7113.67  3.6244279E-01
   7114.00  2.5768603E-01
   7114.33  1.9769765E-01
   7114.67  1.6677770E-01
   7115.00  1.4531452E-01
   7115.33  1.2370867E-01
   7115.67  1.0167542E-01
   7116.00  8.5670913E-02
   7116.33  7.5713805E-02
   7116.67  6.8052701E-02
   7117.00  6.2193753E-02
   7117.33  5.8802255E-02
   7117.67  5.7793579E-02
   7118.00  5.8644532E-02
   7118.33  6.1221780E-02
   7118.67  6.5390004E-02
   7119.00  7.1229705E-02
   7119.33  7.9260266E-02
   7119.67  8.9452152E-02
   7120.00  1.0134857E-01
   7120.33  1.1362970E-01
   7120.67  1.2507592E-01
   7121.00  1.3617629E-01
   7121.33  1.4882089E-01
   7121.67  1.6316752E-01
   7122.00  1.7853044E-01
   7122.33  1.9541933E-01
   7122.67  2.1386516E-01
   7123.00  2.3295066E-01
   7123.33  2.5215337E-01
   7123.67  2.7205191E-01
   7124.00  2.9292785E-01
   7124.33  3.1384048E-01
   7124.67  3.3201439E-01
   7125.00  3.4476347E-01
   7125.33  3.5076153E-01
   7125.67  3.5333820E-01
   7126.00  3.5541425E-01
   7126.33  3.5962583E-01
   7126.67  3.6671177E-01
   7127.00  3.7657729E-01
   7127.33  3.8853684E-01
   7127.67  4.0099858E-01
   7128.00  4.1297963E-01
   7128.33  4.2373906E-01
   7128.67  4.3288873E-01
   7129.00  4.3957417E-01
   7129.33  4.4235027E-01
   7129.67  4.4200561E-01
   7130.00  4.4040040E-01
   7130.33  4.4046495E-01
   7130.67  4.4370212E-01
   7131.00  4.5023934E-01
   7131.33  4.5946482E-01
   7131.67  4.6985085E-01
   7132.00  4.8053312E-01
   7132.33  4.9069320E-01
   7132.67  4.9960662E-01
   7133.00  5.0640923E-01
   7133.33  5.0961152E-01
   7133.67  5.0893954E-01
   7134.00  5.0461201E-01
   7134.33  4.9761009E-01
   7134.67  4.8995642E-01
   7135.00  4.8283072E-01
   7135.33  4.7703661E-01
   7135.67  4.7239558E-01
   7136.00  4.6866370E-01
   7136.33  4.6572912E-01
   7136.67  4.6345413E-01
   7137.00  4.6187724E-01
   7137.33  4.6121221E-01
   7137.67  4.6154210E-01
   7138.00  4.6301908E-01
   7138.33  4.6591001E-01
   7138.67  4.7007855E-01
   7139.00  4.7546488E-01
   7139.33  4.8207331E-01
   7139.67  4.8961323E-01
   7140.00  4.9795443E-01
   7140.33  5.0702498E-01
   7140.67  5.1658253E-01
   7141.00  5.2649375E-01
   7141.33  5.3665367E-01
   7141.67  5.4698035E-01
   7142.00  5.5752014E-01
   7142.33  5.6846972E-01
   7142.67  5.7994470E-01
   7143.00  5.9199284E-01
   7143.33  6.0456012E-01
   7143.67  6.1730695E-01
   7144.00  6.2989639E-01
   7144.33  6.4184570E-01
   7144.67  6.5289495E-01
   7145.00  6.6287910E-01
   7145.33  6.7161489E-01
   7145.67  6.7930940E-01
   7146.00  6.8605949E-01
   7146.33  6.9187252E-01
   7146.67  6.9694859E-01
   7147.00  7.0136855E-01
   7147.33  7.0518291E-01
   7147.67  7.0861878E-01
   7148.00  7.1184117E-01
   7148.33  7.1503217E-01
   7148.67  7.1834711E-01
   7149.00  7.2189751E-01
   7149.33  7.2583373E-01
   7149.67  7.3018123E-01
   7150.00  7.3495553E-01
   7150.33  7.4016135E-01
   7150.67  7.4563513E-01
   7151.00  7.5122142E-01
   7151.33  7.5666891E-01
   7151.67  7.6171673E-01
   7152.00  7.6611392E-01
   7152.33  7.6945855E-01
   7152.67  7.7161411E-01
   7153.00  7.7240498E-01
   7153.33  7.7150300E-01
   7153.67  7.6903655E-01
   7154.00  7.6502240E-01
   7154.33  7.5937466E-01
   7154.67  7.5244019E-01
   7155.00  7.4440149E-01
   7155.33  7.3538800E-01
   7155.67  7.2574903E-01
   7156.00  7.1567735E-01
   7156.33  7.0534310E-01
   7156.67  6.9494570E-01
   7157.00  6.8460223E-01
   7157.33  6.7443173E-01
   7157.67  6.6448036E-01
   7158.00  6.5478139E-01
   7158.33  6.4538540E-01
   7158.67  6.3625751E-01
   7159.00  6.2737939E-01
   7159.33  6.1873352E-01
   7159.67  6.1023626E-01
   7160.00  6.0183263E-01
   7160.33  5.9346144E-01
   7160.67  5.8506059E-01
   7161.00  5.7659016E-01
   7161.33  5.6800778E-01
   7161.67  5.5931866E-01
   7162.00  5.5053657E-01
   7162.33  5.4169272E-01
   7162.67  5.3285274E-01
   7163.00  5.2407874E-01
   7163.33  5.1546647E-01
   7163.67  5.0707414E-01
   7164.00  4.9895970E-01
   7164.33  4.9121660E-01
   7164.67  4.8383626E-01
   7165.00  4.7683096E-01
   7165.33  4.7024476E-01
   7165.67  4.6401468E-01
   7166.00  4.5811972E-01
   7166.33  4.5257057E-01
   7166.67  4.4730322E-01
   7167.00  4.4230107E-01
   7167.33  4.3758505E-01
   7167.67  4.3312297E-01
   7168.00  4.2892285E-01
   7168.33  4.2503743E-01
   7168.67  4.2145656E-01
   7169.00  4.1820466E-01
   7169.33  4.1535459E-01
   7169.67  4.1288646E-01
   7170.00  4.1081666E-01
   7170.33  4.0920636E-01
   7170.67  4.0800074E-01
   7171.00  4.0718094E-01
   7171.33  4.0673966E-01
   7171.67  4.0653988E-01
   7172.00  4.0645397E-01
