    FDMNES
    energy     <xanes>
   7097.00  5.4157764E-03
   7097.33  5.5572186E-03
   7097.67  5.7056366E-03
   7098.00  5.8615335E-03
   7098.33  6.0265763E-03
   7098.67  6.2004774E-03
   7099.00  6.3839326E-03
   7099.33  6.5791574E-03
   7099.67  6.7858703E-03
   7100.00  7.0050608E-03
   7100.33  7.2397554E-03
   7100.67  7.4897223E-03
   7101.00  7.7564151E-03
   7101.33  8.0441047E-03
   7101.67  8.3527052E-03
   7102.00  8.6844355E-03
   7102.33  9.0455644E-03
   7102.67  9.4363626E-03
   7103.00  9.8603806E-03
   7103.33  1.0327270E-02
   7103.67  1.0838143E-02
   7104.00  1.1399016E-02
   7104.33  1.2025666E-02
   7104.67  1.2721223E-02
   7105.00  1.3496655E-02
   7105.33  1.4379807E-02
   7105.67  1.5378947E-02
   7106.00  1.6516058E-02
   7106.33  1.7845590E-02
   7106.67  1.9390272E-02
   7107.00  2.1200312E-02
   7107.33  2.3398606E-02
   7107.67  2.6055654E-02
   7108.00  2.9310072E-02
   7108.33  3.3505797E-02
   7108.67  3.8916504E-02
   7109.00  4.6057585E-02
   7109.33  5.6294058E-02
   7109.67  7.1193906E-02
   7110.00  9.3836395E-02
   7110.33  1.3307076E-01
   7110.67  1.9780477E-01
   7111.00  2.8739614E-01
   7111.33  3.6921056E-01
   7111.67  4.2204897E-01
   7112.00  4.4573602E-01
   7112.33  4.5366828E-01
   7112.67  4.6824187E-01
   7113.00  4.9168917E-01
   7113.33  5.0873316E-01
   7113.67  4.9369247E-01
   7114.00  4.3405813E-01
   7114.33  3.5131241E-01
   7114.67  2.7821960E-01
   7115.00  2.2318613E-01
   7115.33  1.8554460E-01
   7115.67  1.5847809E-01
   7116.00  1.3891795E-01
   7116.33  1.2506411E-01
   7116.67  1.1493117E-01
   7117.00  1.0823351E-01
   7117.33  1.0542183E-01
   7117.67  1.0586040E-01
   7118.00  1.0924201E-01
   7118.33  1.1532902E-01
   7118.67  1.2264466E-01
   7119.00  1.2955300E-01
   7119.33  1.3425367E-01
   7119.67  1.3701716E-01
   7120.00  1.3906363E-01
   7120.33  1.4257246E-01
   7120.67  1.4891834E-01
   7121.00  1.5857943E-01
   7121.33  1.7136850E-01
   7121.67  1.8634230E-01
   7122.00  2.0427574E-01
   7122.33  2.2749078E-01
   7122.67  2.5676106E-01
   7123.00  2.9274703E-01
   7123.33  3.3552292E-01
   7123.67  3.8192218E-01
   7124.00  4.2929176E-01
   7124.33  4.7356896E-01
   7124.67  5.1028083E-01
   7125.00  5.3645887E-01
   7125.33  5.5241074E-01
   7125.67  5.6388886E-01
   7126.00  5.7384818E-01
   7126.33  5.8326224E-01
   7126.67  5.9154153E-01
   7127.00  5.9743052E-01
   7127.33  5.9949758E-01
   7127.67  5.9942958E-01
   7128.00  6.0034709E-01
   7128.33  6.0645318E-01
   7128.67  6.1811772E-01
   7129.00  6.3414680E-01
   7129.33  6.5315437E-01
   7129.67  6.7385141E-01
   7130.00  6.9576805E-01
   7130.33  7.1745889E-01
   7130.67  7.3553792E-01
   7131.00  7.4635855E-01
   7131.33  7.4692217E-01
   7131.67  7.4087128E-01
   7132.00  7.3224454E-01
   7132.33  7.2460438E-01
   7132.67  7.1830957E-01
   7133.00  7.1187015E-01
   7133.33  7.0276250E-01
   7133.67  6.8999437E-01
   7134.00  6.7376947E-01
   7134.33  6.5571105E-01
   7134.67  6.3881416E-01
   7135.00  6.2516835E-01
   7135.33  6.1653252E-01
   7135.67  6.1225390E-01
   7136.00  6.1147220E-01
   7136.33  6.1269380E-01
   7136.67  6.1360378E-01
   7137.00  6.1265012E-01
   7137.33  6.0838832E-01
   7137.67  6.0104536E-01
   7138.00  5.9112192E-01
   7138.33  5.7941381E-01
   7138.67  5.6728370E-01
   7139.00  5.5571973E-01
   7139.33  5.4591063E-01
   7139.67  5.3833872E-01
   7140.00  5.3324511E-01
   7140.33  5.3078396E-01
   7140.67  5.3015861E-01
   7141.00  5.3076096E-01
   7141.33  5.3185744E-01
   7141.67  5.3260980E-01
   7142.00  5.3241526E-01
   7142.33  5.3056596E-01
   7142.67  5.2701786E-01
   7143.00  5.2185132E-01
   7143.33  5.1527935E-01
   7143.67  5.0800614E-01
   7144.00  5.0054347E-01
   7144.33  4.9348785E-01
   7144.67  4.8723356E-01
   7145.00  4.8203339E-01
   7145.33  4.7815167E-01
   7145.67  4.7534971E-01
   7146.00  4.7338522E-01
   7146.33  4.7188764E-01
   7146.67  4.7033685E-01
   7147.00  4.6839186E-01
   7147.33  4.6572335E-01
   7147.67  4.6233937E-01
   7148.00  4.5828765E-01
   7148.33  4.5362347E-01
   7148.67  4.4858140E-01
   7149.00  4.4332034E-01
   7149.33  4.3802014E-01
   7149.67  4.3285571E-01
   7150.00  4.2795136E-01
   7150.33  4.2346236E-01
   7150.67  4.1941035E-01
   7151.00  4.1582236E-01
   7151.33  4.1275774E-01
   7151.67  4.1013695E-01
   7152.00  4.0793238E-01
   7152.33  4.0615929E-01
   7152.67  4.0474624E-01
   7153.00  4.0368544E-01
   7153.33  4.0302728E-01
   7153.67  4.0274300E-01
   7154.00  4.0284622E-01
   7154.33  4.0338880E-01
   7154.67  4.0429985E-01
   7155.00  4.0553604E-01
   7155.33  4.0705005E-01
   7155.67  4.0870918E-01
   7156.00  4.1041708E-01
   7156.33  4.1205640E-01
   7156.67  4.1353642E-01
   7157.00  4.1478545E-01
   7157.33  4.1569980E-01
   7157.67  4.1626947E-01
   7158.00  4.1646936E-01
   7158.33  4.1623902E-01
   7158.67  4.1562771E-01
   7159.00  4.1464330E-01
   7159.33  4.1325211E-01
   7159.67  4.1150974E-01
   7160.00  4.0942321E-01
   7160.33  4.0695857E-01
   7160.67  4.0417047E-01
   7161.00  4.0107907E-01
   7161.33  3.9769150E-01
   7161.67  3.9410046E-01
   7162.00  3.9037448E-01
   7162.33  3.8660697E-01
   7162.67  3.8290831E-01
   7163.00  3.7936093E-01
   7163.33  3.7607194E-01
   7163.67  3.7307377E-01
   7164.00  3.7040078E-01
   7164.33  3.6811122E-01
   7164.67  3.6615728E-01
   7165.00  3.6452490E-01
   7165.33  3.6323171E-01
   7165.67  3.6222150E-01
   7166.00  3.6148225E-01
   7166.33  3.6103914E-01
   7166.67  3.6085932E-01
   7167.00  3.6094838E-01
   7167.33  3.6135177E-01
   7167.67  3.6204607E-01
   7168.00  3.6303955E-01
   7168.33  3.6437571E-01
   7168.67  3.6601517E-01
   7169.00  3.6795003E-01
   7169.33  3.7019667E-01
   7169.67  3.7269181E-01
   7170.00  3.7540226E-01
   7170.33  3.7829948E-01
   7170.67  3.8129963E-01
   7171.00  3.8433268E-01
   7171.33  3.8727384E-01
   7171.67  3.8995340E-01
   7172.00  3.9215360E-01
