    FDMNES
    energy     <xanes>
   7097.00  4.4312138E-03
   7097.33  4.5264260E-03
   7097.67  4.6257547E-03
   7098.00  4.7294731E-03
   7098.33  4.8385254E-03
   7098.67  4.9527101E-03
   7099.00  5.0723982E-03
   7099.33  5.1988188E-03
   7099.67  5.3317642E-03
   7100.00  5.4717513E-03
   7100.33  5.6204217E-03
   7100.67  5.7775782E-03
   7101.00  5.9439634E-03
   7101.33  6.1218359E-03
   7101.67  6.3110476E-03
   7102.00  6.5127032E-03
   7102.33  6.7300237E-03
   7102.67  6.9629946E-03
   7103.00  7.2133304E-03
   7103.33  7.4858285E-03
   7103.67  7.7807979E-03
   7104.00  8.1010424E-03
   7104.33  8.4541010E-03
   7104.67  8.8410562E-03
   7105.00  9.2668009E-03
   7105.33  9.7440240E-03
   7105.67  1.0275724E-02
   7106.00  1.0871198E-02
   7106.33  1.1553828E-02
   7106.67  1.2331775E-02
   7107.00  1.3224877E-02
   7107.33  1.4282055E-02
   7107.67  1.5527491E-02
   7108.00  1.7011384E-02
   7108.33  1.8857805E-02
   7108.67  2.1153919E-02
   7109.00  2.4067146E-02
   7109.33  2.8033407E-02
   7109.67  3.3509023E-02
   7110.00  4.1385589E-02
   7110.33  5.4151678E-02
   7110.67  7.3924987E-02
   7111.00  9.9560980E-02
   7111.33  1.2476251E-01
   7111.67  1.5504898E-01
   7112.00  1.9859050E-01
   7112.33  2.5920786E-01
   7112.67  3.2547539E-01
   7113.00  3.7862226E-01
   7113.33  3.8422214E-01
   7113.67  3.4080733E-01
   7114.00  2.6540118E-01
   7114.33  1.9723382E-01
   7114.67  1.5647578E-01
   7115.00  1.4073373E-01
   7115.33  1.4669708E-01
   7115.67  1.6356057E-01
   7116.00  1.7647092E-01
   7116.33  1.7813716E-01
   7116.67  1.8466651E-01
   7117.00  1.9609367E-01
   7117.33  1.8814115E-01
   7117.67  1.6046122E-01
   7118.00  1.3181875E-01
   7118.33  1.1358375E-01
   7118.67  1.0343393E-01
   7119.00  9.9462529E-02
   7119.33  9.9789661E-02
   7119.67  1.0076413E-01
   7120.00  1.0090297E-01
   7120.33  1.0028410E-01
   7120.67  9.9568360E-02
   7121.00  9.9586653E-02
   7121.33  1.0119969E-01
   7121.67  1.0421631E-01
   7122.00  1.0835654E-01
   7122.33  1.1333214E-01
   7122.67  1.1878217E-01
   7123.00  1.2468410E-01
   7123.33  1.3122564E-01
   7123.67  1.3838126E-01
   7124.00  1.4606995E-01
   7124.33  1.5410495E-01
   7124.67  1.6213641E-01
   7125.00  1.6997453E-01
   7125.33  1.7763868E-01
   7125.67  1.8528126E-01
   7126.00  1.9290721E-01
   7126.33  2.0068828E-01
   7126.67  2.0932891E-01
   7127.00  2.1977764E-01
   7127.33  2.3320845E-01
   7127.67  2.4925165E-01
   7128.00  2.6707398E-01
   7128.33  2.8535259E-01
   7128.67  3.0306236E-01
   7129.00  3.2007573E-01
   7129.33  3.3694440E-01
   7129.67  3.5461276E-01
   7130.00  3.7386288E-01
   7130.33  3.9560683E-01
   7130.67  4.1964880E-01
   7131.00  4.4548990E-01
   7131.33  4.7213356E-01
   7131.67  4.9834168E-01
   7132.00  5.2346696E-01
   7132.33  5.4720984E-01
   7132.67  5.7009615E-01
   7133.00  5.9258256E-01
   7133.33  6.1502590E-01
   7133.67  6.3741470E-01
   7134.00  6.5936679E-01
   7134.33  6.7982487E-01
   7134.67  6.9766694E-01
   7135.00  7.1167516E-01
   7135.33  7.2011156E-01
   7135.67  7.2316902E-01
   7136.00  7.2103218E-01
   7136.33  7.1370233E-01
   7136.67  7.0251044E-01
   7137.00  6.8825118E-01
   7137.33  6.7188317E-01
   7137.67  6.5505892E-01
   7138.00  6.3897144E-01
   7138.33  6.2492736E-01
   7138.67  6.1332167E-01
   7139.00  6.0436215E-01
   7139.33  5.9835381E-01
   7139.67  5.9478732E-01
   7140.00  5.9345499E-01
   7140.33  5.9432796E-01
   7140.67  5.9686257E-01
   7141.00  6.0079858E-01
   7141.33  6.0600296E-01
   7141.67  6.1212839E-01
   7142.00  6.1906903E-01
   7142.33  6.2688359E-01
   7142.67  6.3551332E-01
   7143.00  6.4503421E-01
   7143.33  6.5568374E-01
   7143.67  6.6743028E-01
   7144.00  6.8028853E-01
   7144.33  6.9424006E-01
   7144.67  7.0876135E-01
   7145.00  7.2323628E-01
   7145.33  7.3647527E-01
   7145.67  7.4729577E-01
   7146.00  7.5452166E-01
   7146.33  7.5643568E-01
   7146.67  7.5310513E-01
   7147.00  7.4478409E-01
   7147.33  7.3212966E-01
   7147.67  7.1733194E-01
   7148.00  7.0183873E-01
   7148.33  6.8703239E-01
   7148.67  6.7365717E-01
   7149.00  6.6206198E-01
   7149.33  6.5258687E-01
   7149.67  6.4490475E-01
   7150.00  6.3886196E-01
   7150.33  6.3442953E-01
   7150.67  6.3122046E-01
   7151.00  6.2906604E-01
   7151.33  6.2789100E-01
   7151.67  6.2741526E-01
   7152.00  6.2750273E-01
   7152.33  6.2805587E-01
   7152.67  6.2888064E-01
   7153.00  6.2986328E-01
   7153.33  6.3088893E-01
   7153.67  6.3185112E-01
   7154.00  6.3268075E-01
   7154.33  6.3329643E-01
   7154.67  6.3368755E-01
   7155.00  6.3383968E-01
   7155.33  6.3371609E-01
   7155.67  6.3335253E-01
   7156.00  6.3275785E-01
   7156.33  6.3191081E-01
   7156.67  6.3083821E-01
   7157.00  6.2953148E-01
   7157.33  6.2794099E-01
   7157.67  6.2607352E-01
   7158.00  6.2390467E-01
   7158.33  6.2136391E-01
   7158.67  6.1846572E-01
   7159.00  6.1519150E-01
   7159.33  6.1147848E-01
   7159.67  6.0737362E-01
   7160.00  6.0289030E-01
   7160.33  5.9801639E-01
   7160.67  5.9283945E-01
   7161.00  5.8741002E-01
   7161.33  5.8177916E-01
   7161.67  5.7605217E-01
   7162.00  5.7030535E-01
   7162.33  5.6463740E-01
   7162.67  5.5912182E-01
   7163.00  5.5381824E-01
   7163.33  5.4881162E-01
   7163.67  5.4410007E-01
   7164.00  5.3969621E-01
   7164.33  5.3564295E-01
   7164.67  5.3189397E-01
   7165.00  5.2843039E-01
   7165.33  5.2525252E-01
   7165.67  5.2229228E-01
   7166.00  5.1951600E-01
   7166.33  5.1690142E-01
   7166.67  5.1439207E-01
   7167.00  5.1195772E-01
   7167.33  5.0957546E-01
   7167.67  5.0722335E-01
   7168.00  5.0489183E-01
   7168.33  5.0257072E-01
   7168.67  5.0025380E-01
   7169.00  4.9794316E-01
   7169.33  4.9564584E-01
   7169.67  4.9336923E-01
   7170.00  4.9112473E-01
   7170.33  4.8893684E-01
   7170.67  4.8682413E-01
   7171.00  4.8481578E-01
   7171.33  4.8297937E-01
   7171.67  4.8136850E-01
   7172.00  4.8006460E-01
