    FDMNES
    energy     <xanes>
   7097.00  4.3421744E-03
   7097.33  4.4294864E-03
   7097.67  4.5201326E-03
   7098.00  4.6143104E-03
   7098.33  4.7127445E-03
   7098.67  4.8152406E-03
   7099.00  4.9220615E-03
   7099.33  5.0341292E-03
   7099.67  5.1512389E-03
   7100.00  5.2737514E-03
   7100.33  5.4028705E-03
   7100.67  5.5383930E-03
   7101.00  5.6808309E-03
   7101.33  5.8318085E-03
   7101.67  5.9911517E-03
   7102.00  6.1596183E-03
   7102.33  6.3394916E-03
   7102.67  6.5306904E-03
   7103.00  6.7343960E-03
   7103.33  6.9539886E-03
   7103.67  7.1896320E-03
   7104.00  7.4432908E-03
   7104.33  7.7203155E-03
   7104.67  8.0214956E-03
   7105.00  8.3503822E-03
   7105.33  8.7162232E-03
   7105.67  9.1214794E-03
   7106.00  9.5733090E-03
   7106.33  1.0089718E-02
   7106.67  1.0678102E-02
   7107.00  1.1355213E-02
   7107.33  1.2162485E-02
   7107.67  1.3124562E-02
   7108.00  1.4290061E-02
   7108.33  1.5781112E-02
   7108.67  1.7701429E-02
   7109.00  2.0247507E-02
   7109.33  2.3951623E-02
   7109.67  2.9471869E-02
   7110.00  3.8117019E-02
   7110.33  5.3635905E-02
   7110.67  7.8893953E-02
   7111.00  1.0871750E-01
   7111.33  1.2186965E-01
   7111.67  1.2059801E-01
   7112.00  1.1801131E-01
   7112.33  1.2063305E-01
   7112.67  1.2086031E-01
   7113.00  1.1436040E-01
   7113.33  1.0003964E-01
   7113.67  8.4379810E-02
   7114.00  7.2320270E-02
   7114.33  6.5514932E-02
   7114.67  6.2204124E-02
   7115.00  6.1448529E-02
   7115.33  6.2870211E-02
   7115.67  6.5983539E-02
   7116.00  7.0734745E-02
   7116.33  7.7330195E-02
   7116.67  8.5603061E-02
   7117.00  9.5627449E-02
   7117.33  1.0776290E-01
   7117.67  1.2190177E-01
   7118.00  1.3813170E-01
   7118.33  1.5677977E-01
   7118.67  1.7760702E-01
   7119.00  2.0068271E-01
   7119.33  2.2627649E-01
   7119.67  2.5318232E-01
   7120.00  2.7921930E-01
   7120.33  3.0076332E-01
   7120.67  3.1719861E-01
   7121.00  3.2985937E-01
   7121.33  3.4104661E-01
   7121.67  3.5263544E-01
   7122.00  3.6506134E-01
   7122.33  3.7782264E-01
   7122.67  3.8968315E-01
   7123.00  3.9968636E-01
   7123.33  4.0697642E-01
   7123.67  4.1180031E-01
   7124.00  4.1441406E-01
   7124.33  4.1565976E-01
   7124.67  4.1779471E-01
   7125.00  4.2296153E-01
   7125.33  4.3261438E-01
   7125.67  4.4493117E-01
   7126.00  4.5834607E-01
   7126.33  4.7180245E-01
   7126.67  4.8475529E-01
   7127.00  4.9659349E-01
   7127.33  5.0566380E-01
   7127.67  5.1103850E-01
   7128.00  5.1321866E-01
   7128.33  5.1459788E-01
   7128.67  5.1765657E-01
   7129.00  5.2316730E-01
   7129.33  5.3095531E-01
   7129.67  5.3978065E-01
   7130.00  5.4877211E-01
   7130.33  5.5685414E-01
   7130.67  5.6338311E-01
   7131.00  5.6820878E-01
   7131.33  5.7172081E-01
   7131.67  5.7502971E-01
   7132.00  5.7887535E-01
   7132.33  5.8375965E-01
   7132.67  5.8935182E-01
   7133.00  5.9509949E-01
   7133.33  6.0027880E-01
   7133.67  6.0493578E-01
   7134.00  6.0974898E-01
   7134.33  6.1574756E-01
   7134.67  6.2322186E-01
   7135.00  6.3224595E-01
   7135.33  6.4295078E-01
   7135.67  6.5498214E-01
   7136.00  6.6813397E-01
   7136.33  6.8216974E-01
   7136.67  6.9644081E-01
   7137.00  7.1020598E-01
   7137.33  7.2206239E-01
   7137.67  7.3086495E-01
   7138.00  7.3560429E-01
   7138.33  7.3507839E-01
   7138.67  7.3003820E-01
   7139.00  7.2115889E-01
   7139.33  7.0918706E-01
   7139.67  6.9555329E-01
   7140.00  6.8102312E-01
   7140.33  6.6620383E-01
   7140.67  6.5152640E-01
   7141.00  6.3719240E-01
   7141.33  6.2338776E-01
   7141.67  6.1009201E-01
   7142.00  5.9729256E-01
   7142.33  5.8502938E-01
   7142.67  5.7323817E-01
   7143.00  5.6192671E-01
   7143.33  5.5117372E-01
   7143.67  5.4093645E-01
   7144.00  5.3122985E-01
   7144.33  5.2213282E-01
   7144.67  5.1358079E-01
   7145.00  5.0556987E-01
   7145.33  4.9815439E-01
   7145.67  4.9125205E-01
   7146.00  4.8484872E-01
   7146.33  4.7899069E-01
   7146.67  4.7360833E-01
   7147.00  4.6870029E-01
   7147.33  4.6433148E-01
   7147.67  4.6044918E-01
   7148.00  4.5706010E-01
   7148.33  4.5424314E-01
   7148.67  4.5195378E-01
   7149.00  4.5020575E-01
   7149.33  4.4907994E-01
   7149.67  4.4851671E-01
   7150.00  4.4852293E-01
   7150.33  4.4917500E-01
   7150.67  4.5040048E-01
   7151.00  4.5219386E-01
   7151.33  4.5461227E-01
   7151.67  4.5756227E-01
   7152.00  4.6100095E-01
   7152.33  4.6491397E-01
   7152.67  4.6918174E-01
   7153.00  4.7373858E-01
   7153.33  4.7851977E-01
   7153.67  4.8339640E-01
   7154.00  4.8826211E-01
   7154.33  4.9297252E-01
   7154.67  4.9743851E-01
   7155.00  5.0158228E-01
   7155.33  5.0528318E-01
   7155.67  5.0854616E-01
   7156.00  5.1135394E-01
   7156.33  5.1365138E-01
   7156.67  5.1551600E-01
   7157.00  5.1697593E-01
   7157.33  5.1802410E-01
   7157.67  5.1874580E-01
   7158.00  5.1917114E-01
   7158.33  5.1929542E-01
   7158.67  5.1917543E-01
   7159.00  5.1882714E-01
   7159.33  5.1823774E-01
   7159.67  5.1744500E-01
   7160.00  5.1645690E-01
   7160.33  5.1525800E-01
   7160.67  5.1387998E-01
   7161.00  5.1233384E-01
   7161.33  5.1061628E-01
   7161.67  5.0876372E-01
   7162.00  5.0679229E-01
   7162.33  5.0470836E-01
   7162.67  5.0254200E-01
   7163.00  5.0030694E-01
   7163.33  4.9801070E-01
   7163.67  4.9567194E-01
   7164.00  4.9329801E-01
   7164.33  4.9088964E-01
   7164.67  4.8845188E-01
   7165.00  4.8598421E-01
   7165.33  4.8348124E-01
   7165.67  4.8094550E-01
   7166.00  4.7837643E-01
   7166.33  4.7577184E-01
   7166.67  4.7314212E-01
   7167.00  4.7049745E-01
   7167.33  4.6785522E-01
   7167.67  4.6523738E-01
   7168.00  4.6266588E-01
   7168.33  4.6017747E-01
   7168.67  4.5779105E-01
   7169.00  4.5552990E-01
   7169.33  4.5343708E-01
   7169.67  4.5151407E-01
   7170.00  4.4977400E-01
   7170.33  4.4825036E-01
   7170.67  4.4692269E-01
   7171.00  4.4579010E-01
   7171.33  4.4487131E-01
   7171.67  4.4413447E-01
   7172.00  4.4356914E-01
