    FDMNES
    energy     <xanes>
   7097.00  4.2774195E-03
   7097.33  4.3573596E-03
   7097.67  4.4401531E-03
   7098.00  4.5259611E-03
   7098.33  4.6153920E-03
   7098.67  4.7082704E-03
   7099.00  4.8048102E-03
   7099.33  4.9057790E-03
   7099.67  5.0109920E-03
   7100.00  5.1207414E-03
   7100.33  5.2360224E-03
   7100.67  5.3566496E-03
   7101.00  5.4830368E-03
   7101.33  5.6165175E-03
   7101.67  5.7569282E-03
   7102.00  5.9048794E-03
   7102.33  6.0622339E-03
   7102.67  6.2289009E-03
   7103.00  6.4058297E-03
   7103.33  6.5957617E-03
   7103.67  6.7987990E-03
   7104.00  7.0165157E-03
   7104.33  7.2532253E-03
   7104.67  7.5095215E-03
   7105.00  7.7882350E-03
   7105.33  8.0967687E-03
   7105.67  8.4370163E-03
   7106.00  8.8146353E-03
   7106.33  9.2438876E-03
   7106.67  9.7304443E-03
   7107.00  1.0287348E-02
   7107.33  1.0946847E-02
   7107.67  1.1727498E-02
   7108.00  1.2666187E-02
   7108.33  1.3855165E-02
   7108.67  1.5369949E-02
   7109.00  1.7353443E-02
   7109.33  2.0188380E-02
   7109.67  2.4330320E-02
   7110.00  3.0680369E-02
   7110.33  4.1845672E-02
   7110.67  6.0351989E-02
   7111.00  8.4981759E-02
   7111.33  1.0177401E-01
   7111.67  1.0696688E-01
   7112.00  1.0734914E-01
   7112.33  1.0502388E-01
   7112.67  1.0400091E-01
   7113.00  1.0928104E-01
   7113.33  1.1429761E-01
   7113.67  1.0536985E-01
   7114.00  8.8982602E-02
   7114.33  7.4405647E-02
   7114.67  6.0263220E-02
   7115.00  4.8571573E-02
   7115.33  4.1549328E-02
   7115.67  3.7537953E-02
   7116.00  3.5487092E-02
   7116.33  3.4808603E-02
   7116.67  3.4950790E-02
   7117.00  3.5739150E-02
   7117.33  3.7161673E-02
   7117.67  3.9130073E-02
   7118.00  4.1657940E-02
   7118.33  4.4910133E-02
   7118.67  4.9002523E-02
   7119.00  5.4154031E-02
   7119.33  6.0856931E-02
   7119.67  6.9431554E-02
   7120.00  8.0369168E-02
   7120.33  9.4284947E-02
   7120.67  1.1047367E-01
   7121.00  1.2853231E-01
   7121.33  1.4983179E-01
   7121.67  1.7638421E-01
   7122.00  2.0919029E-01
   7122.33  2.4631063E-01
   7122.67  2.8136353E-01
   7123.00  3.1005311E-01
   7123.33  3.3177182E-01
   7123.67  3.5113597E-01
   7124.00  3.7087144E-01
   7124.33  3.9225637E-01
   7124.67  4.1504426E-01
   7125.00  4.3920125E-01
   7125.33  4.6476131E-01
   7125.67  4.9031071E-01
   7126.00  5.1367463E-01
   7126.33  5.3190887E-01
   7126.67  5.4590723E-01
   7127.00  5.5848615E-01
   7127.33  5.7441999E-01
   7127.67  5.9778312E-01
   7128.00  6.3106511E-01
   7128.33  6.7528808E-01
   7128.67  7.2630477E-01
   7129.00  7.8094204E-01
   7129.33  8.3577283E-01
   7129.67  8.8647569E-01
   7130.00  9.2765898E-01
   7130.33  9.5013010E-01
   7130.67  9.5199520E-01
   7131.00  9.3541699E-01
   7131.33  9.0717118E-01
   7131.67  8.7706867E-01
   7132.00  8.4931705E-01
   7132.33  8.2569604E-01
   7132.67  8.0540232E-01
   7133.00  7.8827316E-01
   7133.33  7.7526312E-01
   7133.67  7.6655235E-01
   7134.00  7.6187288E-01
   7134.33  7.5953121E-01
   7134.67  7.5666173E-01
   7135.00  7.5216545E-01
   7135.33  7.4641472E-01
   7135.67  7.4081423E-01
   7136.00  7.3620050E-01
   7136.33  7.3304154E-01
   7136.67  7.3077846E-01
   7137.00  7.2866213E-01
   7137.33  7.2552430E-01
   7137.67  7.2057973E-01
   7138.00  7.1341010E-01
   7138.33  7.0375332E-01
   7138.67  6.9232288E-01
   7139.00  6.7965722E-01
   7139.33  6.6630954E-01
   7139.67  6.5288194E-01
   7140.00  6.3971589E-01
   7140.33  6.2715539E-01
   7140.67  6.1531170E-01
   7141.00  6.0427542E-01
   7141.33  5.9419174E-01
   7141.67  5.8493513E-01
   7142.00  5.7645372E-01
   7142.33  5.6874869E-01
   7142.67  5.6163948E-01
   7143.00  5.5504752E-01
   7143.33  5.4893979E-01
   7143.67  5.4317625E-01
   7144.00  5.3767763E-01
   7144.33  5.3236003E-01
   7144.67  5.2708870E-01
   7145.00  5.2176336E-01
   7145.33  5.1625549E-01
   7145.67  5.1049812E-01
   7146.00  5.0443969E-01
   7146.33  4.9800707E-01
   7146.67  4.9123817E-01
   7147.00  4.8414928E-01
   7147.33  4.7674133E-01
   7147.67  4.6910376E-01
   7148.00  4.6130349E-01
   7148.33  4.5344417E-01
   7148.67  4.4568307E-01
   7149.00  4.3818280E-01
   7149.33  4.3120861E-01
   7149.67  4.2489510E-01
   7150.00  4.1938078E-01
   7150.33  4.1489172E-01
   7150.67  4.1135446E-01
   7151.00  4.0873382E-01
   7151.33  4.0700962E-01
   7151.67  4.0588697E-01
   7152.00  4.0514656E-01
   7152.33  4.0449386E-01
   7152.67  4.0358494E-01
   7153.00  4.0214395E-01
   7153.33  3.9980304E-01
   7153.67  3.9648091E-01
   7154.00  3.9210861E-01
   7154.33  3.8658553E-01
   7154.67  3.8016383E-01
   7155.00  3.7300300E-01
   7155.33  3.6525811E-01
   7155.67  3.5722006E-01
   7156.00  3.4906543E-01
   7156.33  3.4097707E-01
   7156.67  3.3309325E-01
   7157.00  3.2551685E-01
   7157.33  3.1839365E-01
   7157.67  3.1174522E-01
   7158.00  3.0561799E-01
   7158.33  3.0012397E-01
   7158.67  2.9522800E-01
   7159.00  2.9095970E-01
   7159.33  2.8744212E-01
   7159.67  2.8464486E-01
   7160.00  2.8262616E-01
   7160.33  2.8157146E-01
   7160.67  2.8145470E-01
   7161.00  2.8233947E-01
   7161.33  2.8441561E-01
   7161.67  2.8758472E-01
   7162.00  2.9185205E-01
   7162.33  2.9732289E-01
   7162.67  3.0379876E-01
   7163.00  3.1120004E-01
   7163.33  3.1952732E-01
   7163.67  3.2856573E-01
   7164.00  3.3820600E-01
   7164.33  3.4836625E-01
   7164.67  3.5884597E-01
   7165.00  3.6952671E-01
   7165.33  3.8029183E-01
   7165.67  3.9102470E-01
   7166.00  4.0165147E-01
   7166.33  4.1208898E-01
   7166.67  4.2232030E-01
   7167.00  4.3232840E-01
   7167.33  4.4207662E-01
   7167.67  4.5158952E-01
   7168.00  4.6085900E-01
   7168.33  4.6983214E-01
   7168.67  4.7850560E-01
   7169.00  4.8683352E-01
   7169.33  4.9469632E-01
   7169.67  5.0206691E-01
   7170.00  5.0887421E-01
   7170.33  5.1495922E-01
   7170.67  5.2033566E-01
   7171.00  5.2496186E-01
   7171.33  5.2871733E-01
   7171.67  5.3170763E-01
   7172.00  5.3397525E-01
