    FDMNES
    energy     <xanes>
   7097.00  5.4427879E-03
   7097.33  5.5860886E-03
   7097.67  5.7365074E-03
   7098.00  5.8945601E-03
   7098.33  6.0619514E-03
   7098.67  6.2383905E-03
   7099.00  6.4245904E-03
   7099.33  6.6228178E-03
   7099.67  6.8327874E-03
   7100.00  7.0555126E-03
   7100.33  7.2940887E-03
   7100.67  7.5482798E-03
   7101.00  7.8195710E-03
   7101.33  8.1123265E-03
   7101.67  8.4264528E-03
   7102.00  8.7642104E-03
   7102.33  9.1319880E-03
   7102.67  9.5300406E-03
   7103.00  9.9619649E-03
   7103.33  1.0437551E-02
   7103.67  1.0957868E-02
   7104.00  1.1528956E-02
   7104.33  1.2166691E-02
   7104.67  1.2874060E-02
   7105.00  1.3661924E-02
   7105.33  1.4557928E-02
   7105.67  1.5569829E-02
   7106.00  1.6718934E-02
   7106.33  1.8058101E-02
   7106.67  1.9608046E-02
   7107.00  2.1415768E-02
   7107.33  2.3596157E-02
   7107.67  2.6210434E-02
   7108.00  2.9381086E-02
   7108.33  3.3409236E-02
   7108.67  3.8513861E-02
   7109.00  4.5107404E-02
   7109.33  5.4253113E-02
   7109.67  6.7047254E-02
   7110.00  8.5603035E-02
   7110.33  1.1596213E-01
   7110.67  1.6586751E-01
   7111.00  2.4511595E-01
   7111.33  3.5011928E-01
   7111.67  4.4392965E-01
   7112.00  5.2374191E-01
   7112.33  6.2080004E-01
   7112.67  7.1240278E-01
   7113.00  7.1568204E-01
   7113.33  5.9127105E-01
   7113.67  4.4600841E-01
   7114.00  3.3469078E-01
   7114.33  2.6055581E-01
   7114.67  2.0701654E-01
   7115.00  1.6953055E-01
   7115.33  1.4603473E-01
   7115.67  1.3111951E-01
   7116.00  1.2099959E-01
   7116.33  1.1194862E-01
   7116.67  1.0269633E-01
   7117.00  9.3797606E-02
   7117.33  8.6904355E-02
   7117.67  8.2533884E-02
   7118.00  8.0657568E-02
   7118.33  8.1305569E-02
   7118.67  8.3988098E-02
   7119.00  8.8421270E-02
   7119.33  9.3993111E-02
   7119.67  1.0013328E-01
   7120.00  1.0686811E-01
   7120.33  1.1423362E-01
   7120.67  1.2246154E-01
   7121.00  1.3188084E-01
   7121.33  1.4290271E-01
   7121.67  1.5588013E-01
   7122.00  1.7193912E-01
   7122.33  1.9363973E-01
   7122.67  2.2231431E-01
   7123.00  2.5910873E-01
   7123.33  3.0502434E-01
   7123.67  3.5777807E-01
   7124.00  4.1664281E-01
   7124.33  4.8133292E-01
   7124.67  5.4632712E-01
   7125.00  6.0429128E-01
   7125.33  6.4585750E-01
   7125.67  6.6934718E-01
   7126.00  6.7551659E-01
   7126.33  6.6779699E-01
   7126.67  6.5426435E-01
   7127.00  6.3929809E-01
   7127.33  6.2470358E-01
   7127.67  6.0919580E-01
   7128.00  5.9155856E-01
   7128.33  5.7166335E-01
   7128.67  5.5125948E-01
   7129.00  5.3199902E-01
   7129.33  5.1588340E-01
   7129.67  5.0358537E-01
   7130.00  4.9558481E-01
   7130.33  4.9295576E-01
   7130.67  4.9565642E-01
   7131.00  5.0410398E-01
   7131.33  5.1916559E-01
   7131.67  5.3952282E-01
   7132.00  5.6394476E-01
   7132.33  5.9045396E-01
   7132.67  6.1618399E-01
   7133.00  6.3907600E-01
   7133.33  6.5717026E-01
   7133.67  6.7099740E-01
   7134.00  6.8124536E-01
   7134.33  6.8775467E-01
   7134.67  6.9008843E-01
   7135.00  6.8748148E-01
   7135.33  6.7966472E-01
   7135.67  6.6887851E-01
   7136.00  6.5701974E-01
   7136.33  6.4627357E-01
   7136.67  6.3808241E-01
   7137.00  6.3329143E-01
   7137.33  6.3274261E-01
   7137.67  6.3574894E-01
   7138.00  6.4180475E-01
   7138.33  6.5045834E-01
   7138.67  6.6069605E-01
   7139.00  6.7196822E-01
   7139.33  6.8373496E-01
   7139.67  6.9528160E-01
   7140.00  7.0589372E-01
   7140.33  7.1429689E-01
   7140.67  7.1965854E-01
   7141.00  7.2124691E-01
   7141.33  7.1817769E-01
   7141.67  7.1124757E-01
   7142.00  7.0121160E-01
   7142.33  6.8899280E-01
   7142.67  6.7589869E-01
   7143.00  6.6268455E-01
   7143.33  6.5007520E-01
   7143.67  6.3840681E-01
   7144.00  6.2784384E-01
   7144.33  6.1855636E-01
   7144.67  6.1030973E-01
   7145.00  6.0296357E-01
   7145.33  5.9639894E-01
   7145.67  5.9029875E-01
   7146.00  5.8446024E-01
   7146.33  5.7866311E-01
   7146.67  5.7271535E-01
   7147.00  5.6651028E-01
   7147.33  5.5997591E-01
   7147.67  5.5322343E-01
   7148.00  5.4640021E-01
   7148.33  5.3975602E-01
   7148.67  5.3350209E-01
   7149.00  5.2779598E-01
   7149.33  5.2281783E-01
   7149.67  5.1848794E-01
   7150.00  5.1475092E-01
   7150.33  5.1157435E-01
   7150.67  5.0880086E-01
   7151.00  5.0636577E-01
   7151.33  5.0425292E-01
   7151.67  5.0238790E-01
   7152.00  5.0073414E-01
   7152.33  4.9924616E-01
   7152.67  4.9780792E-01
   7153.00  4.9630728E-01
   7153.33  4.9456022E-01
   7153.67  4.9242437E-01
   7154.00  4.8975802E-01
   7154.33  4.8633304E-01
   7154.67  4.8212948E-01
   7155.00  4.7709872E-01
   7155.33  4.7112858E-01
   7155.67  4.6436611E-01
   7156.00  4.5688503E-01
   7156.33  4.4873368E-01
   7156.67  4.4014068E-01
   7157.00  4.3125368E-01
   7157.33  4.2223183E-01
   7157.67  4.1324671E-01
   7158.00  4.0440258E-01
   7158.33  3.9579865E-01
   7158.67  3.8742681E-01
   7159.00  3.7926878E-01
   7159.33  3.7130605E-01
   7159.67  3.6348214E-01
   7160.00  3.5578731E-01
   7160.33  3.4826086E-01
   7160.67  3.4093791E-01
   7161.00  3.3388439E-01
   7161.33  3.2723081E-01
   7161.67  3.2101931E-01
   7162.00  3.1531935E-01
   7162.33  3.1027307E-01
   7162.67  3.0586145E-01
   7163.00  3.0211690E-01
   7163.33  2.9914295E-01
   7163.67  2.9684645E-01
   7164.00  2.9520919E-01
   7164.33  2.9428167E-01
   7164.67  2.9394674E-01
   7165.00  2.9416483E-01
   7165.33  2.9494830E-01
   7165.67  2.9618320E-01
   7166.00  2.9782766E-01
   7166.33  2.9988242E-01
   7166.67  3.0226176E-01
   7167.00  3.0493480E-01
   7167.33  3.0790189E-01
   7167.67  3.1110053E-01
   7168.00  3.1450616E-01
   7168.33  3.1811304E-01
   7168.67  3.2187084E-01
   7169.00  3.2575553E-01
   7169.33  3.2975175E-01
   7169.67  3.3381912E-01
   7170.00  3.3793191E-01
   7170.33  3.4205676E-01
   7170.67  3.4614716E-01
   7171.00  3.5014743E-01
   7171.33  3.5392835E-01
   7171.67  3.5732788E-01
   7172.00  3.6010536E-01
