    FDMNES
    energy     <xanes>
   7097.00  5.0357410E-03
   7097.33  5.1553538E-03
   7097.67  5.2803502E-03
   7098.00  5.4110917E-03
   7098.33  5.5488194E-03
   7098.67  5.6932748E-03
   7099.00  5.8449499E-03
   7099.33  6.0054648E-03
   7099.67  6.1745546E-03
   7100.00  6.3529067E-03
   7100.33  6.5426918E-03
   7100.67  6.7436630E-03
   7101.00  6.9568113E-03
   7101.33  7.1851364E-03
   7101.67  7.4284636E-03
   7102.00  7.6882759E-03
   7102.33  7.9688743E-03
   7102.67  8.2702771E-03
   7103.00  8.5948028E-03
   7103.33  8.9489029E-03
   7103.67  9.3330611E-03
   7104.00  9.7511020E-03
   7104.33  1.0213256E-02
   7104.67  1.0721118E-02
   7105.00  1.1281432E-02
   7105.33  1.1911602E-02
   7105.67  1.2615974E-02
   7106.00  1.3407502E-02
   7106.33  1.4318622E-02
   7106.67  1.5361061E-02
   7107.00  1.6562674E-02
   7107.33  1.7991872E-02
   7107.67  1.9682892E-02
   7108.00  2.1705932E-02
   7108.33  2.4233350E-02
   7108.67  2.7383687E-02
   7109.00  3.1382085E-02
   7109.33  3.6803477E-02
   7109.67  4.4209318E-02
   7110.00  5.4673077E-02
   7110.33  7.1161022E-02
   7110.67  9.6846430E-02
   7111.00  1.3476144E-01
   7111.33  1.9050213E-01
   7111.67  2.7166721E-01
   7112.00  3.7880532E-01
   7112.33  4.9086326E-01
   7112.67  5.2603688E-01
   7113.00  4.4211309E-01
   7113.33  3.2272062E-01
   7113.67  2.3378616E-01
   7114.00  1.7648496E-01
   7114.33  1.4261144E-01
   7114.67  1.2140873E-01
   7115.00  1.0875180E-01
   7115.33  1.0241743E-01
   7115.67  1.0027723E-01
   7116.00  1.0252508E-01
   7116.33  1.1083827E-01
   7116.67  1.2560003E-01
   7117.00  1.4648087E-01
   7117.33  1.6713062E-01
   7117.67  1.7552347E-01
   7118.00  1.6995319E-01
   7118.33  1.6114237E-01
   7118.67  1.5694326E-01
   7119.00  1.5819306E-01
   7119.33  1.6511332E-01
   7119.67  1.7555427E-01
   7120.00  1.8687750E-01
   7120.33  1.9816089E-01
   7120.67  2.1164800E-01
   7121.00  2.2934970E-01
   7121.33  2.5332344E-01
   7121.67  2.8320059E-01
   7122.00  3.1872971E-01
   7122.33  3.5981788E-01
   7122.67  4.0446303E-01
   7123.00  4.5092749E-01
   7123.33  4.9679601E-01
   7123.67  5.3942337E-01
   7124.00  5.7588549E-01
   7124.33  6.0166637E-01
   7124.67  6.1673373E-01
   7125.00  6.2249198E-01
   7125.33  6.2144059E-01
   7125.67  6.1729106E-01
   7126.00  6.1151212E-01
   7126.33  6.0482738E-01
   7126.67  5.9807477E-01
   7127.00  5.9206018E-01
   7127.33  5.8755248E-01
   7127.67  5.8417670E-01
   7128.00  5.8130085E-01
   7128.33  5.7803474E-01
   7128.67  5.7352812E-01
   7129.00  5.6689742E-01
   7129.33  5.5686292E-01
   7129.67  5.4379825E-01
   7130.00  5.2878272E-01
   7130.33  5.1382729E-01
   7130.67  5.0067752E-01
   7131.00  4.9011152E-01
   7131.33  4.8265156E-01
   7131.67  4.7782495E-01
   7132.00  4.7551305E-01
   7132.33  4.7582343E-01
   7132.67  4.7815964E-01
   7133.00  4.8220267E-01
   7133.33  4.8776859E-01
   7133.67  4.9439805E-01
   7134.00  5.0190815E-01
   7134.33  5.1026490E-01
   7134.67  5.1930307E-01
   7135.00  5.2894774E-01
   7135.33  5.3911265E-01
   7135.67  5.4960275E-01
   7136.00  5.6041417E-01
   7136.33  5.7181458E-01
   7136.67  5.8409614E-01
   7137.00  5.9757108E-01
   7137.33  6.1265345E-01
   7137.67  6.2916354E-01
   7138.00  6.4685688E-01
   7138.33  6.6520236E-01
   7138.67  6.8319997E-01
   7139.00  6.9987781E-01
   7139.33  7.1377820E-01
   7139.67  7.2427458E-01
   7140.00  7.3088715E-01
   7140.33  7.3301167E-01
   7140.67  7.3148665E-01
   7141.00  7.2686482E-01
   7141.33  7.1966284E-01
   7141.67  7.1096729E-01
   7142.00  7.0133559E-01
   7142.33  6.9121636E-01
   7142.67  6.8106181E-01
   7143.00  6.7113784E-01
   7143.33  6.6173037E-01
   7143.67  6.5293970E-01
   7144.00  6.4485870E-01
   7144.33  6.3765451E-01
   7144.67  6.3126347E-01
   7145.00  6.2569180E-01
   7145.33  6.2102168E-01
   7145.67  6.1707612E-01
   7146.00  6.1374565E-01
   7146.33  6.1093983E-01
   7146.67  6.0845119E-01
   7147.00  6.0616643E-01
   7147.33  6.0399502E-01
   7147.67  6.0185653E-01
   7148.00  5.9971681E-01
   7148.33  5.9754818E-01
   7148.67  5.9533065E-01
   7149.00  5.9303653E-01
   7149.33  5.9060493E-01
   7149.67  5.8799142E-01
   7150.00  5.8513711E-01
   7150.33  5.8193285E-01
   7150.67  5.7835486E-01
   7151.00  5.7436267E-01
   7151.33  5.6987570E-01
   7151.67  5.6494984E-01
   7152.00  5.5960662E-01
   7152.33  5.5384452E-01
   7152.67  5.4777090E-01
   7153.00  5.4144506E-01
   7153.33  5.3491370E-01
   7153.67  5.2826267E-01
   7154.00  5.2153701E-01
   7154.33  5.1477063E-01
   7154.67  5.0799094E-01
   7155.00  5.0120665E-01
   7155.33  4.9441586E-01
   7155.67  4.8760947E-01
   7156.00  4.8077471E-01
   7156.33  4.7388754E-01
   7156.67  4.6693440E-01
   7157.00  4.5989907E-01
   7157.33  4.5274971E-01
   7157.67  4.4547977E-01
   7158.00  4.3807504E-01
   7158.33  4.3050528E-01
   7158.67  4.2278561E-01
   7159.00  4.1492500E-01
   7159.33  4.0693663E-01
   7159.67  3.9888013E-01
   7160.00  3.9080717E-01
   7160.33  3.8280000E-01
   7160.67  3.7493703E-01
   7161.00  3.6729331E-01
   7161.33  3.5999168E-01
   7161.67  3.5307124E-01
   7162.00  3.4658885E-01
   7162.33  3.4065878E-01
   7162.67  3.3525816E-01
   7163.00  3.3041021E-01
   7163.33  3.2620345E-01
   7163.67  3.2257550E-01
   7164.00  3.1952809E-01
   7164.33  3.1712892E-01
   7164.67  3.1529735E-01
   7165.00  3.1402435E-01
   7165.33  3.1336656E-01
   7165.67  3.1324300E-01
   7166.00  3.1364212E-01
   7166.33  3.1461362E-01
   7166.67  3.1607975E-01
   7167.00  3.1802807E-01
   7167.33  3.2050151E-01
   7167.67  3.2342434E-01
   7168.00  3.2677895E-01
   7168.33  3.3059182E-01
   7168.67  3.3478222E-01
   7169.00  3.3931938E-01
   7169.33  3.4419844E-01
   7169.67  3.4932944E-01
   7170.00  3.5465904E-01
   7170.33  3.6012833E-01
   7170.67  3.6562891E-01
   7171.00  3.7105724E-01
   7171.33  3.7621040E-01
   7171.67  3.8084306E-01
   7172.00  3.8461899E-01
