    FDMNES
    energy     <xanes>
   7097.00  5.2045228E-03
   7097.33  5.3266987E-03
   7097.67  5.4543637E-03
   7098.00  5.5878837E-03
   7098.33  5.7285188E-03
   7098.67  5.8760007E-03
   7099.00  6.0308243E-03
   7099.33  6.1946283E-03
   7099.67  6.3671335E-03
   7100.00  6.5490269E-03
   7100.33  6.7424918E-03
   7100.67  6.9472595E-03
   7101.00  7.1643118E-03
   7101.33  7.3966433E-03
   7101.67  7.6440430E-03
   7102.00  7.9079640E-03
   7102.33  8.1926579E-03
   7102.67  8.4980778E-03
   7103.00  8.8264654E-03
   7103.33  9.1841179E-03
   7103.67  9.5713910E-03
   7104.00  9.9919251E-03
   7104.33  1.0455552E-02
   7104.67  1.0963593E-02
   7105.00  1.1522356E-02
   7105.33  1.2148263E-02
   7105.67  1.2845033E-02
   7106.00  1.3624560E-02
   7106.33  1.4516852E-02
   7106.67  1.5532086E-02
   7107.00  1.6695437E-02
   7107.33  1.8069117E-02
   7107.67  1.9683265E-02
   7108.00  2.1601004E-02
   7108.33  2.3978346E-02
   7108.67  2.6922968E-02
   7109.00  3.0642026E-02
   7109.33  3.5672021E-02
   7109.67  4.2560929E-02
   7110.00  5.2376499E-02
   7110.33  6.8155994E-02
   7110.67  9.3350202E-02
   7111.00  1.3051220E-01
   7111.33  1.7320238E-01
   7111.67  2.1078954E-01
   7112.00  2.5023345E-01
   7112.33  2.9902861E-01
   7112.67  3.4204960E-01
   7113.00  3.7414870E-01
   7113.33  4.0012413E-01
   7113.67  4.2045130E-01
   7114.00  4.2653185E-01
   7114.33  4.0973438E-01
   7114.67  3.8022793E-01
   7115.00  3.4521824E-01
   7115.33  3.1230768E-01
   7115.67  2.8755147E-01
   7116.00  2.7298442E-01
   7116.33  2.6764103E-01
   7116.67  2.6391924E-01
   7117.00  2.5462080E-01
   7117.33  2.3625328E-01
   7117.67  2.1527464E-01
   7118.00  1.9656051E-01
   7118.33  1.8256010E-01
   7118.67  1.7203570E-01
   7119.00  1.6373340E-01
   7119.33  1.5664252E-01
   7119.67  1.5033510E-01
   7120.00  1.4498057E-01
   7120.33  1.4076510E-01
   7120.67  1.3743424E-01
   7121.00  1.3505174E-01
   7121.33  1.3418375E-01
   7121.67  1.3510251E-01
   7122.00  1.3798574E-01
   7122.33  1.4299577E-01
   7122.67  1.4974420E-01
   7123.00  1.5826063E-01
   7123.33  1.6907584E-01
   7123.67  1.8231049E-01
   7124.00  1.9820580E-01
   7124.33  2.1716990E-01
   7124.67  2.3870195E-01
   7125.00  2.6255340E-01
   7125.33  2.8864396E-01
   7125.67  3.1638050E-01
   7126.00  3.4541573E-01
   7126.33  3.7525839E-01
   7126.67  4.0493680E-01
   7127.00  4.3348705E-01
   7127.33  4.5953744E-01
   7127.67  4.8288715E-01
   7128.00  5.0401285E-01
   7128.33  5.2412918E-01
   7128.67  5.4490924E-01
   7129.00  5.6741704E-01
   7129.33  5.9253357E-01
   7129.67  6.1995154E-01
   7130.00  6.4927325E-01
   7130.33  6.7979687E-01
   7130.67  7.1031880E-01
   7131.00  7.3992758E-01
   7131.33  7.6751886E-01
   7131.67  7.9269297E-01
   7132.00  8.1510546E-01
   7132.33  8.3414689E-01
   7132.67  8.5004207E-01
   7133.00  8.6264353E-01
   7133.33  8.7122881E-01
   7133.67  8.7583528E-01
   7134.00  8.7605248E-01
   7134.33  8.7084648E-01
   7134.67  8.6055852E-01
   7135.00  8.4515117E-01
   7135.33  8.2421105E-01
   7135.67  7.9889318E-01
   7136.00  7.6997798E-01
   7136.33  7.3840272E-01
   7136.67  7.0588763E-01
   7137.00  6.7364276E-01
   7137.33  6.4307330E-01
   7137.67  6.1491761E-01
   7138.00  5.8975610E-01
   7138.33  5.6847548E-01
   7138.67  5.5086144E-01
   7139.00  5.3691457E-01
   7139.33  5.2688090E-01
   7139.67  5.1998948E-01
   7140.00  5.1589071E-01
   7140.33  5.1446576E-01
   7140.67  5.1503927E-01
   7141.00  5.1733482E-01
   7141.33  5.2126475E-01
   7141.67  5.2641300E-01
   7142.00  5.3257979E-01
   7142.33  5.3959227E-01
   7142.67  5.4702134E-01
   7143.00  5.5451221E-01
   7143.33  5.6153373E-01
   7143.67  5.6762584E-01
   7144.00  5.7236302E-01
   7144.33  5.7512870E-01
   7144.67  5.7592661E-01
   7145.00  5.7473942E-01
   7145.33  5.7149184E-01
   7145.67  5.6669892E-01
   7146.00  5.6066132E-01
   7146.33  5.5363132E-01
   7146.67  5.4605877E-01
   7147.00  5.3820157E-01
   7147.33  5.3031249E-01
   7147.67  5.2260653E-01
   7148.00  5.1523395E-01
   7148.33  5.0839856E-01
   7148.67  5.0215711E-01
   7149.00  4.9659174E-01
   7149.33  4.9187532E-01
   7149.67  4.8797600E-01
   7150.00  4.8493654E-01
   7150.33  4.8290723E-01
   7150.67  4.8179903E-01
   7151.00  4.8162024E-01
   7151.33  4.8248230E-01
   7151.67  4.8424656E-01
   7152.00  4.8687672E-01
   7152.33  4.9041267E-01
   7152.67  4.9467239E-01
   7153.00  4.9956839E-01
   7153.33  5.0504690E-01
   7153.67  5.1091145E-01
   7154.00  5.1704297E-01
   7154.33  5.2331856E-01
   7154.67  5.2958894E-01
   7155.00  5.3574814E-01
   7155.33  5.4165959E-01
   7155.67  5.4725981E-01
   7156.00  5.5248585E-01
   7156.33  5.5722896E-01
   7156.67  5.6150601E-01
   7157.00  5.6529812E-01
   7157.33  5.6853405E-01
   7157.67  5.7127640E-01
   7158.00  5.7353153E-01
   7158.33  5.7525153E-01
   7158.67  5.7650902E-01
   7159.00  5.7731596E-01
   7159.33  5.7763402E-01
   7159.67  5.7753574E-01
   7160.00  5.7703825E-01
   7160.33  5.7611626E-01
   7160.67  5.7484131E-01
   7161.00  5.7323625E-01
   7161.33  5.7129213E-01
   7161.67  5.6907726E-01
   7162.00  5.6661899E-01
   7162.33  5.6392340E-01
   7162.67  5.6105161E-01
   7163.00  5.5803470E-01
   7163.33  5.5488461E-01
   7163.67  5.5163375E-01
   7164.00  5.4829897E-01
   7164.33  5.4488941E-01
   7164.67  5.4142408E-01
   7165.00  5.3790799E-01
   7165.33  5.3433728E-01
   7165.67  5.3071709E-01
   7166.00  5.2704586E-01
   7166.33  5.2331623E-01
   7166.67  5.1953508E-01
   7167.00  5.1570370E-01
   7167.33  5.1182013E-01
   7167.67  5.0789767E-01
   7168.00  5.0394539E-01
   7168.33  4.9997287E-01
   7168.67  4.9599592E-01
   7169.00  4.9202960E-01
   7169.33  4.8809670E-01
   7169.67  4.8420827E-01
   7170.00  4.8037931E-01
   7170.33  4.7664409E-01
   7170.67  4.7302532E-01
   7171.00  4.6956410E-01
   7171.33  4.6636530E-01
   7171.67  4.6353041E-01
   7172.00  4.6122364E-01
