    FDMNES
    energy     <xanes>
   7097.00  4.9753438E-03
   7097.33  5.0859718E-03
   7097.67  5.2013328E-03
   7098.00  5.3217319E-03
   7098.33  5.4482389E-03
   7098.67  5.5806091E-03
   7099.00  5.7192534E-03
   7099.33  5.8655536E-03
   7099.67  6.0192536E-03
   7100.00  6.1809212E-03
   7100.33  6.3523857E-03
   7100.67  6.5333965E-03
   7101.00  6.7247620E-03
   7101.33  6.9289761E-03
   7101.67  7.1458325E-03
   7102.00  7.3765235E-03
   7102.33  7.6245716E-03
   7102.67  7.8899008E-03
   7103.00  8.1743472E-03
   7103.33  8.4831051E-03
   7103.67  8.8164255E-03
   7104.00  9.1772871E-03
   7104.33  9.5737755E-03
   7104.67  1.0006933E-02
   7105.00  1.0481923E-02
   7105.33  1.1012232E-02
   7105.67  1.1600879E-02
   7106.00  1.2257618E-02
   7106.33  1.3007106E-02
   7106.67  1.3857698E-02
   7107.00  1.4830105E-02
   7107.33  1.5975530E-02
   7107.67  1.7318837E-02
   7108.00  1.8912041E-02
   7108.33  2.0883609E-02
   7108.67  2.3321977E-02
   7109.00  2.6396811E-02
   7109.33  3.0545510E-02
   7109.67  3.6207657E-02
   7110.00  4.4234609E-02
   7110.33  5.7049010E-02
   7110.67  7.7650652E-02
   7111.00  1.0975820E-01
   7111.33  1.5416086E-01
   7111.67  1.9610499E-01
   7112.00  2.2055522E-01
   7112.33  2.3283516E-01
   7112.67  2.5460283E-01
   7113.00  2.8880427E-01
   7113.33  3.1907078E-01
   7113.67  3.2980726E-01
   7114.00  3.2329597E-01
   7114.33  3.0802106E-01
   7114.67  2.8754811E-01
   7115.00  2.6357532E-01
   7115.33  2.4097495E-01
   7115.67  2.2148504E-01
   7116.00  2.0395016E-01
   7116.33  1.8757073E-01
   7116.67  1.7214996E-01
   7117.00  1.5818824E-01
   7117.33  1.4756911E-01
   7117.67  1.4104689E-01
   7118.00  1.3876024E-01
   7118.33  1.4071618E-01
   7118.67  1.4549860E-01
   7119.00  1.5199185E-01
   7119.33  1.5900025E-01
   7119.67  1.6572722E-01
   7120.00  1.7197180E-01
   7120.33  1.7766467E-01
   7120.67  1.8281982E-01
   7121.00  1.8745950E-01
   7121.33  1.9223516E-01
   7121.67  1.9828812E-01
   7122.00  2.0638790E-01
   7122.33  2.1692926E-01
   7122.67  2.2896927E-01
   7123.00  2.4172867E-01
   7123.33  2.5483833E-01
   7123.67  2.6865347E-01
   7124.00  2.8379684E-01
   7124.33  3.0088487E-01
   7124.67  3.1950849E-01
   7125.00  3.3918836E-01
   7125.33  3.5945441E-01
   7125.67  3.8010052E-01
   7126.00  4.0144260E-01
   7126.33  4.2435865E-01
   7126.67  4.4933568E-01
   7127.00  4.7655128E-01
   7127.33  5.0559306E-01
   7127.67  5.3458485E-01
   7128.00  5.6151942E-01
   7128.33  5.8399770E-01
   7128.67  6.0224406E-01
   7129.00  6.1763707E-01
   7129.33  6.3286686E-01
   7129.67  6.5049596E-01
   7130.00  6.7180267E-01
   7130.33  6.9722439E-01
   7130.67  7.2470167E-01
   7131.00  7.5201043E-01
   7131.33  7.7607398E-01
   7131.67  7.9550271E-01
   7132.00  8.1014423E-01
   7132.33  8.2053189E-01
   7132.67  8.2818261E-01
   7133.00  8.3330628E-01
   7133.33  8.3508686E-01
   7133.67  8.3342363E-01
   7134.00  8.2833596E-01
   7134.33  8.1986549E-01
   7134.67  8.0855810E-01
   7135.00  7.9398362E-01
   7135.33  7.7504212E-01
   7135.67  7.5251035E-01
   7136.00  7.2750323E-01
   7136.33  7.0158401E-01
   7136.67  6.7632607E-01
   7137.00  6.5263347E-01
   7137.33  6.3139147E-01
   7137.67  6.1258430E-01
   7138.00  5.9625224E-01
   7138.33  5.8262698E-01
   7138.67  5.7129153E-01
   7139.00  5.6214992E-01
   7139.33  5.5537259E-01
   7139.67  5.5061375E-01
   7140.00  5.4778635E-01
   7140.33  5.4695940E-01
   7140.67  5.4767765E-01
   7141.00  5.4967273E-01
   7141.33  5.5267954E-01
   7141.67  5.5617303E-01
   7142.00  5.5980527E-01
   7142.33  5.6318976E-01
   7142.67  5.6607496E-01
   7143.00  5.6829604E-01
   7143.33  5.6963906E-01
   7143.67  5.7014627E-01
   7144.00  5.6981102E-01
   7144.33  5.6856038E-01
   7144.67  5.6654966E-01
   7145.00  5.6383539E-01
   7145.33  5.6040930E-01
   7145.67  5.5642281E-01
   7146.00  5.5193833E-01
   7146.33  5.4697646E-01
   7146.67  5.4166601E-01
   7147.00  5.3607439E-01
   7147.33  5.3025887E-01
   7147.67  5.2433094E-01
   7148.00  5.1836814E-01
   7148.33  5.1246950E-01
   7148.67  5.0671919E-01
   7149.00  5.0119298E-01
   7149.33  4.9601260E-01
   7149.67  4.9122032E-01
   7150.00  4.8688159E-01
   7150.33  4.8312532E-01
   7150.67  4.7993704E-01
   7151.00  4.7734993E-01
   7151.33  4.7546909E-01
   7151.67  4.7422891E-01
   7152.00  4.7362805E-01
   7152.33  4.7372523E-01
   7152.67  4.7440280E-01
   7153.00  4.7560767E-01
   7153.33  4.7731112E-01
   7153.67  4.7935219E-01
   7154.00  4.8162504E-01
   7154.33  4.8400757E-01
   7154.67  4.8635354E-01
   7155.00  4.8855692E-01
   7155.33  4.9048281E-01
   7155.67  4.9208566E-01
   7156.00  4.9332476E-01
   7156.33  4.9413316E-01
   7156.67  4.9456629E-01
   7157.00  4.9464731E-01
   7157.33  4.9437794E-01
   7157.67  4.9384662E-01
   7158.00  4.9309887E-01
   7158.33  4.9216754E-01
   7158.67  4.9112408E-01
   7159.00  4.9000920E-01
   7159.33  4.8886251E-01
   7159.67  4.8772575E-01
   7160.00  4.8662716E-01
   7160.33  4.8560279E-01
   7160.67  4.8466773E-01
   7161.00  4.8383808E-01
   7161.33  4.8314308E-01
   7161.67  4.8257866E-01
   7162.00  4.8215130E-01
   7162.33  4.8188243E-01
   7162.67  4.8175524E-01
   7163.00  4.8176768E-01
   7163.33  4.8192754E-01
   7163.67  4.8219972E-01
   7164.00  4.8256097E-01
   7164.33  4.8299693E-01
   7164.67  4.8347905E-01
   7165.00  4.8398841E-01
   7165.33  4.8450390E-01
   7165.67  4.8500570E-01
   7166.00  4.8548002E-01
   7166.33  4.8590891E-01
   7166.67  4.8628878E-01
   7167.00  4.8661607E-01
   7167.33  4.8688410E-01
   7167.67  4.8710281E-01
   7168.00  4.8727644E-01
   7168.33  4.8740452E-01
   7168.67  4.8749745E-01
   7169.00  4.8756293E-01
   7169.33  4.8760718E-01
   7169.67  4.8763585E-01
   7170.00  4.8764985E-01
   7170.33  4.8764795E-01
   7170.67  4.8763249E-01
   7171.00  4.8760438E-01
   7171.33  4.8756471E-01
   7171.67  4.8752040E-01
   7172.00  4.8747983E-01
