    FDMNES
    energy     <xanes>
   7097.00  4.8122664E-03
   7097.33  4.9187496E-03
   7097.67  5.0298124E-03
   7098.00  5.1457546E-03
   7098.33  5.2676196E-03
   7098.67  5.3951777E-03
   7099.00  5.5288355E-03
   7099.33  5.6699476E-03
   7099.67  5.8182770E-03
   7100.00  5.9743893E-03
   7100.33  6.1400902E-03
   7100.67  6.3151540E-03
   7101.00  6.5003933E-03
   7101.33  6.6982898E-03
   7101.67  6.9086731E-03
   7102.00  7.1327546E-03
   7102.33  7.3740746E-03
   7102.67  7.6326152E-03
   7103.00  7.9102648E-03
   7103.33  8.2123109E-03
   7103.67  8.5391098E-03
   7104.00  8.8937736E-03
   7104.33  9.2846638E-03
   7104.67  9.7130459E-03
   7105.00  1.0184420E-02
   7105.33  1.0713023E-02
   7105.67  1.1302420E-02
   7106.00  1.1963271E-02
   7106.33  1.2722328E-02
   7106.67  1.3589532E-02
   7107.00  1.4588318E-02
   7107.33  1.5776444E-02
   7107.67  1.7184406E-02
   7108.00  1.8874153E-02
   7108.33  2.0999349E-02
   7108.67  2.3675053E-02
   7109.00  2.7120178E-02
   7109.33  3.1909624E-02
   7109.67  3.8674907E-02
   7110.00  4.8655714E-02
   7110.33  6.5462858E-02
   7110.67  9.3511426E-02
   7111.00  1.3604486E-01
   7111.33  1.7564386E-01
   7111.67  1.8385903E-01
   7112.00  1.8563769E-01
   7112.33  2.1752604E-01
   7112.67  2.7294116E-01
   7113.00  3.2927367E-01
   7113.33  3.5826781E-01
   7113.67  3.4763225E-01
   7114.00  2.8867610E-01
   7114.33  2.1854692E-01
   7114.67  1.7860949E-01
   7115.00  1.6708219E-01
   7115.33  1.6666377E-01
   7115.67  1.6561587E-01
   7116.00  1.7168845E-01
   7116.33  1.9215498E-01
   7116.67  2.1225885E-01
   7117.00  2.1143034E-01
   7117.33  1.8728096E-01
   7117.67  1.6206578E-01
   7118.00  1.4406621E-01
   7118.33  1.3421991E-01
   7118.67  1.2886943E-01
   7119.00  1.2641420E-01
   7119.33  1.2648645E-01
   7119.67  1.2773067E-01
   7120.00  1.2882394E-01
   7120.33  1.2871622E-01
   7120.67  1.2764559E-01
   7121.00  1.2623941E-01
   7121.33  1.2557366E-01
   7121.67  1.2651040E-01
   7122.00  1.2968790E-01
   7122.33  1.3600982E-01
   7122.67  1.4554162E-01
   7123.00  1.5855679E-01
   7123.33  1.7576081E-01
   7123.67  1.9697276E-01
   7124.00  2.2235871E-01
   7124.33  2.5190659E-01
   7124.67  2.8343322E-01
   7125.00  3.1461419E-01
   7125.33  3.4219414E-01
   7125.67  3.6445014E-01
   7126.00  3.8102554E-01
   7126.33  3.9323820E-01
   7126.67  4.0445837E-01
   7127.00  4.1646573E-01
   7127.33  4.2941646E-01
   7127.67  4.4169481E-01
   7128.00  4.5253453E-01
   7128.33  4.6276968E-01
   7128.67  4.7430405E-01
   7129.00  4.8859179E-01
   7129.33  5.0745204E-01
   7129.67  5.3125282E-01
   7130.00  5.6045640E-01
   7130.33  5.9606590E-01
   7130.67  6.3734762E-01
   7131.00  6.8394306E-01
   7131.33  7.3531847E-01
   7131.67  7.8888575E-01
   7132.00  8.4197406E-01
   7132.33  8.9006502E-01
   7132.67  9.2946704E-01
   7133.00  9.5704218E-01
   7133.33  9.6895174E-01
   7133.67  9.6720551E-01
   7134.00  9.5397706E-01
   7134.33  9.3250012E-01
   7134.67  9.0829197E-01
   7135.00  8.8450299E-01
   7135.33  8.6347509E-01
   7135.67  8.4533519E-01
   7136.00  8.2952396E-01
   7136.33  8.1489196E-01
   7136.67  7.9989186E-01
   7137.00  7.8363684E-01
   7137.33  7.6561557E-01
   7137.67  7.4647213E-01
   7138.00  7.2697405E-01
   7138.33  7.0818213E-01
   7138.67  6.9082896E-01
   7139.00  6.7538196E-01
   7139.33  6.6239909E-01
   7139.67  6.5166904E-01
   7140.00  6.4311852E-01
   7140.33  6.3680672E-01
   7140.67  6.3221278E-01
   7141.00  6.2905217E-01
   7141.33  6.2707761E-01
   7141.67  6.2574232E-01
   7142.00  6.2467643E-01
   7142.33  6.2342603E-01
   7142.67  6.2158193E-01
   7143.00  6.1879789E-01
   7143.33  6.1457518E-01
   7143.67  6.0883336E-01
   7144.00  6.0146500E-01
   7144.33  5.9228040E-01
   7144.67  5.8165568E-01
   7145.00  5.6986683E-01
   7145.33  5.5726308E-01
   7145.67  5.4444918E-01
   7146.00  5.3187496E-01
   7146.33  5.2010411E-01
   7146.67  5.0942162E-01
   7147.00  5.0004601E-01
   7147.33  4.9228330E-01
   7147.67  4.8595719E-01
   7148.00  4.8099975E-01
   7148.33  4.7743680E-01
   7148.67  4.7493999E-01
   7149.00  4.7334814E-01
   7149.33  4.7258467E-01
   7149.67  4.7242233E-01
   7150.00  4.7277270E-01
   7150.33  4.7361637E-01
   7150.67  4.7485037E-01
   7151.00  4.7644945E-01
   7151.33  4.7843919E-01
   7151.67  4.8075926E-01
   7152.00  4.8338853E-01
   7152.33  4.8633290E-01
   7152.67  4.8951595E-01
   7153.00  4.9288576E-01
   7153.33  4.9637511E-01
   7153.67  4.9987250E-01
   7154.00  5.0328493E-01
   7154.33  5.0647704E-01
   7154.67  5.0936934E-01
   7155.00  5.1188659E-01
   7155.33  5.1390553E-01
   7155.67  5.1543644E-01
   7156.00  5.1645873E-01
   7156.33  5.1690372E-01
   7156.67  5.1684970E-01
   7157.00  5.1632162E-01
   7157.33  5.1530617E-01
   7157.67  5.1390747E-01
   7158.00  5.1217402E-01
   7158.33  5.1013415E-01
   7158.67  5.0788733E-01
   7159.00  5.0549088E-01
   7159.33  5.0300312E-01
   7159.67  5.0050328E-01
   7160.00  4.9804978E-01
   7160.33  4.9572125E-01
   7160.67  4.9356059E-01
   7161.00  4.9160690E-01
   7161.33  4.8992349E-01
   7161.67  4.8849805E-01
   7162.00  4.8733353E-01
   7162.33  4.8644627E-01
   7162.67  4.8576793E-01
   7163.00  4.8525235E-01
   7163.33  4.8484884E-01
   7163.67  4.8447560E-01
   7164.00  4.8406828E-01
   7164.33  4.8354129E-01
   7164.67  4.8284615E-01
   7165.00  4.8194468E-01
   7165.33  4.8078822E-01
   7165.67  4.7940682E-01
   7166.00  4.7781750E-01
   7166.33  4.7603335E-01
   7166.67  4.7412279E-01
   7167.00  4.7213184E-01
   7167.33  4.7011219E-01
   7167.67  4.6811738E-01
   7168.00  4.6618360E-01
   7168.33  4.6435511E-01
   7168.67  4.6264381E-01
   7169.00  4.6106614E-01
   7169.33  4.5965112E-01
   7169.67  4.5838093E-01
   7170.00  4.5725273E-01
   7170.33  4.5627925E-01
   7170.67  4.5543830E-01
   7171.00  4.5472525E-01
   7171.33  4.5414891E-01
   7171.67  4.5368663E-01
   7172.00  4.5333028E-01
