    FDMNES
    energy     <xanes>
   7097.00  4.8785458E-03
   7097.33  4.9892680E-03
   7097.67  5.1048520E-03
   7098.00  5.2256184E-03
   7098.33  5.3526785E-03
   7098.67  5.4857909E-03
   7099.00  5.6253901E-03
   7099.33  5.7729198E-03
   7099.67  5.9281302E-03
   7100.00  6.0916256E-03
   7100.33  6.2653307E-03
   7100.67  6.4490079E-03
   7101.00  6.6435246E-03
   7101.33  6.8515272E-03
   7101.67  7.0728368E-03
   7102.00  7.3087471E-03
   7102.33  7.5630363E-03
   7102.67  7.8356910E-03
   7103.00  8.1287321E-03
   7103.33  8.4478143E-03
   7103.67  8.7933374E-03
   7104.00  9.1686500E-03
   7104.33  9.5827421E-03
   7104.67  1.0037039E-02
   7105.00  1.0537530E-02
   7105.33  1.1099701E-02
   7105.67  1.1727661E-02
   7106.00  1.2433289E-02
   7106.33  1.3246390E-02
   7106.67  1.4178892E-02
   7107.00  1.5258069E-02
   7107.33  1.6551364E-02
   7107.67  1.8097936E-02
   7108.00  1.9975761E-02
   7108.33  2.2381051E-02
   7108.67  2.5479320E-02
   7109.00  2.9586533E-02
   7109.33  3.5564412E-02
   7109.67  4.4493331E-02
   7110.00  5.8533529E-02
   7110.33  8.3781333E-02
   7110.67  1.2344102E-01
   7111.00  1.6267070E-01
   7111.33  1.6624574E-01
   7111.67  1.5991377E-01
   7112.00  1.5876258E-01
   7112.33  1.6584099E-01
   7112.67  1.7414737E-01
   7113.00  1.8440763E-01
   7113.33  2.1511924E-01
   7113.67  2.6649519E-01
   7114.00  3.1920036E-01
   7114.33  3.4893216E-01
   7114.67  3.7810753E-01
   7115.00  4.1277831E-01
   7115.33  3.9653174E-01
   7115.67  3.2270088E-01
   7116.00  2.4357295E-01
   7116.33  2.0034537E-01
   7116.67  1.8744092E-01
   7117.00  2.0075621E-01
   7117.33  2.4314809E-01
   7117.67  3.0604134E-01
   7118.00  3.6693823E-01
   7118.33  3.8560438E-01
   7118.67  3.6021483E-01
   7119.00  3.0907928E-01
   7119.33  2.5773082E-01
   7119.67  2.1771814E-01
   7120.00  1.8898242E-01
   7120.33  1.6889313E-01
   7120.67  1.5345386E-01
   7121.00  1.4139590E-01
   7121.33  1.3278504E-01
   7121.67  1.2723523E-01
   7122.00  1.2439428E-01
   7122.33  1.2372034E-01
   7122.67  1.2448625E-01
   7123.00  1.2662856E-01
   7123.33  1.3025574E-01
   7123.67  1.3517362E-01
   7124.00  1.4159878E-01
   7124.33  1.5016061E-01
   7124.67  1.6079204E-01
   7125.00  1.7349650E-01
   7125.33  1.8845944E-01
   7125.67  2.0511369E-01
   7126.00  2.2287916E-01
   7126.33  2.4079430E-01
   7126.67  2.5786627E-01
   7127.00  2.7390039E-01
   7127.33  2.9017908E-01
   7127.67  3.0885088E-01
   7128.00  3.3134273E-01
   7128.33  3.5828071E-01
   7128.67  3.8733452E-01
   7129.00  4.1646432E-01
   7129.33  4.4477145E-01
   7129.67  4.7295265E-01
   7130.00  5.0144401E-01
   7130.33  5.3011045E-01
   7130.67  5.5830961E-01
   7131.00  5.8545914E-01
   7131.33  6.1117892E-01
   7131.67  6.3617773E-01
   7132.00  6.6138309E-01
   7132.33  6.8825312E-01
   7132.67  7.1754113E-01
   7133.00  7.4926382E-01
   7133.33  7.8230679E-01
   7133.67  8.1400492E-01
   7134.00  8.4188061E-01
   7134.33  8.6313966E-01
   7134.67  8.7773548E-01
   7135.00  8.8554505E-01
   7135.33  8.8571352E-01
   7135.67  8.7948604E-01
   7136.00  8.6777772E-01
   7136.33  8.5123532E-01
   7136.67  8.3105492E-01
   7137.00  8.0771914E-01
   7137.33  7.8185593E-01
   7137.67  7.5476311E-01
   7138.00  7.2720754E-01
   7138.33  6.9999964E-01
   7138.67  6.7377325E-01
   7139.00  6.4900500E-01
   7139.33  6.2629916E-01
   7139.67  6.0559390E-01
   7140.00  5.8692529E-01
   7140.33  5.7053738E-01
   7140.67  5.5615313E-01
   7141.00  5.4375235E-01
   7141.33  5.3355985E-01
   7141.67  5.2532534E-01
   7142.00  5.1906591E-01
   7142.33  5.1506371E-01
   7142.67  5.1307249E-01
   7143.00  5.1304171E-01
   7143.33  5.1505460E-01
   7143.67  5.1864742E-01
   7144.00  5.2354716E-01
   7144.33  5.2947077E-01
   7144.67  5.3582681E-01
   7145.00  5.4215050E-01
   7145.33  5.4778607E-01
   7145.67  5.5222259E-01
   7146.00  5.5498358E-01
   7146.33  5.5537386E-01
   7146.67  5.5346230E-01
   7147.00  5.4932553E-01
   7147.33  5.4311698E-01
   7147.67  5.3570778E-01
   7148.00  5.2776087E-01
   7148.33  5.2007237E-01
   7148.67  5.1325420E-01
   7149.00  5.0769974E-01
   7149.33  5.0386071E-01
   7149.67  5.0162810E-01
   7150.00  5.0094727E-01
   7150.33  5.0182263E-01
   7150.67  5.0386852E-01
   7151.00  5.0689720E-01
   7151.33  5.1079875E-01
   7151.67  5.1529498E-01
   7152.00  5.2025816E-01
   7152.33  5.2562102E-01
   7152.67  5.3126540E-01
   7153.00  5.3715067E-01
   7153.33  5.4327513E-01
   7153.67  5.4960148E-01
   7154.00  5.5612430E-01
   7154.33  5.6284838E-01
   7154.67  5.6970940E-01
   7155.00  5.7664589E-01
   7155.33  5.8355433E-01
   7155.67  5.9031213E-01
   7156.00  5.9679694E-01
   7156.33  6.0280651E-01
   7156.67  6.0825655E-01
   7157.00  6.1304930E-01
   7157.33  6.1700511E-01
   7157.67  6.2016245E-01
   7158.00  6.2249992E-01
   7158.33  6.2391902E-01
   7158.67  6.2455248E-01
   7159.00  6.2444342E-01
   7159.33  6.2357092E-01
   7159.67  6.2209228E-01
   7160.00  6.2007207E-01
   7160.33  6.1752627E-01
   7160.67  6.1458517E-01
   7161.00  6.1130674E-01
   7161.33  6.0771657E-01
   7161.67  6.0390059E-01
   7162.00  5.9989631E-01
   7162.33  5.9571900E-01
   7162.67  5.9141149E-01
   7163.00  5.8698627E-01
   7163.33  5.8243423E-01
   7163.67  5.7776855E-01
   7164.00  5.7298543E-01
   7164.33  5.6806065E-01
   7164.67  5.6299922E-01
   7165.00  5.5779207E-01
   7165.33  5.5241223E-01
   7165.67  5.4687615E-01
   7166.00  5.4118725E-01
   7166.33  5.3534216E-01
   7166.67  5.2938434E-01
   7167.00  5.2334630E-01
   7167.33  5.1727299E-01
   7167.67  5.1122577E-01
   7168.00  5.0525697E-01
   7168.33  4.9944366E-01
   7168.67  4.9382203E-01
   7169.00  4.8842925E-01
   7169.33  4.8332811E-01
   7169.67  4.7850337E-01
   7170.00  4.7396130E-01
   7170.33  4.6974038E-01
   7170.67  4.6580870E-01
   7171.00  4.6217413E-01
   7171.33  4.5890778E-01
   7171.67  4.5605324E-01
   7172.00  4.5373759E-01
