    FDMNES
    energy     <xanes>
   7097.00  3.9396647E-03
   7097.33  4.0125975E-03
   7097.67  4.0881566E-03
   7098.00  4.1664962E-03
   7098.33  4.2481861E-03
   7098.67  4.3330733E-03
   7099.00  4.4213653E-03
   7099.33  4.5137898E-03
   7099.67  4.6101885E-03
   7100.00  4.7108498E-03
   7100.33  4.8167306E-03
   7100.67  4.9276794E-03
   7101.00  5.0441112E-03
   7101.33  5.1673310E-03
   7101.67  5.2972199E-03
   7102.00  5.4344028E-03
   7102.33  5.5807397E-03
   7102.67  5.7362038E-03
   7103.00  5.9017875E-03
   7103.33  6.0802914E-03
   7103.67  6.2719204E-03
   7104.00  6.4783558E-03
   7104.33  6.7041144E-03
   7104.67  6.9499790E-03
   7105.00  7.2190376E-03
   7105.33  7.5192408E-03
   7105.67  7.8528845E-03
   7106.00  8.2262593E-03
   7106.33  8.6550549E-03
   7106.67  9.1459365E-03
   7107.00  9.7136261E-03
   7107.33  1.0394291E-02
   7107.67  1.1209397E-02
   7108.00  1.2200880E-02
   7108.33  1.3473182E-02
   7108.67  1.5112275E-02
   7109.00  1.7279585E-02
   7109.33  2.0404984E-02
   7109.67  2.4994104E-02
   7110.00  3.2040099E-02
   7110.33  4.4391522E-02
   7110.67  6.4779245E-02
   7111.00  9.2429731E-02
   7111.33  1.1829078E-01
   7111.67  1.4012508E-01
   7112.00  1.5356596E-01
   7112.33  1.4149831E-01
   7112.67  1.1102270E-01
   7113.00  8.1547414E-02
   7113.33  6.2253238E-02
   7113.67  5.0471231E-02
   7114.00  4.4249859E-02
   7114.33  4.1630058E-02
   7114.67  3.8957816E-02
   7115.00  3.5274284E-02
   7115.33  3.2140583E-02
   7115.67  3.0308568E-02
   7116.00  2.9581655E-02
   7116.33  2.9748149E-02
   7116.67  3.0530896E-02
   7117.00  3.1853384E-02
   7117.33  3.3714541E-02
   7117.67  3.6004587E-02
   7118.00  3.8708897E-02
   7118.33  4.1907999E-02
   7118.67  4.5530271E-02
   7119.00  4.9384075E-02
   7119.33  5.3017170E-02
   7119.67  5.6215207E-02
   7120.00  5.9074924E-02
   7120.33  6.1733760E-02
   7120.67  6.4295030E-02
   7121.00  6.6827273E-02
   7121.33  6.9528076E-02
   7121.67  7.2731600E-02
   7122.00  7.6847445E-02
   7122.33  8.2565914E-02
   7122.67  9.0223310E-02
   7123.00  1.0023814E-01
   7123.33  1.1331664E-01
   7123.67  1.2922279E-01
   7124.00  1.4803814E-01
   7124.33  1.7138872E-01
   7124.67  2.0154785E-01
   7125.00  2.4151961E-01
   7125.33  2.9501899E-01
   7125.67  3.5719883E-01
   7126.00  4.1787617E-01
   7126.33  4.6043877E-01
   7126.67  4.8209946E-01
   7127.00  4.8833211E-01
   7127.33  4.8762442E-01
   7127.67  4.8766115E-01
   7128.00  4.9155083E-01
   7128.33  5.0208586E-01
   7128.67  5.2109072E-01
   7129.00  5.5164056E-01
   7129.33  5.9989606E-01
   7129.67  6.6815848E-01
   7130.00  7.5929727E-01
   7130.33  8.7605241E-01
   7130.67  1.0069222E+00
   7131.00  1.1344192E+00
   7131.33  1.2276191E+00
   7131.67  1.2707399E+00
   7132.00  1.2604827E+00
   7132.33  1.2009558E+00
   7132.67  1.1152722E+00
   7133.00  1.0193659E+00
   7133.33  9.2800792E-01
   7133.67  8.4898891E-01
   7134.00  7.8533740E-01
   7134.33  7.3856429E-01
   7134.67  7.0363156E-01
   7135.00  6.7726443E-01
   7135.33  6.5710053E-01
   7135.67  6.4055797E-01
   7136.00  6.2678628E-01
   7136.33  6.1569082E-01
   7136.67  6.0694266E-01
   7137.00  6.0061472E-01
   7137.33  5.9705237E-01
   7137.67  5.9584449E-01
   7138.00  5.9677288E-01
   7138.33  5.9969253E-01
   7138.67  6.0396172E-01
   7139.00  6.0922753E-01
   7139.33  6.1521366E-01
   7139.67  6.2157207E-01
   7140.00  6.2815590E-01
   7140.33  6.3491468E-01
   7140.67  6.4186204E-01
   7141.00  6.4909702E-01
   7141.33  6.5685246E-01
   7141.67  6.6527282E-01
   7142.00  6.7451426E-01
   7142.33  6.8479548E-01
   7142.67  6.9594365E-01
   7143.00  7.0770418E-01
   7143.33  7.1948741E-01
   7143.67  7.3047993E-01
   7144.00  7.3986710E-01
   7144.33  7.4632126E-01
   7144.67  7.4929991E-01
   7145.00  7.4831997E-01
   7145.33  7.4272236E-01
   7145.67  7.3331292E-01
   7146.00  7.2060181E-01
   7146.33  7.0500418E-01
   7146.67  6.8758328E-01
   7147.00  6.6890981E-01
   7147.33  6.4945426E-01
   7147.67  6.2974966E-01
   7148.00  6.1010344E-01
   7148.33  5.9083169E-01
   7148.67  5.7208068E-01
   7149.00  5.5395546E-01
   7149.33  5.3661425E-01
   7149.67  5.2000299E-01
   7150.00  5.0413716E-01
   7150.33  4.8915626E-01
   7150.67  4.7502178E-01
   7151.00  4.6176072E-01
   7151.33  4.4948932E-01
   7151.67  4.3807065E-01
   7152.00  4.2746890E-01
   7152.33  4.1773911E-01
   7152.67  4.0873851E-01
   7153.00  4.0041962E-01
   7153.33  3.9279031E-01
   7153.67  3.8568994E-01
   7154.00  3.7903494E-01
   7154.33  3.7275919E-01
   7154.67  3.6670965E-01
   7155.00  3.6079672E-01
   7155.33  3.5493851E-01
   7155.67  3.4907206E-01
   7156.00  3.4318344E-01
   7156.33  3.3730559E-01
   7156.67  3.3152315E-01
   7157.00  3.2594890E-01
   7157.33  3.2078894E-01
   7157.67  3.1615832E-01
   7158.00  3.1216437E-01
   7158.33  3.0893846E-01
   7158.67  3.0632122E-01
   7159.00  3.0414611E-01
   7159.33  3.0215682E-01
   7159.67  3.0005834E-01
   7160.00  2.9770769E-01
   7160.33  2.9509669E-01
   7160.67  2.9248420E-01
   7161.00  2.9018130E-01
   7161.33  2.8866209E-01
   7161.67  2.8816419E-01
   7162.00  2.8887963E-01
   7162.33  2.9108135E-01
   7162.67  2.9459614E-01
   7163.00  2.9934198E-01
   7163.33  3.0529543E-01
   7163.67  3.1212231E-01
   7164.00  3.1963300E-01
   7164.33  3.2765384E-01
   7164.67  3.3590290E-01
   7165.00  3.4420738E-01
   7165.33  3.5237896E-01
   7165.67  3.6029081E-01
   7166.00  3.6785112E-01
   7166.33  3.7493750E-01
   7166.67  3.8157078E-01
   7167.00  3.8775034E-01
   7167.33  3.9344797E-01
   7167.67  3.9876357E-01
   7168.00  4.0374748E-01
   7168.33  4.0843070E-01
   7168.67  4.1291068E-01
   7169.00  4.1723741E-01
   7169.33  4.2144600E-01
   7169.67  4.2558254E-01
   7170.00  4.2966006E-01
   7170.33  4.3366498E-01
   7170.67  4.3757493E-01
   7171.00  4.4134206E-01
   7171.33  4.4484619E-01
   7171.67  4.4796352E-01
   7172.00  4.5050676E-01
