    FDMNES
    energy     <xanes>
   7097.00  4.9985073E-03
   7097.33  5.1144570E-03
   7097.67  5.2357164E-03
   7098.00  5.3626543E-03
   7098.33  5.4965162E-03
   7098.67  5.6370647E-03
   7099.00  5.7848071E-03
   7099.33  5.9413857E-03
   7099.67  6.1065642E-03
   7100.00  6.2810600E-03
   7100.33  6.4670994E-03
   7100.67  6.6644771E-03
   7101.00  6.8742416E-03
   7101.33  7.0995115E-03
   7101.67  7.3401793E-03
   7102.00  7.5978381E-03
   7102.33  7.8770321E-03
   7102.67  8.1778996E-03
   7103.00  8.5029772E-03
   7103.33  8.8592144E-03
   7103.67  9.2473346E-03
   7104.00  9.6716180E-03
   7104.33  1.0143352E-02
   7104.67  1.0664672E-02
   7105.00  1.1243348E-02
   7105.33  1.1899193E-02
   7105.67  1.2637941E-02
   7106.00  1.3475122E-02
   7106.33  1.4449299E-02
   7106.67  1.5576365E-02
   7107.00  1.6891722E-02
   7107.33  1.8482155E-02
   7107.67  2.0397214E-02
   7108.00  2.2734651E-02
   7108.33  2.5737293E-02
   7108.67  2.9598498E-02
   7109.00  3.4682974E-02
   7109.33  4.1958144E-02
   7109.67  5.2539763E-02
   7110.00  6.8622849E-02
   7110.33  9.6538253E-02
   7110.67  1.4276303E-01
   7111.00  2.0681570E-01
   7111.33  2.6136959E-01
   7111.67  2.9068008E-01
   7112.00  3.0474896E-01
   7112.33  3.1064236E-01
   7112.67  3.1530037E-01
   7113.00  3.3602891E-01
   7113.33  3.5852498E-01
   7113.67  3.5434701E-01
   7114.00  3.2456740E-01
   7114.33  2.7774776E-01
   7114.67  2.3395812E-01
   7115.00  2.0109363E-01
   7115.33  1.8061461E-01
   7115.67  1.6801307E-01
   7116.00  1.5950203E-01
   7116.33  1.4967487E-01
   7116.67  1.3639611E-01
   7117.00  1.2207032E-01
   7117.33  1.1060868E-01
   7117.67  1.0284091E-01
   7118.00  9.8384220E-02
   7118.33  9.6831574E-02
   7118.67  9.7317598E-02
   7119.00  9.9373895E-02
   7119.33  1.0219683E-01
   7119.67  1.0467022E-01
   7120.00  1.0631192E-01
   7120.33  1.0721583E-01
   7120.67  1.0806890E-01
   7121.00  1.0939322E-01
   7121.33  1.1181105E-01
   7121.67  1.1560887E-01
   7122.00  1.2103453E-01
   7122.33  1.2839422E-01
   7122.67  1.3736829E-01
   7123.00  1.4784861E-01
   7123.33  1.6008883E-01
   7123.67  1.7421409E-01
   7124.00  1.9061571E-01
   7124.33  2.0994077E-01
   7124.67  2.3162637E-01
   7125.00  2.5482130E-01
   7125.33  2.7810815E-01
   7125.67  3.0033823E-01
   7126.00  3.2120029E-01
   7126.33  3.4084132E-01
   7126.67  3.5997447E-01
   7127.00  3.7941643E-01
   7127.33  4.0070646E-01
   7127.67  4.2480614E-01
   7128.00  4.5212322E-01
   7128.33  4.8268401E-01
   7128.67  5.1538345E-01
   7129.00  5.4974228E-01
   7129.33  5.8565100E-01
   7129.67  6.2263485E-01
   7130.00  6.6011072E-01
   7130.33  6.9692744E-01
   7130.67  7.3211255E-01
   7131.00  7.6531544E-01
   7131.33  7.9687052E-01
   7131.67  8.2805060E-01
   7132.00  8.5963312E-01
   7132.33  8.9191682E-01
   7132.67  9.2415969E-01
   7133.00  9.5505133E-01
   7133.33  9.8176755E-01
   7133.67  1.0018965E+00
   7134.00  1.0132301E+00
   7134.33  1.0131697E+00
   7134.67  1.0034077E+00
   7135.00  9.8544460E-01
   7135.33  9.6083363E-01
   7135.67  9.3249040E-01
   7136.00  9.0190851E-01
   7136.33  8.7023948E-01
   7136.67  8.3848545E-01
   7137.00  8.0719278E-01
   7137.33  7.7695785E-01
   7137.67  7.4802504E-01
   7138.00  7.2063234E-01
   7138.33  6.9519418E-01
   7138.67  6.7160441E-01
   7139.00  6.4988780E-01
   7139.33  6.3021586E-01
   7139.67  6.1222245E-01
   7140.00  5.9573035E-01
   7140.33  5.8062543E-01
   7140.67  5.6646471E-01
   7141.00  5.5304321E-01
   7141.33  5.4029911E-01
   7141.67  5.2816158E-01
   7142.00  5.1675100E-01
   7142.33  5.0642813E-01
   7142.67  4.9734202E-01
   7143.00  4.8967094E-01
   7143.33  4.8366323E-01
   7143.67  4.7900856E-01
   7144.00  4.7547065E-01
   7144.33  4.7279642E-01
   7144.67  4.7055422E-01
   7145.00  4.6852245E-01
   7145.33  4.6655346E-01
   7145.67  4.6458795E-01
   7146.00  4.6264039E-01
   7146.33  4.6077433E-01
   7146.67  4.5904863E-01
   7147.00  4.5751698E-01
   7147.33  4.5625536E-01
   7147.67  4.5525875E-01
   7148.00  4.5453699E-01
   7148.33  4.5412781E-01
   7148.67  4.5399038E-01
   7149.00  4.5411677E-01
   7149.33  4.5453208E-01
   7149.67  4.5519998E-01
   7150.00  4.5612026E-01
   7150.33  4.5733048E-01
   7150.67  4.5880974E-01
   7151.00  4.6057167E-01
   7151.33  4.6267179E-01
   7151.67  4.6508914E-01
   7152.00  4.6783383E-01
   7152.33  4.7095043E-01
   7152.67  4.7438843E-01
   7153.00  4.7812826E-01
   7153.33  4.8216547E-01
   7153.67  4.8641309E-01
   7154.00  4.9081268E-01
   7154.33  4.9529476E-01
   7154.67  4.9976399E-01
   7155.00  5.0414349E-01
   7155.33  5.0832080E-01
   7155.67  5.1222912E-01
   7156.00  5.1579648E-01
   7156.33  5.1889994E-01
   7156.67  5.2153695E-01
   7157.00  5.2367641E-01
   7157.33  5.2523640E-01
   7157.67  5.2628316E-01
   7158.00  5.2683211E-01
   7158.33  5.2685669E-01
   7158.67  5.2645833E-01
   7159.00  5.2568032E-01
   7159.33  5.2453623E-01
   7159.67  5.2312137E-01
   7160.00  5.2148211E-01
   7160.33  5.1965079E-01
   7160.67  5.1769502E-01
   7161.00  5.1564706E-01
   7161.33  5.1353123E-01
   7161.67  5.1138112E-01
   7162.00  5.0921478E-01
   7162.33  5.0704516E-01
   7162.67  5.0487848E-01
   7163.00  5.0272249E-01
   7163.33  5.0059345E-01
   7163.67  4.9850269E-01
   7164.00  4.9646182E-01
   7164.33  4.9449247E-01
   7164.67  4.9260239E-01
   7165.00  4.9080537E-01
   7165.33  4.8912974E-01
   7165.67  4.8757577E-01
   7166.00  4.8615401E-01
   7166.33  4.8489226E-01
   7166.67  4.8377906E-01
   7167.00  4.8281572E-01
   7167.33  4.8201857E-01
   7167.67  4.8136361E-01
   7168.00  4.8084293E-01
   7168.33  4.8045738E-01
   7168.67  4.8017559E-01
   7169.00  4.7998528E-01
   7169.33  4.7988088E-01
   7169.67  4.7983689E-01
   7170.00  4.7984008E-01
   7170.33  4.7988055E-01
   7170.67  4.7994173E-01
   7171.00  4.8001402E-01
   7171.33  4.8008667E-01
   7171.67  4.8014900E-01
   7172.00  4.8019277E-01
