    FDMNES
    energy     <xanes>
   7097.00  5.1223345E-03
   7097.33  5.2426317E-03
   7097.67  5.3683726E-03
   7098.00  5.4999237E-03
   7098.33  5.6385415E-03
   7098.67  5.7839657E-03
   7099.00  5.9366941E-03
   7099.33  6.0983662E-03
   7099.67  6.2687132E-03
   7100.00  6.4484295E-03
   7100.33  6.6397082E-03
   7100.67  6.8422956E-03
   7101.00  7.0571890E-03
   7101.33  7.2874113E-03
   7101.67  7.5327755E-03
   7102.00  7.7947668E-03
   7102.33  8.0777033E-03
   7102.67  8.3815800E-03
   7103.00  8.7087056E-03
   7103.33  9.0655247E-03
   7103.67  9.4524755E-03
   7104.00  9.8733427E-03
   7104.33  1.0338286E-02
   7104.67  1.0848808E-02
   7105.00  1.1411546E-02
   7105.33  1.2043683E-02
   7105.67  1.2749390E-02
   7106.00  1.3541377E-02
   7106.33  1.4451573E-02
   7106.67  1.5491441E-02
   7107.00  1.6688453E-02
   7107.33  1.8110348E-02
   7107.67  1.9791634E-02
   7108.00  2.1803228E-02
   7108.33  2.4320666E-02
   7108.67  2.7470872E-02
   7109.00  3.1496327E-02
   7109.33  3.7029907E-02
   7109.67  4.4745736E-02
   7110.00  5.5961188E-02
   7110.33  7.4441592E-02
   7110.67  1.0433145E-01
   7111.00  1.4778364E-01
   7111.33  1.9527547E-01
   7111.67  2.3354034E-01
   7112.00  2.6483133E-01
   7112.33  2.9493214E-01
   7112.67  3.2324362E-01
   7113.00  3.5608850E-01
   7113.33  3.8845425E-01
   7113.67  4.0096542E-01
   7114.00  3.9488724E-01
   7114.33  3.8083993E-01
   7114.67  3.5796470E-01
   7115.00  3.2491705E-01
   7115.33  2.8998360E-01
   7115.67  2.6180080E-01
   7116.00  2.4272450E-01
   7116.33  2.3314203E-01
   7116.67  2.3017240E-01
   7117.00  2.3104192E-01
   7117.33  2.2919768E-01
   7117.67  2.1986303E-01
   7118.00  2.0501048E-01
   7118.33  1.8963684E-01
   7118.67  1.7568886E-01
   7119.00  1.6300187E-01
   7119.33  1.5154651E-01
   7119.67  1.4175855E-01
   7120.00  1.3419367E-01
   7120.33  1.2918199E-01
   7120.67  1.2611744E-01
   7121.00  1.2488164E-01
   7121.33  1.2606123E-01
   7121.67  1.2989177E-01
   7122.00  1.3671657E-01
   7122.33  1.4757029E-01
   7122.67  1.6258261E-01
   7123.00  1.8132229E-01
   7123.33  2.0108031E-01
   7123.67  2.1884468E-01
   7124.00  2.3612102E-01
   7124.33  2.5736143E-01
   7124.67  2.8259092E-01
   7125.00  3.0872324E-01
   7125.33  3.3057072E-01
   7125.67  3.4672121E-01
   7126.00  3.5859562E-01
   7126.33  3.6781244E-01
   7126.67  3.7528924E-01
   7127.00  3.8210761E-01
   7127.33  3.9175898E-01
   7127.67  4.0737515E-01
   7128.00  4.3012186E-01
   7128.33  4.5938336E-01
   7128.67  4.9135024E-01
   7129.00  5.2327809E-01
   7129.33  5.5264038E-01
   7129.67  5.7856421E-01
   7130.00  6.0051569E-01
   7130.33  6.1752462E-01
   7130.67  6.3058653E-01
   7131.00  6.4140959E-01
   7131.33  6.5231541E-01
   7131.67  6.6331428E-01
   7132.00  6.7246372E-01
   7132.33  6.7771741E-01
   7132.67  6.8028214E-01
   7133.00  6.8170363E-01
   7133.33  6.8317950E-01
   7133.67  6.8506310E-01
   7134.00  6.8751324E-01
   7134.33  6.9120967E-01
   7134.67  6.9689424E-01
   7135.00  7.0514377E-01
   7135.33  7.1609813E-01
   7135.67  7.2824381E-01
   7136.00  7.4002734E-01
   7136.33  7.4943701E-01
   7136.67  7.5555291E-01
   7137.00  7.5791968E-01
   7137.33  7.5605558E-01
   7137.67  7.5078815E-01
   7138.00  7.4261848E-01
   7138.33  7.3203331E-01
   7138.67  7.2019540E-01
   7139.00  7.0793009E-01
   7139.33  6.9624766E-01
   7139.67  6.8592536E-01
   7140.00  6.7754063E-01
   7140.33  6.7184565E-01
   7140.67  6.6877144E-01
   7141.00  6.6834924E-01
   7141.33  6.7070478E-01
   7141.67  6.7506967E-01
   7142.00  6.8080489E-01
   7142.33  6.8693823E-01
   7142.67  6.9221079E-01
   7143.00  6.9556297E-01
   7143.33  6.9559510E-01
   7143.67  6.9207943E-01
   7144.00  6.8494410E-01
   7144.33  6.7417985E-01
   7144.67  6.6093617E-01
   7145.00  6.4597103E-01
   7145.33  6.3002693E-01
   7145.67  6.1392474E-01
   7146.00  5.9813200E-01
   7146.33  5.8312001E-01
   7146.67  5.6904510E-01
   7147.00  5.5602435E-01
   7147.33  5.4422808E-01
   7147.67  5.3347795E-01
   7148.00  5.2371863E-01
   7148.33  5.1500073E-01
   7148.67  5.0715061E-01
   7149.00  5.0012106E-01
   7149.33  4.9395575E-01
   7149.67  4.8851762E-01
   7150.00  4.8378459E-01
   7150.33  4.7982568E-01
   7150.67  4.7654101E-01
   7151.00  4.7392081E-01
   7151.33  4.7203420E-01
   7151.67  4.7078267E-01
   7152.00  4.7014663E-01
   7152.33  4.7017195E-01
   7152.67  4.7075512E-01
   7153.00  4.7186826E-01
   7153.33  4.7353823E-01
   7153.67  4.7566545E-01
   7154.00  4.7821123E-01
   7154.33  4.8116360E-01
   7154.67  4.8440520E-01
   7155.00  4.8785883E-01
   7155.33  4.9142557E-01
   7155.67  4.9496151E-01
   7156.00  4.9834361E-01
   7156.33  5.0138565E-01
   7156.67  5.0398016E-01
   7157.00  5.0601310E-01
   7157.33  5.0729040E-01
   7157.67  5.0782081E-01
   7158.00  5.0757446E-01
   7158.33  5.0646592E-01
   7158.67  5.0464985E-01
   7159.00  5.0221145E-01
   7159.33  4.9921940E-01
   7159.67  4.9588553E-01
   7160.00  4.9234377E-01
   7160.33  4.8873673E-01
   7160.67  4.8520666E-01
   7161.00  4.8185416E-01
   7161.33  4.7880935E-01
   7161.67  4.7610941E-01
   7162.00  4.7379833E-01
   7162.33  4.7196338E-01
   7162.67  4.7056059E-01
   7163.00  4.6957281E-01
   7163.33  4.6901141E-01
   7163.67  4.6878663E-01
   7164.00  4.6885293E-01
   7164.33  4.6917665E-01
   7164.67  4.6966311E-01
   7165.00  4.7025653E-01
   7165.33  4.7090390E-01
   7165.67  4.7154861E-01
   7166.00  4.7215153E-01
   7166.33  4.7266434E-01
   7166.67  4.7307046E-01
   7167.00  4.7335245E-01
   7167.33  4.7347503E-01
   7167.67  4.7344149E-01
   7168.00  4.7324297E-01
   7168.33  4.7285515E-01
   7168.67  4.7230744E-01
   7169.00  4.7161213E-01
   7169.33  4.7077239E-01
   7169.67  4.6983386E-01
   7170.00  4.6882861E-01
   7170.33  4.6779450E-01
   7170.67  4.6677666E-01
   7171.00  4.6581018E-01
   7171.33  4.6494535E-01
   7171.67  4.6420926E-01
   7172.00  4.6363314E-01
