    FDMNES
    energy     <xanes>
   7097.00  4.3228210E-03
   7097.33  4.4141229E-03
   7097.67  4.5091781E-03
   7098.00  4.6082274E-03
   7098.33  4.7121183E-03
   7098.67  4.8206576E-03
   7099.00  4.9341726E-03
   7099.33  5.0537628E-03
   7099.67  5.1792306E-03
   7100.00  5.3110338E-03
   7100.33  5.4506395E-03
   7100.67  5.5978640E-03
   7101.00  5.7533700E-03
   7101.33  5.9191828E-03
   7101.67  6.0951731E-03
   7102.00  6.2823406E-03
   7102.33  6.4835988E-03
   7102.67  6.6989648E-03
   7103.00  6.9300233E-03
   7103.33  7.1811840E-03
   7103.67  7.4528244E-03
   7104.00  7.7476137E-03
   7104.33  8.0726676E-03
   7104.67  8.4292478E-03
   7105.00  8.8222112E-03
   7105.33  9.2640203E-03
   7105.67  9.7582249E-03
   7106.00  1.0314591E-02
   7106.33  1.0957454E-02
   7106.67  1.1696901E-02
   7107.00  1.2555423E-02
   7107.33  1.3588267E-02
   7107.67  1.4827430E-02
   7108.00  1.6335888E-02
   7108.33  1.8270346E-02
   7108.67  2.0757485E-02
   7109.00  2.4035948E-02
   7109.33  2.8740343E-02
   7109.67  3.5610512E-02
   7110.00  4.6101959E-02
   7110.33  6.4405410E-02
   7110.67  9.4689053E-02
   7111.00  1.3623898E-01
   7111.33  1.7175302E-01
   7111.67  1.9132116E-01
   7112.00  2.0264351E-01
   7112.33  2.1238809E-01
   7112.67  2.1492281E-01
   7113.00  1.9722035E-01
   7113.33  1.6298611E-01
   7113.67  1.3307310E-01
   7114.00  1.1351917E-01
   7114.33  1.0176328E-01
   7114.67  9.0691168E-02
   7115.00  8.0997434E-02
   7115.33  7.5233228E-02
   7115.67  7.1373311E-02
   7116.00  6.8493450E-02
   7116.33  6.7585079E-02
   7116.67  6.8901352E-02
   7117.00  7.2084785E-02
   7117.33  7.6246359E-02
   7117.67  8.0487997E-02
   7118.00  8.5037084E-02
   7118.33  9.0550563E-02
   7118.67  9.6916697E-02
   7119.00  1.0392487E-01
   7119.33  1.1163219E-01
   7119.67  1.2026770E-01
   7120.00  1.3026295E-01
   7120.33  1.4240558E-01
   7120.67  1.5695617E-01
   7121.00  1.7427502E-01
   7121.33  1.9509632E-01
   7121.67  2.1924878E-01
   7122.00  2.4656523E-01
   7122.33  2.7607021E-01
   7122.67  3.0517786E-01
   7123.00  3.3180421E-01
   7123.33  3.5406732E-01
   7123.67  3.7275792E-01
   7124.00  3.8931531E-01
   7124.33  4.0491988E-01
   7124.67  4.1898809E-01
   7125.00  4.2981705E-01
   7125.33  4.3566522E-01
   7125.67  4.3800933E-01
   7126.00  4.3853086E-01
   7126.33  4.3879720E-01
   7126.67  4.4000790E-01
   7127.00  4.4302744E-01
   7127.33  4.4886397E-01
   7127.67  4.5741319E-01
   7128.00  4.6833639E-01
   7128.33  4.8080541E-01
   7128.67  4.9325484E-01
   7129.00  5.0448090E-01
   7129.33  5.1319661E-01
   7129.67  5.1930608E-01
   7130.00  5.2292145E-01
   7130.33  5.2427443E-01
   7130.67  5.2463439E-01
   7131.00  5.2564549E-01
   7131.33  5.3046081E-01
   7131.67  5.4105832E-01
   7132.00  5.5828871E-01
   7132.33  5.8243622E-01
   7132.67  6.1107851E-01
   7133.00  6.4212332E-01
   7133.33  6.7291239E-01
   7133.67  7.0178370E-01
   7134.00  7.2849815E-01
   7134.33  7.5277022E-01
   7134.67  7.7366366E-01
   7135.00  7.8933823E-01
   7135.33  7.9728946E-01
   7135.67  7.9814216E-01
   7136.00  7.9278330E-01
   7136.33  7.8244500E-01
   7136.67  7.6963984E-01
   7137.00  7.5578884E-01
   7137.33  7.4204371E-01
   7137.67  7.2900183E-01
   7138.00  7.1687813E-01
   7138.33  7.0585404E-01
   7138.67  6.9580005E-01
   7139.00  6.8672040E-01
   7139.33  6.7875677E-01
   7139.67  6.7177048E-01
   7140.00  6.6569580E-01
   7140.33  6.6045143E-01
   7140.67  6.5564254E-01
   7141.00  6.5092211E-01
   7141.33  6.4581419E-01
   7141.67  6.4001011E-01
   7142.00  6.3335308E-01
   7142.33  6.2576915E-01
   7142.67  6.1759768E-01
   7143.00  6.0916199E-01
   7143.33  6.0094599E-01
   7143.67  5.9343060E-01
   7144.00  5.8706141E-01
   7144.33  5.8255039E-01
   7144.67  5.8014606E-01
   7145.00  5.8016329E-01
   7145.33  5.8316002E-01
   7145.67  5.8881667E-01
   7146.00  5.9692099E-01
   7146.33  6.0720393E-01
   7146.67  6.1869542E-01
   7147.00  6.3063338E-01
   7147.33  6.4198211E-01
   7147.67  6.5191314E-01
   7148.00  6.5985529E-01
   7148.33  6.6515829E-01
   7148.67  6.6806789E-01
   7149.00  6.6871675E-01
   7149.33  6.6706967E-01
   7149.67  6.6355410E-01
   7150.00  6.5824531E-01
   7150.33  6.5096521E-01
   7150.67  6.4198932E-01
   7151.00  6.3142670E-01
   7151.33  6.1933074E-01
   7151.67  6.0619050E-01
   7152.00  5.9232562E-01
   7152.33  5.7806920E-01
   7152.67  5.6380294E-01
   7153.00  5.4976416E-01
   7153.33  5.3620985E-01
   7153.67  5.2321449E-01
   7154.00  5.1084187E-01
   7154.33  4.9921875E-01
   7154.67  4.8827106E-01
   7155.00  4.7797675E-01
   7155.33  4.6836901E-01
   7155.67  4.5932302E-01
   7156.00  4.5079717E-01
   7156.33  4.4280398E-01
   7156.67  4.3524186E-01
   7157.00  4.2807893E-01
   7157.33  4.2132863E-01
   7157.67  4.1491780E-01
   7158.00  4.0882760E-01
   7158.33  4.0308000E-01
   7158.67  3.9762848E-01
   7159.00  3.9247333E-01
   7159.33  3.8766206E-01
   7159.67  3.8317498E-01
   7160.00  3.7903377E-01
   7160.33  3.7531071E-01
   7160.67  3.7198398E-01
   7161.00  3.6907477E-01
   7161.33  3.6665650E-01
   7161.67  3.6468274E-01
   7162.00  3.6314951E-01
   7162.33  3.6208956E-01
   7162.67  3.6142201E-01
   7163.00  3.6111917E-01
   7163.33  3.6118728E-01
   7163.67  3.6155072E-01
   7164.00  3.6218151E-01
   7164.33  3.6307862E-01
   7164.67  3.6418324E-01
   7165.00  3.6546946E-01
   7165.33  3.6692289E-01
   7165.67  3.6848804E-01
   7166.00  3.7012986E-01
   7166.33  3.7180910E-01
   7166.67  3.7347959E-01
   7167.00  3.7511033E-01
   7167.33  3.7666685E-01
   7167.67  3.7814394E-01
   7168.00  3.7954086E-01
   7168.33  3.8086030E-01
   7168.67  3.8213227E-01
   7169.00  3.8337998E-01
   7169.33  3.8463263E-01
   7169.67  3.8591672E-01
   7170.00  3.8725161E-01
   7170.33  3.8866040E-01
   7170.67  3.9013704E-01
   7171.00  3.9166770E-01
   7171.33  3.9320731E-01
   7171.67  3.9465510E-01
   7172.00  3.9587267E-01
