    FDMNES
    energy     <xanes>
   7097.00  4.8170087E-03
   7097.33  4.9235030E-03
   7097.67  5.0345299E-03
   7098.00  5.1503832E-03
   7098.33  5.2720912E-03
   7098.67  5.3994233E-03
   7099.00  5.5327780E-03
   7099.33  5.6734891E-03
   7099.67  5.8213193E-03
   7100.00  5.9768242E-03
   7100.33  6.1417816E-03
   7100.67  6.3159677E-03
   7101.00  6.5001833E-03
   7101.33  6.6968759E-03
   7101.67  6.9058817E-03
   7102.00  7.1284009E-03
   7102.33  7.3679391E-03
   7102.67  7.6244959E-03
   7103.00  7.8999591E-03
   7103.33  8.1995995E-03
   7103.67  8.5238205E-03
   7104.00  8.8757703E-03
   7104.33  9.2638742E-03
   7104.67  9.6895233E-03
   7105.00  1.0158372E-02
   7105.33  1.0684987E-02
   7105.67  1.1273289E-02
   7106.00  1.1934457E-02
   7106.33  1.2696437E-02
   7106.67  1.3570249E-02
   7107.00  1.4581064E-02
   7107.33  1.5790752E-02
   7107.67  1.7233523E-02
   7108.00  1.8977598E-02
   7108.33  2.1192077E-02
   7108.67  2.4007423E-02
   7109.00  2.7669814E-02
   7109.33  3.2826087E-02
   7109.67  4.0195341E-02
   7110.00  5.1180745E-02
   7110.33  6.9789021E-02
   7110.67  1.0020445E-01
   7111.00  1.4352465E-01
   7111.33  1.9142066E-01
   7111.67  2.4138035E-01
   7112.00  2.8530827E-01
   7112.33  2.9058475E-01
   7112.67  2.6706059E-01
   7113.00  2.3234287E-01
   7113.33  1.9403896E-01
   7113.67  1.5918393E-01
   7114.00  1.3228561E-01
   7114.33  1.1441413E-01
   7114.67  1.0252536E-01
   7115.00  9.5331866E-02
   7115.33  9.2304587E-02
   7115.67  9.2259566E-02
   7116.00  9.4834374E-02
   7116.33  1.0014686E-01
   7116.67  1.0773054E-01
   7117.00  1.1714617E-01
   7117.33  1.2742941E-01
   7117.67  1.3781364E-01
   7118.00  1.4891548E-01
   7118.33  1.6213195E-01
   7118.67  1.7770725E-01
   7119.00  1.9547612E-01
   7119.33  2.1497720E-01
   7119.67  2.3497208E-01
   7120.00  2.5443689E-01
   7120.33  2.7232104E-01
   7120.67  2.8874971E-01
   7121.00  3.0445785E-01
   7121.33  3.2094035E-01
   7121.67  3.3950183E-01
   7122.00  3.6080241E-01
   7122.33  3.8432071E-01
   7122.67  4.0673089E-01
   7123.00  4.2513413E-01
   7123.33  4.3901579E-01
   7123.67  4.5144455E-01
   7124.00  4.6377054E-01
   7124.33  4.7567286E-01
   7124.67  4.8613764E-01
   7125.00  4.9445500E-01
   7125.33  5.0017814E-01
   7125.67  5.0462793E-01
   7126.00  5.0928421E-01
   7126.33  5.1499679E-01
   7126.67  5.2066496E-01
   7127.00  5.2517938E-01
   7127.33  5.2861682E-01
   7127.67  5.3280559E-01
   7128.00  5.3886108E-01
   7128.33  5.4689693E-01
   7128.67  5.5582171E-01
   7129.00  5.6503022E-01
   7129.33  5.7418074E-01
   7129.67  5.8304490E-01
   7130.00  5.9139394E-01
   7130.33  5.9898894E-01
   7130.67  6.0602328E-01
   7131.00  6.1277968E-01
   7131.33  6.1960711E-01
   7131.67  6.2663186E-01
   7132.00  6.3375980E-01
   7132.33  6.4072376E-01
   7132.67  6.4728026E-01
   7133.00  6.5330477E-01
   7133.33  6.5890179E-01
   7133.67  6.6462990E-01
   7134.00  6.7086118E-01
   7134.33  6.7729438E-01
   7134.67  6.8268844E-01
   7135.00  6.8578121E-01
   7135.33  6.8521837E-01
   7135.67  6.8137078E-01
   7136.00  6.7481090E-01
   7136.33  6.6628614E-01
   7136.67  6.5692611E-01
   7137.00  6.4729762E-01
   7137.33  6.3778182E-01
   7137.67  6.2849004E-01
   7138.00  6.1942260E-01
   7138.33  6.1057727E-01
   7138.67  6.0193176E-01
   7139.00  5.9353472E-01
   7139.33  5.8553321E-01
   7139.67  5.7800433E-01
   7140.00  5.7104245E-01
   7140.33  5.6481464E-01
   7140.67  5.5930730E-01
   7141.00  5.5457220E-01
   7141.33  5.5074934E-01
   7141.67  5.4775218E-01
   7142.00  5.4557287E-01
   7142.33  5.4426573E-01
   7142.67  5.4365210E-01
   7143.00  5.4363577E-01
   7143.33  5.4414620E-01
   7143.67  5.4499324E-01
   7144.00  5.4607060E-01
   7144.33  5.4727920E-01
   7144.67  5.4849776E-01
   7145.00  5.4963874E-01
   7145.33  5.5059344E-01
   7145.67  5.5131470E-01
   7146.00  5.5175119E-01
   7146.33  5.5180498E-01
   7146.67  5.5147345E-01
   7147.00  5.5072995E-01
   7147.33  5.4950414E-01
   7147.67  5.4784536E-01
   7148.00  5.4575776E-01
   7148.33  5.4320176E-01
   7148.67  5.4024696E-01
   7149.00  5.3690868E-01
   7149.33  5.3315266E-01
   7149.67  5.2903432E-01
   7150.00  5.2456168E-01
   7150.33  5.1970271E-01
   7150.67  5.1451836E-01
   7151.00  5.0903187E-01
   7151.33  5.0324451E-01
   7151.67  4.9723176E-01
   7152.00  4.9103400E-01
   7152.33  4.8468166E-01
   7152.67  4.7823560E-01
   7153.00  4.7173380E-01
   7153.33  4.6522359E-01
   7153.67  4.5874786E-01
   7154.00  4.5233980E-01
   7154.33  4.4605164E-01
   7154.67  4.3991052E-01
   7155.00  4.3395219E-01
   7155.33  4.2824536E-01
   7155.67  4.2279986E-01
   7156.00  4.1764431E-01
   7156.33  4.1284521E-01
   7156.67  4.0838320E-01
   7157.00  4.0427170E-01
   7157.33  4.0056708E-01
   7157.67  3.9723043E-01
   7158.00  3.9426358E-01
   7158.33  3.9171106E-01
   7158.67  3.8952213E-01
   7159.00  3.8769132E-01
   7159.33  3.8625551E-01
   7159.67  3.8516254E-01
   7160.00  3.8440257E-01
   7160.33  3.8400304E-01
   7160.67  3.8391398E-01
   7161.00  3.8413008E-01
   7161.33  3.8468662E-01
   7161.67  3.8554631E-01
   7162.00  3.8671271E-01
   7162.33  3.8823191E-01
   7162.67  3.9007314E-01
   7163.00  3.9224264E-01
   7163.33  3.9478409E-01
   7163.67  3.9764961E-01
   7164.00  4.0082384E-01
   7164.33  4.0431051E-01
   7164.67  4.0802938E-01
   7165.00  4.1193141E-01
   7165.33  4.1596710E-01
   7165.67  4.2005457E-01
   7166.00  4.2413800E-01
   7166.33  4.2815048E-01
   7166.67  4.3205059E-01
   7167.00  4.3580591E-01
   7167.33  4.3937053E-01
   7167.67  4.4275447E-01
   7168.00  4.4595727E-01
   7168.33  4.4896430E-01
   7168.67  4.5180910E-01
   7169.00  4.5450285E-01
   7169.33  4.5703968E-01
   7169.67  4.5944436E-01
   7170.00  4.6171840E-01
   7170.33  4.6383952E-01
   7170.67  4.6581076E-01
   7171.00  4.6761359E-01
   7171.33  4.6919365E-01
   7171.67  4.7053470E-01
   7172.00  4.7159536E-01
