    FDMNES
    energy     <xanes>
   7097.00  4.8884830E-03
   7097.33  4.9990149E-03
   7097.67  5.1143035E-03
   7098.00  5.2346546E-03
   7098.33  5.3611416E-03
   7098.67  5.4935171E-03
   7099.00  5.6321916E-03
   7099.33  5.7785490E-03
   7099.67  5.9323282E-03
   7100.00  6.0940942E-03
   7100.33  6.2656735E-03
   7100.67  6.4468066E-03
   7101.00  6.6382937E-03
   7101.33  6.8426136E-03
   7101.67  7.0595437E-03
   7102.00  7.2902559E-03
   7102.33  7.5382300E-03
   7102.67  7.8033581E-03
   7103.00  8.0874283E-03
   7103.33  8.3955308E-03
   7103.67  8.7278498E-03
   7104.00  9.0872547E-03
   7104.33  9.4815860E-03
   7104.67  9.9117390E-03
   7105.00  1.0382625E-02
   7105.33  1.0907155E-02
   7105.67  1.1488006E-02
   7106.00  1.2134333E-02
   7106.33  1.2869415E-02
   7106.67  1.3700773E-02
   7107.00  1.4647656E-02
   7107.33  1.5757908E-02
   7107.67  1.7054367E-02
   7108.00  1.8585597E-02
   7108.33  2.0472541E-02
   7108.67  2.2800594E-02
   7109.00  2.5735893E-02
   7109.33  2.9716968E-02
   7109.67  3.5221475E-02
   7110.00  4.3195296E-02
   7110.33  5.6308450E-02
   7110.67  7.6710457E-02
   7111.00  1.0209283E-01
   7111.33  1.2045697E-01
   7111.67  1.3053899E-01
   7112.00  1.4514269E-01
   7112.33  1.7997341E-01
   7112.67  2.3355643E-01
   7113.00  2.9941713E-01
   7113.33  3.5572612E-01
   7113.67  3.9197237E-01
   7114.00  4.2620403E-01
   7114.33  4.5625206E-01
   7114.67  4.4317182E-01
   7115.00  3.8372109E-01
   7115.33  3.1658502E-01
   7115.67  2.6703650E-01
   7116.00  2.3748346E-01
   7116.33  2.2691539E-01
   7116.67  2.2880562E-01
   7117.00  2.3606354E-01
   7117.33  2.3285797E-01
   7117.67  2.1157836E-01
   7118.00  1.8038781E-01
   7118.33  1.5263821E-01
   7118.67  1.3195943E-01
   7119.00  1.1767552E-01
   7119.33  1.0868846E-01
   7119.67  1.0284268E-01
   7120.00  9.9276730E-02
   7120.33  9.7917091E-02
   7120.67  9.8473492E-02
   7121.00  1.0059010E-01
   7121.33  1.0381688E-01
   7121.67  1.0800247E-01
   7122.00  1.1344030E-01
   7122.33  1.2040581E-01
   7122.67  1.2852530E-01
   7123.00  1.3770291E-01
   7123.33  1.4838287E-01
   7123.67  1.6126113E-01
   7124.00  1.7744668E-01
   7124.33  1.9860698E-01
   7124.67  2.2444952E-01
   7125.00  2.5414902E-01
   7125.33  2.8571306E-01
   7125.67  3.1632738E-01
   7126.00  3.4449520E-01
   7126.33  3.6903111E-01
   7126.67  3.8956462E-01
   7127.00  4.0543167E-01
   7127.33  4.1692386E-01
   7127.67  4.2789755E-01
   7128.00  4.4237695E-01
   7128.33  4.6547638E-01
   7128.67  4.9873081E-01
   7129.00  5.4255211E-01
   7129.33  5.9548461E-01
   7129.67  6.4984956E-01
   7130.00  6.9773294E-01
   7130.33  7.3120046E-01
   7130.67  7.5221870E-01
   7131.00  7.6428410E-01
   7131.33  7.7070512E-01
   7131.67  7.7483786E-01
   7132.00  7.7830419E-01
   7132.33  7.8274603E-01
   7132.67  7.8933478E-01
   7133.00  7.9898687E-01
   7133.33  8.1308772E-01
   7133.67  8.3159489E-01
   7134.00  8.5390270E-01
   7134.33  8.7691296E-01
   7134.67  8.9398451E-01
   7135.00  8.9833938E-01
   7135.33  8.8357041E-01
   7135.67  8.5476481E-01
   7136.00  8.1863989E-01
   7136.33  7.8311813E-01
   7136.67  7.5287372E-01
   7137.00  7.2921389E-01
   7137.33  7.1238197E-01
   7137.67  7.0016694E-01
   7138.00  6.9120821E-01
   7138.33  6.8435902E-01
   7138.67  6.7835043E-01
   7139.00  6.7260141E-01
   7139.33  6.6676029E-01
   7139.67  6.6078797E-01
   7140.00  6.5479872E-01
   7140.33  6.4903957E-01
   7140.67  6.4369709E-01
   7141.00  6.3887089E-01
   7141.33  6.3468686E-01
   7141.67  6.3113288E-01
   7142.00  6.2828491E-01
   7142.33  6.2637475E-01
   7142.67  6.2546667E-01
   7143.00  6.2572306E-01
   7143.33  6.2748308E-01
   7143.67  6.3067602E-01
   7144.00  6.3526999E-01
   7144.33  6.4117264E-01
   7144.67  6.4772940E-01
   7145.00  6.5427009E-01
   7145.33  6.5966210E-01
   7145.67  6.6293731E-01
   7146.00  6.6326982E-01
   7146.33  6.5963631E-01
   7146.67  6.5246827E-01
   7147.00  6.4221900E-01
   7147.33  6.2951655E-01
   7147.67  6.1567559E-01
   7148.00  6.0151978E-01
   7148.33  5.8785258E-01
   7148.67  5.7510592E-01
   7149.00  5.6350539E-01
   7149.33  5.5329413E-01
   7149.67  5.4427498E-01
   7150.00  5.3634402E-01
   7150.33  5.2945045E-01
   7150.67  5.2329000E-01
   7151.00  5.1769750E-01
   7151.33  5.1253953E-01
   7151.67  5.0760984E-01
   7152.00  5.0279999E-01
   7152.33  4.9802778E-01
   7152.67  4.9326218E-01
   7153.00  4.8853214E-01
   7153.33  4.8391550E-01
   7153.67  4.7949559E-01
   7154.00  4.7537888E-01
   7154.33  4.7175737E-01
   7154.67  4.6870755E-01
   7155.00  4.6632410E-01
   7155.33  4.6477751E-01
   7155.67  4.6401000E-01
   7156.00  4.6401525E-01
   7156.33  4.6483317E-01
   7156.67  4.6627924E-01
   7157.00  4.6824202E-01
   7157.33  4.7060978E-01
   7157.67  4.7316462E-01
   7158.00  4.7575717E-01
   7158.33  4.7821022E-01
   7158.67  4.8040121E-01
   7159.00  4.8223537E-01
   7159.33  4.8357652E-01
   7159.67  4.8442690E-01
   7160.00  4.8476100E-01
   7160.33  4.8450115E-01
   7160.67  4.8371731E-01
   7161.00  4.8242562E-01
   7161.33  4.8060217E-01
   7161.67  4.7834733E-01
   7162.00  4.7569844E-01
   7162.33  4.7266194E-01
   7162.67  4.6933665E-01
   7163.00  4.6577401E-01
   7163.33  4.6201350E-01
   7163.67  4.5813809E-01
   7164.00  4.5419879E-01
   7164.33  4.5024853E-01
   7164.67  4.4633354E-01
   7165.00  4.4248972E-01
   7165.33  4.3877175E-01
   7165.67  4.3520059E-01
   7166.00  4.3180137E-01
   7166.33  4.2862337E-01
   7166.67  4.2566182E-01
   7167.00  4.2292938E-01
   7167.33  4.2046687E-01
   7167.67  4.1825231E-01
   7168.00  4.1629063E-01
   7168.33  4.1461676E-01
   7168.67  4.1319929E-01
   7169.00  4.1203984E-01
   7169.33  4.1117668E-01
   7169.67  4.1057705E-01
   7170.00  4.1023540E-01
   7170.33  4.1017248E-01
   7170.67  4.1034152E-01
   7171.00  4.1071997E-01
   7171.33  4.1127992E-01
   7171.67  4.1190836E-01
   7172.00  4.1247739E-01
