    FDMNES
    energy     <xanes>
   7097.00  5.2925846E-03
   7097.33  5.4264997E-03
   7097.67  5.5667857E-03
   7098.00  5.7138873E-03
   7098.33  5.8693015E-03
   7098.67  6.0327450E-03
   7099.00  6.2048275E-03
   7099.33  6.3875208E-03
   7099.67  6.5805400E-03
   7100.00  6.7847438E-03
   7100.33  7.0027998E-03
   7100.67  7.2344546E-03
   7101.00  7.4809575E-03
   7101.33  7.7460321E-03
   7101.67  8.0295319E-03
   7102.00  8.3333437E-03
   7102.33  8.6628668E-03
   7102.67  9.0182279E-03
   7103.00  9.4024096E-03
   7103.33  9.8236150E-03
   7103.67  1.0282624E-02
   7104.00  1.0784426E-02
   7104.33  1.1342233E-02
   7104.67  1.1958399E-02
   7105.00  1.2641889E-02
   7105.33  1.3415653E-02
   7105.67  1.4286039E-02
   7106.00  1.5270754E-02
   7106.33  1.6413899E-02
   7106.67  1.7733027E-02
   7107.00  1.9267955E-02
   7107.33  2.1116467E-02
   7107.67  2.3332950E-02
   7108.00  2.6025781E-02
   7108.33  2.9464212E-02
   7108.67  3.3859002E-02
   7109.00  3.9609335E-02
   7109.33  4.7773423E-02
   7109.67  5.9562920E-02
   7110.00  7.7365521E-02
   7110.33  1.0807183E-01
   7110.67  1.5870237E-01
   7111.00  2.2816962E-01
   7111.33  2.8133435E-01
   7111.67  3.0360084E-01
   7112.00  3.2177311E-01
   7112.33  3.5471072E-01
   7112.67  3.9991572E-01
   7113.00  4.5101447E-01
   7113.33  4.9787120E-01
   7113.67  5.1487497E-01
   7114.00  4.7633117E-01
   7114.33  3.9722793E-01
   7114.67  3.2107378E-01
   7115.00  2.6236966E-01
   7115.33  2.2399856E-01
   7115.67  1.9885461E-01
   7116.00  1.8248466E-01
   7116.33  1.7036153E-01
   7116.67  1.5759135E-01
   7117.00  1.4275094E-01
   7117.33  1.2849289E-01
   7117.67  1.1817815E-01
   7118.00  1.1238118E-01
   7118.33  1.1029761E-01
   7118.67  1.1029009E-01
   7119.00  1.1183267E-01
   7119.33  1.1481199E-01
   7119.67  1.1896887E-01
   7120.00  1.2451530E-01
   7120.33  1.3240493E-01
   7120.67  1.4306779E-01
   7121.00  1.5687230E-01
   7121.33  1.7480222E-01
   7121.67  1.9765657E-01
   7122.00  2.2599561E-01
   7122.33  2.5834737E-01
   7122.67  2.8980169E-01
   7123.00  3.1799458E-01
   7123.33  3.4676995E-01
   7123.67  3.8219844E-01
   7124.00  4.2550074E-01
   7124.33  4.7337826E-01
   7124.67  5.1861173E-01
   7125.00  5.5688008E-01
   7125.33  5.8745196E-01
   7125.67  6.1319044E-01
   7126.00  6.3264810E-01
   7126.33  6.4024889E-01
   7126.67  6.3766524E-01
   7127.00  6.3101713E-01
   7127.33  6.2910679E-01
   7127.67  6.3636562E-01
   7128.00  6.5399651E-01
   7128.33  6.8159674E-01
   7128.67  7.1383321E-01
   7129.00  7.4481966E-01
   7129.33  7.6439459E-01
   7129.67  7.6770153E-01
   7130.00  7.5638442E-01
   7130.33  7.3743736E-01
   7130.67  7.1803934E-01
   7131.00  6.9929381E-01
   7131.33  6.7970848E-01
   7131.67  6.5901761E-01
   7132.00  6.3882067E-01
   7132.33  6.2219410E-01
   7132.67  6.1080859E-01
   7133.00  6.0557666E-01
   7133.33  6.0735797E-01
   7133.67  6.1444994E-01
   7134.00  6.2531900E-01
   7134.33  6.3756199E-01
   7134.67  6.4795466E-01
   7135.00  6.5410827E-01
   7135.33  6.5418665E-01
   7135.67  6.5015169E-01
   7136.00  6.4426541E-01
   7136.33  6.3893865E-01
   7136.67  6.3533251E-01
   7137.00  6.3357678E-01
   7137.33  6.3318454E-01
   7137.67  6.3297112E-01
   7138.00  6.3211433E-01
   7138.33  6.2989650E-01
   7138.67  6.2636665E-01
   7139.00  6.2166432E-01
   7139.33  6.1589177E-01
   7139.67  6.0934296E-01
   7140.00  6.0210777E-01
   7140.33  5.9413147E-01
   7140.67  5.8543094E-01
   7141.00  5.7587770E-01
   7141.33  5.6515435E-01
   7141.67  5.5326449E-01
   7142.00  5.4023167E-01
   7142.33  5.2615795E-01
   7142.67  5.1152657E-01
   7143.00  4.9668808E-01
   7143.33  4.8202212E-01
   7143.67  4.6779461E-01
   7144.00  4.5421742E-01
   7144.33  4.4165527E-01
   7144.67  4.3026219E-01
   7145.00  4.2025862E-01
   7145.33  4.1204601E-01
   7145.67  4.0553599E-01
   7146.00  4.0074484E-01
   7146.33  3.9782159E-01
   7146.67  3.9643962E-01
   7147.00  3.9646358E-01
   7147.33  3.9786172E-01
   7147.67  4.0027546E-01
   7148.00  4.0351402E-01
   7148.33  4.0741358E-01
   7148.67  4.1164940E-01
   7149.00  4.1599807E-01
   7149.33  4.2017873E-01
   7149.67  4.2395845E-01
   7150.00  4.2714726E-01
   7150.33  4.2947984E-01
   7150.67  4.3095020E-01
   7151.00  4.3153398E-01
   7151.33  4.3117054E-01
   7151.67  4.3007779E-01
   7152.00  4.2839316E-01
   7152.33  4.2625821E-01
   7152.67  4.2393431E-01
   7153.00  4.2160494E-01
   7153.33  4.1949101E-01
   7153.67  4.1772526E-01
   7154.00  4.1639119E-01
   7154.33  4.1556063E-01
   7154.67  4.1508833E-01
   7155.00  4.1480795E-01
   7155.33  4.1442049E-01
   7155.67  4.1358952E-01
   7156.00  4.1201778E-01
   7156.33  4.0930597E-01
   7156.67  4.0544765E-01
   7157.00  4.0045961E-01
   7157.33  3.9437328E-01
   7157.67  3.8756058E-01
   7158.00  3.8027032E-01
   7158.33  3.7276788E-01
   7158.67  3.6533855E-01
   7159.00  3.5817384E-01
   7159.33  3.5150713E-01
   7159.67  3.4541081E-01
   7160.00  3.3995459E-01
   7160.33  3.3525717E-01
   7160.67  3.3122698E-01
   7161.00  3.2783766E-01
   7161.33  3.2511488E-01
   7161.67  3.2292405E-01
   7162.00  3.2121028E-01
   7162.33  3.1996420E-01
   7162.67  3.1908016E-01
   7163.00  3.1851891E-01
   7163.33  3.1827968E-01
   7163.67  3.1830538E-01
   7164.00  3.1858934E-01
   7164.33  3.1916535E-01
   7164.67  3.2000839E-01
   7165.00  3.2112742E-01
   7165.33  3.2256919E-01
   7165.67  3.2430614E-01
   7166.00  3.2634183E-01
   7166.33  3.2871365E-01
   7166.67  3.3138018E-01
   7167.00  3.3433487E-01
   7167.33  3.3760202E-01
   7167.67  3.4113437E-01
   7168.00  3.4491994E-01
   7168.33  3.4897376E-01
   7168.67  3.5325001E-01
   7169.00  3.5773388E-01
   7169.33  3.6243087E-01
   7169.67  3.6729630E-01
   7170.00  3.7230760E-01
   7170.33  3.7744314E-01
   7170.67  3.8263533E-01
   7171.00  3.8781078E-01
   7171.33  3.9280161E-01
   7171.67  3.9735714E-01
   7172.00  4.0112192E-01
