    FDMNES
    energy     <xanes>
   7097.00  4.9831011E-03
   7097.33  5.1035189E-03
   7097.67  5.2295075E-03
   7098.00  5.3614494E-03
   7098.33  5.5006431E-03
   7098.67  5.6468321E-03
   7099.00  5.8005386E-03
   7099.33  5.9634649E-03
   7099.67  6.1353490E-03
   7100.00  6.3169220E-03
   7100.33  6.5104731E-03
   7100.67  6.7157602E-03
   7101.00  6.9338385E-03
   7101.33  7.1678790E-03
   7101.67  7.4177163E-03
   7102.00  7.6849271E-03
   7102.33  7.9740634E-03
   7102.67  8.2851595E-03
   7103.00  8.6206730E-03
   7103.33  8.9874247E-03
   7103.67  9.3859255E-03
   7104.00  9.8202066E-03
   7104.33  1.0301044E-02
   7104.67  1.0830074E-02
   7105.00  1.1414346E-02
   7105.33  1.2072063E-02
   7105.67  1.2807625E-02
   7106.00  1.3634418E-02
   7106.33  1.4586015E-02
   7106.67  1.5674171E-02
   7107.00  1.6927306E-02
   7107.33  1.8415337E-02
   7107.67  2.0172431E-02
   7108.00  2.2269498E-02
   7108.33  2.4881123E-02
   7108.67  2.8126713E-02
   7109.00  3.2235192E-02
   7109.33  3.7796378E-02
   7109.67  4.5401869E-02
   7110.00  5.6199260E-02
   7110.33  7.3403725E-02
   7110.67  1.0031913E-01
   7111.00  1.3845110E-01
   7111.33  1.8303286E-01
   7111.67  2.3233990E-01
   7112.00  2.8973280E-01
   7112.33  3.6248783E-01
   7112.67  4.6524098E-01
   7113.00  5.9015749E-01
   7113.33  6.4303336E-01
   7113.67  5.7961078E-01
   7114.00  4.4989381E-01
   7114.33  3.2667599E-01
   7114.67  2.3583962E-01
   7115.00  1.7616248E-01
   7115.33  1.4035868E-01
   7115.67  1.1741034E-01
   7116.00  1.0292165E-01
   7116.33  9.4689228E-02
   7116.67  9.0378644E-02
   7117.00  8.9019611E-02
   7117.33  9.0447862E-02
   7117.67  9.4442828E-02
   7118.00  1.0118474E-01
   7118.33  1.1118006E-01
   7118.67  1.2340180E-01
   7119.00  1.3579637E-01
   7119.33  1.4402494E-01
   7119.67  1.4688805E-01
   7120.00  1.4662141E-01
   7120.33  1.4595138E-01
   7120.67  1.4611977E-01
   7121.00  1.4751594E-01
   7121.33  1.4992312E-01
   7121.67  1.5315734E-01
   7122.00  1.5789908E-01
   7122.33  1.6532397E-01
   7122.67  1.7606115E-01
   7123.00  1.9099719E-01
   7123.33  2.1159627E-01
   7123.67  2.3778712E-01
   7124.00  2.6958033E-01
   7124.33  3.0610619E-01
   7124.67  3.4304586E-01
   7125.00  3.7562413E-01
   7125.33  3.9823816E-01
   7125.67  4.1142066E-01
   7126.00  4.1743736E-01
   7126.33  4.1899077E-01
   7126.67  4.1850140E-01
   7127.00  4.1696767E-01
   7127.33  4.1662033E-01
   7127.67  4.2022199E-01
   7128.00  4.2928705E-01
   7128.33  4.4400744E-01
   7128.67  4.6168470E-01
   7129.00  4.8026557E-01
   7129.33  4.9780984E-01
   7129.67  5.1368159E-01
   7130.00  5.2808923E-01
   7130.33  5.4202839E-01
   7130.67  5.5683158E-01
   7131.00  5.7314224E-01
   7131.33  5.9108295E-01
   7131.67  6.0984124E-01
   7132.00  6.2880477E-01
   7132.33  6.4743839E-01
   7132.67  6.6554090E-01
   7133.00  6.8303076E-01
   7133.33  6.9970052E-01
   7133.67  7.1521969E-01
   7134.00  7.2880742E-01
   7134.33  7.3891413E-01
   7134.67  7.4505121E-01
   7135.00  7.4701057E-01
   7135.33  7.4470650E-01
   7135.67  7.3936381E-01
   7136.00  7.3161039E-01
   7136.33  7.2169024E-01
   7136.67  7.1005081E-01
   7137.00  6.9678321E-01
   7137.33  6.8192667E-01
   7137.67  6.6609274E-01
   7138.00  6.4982224E-01
   7138.33  6.3391087E-01
   7138.67  6.1912773E-01
   7139.00  6.0614903E-01
   7139.33  5.9598233E-01
   7139.67  5.8883625E-01
   7140.00  5.8496703E-01
   7140.33  5.8482190E-01
   7140.67  5.8772562E-01
   7141.00  5.9324357E-01
   7141.33  6.0094405E-01
   7141.67  6.0985314E-01
   7142.00  6.1940858E-01
   7142.33  6.2916322E-01
   7142.67  6.3886203E-01
   7143.00  6.4845999E-01
   7143.33  6.5802674E-01
   7143.67  6.6770404E-01
   7144.00  6.7759678E-01
   7144.33  6.8778527E-01
   7144.67  6.9817279E-01
   7145.00  7.0861176E-01
   7145.33  7.1881295E-01
   7145.67  7.2847370E-01
   7146.00  7.3728935E-01
   7146.33  7.4476840E-01
   7146.67  7.5076204E-01
   7147.00  7.5507064E-01
   7147.33  7.5731098E-01
   7147.67  7.5765344E-01
   7148.00  7.5612503E-01
   7148.33  7.5262472E-01
   7148.67  7.4756424E-01
   7149.00  7.4114242E-01
   7149.33  7.3345137E-01
   7149.67  7.2484182E-01
   7150.00  7.1547468E-01
   7150.33  7.0542569E-01
   7150.67  6.9487447E-01
   7151.00  6.8389292E-01
   7151.33  6.7251829E-01
   7151.67  6.6088514E-01
   7152.00  6.4908266E-01
   7152.33  6.3720118E-01
   7152.67  6.2534328E-01
   7153.00  6.1358723E-01
   7153.33  6.0203908E-01
   7153.67  5.9074866E-01
   7154.00  5.7977029E-01
   7154.33  5.6920272E-01
   7154.67  5.5904370E-01
   7155.00  5.4932318E-01
   7155.33  5.4012526E-01
   7155.67  5.3141096E-01
   7156.00  5.2319275E-01
   7156.33  5.1554284E-01
   7156.67  5.0840095E-01
   7157.00  5.0176509E-01
   7157.33  4.9568915E-01
   7157.67  4.9009371E-01
   7158.00  4.8495383E-01
   7158.33  4.8027689E-01
   7158.67  4.7595153E-01
   7159.00  4.7191535E-01
   7159.33  4.6811194E-01
   7159.67  4.6442914E-01
   7160.00  4.6079545E-01
   7160.33  4.5713301E-01
   7160.67  4.5338480E-01
   7161.00  4.4951893E-01
   7161.33  4.4551079E-01
   7161.67  4.4139421E-01
   7162.00  4.3720228E-01
   7162.33  4.3298580E-01
   7162.67  4.2880825E-01
   7163.00  4.2471637E-01
   7163.33  4.2076938E-01
   7163.67  4.1698212E-01
   7164.00  4.1336524E-01
   7164.33  4.0992994E-01
   7164.67  4.0662866E-01
   7165.00  4.0342866E-01
   7165.33  4.0029431E-01
   7165.67  3.9717814E-01
   7166.00  3.9405370E-01
   7166.33  3.9090017E-01
   7166.67  3.8772065E-01
   7167.00  3.8453013E-01
   7167.33  3.8136404E-01
   7167.67  3.7826368E-01
   7168.00  3.7527204E-01
   7168.33  3.7246221E-01
   7168.67  3.6986424E-01
   7169.00  3.6751489E-01
   7169.33  3.6548237E-01
   7169.67  3.6375284E-01
   7170.00  3.6233540E-01
   7170.33  3.6127000E-01
   7170.67  3.6050698E-01
   7171.00  3.6002640E-01
   7171.33  3.5981624E-01
   7171.67  3.5977123E-01
   7172.00  3.5979198E-01
