    FDMNES
    energy     <xanes>
   7097.00  4.9846580E-03
   7097.33  5.1051238E-03
   7097.67  5.2311629E-03
   7098.00  5.3631580E-03
   7098.33  5.5024082E-03
   7098.67  5.6486567E-03
   7099.00  5.8024260E-03
   7099.33  5.9654191E-03
   7099.67  6.1373739E-03
   7100.00  6.3190218E-03
   7100.33  6.5126528E-03
   7100.67  6.7180249E-03
   7101.00  6.9361933E-03
   7101.33  7.1703305E-03
   7101.67  7.4202708E-03
   7102.00  7.6875912E-03
   7102.33  7.9768456E-03
   7102.67  8.2880679E-03
   7103.00  8.6237163E-03
   7103.33  8.9906136E-03
   7103.67  9.3892703E-03
   7104.00  9.8237186E-03
   7104.33  1.0304737E-02
   7104.67  1.0833960E-02
   7105.00  1.1418439E-02
   7105.33  1.2076379E-02
   7105.67  1.2812178E-02
   7106.00  1.3639222E-02
   7106.33  1.4591082E-02
   7106.67  1.5679510E-02
   7107.00  1.6932919E-02
   7107.33  1.8421211E-02
   7107.67  2.0178534E-02
   7108.00  2.2275762E-02
   7108.33  2.4887397E-02
   7108.67  2.8132740E-02
   7109.00  3.2240529E-02
   7109.33  3.7800064E-02
   7109.67  4.5402220E-02
   7110.00  5.6193171E-02
   7110.33  7.3383758E-02
   7110.67  1.0027140E-01
   7111.00  1.3835384E-01
   7111.33  1.8287808E-01
   7111.67  2.3217395E-01
   7112.00  2.8961894E-01
   7112.33  3.6253420E-01
   7112.67  4.6557848E-01
   7113.00  5.9115752E-01
   7113.33  6.4448075E-01
   7113.67  5.8052576E-01
   7114.00  4.5023475E-01
   7114.33  3.2680627E-01
   7114.67  2.3588504E-01
   7115.00  1.7617533E-01
   7115.33  1.4035934E-01
   7115.67  1.1740520E-01
   7116.00  1.0291468E-01
   7116.33  9.4683759E-02
   7116.67  9.0375230E-02
   7117.00  8.9015198E-02
   7117.33  9.0438748E-02
   7117.67  9.4430275E-02
   7118.00  1.0117655E-01
   7118.33  1.1120116E-01
   7118.67  1.2349909E-01
   7119.00  1.3603630E-01
   7119.33  1.4443528E-01
   7119.67  1.4737565E-01
   7120.00  1.4707148E-01
   7120.33  1.4630388E-01
   7120.67  1.4639430E-01
   7121.00  1.4777980E-01
   7121.33  1.5022997E-01
   7121.67  1.5348403E-01
   7122.00  1.5819521E-01
   7122.33  1.6555075E-01
   7122.67  1.7620437E-01
   7123.00  1.9105019E-01
   7123.33  2.1154344E-01
   7123.67  2.3759896E-01
   7124.00  2.6921483E-01
   7124.33  3.0551551E-01
   7124.67  3.4222201E-01
   7125.00  3.7461818E-01
   7125.33  3.9717795E-01
   7125.67  4.1042591E-01
   7126.00  4.1658770E-01
   7126.33  4.1831746E-01
   7126.67  4.1801436E-01
   7127.00  4.1668175E-01
   7127.33  4.1654278E-01
   7127.67  4.2034304E-01
   7128.00  4.2960616E-01
   7128.33  4.4456209E-01
   7128.67  4.6253585E-01
   7129.00  4.8147543E-01
   7129.33  4.9941784E-01
   7129.67  5.1567274E-01
   7130.00  5.3039703E-01
   7130.33  5.4451336E-01
   7130.67  5.5932201E-01
   7131.00  5.7544109E-01
   7131.33  5.9297566E-01
   7131.67  6.1119091E-01
   7132.00  6.2954603E-01
   7132.33  6.4758896E-01
   7132.67  6.6517054E-01
   7133.00  6.8223049E-01
   7133.33  6.9858199E-01
   7133.67  7.1388587E-01
   7134.00  7.2736197E-01
   7134.33  7.3746895E-01
   7134.67  7.4369937E-01
   7135.00  7.4583728E-01
   7135.33  7.4378566E-01
   7135.67  7.3872581E-01
   7136.00  7.3124703E-01
   7136.33  7.2154633E-01
   7136.67  7.1005485E-01
   7137.00  6.9686374E-01
   7137.33  6.8202445E-01
   7137.67  6.6618234E-01
   7138.00  6.4989785E-01
   7138.33  6.3397773E-01
   7138.67  6.1918732E-01
   7139.00  6.0619386E-01
   7139.33  5.9599287E-01
   7139.67  5.8879157E-01
   7140.00  5.8484932E-01
   7140.33  5.8462058E-01
   7140.67  5.8744095E-01
   7141.00  5.9288235E-01
   7141.33  6.0051842E-01
   7141.67  6.0937431E-01
   7142.00  6.1888680E-01
   7142.33  6.2860991E-01
   7142.67  6.3828993E-01
   7143.00  6.4788588E-01
   7143.33  6.5747453E-01
   7143.67  6.6719703E-01
   7144.00  6.7715692E-01
   7144.33  6.8743116E-01
   7144.67  6.9791263E-01
   7145.00  7.0844588E-01
   7145.33  7.1873296E-01
   7145.67  7.2846745E-01
   7146.00  7.3734380E-01
   7146.33  7.4487120E-01
   7146.67  7.5090633E-01
   7147.00  7.5525336E-01
   7147.33  7.5753248E-01
   7147.67  7.5791530E-01
   7148.00  7.5642803E-01
   7148.33  7.5296652E-01
   7148.67  7.4793875E-01
   7149.00  7.4154012E-01
   7149.33  7.3385823E-01
   7149.67  7.2524420E-01
   7150.00  7.1585940E-01
   7150.33  7.0577971E-01
   7150.67  6.9518804E-01
   7151.00  6.8415771E-01
   7151.33  6.7272632E-01
   7151.67  6.6103031E-01
   7152.00  6.4915966E-01
   7152.33  6.3720516E-01
   7152.67  6.2527118E-01
   7153.00  6.1343740E-01
   7153.33  6.0181185E-01
   7153.67  5.9044657E-01
   7154.00  5.7939799E-01
   7154.33  5.6876821E-01
   7154.67  5.5855645E-01
   7155.00  5.4879441E-01
   7155.33  5.3956937E-01
   7155.67  5.3084167E-01
   7156.00  5.2262383E-01
   7156.33  5.1498883E-01
   7156.67  5.0787286E-01
   7157.00  5.0127149E-01
   7157.33  4.9523548E-01
   7157.67  4.8968064E-01
   7158.00  4.8457850E-01
   7158.33  4.7993214E-01
   7158.67  4.7562862E-01
   7159.00  4.7160454E-01
   7159.33  4.6780241E-01
   7159.67  4.6411240E-01
   7160.00  4.6046455E-01
   7160.33  4.5678246E-01
   7160.67  4.5301187E-01
   7161.00  4.4912247E-01
   7161.33  4.4509113E-01
   7161.67  4.4095276E-01
   7162.00  4.3674119E-01
   7162.33  4.3250820E-01
   7162.67  4.2831740E-01
   7163.00  4.2421591E-01
   7163.33  4.2026385E-01
   7163.67  4.1647586E-01
   7164.00  4.1286287E-01
   7164.33  4.0943710E-01
   7164.67  4.0615082E-01
   7165.00  4.0297161E-01
   7165.33  3.9986486E-01
   7165.67  3.9678229E-01
   7166.00  3.9369707E-01
   7166.33  3.9058821E-01
   7166.67  3.8745711E-01
   7167.00  3.8431765E-01
   7167.33  3.8120411E-01
   7167.67  3.7815637E-01
   7168.00  3.7521643E-01
   7168.33  3.7245633E-01
   7168.67  3.6990571E-01
   7169.00  3.6760107E-01
   7169.33  3.6560890E-01
   7169.67  3.6391346E-01
   7170.00  3.6252482E-01
   7170.33  3.6148414E-01
   7170.67  3.6074229E-01
   7171.00  3.6027929E-01
   7171.33  3.6008284E-01
   7171.67  3.6004845E-01
   7172.00  3.6007713E-01
