    FDMNES
    energy     <xanes>
   7097.00  4.9929903E-03
   7097.33  5.1119503E-03
   7097.67  5.2363492E-03
   7098.00  5.3665613E-03
   7098.33  5.5038567E-03
   7098.67  5.6479883E-03
   7099.00  5.7994703E-03
   7099.33  5.9599745E-03
   7099.67  6.1292538E-03
   7100.00  6.3080345E-03
   7100.33  6.4985796E-03
   7100.67  6.7006726E-03
   7101.00  6.9153747E-03
   7101.33  7.1458520E-03
   7101.67  7.3919870E-03
   7102.00  7.6553932E-03
   7102.33  7.9406820E-03
   7102.67  8.2479879E-03
   7103.00  8.5798846E-03
   7103.33  8.9434300E-03
   7103.67  9.3393641E-03
   7104.00  9.7720454E-03
   7104.33  1.0252971E-02
   7104.67  1.0784355E-02
   7105.00  1.1374163E-02
   7105.33  1.2042698E-02
   7105.67  1.2795982E-02
   7106.00  1.3650112E-02
   7106.33  1.4645053E-02
   7106.67  1.5797783E-02
   7107.00  1.7145677E-02
   7107.33  1.8780477E-02
   7107.67  2.0756523E-02
   7108.00  2.3180245E-02
   7108.33  2.6317500E-02
   7108.67  3.0389642E-02
   7109.00  3.5814950E-02
   7109.33  4.3719194E-02
   7109.67  5.5467218E-02
   7110.00  7.3765643E-02
   7110.33  1.0635178E-01
   7110.67  1.5934243E-01
   7111.00  2.2367497E-01
   7111.33  2.5827055E-01
   7111.67  2.5935527E-01
   7112.00  2.5740321E-01
   7112.33  2.7544850E-01
   7112.67  3.0202547E-01
   7113.00  3.2610159E-01
   7113.33  3.4278320E-01
   7113.67  3.6397227E-01
   7114.00  3.6898837E-01
   7114.33  3.2043041E-01
   7114.67  2.5040463E-01
   7115.00  1.8768809E-01
   7115.33  1.4853607E-01
   7115.67  1.2867107E-01
   7116.00  1.2187983E-01
   7116.33  1.1876851E-01
   7116.67  1.1321784E-01
   7117.00  1.0750210E-01
   7117.33  1.0614353E-01
   7117.67  1.0953530E-01
   7118.00  1.1587672E-01
   7118.33  1.2030558E-01
   7118.67  1.2069242E-01
   7119.00  1.1943393E-01
   7119.33  1.1951666E-01
   7119.67  1.2158188E-01
   7120.00  1.2591460E-01
   7120.33  1.3325647E-01
   7120.67  1.4339843E-01
   7121.00  1.5611888E-01
   7121.33  1.7130134E-01
   7121.67  1.8819379E-01
   7122.00  2.0618642E-01
   7122.33  2.2436103E-01
   7122.67  2.4189221E-01
   7123.00  2.5863105E-01
   7123.33  2.7533344E-01
   7123.67  2.9354564E-01
   7124.00  3.1468115E-01
   7124.33  3.3979425E-01
   7124.67  3.6730112E-01
   7125.00  3.9503385E-01
   7125.33  4.1919283E-01
   7125.67  4.3707970E-01
   7126.00  4.4802727E-01
   7126.33  4.5271282E-01
   7126.67  4.5348328E-01
   7127.00  4.5183462E-01
   7127.33  4.4950458E-01
   7127.67  4.4813462E-01
   7128.00  4.4910673E-01
   7128.33  4.5472862E-01
   7128.67  4.6603183E-01
   7129.00  4.8366770E-01
   7129.33  5.0807245E-01
   7129.67  5.3730735E-01
   7130.00  5.7024967E-01
   7130.33  6.0665476E-01
   7130.67  6.4623596E-01
   7131.00  6.8884590E-01
   7131.33  7.3335298E-01
   7131.67  7.7716481E-01
   7132.00  8.1811917E-01
   7132.33  8.5391988E-01
   7132.67  8.8485553E-01
   7133.00  9.1160293E-01
   7133.33  9.3479833E-01
   7133.67  9.5579548E-01
   7134.00  9.7546221E-01
   7134.33  9.9464873E-01
   7134.67  1.0137846E+00
   7135.00  1.0325527E+00
   7135.33  1.0496329E+00
   7135.67  1.0640024E+00
   7136.00  1.0755965E+00
   7136.33  1.0853486E+00
   7136.67  1.0944061E+00
   7137.00  1.1023999E+00
   7137.33  1.1069326E+00
   7137.67  1.1051441E+00
   7138.00  1.0939875E+00
   7138.33  1.0693501E+00
   7138.67  1.0323175E+00
   7139.00  9.8463426E-01
   7139.33  9.2920980E-01
   7139.67  8.7117841E-01
   7140.00  8.1367502E-01
   7140.33  7.5960852E-01
   7140.67  7.0994782E-01
   7141.00  6.6513289E-01
   7141.33  6.2573721E-01
   7141.67  5.9081421E-01
   7142.00  5.5999421E-01
   7142.33  5.3325848E-01
   7142.67  5.0962992E-01
   7143.00  4.8868991E-01
   7143.33  4.7030337E-01
   7143.67  4.5384224E-01
   7144.00  4.3906537E-01
   7144.33  4.2592567E-01
   7144.67  4.1406035E-01
   7145.00  4.0334776E-01
   7145.33  3.9380676E-01
   7145.67  3.8522299E-01
   7146.00  3.7754349E-01
   7146.33  3.7083461E-01
   7146.67  3.6496741E-01
   7147.00  3.5993662E-01
   7147.33  3.5584437E-01
   7147.67  3.5257216E-01
   7148.00  3.5008494E-01
   7148.33  3.4839477E-01
   7148.67  3.4730045E-01
   7149.00  3.4668617E-01
   7149.33  3.4644948E-01
   7149.67  3.4641009E-01
   7150.00  3.4647094E-01
   7150.33  3.4655387E-01
   7150.67  3.4661224E-01
   7151.00  3.4662730E-01
   7151.33  3.4657308E-01
   7151.67  3.4642892E-01
   7152.00  3.4615687E-01
   7152.33  3.4567945E-01
   7152.67  3.4496662E-01
   7153.00  3.4398505E-01
   7153.33  3.4268219E-01
   7153.67  3.4110238E-01
   7154.00  3.3927087E-01
   7154.33  3.3720535E-01
   7154.67  3.3498393E-01
   7155.00  3.3265355E-01
   7155.33  3.3026086E-01
   7155.67  3.2786427E-01
   7156.00  3.2550679E-01
   7156.33  3.2324843E-01
   7156.67  3.2112613E-01
   7157.00  3.1918063E-01
   7157.33  3.1748708E-01
   7157.67  3.1606422E-01
   7158.00  3.1495145E-01
   7158.33  3.1423778E-01
   7158.67  3.1392103E-01
   7159.00  3.1403295E-01
   7159.33  3.1465996E-01
   7159.67  3.1576389E-01
   7160.00  3.1735129E-01
   7160.33  3.1947605E-01
   7160.67  3.2205668E-01
   7161.00  3.2506161E-01
   7161.33  3.2848751E-01
   7161.67  3.3222622E-01
   7162.00  3.3621876E-01
   7162.33  3.4041380E-01
   7162.67  3.4471459E-01
   7163.00  3.4906349E-01
   7163.33  3.5340083E-01
   7163.67  3.5767792E-01
   7164.00  3.6185749E-01
   7164.33  3.6588900E-01
   7164.67  3.6976686E-01
   7165.00  3.7347980E-01
   7165.33  3.7699795E-01
   7165.67  3.8033625E-01
   7166.00  3.8348762E-01
   7166.33  3.8641566E-01
   7166.67  3.8912919E-01
   7167.00  3.9161146E-01
   7167.33  3.9381092E-01
   7167.67  3.9574213E-01
   7168.00  3.9739658E-01
   7168.33  3.9874040E-01
   7168.67  3.9982151E-01
   7169.00  4.0066085E-01
   7169.33  4.0126632E-01
   7169.67  4.0170528E-01
   7170.00  4.0201604E-01
   7170.33  4.0223209E-01
   7170.67  4.0240389E-01
   7171.00  4.0256013E-01
   7171.33  4.0272470E-01
   7171.67  4.0290186E-01
   7172.00  4.0307676E-01
