    FDMNES
    energy     <xanes>
   7097.00  4.3736569E-03
   7097.33  4.4620560E-03
   7097.67  4.5537830E-03
   7098.00  4.6490301E-03
   7098.33  4.7485128E-03
   7098.67  4.8520305E-03
   7099.00  4.9598378E-03
   7099.33  5.0728387E-03
   7099.67  5.1908208E-03
   7100.00  5.3141304E-03
   7100.33  5.4439401E-03
   7100.67  5.5800351E-03
   7101.00  5.7229037E-03
   7101.33  5.8741151E-03
   7101.67  6.0334771E-03
   7102.00  6.2017067E-03
   7102.33  6.3809902E-03
   7102.67  6.5712153E-03
   7103.00  6.7734900E-03
   7103.33  6.9910203E-03
   7103.67  7.2239101E-03
   7104.00  7.4739870E-03
   7104.33  7.7462731E-03
   7104.67  8.0414317E-03
   7105.00  8.3627369E-03
   7105.33  8.7187753E-03
   7105.67  9.1117047E-03
   7106.00  9.5480640E-03
   7106.33  1.0044373E-02
   7106.67  1.0607180E-02
   7107.00  1.1251610E-02
   7107.33  1.2015125E-02
   7107.67  1.2919406E-02
   7108.00  1.4007560E-02
   7108.33  1.5387547E-02
   7108.67  1.7148416E-02
   7109.00  1.9458511E-02
   7109.33  2.2768731E-02
   7109.67  2.7616666E-02
   7110.00  3.5065745E-02
   7110.33  4.8237526E-02
   7110.67  7.0678676E-02
   7111.00  1.0324266E-01
   7111.33  1.2861970E-01
   7111.67  1.2709303E-01
   7112.00  1.0940776E-01
   7112.33  9.6134087E-02
   7112.67  9.0506093E-02
   7113.00  9.0077788E-02
   7113.33  9.1494048E-02
   7113.67  8.8323780E-02
   7114.00  7.7607664E-02
   7114.33  6.5646955E-02
   7114.67  5.7480024E-02
   7115.00  5.3194636E-02
   7115.33  5.2234432E-02
   7115.67  5.3585849E-02
   7116.00  5.7019590E-02
   7116.33  6.2802294E-02
   7116.67  7.0877169E-02
   7117.00  8.1525467E-02
   7117.33  9.5636901E-02
   7117.67  1.1366310E-01
   7118.00  1.3646518E-01
   7118.33  1.6549051E-01
   7118.67  1.9998735E-01
   7119.00  2.3860471E-01
   7119.33  2.7777434E-01
   7119.67  3.1236510E-01
   7120.00  3.3876021E-01
   7120.33  3.5506086E-01
   7120.67  3.6559781E-01
   7121.00  3.7395448E-01
   7121.33  3.8181734E-01
   7121.67  3.8863608E-01
   7122.00  3.9429595E-01
   7122.33  4.0057547E-01
   7122.67  4.0977559E-01
   7123.00  4.2282693E-01
   7123.33  4.3933869E-01
   7123.67  4.5697565E-01
   7124.00  4.7381419E-01
   7124.33  4.8751906E-01
   7124.67  4.9723582E-01
   7125.00  5.0282463E-01
   7125.33  5.0464948E-01
   7125.67  5.0457595E-01
   7126.00  5.0408820E-01
   7126.33  5.0485176E-01
   7126.67  5.0757611E-01
   7127.00  5.1239489E-01
   7127.33  5.1929684E-01
   7127.67  5.2775407E-01
   7128.00  5.3760056E-01
   7128.33  5.4880649E-01
   7128.67  5.6090213E-01
   7129.00  5.7347847E-01
   7129.33  5.8598884E-01
   7129.67  5.9789636E-01
   7130.00  6.0870129E-01
   7130.33  6.1753269E-01
   7130.67  6.2402774E-01
   7131.00  6.2791143E-01
   7131.33  6.2900750E-01
   7131.67  6.2832607E-01
   7132.00  6.2678696E-01
   7132.33  6.2553881E-01
   7132.67  6.2546279E-01
   7133.00  6.2706630E-01
   7133.33  6.3052264E-01
   7133.67  6.3453338E-01
   7134.00  6.3753250E-01
   7134.33  6.3783544E-01
   7134.67  6.3571276E-01
   7135.00  6.3201589E-01
   7135.33  6.2790072E-01
   7135.67  6.2429560E-01
   7136.00  6.2158173E-01
   7136.33  6.1996207E-01
   7136.67  6.1914072E-01
   7137.00  6.1886666E-01
   7137.33  6.1885798E-01
   7137.67  6.1882967E-01
   7138.00  6.1864027E-01
   7138.33  6.1818669E-01
   7138.67  6.1749927E-01
   7139.00  6.1661291E-01
   7139.33  6.1555842E-01
   7139.67  6.1438527E-01
   7140.00  6.1308769E-01
   7140.33  6.1159442E-01
   7140.67  6.0985430E-01
   7141.00  6.0782027E-01
   7141.33  6.0544750E-01
   7141.67  6.0284090E-01
   7142.00  6.0012890E-01
   7142.33  5.9750386E-01
   7142.67  5.9512156E-01
   7143.00  5.9308693E-01
   7143.33  5.9151799E-01
   7143.67  5.9036177E-01
   7144.00  5.8956922E-01
   7144.33  5.8908076E-01
   7144.67  5.8874363E-01
   7145.00  5.8843830E-01
   7145.33  5.8799727E-01
   7145.67  5.8728624E-01
   7146.00  5.8619251E-01
   7146.33  5.8455498E-01
   7146.67  5.8237503E-01
   7147.00  5.7963692E-01
   7147.33  5.7629141E-01
   7147.67  5.7245351E-01
   7148.00  5.6817635E-01
   7148.33  5.6347978E-01
   7148.67  5.5847473E-01
   7149.00  5.5321045E-01
   7149.33  5.4770859E-01
   7149.67  5.4203467E-01
   7150.00  5.3621677E-01
   7150.33  5.3026853E-01
   7150.67  5.2423156E-01
   7151.00  5.1813145E-01
   7151.33  5.1199655E-01
   7151.67  5.0586485E-01
   7152.00  4.9976697E-01
   7152.33  4.9374832E-01
   7152.67  4.8783765E-01
   7153.00  4.8206802E-01
   7153.33  4.7650183E-01
   7153.67  4.7115673E-01
   7154.00  4.6606512E-01
   7154.33  4.6129860E-01
   7154.67  4.5685255E-01
   7155.00  4.5274804E-01
   7155.33  4.4904561E-01
   7155.67  4.4570530E-01
   7156.00  4.4271825E-01
   7156.33  4.4010315E-01
   7156.67  4.3779043E-01
   7157.00  4.3575019E-01
   7157.33  4.3397171E-01
   7157.67  4.3238514E-01
   7158.00  4.3095777E-01
   7158.33  4.2967301E-01
   7158.67  4.2848917E-01
   7159.00  4.2738983E-01
   7159.33  4.2637311E-01
   7159.67  4.2542375E-01
   7160.00  4.2453803E-01
   7160.33  4.2372194E-01
   7160.67  4.2296722E-01
   7161.00  4.2227305E-01
   7161.33  4.2164481E-01
   7161.67  4.2107119E-01
   7162.00  4.2054668E-01
   7162.33  4.2006880E-01
   7162.67  4.1962407E-01
   7163.00  4.1920491E-01
   7163.33  4.1880324E-01
   7163.67  4.1840649E-01
   7164.00  4.1800611E-01
   7164.33  4.1759180E-01
   7164.67  4.1715818E-01
   7165.00  4.1670079E-01
   7165.33  4.1621259E-01
   7165.67  4.1569582E-01
   7166.00  4.1515180E-01
   7166.33  4.1458213E-01
   7166.67  4.1399720E-01
   7167.00  4.1340552E-01
   7167.33  4.1281954E-01
   7167.67  4.1225250E-01
   7168.00  4.1171789E-01
   7168.33  4.1123869E-01
   7168.67  4.1082586E-01
   7169.00  4.1049351E-01
   7169.33  4.1026780E-01
   7169.67  4.1014778E-01
   7170.00  4.1013984E-01
   7170.33  4.1026142E-01
   7170.67  4.1049467E-01
   7171.00  4.1082943E-01
   7171.33  4.1124954E-01
   7171.67  4.1169306E-01
   7172.00  4.1208688E-01
