    FDMNES
    energy     <xanes>
   7097.00  4.8729050E-03
   7097.33  4.9825908E-03
   7097.67  5.0969605E-03
   7098.00  5.2163167E-03
   7098.33  5.3417203E-03
   7098.67  5.4729318E-03
   7099.00  5.6103614E-03
   7099.33  5.7553846E-03
   7099.67  5.9077547E-03
   7100.00  6.0680438E-03
   7100.33  6.2380846E-03
   7100.67  6.4176449E-03
   7101.00  6.6075496E-03
   7101.33  6.8103228E-03
   7101.67  7.0257956E-03
   7102.00  7.2552073E-03
   7102.33  7.5021773E-03
   7102.67  7.7667115E-03
   7103.00  8.0507660E-03
   7103.33  8.3597996E-03
   7103.67  8.6942518E-03
   7104.00  9.0574062E-03
   7104.33  9.4580381E-03
   7104.67  9.8976609E-03
   7105.00  1.0382233E-02
   7105.33  1.0927079E-02
   7105.67  1.1536507E-02
   7106.00  1.2222489E-02
   7106.33  1.3014911E-02
   7106.67  1.3926119E-02
   7107.00  1.4983746E-02
   7107.33  1.6255747E-02
   7107.67  1.7781623E-02
   7108.00  1.9639161E-02
   7108.33  2.2022195E-02
   7108.67  2.5088461E-02
   7109.00  2.9135155E-02
   7109.33  3.4953758E-02
   7109.67  4.3472024E-02
   7110.00  5.6517476E-02
   7110.33  7.9395805E-02
   7110.67  1.1776403E-01
   7111.00  1.7185465E-01
   7111.33  2.1735677E-01
   7111.67  2.3854286E-01
   7112.00  2.4176058E-01
   7112.33  2.2767102E-01
   7112.67  2.0411887E-01
   7113.00  1.8456816E-01
   7113.33  1.7280682E-01
   7113.67  1.6078189E-01
   7114.00  1.4798015E-01
   7114.33  1.3710387E-01
   7114.67  1.2649392E-01
   7115.00  1.1647470E-01
   7115.33  1.1043387E-01
   7115.67  1.0902704E-01
   7116.00  1.1201083E-01
   7116.33  1.1899246E-01
   7116.67  1.2830266E-01
   7117.00  1.3922363E-01
   7117.33  1.5169793E-01
   7117.67  1.6531768E-01
   7118.00  1.7967527E-01
   7118.33  1.9250763E-01
   7118.67  2.0038104E-01
   7119.00  2.0399061E-01
   7119.33  2.1077993E-01
   7119.67  2.2406008E-01
   7120.00  2.4259639E-01
   7120.33  2.6555855E-01
   7120.67  2.9165982E-01
   7121.00  3.1976835E-01
   7121.33  3.4721936E-01
   7121.67  3.7008613E-01
   7122.00  3.8638572E-01
   7122.33  3.9838115E-01
   7122.67  4.1182292E-01
   7123.00  4.2973363E-01
   7123.33  4.5406061E-01
   7123.67  4.8399478E-01
   7124.00  5.1881070E-01
   7124.33  5.5741828E-01
   7124.67  5.9671565E-01
   7125.00  6.3345222E-01
   7125.33  6.6332457E-01
   7125.67  6.8517158E-01
   7126.00  6.9881926E-01
   7126.33  7.0435279E-01
   7126.67  7.0455389E-01
   7127.00  7.0128323E-01
   7127.33  6.9635753E-01
   7127.67  6.9158200E-01
   7128.00  6.8753923E-01
   7128.33  6.8405430E-01
   7128.67  6.8065429E-01
   7129.00  6.7706555E-01
   7129.33  6.7229998E-01
   7129.67  6.6502674E-01
   7130.00  6.5442983E-01
   7130.33  6.4067860E-01
   7130.67  6.2591444E-01
   7131.00  6.1181746E-01
   7131.33  5.9989642E-01
   7131.67  5.9035291E-01
   7132.00  5.8332250E-01
   7132.33  5.7931447E-01
   7132.67  5.7784306E-01
   7133.00  5.7830567E-01
   7133.33  5.7977851E-01
   7133.67  5.8137363E-01
   7134.00  5.8302023E-01
   7134.33  5.8496388E-01
   7134.67  5.8699430E-01
   7135.00  5.8856676E-01
   7135.33  5.8886762E-01
   7135.67  5.8771425E-01
   7136.00  5.8519642E-01
   7136.33  5.8159624E-01
   7136.67  5.7752596E-01
   7137.00  5.7331264E-01
   7137.33  5.6911755E-01
   7137.67  5.6487475E-01
   7138.00  5.6042463E-01
   7138.33  5.5552010E-01
   7138.67  5.5009370E-01
   7139.00  5.4413718E-01
   7139.33  5.3769300E-01
   7139.67  5.3100023E-01
   7140.00  5.2425852E-01
   7140.33  5.1773326E-01
   7140.67  5.1161388E-01
   7141.00  5.0603962E-01
   7141.33  5.0119235E-01
   7141.67  4.9703346E-01
   7142.00  4.9356421E-01
   7142.33  4.9084250E-01
   7142.67  4.8874203E-01
   7143.00  4.8721700E-01
   7143.33  4.8627502E-01
   7143.67  4.8580764E-01
   7144.00  4.8579318E-01
   7144.33  4.8626273E-01
   7144.67  4.8713360E-01
   7145.00  4.8837336E-01
   7145.33  4.8997245E-01
   7145.67  4.9182695E-01
   7146.00  4.9387011E-01
   7146.33  4.9602459E-01
   7146.67  4.9817886E-01
   7147.00  5.0024302E-01
   7147.33  5.0208542E-01
   7147.67  5.0362441E-01
   7148.00  5.0477110E-01
   7148.33  5.0536253E-01
   7148.67  5.0536774E-01
   7149.00  5.0472355E-01
   7149.33  5.0328927E-01
   7149.67  5.0112957E-01
   7150.00  4.9825300E-01
   7150.33  4.9461543E-01
   7150.67  4.9037220E-01
   7151.00  4.8560321E-01
   7151.33  4.8036217E-01
   7151.67  4.7481474E-01
   7152.00  4.6905753E-01
   7152.33  4.6317434E-01
   7152.67  4.5725997E-01
   7153.00  4.5137250E-01
   7153.33  4.4557392E-01
   7153.67  4.3989227E-01
   7154.00  4.3435488E-01
   7154.33  4.2901065E-01
   7154.67  4.2386139E-01
   7155.00  4.1892453E-01
   7155.33  4.1424619E-01
   7155.67  4.0981216E-01
   7156.00  4.0563228E-01
   7156.33  4.0174713E-01
   7156.67  3.9812783E-01
   7157.00  3.9477424E-01
   7157.33  3.9171559E-01
   7157.67  3.8891299E-01
   7158.00  3.8635976E-01
   7158.33  3.8407774E-01
   7158.67  3.8202870E-01
   7159.00  3.8020676E-01
   7159.33  3.7863602E-01
   7159.67  3.7728946E-01
   7160.00  3.7617165E-01
   7160.33  3.7532062E-01
   7160.67  3.7471792E-01
   7161.00  3.7437470E-01
   7161.33  3.7433695E-01
   7161.67  3.7457953E-01
   7162.00  3.7510822E-01
   7162.33  3.7596414E-01
   7162.67  3.7710640E-01
   7163.00  3.7852152E-01
   7163.33  3.8021678E-01
   7163.67  3.8212792E-01
   7164.00  3.8422396E-01
   7164.33  3.8648486E-01
   7164.67  3.8885271E-01
   7165.00  3.9129527E-01
   7165.33  3.9378609E-01
   7165.67  3.9629709E-01
   7166.00  3.9881705E-01
   7166.33  4.0134299E-01
   7166.67  4.0387855E-01
   7167.00  4.0643126E-01
   7167.33  4.0901447E-01
   7167.67  4.1163386E-01
   7168.00  4.1429486E-01
   7168.33  4.1700482E-01
   7168.67  4.1975462E-01
   7169.00  4.2253671E-01
   7169.33  4.2534008E-01
   7169.67  4.2814446E-01
   7170.00  4.3093152E-01
   7170.33  4.3367117E-01
   7170.67  4.3633798E-01
   7171.00  4.3889752E-01
   7171.33  4.4126974E-01
   7171.67  4.4337546E-01
   7172.00  4.4508840E-01
