    FDMNES
    energy     <xanes>
   7097.00  4.2320272E-03
   7097.33  4.3157995E-03
   7097.67  4.4026728E-03
   7098.00  4.4928260E-03
   7098.33  4.5869264E-03
   7098.67  4.6847881E-03
   7099.00  4.7866495E-03
   7099.33  4.8933562E-03
   7099.67  5.0047127E-03
   7100.00  5.1210461E-03
   7100.33  5.2434575E-03
   7100.67  5.3717533E-03
   7101.00  5.5063979E-03
   7101.33  5.6488751E-03
   7101.67  5.7990187E-03
   7102.00  5.9575182E-03
   7102.33  6.1264588E-03
   7102.67  6.3057622E-03
   7103.00  6.4965074E-03
   7103.33  6.7017866E-03
   7103.67  6.9217524E-03
   7104.00  7.1582085E-03
   7104.33  7.4160654E-03
   7104.67  7.6960650E-03
   7105.00  8.0014850E-03
   7105.33  8.3408516E-03
   7105.67  8.7164744E-03
   7106.00  9.1349913E-03
   7106.33  9.6130726E-03
   7106.67  1.0157628E-02
   7107.00  1.0784211E-02
   7107.33  1.1531211E-02
   7107.67  1.2421423E-02
   7108.00  1.3499667E-02
   7108.33  1.4878114E-02
   7108.67  1.6650628E-02
   7109.00  1.8994165E-02
   7109.33  2.2383598E-02
   7109.67  2.7390808E-02
   7110.00  3.5148057E-02
   7110.33  4.8970213E-02
   7110.67  7.2416146E-02
   7111.00  1.0503497E-01
   7111.33  1.2576038E-01
   7111.67  1.2460055E-01
   7112.00  1.1919180E-01
   7112.33  1.1483268E-01
   7112.67  1.0428969E-01
   7113.00  9.3002998E-02
   7113.33  8.6130097E-02
   7113.67  8.0431881E-02
   7114.00  7.1889665E-02
   7114.33  6.0336023E-02
   7114.67  5.1393504E-02
   7115.00  4.6200856E-02
   7115.33  4.3917096E-02
   7115.67  4.3205513E-02
   7116.00  4.3611958E-02
   7116.33  4.4980038E-02
   7116.67  4.7049818E-02
   7117.00  4.9700808E-02
   7117.33  5.2842635E-02
   7117.67  5.6375801E-02
   7118.00  6.0432715E-02
   7118.33  6.5412109E-02
   7118.67  7.1525805E-02
   7119.00  7.9012079E-02
   7119.33  8.8327114E-02
   7119.67  9.9545720E-02
   7120.00  1.1299504E-01
   7120.33  1.2957999E-01
   7120.67  1.4966964E-01
   7121.00  1.7389515E-01
   7121.33  2.0338967E-01
   7121.67  2.3762976E-01
   7122.00  2.7600063E-01
   7122.33  3.1712819E-01
   7122.67  3.5842774E-01
   7123.00  3.9832791E-01
   7123.33  4.3601201E-01
   7123.67  4.7223055E-01
   7124.00  5.0757257E-01
   7124.33  5.4193566E-01
   7124.67  5.7396321E-01
   7125.00  6.0123446E-01
   7125.33  6.1998392E-01
   7125.67  6.3019353E-01
   7126.00  6.3352819E-01
   7126.33  6.3420002E-01
   7126.67  6.3781300E-01
   7127.00  6.4796278E-01
   7127.33  6.6717997E-01
   7127.67  6.9112747E-01
   7128.00  7.1350205E-01
   7128.33  7.2809759E-01
   7128.67  7.3730001E-01
   7129.00  7.4579689E-01
   7129.33  7.5845410E-01
   7129.67  7.7598433E-01
   7130.00  7.9697233E-01
   7130.33  8.1781286E-01
   7130.67  8.3402859E-01
   7131.00  8.4221315E-01
   7131.33  8.3891337E-01
   7131.67  8.2565536E-01
   7132.00  8.0429226E-01
   7132.33  7.7735683E-01
   7132.67  7.4866852E-01
   7133.00  7.2045594E-01
   7133.33  6.9487528E-01
   7133.67  6.7289777E-01
   7134.00  6.5508818E-01
   7134.33  6.4164704E-01
   7134.67  6.3096221E-01
   7135.00  6.2198774E-01
   7135.33  6.1409382E-01
   7135.67  6.0697923E-01
   7136.00  6.0076477E-01
   7136.33  5.9580810E-01
   7136.67  5.9210859E-01
   7137.00  5.8966388E-01
   7137.33  5.8846650E-01
   7137.67  5.8811552E-01
   7138.00  5.8833367E-01
   7138.33  5.8881554E-01
   7138.67  5.8923032E-01
   7139.00  5.8937506E-01
   7139.33  5.8904810E-01
   7139.67  5.8825515E-01
   7140.00  5.8703332E-01
   7140.33  5.8545707E-01
   7140.67  5.8372500E-01
   7141.00  5.8198198E-01
   7141.33  5.8039020E-01
   7141.67  5.7902888E-01
   7142.00  5.7793582E-01
   7142.33  5.7713881E-01
   7142.67  5.7655492E-01
   7143.00  5.7612177E-01
   7143.33  5.7576357E-01
   7143.67  5.7538054E-01
   7144.00  5.7489942E-01
   7144.33  5.7421948E-01
   7144.67  5.7328342E-01
   7145.00  5.7201699E-01
   7145.33  5.7027634E-01
   7145.67  5.6803429E-01
   7146.00  5.6524820E-01
   7146.33  5.6184210E-01
   7146.67  5.5791952E-01
   7147.00  5.5352762E-01
   7147.33  5.4865920E-01
   7147.67  5.4337792E-01
   7148.00  5.3767108E-01
   7148.33  5.3145767E-01
   7148.67  5.2476853E-01
   7149.00  5.1759312E-01
   7149.33  5.0988221E-01
   7149.67  5.0173230E-01
   7150.00  4.9319310E-01
   7150.33  4.8429555E-01
   7150.67  4.7515904E-01
   7151.00  4.6585704E-01
   7151.33  4.5646999E-01
   7151.67  4.4710198E-01
   7152.00  4.3783784E-01
   7152.33  4.2880582E-01
   7152.67  4.2008050E-01
   7153.00  4.1173799E-01
   7153.33  4.0390626E-01
   7153.67  3.9657503E-01
   7154.00  3.8975965E-01
   7154.33  3.8351263E-01
   7154.67  3.7773577E-01
   7155.00  3.7239024E-01
   7155.33  3.6747923E-01
   7155.67  3.6291294E-01
   7156.00  3.5866376E-01
   7156.33  3.5475165E-01
   7156.67  3.5113957E-01
   7157.00  3.4784050E-01
   7157.33  3.4492238E-01
   7157.67  3.4237597E-01
   7158.00  3.4023275E-01
   7158.33  3.3858442E-01
   7158.67  3.3740898E-01
   7159.00  3.3672887E-01
   7159.33  3.3662390E-01
   7159.67  3.3703176E-01
   7160.00  3.3794039E-01
   7160.33  3.3937934E-01
   7160.67  3.4124556E-01
   7161.00  3.4349244E-01
   7161.33  3.4610182E-01
   7161.67  3.4897415E-01
   7162.00  3.5205624E-01
   7162.33  3.5530670E-01
   7162.67  3.5865681E-01
   7163.00  3.6206959E-01
   7163.33  3.6550527E-01
   7163.67  3.6891759E-01
   7164.00  3.7227080E-01
   7164.33  3.7551236E-01
   7164.67  3.7862175E-01
   7165.00  3.8157831E-01
   7165.33  3.8434324E-01
   7165.67  3.8692703E-01
   7166.00  3.8932520E-01
   7166.33  3.9151354E-01
   7166.67  3.9351661E-01
   7167.00  3.9533557E-01
   7167.33  3.9694870E-01
   7167.67  3.9838081E-01
   7168.00  3.9963549E-01
   7168.33  4.0070032E-01
   7168.67  4.0161200E-01
   7169.00  4.0239081E-01
   7169.33  4.0305582E-01
   7169.67  4.0365833E-01
   7170.00  4.0423471E-01
   7170.33  4.0482918E-01
   7170.67  4.0547581E-01
   7171.00  4.0619448E-01
   7171.33  4.0699177E-01
   7171.67  4.0780639E-01
   7172.00  4.0853824E-01
