    FDMNES
    energy     <xanes>
   7097.00  4.4512579E-03
   7097.33  4.5461785E-03
   7097.67  4.6452019E-03
   7098.00  4.7486050E-03
   7098.33  4.8573371E-03
   7098.67  4.9712048E-03
   7099.00  5.0905877E-03
   7099.33  5.2167310E-03
   7099.67  5.3494407E-03
   7100.00  5.4892525E-03
   7100.33  5.6378464E-03
   7100.67  5.7950502E-03
   7101.00  5.9616452E-03
   7101.33  6.1399754E-03
   7101.67  6.3299395E-03
   7102.00  6.5327235E-03
   7102.33  6.7517312E-03
   7102.67  6.9870430E-03
   7103.00  7.2405457E-03
   7103.33  7.5174311E-03
   7103.67  7.8182136E-03
   7104.00  8.1460758E-03
   7104.33  8.5094338E-03
   7104.67  8.9098495E-03
   7105.00  9.3530977E-03
   7105.33  9.8539248E-03
   7105.67  1.0416557E-02
   7106.00  1.1052518E-02
   7106.33  1.1790434E-02
   7106.67  1.2642005E-02
   7107.00  1.3633373E-02
   7107.33  1.4828603E-02
   7107.67  1.6263823E-02
   7108.00  1.8010434E-02
   7108.33  2.0245311E-02
   7108.67  2.3106635E-02
   7109.00  2.6854587E-02
   7109.33  3.2174264E-02
   7109.67  3.9835732E-02
   7110.00  5.1344564E-02
   7110.33  7.1013661E-02
   7110.67  1.0334377E-01
   7111.00  1.4923335E-01
   7111.33  1.9635005E-01
   7111.67  2.3363049E-01
   7112.00  2.6306286E-01
   7112.33  2.9552784E-01
   7112.67  3.0978231E-01
   7113.00  2.7484036E-01
   7113.33  2.1193617E-01
   7113.67  1.6196140E-01
   7114.00  1.3277387E-01
   7114.33  1.2370294E-01
   7114.67  1.2512281E-01
   7115.00  1.2735531E-01
   7115.33  1.2101529E-01
   7115.67  1.0905018E-01
   7116.00  9.6762481E-02
   7116.33  8.7739737E-02
   7116.67  8.1958944E-02
   7117.00  7.8963199E-02
   7117.33  7.8353346E-02
   7117.67  7.8975138E-02
   7118.00  8.0025152E-02
   7118.33  8.1113214E-02
   7118.67  8.1836995E-02
   7119.00  8.2137710E-02
   7119.33  8.3443528E-02
   7119.67  8.6866098E-02
   7120.00  9.2483620E-02
   7120.33  9.9892879E-02
   7120.67  1.0824816E-01
   7121.00  1.1728558E-01
   7121.33  1.2716848E-01
   7121.67  1.3816658E-01
   7122.00  1.5066140E-01
   7122.33  1.6526419E-01
   7122.67  1.8199062E-01
   7123.00  2.0085344E-01
   7123.33  2.2166020E-01
   7123.67  2.4340148E-01
   7124.00  2.6546981E-01
   7124.33  2.8735682E-01
   7124.67  3.0801945E-01
   7125.00  3.2583650E-01
   7125.33  3.3861548E-01
   7125.67  3.4661426E-01
   7126.00  3.5059757E-01
   7126.33  3.5199457E-01
   7126.67  3.5373750E-01
   7127.00  3.5849763E-01
   7127.33  3.6945820E-01
   7127.67  3.8672025E-01
   7128.00  4.0917915E-01
   7128.33  4.3416481E-01
   7128.67  4.5819489E-01
   7129.00  4.7955204E-01
   7129.33  4.9705367E-01
   7129.67  5.1092102E-01
   7130.00  5.2139049E-01
   7130.33  5.2925137E-01
   7130.67  5.3615123E-01
   7131.00  5.4283771E-01
   7131.33  5.4957116E-01
   7131.67  5.5628874E-01
   7132.00  5.6304601E-01
   7132.33  5.7032411E-01
   7132.67  5.7867179E-01
   7133.00  5.8837155E-01
   7133.33  5.9926561E-01
   7133.67  6.1031227E-01
   7134.00  6.2051785E-01
   7134.33  6.2864302E-01
   7134.67  6.3431052E-01
   7135.00  6.3734816E-01
   7135.33  6.3760076E-01
   7135.67  6.3587261E-01
   7136.00  6.3281411E-01
   7136.33  6.2925772E-01
   7136.67  6.2609095E-01
   7137.00  6.2384522E-01
   7137.33  6.2299514E-01
   7137.67  6.2339171E-01
   7138.00  6.2485795E-01
   7138.33  6.2719141E-01
   7138.67  6.3000796E-01
   7139.00  6.3312547E-01
   7139.33  6.3645136E-01
   7139.67  6.3993849E-01
   7140.00  6.4363293E-01
   7140.33  6.4769312E-01
   7140.67  6.5220810E-01
   7141.00  6.5723317E-01
   7141.33  6.6274565E-01
   7141.67  6.6841816E-01
   7142.00  6.7386551E-01
   7142.33  6.7842676E-01
   7142.67  6.8161473E-01
   7143.00  6.8298726E-01
   7143.33  6.8189368E-01
   7143.67  6.7841781E-01
   7144.00  6.7255610E-01
   7144.33  6.6421156E-01
   7144.67  6.5402094E-01
   7145.00  6.4241820E-01
   7145.33  6.2991375E-01
   7145.67  6.1728031E-01
   7146.00  6.0511649E-01
   7146.33  5.9422445E-01
   7146.67  5.8488968E-01
   7147.00  5.7722604E-01
   7147.33  5.7138534E-01
   7147.67  5.6699381E-01
   7148.00  5.6384659E-01
   7148.33  5.6180823E-01
   7148.67  5.6051808E-01
   7149.00  5.5980930E-01
   7149.33  5.5958863E-01
   7149.67  5.5969601E-01
   7150.00  5.6006343E-01
   7150.33  5.6065208E-01
   7150.67  5.6138531E-01
   7151.00  5.6222672E-01
   7151.33  5.6315522E-01
   7151.67  5.6414476E-01
   7152.00  5.6519246E-01
   7152.33  5.6631319E-01
   7152.67  5.6751010E-01
   7153.00  5.6878943E-01
   7153.33  5.7015554E-01
   7153.67  5.7157276E-01
   7154.00  5.7299893E-01
   7154.33  5.7435487E-01
   7154.67  5.7555948E-01
   7155.00  5.7652996E-01
   7155.33  5.7713118E-01
   7155.67  5.7732279E-01
   7156.00  5.7705144E-01
   7156.33  5.7621535E-01
   7156.67  5.7486360E-01
   7157.00  5.7300303E-01
   7157.33  5.7059975E-01
   7157.67  5.6775734E-01
   7158.00  5.6452402E-01
   7158.33  5.6092541E-01
   7158.67  5.5707652E-01
   7159.00  5.5304542E-01
   7159.33  5.4890158E-01
   7159.67  5.4474186E-01
   7160.00  5.4063480E-01
   7160.33  5.3666236E-01
   7160.67  5.3286350E-01
   7161.00  5.2927356E-01
   7161.33  5.2594698E-01
   7161.67  5.2286236E-01
   7162.00  5.2001390E-01
   7162.33  5.1740833E-01
   7162.67  5.1498759E-01
   7163.00  5.1272068E-01
   7163.33  5.1058586E-01
   7163.67  5.0853550E-01
   7164.00  5.0654665E-01
   7164.33  5.0460651E-01
   7164.67  5.0270257E-01
   7165.00  5.0083811E-01
   7165.33  4.9903325E-01
   7165.67  4.9730325E-01
   7166.00  4.9567145E-01
   7166.33  4.9418318E-01
   7166.67  4.9285145E-01
   7167.00  4.9169875E-01
   7167.33  4.9077133E-01
   7167.67  4.9005846E-01
   7168.00  4.8956630E-01
   7168.33  4.8932246E-01
   7168.67  4.8929192E-01
   7169.00  4.8946302E-01
   7169.33  4.8983987E-01
   7169.67  4.9037663E-01
   7170.00  4.9105106E-01
   7170.33  4.9184836E-01
   7170.67  4.9272378E-01
   7171.00  4.9364696E-01
   7171.33  4.9457269E-01
   7171.67  4.9543184E-01
   7172.00  4.9614068E-01
