    FDMNES
    energy     <xanes>
   7097.00  4.6667838E-03
   7097.33  4.7636062E-03
   7097.67  4.8642767E-03
   7098.00  4.9690328E-03
   7098.33  5.0787270E-03
   7098.67  5.1931483E-03
   7099.00  5.3126165E-03
   7099.33  5.4382276E-03
   7099.67  5.5697632E-03
   7100.00  5.7076672E-03
   7100.33  5.8533889E-03
   7100.67  6.0067191E-03
   7101.00  6.1682965E-03
   7101.33  6.3401044E-03
   7101.67  6.5219818E-03
   7102.00  6.7148878E-03
   7102.33  6.9216544E-03
   7102.67  7.1422577E-03
   7103.00  7.3782152E-03
   7103.33  7.6337917E-03
   7103.67  7.9093100E-03
   7104.00  8.2073319E-03
   7104.33  8.5347287E-03
   7104.67  8.8926925E-03
   7105.00  9.2859165E-03
   7105.33  9.7264827E-03
   7105.67  1.0217875E-02
   7106.00  1.0769653E-02
   7106.33  1.1405672E-02
   7106.67  1.2136099E-02
   7107.00  1.2983396E-02
   7107.33  1.4002811E-02
   7107.67  1.5227450E-02
   7108.00  1.6721961E-02
   7108.33  1.8647756E-02
   7108.67  2.1139641E-02
   7109.00  2.4450979E-02
   7109.33  2.9259468E-02
   7109.67  3.6374489E-02
   7110.00  4.7392815E-02
   7110.33  6.6965137E-02
   7110.67  1.0007393E-01
   7111.00  1.4708203E-01
   7111.33  1.8579984E-01
   7111.67  1.9211429E-01
   7112.00  1.7752435E-01
   7112.33  1.6465805E-01
   7112.67  1.4928534E-01
   7113.00  1.2851615E-01
   7113.33  1.0610977E-01
   7113.67  8.7133346E-02
   7114.00  7.2884653E-02
   7114.33  6.3261269E-02
   7114.67  5.6972746E-02
   7115.00  5.3438686E-02
   7115.33  5.2462926E-02
   7115.67  5.3576219E-02
   7116.00  5.6851279E-02
   7116.33  6.2836149E-02
   7116.67  7.1453912E-02
   7117.00  8.2652158E-02
   7117.33  9.6028807E-02
   7117.67  1.1001208E-01
   7118.00  1.2325711E-01
   7118.33  1.3449476E-01
   7118.67  1.4393723E-01
   7119.00  1.5228953E-01
   7119.33  1.6075783E-01
   7119.67  1.7052037E-01
   7120.00  1.8231077E-01
   7120.33  1.9657741E-01
   7120.67  2.1263578E-01
   7121.00  2.3038298E-01
   7121.33  2.5096655E-01
   7121.67  2.7553310E-01
   7122.00  3.0521303E-01
   7122.33  3.4130354E-01
   7122.67  3.8247407E-01
   7123.00  4.2714662E-01
   7123.33  4.7264803E-01
   7123.67  5.1599483E-01
   7124.00  5.5521615E-01
   7124.33  5.8845617E-01
   7124.67  6.1742885E-01
   7125.00  6.4504178E-01
   7125.33  6.7526435E-01
   7125.67  7.0941299E-01
   7126.00  7.4645633E-01
   7126.33  7.8195104E-01
   7126.67  8.0905488E-01
   7127.00  8.2219195E-01
   7127.33  8.1868634E-01
   7127.67  8.0596122E-01
   7128.00  7.8994223E-01
   7128.33  7.7489542E-01
   7128.67  7.6177259E-01
   7129.00  7.5031201E-01
   7129.33  7.4011921E-01
   7129.67  7.3056877E-01
   7130.00  7.2125383E-01
   7130.33  7.1167697E-01
   7130.67  7.0157043E-01
   7131.00  6.9098775E-01
   7131.33  6.8038264E-01
   7131.67  6.7039869E-01
   7132.00  6.6147254E-01
   7132.33  6.5396160E-01
   7132.67  6.4758930E-01
   7133.00  6.4208905E-01
   7133.33  6.3714805E-01
   7133.67  6.3236184E-01
   7134.00  6.2751245E-01
   7134.33  6.2242410E-01
   7134.67  6.1707569E-01
   7135.00  6.1149569E-01
   7135.33  6.0578045E-01
   7135.67  6.0013825E-01
   7136.00  5.9477567E-01
   7136.33  5.8996954E-01
   7136.67  5.8575515E-01
   7137.00  5.8208237E-01
   7137.33  5.7881822E-01
   7137.67  5.7571705E-01
   7138.00  5.7267490E-01
   7138.33  5.6969656E-01
   7138.67  5.6687349E-01
   7139.00  5.6433214E-01
   7139.33  5.6227620E-01
   7139.67  5.6077653E-01
   7140.00  5.5991322E-01
   7140.33  5.5982174E-01
   7140.67  5.6040171E-01
   7141.00  5.6157246E-01
   7141.33  5.6319758E-01
   7141.67  5.6494084E-01
   7142.00  5.6649110E-01
   7142.33  5.6736362E-01
   7142.67  5.6722126E-01
   7143.00  5.6575327E-01
   7143.33  5.6250597E-01
   7143.67  5.5758038E-01
   7144.00  5.5103459E-01
   7144.33  5.4290008E-01
   7144.67  5.3364493E-01
   7145.00  5.2353128E-01
   7145.33  5.1277286E-01
   7145.67  5.0168596E-01
   7146.00  4.9044025E-01
   7146.33  4.7918009E-01
   7146.67  4.6799591E-01
   7147.00  4.5692872E-01
   7147.33  4.4602256E-01
   7147.67  4.3526664E-01
   7148.00  4.2465794E-01
   7148.33  4.1422033E-01
   7148.67  4.0396219E-01
   7149.00  3.9392907E-01
   7149.33  3.8423442E-01
   7149.67  3.7493338E-01
   7150.00  3.6611062E-01
   7150.33  3.5793354E-01
   7150.67  3.5041567E-01
   7151.00  3.4361586E-01
   7151.33  3.3768019E-01
   7151.67  3.3254462E-01
   7152.00  3.2822393E-01
   7152.33  3.2482287E-01
   7152.67  3.2222735E-01
   7153.00  3.2041881E-01
   7153.33  3.1946330E-01
   7153.67  3.1922935E-01
   7154.00  3.1967725E-01
   7154.33  3.2082521E-01
   7154.67  3.2251834E-01
   7155.00  3.2467556E-01
   7155.33  3.2723304E-01
   7155.67  3.3003170E-01
   7156.00  3.3297717E-01
   7156.33  3.3598299E-01
   7156.67  3.3897696E-01
   7157.00  3.4192819E-01
   7157.33  3.4482296E-01
   7157.67  3.4768514E-01
   7158.00  3.5054355E-01
   7158.33  3.5344563E-01
   7158.67  3.5643265E-01
   7159.00  3.5954314E-01
   7159.33  3.6283750E-01
   7159.67  3.6632557E-01
   7160.00  3.7002299E-01
   7160.33  3.7396321E-01
   7160.67  3.7811408E-01
   7161.00  3.8246282E-01
   7161.33  3.8700369E-01
   7161.67  3.9166625E-01
   7162.00  3.9639783E-01
   7162.33  4.0115129E-01
   7162.67  4.0588952E-01
   7163.00  4.1058849E-01
   7163.33  4.1521979E-01
   7163.67  4.1977911E-01
   7164.00  4.2426331E-01
   7164.33  4.2866708E-01
   7164.67  4.3300780E-01
   7165.00  4.3729430E-01
   7165.33  4.4153163E-01
   7165.67  4.4573404E-01
   7166.00  4.4990631E-01
   7166.33  4.5404736E-01
   7166.67  4.5815949E-01
   7167.00  4.6223898E-01
   7167.33  4.6627520E-01
   7167.67  4.7026601E-01
   7168.00  4.7420453E-01
   7168.33  4.7807437E-01
   7168.67  4.8187348E-01
   7169.00  4.8559265E-01
   7169.33  4.8920897E-01
   7169.67  4.9272148E-01
   7170.00  4.9611847E-01
   7170.33  4.9936772E-01
   7170.67  5.0246412E-01
   7171.00  5.0538083E-01
   7171.33  5.0803872E-01
   7171.67  5.1037599E-01
   7172.00  5.1227581E-01
