    FDMNES
    energy     <xanes>
   7097.00  4.7144112E-03
   7097.33  4.8157429E-03
   7097.67  4.9211406E-03
   7098.00  5.0308497E-03
   7098.33  5.1457618E-03
   7098.67  5.2656452E-03
   7099.00  5.3908265E-03
   7099.33  5.5224415E-03
   7099.67  5.6602447E-03
   7100.00  5.8046829E-03
   7100.33  5.9572395E-03
   7100.67  6.1176682E-03
   7101.00  6.2866003E-03
   7101.33  6.4660339E-03
   7101.67  6.6557531E-03
   7102.00  6.8566859E-03
   7102.33  7.0716293E-03
   7102.67  7.3004701E-03
   7103.00  7.5446411E-03
   7103.33  7.8082544E-03
   7103.67  8.0914707E-03
   7104.00  8.3966448E-03
   7104.33  8.7302173E-03
   7104.67  9.0930512E-03
   7105.00  9.4893395E-03
   7105.33  9.9300576E-03
   7105.67  1.0417934E-02
   7106.00  1.0961275E-02
   7106.33  1.1581063E-02
   7106.67  1.2285483E-02
   7107.00  1.3093586E-02
   7107.33  1.4052574E-02
   7107.67  1.5189438E-02
   7108.00  1.6558128E-02
   7108.33  1.8293916E-02
   7108.67  2.0508079E-02
   7109.00  2.3411843E-02
   7109.33  2.7573166E-02
   7109.67  3.3675176E-02
   7110.00  4.3072595E-02
   7110.33  5.9685360E-02
   7110.67  8.7193745E-02
   7111.00  1.2322796E-01
   7111.33  1.4651273E-01
   7111.67  1.5030536E-01
   7112.00  1.4456538E-01
   7112.33  1.3724829E-01
   7112.67  1.2983165E-01
   7113.00  1.2316039E-01
   7113.33  1.1594980E-01
   7113.67  1.0632487E-01
   7114.00  9.6407577E-02
   7114.33  8.9827403E-02
   7114.67  8.6955447E-02
   7115.00  8.7698368E-02
   7115.33  9.2757219E-02
   7115.67  1.0238627E-01
   7116.00  1.1772776E-01
   7116.33  1.4192173E-01
   7116.67  1.7666529E-01
   7117.00  2.2259470E-01
   7117.33  2.7314661E-01
   7117.67  3.1394751E-01
   7118.00  3.4094169E-01
   7118.33  3.5862995E-01
   7118.67  3.7154390E-01
   7119.00  3.7875237E-01
   7119.33  3.7884465E-01
   7119.67  3.7568840E-01
   7120.00  3.7216835E-01
   7120.33  3.6989449E-01
   7120.67  3.6918234E-01
   7121.00  3.7026980E-01
   7121.33  3.7320315E-01
   7121.67  3.7710174E-01
   7122.00  3.8140850E-01
   7122.33  3.8583901E-01
   7122.67  3.9020073E-01
   7123.00  3.9428756E-01
   7123.33  3.9799412E-01
   7123.67  4.0189991E-01
   7124.00  4.0691116E-01
   7124.33  4.1431935E-01
   7124.67  4.2460868E-01
   7125.00  4.3836885E-01
   7125.33  4.5662438E-01
   7125.67  4.7894388E-01
   7126.00  5.0513313E-01
   7126.33  5.3495719E-01
   7126.67  5.6594838E-01
   7127.00  5.9490140E-01
   7127.33  6.1712800E-01
   7127.67  6.3124863E-01
   7128.00  6.3760033E-01
   7128.33  6.3776039E-01
   7128.67  6.3541758E-01
   7129.00  6.3294842E-01
   7129.33  6.3240392E-01
   7129.67  6.3369639E-01
   7130.00  6.3556414E-01
   7130.33  6.3624580E-01
   7130.67  6.3543498E-01
   7131.00  6.3375006E-01
   7131.33  6.3241980E-01
   7131.67  6.3212784E-01
   7132.00  6.3261355E-01
   7132.33  6.3286151E-01
   7132.67  6.3199039E-01
   7133.00  6.2966246E-01
   7133.33  6.2577297E-01
   7133.67  6.2082319E-01
   7134.00  6.1517139E-01
   7134.33  6.0921546E-01
   7134.67  6.0336221E-01
   7135.00  5.9784843E-01
   7135.33  5.9292633E-01
   7135.67  5.8862461E-01
   7136.00  5.8495149E-01
   7136.33  5.8188548E-01
   7136.67  5.7915260E-01
   7137.00  5.7650414E-01
   7137.33  5.7358977E-01
   7137.67  5.7014259E-01
   7138.00  5.6596645E-01
   7138.33  5.6082643E-01
   7138.67  5.5481792E-01
   7139.00  5.4801514E-01
   7139.33  5.4050009E-01
   7139.67  5.3255345E-01
   7140.00  5.2433973E-01
   7140.33  5.1599899E-01
   7140.67  5.0766132E-01
   7141.00  4.9940265E-01
   7141.33  4.9131847E-01
   7141.67  4.8347527E-01
   7142.00  4.7596838E-01
   7142.33  4.6899251E-01
   7142.67  4.6263319E-01
   7143.00  4.5700140E-01
   7143.33  4.5229431E-01
   7143.67  4.4846032E-01
   7144.00  4.4551368E-01
   7144.33  4.4355715E-01
   7144.67  4.4245704E-01
   7145.00  4.4218329E-01
   7145.33  4.4278412E-01
   7145.67  4.4408994E-01
   7146.00  4.4601172E-01
   7146.33  4.4846771E-01
   7146.67  4.5121260E-01
   7147.00  4.5406217E-01
   7147.33  4.5679754E-01
   7147.67  4.5924370E-01
   7148.00  4.6125180E-01
   7148.33  4.6260984E-01
   7148.67  4.6331040E-01
   7149.00  4.6334306E-01
   7149.33  4.6268944E-01
   7149.67  4.6153828E-01
   7150.00  4.6000805E-01
   7150.33  4.5821278E-01
   7150.67  4.5631660E-01
   7151.00  4.5442068E-01
   7151.33  4.5263433E-01
   7151.67  4.5102207E-01
   7152.00  4.4963791E-01
   7152.33  4.4856940E-01
   7152.67  4.4782347E-01
   7153.00  4.4743286E-01
   7153.33  4.4747565E-01
   7153.67  4.4791803E-01
   7154.00  4.4875819E-01
   7154.33  4.5002434E-01
   7154.67  4.5163156E-01
   7155.00  4.5353301E-01
   7155.33  4.5568561E-01
   7155.67  4.5797899E-01
   7156.00  4.6033971E-01
   7156.33  4.6268145E-01
   7156.67  4.6492590E-01
   7157.00  4.6700924E-01
   7157.33  4.6883768E-01
   7157.67  4.7038556E-01
   7158.00  4.7161738E-01
   7158.33  4.7246533E-01
   7158.67  4.7296774E-01
   7159.00  4.7313854E-01
   7159.33  4.7297743E-01
   7159.67  4.7258184E-01
   7160.00  4.7201936E-01
   7160.33  4.7135956E-01
   7160.67  4.7068899E-01
   7161.00  4.7006592E-01
   7161.33  4.6955887E-01
   7161.67  4.6919346E-01
   7162.00  4.6898771E-01
   7162.33  4.6896348E-01
   7162.67  4.6908154E-01
   7163.00  4.6931123E-01
   7163.33  4.6961213E-01
   7163.67  4.6991948E-01
   7164.00  4.7018206E-01
   7164.33  4.7033107E-01
   7164.67  4.7033320E-01
   7165.00  4.7016092E-01
   7165.33  4.6977309E-01
   7165.67  4.6919186E-01
   7166.00  4.6842660E-01
   7166.33  4.6747724E-01
   7166.67  4.6639142E-01
   7167.00  4.6519584E-01
   7167.33  4.6391362E-01
   7167.67  4.6258676E-01
   7168.00  4.6124173E-01
   7168.33  4.5990821E-01
   7168.67  4.5860958E-01
   7169.00  4.5736354E-01
   7169.33  4.5619614E-01
   7169.67  4.5511328E-01
   7170.00  4.5412546E-01
   7170.33  4.5325526E-01
   7170.67  4.5249623E-01
   7171.00  4.5185174E-01
   7171.33  4.5133679E-01
   7171.67  4.5093281E-01
   7172.00  4.5063104E-01
