    FDMNES
    energy     <xanes>
   7097.00  4.8645375E-03
   7097.33  4.9730183E-03
   7097.67  5.0861637E-03
   7098.00  5.2042795E-03
   7098.33  5.3284298E-03
   7098.67  5.4583824E-03
   7099.00  5.5945538E-03
   7099.33  5.7383293E-03
   7099.67  5.8894719E-03
   7100.00  6.0485651E-03
   7100.33  6.2174633E-03
   7100.67  6.3959480E-03
   7101.00  6.5848646E-03
   7101.33  6.7867804E-03
   7101.67  7.0015477E-03
   7102.00  7.2304430E-03
   7102.33  7.4771694E-03
   7102.67  7.7417685E-03
   7103.00  8.0262667E-03
   7103.33  8.3362845E-03
   7103.67  8.6723307E-03
   7104.00  9.0378280E-03
   7104.33  9.4418781E-03
   7104.67  9.8861451E-03
   7105.00  1.0376888E-02
   7105.33  1.0930141E-02
   7105.67  1.1550594E-02
   7106.00  1.2250953E-02
   7106.33  1.3062857E-02
   7106.67  1.3999813E-02
   7107.00  1.5091599E-02
   7107.33  1.6411457E-02
   7107.67  1.8003382E-02
   7108.00  1.9953402E-02
   7108.33  2.2476915E-02
   7108.67  2.5756163E-02
   7109.00  3.0135381E-02
   7109.33  3.6544146E-02
   7109.67  4.6123062E-02
   7110.00  6.1135807E-02
   7110.33  8.8054672E-02
   7110.67  1.3187083E-01
   7111.00  1.8422565E-01
   7111.33  2.1304287E-01
   7111.67  2.2201910E-01
   7112.00  2.1414657E-01
   7112.33  1.9588073E-01
   7112.67  1.8401306E-01
   7113.00  1.8325776E-01
   7113.33  1.9039024E-01
   7113.67  2.0103954E-01
   7114.00  2.0909161E-01
   7114.33  2.0516424E-01
   7114.67  1.9530169E-01
   7115.00  1.8592566E-01
   7115.33  1.7601179E-01
   7115.67  1.6351393E-01
   7116.00  1.4962698E-01
   7116.33  1.3672036E-01
   7116.67  1.2658351E-01
   7117.00  1.2010350E-01
   7117.33  1.1790403E-01
   7117.67  1.1923479E-01
   7118.00  1.2375992E-01
   7118.33  1.3124468E-01
   7118.67  1.4085795E-01
   7119.00  1.5212230E-01
   7119.33  1.6398730E-01
   7119.67  1.7478420E-01
   7120.00  1.8337869E-01
   7120.33  1.8952448E-01
   7120.67  1.9545883E-01
   7121.00  2.0356432E-01
   7121.33  2.1638348E-01
   7121.67  2.3444560E-01
   7122.00  2.5835044E-01
   7122.33  2.8891069E-01
   7122.67  3.2332018E-01
   7123.00  3.5738659E-01
   7123.33  3.8511933E-01
   7123.67  4.0604034E-01
   7124.00  4.2315858E-01
   7124.33  4.4153164E-01
   7124.67  4.6443436E-01
   7125.00  4.9212745E-01
   7125.33  5.2128016E-01
   7125.67  5.4583971E-01
   7126.00  5.6162996E-01
   7126.33  5.6640092E-01
   7126.67  5.6486859E-01
   7127.00  5.6177296E-01
   7127.33  5.6216589E-01
   7127.67  5.6810644E-01
   7128.00  5.8013583E-01
   7128.33  5.9857697E-01
   7128.67  6.2151756E-01
   7129.00  6.4698222E-01
   7129.33  6.7130091E-01
   7129.67  6.9112625E-01
   7130.00  7.0491119E-01
   7130.33  7.1145299E-01
   7130.67  7.1196095E-01
   7131.00  7.0788447E-01
   7131.33  7.0246744E-01
   7131.67  7.0024243E-01
   7132.00  7.0464498E-01
   7132.33  7.1929291E-01
   7132.67  7.4325329E-01
   7133.00  7.7479266E-01
   7133.33  8.1048379E-01
   7133.67  8.4479316E-01
   7134.00  8.7330186E-01
   7134.33  8.9051821E-01
   7134.67  8.9530141E-01
   7135.00  8.8775772E-01
   7135.33  8.6940543E-01
   7135.67  8.4546206E-01
   7136.00  8.1898334E-01
   7136.33  7.9230491E-01
   7136.67  7.6661670E-01
   7137.00  7.4227037E-01
   7137.33  7.1941567E-01
   7137.67  6.9763423E-01
   7138.00  6.7662501E-01
   7138.33  6.5608390E-01
   7138.67  6.3570690E-01
   7139.00  6.1544087E-01
   7139.33  5.9548555E-01
   7139.67  5.7613599E-01
   7140.00  5.5767997E-01
   7140.33  5.4052578E-01
   7140.67  5.2471204E-01
   7141.00  5.1033928E-01
   7141.33  4.9765666E-01
   7141.67  4.8649066E-01
   7142.00  4.7682411E-01
   7142.33  4.6878983E-01
   7142.67  4.6213316E-01
   7143.00  4.5677519E-01
   7143.33  4.5275529E-01
   7143.67  4.4979632E-01
   7144.00  4.4777060E-01
   7144.33  4.4659956E-01
   7144.67  4.4598810E-01
   7145.00  4.4574903E-01
   7145.33  4.4567882E-01
   7145.67  4.4555209E-01
   7146.00  4.4522066E-01
   7146.33  4.4451805E-01
   7146.67  4.4341522E-01
   7147.00  4.4189361E-01
   7147.33  4.3991484E-01
   7147.67  4.3755007E-01
   7148.00  4.3481155E-01
   7148.33  4.3167000E-01
   7148.67  4.2819226E-01
   7149.00  4.2439947E-01
   7149.33  4.2030256E-01
   7149.67  4.1600316E-01
   7150.00  4.1155755E-01
   7150.33  4.0701644E-01
   7150.67  4.0244867E-01
   7151.00  3.9789834E-01
   7151.33  3.9341275E-01
   7151.67  3.8901048E-01
   7152.00  3.8470197E-01
   7152.33  3.8049780E-01
   7152.67  3.7637371E-01
   7153.00  3.7231342E-01
   7153.33  3.6830702E-01
   7153.67  3.6434223E-01
   7154.00  3.6042108E-01
   7154.33  3.5656947E-01
   7154.67  3.5282089E-01
   7155.00  3.4922995E-01
   7155.33  3.4590849E-01
   7155.67  3.4291825E-01
   7156.00  3.4033616E-01
   7156.33  3.3830175E-01
   7156.67  3.3681416E-01
   7157.00  3.3590704E-01
   7157.33  3.3567382E-01
   7157.67  3.3603931E-01
   7158.00  3.3699149E-01
   7158.33  3.3857656E-01
   7158.67  3.4069114E-01
   7159.00  3.4330120E-01
   7159.33  3.4641792E-01
   7159.67  3.4993568E-01
   7160.00  3.5381180E-01
   7160.33  3.5803954E-01
   7160.67  3.6254092E-01
   7161.00  3.6728755E-01
   7161.33  3.7227883E-01
   7161.67  3.7746565E-01
   7162.00  3.8283209E-01
   7162.33  3.8838177E-01
   7162.67  3.9407544E-01
   7163.00  3.9988601E-01
   7163.33  4.0578429E-01
   7163.67  4.1172266E-01
   7164.00  4.1766346E-01
   7164.33  4.2355042E-01
   7164.67  4.2933421E-01
   7165.00  4.3496526E-01
   7165.33  4.4036124E-01
   7165.67  4.4549708E-01
   7166.00  4.5033491E-01
   7166.33  4.5479872E-01
   7166.67  4.5890680E-01
   7167.00  4.6264827E-01
   7167.33  4.6597484E-01
   7167.67  4.6894015E-01
   7168.00  4.7155701E-01
   7168.33  4.7380521E-01
   7168.67  4.7575010E-01
   7169.00  4.7741433E-01
   7169.33  4.7879454E-01
   7169.67  4.7995173E-01
   7170.00  4.8091175E-01
   7170.33  4.8168405E-01
   7170.67  4.8231885E-01
   7171.00  4.8283957E-01
   7171.33  4.8325891E-01
   7171.67  4.8360704E-01
   7172.00  4.8389553E-01
