    FDMNES
    energy     <xanes>
   7097.00  4.8129509E-03
   7097.33  4.9161894E-03
   7097.67  5.0237088E-03
   7098.00  5.1357812E-03
   7098.33  5.2533690E-03
   7098.67  5.3762476E-03
   7099.00  5.5047852E-03
   7099.33  5.6402253E-03
   7099.67  5.7823355E-03
   7100.00  5.9316278E-03
   7100.33  6.0897529E-03
   7100.67  6.2564896E-03
   7101.00  6.4325736E-03
   7101.33  6.6202694E-03
   7101.67  6.8194087E-03
   7102.00  7.0310924E-03
   7102.33  7.2585536E-03
   7102.67  7.5017721E-03
   7103.00  7.7624774E-03
   7103.33  8.0455196E-03
   7103.67  8.3512480E-03
   7104.00  8.6825483E-03
   7104.33  9.0471651E-03
   7104.67  9.4463601E-03
   7105.00  9.8853285E-03
   7105.33  1.0377477E-02
   7105.67  1.0926428E-02
   7106.00  1.1542511E-02
   7106.33  1.2251576E-02
   7106.67  1.3063969E-02
   7107.00  1.4003217E-02
   7107.33  1.5127243E-02
   7107.67  1.6468861E-02
   7108.00  1.8093269E-02
   7108.33  2.0162847E-02
   7108.67  2.2807364E-02
   7109.00  2.6272261E-02
   7109.33  3.1210751E-02
   7109.67  3.8382883E-02
   7110.00  4.9286082E-02
   7110.33  6.8211162E-02
   7110.67  9.9147171E-02
   7111.00  1.4015038E-01
   7111.33  1.7348331E-01
   7111.67  1.9369056E-01
   7112.00  2.0702102E-01
   7112.33  2.2256223E-01
   7112.67  2.3573971E-01
   7113.00  2.3596907E-01
   7113.33  2.2151791E-01
   7113.67  1.9547455E-01
   7114.00  1.6137188E-01
   7114.33  1.3043646E-01
   7114.67  1.0883014E-01
   7115.00  9.6151572E-02
   7115.33  8.9652887E-02
   7115.67  8.5728249E-02
   7116.00  8.3403555E-02
   7116.33  8.2657837E-02
   7116.67  8.3213829E-02
   7117.00  8.4838912E-02
   7117.33  8.7560881E-02
   7117.67  9.1572522E-02
   7118.00  9.6983504E-02
   7118.33  1.0424758E-01
   7118.67  1.1378826E-01
   7119.00  1.2602497E-01
   7119.33  1.4165596E-01
   7119.67  1.6092906E-01
   7120.00  1.8449477E-01
   7120.33  2.1304375E-01
   7120.67  2.4445009E-01
   7121.00  2.7496808E-01
   7121.33  2.9834261E-01
   7121.67  3.1412623E-01
   7122.00  3.2598775E-01
   7122.33  3.4041905E-01
   7122.67  3.6225150E-01
   7123.00  3.9335614E-01
   7123.33  4.3140003E-01
   7123.67  4.6936593E-01
   7124.00  5.0531393E-01
   7124.33  5.3980500E-01
   7124.67  5.7128795E-01
   7125.00  5.9637391E-01
   7125.33  6.1153620E-01
   7125.67  6.1853673E-01
   7126.00  6.1916343E-01
   7126.33  6.1534622E-01
   7126.67  6.1059420E-01
   7127.00  6.0784807E-01
   7127.33  6.1077810E-01
   7127.67  6.2119335E-01
   7128.00  6.4072258E-01
   7128.33  6.7110792E-01
   7128.67  7.0898869E-01
   7129.00  7.4969166E-01
   7129.33  7.8469380E-01
   7129.67  8.0823447E-01
   7130.00  8.1921256E-01
   7130.33  8.1896937E-01
   7130.67  8.1166818E-01
   7131.00  7.9920759E-01
   7131.33  7.8404632E-01
   7131.67  7.6969421E-01
   7132.00  7.5766519E-01
   7132.33  7.4720336E-01
   7132.67  7.3573959E-01
   7133.00  7.2212446E-01
   7133.33  7.0678131E-01
   7133.67  6.9132371E-01
   7134.00  6.7640767E-01
   7134.33  6.6171413E-01
   7134.67  6.4586969E-01
   7135.00  6.2762147E-01
   7135.33  6.0674757E-01
   7135.67  5.8552936E-01
   7136.00  5.6590649E-01
   7136.33  5.4932078E-01
   7136.67  5.3519256E-01
   7137.00  5.2276940E-01
   7137.33  5.1132339E-01
   7137.67  5.0027979E-01
   7138.00  4.8952891E-01
   7138.33  4.7917524E-01
   7138.67  4.6932242E-01
   7139.00  4.6013296E-01
   7139.33  4.5195459E-01
   7139.67  4.4497076E-01
   7140.00  4.3947528E-01
   7140.33  4.3603686E-01
   7140.67  4.3468000E-01
   7141.00  4.3548755E-01
   7141.33  4.3862668E-01
   7141.67  4.4357336E-01
   7142.00  4.5001064E-01
   7142.33  4.5761899E-01
   7142.67  4.6573224E-01
   7143.00  4.7385376E-01
   7143.33  4.8137709E-01
   7143.67  4.8795735E-01
   7144.00  4.9338212E-01
   7144.33  4.9739449E-01
   7144.67  5.0014908E-01
   7145.00  5.0167126E-01
   7145.33  5.0183808E-01
   7145.67  5.0082137E-01
   7146.00  4.9864263E-01
   7146.33  4.9520088E-01
   7146.67  4.9069496E-01
   7147.00  4.8519001E-01
   7147.33  4.7867181E-01
   7147.67  4.7139110E-01
   7148.00  4.6349733E-01
   7148.33  4.5514800E-01
   7148.67  4.4663071E-01
   7149.00  4.3814763E-01
   7149.33  4.2993833E-01
   7149.67  4.2212567E-01
   7150.00  4.1479202E-01
   7150.33  4.0805912E-01
   7150.67  4.0188072E-01
   7151.00  3.9625277E-01
   7151.33  3.9121932E-01
   7151.67  3.8668286E-01
   7152.00  3.8261658E-01
   7152.33  3.7905494E-01
   7152.67  3.7593925E-01
   7153.00  3.7327932E-01
   7153.33  3.7115310E-01
   7153.67  3.6952916E-01
   7154.00  3.6843930E-01
   7154.33  3.6799712E-01
   7154.67  3.6817103E-01
   7155.00  3.6898920E-01
   7155.33  3.7055309E-01
   7155.67  3.7277621E-01
   7156.00  3.7563274E-01
   7156.33  3.7913424E-01
   7156.67  3.8311659E-01
   7157.00  3.8748036E-01
   7157.33  3.9213262E-01
   7157.67  3.9692349E-01
   7158.00  4.0176705E-01
   7158.33  4.0658177E-01
   7158.67  4.1131818E-01
   7159.00  4.1595058E-01
   7159.33  4.2045366E-01
   7159.67  4.2484737E-01
   7160.00  4.2915009E-01
   7160.33  4.3339572E-01
   7160.67  4.3764822E-01
   7161.00  4.4196517E-01
   7161.33  4.4643101E-01
   7161.67  4.5109285E-01
   7162.00  4.5599909E-01
   7162.33  4.6121032E-01
   7162.67  4.6668199E-01
   7163.00  4.7238463E-01
   7163.33  4.7828370E-01
   7163.67  4.8427905E-01
   7164.00  4.9029037E-01
   7164.33  4.9620609E-01
   7164.67  5.0193600E-01
   7165.00  5.0739936E-01
   7165.33  5.1247183E-01
   7165.67  5.1713529E-01
   7166.00  5.2135486E-01
   7166.33  5.2505379E-01
   7166.67  5.2829234E-01
   7167.00  5.3108609E-01
   7167.33  5.3341069E-01
   7167.67  5.3534920E-01
   7168.00  5.3692715E-01
   7168.33  5.3812829E-01
   7168.67  5.3901230E-01
   7169.00  5.3958752E-01
   7169.33  5.3981892E-01
   7169.67  5.3974305E-01
   7170.00  5.3935760E-01
   7170.33  5.3862645E-01
   7170.67  5.3760423E-01
   7171.00  5.3632486E-01
   7171.33  5.3484754E-01
   7171.67  5.3335393E-01
   7172.00  5.3205992E-01
