    FDMNES
    energy     <xanes>
   7097.00  4.7383332E-03
   7097.33  4.8376723E-03
   7097.67  4.9408888E-03
   7098.00  5.0482097E-03
   7098.33  5.1604730E-03
   7098.67  5.2774479E-03
   7099.00  5.3994337E-03
   7099.33  5.5274888E-03
   7099.67  5.6613656E-03
   7100.00  5.8014687E-03
   7100.33  5.9491661E-03
   7100.67  6.1042025E-03
   7101.00  6.2671418E-03
   7101.33  6.4398025E-03
   7101.67  6.6219443E-03
   7102.00  6.8143816E-03
   7102.33  7.0196183E-03
   7102.67  7.2374813E-03
   7103.00  7.4692013E-03
   7103.33  7.7183802E-03
   7103.67  7.9850353E-03
   7104.00  8.2711329E-03
   7104.33  8.5821560E-03
   7104.67  8.9186117E-03
   7105.00  9.2838753E-03
   7105.33  9.6869384E-03
   7105.67  1.0129581E-02
   7106.00  1.0618174E-02
   7106.33  1.1169031E-02
   7106.67  1.1787503E-02
   7107.00  1.2487288E-02
   7107.33  1.3302540E-02
   7107.67  1.4250176E-02
   7108.00  1.5365771E-02
   7108.33  1.6738034E-02
   7108.67  1.8431517E-02
   7109.00  2.0570550E-02
   7109.33  2.3482299E-02
   7109.67  2.7523409E-02
   7110.00  3.3394408E-02
   7110.33  4.3090072E-02
   7110.67  5.8564785E-02
   7111.00  7.9634787E-02
   7111.33  1.0022150E-01
   7111.67  1.2211380E-01
   7112.00  1.4614489E-01
   7112.33  1.5621208E-01
   7112.67  1.5359138E-01
   7113.00  1.5037135E-01
   7113.33  1.5643345E-01
   7113.67  1.7126022E-01
   7114.00  1.8031838E-01
   7114.33  1.6611454E-01
   7114.67  1.4027746E-01
   7115.00  1.1556028E-01
   7115.33  9.8513822E-02
   7115.67  8.8177365E-02
   7116.00  8.3491872E-02
   7116.33  8.4303256E-02
   7116.67  9.0109632E-02
   7117.00  1.0167251E-01
   7117.33  1.2053938E-01
   7117.67  1.4361051E-01
   7118.00  1.6711849E-01
   7118.33  1.9480650E-01
   7118.67  2.3512306E-01
   7119.00  2.9193154E-01
   7119.33  3.6183054E-01
   7119.67  4.2589707E-01
   7120.00  4.6747878E-01
   7120.33  4.8047552E-01
   7120.67  4.7834254E-01
   7121.00  4.6850983E-01
   7121.33  4.5524626E-01
   7121.67  4.4203135E-01
   7122.00  4.3108428E-01
   7122.33  4.2501968E-01
   7122.67  4.2467737E-01
   7123.00  4.2995728E-01
   7123.33  4.3770678E-01
   7123.67  4.4101977E-01
   7124.00  4.3663782E-01
   7124.33  4.2813903E-01
   7124.67  4.2286459E-01
   7125.00  4.2518590E-01
   7125.33  4.3943790E-01
   7125.67  4.6305440E-01
   7126.00  4.9182697E-01
   7126.33  5.2064557E-01
   7126.67  5.4636315E-01
   7127.00  5.6815178E-01
   7127.33  5.8710528E-01
   7127.67  6.0642586E-01
   7128.00  6.2751685E-01
   7128.33  6.4960379E-01
   7128.67  6.7007259E-01
   7129.00  6.8664296E-01
   7129.33  6.9733473E-01
   7129.67  7.0358491E-01
   7130.00  7.0671985E-01
   7130.33  7.0727857E-01
   7130.67  7.0606594E-01
   7131.00  7.0460869E-01
   7131.33  7.0707515E-01
   7131.67  7.1700747E-01
   7132.00  7.3524510E-01
   7132.33  7.5720368E-01
   7132.67  7.7057688E-01
   7133.00  7.6392728E-01
   7133.33  7.3067446E-01
   7133.67  6.8441005E-01
   7134.00  6.3780471E-01
   7134.33  6.0132089E-01
   7134.67  5.7654343E-01
   7135.00  5.6282011E-01
   7135.33  5.5924706E-01
   7135.67  5.6225967E-01
   7136.00  5.6969363E-01
   7136.33  5.7924225E-01
   7136.67  5.8820527E-01
   7137.00  5.9470997E-01
   7137.33  5.9666305E-01
   7137.67  5.9388292E-01
   7138.00  5.8657061E-01
   7138.33  5.7528642E-01
   7138.67  5.6193077E-01
   7139.00  5.4777219E-01
   7139.33  5.3401017E-01
   7139.67  5.2125010E-01
   7140.00  5.0967922E-01
   7140.33  4.9939779E-01
   7140.67  4.9011955E-01
   7141.00  4.8173216E-01
   7141.33  4.7424981E-01
   7141.67  4.6752489E-01
   7142.00  4.6153107E-01
   7142.33  4.5631877E-01
   7142.67  4.5174271E-01
   7143.00  4.4773233E-01
   7143.33  4.4425571E-01
   7143.67  4.4116256E-01
   7144.00  4.3837341E-01
   7144.33  4.3581979E-01
   7144.67  4.3337886E-01
   7145.00  4.3096362E-01
   7145.33  4.2845500E-01
   7145.67  4.2575659E-01
   7146.00  4.2280185E-01
   7146.33  4.1955999E-01
   7146.67  4.1620414E-01
   7147.00  4.1298806E-01
   7147.33  4.1039023E-01
   7147.67  4.0876242E-01
   7148.00  4.0836897E-01
   7148.33  4.0949015E-01
   7148.67  4.1184907E-01
   7149.00  4.1521530E-01
   7149.33  4.1931554E-01
   7149.67  4.2369106E-01
   7150.00  4.2803872E-01
   7150.33  4.3201240E-01
   7150.67  4.3541604E-01
   7151.00  4.3809983E-01
   7151.33  4.3983883E-01
   7151.67  4.4066925E-01
   7152.00  4.4057393E-01
   7152.33  4.3947023E-01
   7152.67  4.3755162E-01
   7153.00  4.3492930E-01
   7153.33  4.3170772E-01
   7153.67  4.2815755E-01
   7154.00  4.2446892E-01
   7154.33  4.2085933E-01
   7154.67  4.1749866E-01
   7155.00  4.1451290E-01
   7155.33  4.1207522E-01
   7155.67  4.1020053E-01
   7156.00  4.0892689E-01
   7156.33  4.0834930E-01
   7156.67  4.0838728E-01
   7157.00  4.0902789E-01
   7157.33  4.1032097E-01
   7157.67  4.1216384E-01
   7158.00  4.1452656E-01
   7158.33  4.1743303E-01
   7158.67  4.2078488E-01
   7159.00  4.2454736E-01
   7159.33  4.2872204E-01
   7159.67  4.3321323E-01
   7160.00  4.3797105E-01
   7160.33  4.4295188E-01
   7160.67  4.4805135E-01
   7161.00  4.5319042E-01
   7161.33  4.5824856E-01
   7161.67  4.6310717E-01
   7162.00  4.6765973E-01
   7162.33  4.7172510E-01
   7162.67  4.7523024E-01
   7163.00  4.7807770E-01
   7163.33  4.8008689E-01
   7163.67  4.8130422E-01
   7164.00  4.8173094E-01
   7164.33  4.8132940E-01
   7164.67  4.8029952E-01
   7165.00  4.7876991E-01
   7165.33  4.7687855E-01
   7165.67  4.7485491E-01
   7166.00  4.7285497E-01
   7166.33  4.7105994E-01
   7166.67  4.6957000E-01
   7167.00  4.6845846E-01
   7167.33  4.6782751E-01
   7167.67  4.6763783E-01
   7168.00  4.6787924E-01
   7168.33  4.6857233E-01
   7168.67  4.6962607E-01
   7169.00  4.7100099E-01
   7169.33  4.7268332E-01
   7169.67  4.7459016E-01
   7170.00  4.7667887E-01
   7170.33  4.7891319E-01
   7170.67  4.8121761E-01
   7171.00  4.8353138E-01
   7171.33  4.8575220E-01
   7171.67  4.8775693E-01
   7172.00  4.8939377E-01
