    FDMNES
    energy     <xanes>
   7097.00  5.0089101E-03
   7097.33  5.1233062E-03
   7097.67  5.2426112E-03
   7098.00  5.3671355E-03
   7098.33  5.4979777E-03
   7098.67  5.6348745E-03
   7099.00  5.7782394E-03
   7099.33  5.9294803E-03
   7099.67  6.0883154E-03
   7100.00  6.2553090E-03
   7100.33  6.4323049E-03
   7100.67  6.6190155E-03
   7101.00  6.8162310E-03
   7101.33  7.0264298E-03
   7101.67  7.2493473E-03
   7102.00  7.4861254E-03
   7102.33  7.7402006E-03
   7102.67  8.0113960E-03
   7103.00  8.3014255E-03
   7103.33  8.6152363E-03
   7103.67  8.9528851E-03
   7104.00  9.3170652E-03
   7104.33  9.7152402E-03
   7104.67  1.0148038E-02
   7105.00  1.0619943E-02
   7105.33  1.1142910E-02
   7105.67  1.1718969E-02
   7106.00  1.2356179E-02
   7106.33  1.3075270E-02
   7106.67  1.3881940E-02
   7107.00  1.4792262E-02
   7107.33  1.5846459E-02
   7107.67  1.7061078E-02
   7108.00  1.8473537E-02
   7108.33  2.0176620E-02
   7108.67  2.2226752E-02
   7109.00  2.4736395E-02
   7109.33  2.7994636E-02
   7109.67  3.2272886E-02
   7110.00  3.8103252E-02
   7110.33  4.6965904E-02
   7110.67  6.0291040E-02
   7111.00  7.8466131E-02
   7111.33  9.8772336E-02
   7111.67  1.2206638E-01
   7112.00  1.5160080E-01
   7112.33  1.9080382E-01
   7112.67  2.3788874E-01
   7113.00  2.8927379E-01
   7113.33  3.3492746E-01
   7113.67  3.7778715E-01
   7114.00  4.2814816E-01
   7114.33  4.6314775E-01
   7114.67  4.4743511E-01
   7115.00  3.9203604E-01
   7115.33  3.3687296E-01
   7115.67  3.0059140E-01
   7116.00  2.8500358E-01
   7116.33  2.9000702E-01
   7116.67  3.0730496E-01
   7117.00  3.2776223E-01
   7117.33  3.3958963E-01
   7117.67  3.3597923E-01
   7118.00  3.1504334E-01
   7118.33  2.8386150E-01
   7118.67  2.5408366E-01
   7119.00  2.2966415E-01
   7119.33  2.1101456E-01
   7119.67  1.9510600E-01
   7120.00  1.8006504E-01
   7120.33  1.6573752E-01
   7120.67  1.5333548E-01
   7121.00  1.4370179E-01
   7121.33  1.3744359E-01
   7121.67  1.3397955E-01
   7122.00  1.3295883E-01
   7122.33  1.3421094E-01
   7122.67  1.3733598E-01
   7123.00  1.4247148E-01
   7123.33  1.5017611E-01
   7123.67  1.6067437E-01
   7124.00  1.7480215E-01
   7124.33  1.9478902E-01
   7124.67  2.2220191E-01
   7125.00  2.5910910E-01
   7125.33  3.0763336E-01
   7125.67  3.6144050E-01
   7126.00  4.0888774E-01
   7126.33  4.3299350E-01
   7126.67  4.3597606E-01
   7127.00  4.2731729E-01
   7127.33  4.1600762E-01
   7127.67  4.0771773E-01
   7128.00  4.0618802E-01
   7128.33  4.1464063E-01
   7128.67  4.3121334E-01
   7129.00  4.5412379E-01
   7129.33  4.8182084E-01
   7129.67  5.1235845E-01
   7130.00  5.4506039E-01
   7130.33  5.7939691E-01
   7130.67  6.1394604E-01
   7131.00  6.4695762E-01
   7131.33  6.7560326E-01
   7131.67  6.9872823E-01
   7132.00  7.1599685E-01
   7132.33  7.2761114E-01
   7132.67  7.3602260E-01
   7133.00  7.4324536E-01
   7133.33  7.5182476E-01
   7133.67  7.6361881E-01
   7134.00  7.7980511E-01
   7134.33  8.0152522E-01
   7134.67  8.2740397E-01
   7135.00  8.5521427E-01
   7135.33  8.7958622E-01
   7135.67  8.9440237E-01
   7136.00  8.9555135E-01
   7136.33  8.8123934E-01
   7136.67  8.5723289E-01
   7137.00  8.2750343E-01
   7137.33  7.9476634E-01
   7137.67  7.6078227E-01
   7138.00  7.2618914E-01
   7138.33  6.9175554E-01
   7138.67  6.5846721E-01
   7139.00  6.2729803E-01
   7139.33  5.9967163E-01
   7139.67  5.7592718E-01
   7140.00  5.5639289E-01
   7140.33  5.4164834E-01
   7140.67  5.3092403E-01
   7141.00  5.2386625E-01
   7141.33  5.2037227E-01
   7141.67  5.1952715E-01
   7142.00  5.2090472E-01
   7142.33  5.2426137E-01
   7142.67  5.2894096E-01
   7143.00  5.3457986E-01
   7143.33  5.4082663E-01
   7143.67  5.4720673E-01
   7144.00  5.5339582E-01
   7144.33  5.5900352E-01
   7144.67  5.6384173E-01
   7145.00  5.6775915E-01
   7145.33  5.7053024E-01
   7145.67  5.7226149E-01
   7146.00  5.7298671E-01
   7146.33  5.7267641E-01
   7146.67  5.7156567E-01
   7147.00  5.6977363E-01
   7147.33  5.6738008E-01
   7147.67  5.6459820E-01
   7148.00  5.6154854E-01
   7148.33  5.5834507E-01
   7148.67  5.5512338E-01
   7149.00  5.5197432E-01
   7149.33  5.4901254E-01
   7149.67  5.4629905E-01
   7150.00  5.4389177E-01
   7150.33  5.4188709E-01
   7150.67  5.4027561E-01
   7151.00  5.3907331E-01
   7151.33  5.3833032E-01
   7151.67  5.3797114E-01
   7152.00  5.3795602E-01
   7152.33  5.3825401E-01
   7152.67  5.3874898E-01
   7153.00  5.3936299E-01
   7153.33  5.4000512E-01
   7153.67  5.4058313E-01
   7154.00  5.4103053E-01
   7154.33  5.4126363E-01
   7154.67  5.4126822E-01
   7155.00  5.4102898E-01
   7155.33  5.4051584E-01
   7155.67  5.3977583E-01
   7156.00  5.3883314E-01
   7156.33  5.3770276E-01
   7156.67  5.3644433E-01
   7157.00  5.3509110E-01
   7157.33  5.3367346E-01
   7157.67  5.3223216E-01
   7158.00  5.3079152E-01
   7158.33  5.2938072E-01
   7158.67  5.2801958E-01
   7159.00  5.2672480E-01
   7159.33  5.2552214E-01
   7159.67  5.2441301E-01
   7160.00  5.2340437E-01
   7160.33  5.2251405E-01
   7160.67  5.2172991E-01
   7161.00  5.2104951E-01
   7161.33  5.2047731E-01
   7161.67  5.1998783E-01
   7162.00  5.1956449E-01
   7162.33  5.1918836E-01
   7162.67  5.1882414E-01
   7163.00  5.1843978E-01
   7163.33  5.1798313E-01
   7163.67  5.1741305E-01
   7164.00  5.1668401E-01
   7164.33  5.1571193E-01
   7164.67  5.1446675E-01
   7165.00  5.1290316E-01
   7165.33  5.1092976E-01
   7165.67  5.0855626E-01
   7166.00  5.0576271E-01
   7166.33  5.0248699E-01
   7166.67  4.9878984E-01
   7167.00  4.9468950E-01
   7167.33  4.9017549E-01
   7167.67  4.8534376E-01
   7168.00  4.8024658E-01
   7168.33  4.7492735E-01
   7168.67  4.6948438E-01
   7169.00  4.6398270E-01
   7169.33  4.5849750E-01
   7169.67  4.5309900E-01
   7170.00  4.4784797E-01
   7170.33  4.4283980E-01
   7170.67  4.3811334E-01
   7171.00  4.3372532E-01
   7171.33  4.2980968E-01
   7171.67  4.2643501E-01
   7172.00  4.2374278E-01
