    FDMNES
    energy     <xanes>
   7097.00  4.6819036E-03
   7097.33  4.7843454E-03
   7097.67  4.8910069E-03
   7098.00  5.0021525E-03
   7098.33  5.1187241E-03
   7098.67  5.2404951E-03
   7099.00  5.3678219E-03
   7099.33  5.5019177E-03
   7099.67  5.6425473E-03
   7100.00  5.7902052E-03
   7100.33  5.9464971E-03
   7100.67  6.1111975E-03
   7101.00  6.2850162E-03
   7101.33  6.4701513E-03
   7101.67  6.6664281E-03
   7102.00  6.8749100E-03
   7102.33  7.0987321E-03
   7102.67  7.3378669E-03
   7103.00  7.5939906E-03
   7103.33  7.8718137E-03
   7103.67  8.1716813E-03
   7104.00  8.4964104E-03
   7104.33  8.8535642E-03
   7104.67  9.2444237E-03
   7105.00  9.6741243E-03
   7105.33  1.0155906E-02
   7105.67  1.0693520E-02
   7106.00  1.1297379E-02
   7106.33  1.1993502E-02
   7106.67  1.2792854E-02
   7107.00  1.3719813E-02
   7107.33  1.4834407E-02
   7107.67  1.6172401E-02
   7108.00  1.7803850E-02
   7108.33  1.9903782E-02
   7108.67  2.2618155E-02
   7109.00  2.6221570E-02
   7109.33  3.1448711E-02
   7109.67  3.9177091E-02
   7110.00  5.1141095E-02
   7110.33  7.2453054E-02
   7110.67  1.0912099E-01
   7111.00  1.6279897E-01
   7111.33  2.0314467E-01
   7111.67  2.0458214E-01
   7112.00  1.7779809E-01
   7112.33  1.4692410E-01
   7112.67  1.2963072E-01
   7113.00  1.2516322E-01
   7113.33  1.2845016E-01
   7113.67  1.3410459E-01
   7114.00  1.3334893E-01
   7114.33  1.1581863E-01
   7114.67  9.4647840E-02
   7115.00  7.8960214E-02
   7115.33  7.0762186E-02
   7115.67  6.7401233E-02
   7116.00  6.7635641E-02
   7116.33  7.1102049E-02
   7116.67  7.7186577E-02
   7117.00  8.5913190E-02
   7117.33  9.8430649E-02
   7117.67  1.1564587E-01
   7118.00  1.3885074E-01
   7118.33  1.7106172E-01
   7118.67  2.1337993E-01
   7119.00  2.6483507E-01
   7119.33  3.1579279E-01
   7119.67  3.5305900E-01
   7120.00  3.7625248E-01
   7120.33  3.9692015E-01
   7120.67  4.2394722E-01
   7121.00  4.5660014E-01
   7121.33  4.8731973E-01
   7121.67  5.0928483E-01
   7122.00  5.2123589E-01
   7122.33  5.2512128E-01
   7122.67  5.2471689E-01
   7123.00  5.2091910E-01
   7123.33  5.1368770E-01
   7123.67  5.0474956E-01
   7124.00  4.9693642E-01
   7124.33  4.9446274E-01
   7124.67  4.9634824E-01
   7125.00  4.9945488E-01
   7125.33  5.0242954E-01
   7125.67  5.0682781E-01
   7126.00  5.1373077E-01
   7126.33  5.2407590E-01
   7126.67  5.3695454E-01
   7127.00  5.5061373E-01
   7127.33  5.6374992E-01
   7127.67  5.7700637E-01
   7128.00  5.9083238E-01
   7128.33  6.0505671E-01
   7128.67  6.1918758E-01
   7129.00  6.3294882E-01
   7129.33  6.4563867E-01
   7129.67  6.5531524E-01
   7130.00  6.5870052E-01
   7130.33  6.5253115E-01
   7130.67  6.4112143E-01
   7131.00  6.2857642E-01
   7131.33  6.1744101E-01
   7131.67  6.0822531E-01
   7132.00  6.0088016E-01
   7132.33  5.9520369E-01
   7132.67  5.9091148E-01
   7133.00  5.8826333E-01
   7133.33  5.8733210E-01
   7133.67  5.8678597E-01
   7134.00  5.8540334E-01
   7134.33  5.8234408E-01
   7134.67  5.7802812E-01
   7135.00  5.7290236E-01
   7135.33  5.6732297E-01
   7135.67  5.6156575E-01
   7136.00  5.5574068E-01
   7136.33  5.4995412E-01
   7136.67  5.4431925E-01
   7137.00  5.3896868E-01
   7137.33  5.3415202E-01
   7137.67  5.3000683E-01
   7138.00  5.2667115E-01
   7138.33  5.2434633E-01
   7138.67  5.2291342E-01
   7139.00  5.2229489E-01
   7139.33  5.2242723E-01
   7139.67  5.2305315E-01
   7140.00  5.2402115E-01
   7140.33  5.2519396E-01
   7140.67  5.2641656E-01
   7141.00  5.2759345E-01
   7141.33  5.2861692E-01
   7141.67  5.2944155E-01
   7142.00  5.3004288E-01
   7142.33  5.3040532E-01
   7142.67  5.3060668E-01
   7143.00  5.3071357E-01
   7143.33  5.3081113E-01
   7143.67  5.3097687E-01
   7144.00  5.3125888E-01
   7144.33  5.3171047E-01
   7144.67  5.3232315E-01
   7145.00  5.3308584E-01
   7145.33  5.3397819E-01
   7145.67  5.3492940E-01
   7146.00  5.3587504E-01
   7146.33  5.3671027E-01
   7146.67  5.3733866E-01
   7147.00  5.3765781E-01
   7147.33  5.3749133E-01
   7147.67  5.3677927E-01
   7148.00  5.3544169E-01
   7148.33  5.3333395E-01
   7148.67  5.3053290E-01
   7149.00  5.2707938E-01
   7149.33  5.2300602E-01
   7149.67  5.1852812E-01
   7150.00  5.1378558E-01
   7150.33  5.0893812E-01
   7150.67  5.0416044E-01
   7151.00  4.9956808E-01
   7151.33  4.9529227E-01
   7151.67  4.9134285E-01
   7152.00  4.8771410E-01
   7152.33  4.8438595E-01
   7152.67  4.8123554E-01
   7153.00  4.7817312E-01
   7153.33  4.7509747E-01
   7153.67  4.7193371E-01
   7154.00  4.6864555E-01
   7154.33  4.6521220E-01
   7154.67  4.6167491E-01
   7155.00  4.5807976E-01
   7155.33  4.5450982E-01
   7155.67  4.5105309E-01
   7156.00  4.4778551E-01
   7156.33  4.4481789E-01
   7156.67  4.4217737E-01
   7157.00  4.3989999E-01
   7157.33  4.3805528E-01
   7157.67  4.3659650E-01
   7158.00  4.3551234E-01
   7158.33  4.3482146E-01
   7158.67  4.3444428E-01
   7159.00  4.3434116E-01
   7159.33  4.3448393E-01
   7159.67  4.3478530E-01
   7160.00  4.3519351E-01
   7160.33  4.3565510E-01
   7160.67  4.3610715E-01
   7161.00  4.3650546E-01
   7161.33  4.3679694E-01
   7161.67  4.3696343E-01
   7162.00  4.3698469E-01
   7162.33  4.3682531E-01
   7162.67  4.3650072E-01
   7163.00  4.3601407E-01
   7163.33  4.3535474E-01
   7163.67  4.3455581E-01
   7164.00  4.3363584E-01
   7164.33  4.3261080E-01
   7164.67  4.3152378E-01
   7165.00  4.3040278E-01
   7165.33  4.2927859E-01
   7165.67  4.2817873E-01
   7166.00  4.2712214E-01
   7166.33  4.2613180E-01
   7166.67  4.2520810E-01
   7167.00  4.2435111E-01
   7167.33  4.2356062E-01
   7167.67  4.2281454E-01
   7168.00  4.2209674E-01
   7168.33  4.2138816E-01
   7168.67  4.2066867E-01
   7169.00  4.1992452E-01
   7169.33  4.1913999E-01
   7169.67  4.1831431E-01
   7170.00  4.1744854E-01
   7170.33  4.1654746E-01
   7170.67  4.1563164E-01
   7171.00  4.1472193E-01
   7171.33  4.1385746E-01
   7171.67  4.1308213E-01
   7172.00  4.1244909E-01
