    FDMNES
    energy     <xanes>
   7097.00  4.2148231E-03
   7097.33  4.2910956E-03
   7097.67  4.3698838E-03
   7098.00  4.4513142E-03
   7098.33  4.5358972E-03
   7098.67  4.6234571E-03
   7099.00  4.7141567E-03
   7099.33  4.8086218E-03
   7099.67  4.9066622E-03
   7100.00  5.0084928E-03
   7100.33  5.1148982E-03
   7100.67  5.2256774E-03
   7101.00  5.3411232E-03
   7101.33  5.4622469E-03
   7101.67  5.5888475E-03
   7102.00  5.7213394E-03
   7102.33  5.8610748E-03
   7102.67  6.0078776E-03
   7103.00  6.1623648E-03
   7103.33  6.3264313E-03
   7103.67  6.4999882E-03
   7104.00  6.6840140E-03
   7104.33  6.8813359E-03
   7104.67  7.0921077E-03
   7105.00  7.3180137E-03
   7105.33  7.5636441E-03
   7105.67  7.8298173E-03
   7106.00  8.1197606E-03
   7106.33  8.4418442E-03
   7106.67  8.7988324E-03
   7107.00  9.1978801E-03
   7107.33  9.6569540E-03
   7107.67  1.0185410E-02
   7108.00  1.0802749E-02
   7108.33  1.1557941E-02
   7108.67  1.2488900E-02
   7109.00  1.3668298E-02
   7109.33  1.5289624E-02
   7109.67  1.7575122E-02
   7110.00  2.0964117E-02
   7110.33  2.6741723E-02
   7110.67  3.6388542E-02
   7111.00  5.0397349E-02
   7111.33  6.1809561E-02
   7111.67  6.3884929E-02
   7112.00  6.2484718E-02
   7112.33  6.5018674E-02
   7112.67  6.9437853E-02
   7113.00  7.0713068E-02
   7113.33  6.8343590E-02
   7113.67  6.5452756E-02
   7114.00  6.1149409E-02
   7114.33  5.3967721E-02
   7114.67  4.6505293E-02
   7115.00  4.0900314E-02
   7115.33  3.7720073E-02
   7115.67  3.6216871E-02
   7116.00  3.6045090E-02
   7116.33  3.7070081E-02
   7116.67  3.8978159E-02
   7117.00  4.1643770E-02
   7117.33  4.5045381E-02
   7117.67  4.9071512E-02
   7118.00  5.3686289E-02
   7118.33  5.8785589E-02
   7118.67  6.4378310E-02
   7119.00  7.0951744E-02
   7119.33  7.9404889E-02
   7119.67  9.0006557E-02
   7120.00  1.0302598E-01
   7120.33  1.1912656E-01
   7120.67  1.3815539E-01
   7121.00  1.6003338E-01
   7121.33  1.8494098E-01
   7121.67  2.1269240E-01
   7122.00  2.4374720E-01
   7122.33  2.7825296E-01
   7122.67  3.1264832E-01
   7123.00  3.4344880E-01
   7123.33  3.7221306E-01
   7123.67  4.0545009E-01
   7124.00  4.4634798E-01
   7124.33  4.9721670E-01
   7124.67  5.5603189E-01
   7125.00  6.1984180E-01
   7125.33  6.8427339E-01
   7125.67  7.4487155E-01
   7126.00  7.9690714E-01
   7126.33  8.3049863E-01
   7126.67  8.4262174E-01
   7127.00  8.3593701E-01
   7127.33  8.1718234E-01
   7127.67  7.9507019E-01
   7128.00  7.7329466E-01
   7128.33  7.5381972E-01
   7128.67  7.3682354E-01
   7129.00  7.2260408E-01
   7129.33  7.1262201E-01
   7129.67  7.0803931E-01
   7130.00  7.0999487E-01
   7130.33  7.1910620E-01
   7130.67  7.3196848E-01
   7131.00  7.4464604E-01
   7131.33  7.5203266E-01
   7131.67  7.5287648E-01
   7132.00  7.4799096E-01
   7132.33  7.3846451E-01
   7132.67  7.2604717E-01
   7133.00  7.1208384E-01
   7133.33  6.9889625E-01
   7133.67  6.8866831E-01
   7134.00  6.8285612E-01
   7134.33  6.8288999E-01
   7134.67  6.8772416E-01
   7135.00  6.9616305E-01
   7135.33  7.0653069E-01
   7135.67  7.1685839E-01
   7136.00  7.2607359E-01
   7136.33  7.3313311E-01
   7136.67  7.3766576E-01
   7137.00  7.3913952E-01
   7137.33  7.3646329E-01
   7137.67  7.2960914E-01
   7138.00  7.1844744E-01
   7138.33  7.0286072E-01
   7138.67  6.8430377E-01
   7139.00  6.6394005E-01
   7139.33  6.4320381E-01
   7139.67  6.2344567E-01
   7140.00  6.0545761E-01
   7140.33  5.8992909E-01
   7140.67  5.7654316E-01
   7141.00  5.6505442E-01
   7141.33  5.5529992E-01
   7141.67  5.4674311E-01
   7142.00  5.3911166E-01
   7142.33  5.3218260E-01
   7142.67  5.2558923E-01
   7143.00  5.1909713E-01
   7143.33  5.1245223E-01
   7143.67  5.0551676E-01
   7144.00  4.9824954E-01
   7144.33  4.9068326E-01
   7144.67  4.8302133E-01
   7145.00  4.7545772E-01
   7145.33  4.6825500E-01
   7145.67  4.6153409E-01
   7146.00  4.5535456E-01
   7146.33  4.4974985E-01
   7146.67  4.4453779E-01
   7147.00  4.3957752E-01
   7147.33  4.3471445E-01
   7147.67  4.2981636E-01
   7148.00  4.2483828E-01
   7148.33  4.1978314E-01
   7148.67  4.1473897E-01
   7149.00  4.0981814E-01
   7149.33  4.0519576E-01
   7149.67  4.0094460E-01
   7150.00  3.9710994E-01
   7150.33  3.9373483E-01
   7150.67  3.9069677E-01
   7151.00  3.8789425E-01
   7151.33  3.8519334E-01
   7151.67  3.8243523E-01
   7152.00  3.7951155E-01
   7152.33  3.7629914E-01
   7152.67  3.7278141E-01
   7153.00  3.6894812E-01
   7153.33  3.6477955E-01
   7153.67  3.6035397E-01
   7154.00  3.5571890E-01
   7154.33  3.5091856E-01
   7154.67  3.4603673E-01
   7155.00  3.4112814E-01
   7155.33  3.3625452E-01
   7155.67  3.3147433E-01
   7156.00  3.2685662E-01
   7156.33  3.2253108E-01
   7156.67  3.1857355E-01
   7157.00  3.1507971E-01
   7157.33  3.1222514E-01
   7157.67  3.1002924E-01
   7158.00  3.0855639E-01
   7158.33  3.0796211E-01
   7158.67  3.0818583E-01
   7159.00  3.0924249E-01
   7159.33  3.1123808E-01
   7159.67  3.1405776E-01
   7160.00  3.1768287E-01
   7160.33  3.2217005E-01
   7160.67  3.2736478E-01
   7161.00  3.3320397E-01
   7161.33  3.3967140E-01
   7161.67  3.4660118E-01
   7162.00  3.5391007E-01
   7162.33  3.6154629E-01
   7162.67  3.6940010E-01
   7163.00  3.7742252E-01
   7163.33  3.8558948E-01
   7163.67  3.9385920E-01
   7164.00  4.0221576E-01
   7164.33  4.1064984E-01
   7164.67  4.1912807E-01
   7165.00  4.2761900E-01
   7165.33  4.3606678E-01
   7165.67  4.4440885E-01
   7166.00  4.5257620E-01
   7166.33  4.6044835E-01
   7166.67  4.6797181E-01
   7167.00  4.7508090E-01
   7167.33  4.8165382E-01
   7167.67  4.8770527E-01
   7168.00  4.9321307E-01
   7168.33  4.9810045E-01
   7168.67  5.0244242E-01
   7169.00  5.0625145E-01
   7169.33  5.0948361E-01
   7169.67  5.1222738E-01
   7170.00  5.1450653E-01
   7170.33  5.1629816E-01
   7170.67  5.1769283E-01
   7171.00  5.1872846E-01
   7171.33  5.1942399E-01
   7171.67  5.1989543E-01
   7172.00  5.2023100E-01
