    FDMNES
    energy     <xanes>
   7097.00  5.1758874E-03
   7097.33  5.2950280E-03
   7097.67  5.4194350E-03
   7098.00  5.5494552E-03
   7098.33  5.6862917E-03
   7098.67  5.8296820E-03
   7099.00  5.9800952E-03
   7099.33  6.1390920E-03
   7099.67  6.3063988E-03
   7100.00  6.4826659E-03
   7100.33  6.6699685E-03
   7100.67  6.8680419E-03
   7101.00  7.0778144E-03
   7101.33  7.3021273E-03
   7101.67  7.5407698E-03
   7102.00  7.7951152E-03
   7102.33  8.0691924E-03
   7102.67  8.3629460E-03
   7103.00  8.6784955E-03
   7103.33  9.0218063E-03
   7103.67  9.3932084E-03
   7104.00  9.7961507E-03
   7104.33  1.0239958E-02
   7104.67  1.0725897E-02
   7105.00  1.1259970E-02
   7105.33  1.1857820E-02
   7105.67  1.2523069E-02
   7106.00  1.3267155E-02
   7106.33  1.4118940E-02
   7106.67  1.5088560E-02
   7107.00  1.6200713E-02
   7107.33  1.7516529E-02
   7107.67  1.9067163E-02
   7108.00  2.0917083E-02
   7108.33  2.3226868E-02
   7108.67  2.6115838E-02
   7109.00  2.9813744E-02
   7109.33  3.4930504E-02
   7109.67  4.2153885E-02
   7110.00  5.2844313E-02
   7110.33  7.0821139E-02
   7110.67  9.8771314E-02
   7111.00  1.3162285E-01
   7111.33  1.5519439E-01
   7111.67  1.7860668E-01
   7112.00  2.0187463E-01
   7112.33  2.3054008E-01
   7112.67  2.7755750E-01
   7113.00  3.3108983E-01
   7113.33  3.7177046E-01
   7113.67  4.1655287E-01
   7114.00  4.6260544E-01
   7114.33  4.6829553E-01
   7114.67  4.2950539E-01
   7115.00  3.6873403E-01
   7115.33  3.1201419E-01
   7115.67  2.6878158E-01
   7116.00  2.3919549E-01
   7116.33  2.2201785E-01
   7116.67  2.1297921E-01
   7117.00  2.0901354E-01
   7117.33  2.0431835E-01
   7117.67  1.9437259E-01
   7118.00  1.8064479E-01
   7118.33  1.6820228E-01
   7118.67  1.5940336E-01
   7119.00  1.5404576E-01
   7119.33  1.5115553E-01
   7119.67  1.4924679E-01
   7120.00  1.4768267E-01
   7120.33  1.4624856E-01
   7120.67  1.4504980E-01
   7121.00  1.4425393E-01
   7121.33  1.4409236E-01
   7121.67  1.4482155E-01
   7122.00  1.4708284E-01
   7122.33  1.5205746E-01
   7122.67  1.5977486E-01
   7123.00  1.7000636E-01
   7123.33  1.8261868E-01
   7123.67  1.9710253E-01
   7124.00  2.1337126E-01
   7124.33  2.3158224E-01
   7124.67  2.5135126E-01
   7125.00  2.7220346E-01
   7125.33  2.9272574E-01
   7125.67  3.1087676E-01
   7126.00  3.2545781E-01
   7126.33  3.3644940E-01
   7126.67  3.4598095E-01
   7127.00  3.5592307E-01
   7127.33  3.6887440E-01
   7127.67  3.8660834E-01
   7128.00  4.1058047E-01
   7128.33  4.4294716E-01
   7128.67  4.8363486E-01
   7129.00  5.3310156E-01
   7129.33  5.9238926E-01
   7129.67  6.5907160E-01
   7130.00  7.3009747E-01
   7130.33  7.9916458E-01
   7130.67  8.5961561E-01
   7131.00  9.0684059E-01
   7131.33  9.3711159E-01
   7131.67  9.5461808E-01
   7132.00  9.6316299E-01
   7132.33  9.6629980E-01
   7132.67  9.6713467E-01
   7133.00  9.6641718E-01
   7133.33  9.6375539E-01
   7133.67  9.5872963E-01
   7134.00  9.5080351E-01
   7134.33  9.3916048E-01
   7134.67  9.2409187E-01
   7135.00  9.0568725E-01
   7135.33  8.8382948E-01
   7135.67  8.5929178E-01
   7136.00  8.3247838E-01
   7136.33  8.0367271E-01
   7136.67  7.7359712E-01
   7137.00  7.4270166E-01
   7137.33  7.1152775E-01
   7137.67  6.8072819E-01
   7138.00  6.5086741E-01
   7138.33  6.2281323E-01
   7138.67  5.9699425E-01
   7139.00  5.7386731E-01
   7139.33  5.5417966E-01
   7139.67  5.3768788E-01
   7140.00  5.2432791E-01
   7140.33  5.1421423E-01
   7140.67  5.0662828E-01
   7141.00  5.0122975E-01
   7141.33  4.9784941E-01
   7141.67  4.9589125E-01
   7142.00  4.9505406E-01
   7142.33  4.9508749E-01
   7142.67  4.9554160E-01
   7143.00  4.9612999E-01
   7143.33  4.9654906E-01
   7143.67  4.9660355E-01
   7144.00  4.9617455E-01
   7144.33  4.9513004E-01
   7144.67  4.9354492E-01
   7145.00  4.9146784E-01
   7145.33  4.8893762E-01
   7145.67  4.8611176E-01
   7146.00  4.8308603E-01
   7146.33  4.7995675E-01
   7146.67  4.7683443E-01
   7147.00  4.7379521E-01
   7147.33  4.7093731E-01
   7147.67  4.6830778E-01
   7148.00  4.6595644E-01
   7148.33  4.6397418E-01
   7148.67  4.6236256E-01
   7149.00  4.6115374E-01
   7149.33  4.6043438E-01
   7149.67  4.6017200E-01
   7150.00  4.6037545E-01
   7150.33  4.6110994E-01
   7150.67  4.6231670E-01
   7151.00  4.6398742E-01
   7151.33  4.6615617E-01
   7151.67  4.6873268E-01
   7152.00  4.7167492E-01
   7152.33  4.7495701E-01
   7152.67  4.7846204E-01
   7153.00  4.8211084E-01
   7153.33  4.8580617E-01
   7153.67  4.8943466E-01
   7154.00  4.9290488E-01
   7154.33  4.9608908E-01
   7154.67  4.9894298E-01
   7155.00  5.0142273E-01
   7155.33  5.0345709E-01
   7155.67  5.0510569E-01
   7156.00  5.0639962E-01
   7156.33  5.0735752E-01
   7156.67  5.0808637E-01
   7157.00  5.0865112E-01
   7157.33  5.0911533E-01
   7157.67  5.0955756E-01
   7158.00  5.1002638E-01
   7158.33  5.1057483E-01
   7158.67  5.1122449E-01
   7159.00  5.1199112E-01
   7159.33  5.1289788E-01
   7159.67  5.1392679E-01
   7160.00  5.1506928E-01
   7160.33  5.1632209E-01
   7160.67  5.1765283E-01
   7161.00  5.1904125E-01
   7161.33  5.2046499E-01
   7161.67  5.2189165E-01
   7162.00  5.2329583E-01
   7162.33  5.2464196E-01
   7162.67  5.2590841E-01
   7163.00  5.2707237E-01
   7163.33  5.2809395E-01
   7163.67  5.2896727E-01
   7164.00  5.2967329E-01
   7164.33  5.3016153E-01
   7164.67  5.3043494E-01
   7165.00  5.3048292E-01
   7165.33  5.3026835E-01
   7165.67  5.2981601E-01
   7166.00  5.2912475E-01
   7166.33  5.2816691E-01
   7166.67  5.2697731E-01
   7167.00  5.2556004E-01
   7167.33  5.2389406E-01
   7167.67  5.2201999E-01
   7168.00  5.1995200E-01
   7168.33  5.1768734E-01
   7168.67  5.1526998E-01
   7169.00  5.1272084E-01
   7169.33  5.1005239E-01
   7169.67  5.0730621E-01
   7170.00  5.0450975E-01
   7170.33  5.0169797E-01
   7170.67  4.9891663E-01
   7171.00  4.9621338E-01
   7171.33  4.9368558E-01
   7171.67  4.9143523E-01
   7172.00  4.8960801E-01
