    FDMNES
    energy     <xanes>
   7097.00  5.1158250E-03
   7097.33  5.2435241E-03
   7097.67  5.3771992E-03
   7098.00  5.5172547E-03
   7098.33  5.6650724E-03
   7098.67  5.8203665E-03
   7099.00  5.9836835E-03
   7099.33  6.1568214E-03
   7099.67  6.3394803E-03
   7100.00  6.5324159E-03
   7100.33  6.7380217E-03
   7100.67  6.9560041E-03
   7101.00  7.1874368E-03
   7101.33  7.4355916E-03
   7101.67  7.7002270E-03
   7102.00  7.9829170E-03
   7102.33  8.2882783E-03
   7102.67  8.6162207E-03
   7103.00  8.9691412E-03
   7103.33  9.3538049E-03
   7103.67  9.7704953E-03
   7104.00  1.0223032E-02
   7104.33  1.0721803E-02
   7104.67  1.1267972E-02
   7105.00  1.1867985E-02
   7105.33  1.2538759E-02
   7105.67  1.3283583E-02
   7106.00  1.4114159E-02
   7106.33  1.5060255E-02
   7106.67  1.6130620E-02
   7107.00  1.7348729E-02
   7107.33  1.8772874E-02
   7107.67  2.0427612E-02
   7108.00  2.2367345E-02
   7108.33  2.4726078E-02
   7108.67  2.7584268E-02
   7109.00  3.1100872E-02
   7109.33  3.5679405E-02
   7109.67  4.1680616E-02
   7110.00  4.9803103E-02
   7110.33  6.1967744E-02
   7110.67  8.0182750E-02
   7111.00  1.0638766E-01
   7111.33  1.4238232E-01
   7111.67  1.8577363E-01
   7112.00  2.3534082E-01
   7112.33  2.9965631E-01
   7112.67  3.6901529E-01
   7113.00  4.2806791E-01
   7113.33  4.9134246E-01
   7113.67  5.7237119E-01
   7114.00  6.5501648E-01
   7114.33  7.0704641E-01
   7114.67  7.0349448E-01
   7115.00  6.4174294E-01
   7115.33  5.3876080E-01
   7115.67  4.3022363E-01
   7116.00  3.3586121E-01
   7116.33  2.6619714E-01
   7116.67  2.1585214E-01
   7117.00  1.8041042E-01
   7117.33  1.5677146E-01
   7117.67  1.4064079E-01
   7118.00  1.3035205E-01
   7118.33  1.2507119E-01
   7118.67  1.2287988E-01
   7119.00  1.2257351E-01
   7119.33  1.2330370E-01
   7119.67  1.2428442E-01
   7120.00  1.2494663E-01
   7120.33  1.2525183E-01
   7120.67  1.2606603E-01
   7121.00  1.2810022E-01
   7121.33  1.3187995E-01
   7121.67  1.3694750E-01
   7122.00  1.4272962E-01
   7122.33  1.4863215E-01
   7122.67  1.5478681E-01
   7123.00  1.6205187E-01
   7123.33  1.7170514E-01
   7123.67  1.8372456E-01
   7124.00  1.9769785E-01
   7124.33  2.1306271E-01
   7124.67  2.2937205E-01
   7125.00  2.4704387E-01
   7125.33  2.6739707E-01
   7125.67  2.9109110E-01
   7126.00  3.1851690E-01
   7126.33  3.4987666E-01
   7126.67  3.8362878E-01
   7127.00  4.1812799E-01
   7127.33  4.5061207E-01
   7127.67  4.7848074E-01
   7128.00  4.9962162E-01
   7128.33  5.1167024E-01
   7128.67  5.1583796E-01
   7129.00  5.1338945E-01
   7129.33  5.0596713E-01
   7129.67  4.9640159E-01
   7130.00  4.8629350E-01
   7130.33  4.7700212E-01
   7130.67  4.6918473E-01
   7131.00  4.6323038E-01
   7131.33  4.5964325E-01
   7131.67  4.5827442E-01
   7132.00  4.5916954E-01
   7132.33  4.6260197E-01
   7132.67  4.6820442E-01
   7133.00  4.7583601E-01
   7133.33  4.8546755E-01
   7133.67  4.9651264E-01
   7134.00  5.0854233E-01
   7134.33  5.2091988E-01
   7134.67  5.3272286E-01
   7135.00  5.4305629E-01
   7135.33  5.5051563E-01
   7135.67  5.5447851E-01
   7136.00  5.5441779E-01
   7136.33  5.4970043E-01
   7136.67  5.4135968E-01
   7137.00  5.3031405E-01
   7137.33  5.1782484E-01
   7137.67  5.0552735E-01
   7138.00  4.9449168E-01
   7138.33  4.8584896E-01
   7138.67  4.7977450E-01
   7139.00  4.7636762E-01
   7139.33  4.7584974E-01
   7139.67  4.7767800E-01
   7140.00  4.8162634E-01
   7140.33  4.8765461E-01
   7140.67  4.9525622E-01
   7141.00  5.0418371E-01
   7141.33  5.1425178E-01
   7141.67  5.2499464E-01
   7142.00  5.3610735E-01
   7142.33  5.4723494E-01
   7142.67  5.5804160E-01
   7143.00  5.6829679E-01
   7143.33  5.7776146E-01
   7143.67  5.8652001E-01
   7144.00  5.9467152E-01
   7144.33  6.0234584E-01
   7144.67  6.0979001E-01
   7145.00  6.1714206E-01
   7145.33  6.2451020E-01
   7145.67  6.3193698E-01
   7146.00  6.3941676E-01
   7146.33  6.4690575E-01
   7146.67  6.5433044E-01
   7147.00  6.6161727E-01
   7147.33  6.6865162E-01
   7147.67  6.7538307E-01
   7148.00  6.8175529E-01
   7148.33  6.8766812E-01
   7148.67  6.9314219E-01
   7149.00  6.9816596E-01
   7149.33  7.0268614E-01
   7149.67  7.0677510E-01
   7150.00  7.1045296E-01
   7150.33  7.1370130E-01
   7150.67  7.1660654E-01
   7151.00  7.1921347E-01
   7151.33  7.2156100E-01
   7151.67  7.2373172E-01
   7152.00  7.2575400E-01
   7152.33  7.2763496E-01
   7152.67  7.2940239E-01
   7153.00  7.3105759E-01
   7153.33  7.3257694E-01
   7153.67  7.3395752E-01
   7154.00  7.3517773E-01
   7154.33  7.3618305E-01
   7154.67  7.3696243E-01
   7155.00  7.3748288E-01
   7155.33  7.3766488E-01
   7155.67  7.3750080E-01
   7156.00  7.3694911E-01
   7156.33  7.3590262E-01
   7156.67  7.3436072E-01
   7157.00  7.3227407E-01
   7157.33  7.2950817E-01
   7157.67  7.2607944E-01
   7158.00  7.2193954E-01
   7158.33  7.1694216E-01
   7158.67  7.1114061E-01
   7159.00  7.0450803E-01
   7159.33  6.9691864E-01
   7159.67  6.8847479E-01
   7160.00  6.7919002E-01
   7160.33  6.6900049E-01
   7160.67  6.5805464E-01
   7161.00  6.4639819E-01
   7161.33  6.3401663E-01
   7161.67  6.2107230E-01
   7162.00  6.0764715E-01
   7162.33  5.9380084E-01
   7162.67  5.7969745E-01
   7163.00  5.6544604E-01
   7163.33  5.5117798E-01
   7163.67  5.3703096E-01
   7164.00  5.2311922E-01
   7164.33  5.0960993E-01
   7164.67  4.9656431E-01
   7165.00  4.8405789E-01
   7165.33  4.7223305E-01
   7165.67  4.6105740E-01
   7166.00  4.5055060E-01
   7166.33  4.4079939E-01
   7166.67  4.3170347E-01
   7167.00  4.2323856E-01
   7167.33  4.1544430E-01
   7167.67  4.0820724E-01
   7168.00  4.0149060E-01
   7168.33  3.9530859E-01
   7168.67  3.8956313E-01
   7169.00  3.8422825E-01
   7169.33  3.7932803E-01
   7169.67  3.7479581E-01
   7170.00  3.7061945E-01
   7170.33  3.6683134E-01
   7170.67  3.6338185E-01
   7171.00  3.6027044E-01
   7171.33  3.5755150E-01
   7171.67  3.5521794E-01
   7172.00  3.5332674E-01
