    FDMNES
    energy     <xanes>
   7097.00  5.2319626E-03
   7097.33  5.3598777E-03
   7097.67  5.4936972E-03
   7098.00  5.6338186E-03
   7098.33  5.7816043E-03
   7098.67  5.9367700E-03
   7099.00  6.0998536E-03
   7099.33  6.2726272E-03
   7099.67  6.4547935E-03
   7100.00  6.6470968E-03
   7100.33  6.8518970E-03
   7100.67  7.0689042E-03
   7101.00  7.2991774E-03
   7101.33  7.5459453E-03
   7101.67  7.8089718E-03
   7102.00  8.0898131E-03
   7102.33  8.3930312E-03
   7102.67  8.7185455E-03
   7103.00  9.0687322E-03
   7103.33  9.4502915E-03
   7103.67  9.8635244E-03
   7104.00  1.0312232E-02
   7104.33  1.0806735E-02
   7104.67  1.1348237E-02
   7105.00  1.1943181E-02
   7105.33  1.2608454E-02
   7105.67  1.3347440E-02
   7106.00  1.4171913E-02
   7106.33  1.5111784E-02
   7106.67  1.6176082E-02
   7107.00  1.7388650E-02
   7107.33  1.8808647E-02
   7107.67  2.0461686E-02
   7108.00  2.2403903E-02
   7108.33  2.4773800E-02
   7108.67  2.7657531E-02
   7109.00  3.1224763E-02
   7109.33  3.5910733E-02
   7109.67  4.2127060E-02
   7110.00  5.0677507E-02
   7110.33  6.3769207E-02
   7110.67  8.3240143E-02
   7111.00  1.0848642E-01
   7111.33  1.3577472E-01
   7111.67  1.7119345E-01
   7112.00  2.2160100E-01
   7112.33  2.9460757E-01
   7112.67  3.8916705E-01
   7113.00  5.0037644E-01
   7113.33  6.0849594E-01
   7113.67  6.8751393E-01
   7114.00  7.0148203E-01
   7114.33  6.1980954E-01
   7114.67  5.0381223E-01
   7115.00  4.0015511E-01
   7115.33  3.2753406E-01
   7115.67  2.7795776E-01
   7116.00  2.4563164E-01
   7116.33  2.2708954E-01
   7116.67  2.1707102E-01
   7117.00  2.1204966E-01
   7117.33  2.0745132E-01
   7117.67  2.0072321E-01
   7118.00  1.9250472E-01
   7118.33  1.8416500E-01
   7118.67  1.7612876E-01
   7119.00  1.6826921E-01
   7119.33  1.6035140E-01
   7119.67  1.5229560E-01
   7120.00  1.4416275E-01
   7120.33  1.3663936E-01
   7120.67  1.3068300E-01
   7121.00  1.2665920E-01
   7121.33  1.2454507E-01
   7121.67  1.2382997E-01
   7122.00  1.2436183E-01
   7122.33  1.2598615E-01
   7122.67  1.2819695E-01
   7123.00  1.3072602E-01
   7123.33  1.3355488E-01
   7123.67  1.3705305E-01
   7124.00  1.4185626E-01
   7124.33  1.4887735E-01
   7124.67  1.5825860E-01
   7125.00  1.7024567E-01
   7125.33  1.8563724E-01
   7125.67  2.0472522E-01
   7126.00  2.2819454E-01
   7126.33  2.5715239E-01
   7126.67  2.9029868E-01
   7127.00  3.2540359E-01
   7127.33  3.5780172E-01
   7127.67  3.8362385E-01
   7128.00  4.0198493E-01
   7128.33  4.1521335E-01
   7128.67  4.2822617E-01
   7129.00  4.4366275E-01
   7129.33  4.6360635E-01
   7129.67  4.8842214E-01
   7130.00  5.1815906E-01
   7130.33  5.5203397E-01
   7130.67  5.8803098E-01
   7131.00  6.2615158E-01
   7131.33  6.6873261E-01
   7131.67  7.1721987E-01
   7132.00  7.7193546E-01
   7132.33  8.3172206E-01
   7132.67  8.9214442E-01
   7133.00  9.4836318E-01
   7133.33  9.9264658E-01
   7133.67  1.0213833E+00
   7134.00  1.0331149E+00
   7134.33  1.0273214E+00
   7134.67  1.0088375E+00
   7135.00  9.7976239E-01
   7135.33  9.4032586E-01
   7135.67  8.9265714E-01
   7136.00  8.3820553E-01
   7136.33  7.7937522E-01
   7136.67  7.2030775E-01
   7137.00  6.6397828E-01
   7137.33  6.1365460E-01
   7137.67  5.7017593E-01
   7138.00  5.3410090E-01
   7138.33  5.0642230E-01
   7138.67  4.8585571E-01
   7139.00  4.7188622E-01
   7139.33  4.6447342E-01
   7139.67  4.6202653E-01
   7140.00  4.6380334E-01
   7140.33  4.6943411E-01
   7140.67  4.7781899E-01
   7141.00  4.8850047E-01
   7141.33  5.0129695E-01
   7141.67  5.1562151E-01
   7142.00  5.3116416E-01
   7142.33  5.4759282E-01
   7142.67  5.6427686E-01
   7143.00  5.8069307E-01
   7143.33  5.9610425E-01
   7143.67  6.1006307E-01
   7144.00  6.2220183E-01
   7144.33  6.3200046E-01
   7144.67  6.3963505E-01
   7145.00  6.4514678E-01
   7145.33  6.4842440E-01
   7145.67  6.4990685E-01
   7146.00  6.4976790E-01
   7146.33  6.4801334E-01
   7146.67  6.4499359E-01
   7147.00  6.4085417E-01
   7147.33  6.3564949E-01
   7147.67  6.2967434E-01
   7148.00  6.2308124E-01
   7148.33  6.1598970E-01
   7148.67  6.0862200E-01
   7149.00  6.0111124E-01
   7149.33  5.9359673E-01
   7149.67  5.8620105E-01
   7150.00  5.7901157E-01
   7150.33  5.7214333E-01
   7150.67  5.6561918E-01
   7151.00  5.5947490E-01
   7151.33  5.5378834E-01
   7151.67  5.4852546E-01
   7152.00  5.4369584E-01
   7152.33  5.3935629E-01
   7152.67  5.3545001E-01
   7153.00  5.3197675E-01
   7153.33  5.2899602E-01
   7153.67  5.2646610E-01
   7154.00  5.2440627E-01
   7154.33  5.2291037E-01
   7154.67  5.2195431E-01
   7155.00  5.2157484E-01
   7155.33  5.2189191E-01
   7155.67  5.2286354E-01
   7156.00  5.2450816E-01
   7156.33  5.2691073E-01
   7156.67  5.2995998E-01
   7157.00  5.3360797E-01
   7157.33  5.3783463E-01
   7157.67  5.4246404E-01
   7158.00  5.4738324E-01
   7158.33  5.5246610E-01
   7158.67  5.5754349E-01
   7159.00  5.6248482E-01
   7159.33  5.6710943E-01
   7159.67  5.7132150E-01
   7160.00  5.7502212E-01
   7160.33  5.7803806E-01
   7160.67  5.8036848E-01
   7161.00  5.8196063E-01
   7161.33  5.8266642E-01
   7161.67  5.8255420E-01
   7162.00  5.8161214E-01
   7162.33  5.7973767E-01
   7162.67  5.7704977E-01
   7163.00  5.7357017E-01
   7163.33  5.6923924E-01
   7163.67  5.6419740E-01
   7164.00  5.5849258E-01
   7164.33  5.5211417E-01
   7164.67  5.4520944E-01
   7165.00  5.3784595E-01
   7165.33  5.3006023E-01
   7165.67  5.2198705E-01
   7166.00  5.1370274E-01
   7166.33  5.0527896E-01
   7166.67  4.9681453E-01
   7167.00  4.8837503E-01
   7167.33  4.8003897E-01
   7167.67  4.7185467E-01
   7168.00  4.6387183E-01
   7168.33  4.5617160E-01
   7168.67  4.4875929E-01
   7169.00  4.4166221E-01
   7169.33  4.3495316E-01
   7169.67  4.2861502E-01
   7170.00  4.2266673E-01
   7170.33  4.1718009E-01
   7170.67  4.1212811E-01
   7171.00  4.0753823E-01
   7171.33  4.0352235E-01
   7171.67  4.0010080E-01
   7172.00  3.9737750E-01
