    FDMNES
    energy     <xanes>
   7097.00  5.1644938E-03
   7097.33  5.2925693E-03
   7097.67  5.4268728E-03
   7098.00  5.5678541E-03
   7098.33  5.7170024E-03
   7098.67  5.8740620E-03
   7099.00  6.0396550E-03
   7099.33  6.2157615E-03
   7099.67  6.4021310E-03
   7100.00  6.5996483E-03
   7100.33  6.8110180E-03
   7100.67  7.0360335E-03
   7101.00  7.2759930E-03
   7101.33  7.5347112E-03
   7101.67  7.8121081E-03
   7102.00  8.1101617E-03
   7102.33  8.4344610E-03
   7102.67  8.7852347E-03
   7103.00  9.1656348E-03
   7103.33  9.5842369E-03
   7103.67  1.0041991E-02
   7104.00  1.0544202E-02
   7104.33  1.1104802E-02
   7104.67  1.1726447E-02
   7105.00  1.2418703E-02
   7105.33  1.3205902E-02
   7105.67  1.4094959E-02
   7106.00  1.5104722E-02
   7106.33  1.6281935E-02
   7106.67  1.7645163E-02
   7107.00  1.9236277E-02
   7107.33  2.1157650E-02
   7107.67  2.3464680E-02
   7108.00  2.6267769E-02
   7108.33  2.9838799E-02
   7108.67  3.4379286E-02
   7109.00  4.0268663E-02
   7109.33  4.8490638E-02
   7109.67  6.0084223E-02
   7110.00  7.7058568E-02
   7110.33  1.0512591E-01
   7110.67  1.5087461E-01
   7111.00  2.1992217E-01
   7111.33  3.0859732E-01
   7111.67  4.0590895E-01
   7112.00  5.0325222E-01
   7112.33  5.5204071E-01
   7112.67  5.2432821E-01
   7113.00  4.5726480E-01
   7113.33  4.0546196E-01
   7113.67  3.7729152E-01
   7114.00  3.5521433E-01
   7114.33  3.1061723E-01
   7114.67  2.5546545E-01
   7115.00  2.1300662E-01
   7115.33  1.9509758E-01
   7115.67  1.8690201E-01
   7116.00  1.6901563E-01
   7116.33  1.4105299E-01
   7116.67  1.1982182E-01
   7117.00  1.0810673E-01
   7117.33  1.0383488E-01
   7117.67  1.0205182E-01
   7118.00  9.9546211E-02
   7118.33  9.5672335E-02
   7118.67  9.2336405E-02
   7119.00  9.0129348E-02
   7119.33  8.8485801E-02
   7119.67  8.7298927E-02
   7120.00  8.7097375E-02
   7120.33  8.8383487E-02
   7120.67  9.0676564E-02
   7121.00  9.3541073E-02
   7121.33  9.6786170E-02
   7121.67  1.0031520E-01
   7122.00  1.0405702E-01
   7122.33  1.0809589E-01
   7122.67  1.1278098E-01
   7123.00  1.1859921E-01
   7123.33  1.2624755E-01
   7123.67  1.3568261E-01
   7124.00  1.4673212E-01
   7124.33  1.5946394E-01
   7124.67  1.7400018E-01
   7125.00  1.9069534E-01
   7125.33  2.0994568E-01
   7125.67  2.3168697E-01
   7126.00  2.5650281E-01
   7126.33  2.8521271E-01
   7126.67  3.1635248E-01
   7127.00  3.4750275E-01
   7127.33  3.7502821E-01
   7127.67  3.9873270E-01
   7128.00  4.2100668E-01
   7128.33  4.4583434E-01
   7128.67  4.7496674E-01
   7129.00  5.0826469E-01
   7129.33  5.4440920E-01
   7129.67  5.8130082E-01
   7130.00  6.1820241E-01
   7130.33  6.5529641E-01
   7130.67  6.9367857E-01
   7131.00  7.3505165E-01
   7131.33  7.8128970E-01
   7131.67  8.2985750E-01
   7132.00  8.7625537E-01
   7132.33  9.1302202E-01
   7132.67  9.3579889E-01
   7133.00  9.4169772E-01
   7133.33  9.2824968E-01
   7133.67  9.0186624E-01
   7134.00  8.6897802E-01
   7134.33  8.3580615E-01
   7134.67  8.0410418E-01
   7135.00  7.7335403E-01
   7135.33  7.4346880E-01
   7135.67  7.1450576E-01
   7136.00  6.8662280E-01
   7136.33  6.6029850E-01
   7136.67  6.3577104E-01
   7137.00  6.1338688E-01
   7137.33  5.9375932E-01
   7137.67  5.7676079E-01
   7138.00  5.6246597E-01
   7138.33  5.5126324E-01
   7138.67  5.4284293E-01
   7139.00  5.3722635E-01
   7139.33  5.3475577E-01
   7139.67  5.3501460E-01
   7140.00  5.3788307E-01
   7140.33  5.4343254E-01
   7140.67  5.5103178E-01
   7141.00  5.6030410E-01
   7141.33  5.7085846E-01
   7141.67  5.8195120E-01
   7142.00  5.9305063E-01
   7142.33  6.0350119E-01
   7142.67  6.1288848E-01
   7143.00  6.2091484E-01
   7143.33  6.2721376E-01
   7143.67  6.3198041E-01
   7144.00  6.3532971E-01
   7144.33  6.3733123E-01
   7144.67  6.3839281E-01
   7145.00  6.3873237E-01
   7145.33  6.3852041E-01
   7145.67  6.3802559E-01
   7146.00  6.3740918E-01
   7146.33  6.3684332E-01
   7146.67  6.3645562E-01
   7147.00  6.3632655E-01
   7147.33  6.3654094E-01
   7147.67  6.3703429E-01
   7148.00  6.3771769E-01
   7148.33  6.3838760E-01
   7148.67  6.3871213E-01
   7149.00  6.3832303E-01
   7149.33  6.3664809E-01
   7149.67  6.3353171E-01
   7150.00  6.2888580E-01
   7150.33  6.2262955E-01
   7150.67  6.1520990E-01
   7151.00  6.0693417E-01
   7151.33  5.9811967E-01
   7151.67  5.8915776E-01
   7152.00  5.8025013E-01
   7152.33  5.7156003E-01
   7152.67  5.6313288E-01
   7153.00  5.5498988E-01
   7153.33  5.4715792E-01
   7153.67  5.3957395E-01
   7154.00  5.3220786E-01
   7154.33  5.2505097E-01
   7154.67  5.1806029E-01
   7155.00  5.1123436E-01
   7155.33  5.0461486E-01
   7155.67  4.9821741E-01
   7156.00  4.9208661E-01
   7156.33  4.8632098E-01
   7156.67  4.8093707E-01
   7157.00  4.7597807E-01
   7157.33  4.7154089E-01
   7157.67  4.6759280E-01
   7158.00  4.6414439E-01
   7158.33  4.6125619E-01
   7158.67  4.5884822E-01
   7159.00  4.5689355E-01
   7159.33  4.5539949E-01
   7159.67  4.5425341E-01
   7160.00  4.5339208E-01
   7160.33  4.5276105E-01
   7160.67  4.5225761E-01
   7161.00  4.5183034E-01
   7161.33  4.5145827E-01
   7161.67  4.5114774E-01
   7162.00  4.5093042E-01
   7162.33  4.5086507E-01
   7162.67  4.5096216E-01
   7163.00  4.5122226E-01
   7163.33  4.5163209E-01
   7163.67  4.5211519E-01
   7164.00  4.5260640E-01
   7164.33  4.5302918E-01
   7164.67  4.5334112E-01
   7165.00  4.5351908E-01
   7165.33  4.5354128E-01
   7165.67  4.5343867E-01
   7166.00  4.5323835E-01
   7166.33  4.5297937E-01
   7166.67  4.5271694E-01
   7167.00  4.5248908E-01
   7167.33  4.5233900E-01
   7167.67  4.5227689E-01
   7168.00  4.5230389E-01
   7168.33  4.5241331E-01
   7168.67  4.5256422E-01
   7169.00  4.5272008E-01
   7169.33  4.5282697E-01
   7169.67  4.5284147E-01
   7170.00  4.5272525E-01
   7170.33  4.5242026E-01
   7170.67  4.5192265E-01
   7171.00  4.5122705E-01
   7171.33  4.5034105E-01
   7171.67  4.4938177E-01
   7172.00  4.4850216E-01
