    FDMNES
    energy     <xanes>
   7097.00  5.1873907E-03
   7097.33  5.3093183E-03
   7097.67  5.4367761E-03
   7098.00  5.5701384E-03
   7098.33  5.7106852E-03
   7098.67  5.8581547E-03
   7099.00  6.0130568E-03
   7099.33  6.1770646E-03
   7099.67  6.3499099E-03
   7100.00  6.5323052E-03
   7100.33  6.7264946E-03
   7100.67  6.9322284E-03
   7101.00  7.1505340E-03
   7101.33  7.3845143E-03
   7101.67  7.6339941E-03
   7102.00  7.9005100E-03
   7102.33  8.1885125E-03
   7102.67  8.4980257E-03
   7103.00  8.8314507E-03
   7103.33  9.1954649E-03
   7103.67  9.5905743E-03
   7104.00  1.0020742E-02
   7104.33  1.0496563E-02
   7104.67  1.1019705E-02
   7105.00  1.1597174E-02
   7105.33  1.2247047E-02
   7105.67  1.2973909E-02
   7106.00  1.3791318E-02
   7106.33  1.4733243E-02
   7106.67  1.5812318E-02
   7107.00  1.7058252E-02
   7107.33  1.8544190E-02
   7107.67  2.0308563E-02
   7108.00  2.2429469E-02
   7108.33  2.5100458E-02
   7108.67  2.8465497E-02
   7109.00  3.2798707E-02
   7109.33  3.8819495E-02
   7109.67  4.7314913E-02
   7110.00  5.9827883E-02
   7110.33  8.0787128E-02
   7110.67  1.1495073E-01
   7111.00  1.6364516E-01
   7111.33  2.1087747E-01
   7111.67  2.4290120E-01
   7112.00  2.6816182E-01
   7112.33  3.0353955E-01
   7112.67  3.4563564E-01
   7113.00  3.8401296E-01
   7113.33  4.1384499E-01
   7113.67  4.2478534E-01
   7114.00  4.0281337E-01
   7114.33  3.5039093E-01
   7114.67  2.9704435E-01
   7115.00  2.5665742E-01
   7115.33  2.3272839E-01
   7115.67  2.1986863E-01
   7116.00  2.1509184E-01
   7116.33  2.1572115E-01
   7116.67  2.1571654E-01
   7117.00  2.0961894E-01
   7117.33  1.9643824E-01
   7117.67  1.8306805E-01
   7118.00  1.7333241E-01
   7118.33  1.6806303E-01
   7118.67  1.6515834E-01
   7119.00  1.6309035E-01
   7119.33  1.6040812E-01
   7119.67  1.5676379E-01
   7120.00  1.5258097E-01
   7120.33  1.4868052E-01
   7120.67  1.4562297E-01
   7121.00  1.4369756E-01
   7121.33  1.4337535E-01
   7121.67  1.4495132E-01
   7122.00  1.4893190E-01
   7122.33  1.5618093E-01
   7122.67  1.6663950E-01
   7123.00  1.8045282E-01
   7123.33  1.9810221E-01
   7123.67  2.1878510E-01
   7124.00  2.4140075E-01
   7124.33  2.6364466E-01
   7124.67  2.8319830E-01
   7125.00  2.9895427E-01
   7125.33  3.1073277E-01
   7125.67  3.2048438E-01
   7126.00  3.2979069E-01
   7126.33  3.4051857E-01
   7126.67  3.5417873E-01
   7127.00  3.7228552E-01
   7127.33  3.9744018E-01
   7127.67  4.3041031E-01
   7128.00  4.7180519E-01
   7128.33  5.2162399E-01
   7128.67  5.7559227E-01
   7129.00  6.2917852E-01
   7129.33  6.7660735E-01
   7129.67  7.1589687E-01
   7130.00  7.4679339E-01
   7130.33  7.6951503E-01
   7130.67  7.8664887E-01
   7131.00  7.9957968E-01
   7131.33  8.0936803E-01
   7131.67  8.1766091E-01
   7132.00  8.2553011E-01
   7132.33  8.3409804E-01
   7132.67  8.4377446E-01
   7133.00  8.5426377E-01
   7133.33  8.6422482E-01
   7133.67  8.7187157E-01
   7134.00  8.7597111E-01
   7134.33  8.7567202E-01
   7134.67  8.7160737E-01
   7135.00  8.6343222E-01
   7135.33  8.4938739E-01
   7135.67  8.2899042E-01
   7136.00  8.0203364E-01
   7136.33  7.6903219E-01
   7136.67  7.3304167E-01
   7137.00  6.9636451E-01
   7137.33  6.6143424E-01
   7137.67  6.2953974E-01
   7138.00  6.0141477E-01
   7138.33  5.7800846E-01
   7138.67  5.5890714E-01
   7139.00  5.4400711E-01
   7139.33  5.3348421E-01
   7139.67  5.2639867E-01
   7140.00  5.2228808E-01
   7140.33  5.2087044E-01
   7140.67  5.2126250E-01
   7141.00  5.2298729E-01
   7141.33  5.2563845E-01
   7141.67  5.2866567E-01
   7142.00  5.3174231E-01
   7142.33  5.3453391E-01
   7142.67  5.3686395E-01
   7143.00  5.3863001E-01
   7143.33  5.3970744E-01
   7143.67  5.4016634E-01
   7144.00  5.4000511E-01
   7144.33  5.3912677E-01
   7144.67  5.3758214E-01
   7145.00  5.3535650E-01
   7145.33  5.3238863E-01
   7145.67  5.2882886E-01
   7146.00  5.2475750E-01
   7146.33  5.2024221E-01
   7146.67  5.1547426E-01
   7147.00  5.1058421E-01
   7147.33  5.0572337E-01
   7147.67  5.0102221E-01
   7148.00  4.9657937E-01
   7148.33  4.9253255E-01
   7148.67  4.8890905E-01
   7149.00  4.8575281E-01
   7149.33  4.8315684E-01
   7149.67  4.8107113E-01
   7150.00  4.7949620E-01
   7150.33  4.7849281E-01
   7150.67  4.7799467E-01
   7151.00  4.7800094E-01
   7151.33  4.7857756E-01
   7151.67  4.7966847E-01
   7152.00  4.8128305E-01
   7152.33  4.8349935E-01
   7152.67  4.8625620E-01
   7153.00  4.8954764E-01
   7153.33  4.9340520E-01
   7153.67  4.9769526E-01
   7154.00  5.0232088E-01
   7154.33  5.0714842E-01
   7154.67  5.1195593E-01
   7155.00  5.1654510E-01
   7155.33  5.2061221E-01
   7155.67  5.2397801E-01
   7156.00  5.2646810E-01
   7156.33  5.2781383E-01
   7156.67  5.2809081E-01
   7157.00  5.2733678E-01
   7157.33  5.2557646E-01
   7157.67  5.2313781E-01
   7158.00  5.2024466E-01
   7158.33  5.1714545E-01
   7158.67  5.1411338E-01
   7159.00  5.1132733E-01
   7159.33  5.0899186E-01
   7159.67  5.0715087E-01
   7160.00  5.0584064E-01
   7160.33  5.0512682E-01
   7160.67  5.0490400E-01
   7161.00  5.0511486E-01
   7161.33  5.0572373E-01
   7161.67  5.0659796E-01
   7162.00  5.0765736E-01
   7162.33  5.0882139E-01
   7162.67  5.0998973E-01
   7163.00  5.1108885E-01
   7163.33  5.1203510E-01
   7163.67  5.1280612E-01
   7164.00  5.1338235E-01
   7164.33  5.1372617E-01
   7164.67  5.1386021E-01
   7165.00  5.1378523E-01
   7165.33  5.1347575E-01
   7165.67  5.1295618E-01
   7166.00  5.1222336E-01
   7166.33  5.1124468E-01
   7166.67  5.1004212E-01
   7167.00  5.0861393E-01
   7167.33  5.0693654E-01
   7167.67  5.0504938E-01
   7168.00  5.0296805E-01
   7168.33  5.0069521E-01
   7168.67  4.9828181E-01
   7169.00  4.9575657E-01
   7169.33  4.9314501E-01
   7169.67  4.9049339E-01
   7170.00  4.8783461E-01
   7170.33  4.8521013E-01
   7170.67  4.8265654E-01
   7171.00  4.8021513E-01
   7171.33  4.7797117E-01
   7171.67  4.7599807E-01
   7172.00  4.7440794E-01
