    FDMNES
    energy     <xanes>
   7097.00  5.0419857E-03
   7097.33  5.1606015E-03
   7097.67  5.2846591E-03
   7098.00  5.4145343E-03
   7098.33  5.5514997E-03
   7098.67  5.6953090E-03
   7099.00  5.8464780E-03
   7099.33  6.0066815E-03
   7099.67  6.1756723E-03
   7100.00  6.3541781E-03
   7100.33  6.5444638E-03
   7100.67  6.7463112E-03
   7101.00  6.9607805E-03
   7101.33  7.1910359E-03
   7101.67  7.4369533E-03
   7102.00  7.7001389E-03
   7102.33  7.9851887E-03
   7102.67  8.2922192E-03
   7103.00  8.6237791E-03
   7103.33  8.9868718E-03
   7103.67  9.3821891E-03
   7104.00  9.8140156E-03
   7104.33  1.0293681E-02
   7104.67  1.0823264E-02
   7105.00  1.1410512E-02
   7105.33  1.2075218E-02
   7105.67  1.2822992E-02
   7106.00  1.3669235E-02
   7106.33  1.4652247E-02
   7106.67  1.5787545E-02
   7107.00  1.7109980E-02
   7107.33  1.8704999E-02
   7107.67  2.0620571E-02
   7108.00  2.2951717E-02
   7108.33  2.5933935E-02
   7108.67  2.9750870E-02
   7109.00  3.4748539E-02
   7109.33  4.1837847E-02
   7109.67  5.2040978E-02
   7110.00  6.7356654E-02
   7110.33  9.3540238E-02
   7110.67  1.3695244E-01
   7111.00  2.0032843E-01
   7111.33  2.6866881E-01
   7111.67  3.2001995E-01
   7112.00  3.4204579E-01
   7112.33  3.5198151E-01
   7112.67  3.4915917E-01
   7113.00  3.1212494E-01
   7113.33  2.5849081E-01
   7113.67  2.1290746E-01
   7114.00  1.8986470E-01
   7114.33  1.9638291E-01
   7114.67  2.2449073E-01
   7115.00  2.6258552E-01
   7115.33  2.8506415E-01
   7115.67  2.8145627E-01
   7116.00  2.6114506E-01
   7116.33  2.3865213E-01
   7116.67  2.1972456E-01
   7117.00  2.0290391E-01
   7117.33  1.8690289E-01
   7117.67  1.7273224E-01
   7118.00  1.6029117E-01
   7118.33  1.4911905E-01
   7118.67  1.3986392E-01
   7119.00  1.3289976E-01
   7119.33  1.2794716E-01
   7119.67  1.2413083E-01
   7120.00  1.2121302E-01
   7120.33  1.1943790E-01
   7120.67  1.1901463E-01
   7121.00  1.2024842E-01
   7121.33  1.2360181E-01
   7121.67  1.2887233E-01
   7122.00  1.3603544E-01
   7122.33  1.4536722E-01
   7122.67  1.5670996E-01
   7123.00  1.7011108E-01
   7123.33  1.8581810E-01
   7123.67  2.0361449E-01
   7124.00  2.2370370E-01
   7124.33  2.4676998E-01
   7124.67  2.7263925E-01
   7125.00  3.0102281E-01
   7125.33  3.3098097E-01
   7125.67  3.6006458E-01
   7126.00  3.8548177E-01
   7126.33  4.0355401E-01
   7126.67  4.1466576E-01
   7127.00  4.2093381E-01
   7127.33  4.2632506E-01
   7127.67  4.3483705E-01
   7128.00  4.4881311E-01
   7128.33  4.7052303E-01
   7128.67  4.9943622E-01
   7129.00  5.3514157E-01
   7129.33  5.7702921E-01
   7129.67  6.2220281E-01
   7130.00  6.6816743E-01
   7130.33  7.1134362E-01
   7130.67  7.4879605E-01
   7131.00  7.7816727E-01
   7131.33  7.9660720E-01
   7131.67  8.0551093E-01
   7132.00  8.0669515E-01
   7132.33  8.0316523E-01
   7132.67  7.9925342E-01
   7133.00  7.9754313E-01
   7133.33  8.0037766E-01
   7133.67  8.0805605E-01
   7134.00  8.2066924E-01
   7134.33  8.3801204E-01
   7134.67  8.5722317E-01
   7135.00  8.7437012E-01
   7135.33  8.8181501E-01
   7135.67  8.7453056E-01
   7136.00  8.5061493E-01
   7136.33  8.1150879E-01
   7136.67  7.6544804E-01
   7137.00  7.1797183E-01
   7137.33  6.7394224E-01
   7137.67  6.3524334E-01
   7138.00  6.0256545E-01
   7138.33  5.7662306E-01
   7138.67  5.5615650E-01
   7139.00  5.4054447E-01
   7139.33  5.2947541E-01
   7139.67  5.2162153E-01
   7140.00  5.1632000E-01
   7140.33  5.1309365E-01
   7140.67  5.1107903E-01
   7141.00  5.0980338E-01
   7141.33  5.0884419E-01
   7141.67  5.0782245E-01
   7142.00  5.0654124E-01
   7142.33  5.0483023E-01
   7142.67  5.0270396E-01
   7143.00  5.0017800E-01
   7143.33  4.9724807E-01
   7143.67  4.9400855E-01
   7144.00  4.9050966E-01
   7144.33  4.8681002E-01
   7144.67  4.8305436E-01
   7145.00  4.7938817E-01
   7145.33  4.7605601E-01
   7145.67  4.7324484E-01
   7146.00  4.7114846E-01
   7146.33  4.7007047E-01
   7146.67  4.6996756E-01
   7147.00  4.7080795E-01
   7147.33  4.7259849E-01
   7147.67  4.7510119E-01
   7148.00  4.7819890E-01
   7148.33  4.8182941E-01
   7148.67  4.8584211E-01
   7149.00  4.9018885E-01
   7149.33  4.9488374E-01
   7149.67  4.9989419E-01
   7150.00  5.0525103E-01
   7150.33  5.1105154E-01
   7150.67  5.1728674E-01
   7151.00  5.2397325E-01
   7151.33  5.3115586E-01
   7151.67  5.3873234E-01
   7152.00  5.4663191E-01
   7152.33  5.5475911E-01
   7152.67  5.6293884E-01
   7153.00  5.7104134E-01
   7153.33  5.7889140E-01
   7153.67  5.8637875E-01
   7154.00  5.9339810E-01
   7154.33  5.9977797E-01
   7154.67  6.0551621E-01
   7155.00  6.1057184E-01
   7155.33  6.1483175E-01
   7155.67  6.1837853E-01
   7156.00  6.2121840E-01
   7156.33  6.2328368E-01
   7156.67  6.2468705E-01
   7157.00  6.2545471E-01
   7157.33  6.2554340E-01
   7157.67  6.2506093E-01
   7158.00  6.2403424E-01
   7158.33  6.2242871E-01
   7158.67  6.2033639E-01
   7159.00  6.1778185E-01
   7159.33  6.1474422E-01
   7159.67  6.1130897E-01
   7160.00  6.0750245E-01
   7160.33  6.0331117E-01
   7160.67  5.9880313E-01
   7161.00  5.9400058E-01
   7161.33  5.8889872E-01
   7161.67  5.8356008E-01
   7162.00  5.7800993E-01
   7162.33  5.7225437E-01
   7162.67  5.6634534E-01
   7163.00  5.6030885E-01
   7163.33  5.5416463E-01
   7163.67  5.4795847E-01
   7164.00  5.4172104E-01
   7164.33  5.3548918E-01
   7164.67  5.2930037E-01
   7165.00  5.2318868E-01
   7165.33  5.1720707E-01
   7165.67  5.1137798E-01
   7166.00  5.0573119E-01
   7166.33  5.0032283E-01
   7166.67  4.9514957E-01
   7167.00  4.9022584E-01
   7167.33  4.8559318E-01
   7167.67  4.8122119E-01
   7168.00  4.7710903E-01
   7168.33  4.7328181E-01
   7168.67  4.6969260E-01
   7169.00  4.6632466E-01
   7169.33  4.6318194E-01
   7169.67  4.6021883E-01
   7170.00  4.5741951E-01
   7170.33  4.5478819E-01
   7170.67  4.5229887E-01
   7171.00  4.4995556E-01
   7171.33  4.4780669E-01
   7171.67  4.4589908E-01
   7172.00  4.4433137E-01
