    FDMNES
    energy     <xanes>
   7097.00  4.9677423E-03
   7097.33  5.0801207E-03
   7097.67  5.1973761E-03
   7098.00  5.3198247E-03
   7098.33  5.4485724E-03
   7098.67  5.5833692E-03
   7099.00  5.7246411E-03
   7099.33  5.8738168E-03
   7099.67  6.0306338E-03
   7100.00  6.1956799E-03
   7100.33  6.3708457E-03
   7100.67  6.5558728E-03
   7101.00  6.7515959E-03
   7101.33  6.9605889E-03
   7101.67  7.1826353E-03
   7102.00  7.4189612E-03
   7102.33  7.6731925E-03
   7102.67  7.9452382E-03
   7103.00  8.2369758E-03
   7103.33  8.5537284E-03
   7103.67  8.8957204E-03
   7104.00  9.2659745E-03
   7104.33  9.6727203E-03
   7104.67  1.0116943E-02
   7105.00  1.0603828E-02
   7105.33  1.1146968E-02
   7105.67  1.1749232E-02
   7106.00  1.2420284E-02
   7106.33  1.3184630E-02
   7106.67  1.4050177E-02
   7107.00  1.5037082E-02
   7107.33  1.6195298E-02
   7107.67  1.7548092E-02
   7108.00  1.9145016E-02
   7108.33  2.1108506E-02
   7108.67  2.3520204E-02
   7109.00  2.6538170E-02
   7109.33  3.0569599E-02
   7109.67  3.6017363E-02
   7110.00  4.3665272E-02
   7110.33  5.5741100E-02
   7110.67  7.4883675E-02
   7111.00  1.0342412E-01
   7111.33  1.3623658E-01
   7111.67  1.6835190E-01
   7112.00  2.0583669E-01
   7112.33  2.5215680E-01
   7112.67  3.0617666E-01
   7113.00  3.3474360E-01
   7113.33  3.5131933E-01
   7113.67  3.8474234E-01
   7114.00  3.7453180E-01
   7114.33  2.9784807E-01
   7114.67  2.2961845E-01
   7115.00  1.9519466E-01
   7115.33  1.9824003E-01
   7115.67  2.3401935E-01
   7116.00  3.0452978E-01
   7116.33  3.8969556E-01
   7116.67  4.2187300E-01
   7117.00  3.7964869E-01
   7117.33  3.0780015E-01
   7117.67  2.4763434E-01
   7118.00  2.0543889E-01
   7118.33  1.7899497E-01
   7118.67  1.6098413E-01
   7119.00  1.4806240E-01
   7119.33  1.3941541E-01
   7119.67  1.3468459E-01
   7120.00  1.3300224E-01
   7120.33  1.3262819E-01
   7120.67  1.3158912E-01
   7121.00  1.2917650E-01
   7121.33  1.2594119E-01
   7121.67  1.2330335E-01
   7122.00  1.2203283E-01
   7122.33  1.2264652E-01
   7122.67  1.2495884E-01
   7123.00  1.2900607E-01
   7123.33  1.3517572E-01
   7123.67  1.4338539E-01
   7124.00  1.5384150E-01
   7124.33  1.6747537E-01
   7124.67  1.8490666E-01
   7125.00  2.0711206E-01
   7125.33  2.3562467E-01
   7125.67  2.6953573E-01
   7126.00  3.0723712E-01
   7126.33  3.4445868E-01
   7126.67  3.7512602E-01
   7127.00  3.9493222E-01
   7127.33  4.0204627E-01
   7127.67  4.0252574E-01
   7128.00  4.0188879E-01
   7128.33  4.0580083E-01
   7128.67  4.1666741E-01
   7129.00  4.3559883E-01
   7129.33  4.6405366E-01
   7129.67  5.0083596E-01
   7130.00  5.4545953E-01
   7130.33  5.9755698E-01
   7130.67  6.5421474E-01
   7131.00  7.1268555E-01
   7131.33  7.6818598E-01
   7131.67  8.1616540E-01
   7132.00  8.5370299E-01
   7132.33  8.7980085E-01
   7132.67  9.0006455E-01
   7133.00  9.1931577E-01
   7133.33  9.4145077E-01
   7133.67  9.6587593E-01
   7134.00  9.8963427E-01
   7134.33  1.0072746E+00
   7134.67  1.0155102E+00
   7135.00  1.0127555E+00
   7135.33  9.9802721E-01
   7135.67  9.7445825E-01
   7136.00  9.4389809E-01
   7136.33  9.0752375E-01
   7136.67  8.6729705E-01
   7137.00  8.2408245E-01
   7137.33  7.7861810E-01
   7137.67  7.3241726E-01
   7138.00  6.8689390E-01
   7138.33  6.4426820E-01
   7138.67  6.0599482E-01
   7139.00  5.7313212E-01
   7139.33  5.4684053E-01
   7139.67  5.2602910E-01
   7140.00  5.0999490E-01
   7140.33  4.9826307E-01
   7140.67  4.8949291E-01
   7141.00  4.8310213E-01
   7141.33  4.7883664E-01
   7141.67  4.7612444E-01
   7142.00  4.7474077E-01
   7142.33  4.7458781E-01
   7142.67  4.7532153E-01
   7143.00  4.7678157E-01
   7143.33  4.7886778E-01
   7143.67  4.8136793E-01
   7144.00  4.8419008E-01
   7144.33  4.8729000E-01
   7144.67  4.9058025E-01
   7145.00  4.9400712E-01
   7145.33  4.9745960E-01
   7145.67  5.0073863E-01
   7146.00  5.0362636E-01
   7146.33  5.0580916E-01
   7146.67  5.0725572E-01
   7147.00  5.0802999E-01
   7147.33  5.0832257E-01
   7147.67  5.0851775E-01
   7148.00  5.0887804E-01
   7148.33  5.0967093E-01
   7148.67  5.1096341E-01
   7149.00  5.1276847E-01
   7149.33  5.1509811E-01
   7149.67  5.1784768E-01
   7150.00  5.2100673E-01
   7150.33  5.2465799E-01
   7150.67  5.2880491E-01
   7151.00  5.3350265E-01
   7151.33  5.3886998E-01
   7151.67  5.4482947E-01
   7152.00  5.5132794E-01
   7152.33  5.5830200E-01
   7152.67  5.6553479E-01
   7153.00  5.7286034E-01
   7153.33  5.8006352E-01
   7153.67  5.8696712E-01
   7154.00  5.9342622E-01
   7154.33  5.9922605E-01
   7154.67  6.0432647E-01
   7155.00  6.0864947E-01
   7155.33  6.1201564E-01
   7155.67  6.1447431E-01
   7156.00  6.1599109E-01
   7156.33  6.1642788E-01
   7156.67  6.1591598E-01
   7157.00  6.1449233E-01
   7157.33  6.1212933E-01
   7157.67  6.0904143E-01
   7158.00  6.0534302E-01
   7158.33  6.0111997E-01
   7158.67  5.9657237E-01
   7159.00  5.9181030E-01
   7159.33  5.8692666E-01
   7159.67  5.8201326E-01
   7160.00  5.7711398E-01
   7160.33  5.7225848E-01
   7160.67  5.6744429E-01
   7161.00  5.6266447E-01
   7161.33  5.5790558E-01
   7161.67  5.5314408E-01
   7162.00  5.4835997E-01
   7162.33  5.4352522E-01
   7162.67  5.3863142E-01
   7163.00  5.3367473E-01
   7163.33  5.2865643E-01
   7163.67  5.2360629E-01
   7164.00  5.1855491E-01
   7164.33  5.1355263E-01
   7164.67  5.0864525E-01
   7165.00  5.0387876E-01
   7165.33  4.9932832E-01
   7165.67  4.9501532E-01
   7166.00  4.9097162E-01
   7166.33  4.8725907E-01
   7166.67  4.8385125E-01
   7167.00  4.8074475E-01
   7167.33  4.7795541E-01
   7167.67  4.7541327E-01
   7168.00  4.7307932E-01
   7168.33  4.7092102E-01
   7168.67  4.6886470E-01
   7169.00  4.6686617E-01
   7169.33  4.6488299E-01
   7169.67  4.6288153E-01
   7170.00  4.6084634E-01
   7170.33  4.5877115E-01
   7170.67  4.5667689E-01
   7171.00  4.5459234E-01
   7171.33  4.5258501E-01
   7171.67  4.5075169E-01
   7172.00  4.4922635E-01
