    FDMNES
    energy     <xanes>
   7097.00  5.2107256E-03
   7097.33  5.3338550E-03
   7097.67  5.4626271E-03
   7098.00  5.5974265E-03
   7098.33  5.7395633E-03
   7098.67  5.8887733E-03
   7099.00  6.0455802E-03
   7099.33  6.2116976E-03
   7099.67  6.3868542E-03
   7100.00  6.5717816E-03
   7100.33  6.7687781E-03
   7100.67  6.9775902E-03
   7101.00  7.1992704E-03
   7101.33  7.4369944E-03
   7101.67  7.6905811E-03
   7102.00  7.9615993E-03
   7102.33  8.2545949E-03
   7102.67  8.5695801E-03
   7103.00  8.9089945E-03
   7103.33  9.2796308E-03
   7103.67  9.6819674E-03
   7104.00  1.0120000E-02
   7104.33  1.0604434E-02
   7104.67  1.1136858E-02
   7105.00  1.1724256E-02
   7105.33  1.2384693E-02
   7105.67  1.3122505E-02
   7106.00  1.3950978E-02
   7106.33  1.4903472E-02
   7106.67  1.5991723E-02
   7107.00  1.7244099E-02
   7107.33  1.8730482E-02
   7107.67  2.0485484E-02
   7108.00  2.2580763E-02
   7108.33  2.5193120E-02
   7108.67  2.8445890E-02
   7109.00  3.2575147E-02
   7109.33  3.8191433E-02
   7109.67  4.5918772E-02
   7110.00  5.6968831E-02
   7110.33  7.4765770E-02
   7110.67  1.0307878E-01
   7111.00  1.4473535E-01
   7111.33  1.9732183E-01
   7111.67  2.5105317E-01
   7112.00  2.9891231E-01
   7112.33  3.3483380E-01
   7112.67  3.6486862E-01
   7113.00  4.0627452E-01
   7113.33  4.5706092E-01
   7113.67  4.8498729E-01
   7114.00  4.7973465E-01
   7114.33  4.3607101E-01
   7114.67  3.7472076E-01
   7115.00  3.1726035E-01
   7115.33  2.7571380E-01
   7115.67  2.4736343E-01
   7116.00  2.2904863E-01
   7116.33  2.1788707E-01
   7116.67  2.0983490E-01
   7117.00  2.0150412E-01
   7117.33  1.8810532E-01
   7117.67  1.7062731E-01
   7118.00  1.5323646E-01
   7118.33  1.3990760E-01
   7118.67  1.3084066E-01
   7119.00  1.2560540E-01
   7119.33  1.2370682E-01
   7119.67  1.2355288E-01
   7120.00  1.2405757E-01
   7120.33  1.2441926E-01
   7120.67  1.2440914E-01
   7121.00  1.2393380E-01
   7121.33  1.2285210E-01
   7121.67  1.2160960E-01
   7122.00  1.2104236E-01
   7122.33  1.2237660E-01
   7122.67  1.2588383E-01
   7123.00  1.3155199E-01
   7123.33  1.3944474E-01
   7123.67  1.4920478E-01
   7124.00  1.6087992E-01
   7124.33  1.7493909E-01
   7124.67  1.9133705E-01
   7125.00  2.1008397E-01
   7125.33  2.3101350E-01
   7125.67  2.5315343E-01
   7126.00  2.7601498E-01
   7126.33  2.9954872E-01
   7126.67  3.2362724E-01
   7127.00  3.4774925E-01
   7127.33  3.7080509E-01
   7127.67  3.9244373E-01
   7128.00  4.1306440E-01
   7128.33  4.3376074E-01
   7128.67  4.5578107E-01
   7129.00  4.8008229E-01
   7129.33  5.0799455E-01
   7129.67  5.3985342E-01
   7130.00  5.7590141E-01
   7130.33  6.1617168E-01
   7130.67  6.5898595E-01
   7131.00  7.0291951E-01
   7131.33  7.4631877E-01
   7131.67  7.8814543E-01
   7132.00  8.2788495E-01
   7132.33  8.6489985E-01
   7132.67  8.9928318E-01
   7133.00  9.3090633E-01
   7133.33  9.5906367E-01
   7133.67  9.8313220E-01
   7134.00  1.0013807E+00
   7134.33  1.0099931E+00
   7134.67  1.0076668E+00
   7135.00  9.9371863E-01
   7135.33  9.6807564E-01
   7135.67  9.3475085E-01
   7136.00  8.9637984E-01
   7136.33  8.5534624E-01
   7136.67  8.1396791E-01
   7137.00  7.7351592E-01
   7137.33  7.3535171E-01
   7137.67  7.0006270E-01
   7138.00  6.6821588E-01
   7138.33  6.4078823E-01
   7138.67  6.1756007E-01
   7139.00  5.9856825E-01
   7139.33  5.8412610E-01
   7139.67  5.7332593E-01
   7140.00  5.6571751E-01
   7140.33  5.6106386E-01
   7140.67  5.5849828E-01
   7141.00  5.5760978E-01
   7141.33  5.5813450E-01
   7141.67  5.5953875E-01
   7142.00  5.6151757E-01
   7142.33  5.6374895E-01
   7142.67  5.6585544E-01
   7143.00  5.6754243E-01
   7143.33  5.6839490E-01
   7143.67  5.6822860E-01
   7144.00  5.6686182E-01
   7144.33  5.6400221E-01
   7144.67  5.5979291E-01
   7145.00  5.5429812E-01
   7145.33  5.4753902E-01
   7145.67  5.3989028E-01
   7146.00  5.3158992E-01
   7146.33  5.2288838E-01
   7146.67  5.1412221E-01
   7147.00  5.0552147E-01
   7147.33  4.9733946E-01
   7147.67  4.8965380E-01
   7148.00  4.8253207E-01
   7148.33  4.7610487E-01
   7148.67  4.7032271E-01
   7149.00  4.6519095E-01
   7149.33  4.6077965E-01
   7149.67  4.5698719E-01
   7150.00  4.5379147E-01
   7150.33  4.5124239E-01
   7150.67  4.4925745E-01
   7151.00  4.4784019E-01
   7151.33  4.4708399E-01
   7151.67  4.4695006E-01
   7152.00  4.4747558E-01
   7152.33  4.4879243E-01
   7152.67  4.5084750E-01
   7153.00  4.5365539E-01
   7153.33  4.5730069E-01
   7153.67  4.6164932E-01
   7154.00  4.6663860E-01
   7154.33  4.7223490E-01
   7154.67  4.7824967E-01
   7155.00  4.8456941E-01
   7155.33  4.9107435E-01
   7155.67  4.9760232E-01
   7156.00  5.0403909E-01
   7156.33  5.1023849E-01
   7156.67  5.1612279E-01
   7157.00  5.2161588E-01
   7157.33  5.2658738E-01
   7157.67  5.3104041E-01
   7158.00  5.3494185E-01
   7158.33  5.3819780E-01
   7158.67  5.4087447E-01
   7159.00  5.4297923E-01
   7159.33  5.4446455E-01
   7159.67  5.4543207E-01
   7160.00  5.4591689E-01
   7160.33  5.4591079E-01
   7160.67  5.4551772E-01
   7161.00  5.4478115E-01
   7161.33  5.4371502E-01
   7161.67  5.4240481E-01
   7162.00  5.4089051E-01
   7162.33  5.3919655E-01
   7162.67  5.3738287E-01
   7163.00  5.3547371E-01
   7163.33  5.3348078E-01
   7163.67  5.3144035E-01
   7164.00  5.2937613E-01
   7164.33  5.2730981E-01
   7164.67  5.2525756E-01
   7165.00  5.2323031E-01
   7165.33  5.2124147E-01
   7165.67  5.1929273E-01
   7166.00  5.1738773E-01
   7166.33  5.1553434E-01
   7166.67  5.1372692E-01
   7167.00  5.1196481E-01
   7167.33  5.1025134E-01
   7167.67  5.0857731E-01
   7168.00  5.0693859E-01
   7168.33  5.0533383E-01
   7168.67  5.0375405E-01
   7169.00  5.0219500E-01
   7169.33  5.0065697E-01
   7169.67  4.9913770E-01
   7170.00  4.9763544E-01
   7170.33  4.9615220E-01
   7170.67  4.9469162E-01
   7171.00  4.9326634E-01
   7171.33  4.9191531E-01
   7171.67  4.9069240E-01
   7172.00  4.8968229E-01
