    FDMNES
    energy     <xanes>
   7097.00  5.3125803E-03
   7097.33  5.4489087E-03
   7097.67  5.5919967E-03
   7098.00  5.7423374E-03
   7098.33  5.9015552E-03
   7098.67  6.0693790E-03
   7099.00  6.2464919E-03
   7099.33  6.4350583E-03
   7099.67  6.6348145E-03
   7100.00  6.8467333E-03
   7100.33  7.0737779E-03
   7100.67  7.3157345E-03
   7101.00  7.5740334E-03
   7101.33  7.8528627E-03
   7101.67  8.1521516E-03
   7102.00  8.4740828E-03
   7102.33  8.8248065E-03
   7102.67  9.2045984E-03
   7103.00  9.6169429E-03
   7103.33  1.0071300E-02
   7103.67  1.0568753E-02
   7104.00  1.1115181E-02
   7104.33  1.1725995E-02
   7104.67  1.2404194E-02
   7105.00  1.3160412E-02
   7105.33  1.4021662E-02
   7105.67  1.4995747E-02
   7106.00  1.6103721E-02
   7106.33  1.7397762E-02
   7106.67  1.8898939E-02
   7107.00  2.0654428E-02
   7107.33  2.2779637E-02
   7107.67  2.5338333E-02
   7108.00  2.8457080E-02
   7108.33  3.2448769E-02
   7108.67  3.7552738E-02
   7109.00  4.4220766E-02
   7109.33  5.3639319E-02
   7109.67  6.7124084E-02
   7110.00  8.7248800E-02
   7110.33  1.2135656E-01
   7110.67  1.7678896E-01
   7111.00  2.5314636E-01
   7111.33  3.2238224E-01
   7111.67  3.7905091E-01
   7112.00  4.5447832E-01
   7112.33  5.6997926E-01
   7112.67  6.7283842E-01
   7113.00  6.9075780E-01
   7113.33  5.9127980E-01
   7113.67  4.5971052E-01
   7114.00  3.4725476E-01
   7114.33  2.6960994E-01
   7114.67  2.1581487E-01
   7115.00  1.7898984E-01
   7115.33  1.5558043E-01
   7115.67  1.4139284E-01
   7116.00  1.3396160E-01
   7116.33  1.2839488E-01
   7116.67  1.1813535E-01
   7117.00  1.0380825E-01
   7117.33  9.1950618E-02
   7117.67  8.4779643E-02
   7118.00  8.2032819E-02
   7118.33  8.3608171E-02
   7118.67  8.8204188E-02
   7119.00  9.4439044E-02
   7119.33  1.0053335E-01
   7119.67  1.0563177E-01
   7120.00  1.0912900E-01
   7120.33  1.1104208E-01
   7120.67  1.1278211E-01
   7121.00  1.1511492E-01
   7121.33  1.1916759E-01
   7121.67  1.2554127E-01
   7122.00  1.3458210E-01
   7122.33  1.4737542E-01
   7122.67  1.6433401E-01
   7123.00  1.8564869E-01
   7123.33  2.1077669E-01
   7123.67  2.3695634E-01
   7124.00  2.6169769E-01
   7124.33  2.8282404E-01
   7124.67  3.0130530E-01
   7125.00  3.1875138E-01
   7125.33  3.3639451E-01
   7125.67  3.5389181E-01
   7126.00  3.7048493E-01
   7126.33  3.8577920E-01
   7126.67  4.0016812E-01
   7127.00  4.1374647E-01
   7127.33  4.2650955E-01
   7127.67  4.3885706E-01
   7128.00  4.5092355E-01
   7128.33  4.6225930E-01
   7128.67  4.7201497E-01
   7129.00  4.7923355E-01
   7129.33  4.8308225E-01
   7129.67  4.8494240E-01
   7130.00  4.8667634E-01
   7130.33  4.9088135E-01
   7130.67  4.9890641E-01
   7131.00  5.1135620E-01
   7131.33  5.2871267E-01
   7131.67  5.4986407E-01
   7132.00  5.7402467E-01
   7132.33  6.0005756E-01
   7132.67  6.2599024E-01
   7133.00  6.5016358E-01
   7133.33  6.7031855E-01
   7133.67  6.8545599E-01
   7134.00  6.9478892E-01
   7134.33  6.9740440E-01
   7134.67  6.9474481E-01
   7135.00  6.8783870E-01
   7135.33  6.7768646E-01
   7135.67  6.6634449E-01
   7136.00  6.5576127E-01
   7136.33  6.4886579E-01
   7136.67  6.4717127E-01
   7137.00  6.5128427E-01
   7137.33  6.6122429E-01
   7137.67  6.7475601E-01
   7138.00  6.9032525E-01
   7138.33  7.0637508E-01
   7138.67  7.2134995E-01
   7139.00  7.3382008E-01
   7139.33  7.4155399E-01
   7139.67  7.4403151E-01
   7140.00  7.4144501E-01
   7140.33  7.3487101E-01
   7140.67  7.2695577E-01
   7141.00  7.1943848E-01
   7141.33  7.1386622E-01
   7141.67  7.1051409E-01
   7142.00  7.0927834E-01
   7142.33  7.0991285E-01
   7142.67  7.1165449E-01
   7143.00  7.1408011E-01
   7143.33  7.1686174E-01
   7143.67  7.1972267E-01
   7144.00  7.2253235E-01
   7144.33  7.2514470E-01
   7144.67  7.2743489E-01
   7145.00  7.2924574E-01
   7145.33  7.3026789E-01
   7145.67  7.3033290E-01
   7146.00  7.2921374E-01
   7146.33  7.2649899E-01
   7146.67  7.2220734E-01
   7147.00  7.1628849E-01
   7147.33  7.0859884E-01
   7147.67  6.9951099E-01
   7148.00  6.8925938E-01
   7148.33  6.7804547E-01
   7148.67  6.6628281E-01
   7149.00  6.5421958E-01
   7149.33  6.4210812E-01
   7149.67  6.3017269E-01
   7150.00  6.1856634E-01
   7150.33  6.0747944E-01
   7150.67  5.9694819E-01
   7151.00  5.8703333E-01
   7151.33  5.7786480E-01
   7151.67  5.6938180E-01
   7152.00  5.6159508E-01
   7152.33  5.5460152E-01
   7152.67  5.4832156E-01
   7153.00  5.4276631E-01
   7153.33  5.3804863E-01
   7153.67  5.3410182E-01
   7154.00  5.3095078E-01
   7154.33  5.2872357E-01
   7154.67  5.2732963E-01
   7155.00  5.2675875E-01
   7155.33  5.2705738E-01
   7155.67  5.2802212E-01
   7156.00  5.2950580E-01
   7156.33  5.3130212E-01
   7156.67  5.3307090E-01
   7157.00  5.3452164E-01
   7157.33  5.3524623E-01
   7157.67  5.3506256E-01
   7158.00  5.3383131E-01
   7158.33  5.3137236E-01
   7158.67  5.2789679E-01
   7159.00  5.2353907E-01
   7159.33  5.1841482E-01
   7159.67  5.1282203E-01
   7160.00  5.0692595E-01
   7160.33  5.0085824E-01
   7160.67  4.9474023E-01
   7161.00  4.8862787E-01
   7161.33  4.8256592E-01
   7161.67  4.7657144E-01
   7162.00  4.7065449E-01
   7162.33  4.6482599E-01
   7162.67  4.5908755E-01
   7163.00  4.5346350E-01
   7163.33  4.4800800E-01
   7163.67  4.4274097E-01
   7164.00  4.3769666E-01
   7164.33  4.3294762E-01
   7164.67  4.2849886E-01
   7165.00  4.2437929E-01
   7165.33  4.2066017E-01
   7165.67  4.1731299E-01
   7166.00  4.1433972E-01
   7166.33  4.1177199E-01
   7166.67  4.0953445E-01
   7167.00  4.0758858E-01
   7167.33  4.0590818E-01
   7167.67  4.0440811E-01
   7168.00  4.0304725E-01
   7168.33  4.0178704E-01
   7168.67  4.0057095E-01
   7169.00  3.9937419E-01
   7169.33  3.9818496E-01
   7169.67  3.9700419E-01
   7170.00  3.9584273E-01
   7170.33  3.9472550E-01
   7170.67  3.9367207E-01
   7171.00  3.9270472E-01
   7171.33  3.9186211E-01
   7171.67  3.9115201E-01
   7172.00  3.9058730E-01
