    FDMNES
    energy     <xanes>
   7097.00  4.3259761E-03
   7097.33  4.4133107E-03
   7097.67  4.5040007E-03
   7098.00  4.5982459E-03
   7098.33  4.6967779E-03
   7098.67  4.7994029E-03
   7099.00  4.9063872E-03
   7099.33  5.0186621E-03
   7099.67  5.1360232E-03
   7100.00  5.2588356E-03
   7100.33  5.3883159E-03
   7100.67  5.5242598E-03
   7101.00  5.6671845E-03
   7101.33  5.8187292E-03
   7101.67  5.9787159E-03
   7102.00  6.1479058E-03
   7102.33  6.3285943E-03
   7102.67  6.5206879E-03
   7103.00  6.7253615E-03
   7103.33  6.9459866E-03
   7103.67  7.1826893E-03
   7104.00  7.4373922E-03
   7104.33  7.7153546E-03
   7104.67  8.0172510E-03
   7105.00  8.3464669E-03
   7105.33  8.7118696E-03
   7105.67  9.1155427E-03
   7106.00  9.5640438E-03
   7106.33  1.0073947E-02
   7106.67  1.0651274E-02
   7107.00  1.1310472E-02
   7107.33  1.2087268E-02
   7107.67  1.3000419E-02
   7108.00  1.4088208E-02
   7108.33  1.5445673E-02
   7108.67  1.7143849E-02
   7109.00  1.9317928E-02
   7109.33  2.2322671E-02
   7109.67  2.6546388E-02
   7110.00  3.2748230E-02
   7110.33  4.3089998E-02
   7110.67  5.9760331E-02
   7111.00  8.2935747E-02
   7111.33  1.0662828E-01
   7111.67  1.3223567E-01
   7112.00  1.6191983E-01
   7112.33  1.7775869E-01
   7112.67  1.7799741E-01
   7113.00  1.7224414E-01
   7113.33  1.6137906E-01
   7113.67  1.4798185E-01
   7114.00  1.3001679E-01
   7114.33  1.0340913E-01
   7114.67  7.9471264E-02
   7115.00  6.3942174E-02
   7115.33  5.6134082E-02
   7115.67  5.2739530E-02
   7116.00  5.2611275E-02
   7116.33  5.5523143E-02
   7116.67  6.0959193E-02
   7117.00  6.8857421E-02
   7117.33  7.9549244E-02
   7117.67  9.2887086E-02
   7118.00  1.0891238E-01
   7118.33  1.2695094E-01
   7118.67  1.4371543E-01
   7119.00  1.5538236E-01
   7119.33  1.5913262E-01
   7119.67  1.5859713E-01
   7120.00  1.5755757E-01
   7120.33  1.5931707E-01
   7120.67  1.6470136E-01
   7121.00  1.7387539E-01
   7121.33  1.8711909E-01
   7121.67  2.0347255E-01
   7122.00  2.2218181E-01
   7122.33  2.4277499E-01
   7122.67  2.6546187E-01
   7123.00  2.9117224E-01
   7123.33  3.2008483E-01
   7123.67  3.4879133E-01
   7124.00  3.7341124E-01
   7124.33  3.9209727E-01
   7124.67  4.1053113E-01
   7125.00  4.3445437E-01
   7125.33  4.6655228E-01
   7125.67  4.9994041E-01
   7126.00  5.2622585E-01
   7126.33  5.3846082E-01
   7126.67  5.4064895E-01
   7127.00  5.3781144E-01
   7127.33  5.3565614E-01
   7127.67  5.3828244E-01
   7128.00  5.4786218E-01
   7128.33  5.6652432E-01
   7128.67  5.9298115E-01
   7129.00  6.2552418E-01
   7129.33  6.6116274E-01
   7129.67  6.9686895E-01
   7130.00  7.3180830E-01
   7130.33  7.6531101E-01
   7130.67  7.9647334E-01
   7131.00  8.2428379E-01
   7131.33  8.4694588E-01
   7131.67  8.6275001E-01
   7132.00  8.6868003E-01
   7132.33  8.6016125E-01
   7132.67  8.3905418E-01
   7133.00  8.0896703E-01
   7133.33  7.7622001E-01
   7133.67  7.4740132E-01
   7134.00  7.2533466E-01
   7134.33  7.0938244E-01
   7134.67  6.9459791E-01
   7135.00  6.7872860E-01
   7135.33  6.6230674E-01
   7135.67  6.4716832E-01
   7136.00  6.3432963E-01
   7136.33  6.2455151E-01
   7136.67  6.1744505E-01
   7137.00  6.1280938E-01
   7137.33  6.1060365E-01
   7137.67  6.1019271E-01
   7138.00  6.1122532E-01
   7138.33  6.1338958E-01
   7138.67  6.1612867E-01
   7139.00  6.1911164E-01
   7139.33  6.2201203E-01
   7139.67  6.2458816E-01
   7140.00  6.2665765E-01
   7140.33  6.2794264E-01
   7140.67  6.2837733E-01
   7141.00  6.2789473E-01
   7141.33  6.2641879E-01
   7141.67  6.2421073E-01
   7142.00  6.2145416E-01
   7142.33  6.1832499E-01
   7142.67  6.1504320E-01
   7143.00  6.1171570E-01
   7143.33  6.0841648E-01
   7143.67  6.0516202E-01
   7144.00  6.0193080E-01
   7144.33  5.9864562E-01
   7144.67  5.9519517E-01
   7145.00  5.9145454E-01
   7145.33  5.8722510E-01
   7145.67  5.8245596E-01
   7146.00  5.7711170E-01
   7146.33  5.7115696E-01
   7146.67  5.6476339E-01
   7147.00  5.5805989E-01
   7147.33  5.5120115E-01
   7147.67  5.4438017E-01
   7148.00  5.3774016E-01
   7148.33  5.3146895E-01
   7148.67  5.2563348E-01
   7149.00  5.2028041E-01
   7149.33  5.1545367E-01
   7149.67  5.1100401E-01
   7150.00  5.0680190E-01
   7150.33  5.0265243E-01
   7150.67  4.9830902E-01
   7151.00  4.9355148E-01
   7151.33  4.8806310E-01
   7151.67  4.8174307E-01
   7152.00  4.7449565E-01
   7152.33  4.6617889E-01
   7152.67  4.5697609E-01
   7153.00  4.4699721E-01
   7153.33  4.3633874E-01
   7153.67  4.2527615E-01
   7154.00  4.1398888E-01
   7154.33  4.0267580E-01
   7154.67  3.9152277E-01
   7155.00  3.8066967E-01
   7155.33  3.7030644E-01
   7155.67  3.6047810E-01
   7156.00  3.5124542E-01
   7156.33  3.4273331E-01
   7156.67  3.3488185E-01
   7157.00  3.2769226E-01
   7157.33  3.2123275E-01
   7157.67  3.1539974E-01
   7158.00  3.1017032E-01
   7158.33  3.0559176E-01
   7158.67  3.0157980E-01
   7159.00  2.9813648E-01
   7159.33  2.9534863E-01
   7159.67  2.9316779E-01
   7160.00  2.9162006E-01
   7160.33  2.9082334E-01
   7160.67  2.9072839E-01
   7161.00  2.9135945E-01
   7161.33  2.9282246E-01
   7161.67  2.9501781E-01
   7162.00  2.9791747E-01
   7162.33  3.0155085E-01
   7162.67  3.0576419E-01
   7163.00  3.1047924E-01
   7163.33  3.1564177E-01
   7163.67  3.2109223E-01
   7164.00  3.2673805E-01
   7164.33  3.3249262E-01
   7164.67  3.3825998E-01
   7165.00  3.4398220E-01
   7165.33  3.4959751E-01
   7165.67  3.5508566E-01
   7166.00  3.6043177E-01
   7166.33  3.6561384E-01
   7166.67  3.7065892E-01
   7167.00  3.7558271E-01
   7167.33  3.8039916E-01
   7167.67  3.8515074E-01
   7168.00  3.8986389E-01
   7168.33  3.9456719E-01
   7168.67  3.9928827E-01
   7169.00  4.0404496E-01
   7169.33  4.0885630E-01
   7169.67  4.1371900E-01
   7170.00  4.1862601E-01
   7170.33  4.2355915E-01
   7170.67  4.2847519E-01
   7171.00  4.3331505E-01
   7171.33  4.3793216E-01
   7171.67  4.4212306E-01
   7172.00  4.4558512E-01
