    FDMNES
    energy     <xanes>
   7097.00  4.0966630E-03
   7097.33  4.1760376E-03
   7097.67  4.2581837E-03
   7098.00  4.3432445E-03
   7098.33  4.4317881E-03
   7098.67  4.5236250E-03
   7099.00  4.6189387E-03
   7099.33  4.7184263E-03
   7099.67  4.8218802E-03
   7100.00  4.9295409E-03
   7100.33  5.0422804E-03
   7100.67  5.1598757E-03
   7101.00  5.2826497E-03
   7101.33  5.4117201E-03
   7101.67  5.5468560E-03
   7102.00  5.6885065E-03
   7102.33  5.8381479E-03
   7102.67  5.9955624E-03
   7103.00  6.1614015E-03
   7103.33  6.3376949E-03
   7103.67  6.5242892E-03
   7104.00  6.7221839E-03
   7104.33  6.9343242E-03
   7104.67  7.1607505E-03
   7105.00  7.4031166E-03
   7105.33  7.6660276E-03
   7105.67  7.9500704E-03
   7106.00  8.2582780E-03
   7106.33  8.5986716E-03
   7106.67  8.9734539E-03
   7107.00  9.3890652E-03
   7107.33  9.8619027E-03
   7107.67  1.0399675E-02
   7108.00  1.1019336E-02
   7108.33  1.1763778E-02
   7108.67  1.2664793E-02
   7109.00  1.3784566E-02
   7109.33  1.5289538E-02
   7109.67  1.7370104E-02
   7110.00  2.0404583E-02
   7110.33  2.5479489E-02
   7110.67  3.3597542E-02
   7111.00  4.4234094E-02
   7111.33  5.2969208E-02
   7111.67  5.8301541E-02
   7112.00  6.0137003E-02
   7112.33  5.9316773E-02
   7112.67  5.7844031E-02
   7113.00  5.6380205E-02
   7113.33  5.4389352E-02
   7113.67  5.1937893E-02
   7114.00  4.9933754E-02
   7114.33  4.9456974E-02
   7114.67  5.0746998E-02
   7115.00  5.4012148E-02
   7115.33  5.9870115E-02
   7115.67  6.8565945E-02
   7116.00  8.0713291E-02
   7116.33  9.7556573E-02
   7116.67  1.1880374E-01
   7117.00  1.4370429E-01
   7117.33  1.7037818E-01
   7117.67  1.9609219E-01
   7118.00  2.1863520E-01
   7118.33  2.3583888E-01
   7118.67  2.5011917E-01
   7119.00  2.6495407E-01
   7119.33  2.8352046E-01
   7119.67  3.0543229E-01
   7120.00  3.2946376E-01
   7120.33  3.5467160E-01
   7120.67  3.8057038E-01
   7121.00  4.0641495E-01
   7121.33  4.2957685E-01
   7121.67  4.4751459E-01
   7122.00  4.5935645E-01
   7122.33  4.6674872E-01
   7122.67  4.7449691E-01
   7123.00  4.8590428E-01
   7123.33  5.0258726E-01
   7123.67  5.2118948E-01
   7124.00  5.3727221E-01
   7124.33  5.4508870E-01
   7124.67  5.4362408E-01
   7125.00  5.3343932E-01
   7125.33  5.1479468E-01
   7125.67  4.9004371E-01
   7126.00  4.6149805E-01
   7126.33  4.3355781E-01
   7126.67  4.1001139E-01
   7127.00  3.9214349E-01
   7127.33  3.8051523E-01
   7127.67  3.7386240E-01
   7128.00  3.7170643E-01
   7128.33  3.7385218E-01
   7128.67  3.7891761E-01
   7129.00  3.8597016E-01
   7129.33  3.9394369E-01
   7129.67  4.0160311E-01
   7130.00  4.0814964E-01
   7130.33  4.1295197E-01
   7130.67  4.1644514E-01
   7131.00  4.1916572E-01
   7131.33  4.2168131E-01
   7131.67  4.2441156E-01
   7132.00  4.2762133E-01
   7132.33  4.3173664E-01
   7132.67  4.3695111E-01
   7133.00  4.4337322E-01
   7133.33  4.5101173E-01
   7133.67  4.5946851E-01
   7134.00  4.6866257E-01
   7134.33  4.7897810E-01
   7134.67  4.9070120E-01
   7135.00  5.0398596E-01
   7135.33  5.1879264E-01
   7135.67  5.3442934E-01
   7136.00  5.5033317E-01
   7136.33  5.6579371E-01
   7136.67  5.8027404E-01
   7137.00  5.9337899E-01
   7137.33  6.0460131E-01
   7137.67  6.1400921E-01
   7138.00  6.2155479E-01
   7138.33  6.2697341E-01
   7138.67  6.3049020E-01
   7139.00  6.3212749E-01
   7139.33  6.3175450E-01
   7139.67  6.2977558E-01
   7140.00  6.2641795E-01
   7140.33  6.2188884E-01
   7140.67  6.1671100E-01
   7141.00  6.1124008E-01
   7141.33  6.0589036E-01
   7141.67  6.0099855E-01
   7142.00  5.9680045E-01
   7142.33  5.9358249E-01
   7142.67  5.9129081E-01
   7143.00  5.8987019E-01
   7143.33  5.8926098E-01
   7143.67  5.8918266E-01
   7144.00  5.8947305E-01
   7144.33  5.9000114E-01
   7144.67  5.9063190E-01
   7145.00  5.9130897E-01
   7145.33  5.9199663E-01
   7145.67  5.9267166E-01
   7146.00  5.9331837E-01
   7146.33  5.9391241E-01
   7146.67  5.9443947E-01
   7147.00  5.9487965E-01
   7147.33  5.9518660E-01
   7147.67  5.9534107E-01
   7148.00  5.9533122E-01
   7148.33  5.9515630E-01
   7148.67  5.9489343E-01
   7149.00  5.9463040E-01
   7149.33  5.9452559E-01
   7149.67  5.9472262E-01
   7150.00  5.9535149E-01
   7150.33  5.9658701E-01
   7150.67  5.9839361E-01
   7151.00  6.0074560E-01
   7151.33  6.0363079E-01
   7151.67  6.0689136E-01
   7152.00  6.1043106E-01
   7152.33  6.1414999E-01
   7152.67  6.1790479E-01
   7153.00  6.2158668E-01
   7153.33  6.2504582E-01
   7153.67  6.2818834E-01
   7154.00  6.3091435E-01
   7154.33  6.3303735E-01
   7154.67  6.3450200E-01
   7155.00  6.3520450E-01
   7155.33  6.3492341E-01
   7155.67  6.3367597E-01
   7156.00  6.3140804E-01
   7156.33  6.2796326E-01
   7156.67  6.2349242E-01
   7157.00  6.1804937E-01
   7157.33  6.1162468E-01
   7157.67  6.0445683E-01
   7158.00  5.9667103E-01
   7158.33  5.8836002E-01
   7158.67  5.7973042E-01
   7159.00  5.7090162E-01
   7159.33  5.6198946E-01
   7159.67  5.5311265E-01
   7160.00  5.4435549E-01
   7160.33  5.3582986E-01
   7160.67  5.2757991E-01
   7161.00  5.1964217E-01
   7161.33  5.1206996E-01
   7161.67  5.0481408E-01
   7162.00  4.9785572E-01
   7162.33  4.9119536E-01
   7162.67  4.8476069E-01
   7163.00  4.7851828E-01
   7163.33  4.7245308E-01
   7163.67  4.6651704E-01
   7164.00  4.6069205E-01
   7164.33  4.5497688E-01
   7164.67  4.4935385E-01
   7165.00  4.4382282E-01
   7165.33  4.3839817E-01
   7165.67  4.3307401E-01
   7166.00  4.2785864E-01
   7166.33  4.2278004E-01
   7166.67  4.1783873E-01
   7167.00  4.1304988E-01
   7167.33  4.0845427E-01
   7167.67  4.0405126E-01
   7168.00  3.9985895E-01
   7168.33  3.9592567E-01
   7168.67  3.9223902E-01
   7169.00  3.8880971E-01
   7169.33  3.8567939E-01
   7169.67  3.8281913E-01
   7170.00  3.8022941E-01
   7170.33  3.7794123E-01
   7170.67  3.7591660E-01
   7171.00  3.7415088E-01
   7171.33  3.7267140E-01
   7171.67  3.7144605E-01
   7172.00  3.7047624E-01
