    FDMNES
    energy     <xanes>
   7097.00  4.4157481E-03
   7097.33  4.5060432E-03
   7097.67  4.5998146E-03
   7098.00  4.6972669E-03
   7098.33  4.7991537E-03
   7098.67  4.9052706E-03
   7099.00  5.0158889E-03
   7099.33  5.1319639E-03
   7099.67  5.2532782E-03
   7100.00  5.3802015E-03
   7100.33  5.5139751E-03
   7100.67  5.6543788E-03
   7101.00  5.8019324E-03
   7101.33  5.9582982E-03
   7101.67  6.1232771E-03
   7102.00  6.2976288E-03
   7102.33  6.4836645E-03
   7102.67  6.6812615E-03
   7103.00  6.8915835E-03
   7103.33  7.1179984E-03
   7103.67  7.3605896E-03
   7104.00  7.6212477E-03
   7104.33  7.9051846E-03
   7104.67  8.2130057E-03
   7105.00  8.5480214E-03
   7105.33  8.9189553E-03
   7105.67  9.3277699E-03
   7106.00  9.7808562E-03
   7106.33  1.0294436E-02
   7106.67  1.0874302E-02
   7107.00  1.1534541E-02
   7107.33  1.2310083E-02
   7107.67  1.3219247E-02
   7108.00  1.4299571E-02
   7108.33  1.5644484E-02
   7108.67  1.7324406E-02
   7109.00  1.9473592E-02
   7109.33  2.2445633E-02
   7109.67  2.6632341E-02
   7110.00  3.2801461E-02
   7110.33  4.3144101E-02
   7110.67  5.9861622E-02
   7111.00  8.3035887E-02
   7111.33  1.0641420E-01
   7111.67  1.2839115E-01
   7112.00  1.4959454E-01
   7112.33  1.6796086E-01
   7112.67  1.7439818E-01
   7113.00  1.6183057E-01
   7113.33  1.3725092E-01
   7113.67  1.1265883E-01
   7114.00  9.0591221E-02
   7114.33  7.3999452E-02
   7114.67  6.3092019E-02
   7115.00  5.7071755E-02
   7115.33  5.5271654E-02
   7115.67  5.6495426E-02
   7116.00  6.0539846E-02
   7116.33  6.7971769E-02
   7116.67  7.8977179E-02
   7117.00  9.4226308E-02
   7117.33  1.1495046E-01
   7117.67  1.4009937E-01
   7118.00  1.6758821E-01
   7118.33  1.9339747E-01
   7118.67  2.1559649E-01
   7119.00  2.3558560E-01
   7119.33  2.5687083E-01
   7119.67  2.8096834E-01
   7120.00  3.0675283E-01
   7120.33  3.3082513E-01
   7120.67  3.5153273E-01
   7121.00  3.7030371E-01
   7121.33  3.9006943E-01
   7121.67  4.1026507E-01
   7122.00  4.2689995E-01
   7122.33  4.3573117E-01
   7122.67  4.3944024E-01
   7123.00  4.4037557E-01
   7123.33  4.3902130E-01
   7123.67  4.3579832E-01
   7124.00  4.3147563E-01
   7124.33  4.2739562E-01
   7124.67  4.2450757E-01
   7125.00  4.2319593E-01
   7125.33  4.2355631E-01
   7125.67  4.2458366E-01
   7126.00  4.2539473E-01
   7126.33  4.2589233E-01
   7126.67  4.2724651E-01
   7127.00  4.3037856E-01
   7127.33  4.3570309E-01
   7127.67  4.4237890E-01
   7128.00  4.4967215E-01
   7128.33  4.5687875E-01
   7128.67  4.6380560E-01
   7129.00  4.7077689E-01
   7129.33  4.7858682E-01
   7129.67  4.8769193E-01
   7130.00  4.9825899E-01
   7130.33  5.1050514E-01
   7130.67  5.2441141E-01
   7131.00  5.4037384E-01
   7131.33  5.5945683E-01
   7131.67  5.8209512E-01
   7132.00  6.0879750E-01
   7132.33  6.4022137E-01
   7132.67  6.7508583E-01
   7133.00  7.1160324E-01
   7133.33  7.4566144E-01
   7133.67  7.7220276E-01
   7134.00  7.8685956E-01
   7134.33  7.8553592E-01
   7134.67  7.7194374E-01
   7135.00  7.5021676E-01
   7135.33  7.2518284E-01
   7135.67  7.0093288E-01
   7136.00  6.7913753E-01
   7136.33  6.6080470E-01
   7136.67  6.4538188E-01
   7137.00  6.3247613E-01
   7137.33  6.2183601E-01
   7137.67  6.1276007E-01
   7138.00  6.0493600E-01
   7138.33  5.9822778E-01
   7138.67  5.9238319E-01
   7139.00  5.8738916E-01
   7139.33  5.8336127E-01
   7139.67  5.8011986E-01
   7140.00  5.7751994E-01
   7140.33  5.7541814E-01
   7140.67  5.7359799E-01
   7141.00  5.7194753E-01
   7141.33  5.7029507E-01
   7141.67  5.6839601E-01
   7142.00  5.6606645E-01
   7142.33  5.6323749E-01
   7142.67  5.6019087E-01
   7143.00  5.5718038E-01
   7143.33  5.5442095E-01
   7143.67  5.5189804E-01
   7144.00  5.4951808E-01
   7144.33  5.4711830E-01
   7144.67  5.4453828E-01
   7145.00  5.4165222E-01
   7145.33  5.3829409E-01
   7145.67  5.3447367E-01
   7146.00  5.3021746E-01
   7146.33  5.2558141E-01
   7146.67  5.2077311E-01
   7147.00  5.1597285E-01
   7147.33  5.1142333E-01
   7147.67  5.0728473E-01
   7148.00  5.0368369E-01
   7148.33  5.0079735E-01
   7148.67  4.9858949E-01
   7149.00  4.9705780E-01
   7149.33  4.9624027E-01
   7149.67  4.9598244E-01
   7150.00  4.9619903E-01
   7150.33  4.9681568E-01
   7150.67  4.9765397E-01
   7151.00  4.9859674E-01
   7151.33  4.9950961E-01
   7151.67  5.0027885E-01
   7152.00  5.0082352E-01
   7152.33  5.0104298E-01
   7152.67  5.0094556E-01
   7153.00  5.0053759E-01
   7153.33  4.9982360E-01
   7153.67  4.9890151E-01
   7154.00  4.9783882E-01
   7154.33  4.9671306E-01
   7154.67  4.9561386E-01
   7155.00  4.9460501E-01
   7155.33  4.9376603E-01
   7155.67  4.9312037E-01
   7156.00  4.9268862E-01
   7156.33  4.9250319E-01
   7156.67  4.9252308E-01
   7157.00  4.9272430E-01
   7157.33  4.9308629E-01
   7157.67  4.9354765E-01
   7158.00  4.9407175E-01
   7158.33  4.9462398E-01
   7158.67  4.9517245E-01
   7159.00  4.9570053E-01
   7159.33  4.9619219E-01
   7159.67  4.9664570E-01
   7160.00  4.9706045E-01
   7160.33  4.9743428E-01
   7160.67  4.9777608E-01
   7161.00  4.9809214E-01
   7161.33  4.9838678E-01
   7161.67  4.9866832E-01
   7162.00  4.9894211E-01
   7162.33  4.9921192E-01
   7162.67  4.9947960E-01
   7163.00  4.9974364E-01
   7163.33  4.9999671E-01
   7163.67  5.0022635E-01
   7164.00  5.0041269E-01
   7164.33  5.0051221E-01
   7164.67  5.0048806E-01
   7165.00  5.0028984E-01
   7165.33  4.9981740E-01
   7165.67  4.9902335E-01
   7166.00  4.9783980E-01
   7166.33  4.9613728E-01
   7166.67  4.9391912E-01
   7167.00  4.9115961E-01
   7167.33  4.8779113E-01
   7167.67  4.8391618E-01
   7168.00  4.7959225E-01
   7168.33  4.7487005E-01
   7168.67  4.6991168E-01
   7169.00  4.6482983E-01
   7169.33  4.5976114E-01
   7169.67  4.5483317E-01
   7170.00  4.5014505E-01
   7170.33  4.4583583E-01
   7170.67  4.4193806E-01
   7171.00  4.3849848E-01
   7171.33  4.3561815E-01
   7171.67  4.3326587E-01
   7172.00  4.3146193E-01
