    FDMNES
    energy     <xanes>
   7097.00  4.4568393E-03
   7097.33  4.5499502E-03
   7097.67  4.6467358E-03
   7098.00  4.7474201E-03
   7098.33  4.8528136E-03
   7098.67  4.9627116E-03
   7099.00  5.0774151E-03
   7099.33  5.1979632E-03
   7099.67  5.3241429E-03
   7100.00  5.4563710E-03
   7100.33  5.5960170E-03
   7100.67  5.7428746E-03
   7101.00  5.8975419E-03
   7101.33  6.0618858E-03
   7101.67  6.2357423E-03
   7102.00  6.4200058E-03
   7102.33  6.6173311E-03
   7102.67  6.8276769E-03
   7103.00  7.0524526E-03
   7103.33  7.2956370E-03
   7103.67  7.5575018E-03
   7104.00  7.8404151E-03
   7104.33  8.1507536E-03
   7104.67  8.4895754E-03
   7105.00  8.8611972E-03
   7105.33  9.2767662E-03
   7105.67  9.7394146E-03
   7106.00  1.0257890E-02
   7106.33  1.0854069E-02
   7106.67  1.1537130E-02
   7107.00  1.2327530E-02
   7107.33  1.3275660E-02
   7107.67  1.4411463E-02
   7108.00  1.5793674E-02
   7108.33  1.7569124E-02
   7108.67  1.9860417E-02
   7109.00  2.2898729E-02
   7109.33  2.7304692E-02
   7109.67  3.3826031E-02
   7110.00  4.3939567E-02
   7110.33  6.1859599E-02
   7110.67  9.1038550E-02
   7111.00  1.2739320E-01
   7111.33  1.5487384E-01
   7111.67  1.7938356E-01
   7112.00  1.9178675E-01
   7112.33  1.6354604E-01
   7112.67  1.3022478E-01
   7113.00  1.1169521E-01
   7113.33  1.0508177E-01
   7113.67  9.7636928E-02
   7114.00  8.5282693E-02
   7114.33  7.2983288E-02
   7114.67  6.4550415E-02
   7115.00  5.9763191E-02
   7115.33  5.7875613E-02
   7115.67  5.7848937E-02
   7116.00  5.9328945E-02
   7116.33  6.2175419E-02
   7116.67  6.5989770E-02
   7117.00  7.0574007E-02
   7117.33  7.5915671E-02
   7117.67  8.2146251E-02
   7118.00  8.9667488E-02
   7118.33  9.9222760E-02
   7118.67  1.1104301E-01
   7119.00  1.2539016E-01
   7119.33  1.4240724E-01
   7119.67  1.6091332E-01
   7120.00  1.8001551E-01
   7120.33  1.9976398E-01
   7120.67  2.2159849E-01
   7121.00  2.4759686E-01
   7121.33  2.8094691E-01
   7121.67  3.2221645E-01
   7122.00  3.7120705E-01
   7122.33  4.2597414E-01
   7122.67  4.8063375E-01
   7123.00  5.3007799E-01
   7123.33  5.6980599E-01
   7123.67  6.0107619E-01
   7124.00  6.2501241E-01
   7124.33  6.4103374E-01
   7124.67  6.4932635E-01
   7125.00  6.4947710E-01
   7125.33  6.4140304E-01
   7125.67  6.2828887E-01
   7126.00  6.1266415E-01
   7126.33  5.9751061E-01
   7126.67  5.8470375E-01
   7127.00  5.7438509E-01
   7127.33  5.6538716E-01
   7127.67  5.5636392E-01
   7128.00  5.4771749E-01
   7128.33  5.4167038E-01
   7128.67  5.3990854E-01
   7129.00  5.4321247E-01
   7129.33  5.5167908E-01
   7129.67  5.6321993E-01
   7130.00  5.7630194E-01
   7130.33  5.8951273E-01
   7130.67  6.0211472E-01
   7131.00  6.1402599E-01
   7131.33  6.2548735E-01
   7131.67  6.3696268E-01
   7132.00  6.4870929E-01
   7132.33  6.6080916E-01
   7132.67  6.7298667E-01
   7133.00  6.8497192E-01
   7133.33  6.9675356E-01
   7133.67  7.0892670E-01
   7134.00  7.2196922E-01
   7134.33  7.3552826E-01
   7134.67  7.4783052E-01
   7135.00  7.5680739E-01
   7135.33  7.5963669E-01
   7135.67  7.5604488E-01
   7136.00  7.4645078E-01
   7136.33  7.3193758E-01
   7136.67  7.1520317E-01
   7137.00  6.9797378E-01
   7137.33  6.8189244E-01
   7137.67  6.6775194E-01
   7138.00  6.5594783E-01
   7138.33  6.4692802E-01
   7138.67  6.4027526E-01
   7139.00  6.3575159E-01
   7139.33  6.3320043E-01
   7139.67  6.3197410E-01
   7140.00  6.3168429E-01
   7140.33  6.3194353E-01
   7140.67  6.3230806E-01
   7141.00  6.3252385E-01
   7141.33  6.3225279E-01
   7141.67  6.3129647E-01
   7142.00  6.2949108E-01
   7142.33  6.2658670E-01
   7142.67  6.2264967E-01
   7143.00  6.1769728E-01
   7143.33  6.1171822E-01
   7143.67  6.0501331E-01
   7144.00  5.9779294E-01
   7144.33  5.9029460E-01
   7144.67  5.8280012E-01
   7145.00  5.7548126E-01
   7145.33  5.6850301E-01
   7145.67  5.6187035E-01
   7146.00  5.5556159E-01
   7146.33  5.4953618E-01
   7146.67  5.4366430E-01
   7147.00  5.3785784E-01
   7147.33  5.3202162E-01
   7147.67  5.2608921E-01
   7148.00  5.2002268E-01
   7148.33  5.1378360E-01
   7148.67  5.0739551E-01
   7149.00  5.0087724E-01
   7149.33  4.9424904E-01
   7149.67  4.8756096E-01
   7150.00  4.8084549E-01
   7150.33  4.7413602E-01
   7150.67  4.6745633E-01
   7151.00  4.6081966E-01
   7151.33  4.5423675E-01
   7151.67  4.4769465E-01
   7152.00  4.4117855E-01
   7152.33  4.3466166E-01
   7152.67  4.2811320E-01
   7153.00  4.2150650E-01
   7153.33  4.1478982E-01
   7153.67  4.0793137E-01
   7154.00  4.0089595E-01
   7154.33  3.9362166E-01
   7154.67  3.8610907E-01
   7155.00  3.7834582E-01
   7155.33  3.7029870E-01
   7155.67  3.6201152E-01
   7156.00  3.5350491E-01
   7156.33  3.4478978E-01
   7156.67  3.3593496E-01
   7157.00  3.2699019E-01
   7157.33  3.1802514E-01
   7157.67  3.0913047E-01
   7158.00  3.0039305E-01
   7158.33  2.9195862E-01
   7158.67  2.8391684E-01
   7159.00  2.7637776E-01
   7159.33  2.6954285E-01
   7159.67  2.6344231E-01
   7160.00  2.5815159E-01
   7160.33  2.5384443E-01
   7160.67  2.5045118E-01
   7161.00  2.4798882E-01
   7161.33  2.4657729E-01
   7161.67  2.4608877E-01
   7162.00  2.4650442E-01
   7162.33  2.4790119E-01
   7162.67  2.5012794E-01
   7163.00  2.5314128E-01
   7163.33  2.5697066E-01
   7163.67  2.6144504E-01
   7164.00  2.6648605E-01
   7164.33  2.7205475E-01
   7164.67  2.7799083E-01
   7165.00  2.8422498E-01
   7165.33  2.9072045E-01
   7165.67  2.9739097E-01
   7166.00  3.0419382E-01
   7166.33  3.1109970E-01
   7166.67  3.1806548E-01
   7167.00  3.2506943E-01
   7167.33  3.3209379E-01
   7167.67  3.3911972E-01
   7168.00  3.4613377E-01
   7168.33  3.5311700E-01
   7168.67  3.6005627E-01
   7169.00  3.6693579E-01
   7169.33  3.7372540E-01
   7169.67  3.8041198E-01
   7170.00  3.8697163E-01
   7170.33  3.9334929E-01
   7170.67  3.9951701E-01
   7171.00  4.0541292E-01
   7171.33  4.1086723E-01
   7171.67  4.1570885E-01
   7172.00  4.1965145E-01
