    FDMNES
    energy     <xanes>
   7097.00  4.8267397E-03
   7097.33  4.9383679E-03
   7097.67  5.0550333E-03
   7098.00  5.1770818E-03
   7098.33  5.3056880E-03
   7098.67  5.4406220E-03
   7099.00  5.5823585E-03
   7099.33  5.7324437E-03
   7099.67  5.8906475E-03
   7100.00  6.0576413E-03
   7100.33  6.2355170E-03
   7100.67  6.4240733E-03
   7101.00  6.6242912E-03
   7101.33  6.8390975E-03
   7101.67  7.0683828E-03
   7102.00  7.3136380E-03
   7102.33  7.5791261E-03
   7102.67  7.8649699E-03
   7103.00  8.1735474E-03
   7103.33  8.5113805E-03
   7103.67  8.8791485E-03
   7104.00  9.2808742E-03
   7104.33  9.7271701E-03
   7104.67  1.0220064E-02
   7105.00  1.0766887E-02
   7105.33  1.1386335E-02
   7105.67  1.2083890E-02
   7106.00  1.2874294E-02
   7106.33  1.3794142E-02
   7106.67  1.4858746E-02
   7107.00  1.6101994E-02
   7107.33  1.7606979E-02
   7107.67  1.9421913E-02
   7108.00  2.1641536E-02
   7108.33  2.4501621E-02
   7108.67  2.8193257E-02
   7109.00  3.3076935E-02
   7109.33  4.0114099E-02
   7109.67  5.0435575E-02
   7110.00  6.6272520E-02
   7110.33  9.4024965E-02
   7110.67  1.3949216E-01
   7111.00  1.9843339E-01
   7111.33  2.3955035E-01
   7111.67  2.6205577E-01
   7112.00  2.8360837E-01
   7112.33  3.1159340E-01
   7112.67  3.3521010E-01
   7113.00  3.4014725E-01
   7113.33  3.1990218E-01
   7113.67  2.8348664E-01
   7114.00  2.3995128E-01
   7114.33  2.0143040E-01
   7114.67  1.7210171E-01
   7115.00  1.5053431E-01
   7115.33  1.3464896E-01
   7115.67  1.2261908E-01
   7116.00  1.1406159E-01
   7116.33  1.0877179E-01
   7116.67  1.0556519E-01
   7117.00  1.0373669E-01
   7117.33  1.0273004E-01
   7117.67  1.0168623E-01
   7118.00  9.9920218E-02
   7118.33  9.7919673E-02
   7118.67  9.6944364E-02
   7119.00  9.7371115E-02
   7119.33  9.9259231E-02
   7119.67  1.0225293E-01
   7120.00  1.0632288E-01
   7120.33  1.1165710E-01
   7120.67  1.1816454E-01
   7121.00  1.2591577E-01
   7121.33  1.3522788E-01
   7121.67  1.4672769E-01
   7122.00  1.6179224E-01
   7122.33  1.8235136E-01
   7122.67  2.0740920E-01
   7123.00  2.3471855E-01
   7123.33  2.6093053E-01
   7123.67  2.8492095E-01
   7124.00  3.0715290E-01
   7124.33  3.2867170E-01
   7124.67  3.5080357E-01
   7125.00  3.7433829E-01
   7125.33  3.9951697E-01
   7125.67  4.2559404E-01
   7126.00  4.5240806E-01
   7126.33  4.7997653E-01
   7126.67  5.0664966E-01
   7127.00  5.3018340E-01
   7127.33  5.4918402E-01
   7127.67  5.6542335E-01
   7128.00  5.8053729E-01
   7128.33  5.9655362E-01
   7128.67  6.1446168E-01
   7129.00  6.3385998E-01
   7129.33  6.5338448E-01
   7129.67  6.7171942E-01
   7130.00  6.8782969E-01
   7130.33  6.9964353E-01
   7130.67  7.0588074E-01
   7131.00  7.0582314E-01
   7131.33  6.9974581E-01
   7131.67  6.9077495E-01
   7132.00  6.8137866E-01
   7132.33  6.7444090E-01
   7132.67  6.7184587E-01
   7133.00  6.7492328E-01
   7133.33  6.8483322E-01
   7133.67  6.9952186E-01
   7134.00  7.1678570E-01
   7134.33  7.3377936E-01
   7134.67  7.4818821E-01
   7135.00  7.5852333E-01
   7135.33  7.6321492E-01
   7135.67  7.6306087E-01
   7136.00  7.5904719E-01
   7136.33  7.5243841E-01
   7136.67  7.4481368E-01
   7137.00  7.3688704E-01
   7137.33  7.2936090E-01
   7137.67  7.2292615E-01
   7138.00  7.1819568E-01
   7138.33  7.1580271E-01
   7138.67  7.1528472E-01
   7139.00  7.1602851E-01
   7139.33  7.1705078E-01
   7139.67  7.1729386E-01
   7140.00  7.1608127E-01
   7140.33  7.1266432E-01
   7140.67  7.0693121E-01
   7141.00  6.9859470E-01
   7141.33  6.8709253E-01
   7141.67  6.7294559E-01
   7142.00  6.5669318E-01
   7142.33  6.3915839E-01
   7142.67  6.2154138E-01
   7143.00  6.0461157E-01
   7143.33  5.8911481E-01
   7143.67  5.7513249E-01
   7144.00  5.6266743E-01
   7144.33  5.5179672E-01
   7144.67  5.4224368E-01
   7145.00  5.3395381E-01
   7145.33  5.2701506E-01
   7145.67  5.2116598E-01
   7146.00  5.1625561E-01
   7146.33  5.1215385E-01
   7146.67  5.0854836E-01
   7147.00  5.0527351E-01
   7147.33  5.0220972E-01
   7147.67  4.9925688E-01
   7148.00  4.9639012E-01
   7148.33  4.9361684E-01
   7148.67  4.9094063E-01
   7149.00  4.8837771E-01
   7149.33  4.8596034E-01
   7149.67  4.8368251E-01
   7150.00  4.8154716E-01
   7150.33  4.7957001E-01
   7150.67  4.7773203E-01
   7151.00  4.7603970E-01
   7151.33  4.7454140E-01
   7151.67  4.7327153E-01
   7152.00  4.7230191E-01
   7152.33  4.7178389E-01
   7152.67  4.7176742E-01
   7153.00  4.7231804E-01
   7153.33  4.7354156E-01
   7153.67  4.7533193E-01
   7154.00  4.7761078E-01
   7154.33  4.8027958E-01
   7154.67  4.8311662E-01
   7155.00  4.8595451E-01
   7155.33  4.8857325E-01
   7155.67  4.9081429E-01
   7156.00  4.9253812E-01
   7156.33  4.9352704E-01
   7156.67  4.9376014E-01
   7157.00  4.9317918E-01
   7157.33  4.9165092E-01
   7157.67  4.8929813E-01
   7158.00  4.8616942E-01
   7158.33  4.8226677E-01
   7158.67  4.7778692E-01
   7159.00  4.7283381E-01
   7159.33  4.6748327E-01
   7159.67  4.6189065E-01
   7160.00  4.5614262E-01
   7160.33  4.5032271E-01
   7160.67  4.4452292E-01
   7161.00  4.3881178E-01
   7161.33  4.3328644E-01
   7161.67  4.2799341E-01
   7162.00  4.2297641E-01
   7162.33  4.1831675E-01
   7162.67  4.1401888E-01
   7163.00  4.1011245E-01
   7163.33  4.0666367E-01
   7163.67  4.0362796E-01
   7164.00  4.0100553E-01
   7164.33  3.9883741E-01
   7164.67  3.9705513E-01
   7165.00  3.9563815E-01
   7165.33  3.9460166E-01
   7165.67  3.9387578E-01
   7166.00  3.9343693E-01
   7166.33  3.9329039E-01
   7166.67  3.9337966E-01
   7167.00  3.9368822E-01
   7167.33  3.9422702E-01
   7167.67  3.9495934E-01
   7168.00  3.9587740E-01
   7168.33  3.9699606E-01
   7168.67  3.9828704E-01
   7169.00  3.9974673E-01
   7169.33  4.0139024E-01
   7169.67  4.0318753E-01
   7170.00  4.0512770E-01
   7170.33  4.0720991E-01
   7170.67  4.0939302E-01
   7171.00  4.1164125E-01
   7171.33  4.1387823E-01
   7171.67  4.1596215E-01
   7172.00  4.1770077E-01
