    FDMNES
    energy     <xanes>
   7097.00  4.1869983E-03
   7097.33  4.2761630E-03
   7097.67  4.3691532E-03
   7098.00  4.4662286E-03
   7098.33  4.5682773E-03
   7098.67  4.6751217E-03
   7099.00  4.7871199E-03
   7099.33  4.9054412E-03
   7099.67  5.0299105E-03
   7100.00  5.1610362E-03
   7100.33  5.3004041E-03
   7100.67  5.4478652E-03
   7101.00  5.6041670E-03
   7101.33  5.7715372E-03
   7101.67  5.9499043E-03
   7102.00  6.1404140E-03
   7102.33  6.3463304E-03
   7102.67  6.5677747E-03
   7103.00  6.8065911E-03
   7103.33  7.0678144E-03
   7103.67  7.3520240E-03
   7104.00  7.6623725E-03
   7104.33  8.0071352E-03
   7104.67  8.3879989E-03
   7105.00  8.8107743E-03
   7105.33  9.2902045E-03
   7105.67  9.8308131E-03
   7106.00  1.0444404E-02
   7106.33  1.1160171E-02
   7106.67  1.1990674E-02
   7107.00  1.2963251E-02
   7107.33  1.4144729E-02
   7107.67  1.5574289E-02
   7108.00  1.7328263E-02
   7108.33  1.9595767E-02
   7108.67  2.2528518E-02
   7109.00  2.6410510E-02
   7109.33  3.1990560E-02
   7109.67  4.0120972E-02
   7110.00  5.2466064E-02
   7110.33  7.3829126E-02
   7110.67  1.0961630E-01
   7111.00  1.6257649E-01
   7111.33  2.2128506E-01
   7111.67  2.6715407E-01
   7112.00  2.8557095E-01
   7112.33  2.6386151E-01
   7112.67  2.2444683E-01
   7113.00  1.8514328E-01
   7113.33  1.5789169E-01
   7113.67  1.3886824E-01
   7114.00  1.2229474E-01
   7114.33  1.0735325E-01
   7114.67  9.7319214E-02
   7115.00  9.1347192E-02
   7115.33  8.3801653E-02
   7115.67  7.3968051E-02
   7116.00  6.3337121E-02
   7116.33  5.4825529E-02
   7116.67  4.9282641E-02
   7117.00  4.6118047E-02
   7117.33  4.4818632E-02
   7117.67  4.4737758E-02
   7118.00  4.5540251E-02
   7118.33  4.6715515E-02
   7118.67  4.7547304E-02
   7119.00  4.7703843E-02
   7119.33  4.7394156E-02
   7119.67  4.7298979E-02
   7120.00  4.7852083E-02
   7120.33  4.9437945E-02
   7120.67  5.2069868E-02
   7121.00  5.5825788E-02
   7121.33  6.0924604E-02
   7121.67  6.7196631E-02
   7122.00  7.4492819E-02
   7122.33  8.2721098E-02
   7122.67  9.1981147E-02
   7123.00  1.0294473E-01
   7123.33  1.1712050E-01
   7123.67  1.3574679E-01
   7124.00  1.6063502E-01
   7124.33  1.9485491E-01
   7124.67  2.3834571E-01
   7125.00  2.9040975E-01
   7125.33  3.4813436E-01
   7125.67  4.0196929E-01
   7126.00  4.3853809E-01
   7126.33  4.4378660E-01
   7126.67  4.2931716E-01
   7127.00  4.0881163E-01
   7127.33  3.9313427E-01
   7127.67  3.8420086E-01
   7128.00  3.8087710E-01
   7128.33  3.8268479E-01
   7128.67  3.8918379E-01
   7129.00  4.0046589E-01
   7129.33  4.1657072E-01
   7129.67  4.3644600E-01
   7130.00  4.6011967E-01
   7130.33  4.8819267E-01
   7130.67  5.1958610E-01
   7131.00  5.5358379E-01
   7131.33  5.9037502E-01
   7131.67  6.3043052E-01
   7132.00  6.7460512E-01
   7132.33  7.2346921E-01
   7132.67  7.7457165E-01
   7133.00  8.2502767E-01
   7133.33  8.7135062E-01
   7133.67  9.1240528E-01
   7134.00  9.4743367E-01
   7134.33  9.7454277E-01
   7134.67  9.9436015E-01
   7135.00  1.0084135E+00
   7135.33  1.0186885E+00
   7135.67  1.0243929E+00
   7136.00  1.0201752E+00
   7136.33  9.9845243E-01
   7136.67  9.6285820E-01
   7137.00  9.1945848E-01
   7137.33  8.7485478E-01
   7137.67  8.3294572E-01
   7138.00  7.9487495E-01
   7138.33  7.6116715E-01
   7138.67  7.3088147E-01
   7139.00  7.0363731E-01
   7139.33  6.7949468E-01
   7139.67  6.5794420E-01
   7140.00  6.3886250E-01
   7140.33  6.2235637E-01
   7140.67  6.0793278E-01
   7141.00  5.9543080E-01
   7141.33  5.8494712E-01
   7141.67  5.7620102E-01
   7142.00  5.6917151E-01
   7142.33  5.6400208E-01
   7142.67  5.6031107E-01
   7143.00  5.5784310E-01
   7143.33  5.5634940E-01
   7143.67  5.5542497E-01
   7144.00  5.5495479E-01
   7144.33  5.5510063E-01
   7144.67  5.5608559E-01
   7145.00  5.5821803E-01
   7145.33  5.6206701E-01
   7145.67  5.6780350E-01
   7146.00  5.7569488E-01
   7146.33  5.8626327E-01
   7146.67  5.9929763E-01
   7147.00  6.1472124E-01
   7147.33  6.3248122E-01
   7147.67  6.5171797E-01
   7148.00  6.7164474E-01
   7148.33  6.9092212E-01
   7148.67  7.0802319E-01
   7149.00  7.2145322E-01
   7149.33  7.2903711E-01
   7149.67  7.3052931E-01
   7150.00  7.2582535E-01
   7150.33  7.1484584E-01
   7150.67  6.9948560E-01
   7151.00  6.8100881E-01
   7151.33  6.6072236E-01
   7151.67  6.4015023E-01
   7152.00  6.2013031E-01
   7152.33  6.0138938E-01
   7152.67  5.8392552E-01
   7153.00  5.6750523E-01
   7153.33  5.5162432E-01
   7153.67  5.3552596E-01
   7154.00  5.1869539E-01
   7154.33  5.0070240E-01
   7154.67  4.8177404E-01
   7155.00  4.6226316E-01
   7155.33  4.4271233E-01
   7155.67  4.2363223E-01
   7156.00  4.0534273E-01
   7156.33  3.8820755E-01
   7156.67  3.7223549E-01
   7157.00  3.5750517E-01
   7157.33  3.4424907E-01
   7157.67  3.3235011E-01
   7158.00  3.2182772E-01
   7158.33  3.1285122E-01
   7158.67  3.0522641E-01
   7159.00  2.9892302E-01
   7159.33  2.9405099E-01
   7159.67  2.9038122E-01
   7160.00  2.8782533E-01
   7160.33  2.8635300E-01
   7160.67  2.8564182E-01
   7161.00  2.8549450E-01
   7161.33  2.8573961E-01
   7161.67  2.8619103E-01
   7162.00  2.8681043E-01
   7162.33  2.8766699E-01
   7162.67  2.8883036E-01
   7163.00  2.9038729E-01
   7163.33  2.9246837E-01
   7163.67  2.9503904E-01
   7164.00  2.9807727E-01
   7164.33  3.0157192E-01
   7164.67  3.0539195E-01
   7165.00  3.0946774E-01
   7165.33  3.1375327E-01
   7165.67  3.1817615E-01
   7166.00  3.2271276E-01
   7166.33  3.2736839E-01
   7166.67  3.3213562E-01
   7167.00  3.3702323E-01
   7167.33  3.4205459E-01
   7167.67  3.4721237E-01
   7168.00  3.5248525E-01
   7168.33  3.5785871E-01
   7168.67  3.6328296E-01
   7169.00  3.6871566E-01
   7169.33  3.7409461E-01
   7169.67  3.7936773E-01
   7170.00  3.8448769E-01
   7170.33  3.8937979E-01
   7170.67  3.9402467E-01
   7171.00  3.9838143E-01
   7171.33  4.0233530E-01
   7171.67  4.0579974E-01
   7172.00  4.0859682E-01
