    FDMNES
    energy     <xanes>
   7097.00  4.1174457E-03
   7097.33  4.2052512E-03
   7097.67  4.2968395E-03
   7098.00  4.3924694E-03
   7098.33  4.4930222E-03
   7098.67  4.5983252E-03
   7099.00  4.7087356E-03
   7099.33  4.8254165E-03
   7099.67  4.9481984E-03
   7100.00  5.0775900E-03
   7100.33  5.2151722E-03
   7100.67  5.3608031E-03
   7101.00  5.5152322E-03
   7101.33  5.6806860E-03
   7101.67  5.8571026E-03
   7102.00  6.0456333E-03
   7102.33  6.2495488E-03
   7102.67  6.4689845E-03
   7103.00  6.7057977E-03
   7103.33  6.9650465E-03
   7103.67  7.2473333E-03
   7104.00  7.5558395E-03
   7104.33  7.8988994E-03
   7104.67  8.2782419E-03
   7105.00  8.6997409E-03
   7105.33  9.1782785E-03
   7105.67  9.7184646E-03
   7106.00  1.0332248E-02
   7106.33  1.1049152E-02
   7106.67  1.1881940E-02
   7107.00  1.2858309E-02
   7107.33  1.4045923E-02
   7107.67  1.5484532E-02
   7108.00  1.7251479E-02
   7108.33  1.9538325E-02
   7108.67  2.2498769E-02
   7109.00  2.6420381E-02
   7109.33  3.2061123E-02
   7109.67  4.0283111E-02
   7110.00  5.2770023E-02
   7110.33  7.4393400E-02
   7110.67  1.1075174E-01
   7111.00  1.6486660E-01
   7111.33  2.2297790E-01
   7111.67  2.6738128E-01
   7112.00  2.8937909E-01
   7112.33  2.7004335E-01
   7112.67  2.3002767E-01
   7113.00  1.9452050E-01
   7113.33  1.7527323E-01
   7113.67  1.5683820E-01
   7114.00  1.2901166E-01
   7114.33  1.0076267E-01
   7114.67  8.0625641E-02
   7115.00  6.8403844E-02
   7115.33  6.1364452E-02
   7115.67  5.5773823E-02
   7116.00  5.0265461E-02
   7116.33  4.5323217E-02
   7116.67  4.2027745E-02
   7117.00  4.0504101E-02
   7117.33  4.0578430E-02
   7117.67  4.1486445E-02
   7118.00  4.2491374E-02
   7118.33  4.2676368E-02
   7118.67  4.2049607E-02
   7119.00  4.1119873E-02
   7119.33  4.0454158E-02
   7119.67  4.0266598E-02
   7120.00  4.0659449E-02
   7120.33  4.1809566E-02
   7120.67  4.3727296E-02
   7121.00  4.6498451E-02
   7121.33  5.0329044E-02
   7121.67  5.5144618E-02
   7122.00  6.0931640E-02
   7122.33  6.7809735E-02
   7122.67  7.5812271E-02
   7123.00  8.5156833E-02
   7123.33  9.6078588E-02
   7123.67  1.0832666E-01
   7124.00  1.2241206E-01
   7124.33  1.4057284E-01
   7124.67  1.6462475E-01
   7125.00  1.9597113E-01
   7125.33  2.3537463E-01
   7125.67  2.7935035E-01
   7126.00  3.2410001E-01
   7126.33  3.6279603E-01
   7126.67  3.9019262E-01
   7127.00  4.0464594E-01
   7127.33  4.0786234E-01
   7127.67  4.0638233E-01
   7128.00  4.0409635E-01
   7128.33  4.0368465E-01
   7128.67  4.0532732E-01
   7129.00  4.0877791E-01
   7129.33  4.1512088E-01
   7129.67  4.2629611E-01
   7130.00  4.4461223E-01
   7130.33  4.7315446E-01
   7130.67  5.1119087E-01
   7131.00  5.5735066E-01
   7131.33  6.0833202E-01
   7131.67  6.5852096E-01
   7132.00  7.0453047E-01
   7132.33  7.4457437E-01
   7132.67  7.8055951E-01
   7133.00  8.1397673E-01
   7133.33  8.4577489E-01
   7133.67  8.7654452E-01
   7134.00  9.0620130E-01
   7134.33  9.3359681E-01
   7134.67  9.5697113E-01
   7135.00  9.7489203E-01
   7135.33  9.8807027E-01
   7135.67  9.9964348E-01
   7136.00  1.0081848E+00
   7136.33  1.0053989E+00
   7136.67  9.8745024E-01
   7137.00  9.5651921E-01
   7137.33  9.1904540E-01
   7137.67  8.8206146E-01
   7138.00  8.4841702E-01
   7138.33  8.1959817E-01
   7138.67  7.9466092E-01
   7139.00  7.7285816E-01
   7139.33  7.5358001E-01
   7139.67  7.3584192E-01
   7140.00  7.1924368E-01
   7140.33  7.0365595E-01
   7140.67  6.8892647E-01
   7141.00  6.7514709E-01
   7141.33  6.6268154E-01
   7141.67  6.5169184E-01
   7142.00  6.4249000E-01
   7142.33  6.3571875E-01
   7142.67  6.3141504E-01
   7143.00  6.2971694E-01
   7143.33  6.3089298E-01
   7143.67  6.3433100E-01
   7144.00  6.3960284E-01
   7144.33  6.4619715E-01
   7144.67  6.5320299E-01
   7145.00  6.5993668E-01
   7145.33  6.6552487E-01
   7145.67  6.6951638E-01
   7146.00  6.7162534E-01
   7146.33  6.7158945E-01
   7146.67  6.6997589E-01
   7147.00  6.6731279E-01
   7147.33  6.6437722E-01
   7147.67  6.6206249E-01
   7148.00  6.6099467E-01
   7148.33  6.6175710E-01
   7148.67  6.6397530E-01
   7149.00  6.6703688E-01
   7149.33  6.6982422E-01
   7149.67  6.7120604E-01
   7150.00  6.7039220E-01
   7150.33  6.6655669E-01
   7150.67  6.6002701E-01
   7151.00  6.5108321E-01
   7151.33  6.3995341E-01
   7151.67  6.2735540E-01
   7152.00  6.1364422E-01
   7152.33  5.9904396E-01
   7152.67  5.8388101E-01
   7153.00  5.6828558E-01
   7153.33  5.5230945E-01
   7153.67  5.3605574E-01
   7154.00  5.1956694E-01
   7154.33  5.0286769E-01
   7154.67  4.8603594E-01
   7155.00  4.6912730E-01
   7155.33  4.5221701E-01
   7155.67  4.3539265E-01
   7156.00  4.1873910E-01
   7156.33  4.0240335E-01
   7156.67  3.8647915E-01
   7157.00  3.7109292E-01
   7157.33  3.5649728E-01
   7157.67  3.4278426E-01
   7158.00  3.3011146E-01
   7158.33  3.1879942E-01
   7158.67  3.0883311E-01
   7159.00  3.0029178E-01
   7159.33  2.9339791E-01
   7159.67  2.8794837E-01
   7160.00  2.8388035E-01
   7160.33  2.8123536E-01
   7160.67  2.7970006E-01
   7161.00  2.7911412E-01
   7161.33  2.7935761E-01
   7161.67  2.8010845E-01
   7162.00  2.8116869E-01
   7162.33  2.8235142E-01
   7162.67  2.8350494E-01
   7163.00  2.8457725E-01
   7163.33  2.8558528E-01
   7163.67  2.8663688E-01
   7164.00  2.8785362E-01
   7164.33  2.8941613E-01
   7164.67  2.9139010E-01
   7165.00  2.9381477E-01
   7165.33  2.9672774E-01
   7165.67  3.0000475E-01
   7166.00  3.0356227E-01
   7166.33  3.0732360E-01
   7166.67  3.1118508E-01
   7167.00  3.1510152E-01
   7167.33  3.1905530E-01
   7167.67  3.2304814E-01
   7168.00  3.2709970E-01
   7168.33  3.3125214E-01
   7168.67  3.3552432E-01
   7169.00  3.3993518E-01
   7169.33  3.4451289E-01
   7169.67  3.4923040E-01
   7170.00  3.5406320E-01
   7170.33  3.5897165E-01
   7170.67  3.6387680E-01
   7171.00  3.6869429E-01
   7171.33  3.7325072E-01
   7171.67  3.7734156E-01
   7172.00  3.8068087E-01
