    FDMNES
    energy     <xanes>
   7097.00  4.9261613E-03
   7097.33  5.0453767E-03
   7097.67  5.1701626E-03
   7098.00  5.3009107E-03
   7098.33  5.4389357E-03
   7098.67  5.5839954E-03
   7099.00  5.7366299E-03
   7099.33  5.8985789E-03
   7099.67  6.0696034E-03
   7100.00  6.2504705E-03
   7100.33  6.4435472E-03
   7100.67  6.6486316E-03
   7101.00  6.8668495E-03
   7101.33  7.1015303E-03
   7101.67  7.3525840E-03
   7102.00  7.6217281E-03
   7102.33  7.9138375E-03
   7102.67  8.2290979E-03
   7103.00  8.5702570E-03
   7103.33  8.9448082E-03
   7103.67  9.3535895E-03
   7104.00  9.8012589E-03
   7104.33  1.0300053E-02
   7104.67  1.0852375E-02
   7105.00  1.1466718E-02
   7105.33  1.2164665E-02
   7105.67  1.2952598E-02
   7106.00  1.3847533E-02
   7106.33  1.4891630E-02
   7106.67  1.6102412E-02
   7107.00  1.7518647E-02
   7107.33  1.9235173E-02
   7107.67  2.1305994E-02
   7108.00  2.3837351E-02
   7108.33  2.7092306E-02
   7108.67  3.1277451E-02
   7109.00  3.6781224E-02
   7109.33  4.4626797E-02
   7109.67  5.5967765E-02
   7110.00  7.3059995E-02
   7110.33  1.0237312E-01
   7110.67  1.5067718E-01
   7111.00  2.1907297E-01
   7111.33  2.8626627E-01
   7111.67  3.3998644E-01
   7112.00  3.9329137E-01
   7112.33  4.4287887E-01
   7112.67  4.5742656E-01
   7113.00  4.0724323E-01
   7113.33  3.0958772E-01
   7113.67  2.2835815E-01
   7114.00  1.7638918E-01
   7114.33  1.5164085E-01
   7114.67  1.4600167E-01
   7115.00  1.5634786E-01
   7115.33  1.7046816E-01
   7115.67  1.6483944E-01
   7116.00  1.3983198E-01
   7116.33  1.1476008E-01
   7116.67  9.7490520E-02
   7117.00  8.7446455E-02
   7117.33  8.3290323E-02
   7117.67  8.2499267E-02
   7118.00  8.3612885E-02
   7118.33  8.5764589E-02
   7118.67  8.9084995E-02
   7119.00  9.3911465E-02
   7119.33  9.9740083E-02
   7119.67  1.0508040E-01
   7120.00  1.0898648E-01
   7120.33  1.1203390E-01
   7120.67  1.1671012E-01
   7121.00  1.2461527E-01
   7121.33  1.3650309E-01
   7121.67  1.5152935E-01
   7122.00  1.6982910E-01
   7122.33  1.9239848E-01
   7122.67  2.1839723E-01
   7123.00  2.4643882E-01
   7123.33  2.7560448E-01
   7123.67  3.0632056E-01
   7124.00  3.3817637E-01
   7124.33  3.6803279E-01
   7124.67  3.9207039E-01
   7125.00  4.0775354E-01
   7125.33  4.1476107E-01
   7125.67  4.1814325E-01
   7126.00  4.2213144E-01
   7126.33  4.3120898E-01
   7126.67  4.4666405E-01
   7127.00  4.6834774E-01
   7127.33  4.9519617E-01
   7127.67  5.2464464E-01
   7128.00  5.5554065E-01
   7128.33  5.8662224E-01
   7128.67  6.1576021E-01
   7129.00  6.4208497E-01
   7129.33  6.6843193E-01
   7129.67  6.9848618E-01
   7130.00  7.3151017E-01
   7130.33  7.6200214E-01
   7130.67  7.8500196E-01
   7131.00  7.9843128E-01
   7131.33  8.0099737E-01
   7131.67  7.9516195E-01
   7132.00  7.8304907E-01
   7132.33  7.6781440E-01
   7132.67  7.5323344E-01
   7133.00  7.4145979E-01
   7133.33  7.3441606E-01
   7133.67  7.3182994E-01
   7134.00  7.3308500E-01
   7134.33  7.3690917E-01
   7134.67  7.4103359E-01
   7135.00  7.4413597E-01
   7135.33  7.4559510E-01
   7135.67  7.4601789E-01
   7136.00  7.4580563E-01
   7136.33  7.4497875E-01
   7136.67  7.4334399E-01
   7137.00  7.4059224E-01
   7137.33  7.3634676E-01
   7137.67  7.3088773E-01
   7138.00  7.2456040E-01
   7138.33  7.1777120E-01
   7138.67  7.1080247E-01
   7139.00  7.0355615E-01
   7139.33  6.9550160E-01
   7139.67  6.8604865E-01
   7140.00  6.7457656E-01
   7140.33  6.6035026E-01
   7140.67  6.4399523E-01
   7141.00  6.2652460E-01
   7141.33  6.0976537E-01
   7141.67  5.9537714E-01
   7142.00  5.8438511E-01
   7142.33  5.7763941E-01
   7142.67  5.7418141E-01
   7143.00  5.7304148E-01
   7143.33  5.7278975E-01
   7143.67  5.7168380E-01
   7144.00  5.6850931E-01
   7144.33  5.6205311E-01
   7144.67  5.5264978E-01
   7145.00  5.4089889E-01
   7145.33  5.2781201E-01
   7145.67  5.1483558E-01
   7146.00  5.0290967E-01
   7146.33  4.9297943E-01
   7146.67  4.8516069E-01
   7147.00  4.7950210E-01
   7147.33  4.7610592E-01
   7147.67  4.7446171E-01
   7148.00  4.7432109E-01
   7148.33  4.7554518E-01
   7148.67  4.7769979E-01
   7149.00  4.8055495E-01
   7149.33  4.8392275E-01
   7149.67  4.8752622E-01
   7150.00  4.9119211E-01
   7150.33  4.9471587E-01
   7150.67  4.9794150E-01
   7151.00  5.0074953E-01
   7151.33  5.0300553E-01
   7151.67  5.0480383E-01
   7152.00  5.0626666E-01
   7152.33  5.0760009E-01
   7152.67  5.0905199E-01
   7153.00  5.1077117E-01
   7153.33  5.1285968E-01
   7153.67  5.1520085E-01
   7154.00  5.1763759E-01
   7154.33  5.1991080E-01
   7154.67  5.2179750E-01
   7155.00  5.2313313E-01
   7155.33  5.2372120E-01
   7155.67  5.2361864E-01
   7156.00  5.2285565E-01
   7156.33  5.2142056E-01
   7156.67  5.1944851E-01
   7157.00  5.1697173E-01
   7157.33  5.1393436E-01
   7157.67  5.1037539E-01
   7158.00  5.0626025E-01
   7158.33  5.0147240E-01
   7158.67  4.9606126E-01
   7159.00  4.9003085E-01
   7159.33  4.8335351E-01
   7159.67  4.7619186E-01
   7160.00  4.6865575E-01
   7160.33  4.6086976E-01
   7160.67  4.5302606E-01
   7161.00  4.4526176E-01
   7161.33  4.3774372E-01
   7161.67  4.3055076E-01
   7162.00  4.2374240E-01
   7162.33  4.1740181E-01
   7162.67  4.1147420E-01
   7163.00  4.0593774E-01
   7163.33  4.0079654E-01
   7163.67  3.9596006E-01
   7164.00  3.9138988E-01
   7164.33  3.8707874E-01
   7164.67  3.8297474E-01
   7165.00  3.7906991E-01
   7165.33  3.7539263E-01
   7165.67  3.7193124E-01
   7166.00  3.6870409E-01
   7166.33  3.6576983E-01
   7166.67  3.6312291E-01
   7167.00  3.6078413E-01
   7167.33  3.5881375E-01
   7167.67  3.5718346E-01
   7168.00  3.5589773E-01
   7168.33  3.5499643E-01
   7168.67  3.5442670E-01
   7169.00  3.5417565E-01
   7169.33  3.5426220E-01
   7169.67  3.5462701E-01
   7170.00  3.5524876E-01
   7170.33  3.5612742E-01
   7170.67  3.5719925E-01
   7171.00  3.5842383E-01
   7171.33  3.5973953E-01
   7171.67  3.6101331E-01
   7172.00  3.6208699E-01
