    FDMNES
    energy     <xanes>
   7097.00  4.9075203E-03
   7097.33  5.0260806E-03
   7097.67  5.1501664E-03
   7098.00  5.2801655E-03
   7098.33  5.4173803E-03
   7098.67  5.5615694E-03
   7099.00  5.7132674E-03
   7099.33  5.8741968E-03
   7099.67  6.0441192E-03
   7100.00  6.2237931E-03
   7100.33  6.4155612E-03
   7100.67  6.6192214E-03
   7101.00  6.8358861E-03
   7101.33  7.0688492E-03
   7101.67  7.3180180E-03
   7102.00  7.5850897E-03
   7102.33  7.8748839E-03
   7102.67  8.1875800E-03
   7103.00  8.5258918E-03
   7103.33  8.8972243E-03
   7103.67  9.3024001E-03
   7104.00  9.7460185E-03
   7104.33  1.0240167E-02
   7104.67  1.0787213E-02
   7105.00  1.1395541E-02
   7105.33  1.2086468E-02
   7105.67  1.2866287E-02
   7106.00  1.3751802E-02
   7106.33  1.4784650E-02
   7106.67  1.5982139E-02
   7107.00  1.7382567E-02
   7107.33  1.9079646E-02
   7107.67  2.1126794E-02
   7108.00  2.3629097E-02
   7108.33  2.6846855E-02
   7108.67  3.0984894E-02
   7109.00  3.6428434E-02
   7109.33  4.4193001E-02
   7109.67  5.5426852E-02
   7110.00  7.2376821E-02
   7110.33  1.0148719E-01
   7110.67  1.4944266E-01
   7111.00  2.1697560E-01
   7111.33  2.8215678E-01
   7111.67  3.3357484E-01
   7112.00  3.8453468E-01
   7112.33  4.3144326E-01
   7112.67  4.4558195E-01
   7113.00  4.0326284E-01
   7113.33  3.1163909E-01
   7113.67  2.3070963E-01
   7114.00  1.7752529E-01
   7114.33  1.5151991E-01
   7114.67  1.4455353E-01
   7115.00  1.5382293E-01
   7115.33  1.6938564E-01
   7115.67  1.6732390E-01
   7116.00  1.4369276E-01
   7116.33  1.1762240E-01
   7116.67  9.9271144E-02
   7117.00  8.8460656E-02
   7117.33  8.3844147E-02
   7117.67  8.2793558E-02
   7118.00  8.3799522E-02
   7118.33  8.5884774E-02
   7118.67  8.9070368E-02
   7119.00  9.3689451E-02
   7119.33  9.9251148E-02
   7119.67  1.0436252E-01
   7120.00  1.0827717E-01
   7120.33  1.1167466E-01
   7120.67  1.1675549E-01
   7121.00  1.2501820E-01
   7121.33  1.3735586E-01
   7121.67  1.5298077E-01
   7122.00  1.7189337E-01
   7122.33  1.9492879E-01
   7122.67  2.2118067E-01
   7123.00  2.4908707E-01
   7123.33  2.7749794E-01
   7123.67  3.0719613E-01
   7124.00  3.3816145E-01
   7124.33  3.6739764E-01
   7124.67  3.9114684E-01
   7125.00  4.0710538E-01
   7125.33  4.1505056E-01
   7125.67  4.1958914E-01
   7126.00  4.2454490E-01
   7126.33  4.3412409E-01
   7126.67  4.4975197E-01
   7127.00  4.7150693E-01
   7127.33  4.9875568E-01
   7127.67  5.2928828E-01
   7128.00  5.6205081E-01
   7128.33  5.9551918E-01
   7128.67  6.2691476E-01
   7129.00  6.5491290E-01
   7129.33  6.8215721E-01
   7129.67  7.1265297E-01
   7130.00  7.4558973E-01
   7130.33  7.7485690E-01
   7130.67  7.9532130E-01
   7131.00  8.0510213E-01
   7131.33  8.0351897E-01
   7131.67  7.9391902E-01
   7132.00  7.7902124E-01
   7132.33  7.6242085E-01
   7132.67  7.4739685E-01
   7133.00  7.3547704E-01
   7133.33  7.2796687E-01
   7133.67  7.2454472E-01
   7134.00  7.2479596E-01
   7134.33  7.2765385E-01
   7134.67  7.3086465E-01
   7135.00  7.3305760E-01
   7135.33  7.3369389E-01
   7135.67  7.3362444E-01
   7136.00  7.3347512E-01
   7136.33  7.3348281E-01
   7136.67  7.3333723E-01
   7137.00  7.3258595E-01
   7137.33  7.3060103E-01
   7137.67  7.2728697E-01
   7138.00  7.2271150E-01
   7138.33  7.1700223E-01
   7138.67  7.1051090E-01
   7139.00  7.0330966E-01
   7139.33  6.9519639E-01
   7139.67  6.8593412E-01
   7140.00  6.7505630E-01
   7140.33  6.6179271E-01
   7140.67  6.4642900E-01
   7141.00  6.2968097E-01
   7141.33  6.1310620E-01
   7141.67  5.9843253E-01
   7142.00  5.8681745E-01
   7142.33  5.7928419E-01
   7142.67  5.7505192E-01
   7143.00  5.7324742E-01
   7143.33  5.7253773E-01
   7143.67  5.7119445E-01
   7144.00  5.6799988E-01
   7144.33  5.6171135E-01
   7144.67  5.5255480E-01
   7145.00  5.4105107E-01
   7145.33  5.2815077E-01
   7145.67  5.1526837E-01
   7146.00  5.0331476E-01
   7146.33  4.9322947E-01
   7146.67  4.8516281E-01
   7147.00  4.7918393E-01
   7147.33  4.7542576E-01
   7147.67  4.7340355E-01
   7148.00  4.7287984E-01
   7148.33  4.7373008E-01
   7148.67  4.7553595E-01
   7149.00  4.7808492E-01
   7149.33  4.8121811E-01
   7149.67  4.8467050E-01
   7150.00  4.8828237E-01
   7150.33  4.9186788E-01
   7150.67  4.9524450E-01
   7151.00  4.9825820E-01
   7151.33  5.0070459E-01
   7151.67  5.0259669E-01
   7152.00  5.0399800E-01
   7152.33  5.0506804E-01
   7152.67  5.0611076E-01
   7153.00  5.0733840E-01
   7153.33  5.0894029E-01
   7153.67  5.1087379E-01
   7154.00  5.1302307E-01
   7154.33  5.1516251E-01
   7154.67  5.1703820E-01
   7155.00  5.1845703E-01
   7155.33  5.1919002E-01
   7155.67  5.1925437E-01
   7156.00  5.1866312E-01
   7156.33  5.1739866E-01
   7156.67  5.1560245E-01
   7157.00  5.1331745E-01
   7157.33  5.1050487E-01
   7157.67  5.0720975E-01
   7158.00  5.0340043E-01
   7158.33  4.9896078E-01
   7158.67  4.9392310E-01
   7159.00  4.8827549E-01
   7159.33  4.8196607E-01
   7159.67  4.7513539E-01
   7160.00  4.6787640E-01
   7160.33  4.6029075E-01
   7160.67  4.5257118E-01
   7161.00  4.4485393E-01
   7161.33  4.3730264E-01
   7161.67  4.3001676E-01
   7162.00  4.2307004E-01
   7162.33  4.1656066E-01
   7162.67  4.1045382E-01
   7163.00  4.0474012E-01
   7163.33  3.9943694E-01
   7163.67  3.9445912E-01
   7164.00  3.8977048E-01
   7164.33  3.8536560E-01
   7164.67  3.8118591E-01
   7165.00  3.7721840E-01
   7165.33  3.7348611E-01
   7165.67  3.6997100E-01
   7166.00  3.6668763E-01
   7166.33  3.6369109E-01
   7166.67  3.6097540E-01
   7167.00  3.5856156E-01
   7167.33  3.5651031E-01
   7167.67  3.5479590E-01
   7168.00  3.5342491E-01
   7168.33  3.5243995E-01
   7168.67  3.5179026E-01
   7169.00  3.5146456E-01
   7169.33  3.5148393E-01
   7169.67  3.5178899E-01
   7170.00  3.5235868E-01
   7170.33  3.5319388E-01
   7170.67  3.5422955E-01
   7171.00  3.5542493E-01
   7171.33  3.5671864E-01
   7171.67  3.5797614E-01
   7172.00  3.5903811E-01
