    FDMNES
    energy     <xanes>
   7097.00  4.9136948E-03
   7097.33  5.0322575E-03
   7097.67  5.1563385E-03
   7098.00  5.2863245E-03
   7098.33  5.4235159E-03
   7098.67  5.5676710E-03
   7099.00  5.7193230E-03
   7099.33  5.8801910E-03
   7099.67  6.0500364E-03
   7100.00  6.2296157E-03
   7100.33  6.4212664E-03
   7100.67  6.6247859E-03
   7101.00  6.8412838E-03
   7101.33  7.0740460E-03
   7101.67  7.3229791E-03
   7102.00  7.5897755E-03
   7102.33  7.8792428E-03
   7102.67  8.1915586E-03
   7103.00  8.5294292E-03
   7103.33  8.9002405E-03
   7103.67  9.3048114E-03
   7104.00  9.7477288E-03
   7104.33  1.0241048E-02
   7104.67  1.0787130E-02
   7105.00  1.1394337E-02
   7105.33  1.2083930E-02
   7105.67  1.2862187E-02
   7106.00  1.3745869E-02
   7106.33  1.4776512E-02
   7106.67  1.5971386E-02
   7107.00  1.7368703E-02
   7107.33  1.9061965E-02
   7107.67  2.1104487E-02
   7108.00  2.3601147E-02
   7108.33  2.6811729E-02
   7108.67  3.0940717E-02
   7109.00  3.6372655E-02
   7109.33  4.4121321E-02
   7109.67  5.5333145E-02
   7110.00  7.2251267E-02
   7110.33  1.0130820E-01
   7110.67  1.4916620E-01
   7111.00  2.1652413E-01
   7111.33  2.8154899E-01
   7111.67  3.3366334E-01
   7112.00  3.8619440E-01
   7112.33  4.3145916E-01
   7112.67  4.4311915E-01
   7113.00  3.9818412E-01
   7113.33  3.0578039E-01
   7113.67  2.2615070E-01
   7114.00  1.7466595E-01
   7114.33  1.5004252E-01
   7114.67  1.4420227E-01
   7115.00  1.5424181E-01
   7115.33  1.6937388E-01
   7115.67  1.6598172E-01
   7116.00  1.4175438E-01
   7116.33  1.1616957E-01
   7116.67  9.8513711E-02
   7117.00  8.8359234E-02
   7117.33  8.4304455E-02
   7117.67  8.3720281E-02
   7118.00  8.5087373E-02
   7118.33  8.7464806E-02
   7118.67  9.0917998E-02
   7119.00  9.5694080E-02
   7119.33  1.0112666E-01
   7119.67  1.0587921E-01
   7120.00  1.0948700E-01
   7120.33  1.1313804E-01
   7120.67  1.1895421E-01
   7121.00  1.2814478E-01
   7121.33  1.4134227E-01
   7121.67  1.5765586E-01
   7122.00  1.7709488E-01
   7122.33  2.0048601E-01
   7122.67  2.2672421E-01
   7123.00  2.5402655E-01
   7123.33  2.8150465E-01
   7123.67  3.1062666E-01
   7124.00  3.4153415E-01
   7124.33  3.7089089E-01
   7124.67  3.9453100E-01
   7125.00  4.1018123E-01
   7125.33  4.1787859E-01
   7125.67  4.2231528E-01
   7126.00  4.2731786E-01
   7126.33  4.3703863E-01
   7126.67  4.5274624E-01
   7127.00  4.7444594E-01
   7127.33  5.0160572E-01
   7127.67  5.3229539E-01
   7128.00  5.6556757E-01
   7128.33  5.9966819E-01
   7128.67  6.3158184E-01
   7129.00  6.6021157E-01
   7129.33  6.8874100E-01
   7129.67  7.2096849E-01
   7130.00  7.5532723E-01
   7130.33  7.8458074E-01
   7130.67  8.0346357E-01
   7131.00  8.1048806E-01
   7131.33  8.0569698E-01
   7131.67  7.9323748E-01
   7132.00  7.7629678E-01
   7132.33  7.5875764E-01
   7132.67  7.4354178E-01
   7133.00  7.3180996E-01
   7133.33  7.2448436E-01
   7133.67  7.2113317E-01
   7134.00  7.2145913E-01
   7134.33  7.2454860E-01
   7134.67  7.2809534E-01
   7135.00  7.3060670E-01
   7135.33  7.3138648E-01
   7135.67  7.3120956E-01
   7136.00  7.3069284E-01
   7136.33  7.3017481E-01
   7136.67  7.2956619E-01
   7137.00  7.2853883E-01
   7137.33  7.2645985E-01
   7137.67  7.2307210E-01
   7138.00  7.1837675E-01
   7138.33  7.1257591E-01
   7138.67  7.0615912E-01
   7139.00  6.9926960E-01
   7139.33  6.9171119E-01
   7139.67  6.8313695E-01
   7140.00  6.7302728E-01
   7140.33  6.6063601E-01
   7140.67  6.4630882E-01
   7141.00  6.3081661E-01
   7141.33  6.1573063E-01
   7141.67  6.0262895E-01
   7142.00  5.9249429E-01
   7142.33  5.8608620E-01
   7142.67  5.8247971E-01
   7143.00  5.8071583E-01
   7143.33  5.7940048E-01
   7143.67  5.7700337E-01
   7144.00  5.7247696E-01
   7144.33  5.6478072E-01
   7144.67  5.5432143E-01
   7145.00  5.4172746E-01
   7145.33  5.2805677E-01
   7145.67  5.1467255E-01
   7146.00  5.0243942E-01
   7146.33  4.9224565E-01
   7146.67  4.8414346E-01
   7147.00  4.7814277E-01
   7147.33  4.7432646E-01
   7147.67  4.7219351E-01
   7148.00  4.7150649E-01
   7148.33  4.7215080E-01
   7148.67  4.7373665E-01
   7149.00  4.7607408E-01
   7149.33  4.7903254E-01
   7149.67  4.8236245E-01
   7150.00  4.8591623E-01
   7150.33  4.8952507E-01
   7150.67  4.9299753E-01
   7151.00  4.9617160E-01
   7151.33  4.9882755E-01
   7151.67  5.0094079E-01
   7152.00  5.0254386E-01
   7152.33  5.0376176E-01
   7152.67  5.0489440E-01
   7153.00  5.0616237E-01
   7153.33  5.0777530E-01
   7153.67  5.0972217E-01
   7154.00  5.1190774E-01
   7154.33  5.1412438E-01
   7154.67  5.1611336E-01
   7155.00  5.1767230E-01
   7155.33  5.1855918E-01
   7155.67  5.1877775E-01
   7156.00  5.1833588E-01
   7156.33  5.1721483E-01
   7156.67  5.1555958E-01
   7157.00  5.1341580E-01
   7157.33  5.1074684E-01
   7157.67  5.0759753E-01
   7158.00  5.0393512E-01
   7158.33  4.9964132E-01
   7158.67  4.9474591E-01
   7159.00  4.8923407E-01
   7159.33  4.8304801E-01
   7159.67  4.7632374E-01
   7160.00  4.6914828E-01
   7160.33  4.6161316E-01
   7160.67  4.5390949E-01
   7161.00  4.4617028E-01
   7161.33  4.3855305E-01
   7161.67  4.3116518E-01
   7162.00  4.2408627E-01
   7162.33  4.1742070E-01
   7162.67  4.1114751E-01
   7163.00  4.0526841E-01
   7163.33  3.9981624E-01
   7163.67  3.9471725E-01
   7164.00  3.8994488E-01
   7164.33  3.8550685E-01
   7164.67  3.8134144E-01
   7165.00  3.7743336E-01
   7165.33  3.7380292E-01
   7165.67  3.7041624E-01
   7166.00  3.6727710E-01
   7166.33  3.6442878E-01
   7166.67  3.6185449E-01
   7167.00  3.5956870E-01
   7167.33  3.5762545E-01
   7167.67  3.5599972E-01
   7168.00  3.5469856E-01
   7168.33  3.5376448E-01
   7168.67  3.5315171E-01
   7169.00  3.5285161E-01
   7169.33  3.5288717E-01
   7169.67  3.5320268E-01
   7170.00  3.5377906E-01
   7170.33  3.5461907E-01
   7170.67  3.5565972E-01
   7171.00  3.5686153E-01
   7171.33  3.5816431E-01
   7171.67  3.5943278E-01
   7172.00  3.6050583E-01
