    FDMNES
    energy     <xanes>
   7097.00  5.1211760E-03
   7097.33  5.2405483E-03
   7097.67  5.3652980E-03
   7098.00  5.4957865E-03
   7098.33  5.6332539E-03
   7098.67  5.7774419E-03
   7099.00  5.9288412E-03
   7099.33  6.0890693E-03
   7099.67  6.2578598E-03
   7100.00  6.4358969E-03
   7100.33  6.6253441E-03
   7100.67  6.8259499E-03
   7101.00  7.0386978E-03
   7101.33  7.2665695E-03
   7101.67  7.5093805E-03
   7102.00  7.7685961E-03
   7102.33  8.0484776E-03
   7102.67  8.3490221E-03
   7103.00  8.6725104E-03
   7103.33  9.0253084E-03
   7103.67  9.4078570E-03
   7104.00  9.8239028E-03
   7104.33  1.0283499E-02
   7104.67  1.0788158E-02
   7105.00  1.1344471E-02
   7105.33  1.1969494E-02
   7105.67  1.2667437E-02
   7106.00  1.3450988E-02
   7106.33  1.4352014E-02
   7106.67  1.5382155E-02
   7107.00  1.6569084E-02
   7107.33  1.7981042E-02
   7107.67  1.9653524E-02
   7108.00  2.1659076E-02
   7108.33  2.4177761E-02
   7108.67  2.7343429E-02
   7109.00  3.1411952E-02
   7109.33  3.7057748E-02
   7109.67  4.5027349E-02
   7110.00  5.6788844E-02
   7110.33  7.6495145E-02
   7110.67  1.0770768E-01
   7111.00  1.4743335E-01
   7111.33  1.7883074E-01
   7111.67  2.1452516E-01
   7112.00  2.7027915E-01
   7112.33  3.1529265E-01
   7112.67  3.3665942E-01
   7113.00  3.7368437E-01
   7113.33  4.2967676E-01
   7113.67  4.2837714E-01
   7114.00  3.5393354E-01
   7114.33  2.6411719E-01
   7114.67  2.0481076E-01
   7115.00  1.7670967E-01
   7115.33  1.7506873E-01
   7115.67  1.9344961E-01
   7116.00  2.2940996E-01
   7116.33  2.7089320E-01
   7116.67  2.9693578E-01
   7117.00  3.0592444E-01
   7117.33  3.0967112E-01
   7117.67  3.1188448E-01
   7118.00  3.0792682E-01
   7118.33  2.9279888E-01
   7118.67  2.7114594E-01
   7119.00  2.4805803E-01
   7119.33  2.2675254E-01
   7119.67  2.0784255E-01
   7120.00  1.9184866E-01
   7120.33  1.7940554E-01
   7120.67  1.6976875E-01
   7121.00  1.6256632E-01
   7121.33  1.5786229E-01
   7121.67  1.5525593E-01
   7122.00  1.5457302E-01
   7122.33  1.5568725E-01
   7122.67  1.5780188E-01
   7123.00  1.6014844E-01
   7123.33  1.6206406E-01
   7123.67  1.6420453E-01
   7124.00  1.6801488E-01
   7124.33  1.7548222E-01
   7124.67  1.8698984E-01
   7125.00  2.0261580E-01
   7125.33  2.2236804E-01
   7125.67  2.4502234E-01
   7126.00  2.6971210E-01
   7126.33  2.9488191E-01
   7126.67  3.1868146E-01
   7127.00  3.4042135E-01
   7127.33  3.6039497E-01
   7127.67  3.7993876E-01
   7128.00  4.0005809E-01
   7128.33  4.2167867E-01
   7128.67  4.4443491E-01
   7129.00  4.6723131E-01
   7129.33  4.8792293E-01
   7129.67  5.0567622E-01
   7130.00  5.2176205E-01
   7130.33  5.3992252E-01
   7130.67  5.6263598E-01
   7131.00  5.9004828E-01
   7131.33  6.2056537E-01
   7131.67  6.5113864E-01
   7132.00  6.8005240E-01
   7132.33  7.0637174E-01
   7132.67  7.3075208E-01
   7133.00  7.5364026E-01
   7133.33  7.7501341E-01
   7133.67  7.9457045E-01
   7134.00  8.1125150E-01
   7134.33  8.2278851E-01
   7134.67  8.2883621E-01
   7135.00  8.2973240E-01
   7135.33  8.2590889E-01
   7135.67  8.1870921E-01
   7136.00  8.0856563E-01
   7136.33  7.9541764E-01
   7136.67  7.7978055E-01
   7137.00  7.6186312E-01
   7137.33  7.4186647E-01
   7137.67  7.2072785E-01
   7138.00  6.9925254E-01
   7138.33  6.7854710E-01
   7138.67  6.5940910E-01
   7139.00  6.4236054E-01
   7139.33  6.2800583E-01
   7139.67  6.1609612E-01
   7140.00  6.0656411E-01
   7140.33  5.9958036E-01
   7140.67  5.9476096E-01
   7141.00  5.9203118E-01
   7141.33  5.9153653E-01
   7141.67  5.9286389E-01
   7142.00  5.9578424E-01
   7142.33  6.0003829E-01
   7142.67  6.0490373E-01
   7143.00  6.0977173E-01
   7143.33  6.1377093E-01
   7143.67  6.1627328E-01
   7144.00  6.1680434E-01
   7144.33  6.1479996E-01
   7144.67  6.1057701E-01
   7145.00  6.0436061E-01
   7145.33  5.9633290E-01
   7145.67  5.8717272E-01
   7146.00  5.7734355E-01
   7146.33  5.6739100E-01
   7146.67  5.5785975E-01
   7147.00  5.4914340E-01
   7147.33  5.4174464E-01
   7147.67  5.3574355E-01
   7148.00  5.3120369E-01
   7148.33  5.2823494E-01
   7148.67  5.2648910E-01
   7149.00  5.2576913E-01
   7149.33  5.2593554E-01
   7149.67  5.2667097E-01
   7150.00  5.2781635E-01
   7150.33  5.2925882E-01
   7150.67  5.3086335E-01
   7151.00  5.3257904E-01
   7151.33  5.3439297E-01
   7151.67  5.3629656E-01
   7152.00  5.3830526E-01
   7152.33  5.4046316E-01
   7152.67  5.4278472E-01
   7153.00  5.4528891E-01
   7153.33  5.4801565E-01
   7153.67  5.5095048E-01
   7154.00  5.5409307E-01
   7154.33  5.5744311E-01
   7154.67  5.6092989E-01
   7155.00  5.6449680E-01
   7155.33  5.6806285E-01
   7155.67  5.7153532E-01
   7156.00  5.7482896E-01
   7156.33  5.7780896E-01
   7156.67  5.8041655E-01
   7157.00  5.8258251E-01
   7157.33  5.8418298E-01
   7157.67  5.8524522E-01
   7158.00  5.8576068E-01
   7158.33  5.8567845E-01
   7158.67  5.8510510E-01
   7159.00  5.8409067E-01
   7159.33  5.8265846E-01
   7159.67  5.8092993E-01
   7160.00  5.7896875E-01
   7160.33  5.7682269E-01
   7160.67  5.7456874E-01
   7161.00  5.7224225E-01
   7161.33  5.6986540E-01
   7161.67  5.6745616E-01
   7162.00  5.6500606E-01
   7162.33  5.6247985E-01
   7162.67  5.5984960E-01
   7163.00  5.5708135E-01
   7163.33  5.5411497E-01
   7163.67  5.5094155E-01
   7164.00  5.4754387E-01
   7164.33  5.4388555E-01
   7164.67  5.4000314E-01
   7165.00  5.3591530E-01
   7165.33  5.3163505E-01
   7165.67  5.2723062E-01
   7166.00  5.2275077E-01
   7166.33  5.1825626E-01
   7166.67  5.1381199E-01
   7167.00  5.0946996E-01
   7167.33  5.0530241E-01
   7167.67  5.0132930E-01
   7168.00  4.9757232E-01
   7168.33  4.9407189E-01
   7168.67  4.9079502E-01
   7169.00  4.8772608E-01
   7169.33  4.8485586E-01
   7169.67  4.8212354E-01
   7170.00  4.7949607E-01
   7170.33  4.7694857E-01
   7170.67  4.7445118E-01
   7171.00  4.7200479E-01
   7171.33  4.6965960E-01
   7171.67  4.6751076E-01
   7172.00  4.6571428E-01
