    FDMNES
    energy     <xanes>
   7097.00  5.2398659E-03
   7097.33  5.3619029E-03
   7097.67  5.4894034E-03
   7098.00  5.6227302E-03
   7098.33  5.7631356E-03
   7098.67  5.9103505E-03
   7099.00  6.0648653E-03
   7099.33  6.2283067E-03
   7099.67  6.4003939E-03
   7100.00  6.5818070E-03
   7100.33  6.7747104E-03
   7100.67  6.9788326E-03
   7101.00  7.1951440E-03
   7101.33  7.4266091E-03
   7101.67  7.6730119E-03
   7102.00  7.9357861E-03
   7102.33  8.2191345E-03
   7102.67  8.5230000E-03
   7103.00  8.8495911E-03
   7103.33  9.2051228E-03
   7103.67  9.5899302E-03
   7104.00  1.0007595E-02
   7104.33  1.0467805E-02
   7104.67  1.0971839E-02
   7105.00  1.1525897E-02
   7105.33  1.2146136E-02
   7105.67  1.2836186E-02
   7106.00  1.3607725E-02
   7106.33  1.4490253E-02
   7106.67  1.5493738E-02
   7107.00  1.6642907E-02
   7107.33  1.7998901E-02
   7107.67  1.9591328E-02
   7108.00  2.1482247E-02
   7108.33  2.3825092E-02
   7108.67  2.6725846E-02
   7109.00  3.0388382E-02
   7109.33  3.5340580E-02
   7109.67  4.2121182E-02
   7110.00  5.1778817E-02
   7110.33  6.7292857E-02
   7110.67  9.2061899E-02
   7111.00  1.2886977E-01
   7111.33  1.7398823E-01
   7111.67  2.1646943E-01
   7112.00  2.5331074E-01
   7112.33  2.8817605E-01
   7112.67  3.1617494E-01
   7113.00  3.3279183E-01
   7113.33  3.5263600E-01
   7113.67  3.8473613E-01
   7114.00  4.1425244E-01
   7114.33  4.1619483E-01
   7114.67  3.9518772E-01
   7115.00  3.6210007E-01
   7115.33  3.2769313E-01
   7115.67  2.9984007E-01
   7116.00  2.8175296E-01
   7116.33  2.7487369E-01
   7116.67  2.7479537E-01
   7117.00  2.7647865E-01
   7117.33  2.7438350E-01
   7117.67  2.6791077E-01
   7118.00  2.5770400E-01
   7118.33  2.4398651E-01
   7118.67  2.2855718E-01
   7119.00  2.1313172E-01
   7119.33  1.9949065E-01
   7119.67  1.8817344E-01
   7120.00  1.7909424E-01
   7120.33  1.7170491E-01
   7120.67  1.6496895E-01
   7121.00  1.5859935E-01
   7121.33  1.5300641E-01
   7121.67  1.4870616E-01
   7122.00  1.4612013E-01
   7122.33  1.4574255E-01
   7122.67  1.4729844E-01
   7123.00  1.5063494E-01
   7123.33  1.5594534E-01
   7123.67  1.6340968E-01
   7124.00  1.7366057E-01
   7124.33  1.8792184E-01
   7124.67  2.0631700E-01
   7125.00  2.2904428E-01
   7125.33  2.5638293E-01
   7125.67  2.8699239E-01
   7126.00  3.1969028E-01
   7126.33  3.5272233E-01
   7126.67  3.8416370E-01
   7127.00  4.1275626E-01
   7127.33  4.3742443E-01
   7127.67  4.5892756E-01
   7128.00  4.7798416E-01
   7128.33  4.9482446E-01
   7128.67  5.0962371E-01
   7129.00  5.2247233E-01
   7129.33  5.3438147E-01
   7129.67  5.4744786E-01
   7130.00  5.6319466E-01
   7130.33  5.8280004E-01
   7130.67  6.0531935E-01
   7131.00  6.2956954E-01
   7131.33  6.5396103E-01
   7131.67  6.7742827E-01
   7132.00  6.9993092E-01
   7132.33  7.2196058E-01
   7132.67  7.4372511E-01
   7133.00  7.6466443E-01
   7133.33  7.8343940E-01
   7133.67  7.9925855E-01
   7134.00  8.1152913E-01
   7134.33  8.1941044E-01
   7134.67  8.2319993E-01
   7135.00  8.2268547E-01
   7135.33  8.1690262E-01
   7135.67  8.0606533E-01
   7136.00  7.9009609E-01
   7136.33  7.6886361E-01
   7136.67  7.4406755E-01
   7137.00  7.1708083E-01
   7137.33  6.8967120E-01
   7137.67  6.6363926E-01
   7138.00  6.4025147E-01
   7138.33  6.2101695E-01
   7138.67  6.0599382E-01
   7139.00  5.9521600E-01
   7139.33  5.8883145E-01
   7139.67  5.8577437E-01
   7140.00  5.8548297E-01
   7140.33  5.8759571E-01
   7140.67  5.9130322E-01
   7141.00  5.9622048E-01
   7141.33  6.0207322E-01
   7141.67  6.0841117E-01
   7142.00  6.1492402E-01
   7142.33  6.2116755E-01
   7142.67  6.2668674E-01
   7143.00  6.3102534E-01
   7143.33  6.3345176E-01
   7143.67  6.3376326E-01
   7144.00  6.3175701E-01
   7144.33  6.2713263E-01
   7144.67  6.2040784E-01
   7145.00  6.1192271E-01
   7145.33  6.0200424E-01
   7145.67  5.9129047E-01
   7146.00  5.8011057E-01
   7146.33  5.6873905E-01
   7146.67  5.5743417E-01
   7147.00  5.4635933E-01
   7147.33  5.3571208E-01
   7147.67  5.2556251E-01
   7148.00  5.1599406E-01
   7148.33  5.0717266E-01
   7148.67  4.9908733E-01
   7149.00  4.9179319E-01
   7149.33  4.8545237E-01
   7149.67  4.8000586E-01
   7150.00  4.7548511E-01
   7150.33  4.7203372E-01
   7150.67  4.6954453E-01
   7151.00  4.6801361E-01
   7151.33  4.6752731E-01
   7151.67  4.6791219E-01
   7152.00  4.6909844E-01
   7152.33  4.7107085E-01
   7152.67  4.7362334E-01
   7153.00  4.7664750E-01
   7153.33  4.8005879E-01
   7153.67  4.8369249E-01
   7154.00  4.8745509E-01
   7154.33  4.9125979E-01
   7154.67  4.9503024E-01
   7155.00  4.9871959E-01
   7155.33  5.0227302E-01
   7155.67  5.0567931E-01
   7156.00  5.0892442E-01
   7156.33  5.1197814E-01
   7156.67  5.1485979E-01
   7157.00  5.1757412E-01
   7157.33  5.2011328E-01
   7157.67  5.2251281E-01
   7158.00  5.2478808E-01
   7158.33  5.2694561E-01
   7158.67  5.2902005E-01
   7159.00  5.3102944E-01
   7159.33  5.3298705E-01
   7159.67  5.3491400E-01
   7160.00  5.3681938E-01
   7160.33  5.3870602E-01
   7160.67  5.4057439E-01
   7161.00  5.4241792E-01
   7161.33  5.4421768E-01
   7161.67  5.4595658E-01
   7162.00  5.4761115E-01
   7162.33  5.4913836E-01
   7162.67  5.5052402E-01
   7163.00  5.5174308E-01
   7163.33  5.5273571E-01
   7163.67  5.5349214E-01
   7164.00  5.5399446E-01
   7164.33  5.5419676E-01
   7164.67  5.5412405E-01
   7165.00  5.5377222E-01
   7165.33  5.5310588E-01
   7165.67  5.5216485E-01
   7166.00  5.5095653E-01
   7166.33  5.4945950E-01
   7166.67  5.4771826E-01
   7167.00  5.4574399E-01
   7167.33  5.4352103E-01
   7167.67  5.4109003E-01
   7168.00  5.3846466E-01
   7168.33  5.3563820E-01
   7168.67  5.3264885E-01
   7169.00  5.2950847E-01
   7169.33  5.2621489E-01
   7169.67  5.2280500E-01
   7170.00  5.1930118E-01
   7170.33  5.1572992E-01
   7170.67  5.1214535E-01
   7171.00  5.0860478E-01
   7171.33  5.0523105E-01
   7171.67  5.0218299E-01
   7172.00  4.9968297E-01
