    FDMNES
    energy     <xanes>
   7097.00  5.1091449E-03
   7097.33  5.2278551E-03
   7097.67  5.3519161E-03
   7098.00  5.4816892E-03
   7098.33  5.6184114E-03
   7098.67  5.7618285E-03
   7099.00  5.9124325E-03
   7099.33  6.0718399E-03
   7099.67  6.2397902E-03
   7100.00  6.4169713E-03
   7100.33  6.6055511E-03
   7100.67  6.8052873E-03
   7101.00  7.0171723E-03
   7101.33  7.2442039E-03
   7101.67  7.4862130E-03
   7102.00  7.7446849E-03
   7102.33  8.0239221E-03
   7102.67  8.3239506E-03
   7103.00  8.6470952E-03
   7103.33  8.9998188E-03
   7103.67  9.3826211E-03
   7104.00  9.7993484E-03
   7104.33  1.0260279E-02
   7104.67  1.0767060E-02
   7105.00  1.1326517E-02
   7105.33  1.1956253E-02
   7105.67  1.2660818E-02
   7106.00  1.3453510E-02
   7106.33  1.4367627E-02
   7106.67  1.5415813E-02
   7107.00  1.6627524E-02
   7107.33  1.8075305E-02
   7107.67  1.9798217E-02
   7108.00  2.1875151E-02
   7108.33  2.4502228E-02
   7108.67  2.7829858E-02
   7109.00  3.2144469E-02
   7109.33  3.8205030E-02
   7109.67  4.6873165E-02
   7110.00  5.9847548E-02
   7110.33  8.1977003E-02
   7110.67  1.1765056E-01
   7111.00  1.6403334E-01
   7111.33  1.9892795E-01
   7111.67  2.2340222E-01
   7112.00  2.5309259E-01
   7112.33  2.9134278E-01
   7112.67  3.2855896E-01
   7113.00  3.6399252E-01
   7113.33  3.8433194E-01
   7113.67  3.7729579E-01
   7114.00  3.5321990E-01
   7114.33  3.2470275E-01
   7114.67  2.9356557E-01
   7115.00  2.6301401E-01
   7115.33  2.3968843E-01
   7115.67  2.2490645E-01
   7116.00  2.1762857E-01
   7116.33  2.1661142E-01
   7116.67  2.1837116E-01
   7117.00  2.1683503E-01
   7117.33  2.0391352E-01
   7117.67  1.8528003E-01
   7118.00  1.6877918E-01
   7118.33  1.5936337E-01
   7118.67  1.5614527E-01
   7119.00  1.5759827E-01
   7119.33  1.6132450E-01
   7119.67  1.6357926E-01
   7120.00  1.6208738E-01
   7120.33  1.5732043E-01
   7120.67  1.5315798E-01
   7121.00  1.5193161E-01
   7121.33  1.5502269E-01
   7121.67  1.6171776E-01
   7122.00  1.7158611E-01
   7122.33  1.8447313E-01
   7122.67  1.9919269E-01
   7123.00  2.1462173E-01
   7123.33  2.2970496E-01
   7123.67  2.4426257E-01
   7124.00  2.5824253E-01
   7124.33  2.7092102E-01
   7124.67  2.8173396E-01
   7125.00  2.9072388E-01
   7125.33  2.9890381E-01
   7125.67  3.0787905E-01
   7126.00  3.1860519E-01
   7126.33  3.3197925E-01
   7126.67  3.4800882E-01
   7127.00  3.6656477E-01
   7127.33  3.8732554E-01
   7127.67  4.1012766E-01
   7128.00  4.3593460E-01
   7128.33  4.6607132E-01
   7128.67  4.9942151E-01
   7129.00  5.3419427E-01
   7129.33  5.6723719E-01
   7129.67  5.9609628E-01
   7130.00  6.1995221E-01
   7130.33  6.3962824E-01
   7130.67  6.5844105E-01
   7131.00  6.7879980E-01
   7131.33  7.0218239E-01
   7131.67  7.2683324E-01
   7132.00  7.5011737E-01
   7132.33  7.6866323E-01
   7132.67  7.8180424E-01
   7133.00  7.8985640E-01
   7133.33  7.9341587E-01
   7133.67  7.9412484E-01
   7134.00  7.9273014E-01
   7134.33  7.8955832E-01
   7134.67  7.8499230E-01
   7135.00  7.7900376E-01
   7135.33  7.7126924E-01
   7135.67  7.6182499E-01
   7136.00  7.5054652E-01
   7136.33  7.3715284E-01
   7136.67  7.2209607E-01
   7137.00  7.0586419E-01
   7137.33  6.8929960E-01
   7137.67  6.7346745E-01
   7138.00  6.5919587E-01
   7138.33  6.4752579E-01
   7138.67  6.3862450E-01
   7139.00  6.3264284E-01
   7139.33  6.2985313E-01
   7139.67  6.2956995E-01
   7140.00  6.3133238E-01
   7140.33  6.3458991E-01
   7140.67  6.3831641E-01
   7141.00  6.4173180E-01
   7141.33  6.4389233E-01
   7141.67  6.4443798E-01
   7142.00  6.4328032E-01
   7142.33  6.4049736E-01
   7142.67  6.3674185E-01
   7143.00  6.3242183E-01
   7143.33  6.2784395E-01
   7143.67  6.2317054E-01
   7144.00  6.1837351E-01
   7144.33  6.1328354E-01
   7144.67  6.0775680E-01
   7145.00  6.0165754E-01
   7145.33  5.9479628E-01
   7145.67  5.8722926E-01
   7146.00  5.7899896E-01
   7146.33  5.7016282E-01
   7146.67  5.6098194E-01
   7147.00  5.5165996E-01
   7147.33  5.4246177E-01
   7147.67  5.3360987E-01
   7148.00  5.2527518E-01
   7148.33  5.1767144E-01
   7148.67  5.1076230E-01
   7149.00  5.0454891E-01
   7149.33  4.9910698E-01
   7149.67  4.9433284E-01
   7150.00  4.9020636E-01
   7150.33  4.8677564E-01
   7150.67  4.8393304E-01
   7151.00  4.8165231E-01
   7151.33  4.7996502E-01
   7151.67  4.7876604E-01
   7152.00  4.7801802E-01
   7152.33  4.7772407E-01
   7152.67  4.7778414E-01
   7153.00  4.7815563E-01
   7153.33  4.7882321E-01
   7153.67  4.7970864E-01
   7154.00  4.8077587E-01
   7154.33  4.8200351E-01
   7154.67  4.8333498E-01
   7155.00  4.8473508E-01
   7155.33  4.8616240E-01
   7155.67  4.8756614E-01
   7156.00  4.8890297E-01
   7156.33  4.9010712E-01
   7156.67  4.9114491E-01
   7157.00  4.9197949E-01
   7157.33  4.9254875E-01
   7157.67  4.9286444E-01
   7158.00  4.9292427E-01
   7158.33  4.9271044E-01
   7158.67  4.9228246E-01
   7159.00  4.9167575E-01
   7159.33  4.9091978E-01
   7159.67  4.9008022E-01
   7160.00  4.8919991E-01
   7160.33  4.8832342E-01
   7160.67  4.8748630E-01
   7161.00  4.8671323E-01
   7161.33  4.8603582E-01
   7161.67  4.8545314E-01
   7162.00  4.8496043E-01
   7162.33  4.8455331E-01
   7162.67  4.8420981E-01
   7163.00  4.8391838E-01
   7163.33  4.8366817E-01
   7163.67  4.8343892E-01
   7164.00  4.8321794E-01
   7164.33  4.8299241E-01
   7164.67  4.8275422E-01
   7165.00  4.8249865E-01
   7165.33  4.8222040E-01
   7165.67  4.8192431E-01
   7166.00  4.8161966E-01
   7166.33  4.8131930E-01
   7166.67  4.8103032E-01
   7167.00  4.8076184E-01
   7167.33  4.8053217E-01
   7167.67  4.8035131E-01
   7168.00  4.8022983E-01
   7168.33  4.8018602E-01
   7168.67  4.8021741E-01
   7169.00  4.8032563E-01
   7169.33  4.8051624E-01
   7169.67  4.8076990E-01
   7170.00  4.8107324E-01
   7170.33  4.8141030E-01
   7170.67  4.8175468E-01
   7171.00  4.8208601E-01
   7171.33  4.8237692E-01
   7171.67  4.8261309E-01
   7172.00  4.8278613E-01
