    FDMNES
    energy     <xanes>
   7097.00  4.5538618E-03
   7097.33  4.6489823E-03
   7097.67  4.7478755E-03
   7098.00  4.8507714E-03
   7098.33  4.9585016E-03
   7098.67  5.0708553E-03
   7099.00  5.1881409E-03
   7099.33  5.3114228E-03
   7099.67  5.4404804E-03
   7100.00  5.5757389E-03
   7100.33  5.7185976E-03
   7100.67  5.8688400E-03
   7101.00  6.0270728E-03
   7101.33  6.1951962E-03
   7101.67  6.3730310E-03
   7102.00  6.5614781E-03
   7102.33  6.7632236E-03
   7102.67  6.9782013E-03
   7103.00  7.2078175E-03
   7103.33  7.4560643E-03
   7103.67  7.7231654E-03
   7104.00  8.0114557E-03
   7104.33  8.3272594E-03
   7104.67  8.6715265E-03
   7105.00  9.0484482E-03
   7105.33  9.4689080E-03
   7105.67  9.9357513E-03
   7106.00  1.0457306E-02
   7106.33  1.1054487E-02
   7106.67  1.1735567E-02
   7107.00  1.2519532E-02
   7107.33  1.3453196E-02
   7107.67  1.4562994E-02
   7108.00  1.5901551E-02
   7108.33  1.7599892E-02
   7108.67  1.9762220E-02
   7109.00  2.2585236E-02
   7109.33  2.6590067E-02
   7109.67  3.2374575E-02
   7110.00  4.1112076E-02
   7110.33  5.6199136E-02
   7110.67  8.1416127E-02
   7111.00  1.1852165E-01
   7111.33  1.5799588E-01
   7111.67  1.7446004E-01
   7112.00  1.6379181E-01
   7112.33  1.5945087E-01
   7112.67  1.6653374E-01
   7113.00  1.7199845E-01
   7113.33  1.5661197E-01
   7113.67  1.2657111E-01
   7114.00  9.8439962E-02
   7114.33  7.9463309E-02
   7114.67  6.7005361E-02
   7115.00  5.9509493E-02
   7115.33  5.6107160E-02
   7115.67  5.5464061E-02
   7116.00  5.7144224E-02
   7116.33  6.1207051E-02
   7116.67  6.7443522E-02
   7117.00  7.6085474E-02
   7117.33  8.7982317E-02
   7117.67  1.0350460E-01
   7118.00  1.2343774E-01
   7118.33  1.4918294E-01
   7118.67  1.7947824E-01
   7119.00  2.1115117E-01
   7119.33  2.3725182E-01
   7119.67  2.5530552E-01
   7120.00  2.6842273E-01
   7120.33  2.8218576E-01
   7120.67  2.9906597E-01
   7121.00  3.1886300E-01
   7121.33  3.4039844E-01
   7121.67  3.6193318E-01
   7122.00  3.8260866E-01
   7122.33  4.0206294E-01
   7122.67  4.2066404E-01
   7123.00  4.3856895E-01
   7123.33  4.5546397E-01
   7123.67  4.7085578E-01
   7124.00  4.8420086E-01
   7124.33  4.9496110E-01
   7124.67  5.0354183E-01
   7125.00  5.1017196E-01
   7125.33  5.1517215E-01
   7125.67  5.1991058E-01
   7126.00  5.2601340E-01
   7126.33  5.3556554E-01
   7126.67  5.4889502E-01
   7127.00  5.6585680E-01
   7127.33  5.8612048E-01
   7127.67  6.0841125E-01
   7128.00  6.3178445E-01
   7128.33  6.5445736E-01
   7128.67  6.7379341E-01
   7129.00  6.8674759E-01
   7129.33  6.8850666E-01
   7129.67  6.7911026E-01
   7130.00  6.6183241E-01
   7130.33  6.4433591E-01
   7130.67  6.3249499E-01
   7131.00  6.2724542E-01
   7131.33  6.2744666E-01
   7131.67  6.3037310E-01
   7132.00  6.3484605E-01
   7132.33  6.4036216E-01
   7132.67  6.4661409E-01
   7133.00  6.5338831E-01
   7133.33  6.5978284E-01
   7133.67  6.6399410E-01
   7134.00  6.6412574E-01
   7134.33  6.5842391E-01
   7134.67  6.4823000E-01
   7135.00  6.3490175E-01
   7135.33  6.1975631E-01
   7135.67  6.0412525E-01
   7136.00  5.8869177E-01
   7136.33  5.7411738E-01
   7136.67  5.6070708E-01
   7137.00  5.4870993E-01
   7137.33  5.3851717E-01
   7137.67  5.3003121E-01
   7138.00  5.2328715E-01
   7138.33  5.1847108E-01
   7138.67  5.1525833E-01
   7139.00  5.1349660E-01
   7139.33  5.1312443E-01
   7139.67  5.1376685E-01
   7140.00  5.1525154E-01
   7140.33  5.1748848E-01
   7140.67  5.2024703E-01
   7141.00  5.2341856E-01
   7141.33  5.2693212E-01
   7141.67  5.3065846E-01
   7142.00  5.3453289E-01
   7142.33  5.3850580E-01
   7142.67  5.4251823E-01
   7143.00  5.4653508E-01
   7143.33  5.5052076E-01
   7143.67  5.5446401E-01
   7144.00  5.5835872E-01
   7144.33  5.6218123E-01
   7144.67  5.6590965E-01
   7145.00  5.6950641E-01
   7145.33  5.7289168E-01
   7145.67  5.7602224E-01
   7146.00  5.7883539E-01
   7146.33  5.8120682E-01
   7146.67  5.8311452E-01
   7147.00  5.8450498E-01
   7147.33  5.8525689E-01
   7147.67  5.8540423E-01
   7148.00  5.8492452E-01
   7148.33  5.8371886E-01
   7148.67  5.8185245E-01
   7149.00  5.7930768E-01
   7149.33  5.7597191E-01
   7149.67  5.7191996E-01
   7150.00  5.6715338E-01
   7150.33  5.6159946E-01
   7150.67  5.5537949E-01
   7151.00  5.4854238E-01
   7151.33  5.4110911E-01
   7151.67  5.3326073E-01
   7152.00  5.2511001E-01
   7152.33  5.1677552E-01
   7152.67  5.0841602E-01
   7153.00  5.0014321E-01
   7153.33  4.9209739E-01
   7153.67  4.8434828E-01
   7154.00  4.7696004E-01
   7154.33  4.7003994E-01
   7154.67  4.6357350E-01
   7155.00  4.5758121E-01
   7155.33  4.5213684E-01
   7155.67  4.4718485E-01
   7156.00  4.4272577E-01
   7156.33  4.3881083E-01
   7156.67  4.3536059E-01
   7157.00  4.3235724E-01
   7157.33  4.2982879E-01
   7157.67  4.2769085E-01
   7158.00  4.2591051E-01
   7158.33  4.2448136E-01
   7158.67  4.2331306E-01
   7159.00  4.2235926E-01
   7159.33  4.2158716E-01
   7159.67  4.2092816E-01
   7160.00  4.2034679E-01
   7160.33  4.1981746E-01
   7160.67  4.1931645E-01
   7161.00  4.1883962E-01
   7161.33  4.1839629E-01
   7161.67  4.1799654E-01
   7162.00  4.1765634E-01
   7162.33  4.1740818E-01
   7162.67  4.1726514E-01
   7163.00  4.1724362E-01
   7163.33  4.1737205E-01
   7163.67  4.1763725E-01
   7164.00  4.1803612E-01
   7164.33  4.1857337E-01
   7164.67  4.1921761E-01
   7165.00  4.1995452E-01
   7165.33  4.2077778E-01
   7165.67  4.2166307E-01
   7166.00  4.2259688E-01
   7166.33  4.2356927E-01
   7166.67  4.2456701E-01
   7167.00  4.2558599E-01
   7167.33  4.2662796E-01
   7167.67  4.2769301E-01
   7168.00  4.2878570E-01
   7168.33  4.2991671E-01
   7168.67  4.3108842E-01
   7169.00  4.3230627E-01
   7169.33  4.3358200E-01
   7169.67  4.3491199E-01
   7170.00  4.3629552E-01
   7170.33  4.3773304E-01
   7170.67  4.3920536E-01
   7171.00  4.4069119E-01
   7171.33  4.4214124E-01
   7171.67  4.4347514E-01
   7172.00  4.4458216E-01
