    FDMNES
    energy     <xanes>
   7097.00  4.3217727E-03
   7097.33  4.4066804E-03
   7097.67  4.4947977E-03
   7098.00  4.5863149E-03
   7098.33  4.6819310E-03
   7098.67  4.7814601E-03
   7099.00  4.8851568E-03
   7099.33  4.9939116E-03
   7099.67  5.1075299E-03
   7100.00  5.2263618E-03
   7100.33  5.3515730E-03
   7100.67  5.4829714E-03
   7101.00  5.6210556E-03
   7101.33  5.7674023E-03
   7101.67  5.9218490E-03
   7102.00  6.0851353E-03
   7102.33  6.2594818E-03
   7102.67  6.4448173E-03
   7103.00  6.6422949E-03
   7103.33  6.8552041E-03
   7103.67  7.0837092E-03
   7104.00  7.3297213E-03
   7104.33  7.5984360E-03
   7104.67  7.8906069E-03
   7105.00  8.2096580E-03
   7105.33  8.5645020E-03
   7105.67  8.9574278E-03
   7106.00  9.3952215E-03
   7106.33  9.8949487E-03
   7106.67  1.0463288E-02
   7107.00  1.1115660E-02
   7107.33  1.1890125E-02
   7107.67  1.2808039E-02
   7108.00  1.3912060E-02
   7108.33  1.5308511E-02
   7108.67  1.7081969E-02
   7109.00  1.9392564E-02
   7109.33  2.2666099E-02
   7109.67  2.7395899E-02
   7110.00  3.4552555E-02
   7110.33  4.6907682E-02
   7110.67  6.6994790E-02
   7111.00  9.3577198E-02
   7111.33  1.1758116E-01
   7111.67  1.3897256E-01
   7112.00  1.5373659E-01
   7112.33  1.4567593E-01
   7112.67  1.3060611E-01
   7113.00  1.2098457E-01
   7113.33  1.1945799E-01
   7113.67  1.2308265E-01
   7114.00  1.2789854E-01
   7114.33  1.2582407E-01
   7114.67  1.1400760E-01
   7115.00  9.6897203E-02
   7115.33  8.1712786E-02
   7115.67  6.9868530E-02
   7116.00  6.0565379E-02
   7116.33  5.3351183E-02
   7116.67  4.7899316E-02
   7117.00  4.4217096E-02
   7117.33  4.2341212E-02
   7117.67  4.1811961E-02
   7118.00  4.2448477E-02
   7118.33  4.4284134E-02
   7118.67  4.7217053E-02
   7119.00  5.1384638E-02
   7119.33  5.7277792E-02
   7119.67  6.5122740E-02
   7120.00  7.5228196E-02
   7120.33  8.7558495E-02
   7120.67  1.0020133E-01
   7121.00  1.1164410E-01
   7121.33  1.2315716E-01
   7121.67  1.3836702E-01
   7122.00  1.5983125E-01
   7122.33  1.9032199E-01
   7122.67  2.2917487E-01
   7123.00  2.7438712E-01
   7123.33  3.2082470E-01
   7123.67  3.6398510E-01
   7124.00  4.0307775E-01
   7124.33  4.3772442E-01
   7124.67  4.6702570E-01
   7125.00  4.8911372E-01
   7125.33  5.0585870E-01
   7125.67  5.2787497E-01
   7126.00  5.6359405E-01
   7126.33  6.1727431E-01
   7126.67  6.8261320E-01
   7127.00  7.5331338E-01
   7127.33  8.1637714E-01
   7127.67  8.5833833E-01
   7128.00  8.7329067E-01
   7128.33  8.6215009E-01
   7128.67  8.3782678E-01
   7129.00  8.0854597E-01
   7129.33  7.8053373E-01
   7129.67  7.5653224E-01
   7130.00  7.3758979E-01
   7130.33  7.2484381E-01
   7130.67  7.1767095E-01
   7131.00  7.1582680E-01
   7131.33  7.1883827E-01
   7131.67  7.2423752E-01
   7132.00  7.3007106E-01
   7132.33  7.3437115E-01
   7132.67  7.3653310E-01
   7133.00  7.3672247E-01
   7133.33  7.3554550E-01
   7133.67  7.3393552E-01
   7134.00  7.3222791E-01
   7134.33  7.3029915E-01
   7134.67  7.2780147E-01
   7135.00  7.2449226E-01
   7135.33  7.2024532E-01
   7135.67  7.1536783E-01
   7136.00  7.1013044E-01
   7136.33  7.0488493E-01
   7136.67  6.9994831E-01
   7137.00  6.9548685E-01
   7137.33  6.9155329E-01
   7137.67  6.8785674E-01
   7138.00  6.8404147E-01
   7138.33  6.7957213E-01
   7138.67  6.7418713E-01
   7139.00  6.6776077E-01
   7139.33  6.6017573E-01
   7139.67  6.5167941E-01
   7140.00  6.4241997E-01
   7140.33  6.3252331E-01
   7140.67  6.2225471E-01
   7141.00  6.1175305E-01
   7141.33  6.0110194E-01
   7141.67  5.9034410E-01
   7142.00  5.7945423E-01
   7142.33  5.6834830E-01
   7142.67  5.5699328E-01
   7143.00  5.4536760E-01
   7143.33  5.3345760E-01
   7143.67  5.2135399E-01
   7144.00  5.0912909E-01
   7144.33  4.9687350E-01
   7144.67  4.8468451E-01
   7145.00  4.7263664E-01
   7145.33  4.6083248E-01
   7145.67  4.4930749E-01
   7146.00  4.3810334E-01
   7146.33  4.2729432E-01
   7146.67  4.1684618E-01
   7147.00  4.0675116E-01
   7147.33  3.9702279E-01
   7147.67  3.8757698E-01
   7148.00  3.7837171E-01
   7148.33  3.6939041E-01
   7148.67  3.6058933E-01
   7149.00  3.5197737E-01
   7149.33  3.4361463E-01
   7149.67  3.3553892E-01
   7150.00  3.2784726E-01
   7150.33  3.2073643E-01
   7150.67  3.1426876E-01
   7151.00  3.0854880E-01
   7151.33  3.0379008E-01
   7151.67  2.9996225E-01
   7152.00  2.9709741E-01
   7152.33  2.9530418E-01
   7152.67  2.9439939E-01
   7153.00  2.9429211E-01
   7153.33  2.9494014E-01
   7153.67  2.9614335E-01
   7154.00  2.9783258E-01
   7154.33  3.0003184E-01
   7154.67  3.0269555E-01
   7155.00  3.0585051E-01
   7155.33  3.0958427E-01
   7155.67  3.1381815E-01
   7156.00  3.1849016E-01
   7156.33  3.2349173E-01
   7156.67  3.2856430E-01
   7157.00  3.3347098E-01
   7157.33  3.3784998E-01
   7157.67  3.4146165E-01
   7158.00  3.4409295E-01
   7158.33  3.4545248E-01
   7158.67  3.4566384E-01
   7159.00  3.4482236E-01
   7159.33  3.4305161E-01
   7159.67  3.4077622E-01
   7160.00  3.3831838E-01
   7160.33  3.3609880E-01
   7160.67  3.3447102E-01
   7161.00  3.3372887E-01
   7161.33  3.3431017E-01
   7161.67  3.3629408E-01
   7162.00  3.3982202E-01
   7162.33  3.4520242E-01
   7162.67  3.5226312E-01
   7163.00  3.6097625E-01
   7163.33  3.7144641E-01
   7163.67  3.8333371E-01
   7164.00  3.9646835E-01
   7164.33  4.1072107E-01
   7164.67  4.2565204E-01
   7165.00  4.4094002E-01
   7165.33  4.5614660E-01
   7165.67  4.7080254E-01
   7166.00  4.8447448E-01
   7166.33  4.9647952E-01
   7166.67  5.0655706E-01
   7167.00  5.1440844E-01
   7167.33  5.1954026E-01
   7167.67  5.2227270E-01
   7168.00  5.2279739E-01
   7168.33  5.2129684E-01
   7168.67  5.1854602E-01
   7169.00  5.1507096E-01
   7169.33  5.1145917E-01
   7169.67  5.0825056E-01
   7170.00  5.0579324E-01
   7170.33  5.0447316E-01
   7170.67  5.0425527E-01
   7171.00  5.0508263E-01
   7171.33  5.0683106E-01
   7171.67  5.0898326E-01
   7172.00  5.1104316E-01
