    FDMNES
    energy     <xanes>
   7097.00  4.3617016E-03
   7097.33  4.4526570E-03
   7097.67  4.5474656E-03
   7098.00  4.6463848E-03
   7098.33  4.7503019E-03
   7098.67  4.8590321E-03
   7099.00  4.9729282E-03
   7099.33  5.0931523E-03
   7099.67  5.2195190E-03
   7100.00  5.3525258E-03
   7100.33  5.4937390E-03
   7100.67  5.6429935E-03
   7101.00  5.8010154E-03
   7101.33  5.9699885E-03
   7101.67  6.1498147E-03
   7102.00  6.3415976E-03
   7102.33  6.5485088E-03
   7102.67  6.7706222E-03
   7103.00  7.0096977E-03
   7103.33  7.2705797E-03
   7103.67  7.5537552E-03
   7104.00  7.8622041E-03
   7104.33  8.2038043E-03
   7104.67  8.5800481E-03
   7105.00  8.9963766E-03
   7105.33  9.4666760E-03
   7105.67  9.9950251E-03
   7106.00  1.0592394E-02
   7106.33  1.1286027E-02
   7106.67  1.2087387E-02
   7107.00  1.3021797E-02
   7107.33  1.4151372E-02
   7107.67  1.5512404E-02
   7108.00  1.7176100E-02
   7108.33  1.9319804E-02
   7108.67  2.2088277E-02
   7109.00  2.5754535E-02
   7109.33  3.1047892E-02
   7109.67  3.8831314E-02
   7110.00  5.0807422E-02
   7110.33  7.1839092E-02
   7110.67  1.0608457E-01
   7111.00  1.4955236E-01
   7111.33  1.8163455E-01
   7111.67  2.0382371E-01
   7112.00  2.1744317E-01
   7112.33  2.2372066E-01
   7112.67  2.3240754E-01
   7113.00  2.3611576E-01
   7113.33  2.1464428E-01
   7113.67  1.8202324E-01
   7114.00  1.5966321E-01
   7114.33  1.5170774E-01
   7114.67  1.4209909E-01
   7115.00  1.2630110E-01
   7115.33  1.0946544E-01
   7115.67  9.5667118E-02
   7116.00  8.6484932E-02
   7116.33  8.2675409E-02
   7116.67  8.2980874E-02
   7117.00  8.6768536E-02
   7117.33  9.3100760E-02
   7117.67  9.9397382E-02
   7118.00  1.0352359E-01
   7118.33  1.0420939E-01
   7118.67  1.0274941E-01
   7119.00  1.0012782E-01
   7119.33  9.6790952E-02
   7119.67  9.3060554E-02
   7120.00  8.9262504E-02
   7120.33  8.5902714E-02
   7120.67  8.3295343E-02
   7121.00  8.1668147E-02
   7121.33  8.1439551E-02
   7121.67  8.2772689E-02
   7122.00  8.5989846E-02
   7122.33  9.1769071E-02
   7122.67  1.0002721E-01
   7123.00  1.1045634E-01
   7123.33  1.2227171E-01
   7123.67  1.3492755E-01
   7124.00  1.4920983E-01
   7124.33  1.6637567E-01
   7124.67  1.8566355E-01
   7125.00  2.0586088E-01
   7125.33  2.2540229E-01
   7125.67  2.4326572E-01
   7126.00  2.5917306E-01
   7126.33  2.7380547E-01
   7126.67  2.8887750E-01
   7127.00  3.0564061E-01
   7127.33  3.2531948E-01
   7127.67  3.4747468E-01
   7128.00  3.7113911E-01
   7128.33  3.9520582E-01
   7128.67  4.1961980E-01
   7129.00  4.4534310E-01
   7129.33  4.7430183E-01
   7129.67  5.0745071E-01
   7130.00  5.4507862E-01
   7130.33  5.8652523E-01
   7130.67  6.2890094E-01
   7131.00  6.6953649E-01
   7131.33  7.0517124E-01
   7131.67  7.3507159E-01
   7132.00  7.5951041E-01
   7132.33  7.7932010E-01
   7132.67  7.9646147E-01
   7133.00  8.1170894E-01
   7133.33  8.2526479E-01
   7133.67  8.3756066E-01
   7134.00  8.4873431E-01
   7134.33  8.5817945E-01
   7134.67  8.6472362E-01
   7135.00  8.6662093E-01
   7135.33  8.6105271E-01
   7135.67  8.4779558E-01
   7136.00  8.2705788E-01
   7136.33  7.9943978E-01
   7136.67  7.6778002E-01
   7137.00  7.3401905E-01
   7137.33  7.0024665E-01
   7137.67  6.6816789E-01
   7138.00  6.3886702E-01
   7138.33  6.1360984E-01
   7138.67  5.9232400E-01
   7139.00  5.7503629E-01
   7139.33  5.6198116E-01
   7139.67  5.5225842E-01
   7140.00  5.4541999E-01
   7140.33  5.4122814E-01
   7140.67  5.3891774E-01
   7141.00  5.3816948E-01
   7141.33  5.3888247E-01
   7141.67  5.4073021E-01
   7142.00  5.4362455E-01
   7142.33  5.4761371E-01
   7142.67  5.5251405E-01
   7143.00  5.5827754E-01
   7143.33  5.6496250E-01
   7143.67  5.7243380E-01
   7144.00  5.8065363E-01
   7144.33  5.8960511E-01
   7144.67  5.9900712E-01
   7145.00  6.0859610E-01
   7145.33  6.1796695E-01
   7145.67  6.2675304E-01
   7146.00  6.3466776E-01
   7146.33  6.4133671E-01
   7146.67  6.4676641E-01
   7147.00  6.5090728E-01
   7147.33  6.5359459E-01
   7147.67  6.5502327E-01
   7148.00  6.5523460E-01
   7148.33  6.5412277E-01
   7148.67  6.5187186E-01
   7149.00  6.4851841E-01
   7149.33  6.4398910E-01
   7149.67  6.3849695E-01
   7150.00  6.3213881E-01
   7150.33  6.2497136E-01
   7150.67  6.1725334E-01
   7151.00  6.0911728E-01
   7151.33  6.0066571E-01
   7151.67  5.9207051E-01
   7152.00  5.8343025E-01
   7152.33  5.7483615E-01
   7152.67  5.6634457E-01
   7153.00  5.5799153E-01
   7153.33  5.4982431E-01
   7153.67  5.4184011E-01
   7154.00  5.3405384E-01
   7154.33  5.2651532E-01
   7154.67  5.1922985E-01
   7155.00  5.1223623E-01
   7155.33  5.0563430E-01
   7155.67  4.9944740E-01
   7156.00  4.9373913E-01
   7156.33  4.8865495E-01
   7156.67  4.8419948E-01
   7157.00  4.8043152E-01
   7157.33  4.7750344E-01
   7157.67  4.7536636E-01
   7158.00  4.7404377E-01
   7158.33  4.7364335E-01
   7158.67  4.7403619E-01
   7159.00  4.7517159E-01
   7159.33  4.7704464E-01
   7159.67  4.7946688E-01
   7160.00  4.8233190E-01
   7160.33  4.8554260E-01
   7160.67  4.8892564E-01
   7161.00  4.9238333E-01
   7161.33  4.9583941E-01
   7161.67  4.9925856E-01
   7162.00  5.0264019E-01
   7162.33  5.0601140E-01
   7162.67  5.0942210E-01
   7163.00  5.1292041E-01
   7163.33  5.1657588E-01
   7163.67  5.2040839E-01
   7164.00  5.2443184E-01
   7164.33  5.2865980E-01
   7164.67  5.3303072E-01
   7165.00  5.3748730E-01
   7165.33  5.4193574E-01
   7165.67  5.4625851E-01
   7166.00  5.5033696E-01
   7166.33  5.5397655E-01
   7166.67  5.5708212E-01
   7167.00  5.5952765E-01
   7167.33  5.6106022E-01
   7167.67  5.6164391E-01
   7168.00  5.6118748E-01
   7168.33  5.5948988E-01
   7168.67  5.5668183E-01
   7169.00  5.5280487E-01
   7169.33  5.4784007E-01
   7169.67  5.4206245E-01
   7170.00  5.3563768E-01
   7170.33  5.2872980E-01
   7170.67  5.2162846E-01
   7171.00  5.1455307E-01
   7171.33  5.0784047E-01
   7171.67  5.0184285E-01
   7172.00  4.9699035E-01
