    FDMNES
    energy     <xanes>
   7097.00  5.3870060E-03
   7097.33  5.5223438E-03
   7097.67  5.6641584E-03
   7098.00  5.8129037E-03
   7098.33  5.9701040E-03
   7098.67  6.1354724E-03
   7099.00  6.3096298E-03
   7099.33  6.4945823E-03
   7099.67  6.6900384E-03
   7100.00  6.8968695E-03
   7100.33  7.1177827E-03
   7100.67  7.3525128E-03
   7101.00  7.6023191E-03
   7101.33  7.8709639E-03
   7101.67  8.1582754E-03
   7102.00  8.4661382E-03
   7102.33  8.7999669E-03
   7102.67  9.1598306E-03
   7103.00  9.5486681E-03
   7103.33  9.9746079E-03
   7103.67  1.0438289E-02
   7104.00  1.0944530E-02
   7104.33  1.1506183E-02
   7104.67  1.2125226E-02
   7105.00  1.2810071E-02
   7105.33  1.3582418E-02
   7105.67  1.4447506E-02
   7106.00  1.5421258E-02
   7106.33  1.6543584E-02
   7106.67  1.7828336E-02
   7107.00  1.9309099E-02
   7107.33  2.1068443E-02
   7107.67  2.3146095E-02
   7108.00  2.5624796E-02
   7108.33  2.8707781E-02
   7108.67  3.2530733E-02
   7109.00  3.7353853E-02
   7109.33  4.3842340E-02
   7109.67  5.2639920E-02
   7110.00  6.4986771E-02
   7110.33  8.4326108E-02
   7110.67  1.1428703E-01
   7111.00  1.5763584E-01
   7111.33  2.1407231E-01
   7111.67  2.8436573E-01
   7112.00  3.7733703E-01
   7112.33  4.9523583E-01
   7112.67  6.0544551E-01
   7113.00  6.7617740E-01
   7113.33  6.5990823E-01
   7113.67  5.7661446E-01
   7114.00  4.7289269E-01
   7114.33  3.8538920E-01
   7114.67  3.1965901E-01
   7115.00  2.7289577E-01
   7115.33  2.4209411E-01
   7115.67  2.2190679E-01
   7116.00  2.1036731E-01
   7116.33  2.0593011E-01
   7116.67  2.0350720E-01
   7117.00  1.9807898E-01
   7117.33  1.8660666E-01
   7117.67  1.7255652E-01
   7118.00  1.5894637E-01
   7118.33  1.4791744E-01
   7118.67  1.3940846E-01
   7119.00  1.3291260E-01
   7119.33  1.2788552E-01
   7119.67  1.2374603E-01
   7120.00  1.2048892E-01
   7120.33  1.1856375E-01
   7120.67  1.1807188E-01
   7121.00  1.1896391E-01
   7121.33  1.2105436E-01
   7121.67  1.2378931E-01
   7122.00  1.2691447E-01
   7122.33  1.3038672E-01
   7122.67  1.3424392E-01
   7123.00  1.3860723E-01
   7123.33  1.4371669E-01
   7123.67  1.4963982E-01
   7124.00  1.5649688E-01
   7124.33  1.6458053E-01
   7124.67  1.7397242E-01
   7125.00  1.8492633E-01
   7125.33  1.9803815E-01
   7125.67  2.1343992E-01
   7126.00  2.3140555E-01
   7126.33  2.5245571E-01
   7126.67  2.7620807E-01
   7127.00  3.0241825E-01
   7127.33  3.3071908E-01
   7127.67  3.6004097E-01
   7128.00  3.8973019E-01
   7128.33  4.1955253E-01
   7128.67  4.5028565E-01
   7129.00  4.8354049E-01
   7129.33  5.2224089E-01
   7129.67  5.6771691E-01
   7130.00  6.2101242E-01
   7130.33  6.8361527E-01
   7130.67  7.5382781E-01
   7131.00  8.2969588E-01
   7131.33  9.0713002E-01
   7131.67  9.8014527E-01
   7132.00  1.0436822E+00
   7132.33  1.0911326E+00
   7132.67  1.1206472E+00
   7133.00  1.1299022E+00
   7133.33  1.1154095E+00
   7133.67  1.0822776E+00
   7134.00  1.0350613E+00
   7134.33  9.7890783E-01
   7134.67  9.1988623E-01
   7135.00  8.6090469E-01
   7135.33  8.0418240E-01
   7135.67  7.5048024E-01
   7136.00  7.0028585E-01
   7136.33  6.5448819E-01
   7136.67  6.1295763E-01
   7137.00  5.7600341E-01
   7137.33  5.4457169E-01
   7137.67  5.1829198E-01
   7138.00  4.9725067E-01
   7138.33  4.8200070E-01
   7138.67  4.7159319E-01
   7139.00  4.6562940E-01
   7139.33  4.6403991E-01
   7139.67  4.6575391E-01
   7140.00  4.7029155E-01
   7140.33  4.7744393E-01
   7140.67  4.8649642E-01
   7141.00  4.9713719E-01
   7141.33  5.0919723E-01
   7141.67  5.2220228E-01
   7142.00  5.3586930E-01
   7142.33  5.4988387E-01
   7142.67  5.6383341E-01
   7143.00  5.7739266E-01
   7143.33  5.9010542E-01
   7143.67  6.0174298E-01
   7144.00  6.1207310E-01
   7144.33  6.2069951E-01
   7144.67  6.2767946E-01
   7145.00  6.3296102E-01
   7145.33  6.3633273E-01
   7145.67  6.3805372E-01
   7146.00  6.3819753E-01
   7146.33  6.3670457E-01
   7146.67  6.3390814E-01
   7147.00  6.2995256E-01
   7147.33  6.2489026E-01
   7147.67  6.1901971E-01
   7148.00  6.1248708E-01
   7148.33  6.0539075E-01
   7148.67  5.9794208E-01
   7149.00  5.9025928E-01
   7149.33  5.8246398E-01
   7149.67  5.7469658E-01
   7150.00  5.6705095E-01
   7150.33  5.5965249E-01
   7150.67  5.5256684E-01
   7151.00  5.4587189E-01
   7151.33  5.3971626E-01
   7151.67  5.3412763E-01
   7152.00  5.2918048E-01
   7152.33  5.2505047E-01
   7152.67  5.2172809E-01
   7153.00  5.1927778E-01
   7153.33  5.1787907E-01
   7153.67  5.1745528E-01
   7154.00  5.1801650E-01
   7154.33  5.1966021E-01
   7154.67  5.2220257E-01
   7155.00  5.2555607E-01
   7155.33  5.2966808E-01
   7155.67  5.3428814E-01
   7156.00  5.3925977E-01
   7156.33  5.4441808E-01
   7156.67  5.4956527E-01
   7157.00  5.5456386E-01
   7157.33  5.5924093E-01
   7157.67  5.6352204E-01
   7158.00  5.6733330E-01
   7158.33  5.7054283E-01
   7158.67  5.7317101E-01
   7159.00  5.7518969E-01
   7159.33  5.7649777E-01
   7159.67  5.7716119E-01
   7160.00  5.7717494E-01
   7160.33  5.7645815E-01
   7160.67  5.7509378E-01
   7161.00  5.7308350E-01
   7161.33  5.7036320E-01
   7161.67  5.6703666E-01
   7162.00  5.6312622E-01
   7162.33  5.5859769E-01
   7162.67  5.5356691E-01
   7163.00  5.4807998E-01
   7163.33  5.4214463E-01
   7163.67  5.3587136E-01
   7164.00  5.2931344E-01
   7164.33  5.2250432E-01
   7164.67  5.1553144E-01
   7165.00  5.0844473E-01
   7165.33  5.0129259E-01
   7165.67  4.9413430E-01
   7166.00  4.8701202E-01
   7166.33  4.7998086E-01
   7166.67  4.7307037E-01
   7167.00  4.6631167E-01
   7167.33  4.5976184E-01
   7167.67  4.5342853E-01
   7168.00  4.4733716E-01
   7168.33  4.4155432E-01
   7168.67  4.3607571E-01
   7169.00  4.3091871E-01
   7169.33  4.2614068E-01
   7169.67  4.2171314E-01
   7170.00  4.1764662E-01
   7170.33  4.1399717E-01
   7170.67  4.1072506E-01
   7171.00  4.0783487E-01
   7171.33  4.0538356E-01
   7171.67  4.0334100E-01
   7172.00  4.0173145E-01
