    FDMNES
    energy     <xanes>
   7097.00  4.2941879E-03
   7097.33  4.3834207E-03
   7097.67  4.4762918E-03
   7098.00  4.5730373E-03
   7098.33  4.6744838E-03
   7098.67  4.7804483E-03
   7099.00  4.8912545E-03
   7099.33  5.0079811E-03
   7099.67  5.1304453E-03
   7100.00  5.2591045E-03
   7100.33  5.3954104E-03
   7100.67  5.5392018E-03
   7101.00  5.6911497E-03
   7101.33  5.8532814E-03
   7101.67  6.0255053E-03
   7102.00  6.2088506E-03
   7102.33  6.4062784E-03
   7102.67  6.6178756E-03
   7103.00  6.8453075E-03
   7103.33  7.0931461E-03
   7103.67  7.3619131E-03
   7104.00  7.6544851E-03
   7104.33  7.9784299E-03
   7104.67  8.3353463E-03
   7105.00  8.7306311E-03
   7105.33  9.1779781E-03
   7105.67  9.6818298E-03
   7106.00  1.0253461E-02
   7106.33  1.0920747E-02
   7106.67  1.1696529E-02
   7107.00  1.2608060E-02
   7107.33  1.3722153E-02
   7107.67  1.5081166E-02
   7108.00  1.6766412E-02
   7108.33  1.8981694E-02
   7108.67  2.1905754E-02
   7109.00  2.5874469E-02
   7109.33  3.1798991E-02
   7109.67  4.0821365E-02
   7110.00  5.5211388E-02
   7110.33  8.1488225E-02
   7110.67  1.2472826E-01
   7111.00  1.7599883E-01
   7111.33  1.9709679E-01
   7111.67  1.9035695E-01
   7112.00  1.7444051E-01
   7112.33  1.7050198E-01
   7112.67  1.7482508E-01
   7113.00  1.6336759E-01
   7113.33  1.3163113E-01
   7113.67  1.0510929E-01
   7114.00  8.6883655E-02
   7114.33  7.3222613E-02
   7114.67  6.3009563E-02
   7115.00  5.4620412E-02
   7115.33  4.7307372E-02
   7115.67  4.2083692E-02
   7116.00  3.8883061E-02
   7116.33  3.7321872E-02
   7116.67  3.6805158E-02
   7117.00  3.7120279E-02
   7117.33  3.8165147E-02
   7117.67  3.9673344E-02
   7118.00  4.1506347E-02
   7118.33  4.3692089E-02
   7118.67  4.6372140E-02
   7119.00  4.9753045E-02
   7119.33  5.4128751E-02
   7119.67  5.9484390E-02
   7120.00  6.5829326E-02
   7120.33  7.3232518E-02
   7120.67  8.1729142E-02
   7121.00  9.1793377E-02
   7121.33  1.0423204E-01
   7121.67  1.1899419E-01
   7122.00  1.3600059E-01
   7122.33  1.5507648E-01
   7122.67  1.7538530E-01
   7123.00  1.9668385E-01
   7123.33  2.2035697E-01
   7123.67  2.4877099E-01
   7124.00  2.8287176E-01
   7124.33  3.1980717E-01
   7124.67  3.5463361E-01
   7125.00  3.8604256E-01
   7125.33  4.1626376E-01
   7125.67  4.4937890E-01
   7126.00  4.8798561E-01
   7126.33  5.3303538E-01
   7126.67  5.8100543E-01
   7127.00  6.2788598E-01
   7127.33  6.6674359E-01
   7127.67  6.9511227E-01
   7128.00  7.1531579E-01
   7128.33  7.3268587E-01
   7128.67  7.5176814E-01
   7129.00  7.7357926E-01
   7129.33  7.9717008E-01
   7129.67  8.2044871E-01
   7130.00  8.4222230E-01
   7130.33  8.6266013E-01
   7130.67  8.8425654E-01
   7131.00  9.0869787E-01
   7131.33  9.3482238E-01
   7131.67  9.5778941E-01
   7132.00  9.7322354E-01
   7132.33  9.7628379E-01
   7132.67  9.6706245E-01
   7133.00  9.4607177E-01
   7133.33  9.1436887E-01
   7133.67  8.7668136E-01
   7134.00  8.3649045E-01
   7134.33  7.9794353E-01
   7134.67  7.6381356E-01
   7135.00  7.3499809E-01
   7135.33  7.1147951E-01
   7135.67  6.9152716E-01
   7136.00  6.7433001E-01
   7136.33  6.5945662E-01
   7136.67  6.4614657E-01
   7137.00  6.3409223E-01
   7137.33  6.2321050E-01
   7137.67  6.1330632E-01
   7138.00  6.0441850E-01
   7138.33  5.9679926E-01
   7138.67  5.9044513E-01
   7139.00  5.8546519E-01
   7139.33  5.8213874E-01
   7139.67  5.8032884E-01
   7140.00  5.8002168E-01
   7140.33  5.8129387E-01
   7140.67  5.8376344E-01
   7141.00  5.8715672E-01
   7141.33  5.9110539E-01
   7141.67  5.9503052E-01
   7142.00  5.9847988E-01
   7142.33  6.0090939E-01
   7142.67  6.0217957E-01
   7143.00  6.0225156E-01
   7143.33  6.0114650E-01
   7143.67  5.9928596E-01
   7144.00  5.9696188E-01
   7144.33  5.9448402E-01
   7144.67  5.9214171E-01
   7145.00  5.9010352E-01
   7145.33  5.8852278E-01
   7145.67  5.8734540E-01
   7146.00  5.8648398E-01
   7146.33  5.8574551E-01
   7146.67  5.8480233E-01
   7147.00  5.8332311E-01
   7147.33  5.8078863E-01
   7147.67  5.7697443E-01
   7148.00  5.7170014E-01
   7148.33  5.6475853E-01
   7148.67  5.5650194E-01
   7149.00  5.4717030E-01
   7149.33  5.3698001E-01
   7149.67  5.2630677E-01
   7150.00  5.1533578E-01
   7150.33  5.0419284E-01
   7150.67  4.9298477E-01
   7151.00  4.8175912E-01
   7151.33  4.7055702E-01
   7151.67  4.5940879E-01
   7152.00  4.4834646E-01
   7152.33  4.3743621E-01
   7152.67  4.2671506E-01
   7153.00  4.1622391E-01
   7153.33  4.0604164E-01
   7153.67  3.9617476E-01
   7154.00  3.8665299E-01
   7154.33  3.7754691E-01
   7154.67  3.6882460E-01
   7155.00  3.6049653E-01
   7155.33  3.5262462E-01
   7155.67  3.4516650E-01
   7156.00  3.3812688E-01
   7156.33  3.3155889E-01
   7156.67  3.2540343E-01
   7157.00  3.1964666E-01
   7157.33  3.1430734E-01
   7157.67  3.0930156E-01
   7158.00  3.0459430E-01
   7158.33  3.0018277E-01
   7158.67  2.9601315E-01
   7159.00  2.9208448E-01
   7159.33  2.8845272E-01
   7159.67  2.8513425E-01
   7160.00  2.8218821E-01
   7160.33  2.7975048E-01
   7160.67  2.7784764E-01
   7161.00  2.7654822E-01
   7161.33  2.7600498E-01
   7161.67  2.7618121E-01
   7162.00  2.7708964E-01
   7162.33  2.7880914E-01
   7162.67  2.8122490E-01
   7163.00  2.8429971E-01
   7163.33  2.8803977E-01
   7163.67  2.9228665E-01
   7164.00  2.9696006E-01
   7164.33  3.0200303E-01
   7164.67  3.0728280E-01
   7165.00  3.1272644E-01
   7165.33  3.1826873E-01
   7165.67  3.2383542E-01
   7166.00  3.2938460E-01
   7166.33  3.3487662E-01
   7166.67  3.4030003E-01
   7167.00  3.4565046E-01
   7167.33  3.5092473E-01
   7167.67  3.5614129E-01
   7168.00  3.6130862E-01
   7168.33  3.6643567E-01
   7168.67  3.7154073E-01
   7169.00  3.7663249E-01
   7169.33  3.8171524E-01
   7169.67  3.8678835E-01
   7170.00  3.9184288E-01
   7170.33  3.9685207E-01
   7170.67  4.0178245E-01
   7171.00  4.0657907E-01
   7171.33  4.1109884E-01
   7171.67  4.1516409E-01
   7172.00  4.1850187E-01
