    FDMNES
    energy     <xanes>
   7097.00  4.4684289E-03
   7097.33  4.5686139E-03
   7097.67  4.6733294E-03
   7098.00  4.7828967E-03
   7098.33  4.8983908E-03
   7098.67  5.0196208E-03
   7099.00  5.1470343E-03
   7099.33  5.2820633E-03
   7099.67  5.4245267E-03
   7100.00  5.5750678E-03
   7100.33  5.7356543E-03
   7100.67  5.9061484E-03
   7101.00  6.0875088E-03
   7101.33  6.2825395E-03
   7101.67  6.4912209E-03
   7102.00  6.7150432E-03
   7102.33  6.9581823E-03
   7102.67  7.2209021E-03
   7103.00  7.5056408E-03
   7103.33  7.8189587E-03
   7103.67  8.1617886E-03
   7104.00  8.5383773E-03
   7104.33  8.9597368E-03
   7104.67  9.4284241E-03
   7105.00  9.9524401E-03
   7105.33  1.0551894E-02
   7105.67  1.1233562E-02
   7106.00  1.2014133E-02
   7106.33  1.2934633E-02
   7106.67  1.4014064E-02
   7107.00  1.5292385E-02
   7107.33  1.6867117E-02
   7107.67  1.8799145E-02
   7108.00  2.1205038E-02
   7108.33  2.4375027E-02
   7108.67  2.8555835E-02
   7109.00  3.4208434E-02
   7109.33  4.2565936E-02
   7109.67  5.5111134E-02
   7110.00  7.4765101E-02
   7110.33  1.0999036E-01
   7110.67  1.6937386E-01
   7111.00  2.5185287E-01
   7111.33  3.2151000E-01
   7111.67  3.4013825E-01
   7112.00  3.1550913E-01
   7112.33  2.9652356E-01
   7112.67  2.6789747E-01
   7113.00  2.1224650E-01
   7113.33  1.5789516E-01
   7113.67  1.1952265E-01
   7114.00  9.4511198E-02
   7114.33  7.9260049E-02
   7114.67  6.9092390E-02
   7115.00  6.1349961E-02
   7115.33  5.5130469E-02
   7115.67  5.0468940E-02
   7116.00  4.7585557E-02
   7116.33  4.6302164E-02
   7116.67  4.4792467E-02
   7117.00  4.2426625E-02
   7117.33  4.0168690E-02
   7117.67  3.8780348E-02
   7118.00  3.8341129E-02
   7118.33  3.8818312E-02
   7118.67  3.9962858E-02
   7119.00  4.1683652E-02
   7119.33  4.4014029E-02
   7119.67  4.6966123E-02
   7120.00  5.0696854E-02
   7120.33  5.5575415E-02
   7120.67  6.1803480E-02
   7121.00  6.9863010E-02
   7121.33  8.0985446E-02
   7121.67  9.5667672E-02
   7122.00  1.1364409E-01
   7122.33  1.3222092E-01
   7122.67  1.4832207E-01
   7123.00  1.6302038E-01
   7123.33  1.7966145E-01
   7123.67  1.9865400E-01
   7124.00  2.1875532E-01
   7124.33  2.3837239E-01
   7124.67  2.5697029E-01
   7125.00  2.7444909E-01
   7125.33  2.9025614E-01
   7125.67  3.0431831E-01
   7126.00  3.1694416E-01
   7126.33  3.2864086E-01
   7126.67  3.3974349E-01
   7127.00  3.5044852E-01
   7127.33  3.6305948E-01
   7127.67  3.8174101E-01
   7128.00  4.0830797E-01
   7128.33  4.4034904E-01
   7128.67  4.7593101E-01
   7129.00  5.1782186E-01
   7129.33  5.6994633E-01
   7129.67  6.3072495E-01
   7130.00  6.9715855E-01
   7130.33  7.6354501E-01
   7130.67  8.2330203E-01
   7131.00  8.7172338E-01
   7131.33  9.0426843E-01
   7131.67  9.2256984E-01
   7132.00  9.2790554E-01
   7132.33  9.2330040E-01
   7132.67  9.1715246E-01
   7133.00  9.1489759E-01
   7133.33  9.1731337E-01
   7133.67  9.1817011E-01
   7134.00  9.1332750E-01
   7134.33  9.0391556E-01
   7134.67  8.9561569E-01
   7135.00  8.9111911E-01
   7135.33  8.9085391E-01
   7135.67  8.9241393E-01
   7136.00  8.9386631E-01
   7136.33  8.9322052E-01
   7136.67  8.8970180E-01
   7137.00  8.8297541E-01
   7137.33  8.7269993E-01
   7137.67  8.5963888E-01
   7138.00  8.4426412E-01
   7138.33  8.2700671E-01
   7138.67  8.0873580E-01
   7139.00  7.8998502E-01
   7139.33  7.7130814E-01
   7139.67  7.5314153E-01
   7140.00  7.3578176E-01
   7140.33  7.1961221E-01
   7140.67  7.0466407E-01
   7141.00  6.9101826E-01
   7141.33  6.7888175E-01
   7141.67  6.6811127E-01
   7142.00  6.5874023E-01
   7142.33  6.5097337E-01
   7142.67  6.4464519E-01
   7143.00  6.3975366E-01
   7143.33  6.3642699E-01
   7143.67  6.3435924E-01
   7144.00  6.3333723E-01
   7144.33  6.3306005E-01
   7144.67  6.3293922E-01
   7145.00  6.3249883E-01
   7145.33  6.3112876E-01
   7145.67  6.2856756E-01
   7146.00  6.2465297E-01
   7146.33  6.1918864E-01
   7146.67  6.1245334E-01
   7147.00  6.0459972E-01
   7147.33  5.9572185E-01
   7147.67  5.8614901E-01
   7148.00  5.7606256E-01
   7148.33  5.6562327E-01
   7148.67  5.5505236E-01
   7149.00  5.4448938E-01
   7149.33  5.3408096E-01
   7149.67  5.2391222E-01
   7150.00  5.1405593E-01
   7150.33  5.0462123E-01
   7150.67  4.9559717E-01
   7151.00  4.8699590E-01
   7151.33  4.7886684E-01
   7151.67  4.7114232E-01
   7152.00  4.6379964E-01
   7152.33  4.5684967E-01
   7152.67  4.5022287E-01
   7153.00  4.4389885E-01
   7153.33  4.3788275E-01
   7153.67  4.3210933E-01
   7154.00  4.2655039E-01
   7154.33  4.2118629E-01
   7154.67  4.1592454E-01
   7155.00  4.1067484E-01
   7155.33  4.0528797E-01
   7155.67  3.9962475E-01
   7156.00  3.9354933E-01
   7156.33  3.8685102E-01
   7156.67  3.7949649E-01
   7157.00  3.7143892E-01
   7157.33  3.6258950E-01
   7157.67  3.5309156E-01
   7158.00  3.4302934E-01
   7158.33  3.3247433E-01
   7158.67  3.2162788E-01
   7159.00  3.1062425E-01
   7159.33  2.9961978E-01
   7159.67  2.8876616E-01
   7160.00  2.7818769E-01
   7160.33  2.6807208E-01
   7160.67  2.5849631E-01
   7161.00  2.4956609E-01
   7161.33  2.4149511E-01
   7161.67  2.3430105E-01
   7162.00  2.2807638E-01
   7162.33  2.2305365E-01
   7162.67  2.1918610E-01
   7163.00  2.1653706E-01
   7163.33  2.1532108E-01
   7163.67  2.1540724E-01
   7164.00  2.1679650E-01
   7164.33  2.1962210E-01
   7164.67  2.2366835E-01
   7165.00  2.2886497E-01
   7165.33  2.3523884E-01
   7165.67  2.4253436E-01
   7166.00  2.5062934E-01
   7166.33  2.5945424E-01
   7166.67  2.6877989E-01
   7167.00  2.7848726E-01
   7167.33  2.8848444E-01
   7167.67  2.9863267E-01
   7168.00  3.0885443E-01
   7168.33  3.1907459E-01
   7168.67  3.2923157E-01
   7169.00  3.3927897E-01
   7169.33  3.4914589E-01
   7169.67  3.5879922E-01
   7170.00  3.6818695E-01
   7170.33  3.7719490E-01
   7170.67  3.8577584E-01
   7171.00  3.9383211E-01
   7171.33  4.0111901E-01
   7171.67  4.0746645E-01
   7172.00  4.1256235E-01
