    FDMNES
    energy     <xanes>
   7097.00  4.1636941E-03
   7097.33  4.2392308E-03
   7097.67  4.3174559E-03
   7098.00  4.3985260E-03
   7098.33  4.4830227E-03
   7098.67  4.5707881E-03
   7099.00  4.6620334E-03
   7099.33  4.7575011E-03
   7099.67  4.8570290E-03
   7100.00  4.9609109E-03
   7100.33  5.0701247E-03
   7100.67  5.1845163E-03
   7101.00  5.3045114E-03
   7101.33  5.4314474E-03
   7101.67  5.5652081E-03
   7102.00  5.7064397E-03
   7102.33  5.8570606E-03
   7102.67  6.0170601E-03
   7103.00  6.1874779E-03
   7103.33  6.3712341E-03
   7103.67  6.5685865E-03
   7104.00  6.7813306E-03
   7104.33  7.0142603E-03
   7104.67  7.2683176E-03
   7105.00  7.5468923E-03
   7105.33  7.8586595E-03
   7105.67  8.2064127E-03
   7106.00  8.5973376E-03
   7106.33  9.0492842E-03
   7106.67  9.5706642E-03
   7107.00  1.0179283E-02
   7107.33  1.0918961E-02
   7107.67  1.1818537E-02
   7108.00  1.2933152E-02
   7108.33  1.4401995E-02
   7108.67  1.6352491E-02
   7109.00  1.9024762E-02
   7109.33  2.3078917E-02
   7109.67  2.9376162E-02
   7110.00  3.9639101E-02
   7110.33  5.8785753E-02
   7110.67  8.9789976E-02
   7111.00  1.2158156E-01
   7111.33  1.2123562E-01
   7111.67  1.0488410E-01
   7112.00  8.9668247E-02
   7112.33  7.8966074E-02
   7112.67  7.1541746E-02
   7113.00  6.6691646E-02
   7113.33  6.2825907E-02
   7113.67  5.8216916E-02
   7114.00  5.2951130E-02
   7114.33  4.8113638E-02
   7114.67  4.2802855E-02
   7115.00  3.6926419E-02
   7115.33  3.2553260E-02
   7115.67  2.9866209E-02
   7116.00  2.8392563E-02
   7116.33  2.7773679E-02
   7116.67  2.7649414E-02
   7117.00  2.7889770E-02
   7117.33  2.8451346E-02
   7117.67  2.9284240E-02
   7118.00  3.0422381E-02
   7118.33  3.1999074E-02
   7118.67  3.4097627E-02
   7119.00  3.6883089E-02
   7119.33  4.0765904E-02
   7119.67  4.6036262E-02
   7120.00  5.3048552E-02
   7120.33  6.1827452E-02
   7120.67  7.0709348E-02
   7121.00  7.8567454E-02
   7121.33  8.6406080E-02
   7121.67  9.6298584E-02
   7122.00  1.0962718E-01
   7122.33  1.2835163E-01
   7122.67  1.5334688E-01
   7123.00  1.8571060E-01
   7123.33  2.2579969E-01
   7123.67  2.6772937E-01
   7124.00  3.0383486E-01
   7124.33  3.2756468E-01
   7124.67  3.4382217E-01
   7125.00  3.5820154E-01
   7125.33  3.7580260E-01
   7125.67  3.9932212E-01
   7126.00  4.3001111E-01
   7126.33  4.6332033E-01
   7126.67  4.9018409E-01
   7127.00  5.1321183E-01
   7127.33  5.4310345E-01
   7127.67  5.8404995E-01
   7128.00  6.3837533E-01
   7128.33  7.0893705E-01
   7128.67  7.9030292E-01
   7129.00  8.7514420E-01
   7129.33  9.5148477E-01
   7129.67  1.0089116E+00
   7130.00  1.0388123E+00
   7130.33  1.0317880E+00
   7130.67  9.9520516E-01
   7131.00  9.3828739E-01
   7131.33  8.7369716E-01
   7131.67  8.1352041E-01
   7132.00  7.6347879E-01
   7132.33  7.2750407E-01
   7132.67  7.0327768E-01
   7133.00  6.8882763E-01
   7133.33  6.8221941E-01
   7133.67  6.8012755E-01
   7134.00  6.8140440E-01
   7134.33  6.8644195E-01
   7134.67  6.9502086E-01
   7135.00  7.0638071E-01
   7135.33  7.1913725E-01
   7135.67  7.3230099E-01
   7136.00  7.4599308E-01
   7136.33  7.6073329E-01
   7136.67  7.7636414E-01
   7137.00  7.9221803E-01
   7137.33  8.0660064E-01
   7137.67  8.1758941E-01
   7138.00  8.2336992E-01
   7138.33  8.2168392E-01
   7138.67  8.1328583E-01
   7139.00  7.9927100E-01
   7139.33  7.8128381E-01
   7139.67  7.6190837E-01
   7140.00  7.4256240E-01
   7140.33  7.2436432E-01
   7140.67  7.0757130E-01
   7141.00  6.9219112E-01
   7141.33  6.7818507E-01
   7141.67  6.6512580E-01
   7142.00  6.5278235E-01
   7142.33  6.4100066E-01
   7142.67  6.2957306E-01
   7143.00  6.1841870E-01
   7143.33  6.0749401E-01
   7143.67  5.9671027E-01
   7144.00  5.8600721E-01
   7144.33  5.7530585E-01
   7144.67  5.6453093E-01
   7145.00  5.5363829E-01
   7145.33  5.4260275E-01
   7145.67  5.3148749E-01
   7146.00  5.2037663E-01
   7146.33  5.0942004E-01
   7146.67  4.9874912E-01
   7147.00  4.8848775E-01
   7147.33  4.7882678E-01
   7147.67  4.6979030E-01
   7148.00  4.6142364E-01
   7148.33  4.5382484E-01
   7148.67  4.4687717E-01
   7149.00  4.4050728E-01
   7149.33  4.3462675E-01
   7149.67  4.2900195E-01
   7150.00  4.2346922E-01
   7150.33  4.1784138E-01
   7150.67  4.1199334E-01
   7151.00  4.0585445E-01
   7151.33  3.9935672E-01
   7151.67  3.9256126E-01
   7152.00  3.8551499E-01
   7152.33  3.7826325E-01
   7152.67  3.7089888E-01
   7153.00  3.6348154E-01
   7153.33  3.5608645E-01
   7153.67  3.4879072E-01
   7154.00  3.4166351E-01
   7154.33  3.3480075E-01
   7154.67  3.2821241E-01
   7155.00  3.2190190E-01
   7155.33  3.1586534E-01
   7155.67  3.1001036E-01
   7156.00  3.0428076E-01
   7156.33  2.9864267E-01
   7156.67  2.9308564E-01
   7157.00  2.8765094E-01
   7157.33  2.8245298E-01
   7157.67  2.7757514E-01
   7158.00  2.7310664E-01
   7158.33  2.6917927E-01
   7158.67  2.6574948E-01
   7159.00  2.6278119E-01
   7159.33  2.6023154E-01
   7159.67  2.5794091E-01
   7160.00  2.5581872E-01
   7160.33  2.5380506E-01
   7160.67  2.5187242E-01
   7161.00  2.5006343E-01
   7161.33  2.4852279E-01
   7161.67  2.4739268E-01
   7162.00  2.4684931E-01
   7162.33  2.4719813E-01
   7162.67  2.4853474E-01
   7163.00  2.5102866E-01
   7163.33  2.5502542E-01
   7163.67  2.6049919E-01
   7164.00  2.6753855E-01
   7164.33  2.7641311E-01
   7164.67  2.8694404E-01
   7165.00  2.9912033E-01
   7165.33  3.1309218E-01
   7165.67  3.2857106E-01
   7166.00  3.4544782E-01
   7166.33  3.6371058E-01
   7166.67  3.8299400E-01
   7167.00  4.0307687E-01
   7167.33  4.2371476E-01
   7167.67  4.4448624E-01
   7168.00  4.6503903E-01
   7168.33  4.8483346E-01
   7168.67  5.0347806E-01
   7169.00  5.2058180E-01
   7169.33  5.3550819E-01
   7169.67  5.4820998E-01
   7170.00  5.5855030E-01
   7170.33  5.6622259E-01
   7170.67  5.7167407E-01
   7171.00  5.7515190E-01
   7171.33  5.7687229E-01
   7171.67  5.7757442E-01
   7172.00  5.7781949E-01
