    FDMNES
    energy     <xanes>
   7097.00  4.9814273E-03
   7097.33  5.0951529E-03
   7097.67  5.2138289E-03
   7098.00  5.3377819E-03
   7098.33  5.4681449E-03
   7098.67  5.6046745E-03
   7099.00  5.7478162E-03
   7099.33  5.8990482E-03
   7099.67  6.0581235E-03
   7100.00  6.2256685E-03
   7100.33  6.4036673E-03
   7100.67  6.5918961E-03
   7101.00  6.7912666E-03
   7101.33  7.0045361E-03
   7101.67  7.2315637E-03
   7102.00  7.4737340E-03
   7102.33  7.7350454E-03
   7102.67  8.0155761E-03
   7103.00  8.3175405E-03
   7103.33  8.6470517E-03
   7103.67  9.0047269E-03
   7104.00  9.3943425E-03
   7104.33  9.8258937E-03
   7104.67  1.0301334E-02
   7105.00  1.0827652E-02
   7105.33  1.1422669E-02
   7105.67  1.2091859E-02
   7106.00  1.2849594E-02
   7106.33  1.3731543E-02
   7106.67  1.4753472E-02
   7107.00  1.5949509E-02
   7107.33  1.7403396E-02
   7107.67  1.9166474E-02
   7108.00  2.1338156E-02
   7108.33  2.4166764E-02
   7108.67  2.7863071E-02
   7109.00  3.2822566E-02
   7109.33  4.0106346E-02
   7109.67  5.0997737E-02
   7110.00  6.8031763E-02
   7110.33  9.8580973E-02
   7110.67  1.5018803E-01
   7111.00  2.2133735E-01
   7111.33  2.7604831E-01
   7111.67  2.9190297E-01
   7112.00  2.7030947E-01
   7112.33  2.1585494E-01
   7112.67  1.6942199E-01
   7113.00  1.4158762E-01
   7113.33  1.2325202E-01
   7113.67  1.0737804E-01
   7114.00  9.5007588E-02
   7114.33  8.7491162E-02
   7114.67  8.3486710E-02
   7115.00  8.2421213E-02
   7115.33  8.4382369E-02
   7115.67  8.9111791E-02
   7116.00  9.6929597E-02
   7116.33  1.0901212E-01
   7116.67  1.2589730E-01
   7117.00  1.4852015E-01
   7117.33  1.7809855E-01
   7117.67  2.1193369E-01
   7118.00  2.4505772E-01
   7118.33  2.6891465E-01
   7118.67  2.8324185E-01
   7119.00  2.9445287E-01
   7119.33  3.1079515E-01
   7119.67  3.3195504E-01
   7120.00  3.5283969E-01
   7120.33  3.6719206E-01
   7120.67  3.7592234E-01
   7121.00  3.8280039E-01
   7121.33  3.9213636E-01
   7121.67  4.0457848E-01
   7122.00  4.1862619E-01
   7122.33  4.3261745E-01
   7122.67  4.4698458E-01
   7123.00  4.6112972E-01
   7123.33  4.7024883E-01
   7123.67  4.7273731E-01
   7124.00  4.7102748E-01
   7124.33  4.6935537E-01
   7124.67  4.7292443E-01
   7125.00  4.8609190E-01
   7125.33  5.1196788E-01
   7125.67  5.4718165E-01
   7126.00  5.8887748E-01
   7126.33  6.3330784E-01
   7126.67  6.7497517E-01
   7127.00  7.0972450E-01
   7127.33  7.3345744E-01
   7127.67  7.4613615E-01
   7128.00  7.4810056E-01
   7128.33  7.4061268E-01
   7128.67  7.2779009E-01
   7129.00  7.1177032E-01
   7129.33  6.9403439E-01
   7129.67  6.7589992E-01
   7130.00  6.5818056E-01
   7130.33  6.4205346E-01
   7130.67  6.2839562E-01
   7131.00  6.1790807E-01
   7131.33  6.1126596E-01
   7131.67  6.0757297E-01
   7132.00  6.0588735E-01
   7132.33  6.0485612E-01
   7132.67  6.0335798E-01
   7133.00  6.0122516E-01
   7133.33  5.9882034E-01
   7133.67  5.9659157E-01
   7134.00  5.9464640E-01
   7134.33  5.9280945E-01
   7134.67  5.9064928E-01
   7135.00  5.8772828E-01
   7135.33  5.8344920E-01
   7135.67  5.7776041E-01
   7136.00  5.7078660E-01
   7136.33  5.6290821E-01
   7136.67  5.5489284E-01
   7137.00  5.4727387E-01
   7137.33  5.4053523E-01
   7137.67  5.3462609E-01
   7138.00  5.2934659E-01
   7138.33  5.2435626E-01
   7138.67  5.1928057E-01
   7139.00  5.1395628E-01
   7139.33  5.0834873E-01
   7139.67  5.0263860E-01
   7140.00  4.9700953E-01
   7140.33  4.9171836E-01
   7140.67  4.8692214E-01
   7141.00  4.8276036E-01
   7141.33  4.7945966E-01
   7141.67  4.7701902E-01
   7142.00  4.7548379E-01
   7142.33  4.7496195E-01
   7142.67  4.7525494E-01
   7143.00  4.7622955E-01
   7143.33  4.7773059E-01
   7143.67  4.7943721E-01
   7144.00  4.8111631E-01
   7144.33  4.8249814E-01
   7144.67  4.8345660E-01
   7145.00  4.8393599E-01
   7145.33  4.8390597E-01
   7145.67  4.8351622E-01
   7146.00  4.8285895E-01
   7146.33  4.8197154E-01
   7146.67  4.8084624E-01
   7147.00  4.7936950E-01
   7147.33  4.7729191E-01
   7147.67  4.7454020E-01
   7148.00  4.7110015E-01
   7148.33  4.6703467E-01
   7148.67  4.6265780E-01
   7149.00  4.5820293E-01
   7149.33  4.5391892E-01
   7149.67  4.4993909E-01
   7150.00  4.4633433E-01
   7150.33  4.4319401E-01
   7150.67  4.4048553E-01
   7151.00  4.3822718E-01
   7151.33  4.3650989E-01
   7151.67  4.3531065E-01
   7152.00  4.3465960E-01
   7152.33  4.3464921E-01
   7152.67  4.3520436E-01
   7153.00  4.3630523E-01
   7153.33  4.3797468E-01
   7153.67  4.4008898E-01
   7154.00  4.4257927E-01
   7154.33  4.4537612E-01
   7154.67  4.4832323E-01
   7155.00  4.5130461E-01
   7155.33  4.5415163E-01
   7155.67  4.5672431E-01
   7156.00  4.5889892E-01
   7156.33  4.6047748E-01
   7156.67  4.6141560E-01
   7157.00  4.6164653E-01
   7157.33  4.6104530E-01
   7157.67  4.5972268E-01
   7158.00  4.5773009E-01
   7158.33  4.5508562E-01
   7158.67  4.5197293E-01
   7159.00  4.4849438E-01
   7159.33  4.4473685E-01
   7159.67  4.4084068E-01
   7160.00  4.3688979E-01
   7160.33  4.3297357E-01
   7160.67  4.2916107E-01
   7161.00  4.2550481E-01
   7161.33  4.2208238E-01
   7161.67  4.1891261E-01
   7162.00  4.1602225E-01
   7162.33  4.1346195E-01
   7162.67  4.1119750E-01
   7163.00  4.0922441E-01
   7163.33  4.0756551E-01
   7163.67  4.0616853E-01
   7164.00  4.0501693E-01
   7164.33  4.0412017E-01
   7164.67  4.0343414E-01
   7165.00  4.0294967E-01
   7165.33  4.0268657E-01
   7165.67  4.0262314E-01
   7166.00  4.0276844E-01
   7166.33  4.0316793E-01
   7166.67  4.0381560E-01
   7167.00  4.0473261E-01
   7167.33  4.0598112E-01
   7167.67  4.0754808E-01
   7168.00  4.0945053E-01
   7168.33  4.1174570E-01
   7168.67  4.1439472E-01
   7169.00  4.1739343E-01
   7169.33  4.2076858E-01
   7169.67  4.2445141E-01
   7170.00  4.2840805E-01
   7170.33  4.3261114E-01
   7170.67  4.3695706E-01
   7171.00  4.4135526E-01
   7171.33  4.4563531E-01
   7171.67  4.4955165E-01
   7172.00  4.5278370E-01
