    FDMNES
    energy     <xanes>
   7097.00  4.8313062E-03
   7097.33  4.9444349E-03
   7097.67  5.0625739E-03
   7098.00  5.1860558E-03
   7098.33  5.3160298E-03
   7098.67  5.4522507E-03
   7099.00  5.5951710E-03
   7099.33  5.7462881E-03
   7099.67  5.9053510E-03
   7100.00  6.0729919E-03
   7100.33  6.2512155E-03
   7100.67  6.4397881E-03
   7101.00  6.6396230E-03
   7101.33  6.8534908E-03
   7101.67  7.0812284E-03
   7102.00  7.3242072E-03
   7102.33  7.5864088E-03
   7102.67  7.8678596E-03
   7103.00  8.1707189E-03
   7103.33  8.5009905E-03
   7103.67  8.8591653E-03
   7104.00  9.2488481E-03
   7104.33  9.6796574E-03
   7104.67  1.0153220E-02
   7105.00  1.0676017E-02
   7105.33  1.1264717E-02
   7105.67  1.1923862E-02
   7106.00  1.2666299E-02
   7106.33  1.3524111E-02
   7106.67  1.4510102E-02
   7107.00  1.5653373E-02
   7107.33  1.7025499E-02
   7107.67  1.8666728E-02
   7108.00  2.0657136E-02
   7108.33  2.3195989E-02
   7108.67  2.6441297E-02
   7109.00  3.0692127E-02
   7109.33  3.6743388E-02
   7109.67  4.5514771E-02
   7110.00  5.8817112E-02
   7110.33  8.1824098E-02
   7110.67  1.1924706E-01
   7111.00  1.6853939E-01
   7111.33  2.1059620E-01
   7111.67  2.4126251E-01
   7112.00  2.5981661E-01
   7112.33  2.6870755E-01
   7112.67  2.7753495E-01
   7113.00  2.8631840E-01
   7113.33  2.8022691E-01
   7113.67  2.6391589E-01
   7114.00  2.4699480E-01
   7114.33  2.2313377E-01
   7114.67  1.9021004E-01
   7115.00  1.5760046E-01
   7115.33  1.3500592E-01
   7115.67  1.2244996E-01
   7116.00  1.1886202E-01
   7116.33  1.2393243E-01
   7116.67  1.3526374E-01
   7117.00  1.5121278E-01
   7117.33  1.6896013E-01
   7117.67  1.8319993E-01
   7118.00  1.8970805E-01
   7118.33  1.8751272E-01
   7118.67  1.8275826E-01
   7119.00  1.8000975E-01
   7119.33  1.8200601E-01
   7119.67  1.8695900E-01
   7120.00  1.9211734E-01
   7120.33  1.9599187E-01
   7120.67  2.0136682E-01
   7121.00  2.1095265E-01
   7121.33  2.2696125E-01
   7121.67  2.4871092E-01
   7122.00  2.7617950E-01
   7122.33  3.1163249E-01
   7122.67  3.5525469E-01
   7123.00  4.0484185E-01
   7123.33  4.5171008E-01
   7123.67  4.8544499E-01
   7124.00  5.0375243E-01
   7124.33  5.1265380E-01
   7124.67  5.2074441E-01
   7125.00  5.3100617E-01
   7125.33  5.4340100E-01
   7125.67  5.5523331E-01
   7126.00  5.6526418E-01
   7126.33  5.7357977E-01
   7126.67  5.8109184E-01
   7127.00  5.8832403E-01
   7127.33  5.9575386E-01
   7127.67  6.0409419E-01
   7128.00  6.1503948E-01
   7128.33  6.3213563E-01
   7128.67  6.5556181E-01
   7129.00  6.8150903E-01
   7129.33  6.9929977E-01
   7129.67  7.0126159E-01
   7130.00  6.8661371E-01
   7130.33  6.5901445E-01
   7130.67  6.2597331E-01
   7131.00  5.9192713E-01
   7131.33  5.6198466E-01
   7131.67  5.3919541E-01
   7132.00  5.2488026E-01
   7132.33  5.1970015E-01
   7132.67  5.2113822E-01
   7133.00  5.2781723E-01
   7133.33  5.3955536E-01
   7133.67  5.5569079E-01
   7134.00  5.7477305E-01
   7134.33  5.9206931E-01
   7134.67  6.0309418E-01
   7135.00  6.0649086E-01
   7135.33  6.0309605E-01
   7135.67  5.9657521E-01
   7136.00  5.8922713E-01
   7136.33  5.8296732E-01
   7136.67  5.7834978E-01
   7137.00  5.7532949E-01
   7137.33  5.7375959E-01
   7137.67  5.7314418E-01
   7138.00  5.7323254E-01
   7138.33  5.7384809E-01
   7138.67  5.7472122E-01
   7139.00  5.7571285E-01
   7139.33  5.7677147E-01
   7139.67  5.7794272E-01
   7140.00  5.7934323E-01
   7140.33  5.8122174E-01
   7140.67  5.8377009E-01
   7141.00  5.8722560E-01
   7141.33  5.9200749E-01
   7141.67  5.9815522E-01
   7142.00  6.0565628E-01
   7142.33  6.1425701E-01
   7142.67  6.2295040E-01
   7143.00  6.3060369E-01
   7143.33  6.3544673E-01
   7143.67  6.3667194E-01
   7144.00  6.3390396E-01
   7144.33  6.2698337E-01
   7144.67  6.1720736E-01
   7145.00  6.0543179E-01
   7145.33  5.9241458E-01
   7145.67  5.7896180E-01
   7146.00  5.6546146E-01
   7146.33  5.5223781E-01
   7146.67  5.3945225E-01
   7147.00  5.2723018E-01
   7147.33  5.1578169E-01
   7147.67  5.0511331E-01
   7148.00  4.9527288E-01
   7148.33  4.8639119E-01
   7148.67  4.7836550E-01
   7149.00  4.7119413E-01
   7149.33  4.6498575E-01
   7149.67  4.5964154E-01
   7150.00  4.5517150E-01
   7150.33  4.5169492E-01
   7150.67  4.4909917E-01
   7151.00  4.4736633E-01
   7151.33  4.4655220E-01
   7151.67  4.4647499E-01
   7152.00  4.4703530E-01
   7152.33  4.4814401E-01
   7152.67  4.4955837E-01
   7153.00  4.5110388E-01
   7153.33  4.5255904E-01
   7153.67  4.5373390E-01
   7154.00  4.5448494E-01
   7154.33  4.5463138E-01
   7154.67  4.5419672E-01
   7155.00  4.5319800E-01
   7155.33  4.5164370E-01
   7155.67  4.4969396E-01
   7156.00  4.4742901E-01
   7156.33  4.4488626E-01
   7156.67  4.4212227E-01
   7157.00  4.3912181E-01
   7157.33  4.3579906E-01
   7157.67  4.3212273E-01
   7158.00  4.2803871E-01
   7158.33  4.2345478E-01
   7158.67  4.1843508E-01
   7159.00  4.1302832E-01
   7159.33  4.0730952E-01
   7159.67  4.0148120E-01
   7160.00  3.9572329E-01
   7160.33  3.9030106E-01
   7160.67  3.8539381E-01
   7161.00  3.8115430E-01
   7161.33  3.7780092E-01
   7161.67  3.7528104E-01
   7162.00  3.7357709E-01
   7162.33  3.7270916E-01
   7162.67  3.7247535E-01
   7163.00  3.7276964E-01
   7163.33  3.7352135E-01
   7163.67  3.7457189E-01
   7164.00  3.7584361E-01
   7164.33  3.7728038E-01
   7164.67  3.7880137E-01
   7165.00  3.8035807E-01
   7165.33  3.8189348E-01
   7165.67  3.8335432E-01
   7166.00  3.8469235E-01
   7166.33  3.8583415E-01
   7166.67  3.8676060E-01
   7167.00  3.8744869E-01
   7167.33  3.8785705E-01
   7167.67  3.8802460E-01
   7168.00  3.8797082E-01
   7168.33  3.8770575E-01
   7168.67  3.8729329E-01
   7169.00  3.8677049E-01
   7169.33  3.8617192E-01
   7169.67  3.8554661E-01
   7170.00  3.8492660E-01
   7170.33  3.8434992E-01
   7170.67  3.8383956E-01
   7171.00  3.8341422E-01
   7171.33  3.8309912E-01
   7171.67  3.8287986E-01
   7172.00  3.8273721E-01
