    FDMNES
    energy     <xanes>
   7097.00  5.1470734E-03
   7097.33  5.2708231E-03
   7097.67  5.4002361E-03
   7098.00  5.5356934E-03
   7098.33  5.6785015E-03
   7098.67  5.8283882E-03
   7099.00  5.9858695E-03
   7099.33  6.1526466E-03
   7099.67  6.3284356E-03
   7100.00  6.5139529E-03
   7100.33  6.7114666E-03
   7100.67  6.9207028E-03
   7101.00  7.1426836E-03
   7101.33  7.3805195E-03
   7101.67  7.6339935E-03
   7102.00  7.9046138E-03
   7102.33  8.1967899E-03
   7102.67  8.5104661E-03
   7103.00  8.8479577E-03
   7103.33  9.2157724E-03
   7103.67  9.6142479E-03
   7104.00  1.0047115E-02
   7104.33  1.0524465E-02
   7104.67  1.1047570E-02
   7105.00  1.1622814E-02
   7105.33  1.2266868E-02
   7105.67  1.2983271E-02
   7106.00  1.3783845E-02
   7106.33  1.4698497E-02
   7106.67  1.5736722E-02
   7107.00  1.6922852E-02
   7107.33  1.8317098E-02
   7107.67  1.9946687E-02
   7108.00  2.1870114E-02
   7108.33  2.4231575E-02
   7108.67  2.7123863E-02
   7109.00  3.0727718E-02
   7109.33  3.5506758E-02
   7109.67  4.1906475E-02
   7110.00  5.0792575E-02
   7110.33  6.4562483E-02
   7110.67  8.5498475E-02
   7111.00  1.1419882E-01
   7111.33  1.4796847E-01
   7111.67  1.9123647E-01
   7112.00  2.4954026E-01
   7112.33  3.1468352E-01
   7112.67  3.8510508E-01
   7113.00  4.7522805E-01
   7113.33  5.6562136E-01
   7113.67  6.0040873E-01
   7114.00  5.6283564E-01
   7114.33  4.7235897E-01
   7114.67  3.8146291E-01
   7115.00  3.1202781E-01
   7115.33  2.6925667E-01
   7115.67  2.4541404E-01
   7116.00  2.3678550E-01
   7116.33  2.4001897E-01
   7116.67  2.4557596E-01
   7117.00  2.4480051E-01
   7117.33  2.3254618E-01
   7117.67  2.1452923E-01
   7118.00  1.9581337E-01
   7118.33  1.7977725E-01
   7118.67  1.6673764E-01
   7119.00  1.5647308E-01
   7119.33  1.4883889E-01
   7119.67  1.4310243E-01
   7120.00  1.3891965E-01
   7120.33  1.3604864E-01
   7120.67  1.3393597E-01
   7121.00  1.3220449E-01
   7121.33  1.3073978E-01
   7121.67  1.2999948E-01
   7122.00  1.3049894E-01
   7122.33  1.3259186E-01
   7122.67  1.3593620E-01
   7123.00  1.4035737E-01
   7123.33  1.4587642E-01
   7123.67  1.5237534E-01
   7124.00  1.5989679E-01
   7124.33  1.6856814E-01
   7124.67  1.7814908E-01
   7125.00  1.8854998E-01
   7125.33  2.0005870E-01
   7125.67  2.1315119E-01
   7126.00  2.2860793E-01
   7126.33  2.4783224E-01
   7126.67  2.7113226E-01
   7127.00  2.9847653E-01
   7127.33  3.2887073E-01
   7127.67  3.5985325E-01
   7128.00  3.9016132E-01
   7128.33  4.1971061E-01
   7128.67  4.4992231E-01
   7129.00  4.8241476E-01
   7129.33  5.1961242E-01
   7129.67  5.6231325E-01
   7130.00  6.1044547E-01
   7130.33  6.6236503E-01
   7130.67  7.1369070E-01
   7131.00  7.6038958E-01
   7131.33  7.9783628E-01
   7131.67  8.2648609E-01
   7132.00  8.4869194E-01
   7132.33  8.6889080E-01
   7132.67  8.9149269E-01
   7133.00  9.1795599E-01
   7133.33  9.4687010E-01
   7133.67  9.7317502E-01
   7134.00  9.9154831E-01
   7134.33  9.9474584E-01
   7134.67  9.8154193E-01
   7135.00  9.5236134E-01
   7135.33  9.0901166E-01
   7135.67  8.5791623E-01
   7136.00  8.0310388E-01
   7136.33  7.4826224E-01
   7136.67  6.9587534E-01
   7137.00  6.4729058E-01
   7137.33  6.0406495E-01
   7137.67  5.6615412E-01
   7138.00  5.3381981E-01
   7138.33  5.0787903E-01
   7138.67  4.8751308E-01
   7139.00  4.7244496E-01
   7139.33  4.6273335E-01
   7139.67  4.5706319E-01
   7140.00  4.5473669E-01
   7140.33  4.5526347E-01
   7140.67  4.5761704E-01
   7141.00  4.6131137E-01
   7141.33  4.6605391E-01
   7141.67  4.7147202E-01
   7142.00  4.7743901E-01
   7142.33  4.8393028E-01
   7142.67  4.9082889E-01
   7143.00  4.9807360E-01
   7143.33  5.0558772E-01
   7143.67  5.1318782E-01
   7144.00  5.2070798E-01
   7144.33  5.2789306E-01
   7144.67  5.3455731E-01
   7145.00  5.4052353E-01
   7145.33  5.4551417E-01
   7145.67  5.4952557E-01
   7146.00  5.5251624E-01
   7146.33  5.5438232E-01
   7146.67  5.5533943E-01
   7147.00  5.5550440E-01
   7147.33  5.5497520E-01
   7147.67  5.5405854E-01
   7148.00  5.5296664E-01
   7148.33  5.5193988E-01
   7148.67  5.5119001E-01
   7149.00  5.5088384E-01
   7149.33  5.5124952E-01
   7149.67  5.5230911E-01
   7150.00  5.5409434E-01
   7150.33  5.5666684E-01
   7150.67  5.5985074E-01
   7151.00  5.6353313E-01
   7151.33  5.6760259E-01
   7151.67  5.7185868E-01
   7152.00  5.7617980E-01
   7152.33  5.8044870E-01
   7152.67  5.8459991E-01
   7153.00  5.8860489E-01
   7153.33  5.9244444E-01
   7153.67  5.9615943E-01
   7154.00  5.9977658E-01
   7154.33  6.0331277E-01
   7154.67  6.0678257E-01
   7155.00  6.1016695E-01
   7155.33  6.1339806E-01
   7155.67  6.1641525E-01
   7156.00  6.1913712E-01
   7156.33  6.2141467E-01
   7156.67  6.2320646E-01
   7157.00  6.2445129E-01
   7157.33  6.2503067E-01
   7157.67  6.2500530E-01
   7158.00  6.2438744E-01
   7158.33  6.2314428E-01
   7158.67  6.2139890E-01
   7159.00  6.1920451E-01
   7159.33  6.1657725E-01
   7159.67  6.1362722E-01
   7160.00  6.1040298E-01
   7160.33  6.0692478E-01
   7160.67  6.0325849E-01
   7161.00  5.9942739E-01
   7161.33  5.9543064E-01
   7161.67  5.9129405E-01
   7162.00  5.8701803E-01
   7162.33  5.8258020E-01
   7162.67  5.7798727E-01
   7163.00  5.7322604E-01
   7163.33  5.6825775E-01
   7163.67  5.6309238E-01
   7164.00  5.5772171E-01
   7164.33  5.5211350E-01
   7164.67  5.4629419E-01
   7165.00  5.4026831E-01
   7165.33  5.3402219E-01
   7165.67  5.2759771E-01
   7166.00  5.2101407E-01
   7166.33  5.1428115E-01
   7166.67  5.0744572E-01
   7167.00  5.0053473E-01
   7167.33  4.9357407E-01
   7167.67  4.8660176E-01
   7168.00  4.7964675E-01
   7168.33  4.7274968E-01
   7168.67  4.6594076E-01
   7169.00  4.5925362E-01
   7169.33  4.5274710E-01
   7169.67  4.4643944E-01
   7170.00  4.4036465E-01
   7170.33  4.3459932E-01
   7170.67  4.2915768E-01
   7171.00  4.2409129E-01
   7171.33  4.1954245E-01
   7171.67  4.1559389E-01
   7172.00  4.1241834E-01
