    FDMNES
    energy     <xanes>
   7097.00  4.9708960E-03
   7097.33  5.0836861E-03
   7097.67  5.2013865E-03
   7098.00  5.3243183E-03
   7098.33  5.4535989E-03
   7098.67  5.5889804E-03
   7099.00  5.7308965E-03
   7099.33  5.8807951E-03
   7099.67  6.0384180E-03
   7100.00  6.2043660E-03
   7100.33  6.3805628E-03
   7100.67  6.5667580E-03
   7101.00  6.7638096E-03
   7101.33  6.9743491E-03
   7101.67  7.1981763E-03
   7102.00  7.4365603E-03
   7102.33  7.6932303E-03
   7102.67  7.9681295E-03
   7103.00  8.2632165E-03
   7103.33  8.5840091E-03
   7103.67  8.9308048E-03
   7104.00  9.3067879E-03
   7104.33  9.7205723E-03
   7104.67  1.0173309E-02
   7105.00  1.0670524E-02
   7105.33  1.1226621E-02
   7105.67  1.1844870E-02
   7106.00  1.2535719E-02
   7106.33  1.3325533E-02
   7106.67  1.4223297E-02
   7107.00  1.5251179E-02
   7107.33  1.6463943E-02
   7107.67  1.7888202E-02
   7108.00  1.9579576E-02
   7108.33  2.1675407E-02
   7108.67  2.4270305E-02
   7109.00  2.7545933E-02
   7109.33  3.1971487E-02
   7109.67  3.8021653E-02
   7110.00  4.6617240E-02
   7110.33  6.0349905E-02
   7110.67  8.2023353E-02
   7111.00  1.1366489E-01
   7111.33  1.5477286E-01
   7111.67  2.0278095E-01
   7112.00  2.4966478E-01
   7112.33  2.7477191E-01
   7112.67  2.8469075E-01
   7113.00  2.9619317E-01
   7113.33  3.2132911E-01
   7113.67  3.6014042E-01
   7114.00  3.9675106E-01
   7114.33  3.8889218E-01
   7114.67  3.3671667E-01
   7115.00  2.7352490E-01
   7115.33  2.2905919E-01
   7115.67  2.0385934E-01
   7116.00  1.9159541E-01
   7116.33  1.8128744E-01
   7116.67  1.6556509E-01
   7117.00  1.4754818E-01
   7117.33  1.3386377E-01
   7117.67  1.2606751E-01
   7118.00  1.2371718E-01
   7118.33  1.2632831E-01
   7118.67  1.3191725E-01
   7119.00  1.3841027E-01
   7119.33  1.4302542E-01
   7119.67  1.4550514E-01
   7120.00  1.4646676E-01
   7120.33  1.4717306E-01
   7120.67  1.4957089E-01
   7121.00  1.5418527E-01
   7121.33  1.6062439E-01
   7121.67  1.6874487E-01
   7122.00  1.7924229E-01
   7122.33  1.9246190E-01
   7122.67  2.0684699E-01
   7123.00  2.2147943E-01
   7123.33  2.3692030E-01
   7123.67  2.5417701E-01
   7124.00  2.7389797E-01
   7124.33  2.9698406E-01
   7124.67  3.2325354E-01
   7125.00  3.5191988E-01
   7125.33  3.7945331E-01
   7125.67  4.0118554E-01
   7126.00  4.1600469E-01
   7126.33  4.2665615E-01
   7126.67  4.3688353E-01
   7127.00  4.4773842E-01
   7127.33  4.5967815E-01
   7127.67  4.7314073E-01
   7128.00  4.8884896E-01
   7128.33  5.0780960E-01
   7128.67  5.2981953E-01
   7129.00  5.5497635E-01
   7129.33  5.8437456E-01
   7129.67  6.1828170E-01
   7130.00  6.5666252E-01
   7130.33  6.9830797E-01
   7130.67  7.3946398E-01
   7131.00  7.7644640E-01
   7131.33  8.0492330E-01
   7131.67  8.2493454E-01
   7132.00  8.3750625E-01
   7132.33  8.4364993E-01
   7132.67  8.4539804E-01
   7133.00  8.4367469E-01
   7133.33  8.3912777E-01
   7133.67  8.3248739E-01
   7134.00  8.2372203E-01
   7134.33  8.1319985E-01
   7134.67  8.0256891E-01
   7135.00  7.9261152E-01
   7135.33  7.8262290E-01
   7135.67  7.7094779E-01
   7136.00  7.5662019E-01
   7136.33  7.3967254E-01
   7136.67  7.2194055E-01
   7137.00  7.0484202E-01
   7137.33  6.8949644E-01
   7137.67  6.7571548E-01
   7138.00  6.6303947E-01
   7138.33  6.5091877E-01
   7138.67  6.3895666E-01
   7139.00  6.2719240E-01
   7139.33  6.1603853E-01
   7139.67  6.0589786E-01
   7140.00  5.9712929E-01
   7140.33  5.9021039E-01
   7140.67  5.8504042E-01
   7141.00  5.8160310E-01
   7141.33  5.7998738E-01
   7141.67  5.7975479E-01
   7142.00  5.8058625E-01
   7142.33  5.8208919E-01
   7142.67  5.8367219E-01
   7143.00  5.8490477E-01
   7143.33  5.8529429E-01
   7143.67  5.8472235E-01
   7144.00  5.8317081E-01
   7144.33  5.8064631E-01
   7144.67  5.7742409E-01
   7145.00  5.7362379E-01
   7145.33  5.6925903E-01
   7145.67  5.6441603E-01
   7146.00  5.5910901E-01
   7146.33  5.5334455E-01
   7146.67  5.4730481E-01
   7147.00  5.4116275E-01
   7147.33  5.3518211E-01
   7147.67  5.2959804E-01
   7148.00  5.2460369E-01
   7148.33  5.2046598E-01
   7148.67  5.1719182E-01
   7149.00  5.1481225E-01
   7149.33  5.1341319E-01
   7149.67  5.1281052E-01
   7150.00  5.1290664E-01
   7150.33  5.1362531E-01
   7150.67  5.1473083E-01
   7151.00  5.1607388E-01
   7151.33  5.1749424E-01
   7151.67  5.1883528E-01
   7152.00  5.1999520E-01
   7152.33  5.2086055E-01
   7152.67  5.2142785E-01
   7153.00  5.2169944E-01
   7153.33  5.2167594E-01
   7153.67  5.2144364E-01
   7154.00  5.2105299E-01
   7154.33  5.2054225E-01
   7154.67  5.1995943E-01
   7155.00  5.1931624E-01
   7155.33  5.1859398E-01
   7155.67  5.1776747E-01
   7156.00  5.1679280E-01
   7156.33  5.1558200E-01
   7156.67  5.1409614E-01
   7157.00  5.1228291E-01
   7157.33  5.1004552E-01
   7157.67  5.0740062E-01
   7158.00  5.0434139E-01
   7158.33  5.0083398E-01
   7158.67  4.9696797E-01
   7159.00  4.9279233E-01
   7159.33  4.8834362E-01
   7159.67  4.8372286E-01
   7160.00  4.7898918E-01
   7160.33  4.7419970E-01
   7160.67  4.6941691E-01
   7161.00  4.6468364E-01
   7161.33  4.6005700E-01
   7161.67  4.5556941E-01
   7162.00  4.5126001E-01
   7162.33  4.4720433E-01
   7162.67  4.4342368E-01
   7163.00  4.3996143E-01
   7163.33  4.3691307E-01
   7163.67  4.3427739E-01
   7164.00  4.3208167E-01
   7164.33  4.3039552E-01
   7164.67  4.2916788E-01
   7165.00  4.2839870E-01
   7165.33  4.2813081E-01
   7165.67  4.2828164E-01
   7166.00  4.2881898E-01
   7166.33  4.2973935E-01
   7166.67  4.3094611E-01
   7167.00  4.3238684E-01
   7167.33  4.3401518E-01
   7167.67  4.3573829E-01
   7168.00  4.3749245E-01
   7168.33  4.3919925E-01
   7168.67  4.4079613E-01
   7169.00  4.4223371E-01
   7169.33  4.4344839E-01
   7169.67  4.4444722E-01
   7170.00  4.4523022E-01
   7170.33  4.4579342E-01
   7170.67  4.4619842E-01
   7171.00  4.4648389E-01
   7171.33  4.4668460E-01
   7171.67  4.4684253E-01
   7172.00  4.4696907E-01
