    FDMNES
    energy     <xanes>
   7097.00  4.8349497E-03
   7097.33  4.9355494E-03
   7097.67  5.0399761E-03
   7098.00  5.1484454E-03
   7098.33  5.2617707E-03
   7098.67  5.3797130E-03
   7099.00  5.5025538E-03
   7099.33  5.6313110E-03
   7099.67  5.7657262E-03
   7100.00  5.9061764E-03
   7100.33  6.0539639E-03
   7100.67  6.2088184E-03
   7101.00  6.3712602E-03
   7101.33  6.5430024E-03
   7101.67  6.7237825E-03
   7102.00  6.9143460E-03
   7102.33  7.1170274E-03
   7102.67  7.3316193E-03
   7103.00  7.5592419E-03
   7103.33  7.8032254E-03
   7103.67  8.0635326E-03
   7104.00  8.3419534E-03
   7104.33  8.6435361E-03
   7104.67  8.9687045E-03
   7105.00  9.3205593E-03
   7105.33  9.7074172E-03
   7105.67  1.0130960E-02
   7106.00  1.0597180E-02
   7106.33  1.1121477E-02
   7106.67  1.1709273E-02
   7107.00  1.2374058E-02
   7107.33  1.3149618E-02
   7107.67  1.4054440E-02
   7108.00  1.5126461E-02
   7108.33  1.6461413E-02
   7108.67  1.8137503E-02
   7109.00  2.0304732E-02
   7109.33  2.3369319E-02
   7109.67  2.7826458E-02
   7110.00  3.4663429E-02
   7110.33  4.6719919E-02
   7110.67  6.6297635E-02
   7111.00  8.9959796E-02
   7111.33  1.0124215E-01
   7111.67  1.0079924E-01
   7112.00  9.6118829E-02
   7112.33  9.1416057E-02
   7112.67  8.7766141E-02
   7113.00  8.5502576E-02
   7113.33  8.5002527E-02
   7113.67  8.5992251E-02
   7114.00  8.8354295E-02
   7114.33  9.2182296E-02
   7114.67  9.7329750E-02
   7115.00  1.0388116E-01
   7115.33  1.1221742E-01
   7115.67  1.2239622E-01
   7116.00  1.3465570E-01
   7116.33  1.4949596E-01
   7116.67  1.6662807E-01
   7117.00  1.8569435E-01
   7117.33  2.0598113E-01
   7117.67  2.2660640E-01
   7118.00  2.4724310E-01
   7118.33  2.6713863E-01
   7118.67  2.8584017E-01
   7119.00  3.0443858E-01
   7119.33  3.2635260E-01
   7119.67  3.5409418E-01
   7120.00  3.8902600E-01
   7120.33  4.3254289E-01
   7120.67  4.8305389E-01
   7121.00  5.3878752E-01
   7121.33  5.9561140E-01
   7121.67  6.4702946E-01
   7122.00  6.8760975E-01
   7122.33  7.1211379E-01
   7122.67  7.2290044E-01
   7123.00  7.2261137E-01
   7123.33  7.1399390E-01
   7123.67  7.0109157E-01
   7124.00  6.8587959E-01
   7124.33  6.6989165E-01
   7124.67  6.5414531E-01
   7125.00  6.3902423E-01
   7125.33  6.2466121E-01
   7125.67  6.1079818E-01
   7126.00  5.9745361E-01
   7126.33  5.8492379E-01
   7126.67  5.7331384E-01
   7127.00  5.6265820E-01
   7127.33  5.5291822E-01
   7127.67  5.4373713E-01
   7128.00  5.3489025E-01
   7128.33  5.2621323E-01
   7128.67  5.1763999E-01
   7129.00  5.0924610E-01
   7129.33  5.0126847E-01
   7129.67  4.9390398E-01
   7130.00  4.8735622E-01
   7130.33  4.8194522E-01
   7130.67  4.7768164E-01
   7131.00  4.7464812E-01
   7131.33  4.7309134E-01
   7131.67  4.7294223E-01
   7132.00  4.7430422E-01
   7132.33  4.7752828E-01
   7132.67  4.8256070E-01
   7133.00  4.8952361E-01
   7133.33  4.9878659E-01
   7133.67  5.1016333E-01
   7134.00  5.2366875E-01
   7134.33  5.3951818E-01
   7134.67  5.5731653E-01
   7135.00  5.7684138E-01
   7135.33  5.9773143E-01
   7135.67  6.1883635E-01
   7136.00  6.3899905E-01
   7136.33  6.5636257E-01
   7136.67  6.6953687E-01
   7137.00  6.7716224E-01
   7137.33  6.7733199E-01
   7137.67  6.7067788E-01
   7138.00  6.5783362E-01
   7138.33  6.3970291E-01
   7138.67  6.1874842E-01
   7139.00  5.9652768E-01
   7139.33  5.7456314E-01
   7139.67  5.5393474E-01
   7140.00  5.3534019E-01
   7140.33  5.1965855E-01
   7140.67  5.0682213E-01
   7141.00  4.9680414E-01
   7141.33  4.8966211E-01
   7141.67  4.8467507E-01
   7142.00  4.8147758E-01
   7142.33  4.7988620E-01
   7142.67  4.7946171E-01
   7143.00  4.8005267E-01
   7143.33  4.8166562E-01
   7143.67  4.8413770E-01
   7144.00  4.8745592E-01
   7144.33  4.9172142E-01
   7144.67  4.9680993E-01
   7145.00  5.0267119E-01
   7145.33  5.0926174E-01
   7145.67  5.1628122E-01
   7146.00  5.2345649E-01
   7146.33  5.3035350E-01
   7146.67  5.3655518E-01
   7147.00  5.4169763E-01
   7147.33  5.4528201E-01
   7147.67  5.4731468E-01
   7148.00  5.4778828E-01
   7148.33  5.4664108E-01
   7148.67  5.4425308E-01
   7149.00  5.4081747E-01
   7149.33  5.3644144E-01
   7149.67  5.3140449E-01
   7150.00  5.2582197E-01
   7150.33  5.1973275E-01
   7150.67  5.1325191E-01
   7151.00  5.0640636E-01
   7151.33  4.9916010E-01
   7151.67  4.9154744E-01
   7152.00  4.8354950E-01
   7152.33  4.7508489E-01
   7152.67  4.6617300E-01
   7153.00  4.5678809E-01
   7153.33  4.4684558E-01
   7153.67  4.3640005E-01
   7154.00  4.2546430E-01
   7154.33  4.1402447E-01
   7154.67  4.0221298E-01
   7155.00  3.9012619E-01
   7155.33  3.7789474E-01
   7155.67  3.6571441E-01
   7156.00  3.5376108E-01
   7156.33  3.4230879E-01
   7156.67  3.3151869E-01
   7157.00  3.2156363E-01
   7157.33  3.1274184E-01
   7157.67  3.0505798E-01
   7158.00  2.9858612E-01
   7158.33  2.9352270E-01
   7158.67  2.8970509E-01
   7159.00  2.8709563E-01
   7159.33  2.8575938E-01
   7159.67  2.8545122E-01
   7160.00  2.8606819E-01
   7160.33  2.8758273E-01
   7160.67  2.8976841E-01
   7161.00  2.9252318E-01
   7161.33  2.9579987E-01
   7161.67  2.9945501E-01
   7162.00  3.0343324E-01
   7162.33  3.0772660E-01
   7162.67  3.1227749E-01
   7163.00  3.1707913E-01
   7163.33  3.2216600E-01
   7163.67  3.2751588E-01
   7164.00  3.3313861E-01
   7164.33  3.3908111E-01
   7164.67  3.4531712E-01
   7165.00  3.5185157E-01
   7165.33  3.5872408E-01
   7165.67  3.6589390E-01
   7166.00  3.7335306E-01
   7166.33  3.8112016E-01
   7166.67  3.8913687E-01
   7167.00  3.9737461E-01
   7167.33  4.0581394E-01
   7167.67  4.1438116E-01
   7168.00  4.2302444E-01
   7168.33  4.3167701E-01
   7168.67  4.4026236E-01
   7169.00  4.4871036E-01
   7169.33  4.5690894E-01
   7169.67  4.6480156E-01
   7170.00  4.7231865E-01
   7170.33  4.7932909E-01
   7170.67  4.8582024E-01
   7171.00  4.9173359E-01
   7171.33  4.9690737E-01
   7171.67  5.0130621E-01
   7172.00  5.0479228E-01
