    FDMNES
    energy     <xanes>
   7097.00  4.6996939E-03
   7097.33  4.8055275E-03
   7097.67  4.9160783E-03
   7098.00  5.0316706E-03
   7098.33  5.1534054E-03
   7098.67  5.2810686E-03
   7099.00  5.4151068E-03
   7099.33  5.5569713E-03
   7099.67  5.7064502E-03
   7100.00  5.8641767E-03
   7100.33  6.0321200E-03
   7100.67  6.2100984E-03
   7101.00  6.3990414E-03
   7101.33  6.6017136E-03
   7101.67  6.8180269E-03
   7102.00  7.0494015E-03
   7102.33  7.2998832E-03
   7102.67  7.5696174E-03
   7103.00  7.8608837E-03
   7103.33  8.1799104E-03
   7103.67  8.5274005E-03
   7104.00  8.9072409E-03
   7104.33  9.3296462E-03
   7104.67  9.7966724E-03
   7105.00  1.0315471E-02
   7105.33  1.0904210E-02
   7105.67  1.1568430E-02
   7106.00  1.2322662E-02
   7106.33  1.3202884E-02
   7106.67  1.4224596E-02
   7107.00  1.5421586E-02
   7107.33  1.6876570E-02
   7107.67  1.8638500E-02
   7108.00  2.0802774E-02
   7108.33  2.3606521E-02
   7108.67  2.7243454E-02
   7109.00  3.2077152E-02
   7109.33  3.9073805E-02
   7109.67  4.9362109E-02
   7110.00  6.5160448E-02
   7110.33  9.2895761E-02
   7110.67  1.3943870E-01
   7111.00  2.0564350E-01
   7111.33  2.6585416E-01
   7111.67  2.9716032E-01
   7112.00  3.0048913E-01
   7112.33  2.8034704E-01
   7112.67  2.5412437E-01
   7113.00  2.3247193E-01
   7113.33  2.0834949E-01
   7113.67  1.8482187E-01
   7114.00  1.6663766E-01
   7114.33  1.5669554E-01
   7114.67  1.5689869E-01
   7115.00  1.6639899E-01
   7115.33  1.7199296E-01
   7115.67  1.6108849E-01
   7116.00  1.3907113E-01
   7116.33  1.1868500E-01
   7116.67  1.0429977E-01
   7117.00  9.5508917E-02
   7117.33  9.1593024E-02
   7117.67  9.0949969E-02
   7118.00  9.2822550E-02
   7118.33  9.6673423E-02
   7118.67  1.0146457E-01
   7119.00  1.0641862E-01
   7119.33  1.1101774E-01
   7119.67  1.1533062E-01
   7120.00  1.1938427E-01
   7120.33  1.2278223E-01
   7120.67  1.2516729E-01
   7121.00  1.2661191E-01
   7121.33  1.2766426E-01
   7121.67  1.2885750E-01
   7122.00  1.3038251E-01
   7122.33  1.3261304E-01
   7122.67  1.3601640E-01
   7123.00  1.4116176E-01
   7123.33  1.4895108E-01
   7123.67  1.5956838E-01
   7124.00  1.7327019E-01
   7124.33  1.9032502E-01
   7124.67  2.0947287E-01
   7125.00  2.2935179E-01
   7125.33  2.4863514E-01
   7125.67  2.6750470E-01
   7126.00  2.8676581E-01
   7126.33  3.0730151E-01
   7126.67  3.2934594E-01
   7127.00  3.5332649E-01
   7127.33  3.8059452E-01
   7127.67  4.1199288E-01
   7128.00  4.4826350E-01
   7128.33  4.9026438E-01
   7128.67  5.3696268E-01
   7129.00  5.8772056E-01
   7129.33  6.4190223E-01
   7129.67  6.9799347E-01
   7130.00  7.5516438E-01
   7130.33  8.1264872E-01
   7130.67  8.6963832E-01
   7131.00  9.2523580E-01
   7131.33  9.7723033E-01
   7131.67  1.0230323E+00
   7132.00  1.0594232E+00
   7132.33  1.0816538E+00
   7132.67  1.0901177E+00
   7133.00  1.0855277E+00
   7133.33  1.0683618E+00
   7133.67  1.0421040E+00
   7134.00  1.0085087E+00
   7134.33  9.6906902E-01
   7134.67  9.2673659E-01
   7135.00  8.8347563E-01
   7135.33  8.4139905E-01
   7135.67  8.0179158E-01
   7136.00  7.6535934E-01
   7136.33  7.3284671E-01
   7136.67  7.0373892E-01
   7137.00  6.7779354E-01
   7137.33  6.5499982E-01
   7137.67  6.3464993E-01
   7138.00  6.1647712E-01
   7138.33  6.0046322E-01
   7138.67  5.8614946E-01
   7139.00  5.7334939E-01
   7139.33  5.6197685E-01
   7139.67  5.5160475E-01
   7140.00  5.4199308E-01
   7140.33  5.3293096E-01
   7140.67  5.2413250E-01
   7141.00  5.1548143E-01
   7141.33  5.0699217E-01
   7141.67  4.9880855E-01
   7142.00  4.9119433E-01
   7142.33  4.8467867E-01
   7142.67  4.7957037E-01
   7143.00  4.7616118E-01
   7143.33  4.7475185E-01
   7143.67  4.7471811E-01
   7144.00  4.7526003E-01
   7144.33  4.7504754E-01
   7144.67  4.7310963E-01
   7145.00  4.6908783E-01
   7145.33  4.6309135E-01
   7145.67  4.5616004E-01
   7146.00  4.4903967E-01
   7146.33  4.4253735E-01
   7146.67  4.3717505E-01
   7147.00  4.3334669E-01
   7147.33  4.3159805E-01
   7147.67  4.3187028E-01
   7148.00  4.3421131E-01
   7148.33  4.3882345E-01
   7148.67  4.4530348E-01
   7149.00  4.5345658E-01
   7149.33  4.6317187E-01
   7149.67  4.7394392E-01
   7150.00  4.8547136E-01
   7150.33  4.9745714E-01
   7150.67  5.0951492E-01
   7151.00  5.2137559E-01
   7151.33  5.3269847E-01
   7151.67  5.4330566E-01
   7152.00  5.5303318E-01
   7152.33  5.6161524E-01
   7152.67  5.6910005E-01
   7153.00  5.7546690E-01
   7153.33  5.8060531E-01
   7153.67  5.8472123E-01
   7154.00  5.8789941E-01
   7154.33  5.9015089E-01
   7154.67  5.9169206E-01
   7155.00  5.9260827E-01
   7155.33  5.9290834E-01
   7155.67  5.9271099E-01
   7156.00  5.9203869E-01
   7156.33  5.9084086E-01
   7156.67  5.8917451E-01
   7157.00  5.8704175E-01
   7157.33  5.8439989E-01
   7157.67  5.8133456E-01
   7158.00  5.7788511E-01
   7158.33  5.7407134E-01
   7158.67  5.7000458E-01
   7159.00  5.6575004E-01
   7159.33  5.6137253E-01
   7159.67  5.5695866E-01
   7160.00  5.5255656E-01
   7160.33  5.4821276E-01
   7160.67  5.4394708E-01
   7161.00  5.3977407E-01
   7161.33  5.3571156E-01
   7161.67  5.3173862E-01
   7162.00  5.2784075E-01
   7162.33  5.2400249E-01
   7162.67  5.2019151E-01
   7163.00  5.1638509E-01
   7163.33  5.1255487E-01
   7163.67  5.0868156E-01
   7164.00  5.0475220E-01
   7164.33  5.0074910E-01
   7164.67  4.9667683E-01
   7165.00  4.9253909E-01
   7165.33  4.8834122E-01
   7165.67  4.8411024E-01
   7166.00  4.7986976E-01
   7166.33  4.7565353E-01
   7166.67  4.7149166E-01
   7167.00  4.6741237E-01
   7167.33  4.6345884E-01
   7167.67  4.5964270E-01
   7168.00  4.5598470E-01
   7168.33  4.5252382E-01
   7168.67  4.4924187E-01
   7169.00  4.4613819E-01
   7169.33  4.4323411E-01
   7169.67  4.4050518E-01
   7170.00  4.3794861E-01
   7170.33  4.3558203E-01
   7170.67  4.3338623E-01
   7171.00  4.3136986E-01
   7171.33  4.2957903E-01
   7171.67  4.2803106E-01
   7172.00  4.2678218E-01
