    FDMNES
    energy     <xanes>
   7097.00  5.2261029E-03
   7097.33  5.3542052E-03
   7097.67  5.4882935E-03
   7098.00  5.6287785E-03
   7098.33  5.7770540E-03
   7098.67  5.9328430E-03
   7099.00  6.0967040E-03
   7099.33  6.2704615E-03
   7099.67  6.4538296E-03
   7100.00  6.6475881E-03
   7100.33  6.8541832E-03
   7100.67  7.0733462E-03
   7101.00  7.3061965E-03
   7101.33  7.5561107E-03
   7101.67  7.8228925E-03
   7102.00  8.1082054E-03
   7102.33  8.4168717E-03
   7102.67  8.7488909E-03
   7103.00  9.1068373E-03
   7103.33  9.4978894E-03
   7103.67  9.9225168E-03
   7104.00  1.0384907E-02
   7104.33  1.0896307E-02
   7104.67  1.1458299E-02
   7105.00  1.2078132E-02
   7105.33  1.2774614E-02
   7105.67  1.3552048E-02
   7106.00  1.4424046E-02
   7106.33  1.5424875E-02
   7106.67  1.6566054E-02
   7107.00  1.7876114E-02
   7107.33  1.9425439E-02
   7107.67  2.1247407E-02
   7108.00  2.3412275E-02
   7108.33  2.6093231E-02
   7108.67  2.9406441E-02
   7109.00  3.3576093E-02
   7109.33  3.9179885E-02
   7109.67  4.6792179E-02
   7110.00  5.7529403E-02
   7110.33  7.4510852E-02
   7110.67  1.0084256E-01
   7111.00  1.3765678E-01
   7111.33  1.8103655E-01
   7111.67  2.3147861E-01
   7112.00  2.9003534E-01
   7112.33  3.5226587E-01
   7112.67  4.2458628E-01
   7113.00  5.1564828E-01
   7113.33  6.1343621E-01
   7113.67  6.5415484E-01
   7114.00  5.9183542E-01
   7114.33  4.7123932E-01
   7114.67  3.6752782E-01
   7115.00  2.9486231E-01
   7115.33  2.5102881E-01
   7115.67  2.2583169E-01
   7116.00  2.1522838E-01
   7116.33  2.1527691E-01
   7116.67  2.1706065E-01
   7117.00  2.1457178E-01
   7117.33  2.0526430E-01
   7117.67  1.9244272E-01
   7118.00  1.7928738E-01
   7118.33  1.6838173E-01
   7118.67  1.5983380E-01
   7119.00  1.5304717E-01
   7119.33  1.4717391E-01
   7119.67  1.4164283E-01
   7120.00  1.3672051E-01
   7120.33  1.3305150E-01
   7120.67  1.3063318E-01
   7121.00  1.2947436E-01
   7121.33  1.2994525E-01
   7121.67  1.3194937E-01
   7122.00  1.3515089E-01
   7122.33  1.3872214E-01
   7122.67  1.4186739E-01
   7123.00  1.4456676E-01
   7123.33  1.4730024E-01
   7123.67  1.5053334E-01
   7124.00  1.5454446E-01
   7124.33  1.5975229E-01
   7124.67  1.6642009E-01
   7125.00  1.7507112E-01
   7125.33  1.8691575E-01
   7125.67  2.0265163E-01
   7126.00  2.2311459E-01
   7126.33  2.4886943E-01
   7126.67  2.7681880E-01
   7127.00  3.0312809E-01
   7127.33  3.2499545E-01
   7127.67  3.4539879E-01
   7128.00  3.6766512E-01
   7128.33  3.9383750E-01
   7128.67  4.2238490E-01
   7129.00  4.5194852E-01
   7129.33  4.8274132E-01
   7129.67  5.1631477E-01
   7130.00  5.5424948E-01
   7130.33  5.9839022E-01
   7130.67  6.4833884E-01
   7131.00  7.0359768E-01
   7131.33  7.6290468E-01
   7131.67  8.2271047E-01
   7132.00  8.7959253E-01
   7132.33  9.2913447E-01
   7132.67  9.7040996E-01
   7133.00  1.0037077E+00
   7133.33  1.0294995E+00
   7133.67  1.0491309E+00
   7134.00  1.0612172E+00
   7134.33  1.0604421E+00
   7134.67  1.0438476E+00
   7135.00  1.0098072E+00
   7135.33  9.5880530E-01
   7135.67  8.9843056E-01
   7136.00  8.3404271E-01
   7136.33  7.7061769E-01
   7136.67  7.1098839E-01
   7137.00  6.5645762E-01
   7137.33  6.0843101E-01
   7137.67  5.6643279E-01
   7138.00  5.3053861E-01
   7138.33  5.0153113E-01
   7138.67  4.7858624E-01
   7139.00  4.6156154E-01
   7139.33  4.5083776E-01
   7139.67  4.4520755E-01
   7140.00  4.4409510E-01
   7140.33  4.4718149E-01
   7140.67  4.5317230E-01
   7141.00  4.6138710E-01
   7141.33  4.7131000E-01
   7141.67  4.8215453E-01
   7142.00  4.9347832E-01
   7142.33  5.0483032E-01
   7142.67  5.1582491E-01
   7143.00  5.2620985E-01
   7143.33  5.3570399E-01
   7143.67  5.4434906E-01
   7144.00  5.5218164E-01
   7144.33  5.5921987E-01
   7144.67  5.6567553E-01
   7145.00  5.7162818E-01
   7145.33  5.7704577E-01
   7145.67  5.8192967E-01
   7146.00  5.8616770E-01
   7146.33  5.8947891E-01
   7146.67  5.9177435E-01
   7147.00  5.9291054E-01
   7147.33  5.9262154E-01
   7147.67  5.9104722E-01
   7148.00  5.8825213E-01
   7148.33  5.8427196E-01
   7148.67  5.7948011E-01
   7149.00  5.7410479E-01
   7149.33  5.6836777E-01
   7149.67  5.6256215E-01
   7150.00  5.5688841E-01
   7150.33  5.5158852E-01
   7150.67  5.4677741E-01
   7151.00  5.4255169E-01
   7151.33  5.3906232E-01
   7151.67  5.3625400E-01
   7152.00  5.3412020E-01
   7152.33  5.3270622E-01
   7152.67  5.3187676E-01
   7153.00  5.3157472E-01
   7153.33  5.3178674E-01
   7153.67  5.3238676E-01
   7154.00  5.3332043E-01
   7154.33  5.3456732E-01
   7154.67  5.3604656E-01
   7155.00  5.3772513E-01
   7155.33  5.3959179E-01
   7155.67  5.4159850E-01
   7156.00  5.4372442E-01
   7156.33  5.4595923E-01
   7156.67  5.4826996E-01
   7157.00  5.5063936E-01
   7157.33  5.5305057E-01
   7157.67  5.5547565E-01
   7158.00  5.5789436E-01
   7158.33  5.6027929E-01
   7158.67  5.6260937E-01
   7159.00  5.6486120E-01
   7159.33  5.6699108E-01
   7159.67  5.6897918E-01
   7160.00  5.7079375E-01
   7160.33  5.7236186E-01
   7160.67  5.7365152E-01
   7161.00  5.7460797E-01
   7161.33  5.7512100E-01
   7161.67  5.7517854E-01
   7162.00  5.7472889E-01
   7162.33  5.7364624E-01
   7162.67  5.7195257E-01
   7163.00  5.6961465E-01
   7163.33  5.6652314E-01
   7163.67  5.6275352E-01
   7164.00  5.5831412E-01
   7164.33  5.5315192E-01
   7164.67  5.4739216E-01
   7165.00  5.4108562E-01
   7165.33  5.3424332E-01
   7165.67  5.2700613E-01
   7166.00  5.1945004E-01
   7166.33  5.1163941E-01
   7166.67  5.0369835E-01
   7167.00  4.9570797E-01
   7167.33  4.8776137E-01
   7167.67  4.7993511E-01
   7168.00  4.7229385E-01
   7168.33  4.6493602E-01
   7168.67  4.5788755E-01
   7169.00  4.5119225E-01
   7169.33  4.4494716E-01
   7169.67  4.3913860E-01
   7170.00  4.3378701E-01
   7170.33  4.2896805E-01
   7170.67  4.2463530E-01
   7171.00  4.2079893E-01
   7171.33  4.1753816E-01
   7171.67  4.1481939E-01
   7172.00  4.1268241E-01
