    FDMNES
    energy     <xanes>
   7097.00  5.0787159E-03
   7097.33  5.1948184E-03
   7097.67  5.3160054E-03
   7098.00  5.4426082E-03
   7098.33  5.5757812E-03
   7098.67  5.7152651E-03
   7099.00  5.8615055E-03
   7099.33  6.0159942E-03
   7099.67  6.1784587E-03
   7100.00  6.3495132E-03
   7100.33  6.5311320E-03
   7100.67  6.7230457E-03
   7101.00  6.9261258E-03
   7101.33  7.1430591E-03
   7101.67  7.3736180E-03
   7102.00  7.6190810E-03
   7102.33  7.8832289E-03
   7102.67  8.1659620E-03
   7103.00  8.4692335E-03
   7103.33  8.7985854E-03
   7103.67  9.1542396E-03
   7104.00  9.5393324E-03
   7104.33  9.9624122E-03
   7104.67  1.0424477E-02
   7105.00  1.0930892E-02
   7105.33  1.1495734E-02
   7105.67  1.2121927E-02
   7106.00  1.2819437E-02
   7106.33  1.3613568E-02
   7106.67  1.4512406E-02
   7107.00  1.5536701E-02
   7107.33  1.6737961E-02
   7107.67  1.8140139E-02
   7108.00  1.9794435E-02
   7108.33  2.1827703E-02
   7108.67  2.4325565E-02
   7109.00  2.7454410E-02
   7109.33  3.1646438E-02
   7109.67  3.7342641E-02
   7110.00  4.5406578E-02
   7110.33  5.8273524E-02
   7110.67  7.8368972E-02
   7111.00  1.0621601E-01
   7111.33  1.3659942E-01
   7111.67  1.6782140E-01
   7112.00  2.0054278E-01
   7112.33  2.2930293E-01
   7112.67  2.5341932E-01
   7113.00  2.8409549E-01
   7113.33  3.4275034E-01
   7113.67  4.2492486E-01
   7114.00  5.0126484E-01
   7114.33  5.2418847E-01
   7114.67  4.7876169E-01
   7115.00  3.9258266E-01
   7115.33  3.1530360E-01
   7115.67  2.6114271E-01
   7116.00  2.2719885E-01
   7116.33  2.0981803E-01
   7116.67  2.0224511E-01
   7117.00  2.0006731E-01
   7117.33  1.9876954E-01
   7117.67  1.9629128E-01
   7118.00  1.9254454E-01
   7118.33  1.8725603E-01
   7118.67  1.8082200E-01
   7119.00  1.7397689E-01
   7119.33  1.6757706E-01
   7119.67  1.6196512E-01
   7120.00  1.5719210E-01
   7120.33  1.5314889E-01
   7120.67  1.4948482E-01
   7121.00  1.4607193E-01
   7121.33  1.4297783E-01
   7121.67  1.4035416E-01
   7122.00  1.3852520E-01
   7122.33  1.3840356E-01
   7122.67  1.4062703E-01
   7123.00  1.4556475E-01
   7123.33  1.5361615E-01
   7123.67  1.6448065E-01
   7124.00  1.7844014E-01
   7124.33  1.9660313E-01
   7124.67  2.1899346E-01
   7125.00  2.4518457E-01
   7125.33  2.7345171E-01
   7125.67  3.0126301E-01
   7126.00  3.2799071E-01
   7126.33  3.5473951E-01
   7126.67  3.8279599E-01
   7127.00  4.1243272E-01
   7127.33  4.4402552E-01
   7127.67  4.7795005E-01
   7128.00  5.1438072E-01
   7128.33  5.5256140E-01
   7128.67  5.9059426E-01
   7129.00  6.2725344E-01
   7129.33  6.6174353E-01
   7129.67  6.9435951E-01
   7130.00  7.2515646E-01
   7130.33  7.5358098E-01
   7130.67  7.7905311E-01
   7131.00  8.0036124E-01
   7131.33  8.1512061E-01
   7131.67  8.2308874E-01
   7132.00  8.2469391E-01
   7132.33  8.2117311E-01
   7132.67  8.1529419E-01
   7133.00  8.0858362E-01
   7133.33  8.0220847E-01
   7133.67  7.9666127E-01
   7134.00  7.9203651E-01
   7134.33  7.8809370E-01
   7134.67  7.8368562E-01
   7135.00  7.7723300E-01
   7135.33  7.6655947E-01
   7135.67  7.5157672E-01
   7136.00  7.3272926E-01
   7136.33  7.1072360E-01
   7136.67  6.8711774E-01
   7137.00  6.6288873E-01
   7137.33  6.3908444E-01
   7137.67  6.1651462E-01
   7138.00  5.9581656E-01
   7138.33  5.7792647E-01
   7138.67  5.6298524E-01
   7139.00  5.5119136E-01
   7139.33  5.4289048E-01
   7139.67  5.3735975E-01
   7140.00  5.3413072E-01
   7140.33  5.3276124E-01
   7140.67  5.3240434E-01
   7141.00  5.3258715E-01
   7141.33  5.3291062E-01
   7141.67  5.3310222E-01
   7142.00  5.3304998E-01
   7142.33  5.3267802E-01
   7142.67  5.3204113E-01
   7143.00  5.3117877E-01
   7143.33  5.3012069E-01
   7143.67  5.2893293E-01
   7144.00  5.2764294E-01
   7144.33  5.2625971E-01
   7144.67  5.2480310E-01
   7145.00  5.2327839E-01
   7145.33  5.2168772E-01
   7145.67  5.2005716E-01
   7146.00  5.1841237E-01
   7146.33  5.1679692E-01
   7146.67  5.1525504E-01
   7147.00  5.1382775E-01
   7147.33  5.1257447E-01
   7147.67  5.1150151E-01
   7148.00  5.1061189E-01
   7148.33  5.0989879E-01
   7148.67  5.0929439E-01
   7149.00  5.0875098E-01
   7149.33  5.0820927E-01
   7149.67  5.0761637E-01
   7150.00  5.0694091E-01
   7150.33  5.0615572E-01
   7150.67  5.0528739E-01
   7151.00  5.0436875E-01
   7151.33  5.0345526E-01
   7151.67  5.0261534E-01
   7152.00  5.0191478E-01
   7152.33  5.0145428E-01
   7152.67  5.0126876E-01
   7153.00  5.0139676E-01
   7153.33  5.0190724E-01
   7153.67  5.0276411E-01
   7154.00  5.0395740E-01
   7154.33  5.0550270E-01
   7154.67  5.0733055E-01
   7155.00  5.0941010E-01
   7155.33  5.1172876E-01
   7155.67  5.1421990E-01
   7156.00  5.1684862E-01
   7156.33  5.1958337E-01
   7156.67  5.2236716E-01
   7157.00  5.2516232E-01
   7157.33  5.2792393E-01
   7157.67  5.3061788E-01
   7158.00  5.3321469E-01
   7158.33  5.3566794E-01
   7158.67  5.3796763E-01
   7159.00  5.4009511E-01
   7159.33  5.4200937E-01
   7159.67  5.4372122E-01
   7160.00  5.4522247E-01
   7160.33  5.4647910E-01
   7160.67  5.4751372E-01
   7161.00  5.4832455E-01
   7161.33  5.4888365E-01
   7161.67  5.4921676E-01
   7162.00  5.4931920E-01
   7162.33  5.4915828E-01
   7162.67  5.4876188E-01
   7163.00  5.4813497E-01
   7163.33  5.4725904E-01
   7163.67  5.4617128E-01
   7164.00  5.4488078E-01
   7164.33  5.4337483E-01
   7164.67  5.4168890E-01
   7165.00  5.3983374E-01
   7165.33  5.3780315E-01
   7165.67  5.3563021E-01
   7166.00  5.3332711E-01
   7166.33  5.3089423E-01
   7166.67  5.2835992E-01
   7167.00  5.2573400E-01
   7167.33  5.2301494E-01
   7167.67  5.2022013E-01
   7168.00  5.1735634E-01
   7168.33  5.1442721E-01
   7168.67  5.1144676E-01
   7169.00  5.0841740E-01
   7169.33  5.0533813E-01
   7169.67  5.0222227E-01
   7170.00  4.9907939E-01
   7170.33  4.9592511E-01
   7170.67  4.9278881E-01
   7171.00  4.8971003E-01
   7171.33  4.8678508E-01
   7171.67  4.8414111E-01
   7172.00  4.8196554E-01
