    FDMNES
    energy     <xanes>
   7097.00  4.5783090E-03
   7097.33  4.6813352E-03
   7097.67  4.7889341E-03
   7098.00  4.9014200E-03
   7098.33  5.0198611E-03
   7098.67  5.1440506E-03
   7099.00  5.2744225E-03
   7099.33  5.4123864E-03
   7099.67  5.5577389E-03
   7100.00  5.7110969E-03
   7100.33  5.8743763E-03
   7100.67  6.0474057E-03
   7101.00  6.2310933E-03
   7101.33  6.4281353E-03
   7101.67  6.6384557E-03
   7102.00  6.8634471E-03
   7102.33  7.1070672E-03
   7102.67  7.3694757E-03
   7103.00  7.6529164E-03
   7103.33  7.9635033E-03
   7103.67  8.3019568E-03
   7104.00  8.6721162E-03
   7104.33  9.0840464E-03
   7104.67  9.5398231E-03
   7105.00  1.0046532E-02
   7105.33  1.0622134E-02
   7105.67  1.1272181E-02
   7106.00  1.2011093E-02
   7106.33  1.2874510E-02
   7106.67  1.3877852E-02
   7107.00  1.5054599E-02
   7107.33  1.6486575E-02
   7107.67  1.8222018E-02
   7108.00  2.0354780E-02
   7108.33  2.3117548E-02
   7108.67  2.6698180E-02
   7109.00  3.1448456E-02
   7109.33  3.8298081E-02
   7109.67  4.8313935E-02
   7110.00  6.3581640E-02
   7110.33  9.0090349E-02
   7110.67  1.3413137E-01
   7111.00  1.9727878E-01
   7111.33  2.6713108E-01
   7111.67  3.2620090E-01
   7112.00  3.4338113E-01
   7112.33  3.0835852E-01
   7112.67  2.6587879E-01
   7113.00  2.3638959E-01
   7113.33  2.1107077E-01
   7113.67  1.7868616E-01
   7114.00  1.4398082E-01
   7114.33  1.1683551E-01
   7114.67  9.8627935E-02
   7115.00  8.7354817E-02
   7115.33  7.8572374E-02
   7115.67  6.9667523E-02
   7116.00  6.1963492E-02
   7116.33  5.6866413E-02
   7116.67  5.3888122E-02
   7117.00  5.2614104E-02
   7117.33  5.2889719E-02
   7117.67  5.4391692E-02
   7118.00  5.7029903E-02
   7118.33  6.0831595E-02
   7118.67  6.5616871E-02
   7119.00  7.1308043E-02
   7119.33  7.7574644E-02
   7119.67  8.3506905E-02
   7120.00  8.8260739E-02
   7120.33  9.1128487E-02
   7120.67  9.2731461E-02
   7121.00  9.3955864E-02
   7121.33  9.5899693E-02
   7121.67  9.9085047E-02
   7122.00  1.0372638E-01
   7122.33  1.1020190E-01
   7122.67  1.1871496E-01
   7123.00  1.2990078E-01
   7123.33  1.4518684E-01
   7123.67  1.6535900E-01
   7124.00  1.9190847E-01
   7124.33  2.2833694E-01
   7124.67  2.7609293E-01
   7125.00  3.3624945E-01
   7125.33  4.0777007E-01
   7125.67  4.7936017E-01
   7126.00  5.3353609E-01
   7126.33  5.5060773E-01
   7126.67  5.4659355E-01
   7127.00  5.4064082E-01
   7127.33  5.4613486E-01
   7127.67  5.6578103E-01
   7128.00  5.9910464E-01
   7128.33  6.4258992E-01
   7128.67  6.8900839E-01
   7129.00  7.3445160E-01
   7129.33  7.7612967E-01
   7129.67  8.1344042E-01
   7130.00  8.4580506E-01
   7130.33  8.7187267E-01
   7130.67  8.9172716E-01
   7131.00  9.0487047E-01
   7131.33  9.0987644E-01
   7131.67  9.0751636E-01
   7132.00  8.9843667E-01
   7132.33  8.8411372E-01
   7132.67  8.6821079E-01
   7133.00  8.5309809E-01
   7133.33  8.4024048E-01
   7133.67  8.2926393E-01
   7134.00  8.2002349E-01
   7134.33  8.1314467E-01
   7134.67  8.0847971E-01
   7135.00  8.0496948E-01
   7135.33  8.0012704E-01
   7135.67  7.9217864E-01
   7136.00  7.8060746E-01
   7136.33  7.6555222E-01
   7136.67  7.4855820E-01
   7137.00  7.3073187E-01
   7137.33  7.1322725E-01
   7137.67  6.9679661E-01
   7138.00  6.8183448E-01
   7138.33  6.6873725E-01
   7138.67  6.5728521E-01
   7139.00  6.4737139E-01
   7139.33  6.3898059E-01
   7139.67  6.3172590E-01
   7140.00  6.2541024E-01
   7140.33  6.1989047E-01
   7140.67  6.1485149E-01
   7141.00  6.1011583E-01
   7141.33  6.0555015E-01
   7141.67  6.0110185E-01
   7142.00  5.9686617E-01
   7142.33  5.9310555E-01
   7142.67  5.9001719E-01
   7143.00  5.8778489E-01
   7143.33  5.8663962E-01
   7143.67  5.8643054E-01
   7144.00  5.8702576E-01
   7144.33  5.8824338E-01
   7144.67  5.8969205E-01
   7145.00  5.9106651E-01
   7145.33  5.9196021E-01
   7145.67  5.9211718E-01
   7146.00  5.9133827E-01
   7146.33  5.8936677E-01
   7146.67  5.8634167E-01
   7147.00  5.8235194E-01
   7147.33  5.7744832E-01
   7147.67  5.7190112E-01
   7148.00  5.6584712E-01
   7148.33  5.5937858E-01
   7148.67  5.5264852E-01
   7149.00  5.4571523E-01
   7149.33  5.3859213E-01
   7149.67  5.3130769E-01
   7150.00  5.2385135E-01
   7150.33  5.1616787E-01
   7150.67  5.0823490E-01
   7151.00  5.0000051E-01
   7151.33  4.9135081E-01
   7151.67  4.8226727E-01
   7152.00  4.7270754E-01
   7152.33  4.6258879E-01
   7152.67  4.5199562E-01
   7153.00  4.4098616E-01
   7153.33  4.2963082E-01
   7153.67  4.1810918E-01
   7154.00  4.0655396E-01
   7154.33  3.9512973E-01
   7154.67  3.8395482E-01
   7155.00  3.7312284E-01
   7155.33  3.6276439E-01
   7155.67  3.5287269E-01
   7156.00  3.4346648E-01
   7156.33  3.3461157E-01
   7156.67  3.2624072E-01
   7157.00  3.1834606E-01
   7157.33  3.1097797E-01
   7157.67  3.0407633E-01
   7158.00  2.9764843E-01
   7158.33  2.9177609E-01
   7158.67  2.8643026E-01
   7159.00  2.8164718E-01
   7159.33  2.7754990E-01
   7159.67  2.7410901E-01
   7160.00  2.7136097E-01
   7160.33  2.6943023E-01
   7160.67  2.6824644E-01
   7161.00  2.6781694E-01
   7161.33  2.6823473E-01
   7161.67  2.6939844E-01
   7162.00  2.7130170E-01
   7162.33  2.7402354E-01
   7162.67  2.7744742E-01
   7163.00  2.8153693E-01
   7163.33  2.8630313E-01
   7163.67  2.9158068E-01
   7164.00  2.9727225E-01
   7164.33  3.0329235E-01
   7164.67  3.0947871E-01
   7165.00  3.1572417E-01
   7165.33  3.2190832E-01
   7165.67  3.2794574E-01
   7166.00  3.3377965E-01
   7166.33  3.3934278E-01
   7166.67  3.4465662E-01
   7167.00  3.4973090E-01
   7167.33  3.5456288E-01
   7167.67  3.5921436E-01
   7168.00  3.6371934E-01
   7168.33  3.6810265E-01
   7168.67  3.7241125E-01
   7169.00  3.7666839E-01
   7169.33  3.8088997E-01
   7169.67  3.8509086E-01
   7170.00  3.8927232E-01
   7170.33  3.9342136E-01
   7170.67  3.9751588E-01
   7171.00  4.0151359E-01
   7171.33  4.0529869E-01
   7171.67  4.0871817E-01
   7172.00  4.1153642E-01
