    FDMNES
    energy     <xanes>
   7097.00  4.3160296E-03
   7097.33  4.4046481E-03
   7097.67  4.4969608E-03
   7098.00  4.5932115E-03
   7098.33  4.6942459E-03
   7098.67  4.7998826E-03
   7099.00  4.9104549E-03
   7099.33  5.0270673E-03
   7099.67  5.1495366E-03
   7100.00  5.2783320E-03
   7100.33  5.4149373E-03
   7100.67  5.5591871E-03
   7101.00  5.7117642E-03
   7101.33  5.8747310E-03
   7101.67  6.0479830E-03
   7102.00  6.2325549E-03
   7102.33  6.4314331E-03
   7102.67  6.6446704E-03
   7103.00  6.8739128E-03
   7103.33  7.1237067E-03
   7103.67  7.3944854E-03
   7104.00  7.6890286E-03
   7104.33  8.0147051E-03
   7104.67  8.3728746E-03
   7105.00  8.7685992E-03
   7105.33  9.2148219E-03
   7105.67  9.7152860E-03
   7106.00  1.0280165E-02
   7106.33  1.0934758E-02
   7106.67  1.1689596E-02
   7107.00  1.2568073E-02
   7107.33  1.3627604E-02
   7107.67  1.4901452E-02
   7108.00  1.6455047E-02
   7108.33  1.8451234E-02
   7108.67  2.1021841E-02
   7109.00  2.4415480E-02
   7109.33  2.9294542E-02
   7109.67  3.6435582E-02
   7110.00  4.7368465E-02
   7110.33  6.6474095E-02
   7110.67  9.7751389E-02
   7111.00  1.3890322E-01
   7111.33  1.7254565E-01
   7111.67  1.9371013E-01
   7112.00  2.0362468E-01
   7112.33  2.1013945E-01
   7112.67  2.1687036E-01
   7113.00  2.1380314E-01
   7113.33  1.9239063E-01
   7113.67  1.6887618E-01
   7114.00  1.5550804E-01
   7114.33  1.5042298E-01
   7114.67  1.4019942E-01
   7115.00  1.2322135E-01
   7115.33  1.0590315E-01
   7115.67  9.2670401E-02
   7116.00  8.4653323E-02
   7116.33  8.2159009E-02
   7116.67  8.3776942E-02
   7117.00  8.8630274E-02
   7117.33  9.5236645E-02
   7117.67  1.0102895E-01
   7118.00  1.0419473E-01
   7118.33  1.0366060E-01
   7118.67  1.0084529E-01
   7119.00  9.6958050E-02
   7119.33  9.2808892E-02
   7119.67  8.8814188E-02
   7120.00  8.5274325E-02
   7120.33  8.2667786E-02
   7120.67  8.1180618E-02
   7121.00  8.0964514E-02
   7121.33  8.2309338E-02
   7121.67  8.5189474E-02
   7122.00  8.9837222E-02
   7122.33  9.6928672E-02
   7122.67  1.0640196E-01
   7123.00  1.1770810E-01
   7123.33  1.2962122E-01
   7123.67  1.4196180E-01
   7124.00  1.5603285E-01
   7124.33  1.7318513E-01
   7124.67  1.9192644E-01
   7125.00  2.1034470E-01
   7125.33  2.2702611E-01
   7125.67  2.4241800E-01
   7126.00  2.5730644E-01
   7126.33  2.7328244E-01
   7126.67  2.9152978E-01
   7127.00  3.1185442E-01
   7127.33  3.3242380E-01
   7127.67  3.5162597E-01
   7128.00  3.7007607E-01
   7128.33  3.9056746E-01
   7128.67  4.1498713E-01
   7129.00  4.4371724E-01
   7129.33  4.7664033E-01
   7129.67  5.1255357E-01
   7130.00  5.5098938E-01
   7130.33  5.9168100E-01
   7130.67  6.3360637E-01
   7131.00  6.7578918E-01
   7131.33  7.1652782E-01
   7131.67  7.5400879E-01
   7132.00  7.8641768E-01
   7132.33  8.1133319E-01
   7132.67  8.2918861E-01
   7133.00  8.4067242E-01
   7133.33  8.4681590E-01
   7133.67  8.5015638E-01
   7134.00  8.5198903E-01
   7134.33  8.5239667E-01
   7134.67  8.5049376E-01
   7135.00  8.4509731E-01
   7135.33  8.3451436E-01
   7135.67  8.1868156E-01
   7136.00  7.9756299E-01
   7136.33  7.7118808E-01
   7136.67  7.4134057E-01
   7137.00  7.0933187E-01
   7137.33  6.7669842E-01
   7137.67  6.4499665E-01
   7138.00  6.1530436E-01
   7138.33  5.8896170E-01
   7138.67  5.6624585E-01
   7139.00  5.4747315E-01
   7139.33  5.3326870E-01
   7139.67  5.2301696E-01
   7140.00  5.1648640E-01
   7140.33  5.1371044E-01
   7140.67  5.1381285E-01
   7141.00  5.1637276E-01
   7141.33  5.2114603E-01
   7141.67  5.2742292E-01
   7142.00  5.3484070E-01
   7142.33  5.4312537E-01
   7142.67  5.5187807E-01
   7143.00  5.6090402E-01
   7143.33  5.7008245E-01
   7143.67  5.7935834E-01
   7144.00  5.8876404E-01
   7144.33  5.9838912E-01
   7144.67  6.0822461E-01
   7145.00  6.1818312E-01
   7145.33  6.2799669E-01
   7145.67  6.3729379E-01
   7146.00  6.4568974E-01
   7146.33  6.5259413E-01
   7146.67  6.5785669E-01
   7147.00  6.6133616E-01
   7147.33  6.6279548E-01
   7147.67  6.6257220E-01
   7148.00  6.6083392E-01
   7148.33  6.5766527E-01
   7148.67  6.5348314E-01
   7149.00  6.4849569E-01
   7149.33  6.4283650E-01
   7149.67  6.3674334E-01
   7150.00  6.3032191E-01
   7150.33  6.2364059E-01
   7150.67  6.1680607E-01
   7151.00  6.0986134E-01
   7151.33  6.0281686E-01
   7151.67  5.9568263E-01
   7152.00  5.8844556E-01
   7152.33  5.8106675E-01
   7152.67  5.7353136E-01
   7153.00  5.6581160E-01
   7153.33  5.5787181E-01
   7153.67  5.4976114E-01
   7154.00  5.4152739E-01
   7154.33  5.3324131E-01
   7154.67  5.2499827E-01
   7155.00  5.1687997E-01
   7155.33  5.0900991E-01
   7155.67  5.0145704E-01
   7156.00  4.9430600E-01
   7156.33  4.8771992E-01
   7156.67  4.8173723E-01
   7157.00  4.7644398E-01
   7157.33  4.7203288E-01
   7157.67  4.6848684E-01
   7158.00  4.6585494E-01
   7158.33  4.6428274E-01
   7158.67  4.6365091E-01
   7159.00  4.6393399E-01
   7159.33  4.6518148E-01
   7159.67  4.6719996E-01
   7160.00  4.6989401E-01
   7160.33  4.7320941E-01
   7160.67  4.7695913E-01
   7161.00  4.8104973E-01
   7161.33  4.8541554E-01
   7161.67  4.8994688E-01
   7162.00  4.9458862E-01
   7162.33  4.9929453E-01
   7162.67  5.0401656E-01
   7163.00  5.0872929E-01
   7163.33  5.1340605E-01
   7163.67  5.1802910E-01
   7164.00  5.2257576E-01
   7164.33  5.2699668E-01
   7164.67  5.3125731E-01
   7165.00  5.3530384E-01
   7165.33  5.3902456E-01
   7165.67  5.4237652E-01
   7166.00  5.4529892E-01
   7166.33  5.4766342E-01
   7166.67  5.4946219E-01
   7167.00  5.5063838E-01
   7167.33  5.5105635E-01
   7167.67  5.5076906E-01
   7168.00  5.4976672E-01
   7168.33  5.4796979E-01
   7168.67  5.4549792E-01
   7169.00  5.4239550E-01
   7169.33  5.3866243E-01
   7169.67  5.3445740E-01
   7170.00  5.2986988E-01
   7170.33  5.2498351E-01
   7170.67  5.1996307E-01
   7171.00  5.1493985E-01
   7171.33  5.1013224E-01
   7171.67  5.0579821E-01
   7172.00  5.0226601E-01
