    FDMNES
    energy     <xanes>
   7097.00  5.4011012E-03
   7097.33  5.5377363E-03
   7097.67  5.6809902E-03
   7098.00  5.8313334E-03
   7098.33  5.9903355E-03
   7098.67  6.1577137E-03
   7099.00  6.3341150E-03
   7099.33  6.5216150E-03
   7099.67  6.7199306E-03
   7100.00  6.9299755E-03
   7100.33  7.1545664E-03
   7100.67  7.3934557E-03
   7101.00  7.6479730E-03
   7101.33  7.9220595E-03
   7101.67  8.2155805E-03
   7102.00  8.5305420E-03
   7102.33  8.8726628E-03
   7102.67  9.2420903E-03
   7103.00  9.6419839E-03
   7103.33  1.0081015E-02
   7103.67  1.0559992E-02
   7104.00  1.1084160E-02
   7104.33  1.1667397E-02
   7104.67  1.2312073E-02
   7105.00  1.3027474E-02
   7105.33  1.3837393E-02
   7105.67  1.4748034E-02
   7106.00  1.5777287E-02
   7106.33  1.6969754E-02
   7106.67  1.8341898E-02
   7107.00  1.9932282E-02
   7107.33  2.1835403E-02
   7107.67  2.4099084E-02
   7108.00  2.6820841E-02
   7108.33  3.0240085E-02
   7108.67  3.4523066E-02
   7109.00  3.9985283E-02
   7109.33  4.7434679E-02
   7109.67  5.7671340E-02
   7110.00  7.2230938E-02
   7110.33  9.5401039E-02
   7110.67  1.3200075E-01
   7111.00  1.8701806E-01
   7111.33  2.6567249E-01
   7111.67  3.6520296E-01
   7112.00  4.7363675E-01
   7112.33  5.7580138E-01
   7112.67  6.4356465E-01
   7113.00  6.3936535E-01
   7113.33  5.5417809E-01
   7113.67  4.4979564E-01
   7114.00  3.5937994E-01
   7114.33  2.9560933E-01
   7114.67  2.5248091E-01
   7115.00  2.2555542E-01
   7115.33  2.1252422E-01
   7115.67  2.0832767E-01
   7116.00  2.0812369E-01
   7116.33  2.0477656E-01
   7116.67  1.9618005E-01
   7117.00  1.8401270E-01
   7117.33  1.7116867E-01
   7117.67  1.6008473E-01
   7118.00  1.5149979E-01
   7118.33  1.4533917E-01
   7118.67  1.4062882E-01
   7119.00  1.3693461E-01
   7119.33  1.3401876E-01
   7119.67  1.3145451E-01
   7120.00  1.2909842E-01
   7120.33  1.2733825E-01
   7120.67  1.2653373E-01
   7121.00  1.2665135E-01
   7121.33  1.2756831E-01
   7121.67  1.2921783E-01
   7122.00  1.3169278E-01
   7122.33  1.3514308E-01
   7122.67  1.3946500E-01
   7123.00  1.4467962E-01
   7123.33  1.5097481E-01
   7123.67  1.5835414E-01
   7124.00  1.6698290E-01
   7124.33  1.7735657E-01
   7124.67  1.8973422E-01
   7125.00  2.0460368E-01
   7125.33  2.2288430E-01
   7125.67  2.4444207E-01
   7126.00  2.6905222E-01
   7126.33  2.9617867E-01
   7126.67  3.2461578E-01
   7127.00  3.5400584E-01
   7127.33  3.8408710E-01
   7127.67  4.1373052E-01
   7128.00  4.4243923E-01
   7128.33  4.7187937E-01
   7128.67  5.0505533E-01
   7129.00  5.4404906E-01
   7129.33  5.8980025E-01
   7129.67  6.3911971E-01
   7130.00  6.8893068E-01
   7130.33  7.3641470E-01
   7130.67  7.8147406E-01
   7131.00  8.2508106E-01
   7131.33  8.6853885E-01
   7131.67  9.1223276E-01
   7132.00  9.5505849E-01
   7132.33  9.9322659E-01
   7132.67  1.0224402E+00
   7133.00  1.0386157E+00
   7133.33  1.0368976E+00
   7133.67  1.0193674E+00
   7134.00  9.8818164E-01
   7134.33  9.4590711E-01
   7134.67  8.9774532E-01
   7135.00  8.4658858E-01
   7135.33  7.9489759E-01
   7135.67  7.4446388E-01
   7136.00  6.9634211E-01
   7136.33  6.5187470E-01
   7136.67  6.1142546E-01
   7137.00  5.7558371E-01
   7137.33  5.4560247E-01
   7137.67  5.2127511E-01
   7138.00  5.0276671E-01
   7138.33  4.9059576E-01
   7138.67  4.8339677E-01
   7139.00  4.8026651E-01
   7139.33  4.8032067E-01
   7139.67  4.8206763E-01
   7140.00  4.8480467E-01
   7140.33  4.8816804E-01
   7140.67  4.9197048E-01
   7141.00  4.9623671E-01
   7141.33  5.0108621E-01
   7141.67  5.0646015E-01
   7142.00  5.1229666E-01
   7142.33  5.1848707E-01
   7142.67  5.2478748E-01
   7143.00  5.3100521E-01
   7143.33  5.3689352E-01
   7143.67  5.4231965E-01
   7144.00  5.4718007E-01
   7144.33  5.5132126E-01
   7144.67  5.5478913E-01
   7145.00  5.5757604E-01
   7145.33  5.5960564E-01
   7145.67  5.6098524E-01
   7146.00  5.6174932E-01
   7146.33  5.6189347E-01
   7146.67  5.6158435E-01
   7147.00  5.6093551E-01
   7147.33  5.6008922E-01
   7147.67  5.5925393E-01
   7148.00  5.5859147E-01
   7148.33  5.5831554E-01
   7148.67  5.5851542E-01
   7149.00  5.5925440E-01
   7149.33  5.6060577E-01
   7149.67  5.6243609E-01
   7150.00  5.6464233E-01
   7150.33  5.6710116E-01
   7150.67  5.6962877E-01
   7151.00  5.7210833E-01
   7151.33  5.7441990E-01
   7151.67  5.7652339E-01
   7152.00  5.7839969E-01
   7152.33  5.8002745E-01
   7152.67  5.8146023E-01
   7153.00  5.8272737E-01
   7153.33  5.8384679E-01
   7153.67  5.8486293E-01
   7154.00  5.8579100E-01
   7154.33  5.8662634E-01
   7154.67  5.8737215E-01
   7155.00  5.8801337E-01
   7155.33  5.8850812E-01
   7155.67  5.8884198E-01
   7156.00  5.8898754E-01
   7156.33  5.8888774E-01
   7156.67  5.8854540E-01
   7157.00  5.8794531E-01
   7157.33  5.8704364E-01
   7157.67  5.8587256E-01
   7158.00  5.8443741E-01
   7158.33  5.8271874E-01
   7158.67  5.8076608E-01
   7159.00  5.7859868E-01
   7159.33  5.7621681E-01
   7159.67  5.7366599E-01
   7160.00  5.7096042E-01
   7160.33  5.6809005E-01
   7160.67  5.6506386E-01
   7161.00  5.6185812E-01
   7161.33  5.5841480E-01
   7161.67  5.5472853E-01
   7162.00  5.5077136E-01
   7162.33  5.4647645E-01
   7162.67  5.4186131E-01
   7163.00  5.3691949E-01
   7163.33  5.3161720E-01
   7163.67  5.2601564E-01
   7164.00  5.2014383E-01
   7164.33  5.1401625E-01
   7164.67  5.0771219E-01
   7165.00  5.0127998E-01
   7165.33  4.9476889E-01
   7165.67  4.8824670E-01
   7166.00  4.8176264E-01
   7166.33  4.7537880E-01
   7166.67  4.6912816E-01
   7167.00  4.6304432E-01
   7167.33  4.5718832E-01
   7167.67  4.5156648E-01
   7168.00  4.4620116E-01
   7168.33  4.4114687E-01
   7168.67  4.3638282E-01
   7169.00  4.3191787E-01
   7169.33  4.2779797E-01
   7169.67  4.2399041E-01
   7170.00  4.2049912E-01
   7170.33  4.1736679E-01
   7170.67  4.1455521E-01
   7171.00  4.1206674E-01
   7171.33  4.0994980E-01
   7171.67  4.0818084E-01
   7172.00  4.0678262E-01
