    FDMNES
    energy     <xanes>
   7097.00  4.7203220E-03
   7097.33  4.8284209E-03
   7097.67  4.9412046E-03
   7098.00  5.0589787E-03
   7098.33  5.1828090E-03
   7098.67  5.3124592E-03
   7099.00  5.4483439E-03
   7099.33  5.5918465E-03
   7099.67  5.7427238E-03
   7100.00  5.9015534E-03
   7100.33  6.0701804E-03
   7100.67  6.2483756E-03
   7101.00  6.4369714E-03
   7101.33  6.6385091E-03
   7101.67  6.8528219E-03
   7102.00  7.0811579E-03
   7102.33  7.3271593E-03
   7102.67  7.5908307E-03
   7103.00  7.8741372E-03
   7103.33  8.1825626E-03
   7103.67  8.5165381E-03
   7104.00  8.8793510E-03
   7104.33  9.2797928E-03
   7104.67  9.7193514E-03
   7105.00  1.0203969E-02
   7105.33  1.0748945E-02
   7105.67  1.1358520E-02
   7106.00  1.2044597E-02
   7106.33  1.2836912E-02
   7106.67  1.3747665E-02
   7107.00  1.4804295E-02
   7107.33  1.6074393E-02
   7107.67  1.7597296E-02
   7108.00  1.9450699E-02
   7108.33  2.1828798E-02
   7108.67  2.4891629E-02
   7109.00  2.8941924E-02
   7109.33  3.4792237E-02
   7109.67  4.3417943E-02
   7110.00  5.6756257E-02
   7110.33  8.0487031E-02
   7110.67  1.2055352E-01
   7111.00  1.7420348E-01
   7111.33  1.9609279E-01
   7111.67  1.8367883E-01
   7112.00  1.8185300E-01
   7112.33  2.1692418E-01
   7112.67  2.6880482E-01
   7113.00  2.8066738E-01
   7113.33  2.2730910E-01
   7113.67  1.7099056E-01
   7114.00  1.3323730E-01
   7114.33  1.1470963E-01
   7114.67  1.0738695E-01
   7115.00  1.0810742E-01
   7115.33  1.1748160E-01
   7115.67  1.3745011E-01
   7116.00  1.7175071E-01
   7116.33  2.2561318E-01
   7116.67  2.8646282E-01
   7117.00  3.2391769E-01
   7117.33  3.0677592E-01
   7117.67  2.6560725E-01
   7118.00  2.2736608E-01
   7118.33  2.0455890E-01
   7118.67  1.9388388E-01
   7119.00  1.9000923E-01
   7119.33  1.8718090E-01
   7119.67  1.8620291E-01
   7120.00  1.9078692E-01
   7120.33  2.0356057E-01
   7120.67  2.2176911E-01
   7121.00  2.4280538E-01
   7121.33  2.6526699E-01
   7121.67  2.8855233E-01
   7122.00  3.1234072E-01
   7122.33  3.3656735E-01
   7122.67  3.6090362E-01
   7123.00  3.8405815E-01
   7123.33  4.0245651E-01
   7123.67  4.1473730E-01
   7124.00  4.2265158E-01
   7124.33  4.2996216E-01
   7124.67  4.3906051E-01
   7125.00  4.5022957E-01
   7125.33  4.6241205E-01
   7125.67  4.7413323E-01
   7126.00  4.8538752E-01
   7126.33  4.9753519E-01
   7126.67  5.1176479E-01
   7127.00  5.2839329E-01
   7127.33  5.4696902E-01
   7127.67  5.6605359E-01
   7128.00  5.8438140E-01
   7128.33  5.9983615E-01
   7128.67  6.1089158E-01
   7129.00  6.1651871E-01
   7129.33  6.1597384E-01
   7129.67  6.1082014E-01
   7130.00  6.0203499E-01
   7130.33  5.9034521E-01
   7130.67  5.7730074E-01
   7131.00  5.6439820E-01
   7131.33  5.5373343E-01
   7131.67  5.4626099E-01
   7132.00  5.4223204E-01
   7132.33  5.4141266E-01
   7132.67  5.4212548E-01
   7133.00  5.4300078E-01
   7133.33  5.4268446E-01
   7133.67  5.4102979E-01
   7134.00  5.3850196E-01
   7134.33  5.3591030E-01
   7134.67  5.3394869E-01
   7135.00  5.3303113E-01
   7135.33  5.3367062E-01
   7135.67  5.3591899E-01
   7136.00  5.3987867E-01
   7136.33  5.4578164E-01
   7136.67  5.5333927E-01
   7137.00  5.6244629E-01
   7137.33  5.7313440E-01
   7137.67  5.8506551E-01
   7138.00  5.9806684E-01
   7138.33  6.1194793E-01
   7138.67  6.2617221E-01
   7139.00  6.4021975E-01
   7139.33  6.5322693E-01
   7139.67  6.6449703E-01
   7140.00  6.7338867E-01
   7140.33  6.7899561E-01
   7140.67  6.8146771E-01
   7141.00  6.8090115E-01
   7141.33  6.7734814E-01
   7141.67  6.7171596E-01
   7142.00  6.6453358E-01
   7142.33  6.5622602E-01
   7142.67  6.4736114E-01
   7143.00  6.3823563E-01
   7143.33  6.2911036E-01
   7143.67  6.2013554E-01
   7144.00  6.1135380E-01
   7144.33  6.0276504E-01
   7144.67  5.9428935E-01
   7145.00  5.8588807E-01
   7145.33  5.7757458E-01
   7145.67  5.6940226E-01
   7146.00  5.6146707E-01
   7146.33  5.5396293E-01
   7146.67  5.4700772E-01
   7147.00  5.4074552E-01
   7147.33  5.3543571E-01
   7147.67  5.3109533E-01
   7148.00  5.2779314E-01
   7148.33  5.2568596E-01
   7148.67  5.2459439E-01
   7149.00  5.2441803E-01
   7149.33  5.2506586E-01
   7149.67  5.2621368E-01
   7150.00  5.2763959E-01
   7150.33  5.2908634E-01
   7150.67  5.3031735E-01
   7151.00  5.3116191E-01
   7151.33  5.3139522E-01
   7151.67  5.3097815E-01
   7152.00  5.2985869E-01
   7152.33  5.2793489E-01
   7152.67  5.2533251E-01
   7153.00  5.2211516E-01
   7153.33  5.1832066E-01
   7153.67  5.1413364E-01
   7154.00  5.0966237E-01
   7154.33  5.0500612E-01
   7154.67  5.0028791E-01
   7155.00  4.9557479E-01
   7155.33  4.9092147E-01
   7155.67  4.8633657E-01
   7156.00  4.8180917E-01
   7156.33  4.7730618E-01
   7156.67  4.7277208E-01
   7157.00  4.6815460E-01
   7157.33  4.6337351E-01
   7157.67  4.5839095E-01
   7158.00  4.5316871E-01
   7158.33  4.4764448E-01
   7158.67  4.4184524E-01
   7159.00  4.3578517E-01
   7159.33  4.2947494E-01
   7159.67  4.2300236E-01
   7160.00  4.1643208E-01
   7160.33  4.0984861E-01
   7160.67  4.0334456E-01
   7161.00  3.9698706E-01
   7161.33  3.9085712E-01
   7161.67  3.8496329E-01
   7162.00  3.7932013E-01
   7162.33  3.7396510E-01
   7162.67  3.6886688E-01
   7163.00  3.6402809E-01
   7163.33  3.5949264E-01
   7163.67  3.5524718E-01
   7164.00  3.5131623E-01
   7164.33  3.4777626E-01
   7164.67  3.4461728E-01
   7165.00  3.4186558E-01
   7165.33  3.3960119E-01
   7165.67  3.3779001E-01
   7166.00  3.3644447E-01
   7166.33  3.3563292E-01
   7166.67  3.3530011E-01
   7167.00  3.3544682E-01
   7167.33  3.3613078E-01
   7167.67  3.3728618E-01
   7168.00  3.3890252E-01
   7168.33  3.4101290E-01
   7168.67  3.4352699E-01
   7169.00  3.4640255E-01
   7169.33  3.4961499E-01
   7169.67  3.5305391E-01
   7170.00  3.5665151E-01
   7170.33  3.6033722E-01
   7170.67  3.6402098E-01
   7171.00  3.6762989E-01
   7171.33  3.7103375E-01
   7171.67  3.7408489E-01
   7172.00  3.7656705E-01
