    FDMNES
    energy     <xanes>
   7097.00  4.7608050E-03
   7097.33  4.8702468E-03
   7097.67  4.9844320E-03
   7098.00  5.1036689E-03
   7098.33  5.2290344E-03
   7098.67  5.3602875E-03
   7099.00  5.4978452E-03
   7099.33  5.6431034E-03
   7099.67  5.7958125E-03
   7100.00  5.9565523E-03
   7100.33  6.1271800E-03
   7100.67  6.3074574E-03
   7101.00  6.4982172E-03
   7101.33  6.7020093E-03
   7101.67  6.9186529E-03
   7102.00  7.1493906E-03
   7102.33  7.3978610E-03
   7102.67  7.6640442E-03
   7103.00  7.9498837E-03
   7103.33  8.2608252E-03
   7103.67  8.5972490E-03
   7104.00  8.9623785E-03
   7104.33  9.3648707E-03
   7104.67  9.8060907E-03
   7105.00  1.0291797E-02
   7105.33  1.0836873E-02
   7105.67  1.1445219E-02
   7106.00  1.2128177E-02
   7106.33  1.2914167E-02
   7106.67  1.3814266E-02
   7107.00  1.4853997E-02
   7107.33  1.6096243E-02
   7107.67  1.7575801E-02
   7108.00  1.9362317E-02
   7108.33  2.1628966E-02
   7108.67  2.4511020E-02
   7109.00  2.8264434E-02
   7109.33  3.3565689E-02
   7109.67  4.1181952E-02
   7110.00  5.2622451E-02
   7110.33  7.2323238E-02
   7110.67  1.0586523E-01
   7111.00  1.5724972E-01
   7111.33  2.0153267E-01
   7111.67  2.0239628E-01
   7112.00  1.9252998E-01
   7112.33  2.1822499E-01
   7112.67  2.7778162E-01
   7113.00  3.2363719E-01
   7113.33  2.7588221E-01
   7113.67  2.0273270E-01
   7114.00  1.4974942E-01
   7114.33  1.2168460E-01
   7114.67  1.0774496E-01
   7115.00  1.0320336E-01
   7115.33  1.0695046E-01
   7115.67  1.1981521E-01
   7116.00  1.4522033E-01
   7116.33  1.9110049E-01
   7116.67  2.5699127E-01
   7117.00  3.2503901E-01
   7117.33  3.4173544E-01
   7117.67  3.0669599E-01
   7118.00  2.5758456E-01
   7118.33  2.2294051E-01
   7118.67  2.0412755E-01
   7119.00  1.9637530E-01
   7119.33  1.9197605E-01
   7119.67  1.8843688E-01
   7120.00  1.8980979E-01
   7120.33  2.0020137E-01
   7120.67  2.1738272E-01
   7121.00  2.3833573E-01
   7121.33  2.6158389E-01
   7121.67  2.8685745E-01
   7122.00  3.1330628E-01
   7122.33  3.3993139E-01
   7122.67  3.6626013E-01
   7123.00  3.9146139E-01
   7123.33  4.1250141E-01
   7123.67  4.2687121E-01
   7124.00  4.3482862E-01
   7124.33  4.3998935E-01
   7124.67  4.4625409E-01
   7125.00  4.5501472E-01
   7125.33  4.6645465E-01
   7125.67  4.7865869E-01
   7126.00  4.9078773E-01
   7126.33  5.0372189E-01
   7126.67  5.1875744E-01
   7127.00  5.3642952E-01
   7127.33  5.5651177E-01
   7127.67  5.7710835E-01
   7128.00  5.9633466E-01
   7128.33  6.1159796E-01
   7128.67  6.2164460E-01
   7129.00  6.2572256E-01
   7129.33  6.2327422E-01
   7129.67  6.1619457E-01
   7130.00  6.0585581E-01
   7130.33  5.9336540E-01
   7130.67  5.8005687E-01
   7131.00  5.6710877E-01
   7131.33  5.5638419E-01
   7131.67  5.4881020E-01
   7132.00  5.4463433E-01
   7132.33  5.4367846E-01
   7132.67  5.4442490E-01
   7133.00  5.4557936E-01
   7133.33  5.4565501E-01
   7133.67  5.4422625E-01
   7134.00  5.4162397E-01
   7134.33  5.3864228E-01
   7134.67  5.3613161E-01
   7135.00  5.3461389E-01
   7135.33  5.3469800E-01
   7135.67  5.3648676E-01
   7136.00  5.4010880E-01
   7136.33  5.4581405E-01
   7136.67  5.5326878E-01
   7137.00  5.6232647E-01
   7137.33  5.7297891E-01
   7137.67  5.8487327E-01
   7138.00  5.9785216E-01
   7138.33  6.1177279E-01
   7138.67  6.2613918E-01
   7139.00  6.4045721E-01
   7139.33  6.5386951E-01
   7139.67  6.6560674E-01
   7140.00  6.7494767E-01
   7140.33  6.8086946E-01
   7140.67  6.8346070E-01
   7141.00  6.8279357E-01
   7141.33  6.7892271E-01
   7141.67  6.7285117E-01
   7142.00  6.6518139E-01
   7142.33  6.5642418E-01
   7142.67  6.4722749E-01
   7143.00  6.3793934E-01
   7143.33  6.2883387E-01
   7143.67  6.2000217E-01
   7144.00  6.1145862E-01
   7144.33  6.0317979E-01
   7144.67  5.9504283E-01
   7145.00  5.8696898E-01
   7145.33  5.7890326E-01
   7145.67  5.7084938E-01
   7146.00  5.6286480E-01
   7146.33  5.5509323E-01
   7146.67  5.4766957E-01
   7147.00  5.4074246E-01
   7147.33  5.3456134E-01
   7147.67  5.2918530E-01
   7148.00  5.2470594E-01
   7148.33  5.2130506E-01
   7148.67  5.1886860E-01
   7149.00  5.1735177E-01
   7149.33  5.1674232E-01
   7149.67  5.1676863E-01
   7150.00  5.1725141E-01
   7150.33  5.1798710E-01
   7150.67  5.1871781E-01
   7151.00  5.1926925E-01
   7151.33  5.1943755E-01
   7151.67  5.1915652E-01
   7152.00  5.1836878E-01
   7152.33  5.1697177E-01
   7152.67  5.1503009E-01
   7153.00  5.1256363E-01
   7153.33  5.0955895E-01
   7153.67  5.0614367E-01
   7154.00  5.0238881E-01
   7154.33  4.9835343E-01
   7154.67  4.9415732E-01
   7155.00  4.8986706E-01
   7155.33  4.8553727E-01
   7155.67  4.8120747E-01
   7156.00  4.7688726E-01
   7156.33  4.7256527E-01
   7156.67  4.6821146E-01
   7157.00  4.6378994E-01
   7157.33  4.5923873E-01
   7157.67  4.5452475E-01
   7158.00  4.4961100E-01
   7158.33  4.4443471E-01
   7158.67  4.3900856E-01
   7159.00  4.3333489E-01
   7159.33  4.2740862E-01
   7159.67  4.2130307E-01
   7160.00  4.1507190E-01
   7160.33  4.0878092E-01
   7160.67  4.0251601E-01
   7161.00  3.9634801E-01
   7161.33  3.9036613E-01
   7161.67  3.8459199E-01
   7162.00  3.7904732E-01
   7162.33  3.7377747E-01
   7162.67  3.6876189E-01
   7163.00  3.6401131E-01
   7163.33  3.5958223E-01
   7163.67  3.5547082E-01
   7164.00  3.5171123E-01
   7164.33  3.4839459E-01
   7164.67  3.4550950E-01
   7165.00  3.4308121E-01
   7165.33  3.4118707E-01
   7165.67  3.3977234E-01
   7166.00  3.3883050E-01
   7166.33  3.3839967E-01
   7166.67  3.3839661E-01
   7167.00  3.3879617E-01
   7167.33  3.3961612E-01
   7167.67  3.4078335E-01
   7168.00  3.4227793E-01
   7168.33  3.4411738E-01
   7168.67  3.4624340E-01
   7169.00  3.4863762E-01
   7169.33  3.5130554E-01
   7169.67  3.5418605E-01
   7170.00  3.5724693E-01
   7170.33  3.6045983E-01
   7170.67  3.6375135E-01
   7171.00  3.6705804E-01
   7171.33  3.7025891E-01
   7171.67  3.7318037E-01
   7172.00  3.7558437E-01
