    FDMNES
    energy     <xanes>
   7097.00  4.8564865E-03
   7097.33  4.9700281E-03
   7097.67  5.0887891E-03
   7098.00  5.2131347E-03
   7098.33  5.3442940E-03
   7098.67  5.4820378E-03
   7099.00  5.6268700E-03
   7099.33  5.7804160E-03
   7099.67  5.9424500E-03
   7100.00  6.1136879E-03
   7100.33  6.2963408E-03
   7100.67  6.4902185E-03
   7101.00  6.6963723E-03
   7101.33  6.9179138E-03
   7101.67  7.1547588E-03
   7102.00  7.4085141E-03
   7102.33  7.6837396E-03
   7102.67  7.9806143E-03
   7103.00  8.3017145E-03
   7103.33  8.6540631E-03
   7103.67  9.0384628E-03
   7104.00  9.4592972E-03
   7104.33  9.9280727E-03
   7104.67  1.0447098E-02
   7105.00  1.1024412E-02
   7105.33  1.1680423E-02
   7105.67  1.2421303E-02
   7106.00  1.3263300E-02
   7106.33  1.4246652E-02
   7106.67  1.5388507E-02
   7107.00  1.6726417E-02
   7107.33  1.8352323E-02
   7107.67  2.0320122E-02
   7108.00  2.2735199E-02
   7108.33  2.5859570E-02
   7108.67  2.9906306E-02
   7109.00  3.5276356E-02
   7109.33  4.3037290E-02
   7109.67  5.4440949E-02
   7110.00  7.1952886E-02
   7110.33  1.0266373E-01
   7110.67  1.5337219E-01
   7111.00  2.2139737E-01
   7111.33  2.7533149E-01
   7111.67  3.0479300E-01
   7112.00  3.2054820E-01
   7112.33  3.2896795E-01
   7112.67  3.3793237E-01
   7113.00  3.4390272E-01
   7113.33  3.3147237E-01
   7113.67  3.0040928E-01
   7114.00  2.5807694E-01
   7114.33  2.1530330E-01
   7114.67  1.7835641E-01
   7115.00  1.4863481E-01
   7115.33  1.2636243E-01
   7115.67  1.0936949E-01
   7116.00  9.6739053E-02
   7116.33  8.8193260E-02
   7116.67  8.2639023E-02
   7117.00  7.9546485E-02
   7117.33  7.8696422E-02
   7117.67  7.9535965E-02
   7118.00  8.1837833E-02
   7118.33  8.5474854E-02
   7118.67  9.0038900E-02
   7119.00  9.5134547E-02
   7119.33  9.9978064E-02
   7119.67  1.0422071E-01
   7120.00  1.0792709E-01
   7120.33  1.1112142E-01
   7120.67  1.1435899E-01
   7121.00  1.1860612E-01
   7121.33  1.2503510E-01
   7121.67  1.3357669E-01
   7122.00  1.4403045E-01
   7122.33  1.5657772E-01
   7122.67  1.7148546E-01
   7123.00  1.8932581E-01
   7123.33  2.1066561E-01
   7123.67  2.3462822E-01
   7124.00  2.6052439E-01
   7124.33  2.8755159E-01
   7124.67  3.1425538E-01
   7125.00  3.3906778E-01
   7125.33  3.6017197E-01
   7125.67  3.7838389E-01
   7126.00  3.9521775E-01
   7126.33  4.1211368E-01
   7126.67  4.2944442E-01
   7127.00  4.4695134E-01
   7127.33  4.6417938E-01
   7127.67  4.8129726E-01
   7128.00  4.9929389E-01
   7128.33  5.2046679E-01
   7128.67  5.4612672E-01
   7129.00  5.7650361E-01
   7129.33  6.1044012E-01
   7129.67  6.4459777E-01
   7130.00  6.7634688E-01
   7130.33  7.0296412E-01
   7130.67  7.2391161E-01
   7131.00  7.3889052E-01
   7131.33  7.4791406E-01
   7131.67  7.5339466E-01
   7132.00  7.5707226E-01
   7132.33  7.6067719E-01
   7132.67  7.6561309E-01
   7133.00  7.7262895E-01
   7133.33  7.8166505E-01
   7133.67  7.9060636E-01
   7134.00  7.9715606E-01
   7134.33  7.9918988E-01
   7134.67  7.9784288E-01
   7135.00  7.9474977E-01
   7135.33  7.9145856E-01
   7135.67  7.8851944E-01
   7136.00  7.8570504E-01
   7136.33  7.8239269E-01
   7136.67  7.7821923E-01
   7137.00  7.7317739E-01
   7137.33  7.6760773E-01
   7137.67  7.6216681E-01
   7138.00  7.5728840E-01
   7138.33  7.5326937E-01
   7138.67  7.4978614E-01
   7139.00  7.4628948E-01
   7139.33  7.4166767E-01
   7139.67  7.3484334E-01
   7140.00  7.2481535E-01
   7140.33  7.1028812E-01
   7140.67  6.9174266E-01
   7141.00  6.7000477E-01
   7141.33  6.4674418E-01
   7141.67  6.2433307E-01
   7142.00  6.0437597E-01
   7142.33  5.8838578E-01
   7142.67  5.7607211E-01
   7143.00  5.6702059E-01
   7143.33  5.6078929E-01
   7143.67  5.5633895E-01
   7144.00  5.5321037E-01
   7144.33  5.5118986E-01
   7144.67  5.4994726E-01
   7145.00  5.4933355E-01
   7145.33  5.4920453E-01
   7145.67  5.4926641E-01
   7146.00  5.4929193E-01
   7146.33  5.4898648E-01
   7146.67  5.4817418E-01
   7147.00  5.4673351E-01
   7147.33  5.4452478E-01
   7147.67  5.4167174E-01
   7148.00  5.3826622E-01
   7148.33  5.3440362E-01
   7148.67  5.3028329E-01
   7149.00  5.2601416E-01
   7149.33  5.2168445E-01
   7149.67  5.1735659E-01
   7150.00  5.1304965E-01
   7150.33  5.0876584E-01
   7150.67  5.0449480E-01
   7151.00  5.0023876E-01
   7151.33  4.9603109E-01
   7151.67  4.9193022E-01
   7152.00  4.8801886E-01
   7152.33  4.8445245E-01
   7152.67  4.8131307E-01
   7153.00  4.7869094E-01
   7153.33  4.7673451E-01
   7153.67  4.7540259E-01
   7154.00  4.7468892E-01
   7154.33  4.7462155E-01
   7154.67  4.7505073E-01
   7155.00  4.7588640E-01
   7155.33  4.7703711E-01
   7155.67  4.7832440E-01
   7156.00  4.7961636E-01
   7156.33  4.8073804E-01
   7156.67  4.8156354E-01
   7157.00  4.8198749E-01
   7157.33  4.8185554E-01
   7157.67  4.8117427E-01
   7158.00  4.7992693E-01
   7158.33  4.7805851E-01
   7158.67  4.7568355E-01
   7159.00  4.7286149E-01
   7159.33  4.6963329E-01
   7159.67  4.6614168E-01
   7160.00  4.6247427E-01
   7160.33  4.5872251E-01
   7160.67  4.5499070E-01
   7161.00  4.5135264E-01
   7161.33  4.4790367E-01
   7161.67  4.4468236E-01
   7162.00  4.4172337E-01
   7162.33  4.3907774E-01
   7162.67  4.3671669E-01
   7163.00  4.3464119E-01
   7163.33  4.3287398E-01
   7163.67  4.3135538E-01
   7164.00  4.3005525E-01
   7164.33  4.2895432E-01
   7164.67  4.2798663E-01
   7165.00  4.2711623E-01
   7165.33  4.2631425E-01
   7165.67  4.2554623E-01
   7166.00  4.2479889E-01
   7166.33  4.2407055E-01
   7166.67  4.2336580E-01
   7167.00  4.2269604E-01
   7167.33  4.2208111E-01
   7167.67  4.2152738E-01
   7168.00  4.2104390E-01
   7168.33  4.2064764E-01
   7168.67  4.2033288E-01
   7169.00  4.2010049E-01
   7169.33  4.1995853E-01
   7169.67  4.1989172E-01
   7170.00  4.1989343E-01
   7170.33  4.1996203E-01
   7170.67  4.2008039E-01
   7171.00  4.2023938E-01
   7171.33  4.2042821E-01
   7171.67  4.2061989E-01
   7172.00  4.2078281E-01
