    FDMNES
    energy     <xanes>
   7097.00  5.7088756E-03
   7097.33  5.8649282E-03
   7097.67  6.0290803E-03
   7098.00  6.2019384E-03
   7098.33  6.3854757E-03
   7098.67  6.5793883E-03
   7099.00  6.7845209E-03
   7099.33  7.0035181E-03
   7099.67  7.2360904E-03
   7100.00  7.4834462E-03
   7100.33  7.7492276E-03
   7100.67  8.0332147E-03
   7101.00  8.3371915E-03
   7101.33  8.6663365E-03
   7101.67  9.0206185E-03
   7102.00  9.4027713E-03
   7102.33  9.8204431E-03
   7102.67  1.0274051E-02
   7103.00  1.0767977E-02
   7103.33  1.1314046E-02
   7103.67  1.1913711E-02
   7104.00  1.2574389E-02
   7104.33  1.3315428E-02
   7104.67  1.4140722E-02
   7105.00  1.5063703E-02
   7105.33  1.6118386E-02
   7105.67  1.7314724E-02
   7106.00  1.8679281E-02
   7106.33  2.0277726E-02
   7106.67  2.2136521E-02
   7107.00  2.4314751E-02
   7107.33  2.6956568E-02
   7107.67  3.0140232E-02
   7108.00  3.4021059E-02
   7108.33  3.8980693E-02
   7108.67  4.5300203E-02
   7109.00  5.3507455E-02
   7109.33  6.4965150E-02
   7109.67  8.1091606E-02
   7110.00  1.0461528E-01
   7110.33  1.4320261E-01
   7110.67  2.0524644E-01
   7111.00  2.9751510E-01
   7111.33  4.2581949E-01
   7111.67  5.9716059E-01
   7112.00  7.8493567E-01
   7112.33  8.6373509E-01
   7112.67  8.1453224E-01
   7113.00  6.9845200E-01
   7113.33  5.5470697E-01
   7113.67  4.2295115E-01
   7114.00  3.2144548E-01
   7114.33  2.5387756E-01
   7114.67  2.0808172E-01
   7115.00  1.7751339E-01
   7115.33  1.5814079E-01
   7115.67  1.4568995E-01
   7116.00  1.3881652E-01
   7116.33  1.3725158E-01
   7116.67  1.3948684E-01
   7117.00  1.4404343E-01
   7117.33  1.4831044E-01
   7117.67  1.5004705E-01
   7118.00  1.4920346E-01
   7118.33  1.4707137E-01
   7118.67  1.4444692E-01
   7119.00  1.4138088E-01
   7119.33  1.3763516E-01
   7119.67  1.3348158E-01
   7120.00  1.2996248E-01
   7120.33  1.2928873E-01
   7120.67  1.3251077E-01
   7121.00  1.3955373E-01
   7121.33  1.4965467E-01
   7121.67  1.6132216E-01
   7122.00  1.7404118E-01
   7122.33  1.8735983E-01
   7122.67  2.0119951E-01
   7123.00  2.1633544E-01
   7123.33  2.3421780E-01
   7123.67  2.5532738E-01
   7124.00  2.7934003E-01
   7124.33  3.0407924E-01
   7124.67  3.2679057E-01
   7125.00  3.4668944E-01
   7125.33  3.6386888E-01
   7125.67  3.7847622E-01
   7126.00  3.8928226E-01
   7126.33  3.9391258E-01
   7126.67  3.9287651E-01
   7127.00  3.8776515E-01
   7127.33  3.8135337E-01
   7127.67  3.7656586E-01
   7128.00  3.7522041E-01
   7128.33  3.7924288E-01
   7128.67  3.8854216E-01
   7129.00  4.0311875E-01
   7129.33  4.2337573E-01
   7129.67  4.4828861E-01
   7130.00  4.7737366E-01
   7130.33  5.1015179E-01
   7130.67  5.4479822E-01
   7131.00  5.7988579E-01
   7131.33  6.1376616E-01
   7131.67  6.4501960E-01
   7132.00  6.7219136E-01
   7132.33  6.9339718E-01
   7132.67  7.0871527E-01
   7133.00  7.1757457E-01
   7133.33  7.1841106E-01
   7133.67  7.1259615E-01
   7134.00  7.0174355E-01
   7134.33  6.8767185E-01
   7134.67  6.7212992E-01
   7135.00  6.5552024E-01
   7135.33  6.3757034E-01
   7135.67  6.1809282E-01
   7136.00  5.9694246E-01
   7136.33  5.7423492E-01
   7136.67  5.5104143E-01
   7137.00  5.2849318E-01
   7137.33  5.0819283E-01
   7137.67  4.9090223E-01
   7138.00  4.7707816E-01
   7138.33  4.6726808E-01
   7138.67  4.6082550E-01
   7139.00  4.5747189E-01
   7139.33  4.5722224E-01
   7139.67  4.5945297E-01
   7140.00  4.6395089E-01
   7140.33  4.7068391E-01
   7140.67  4.7903759E-01
   7141.00  4.8860146E-01
   7141.33  4.9888241E-01
   7141.67  5.0922094E-01
   7142.00  5.1921834E-01
   7142.33  5.2855127E-01
   7142.67  5.3730118E-01
   7143.00  5.4564286E-01
   7143.33  5.5388111E-01
   7143.67  5.6237920E-01
   7144.00  5.7141811E-01
   7144.33  5.8137054E-01
   7144.67  5.9232789E-01
   7145.00  6.0438529E-01
   7145.33  6.1770810E-01
   7145.67  6.3208519E-01
   7146.00  6.4738217E-01
   7146.33  6.6345592E-01
   7146.67  6.7993486E-01
   7147.00  6.9655642E-01
   7147.33  7.1302939E-01
   7147.67  7.2915286E-01
   7148.00  7.4476952E-01
   7148.33  7.5963736E-01
   7148.67  7.7369023E-01
   7149.00  7.8679693E-01
   7149.33  7.9865693E-01
   7149.67  8.0921373E-01
   7150.00  8.1826729E-01
   7150.33  8.2533914E-01
   7150.67  8.3038758E-01
   7151.00  8.3321538E-01
   7151.33  8.3337364E-01
   7151.67  8.3112825E-01
   7152.00  8.2656260E-01
   7152.33  8.1962271E-01
   7152.67  8.1086474E-01
   7153.00  8.0056944E-01
   7153.33  7.8890858E-01
   7153.67  7.7632866E-01
   7154.00  7.6304977E-01
   7154.33  7.4922428E-01
   7154.67  7.3508187E-01
   7155.00  7.2073784E-01
   7155.33  7.0629027E-01
   7155.67  6.9184439E-01
   7156.00  6.7746882E-01
   7156.33  6.6324640E-01
   7156.67  6.4921439E-01
   7157.00  6.3541203E-01
   7157.33  6.2191001E-01
   7157.67  6.0870647E-01
   7158.00  5.9582570E-01
   7158.33  5.8333579E-01
   7158.67  5.7121482E-01
   7159.00  5.5947992E-01
   7159.33  5.4820071E-01
   7159.67  5.3734605E-01
   7160.00  5.2693392E-01
   7160.33  5.1704319E-01
   7160.67  5.0763579E-01
   7161.00  4.9872675E-01
   7161.33  4.9039337E-01
   7161.67  4.8257906E-01
   7162.00  4.7528365E-01
   7162.33  4.6856135E-01
   7162.67  4.6232691E-01
   7163.00  4.5655359E-01
   7163.33  4.5125701E-01
   7163.67  4.4634616E-01
   7164.00  4.4179299E-01
   7164.33  4.3761634E-01
   7164.67  4.3376359E-01
   7165.00  4.3023455E-01
   7165.33  4.2707859E-01
   7165.67  4.2426656E-01
   7166.00  4.2180739E-01
   7166.33  4.1974854E-01
   7166.67  4.1803304E-01
   7167.00  4.1662481E-01
   7167.33  4.1547998E-01
   7167.67  4.1448120E-01
   7168.00  4.1353803E-01
   7168.33  4.1251443E-01
   7168.67  4.1127697E-01
   7169.00  4.0970180E-01
   7169.33  4.0759872E-01
   7169.67  4.0492568E-01
   7170.00  4.0163472E-01
   7170.33  3.9765299E-01
   7170.67  3.9313834E-01
   7171.00  3.8823131E-01
   7171.33  3.8318098E-01
   7171.67  3.7841690E-01
   7172.00  3.7441535E-01
