    FDMNES
    energy     <xanes>
   7097.00  4.6623909E-03
   7097.33  4.7634869E-03
   7097.67  4.8687268E-03
   7098.00  4.9783690E-03
   7098.33  5.0933363E-03
   7098.67  5.2134043E-03
   7099.00  5.3389207E-03
   7099.33  5.4710721E-03
   7099.67  5.6096247E-03
   7100.00  5.7550597E-03
   7100.33  5.9089448E-03
   7100.67  6.0710537E-03
   7101.00  6.2420756E-03
   7101.33  6.4241505E-03
   7101.67  6.6170991E-03
   7102.00  6.8219500E-03
   7102.33  7.0417463E-03
   7102.67  7.2764454E-03
   7103.00  7.5276627E-03
   7103.33  7.7999526E-03
   7103.67  8.0936218E-03
   7104.00  8.4113728E-03
   7104.33  8.7604836E-03
   7104.67  9.1421393E-03
   7105.00  9.5612419E-03
   7105.33  1.0030462E-02
   7105.67  1.0553302E-02
   7106.00  1.1139647E-02
   7106.33  1.1814246E-02
   7106.67  1.2587360E-02
   7107.00  1.3482013E-02
   7107.33  1.4554955E-02
   7107.67  1.5839679E-02
   7108.00  1.7402071E-02
   7108.33  1.9406868E-02
   7108.67  2.1990992E-02
   7109.00  2.5412633E-02
   7109.33  3.0363623E-02
   7109.67  3.7672471E-02
   7110.00  4.8978630E-02
   7110.33  6.9087785E-02
   7110.67  1.0330114E-01
   7111.00  1.5185141E-01
   7111.33  1.8596390E-01
   7111.67  1.8334082E-01
   7112.00  1.6392670E-01
   7112.33  1.5215842E-01
   7112.67  1.4722359E-01
   7113.00  1.4577247E-01
   7113.33  1.4437462E-01
   7113.67  1.3595459E-01
   7114.00  1.1750930E-01
   7114.33  9.7268442E-02
   7114.67  8.2892731E-02
   7115.00  7.4832855E-02
   7115.33  7.2191659E-02
   7115.67  7.3247284E-02
   7116.00  7.7637692E-02
   7116.33  8.5932864E-02
   7116.67  9.8299148E-02
   7117.00  1.1563800E-01
   7117.33  1.4052436E-01
   7117.67  1.7367219E-01
   7118.00  2.1428310E-01
   7118.33  2.5633417E-01
   7118.67  2.8961825E-01
   7119.00  3.1048865E-01
   7119.33  3.2279803E-01
   7119.67  3.3297946E-01
   7120.00  3.4264069E-01
   7120.33  3.5188488E-01
   7120.67  3.6062571E-01
   7121.00  3.6874851E-01
   7121.33  3.7616072E-01
   7121.67  3.8322285E-01
   7122.00  3.9040462E-01
   7122.33  3.9842565E-01
   7122.67  4.0762789E-01
   7123.00  4.1815018E-01
   7123.33  4.3019135E-01
   7123.67  4.4359778E-01
   7124.00  4.5839563E-01
   7124.33  4.7486543E-01
   7124.67  4.9300041E-01
   7125.00  5.1282049E-01
   7125.33  5.3415652E-01
   7125.67  5.5610553E-01
   7126.00  5.7766564E-01
   7126.33  5.9726878E-01
   7126.67  6.1435759E-01
   7127.00  6.2896745E-01
   7127.33  6.4108144E-01
   7127.67  6.5092093E-01
   7128.00  6.5812991E-01
   7128.33  6.6156005E-01
   7128.67  6.6074594E-01
   7129.00  6.5504713E-01
   7129.33  6.4360571E-01
   7129.67  6.2805065E-01
   7130.00  6.1035266E-01
   7130.33  5.9327322E-01
   7130.67  5.7872464E-01
   7131.00  5.6748114E-01
   7131.33  5.5997615E-01
   7131.67  5.5526894E-01
   7132.00  5.5280821E-01
   7132.33  5.5236727E-01
   7132.67  5.5351783E-01
   7133.00  5.5611106E-01
   7133.33  5.5987630E-01
   7133.67  5.6391897E-01
   7134.00  5.6742258E-01
   7134.33  5.6954426E-01
   7134.67  5.7029319E-01
   7135.00  5.6984847E-01
   7135.33  5.6841068E-01
   7135.67  5.6639701E-01
   7136.00  5.6405081E-01
   7136.33  5.6164074E-01
   7136.67  5.5945507E-01
   7137.00  5.5773319E-01
   7137.33  5.5679864E-01
   7137.67  5.5668743E-01
   7138.00  5.5738420E-01
   7138.33  5.5880577E-01
   7138.67  5.6058184E-01
   7139.00  5.6242355E-01
   7139.33  5.6400380E-01
   7139.67  5.6515054E-01
   7140.00  5.6576645E-01
   7140.33  5.6570528E-01
   7140.67  5.6497791E-01
   7141.00  5.6352504E-01
   7141.33  5.6118942E-01
   7141.67  5.5804839E-01
   7142.00  5.5413315E-01
   7142.33  5.4945693E-01
   7142.67  5.4425032E-01
   7143.00  5.3865127E-01
   7143.33  5.3276955E-01
   7143.67  5.2673053E-01
   7144.00  5.2056953E-01
   7144.33  5.1426957E-01
   7144.67  5.0782508E-01
   7145.00  5.0122653E-01
   7145.33  4.9447719E-01
   7145.67  4.8765583E-01
   7146.00  4.8084630E-01
   7146.33  4.7418391E-01
   7146.67  4.6777096E-01
   7147.00  4.6169238E-01
   7147.33  4.5608278E-01
   7147.67  4.5096688E-01
   7148.00  4.4639903E-01
   7148.33  4.4248901E-01
   7148.67  4.3918033E-01
   7149.00  4.3647850E-01
   7149.33  4.3444461E-01
   7149.67  4.3296522E-01
   7150.00  4.3199346E-01
   7150.33  4.3152098E-01
   7150.67  4.3142288E-01
   7151.00  4.3163852E-01
   7151.33  4.3212970E-01
   7151.67  4.3280150E-01
   7152.00  4.3360401E-01
   7152.33  4.3449712E-01
   7152.67  4.3542869E-01
   7153.00  4.3636441E-01
   7153.33  4.3726163E-01
   7153.67  4.3810481E-01
   7154.00  4.3888972E-01
   7154.33  4.3961269E-01
   7154.67  4.4029044E-01
   7155.00  4.4093605E-01
   7155.33  4.4157151E-01
   7155.67  4.4222881E-01
   7156.00  4.4293816E-01
   7156.33  4.4374596E-01
   7156.67  4.4467270E-01
   7157.00  4.4573825E-01
   7157.33  4.4697298E-01
   7157.67  4.4835584E-01
   7158.00  4.4987399E-01
   7158.33  4.5151776E-01
   7158.67  4.5324645E-01
   7159.00  4.5503908E-01
   7159.33  4.5688355E-01
   7159.67  4.5876591E-01
   7160.00  4.6068552E-01
   7160.33  4.6265040E-01
   7160.67  4.6465730E-01
   7161.00  4.6670332E-01
   7161.33  4.6878092E-01
   7161.67  4.7086454E-01
   7162.00  4.7292374E-01
   7162.33  4.7490221E-01
   7162.67  4.7675447E-01
   7163.00  4.7842850E-01
   7163.33  4.7982401E-01
   7163.67  4.8090366E-01
   7164.00  4.8162133E-01
   7164.33  4.8189721E-01
   7164.67  4.8177757E-01
   7165.00  4.8128111E-01
   7165.33  4.8040623E-01
   7165.67  4.7924711E-01
   7166.00  4.7785160E-01
   7166.33  4.7624990E-01
   7166.67  4.7451092E-01
   7167.00  4.7266654E-01
   7167.33  4.7073423E-01
   7167.67  4.6874117E-01
   7168.00  4.6669637E-01
   7168.33  4.6459953E-01
   7168.67  4.6245870E-01
   7169.00  4.6027518E-01
   7169.33  4.5804588E-01
   7169.67  4.5577990E-01
   7170.00  4.5348413E-01
   7170.33  4.5117103E-01
   7170.67  4.4886670E-01
   7171.00  4.4660404E-01
   7171.33  4.4445912E-01
   7171.67  4.4252782E-01
   7172.00  4.4094640E-01
