    FDMNES
    energy     <xanes>
   7097.00  4.6567034E-03
   7097.33  4.7581440E-03
   7097.67  4.8638791E-03
   7098.00  4.9741868E-03
   7098.33  5.0900407E-03
   7098.67  5.2112219E-03
   7099.00  5.3381073E-03
   7099.33  5.4719593E-03
   7099.67  5.6125517E-03
   7100.00  5.7604092E-03
   7100.33  5.9172124E-03
   7100.67  6.0827466E-03
   7101.00  6.2577660E-03
   7101.33  6.4445802E-03
   7101.67  6.6430276E-03
   7102.00  6.8542353E-03
   7102.33  7.0815014E-03
   7102.67  7.3248116E-03
   7103.00  7.5859302E-03
   7103.33  7.8697960E-03
   7103.67  8.1767582E-03
   7104.00  8.5097421E-03
   7104.33  8.8765981E-03
   7104.67  9.2785641E-03
   7105.00  9.7208565E-03
   7105.33  1.0216953E-02
   7105.67  1.0770362E-02
   7106.00  1.1391320E-02
   7106.33  1.2105471E-02
   7106.67  1.2922704E-02
   7107.00  1.3865908E-02
   7107.33  1.4991451E-02
   7107.67  1.6330159E-02
   7108.00  1.7943937E-02
   7108.33  1.9986645E-02
   7108.67  2.2577333E-02
   7109.00  2.5941835E-02
   7109.33  3.0677371E-02
   7109.67  3.7460185E-02
   7110.00  4.7619238E-02
   7110.33  6.4963836E-02
   7110.67  9.3275179E-02
   7111.00  1.3215158E-01
   7111.33  1.6775589E-01
   7111.67  1.9185685E-01
   7112.00  2.0720777E-01
   7112.33  2.2559804E-01
   7112.67  2.4572405E-01
   7113.00  2.5267362E-01
   7113.33  2.3786148E-01
   7113.67  2.1931908E-01
   7114.00  2.1304545E-01
   7114.33  2.2108019E-01
   7114.67  2.1486740E-01
   7115.00  1.8088646E-01
   7115.33  1.4194378E-01
   7115.67  1.1555648E-01
   7116.00  1.0161854E-01
   7116.33  9.7336760E-02
   7116.67  9.8541847E-02
   7117.00  1.0387237E-01
   7117.33  1.1298200E-01
   7117.67  1.2477330E-01
   7118.00  1.3863888E-01
   7118.33  1.5275931E-01
   7118.67  1.6332492E-01
   7119.00  1.6871161E-01
   7119.33  1.7154208E-01
   7119.67  1.7530756E-01
   7120.00  1.8055525E-01
   7120.33  1.8700770E-01
   7120.67  1.9426359E-01
   7121.00  2.0231084E-01
   7121.33  2.1131868E-01
   7121.67  2.2119982E-01
   7122.00  2.3187015E-01
   7122.33  2.4305620E-01
   7122.67  2.5392076E-01
   7123.00  2.6364713E-01
   7123.33  2.7203542E-01
   7123.67  2.8027921E-01
   7124.00  2.8923330E-01
   7124.33  2.9951751E-01
   7124.67  3.1139288E-01
   7125.00  3.2534214E-01
   7125.33  3.4214730E-01
   7125.67  3.6155118E-01
   7126.00  3.8303643E-01
   7126.33  4.0554278E-01
   7126.67  4.2819417E-01
   7127.00  4.5142392E-01
   7127.33  4.7694516E-01
   7127.67  5.0555414E-01
   7128.00  5.3681637E-01
   7128.33  5.6857370E-01
   7128.67  5.9752757E-01
   7129.00  6.2120359E-01
   7129.33  6.3758847E-01
   7129.67  6.4806143E-01
   7130.00  6.5378330E-01
   7130.33  6.5598937E-01
   7130.67  6.5677728E-01
   7131.00  6.5742922E-01
   7131.33  6.5902788E-01
   7131.67  6.6174869E-01
   7132.00  6.6535619E-01
   7132.33  6.6940857E-01
   7132.67  6.7354106E-01
   7133.00  6.7778100E-01
   7133.33  6.8239815E-01
   7133.67  6.8745057E-01
   7134.00  6.9268527E-01
   7134.33  6.9729140E-01
   7134.67  7.0052721E-01
   7135.00  7.0214548E-01
   7135.33  7.0251269E-01
   7135.67  7.0285126E-01
   7136.00  7.0409561E-01
   7136.33  7.0694767E-01
   7136.67  7.1082901E-01
   7137.00  7.1473653E-01
   7137.33  7.1701873E-01
   7137.67  7.1664277E-01
   7138.00  7.1307082E-01
   7138.33  7.0589505E-01
   7138.67  6.9599214E-01
   7139.00  6.8396535E-01
   7139.33  6.7036393E-01
   7139.67  6.5597370E-01
   7140.00  6.4119574E-01
   7140.33  6.2640394E-01
   7140.67  6.1197248E-01
   7141.00  5.9827625E-01
   7141.33  5.8596637E-01
   7141.67  5.7536457E-01
   7142.00  5.6676244E-01
   7142.33  5.6054523E-01
   7142.67  5.5632143E-01
   7143.00  5.5382361E-01
   7143.33  5.5281101E-01
   7143.67  5.5270861E-01
   7144.00  5.5321485E-01
   7144.33  5.5410640E-01
   7144.67  5.5517469E-01
   7145.00  5.5634042E-01
   7145.33  5.5755959E-01
   7145.67  5.5879680E-01
   7146.00  5.6002327E-01
   7146.33  5.6118043E-01
   7146.67  5.6220443E-01
   7147.00  5.6302164E-01
   7147.33  5.6350537E-01
   7147.67  5.6361726E-01
   7148.00  5.6331656E-01
   7148.33  5.6252411E-01
   7148.67  5.6128996E-01
   7149.00  5.5962527E-01
   7149.33  5.5750180E-01
   7149.67  5.5499230E-01
   7150.00  5.5210647E-01
   7150.33  5.4879806E-01
   7150.67  5.4510961E-01
   7151.00  5.4103766E-01
   7151.33  5.3653422E-01
   7151.67  5.3165431E-01
   7152.00  5.2641131E-01
   7152.33  5.2079066E-01
   7152.67  5.1487486E-01
   7153.00  5.0870595E-01
   7153.33  5.0231582E-01
   7153.67  4.9579206E-01
   7154.00  4.8919129E-01
   7154.33  4.8257707E-01
   7154.67  4.7601358E-01
   7155.00  4.6955324E-01
   7155.33  4.6327662E-01
   7155.67  4.5722302E-01
   7156.00  4.5144247E-01
   7156.33  4.4602914E-01
   7156.67  4.4098766E-01
   7157.00  4.3634979E-01
   7157.33  4.3219524E-01
   7157.67  4.2848443E-01
   7158.00  4.2522373E-01
   7158.33  4.2247385E-01
   7158.67  4.2017845E-01
   7159.00  4.1833115E-01
   7159.33  4.1697083E-01
   7159.67  4.1602109E-01
   7160.00  4.1545389E-01
   7160.33  4.1526765E-01
   7160.67  4.1536592E-01
   7161.00  4.1569627E-01
   7161.33  4.1621489E-01
   7161.67  4.1683709E-01
   7162.00  4.1751313E-01
   7162.33  4.1819622E-01
   7162.67  4.1885346E-01
   7163.00  4.1947126E-01
   7163.33  4.2004416E-01
   7163.67  4.2059012E-01
   7164.00  4.2112824E-01
   7164.33  4.2168841E-01
   7164.67  4.2229625E-01
   7165.00  4.2297366E-01
   7165.33  4.2375641E-01
   7165.67  4.2465551E-01
   7166.00  4.2568956E-01
   7166.33  4.2689795E-01
   7166.67  4.2827758E-01
   7167.00  4.2983888E-01
   7167.33  4.3161240E-01
   7167.67  4.3357330E-01
   7168.00  4.3571103E-01
   7168.33  4.3801917E-01
   7168.67  4.4044044E-01
   7169.00  4.4293326E-01
   7169.33  4.4544468E-01
   7169.67  4.4791495E-01
   7170.00  4.5029612E-01
   7170.33  4.5252100E-01
   7170.67  4.5456624E-01
   7171.00  4.5640417E-01
   7171.33  4.5797881E-01
   7171.67  4.5929110E-01
   7172.00  4.6031202E-01
