    FDMNES
    energy     <xanes>
   7097.00  4.5684026E-03
   7097.33  4.6675822E-03
   7097.67  4.7708425E-03
   7098.00  4.8784395E-03
   7098.33  4.9912849E-03
   7098.67  5.1091599E-03
   7099.00  5.2324100E-03
   7099.33  5.3622094E-03
   7099.67  5.4983313E-03
   7100.00  5.6412544E-03
   7100.33  5.7925334E-03
   7100.67  5.9519501E-03
   7101.00  6.1201917E-03
   7101.33  6.2993853E-03
   7101.67  6.4893611E-03
   7102.00  6.6911473E-03
   7102.33  6.9077751E-03
   7102.67  7.1392144E-03
   7103.00  7.3870826E-03
   7103.33  7.6559270E-03
   7103.67  7.9460712E-03
   7104.00  8.2602254E-03
   7104.33  8.6056727E-03
   7104.67  8.9836235E-03
   7105.00  9.3990011E-03
   7105.33  9.8645119E-03
   7105.67  1.0383705E-02
   7106.00  1.0966525E-02
   7106.33  1.1637848E-02
   7106.67  1.2408060E-02
   7107.00  1.3300387E-02
   7107.33  1.4372080E-02
   7107.67  1.5657189E-02
   7108.00  1.7222628E-02
   7108.33  1.9236043E-02
   7108.67  2.1838579E-02
   7109.00  2.5297097E-02
   7109.33  3.0331639E-02
   7109.67  3.7822518E-02
   7110.00  4.9517330E-02
   7110.33  7.0442137E-02
   7110.67  1.0479098E-01
   7111.00  1.4700833E-01
   7111.33  1.6834220E-01
   7111.67  1.7063260E-01
   7112.00  1.6817584E-01
   7112.33  1.6790378E-01
   7112.67  1.7080324E-01
   7113.00  1.7082623E-01
   7113.33  1.5778392E-01
   7113.67  1.3666804E-01
   7114.00  1.1489654E-01
   7114.33  9.7981112E-02
   7114.67  8.6466605E-02
   7115.00  7.9932709E-02
   7115.33  7.8272231E-02
   7115.67  8.0546594E-02
   7116.00  8.6748641E-02
   7116.33  9.7825548E-02
   7116.67  1.1385615E-01
   7117.00  1.3511752E-01
   7117.33  1.6131980E-01
   7117.67  1.8847855E-01
   7118.00  2.1188863E-01
   7118.33  2.2740431E-01
   7118.67  2.3794498E-01
   7119.00  2.4679453E-01
   7119.33  2.5544433E-01
   7119.67  2.6445420E-01
   7120.00  2.7523709E-01
   7120.33  2.8907117E-01
   7120.67  3.0378870E-01
   7121.00  3.1641129E-01
   7121.33  3.2435163E-01
   7121.67  3.2907753E-01
   7122.00  3.3269790E-01
   7122.33  3.3745352E-01
   7122.67  3.4438776E-01
   7123.00  3.5379411E-01
   7123.33  3.6552866E-01
   7123.67  3.7861937E-01
   7124.00  3.9281020E-01
   7124.33  4.0903091E-01
   7124.67  4.2864205E-01
   7125.00  4.5294843E-01
   7125.33  4.8348012E-01
   7125.67  5.1991366E-01
   7126.00  5.6195886E-01
   7126.33  6.0679905E-01
   7126.67  6.4710249E-01
   7127.00  6.7620368E-01
   7127.33  6.8818133E-01
   7127.67  6.8689799E-01
   7128.00  6.7700811E-01
   7128.33  6.6313643E-01
   7128.67  6.4868901E-01
   7129.00  6.3464372E-01
   7129.33  6.2104938E-01
   7129.67  6.0752709E-01
   7130.00  5.9430506E-01
   7130.33  5.8283620E-01
   7130.67  5.7478618E-01
   7131.00  5.7151283E-01
   7131.33  5.7413435E-01
   7131.67  5.8102205E-01
   7132.00  5.9074374E-01
   7132.33  6.0207035E-01
   7132.67  6.1396539E-01
   7133.00  6.2584763E-01
   7133.33  6.3681561E-01
   7133.67  6.4616235E-01
   7134.00  6.5339747E-01
   7134.33  6.5788252E-01
   7134.67  6.5979155E-01
   7135.00  6.5924899E-01
   7135.33  6.5636673E-01
   7135.67  6.5179025E-01
   7136.00  6.4576152E-01
   7136.33  6.3835047E-01
   7136.67  6.2995898E-01
   7137.00  6.2085333E-01
   7137.33  6.1135323E-01
   7137.67  6.0190965E-01
   7138.00  5.9287967E-01
   7138.33  5.8475461E-01
   7138.67  5.7777904E-01
   7139.00  5.7219550E-01
   7139.33  5.6838642E-01
   7139.67  5.6618630E-01
   7140.00  5.6545523E-01
   7140.33  5.6590713E-01
   7140.67  5.6666000E-01
   7141.00  5.6677618E-01
   7141.33  5.6462499E-01
   7141.67  5.5911514E-01
   7142.00  5.4967957E-01
   7142.33  5.3659771E-01
   7142.67  5.2226368E-01
   7143.00  5.0859234E-01
   7143.33  4.9731753E-01
   7143.67  4.8859855E-01
   7144.00  4.8224648E-01
   7144.33  4.7804250E-01
   7144.67  4.7527703E-01
   7145.00  4.7360865E-01
   7145.33  4.7281774E-01
   7145.67  4.7256253E-01
   7146.00  4.7268112E-01
   7146.33  4.7306538E-01
   7146.67  4.7360637E-01
   7147.00  4.7427268E-01
   7147.33  4.7505447E-01
   7147.67  4.7590753E-01
   7148.00  4.7677133E-01
   7148.33  4.7750521E-01
   7148.67  4.7796609E-01
   7149.00  4.7799758E-01
   7149.33  4.7733129E-01
   7149.67  4.7589737E-01
   7150.00  4.7364323E-01
   7150.33  4.7051572E-01
   7150.67  4.6675374E-01
   7151.00  4.6252704E-01
   7151.33  4.5801518E-01
   7151.67  4.5344083E-01
   7152.00  4.4893639E-01
   7152.33  4.4463386E-01
   7152.67  4.4056437E-01
   7153.00  4.3674788E-01
   7153.33  4.3323606E-01
   7153.67  4.3000932E-01
   7154.00  4.2708142E-01
   7154.33  4.2451279E-01
   7154.67  4.2228546E-01
   7155.00  4.2041630E-01
   7155.33  4.1896627E-01
   7155.67  4.1789443E-01
   7156.00  4.1719762E-01
   7156.33  4.1690781E-01
   7156.67  4.1695429E-01
   7157.00  4.1730378E-01
   7157.33  4.1793894E-01
   7157.67  4.1876958E-01
   7158.00  4.1973896E-01
   7158.33  4.2078301E-01
   7158.67  4.2181737E-01
   7159.00  4.2277800E-01
   7159.33  4.2357969E-01
   7159.67  4.2418750E-01
   7160.00  4.2457400E-01
   7160.33  4.2469951E-01
   7160.67  4.2460515E-01
   7161.00  4.2431689E-01
   7161.33  4.2385856E-01
   7161.67  4.2330249E-01
   7162.00  4.2269800E-01
   7162.33  4.2209928E-01
   7162.67  4.2155052E-01
   7163.00  4.2108143E-01
   7163.33  4.2072830E-01
   7163.67  4.2048919E-01
   7164.00  4.2036387E-01
   7164.33  4.2035590E-01
   7164.67  4.2043486E-01
   7165.00  4.2058133E-01
   7165.33  4.2077742E-01
   7165.67  4.2099445E-01
   7166.00  4.2121256E-01
   7166.33  4.2140881E-01
   7166.67  4.2157057E-01
   7167.00  4.2168934E-01
   7167.33  4.2175339E-01
   7167.67  4.2176671E-01
   7168.00  4.2172972E-01
   7168.33  4.2163950E-01
   7168.67  4.2150777E-01
   7169.00  4.2134139E-01
   7169.33  4.2114823E-01
   7169.67  4.2094640E-01
   7170.00  4.2075128E-01
   7170.33  4.2058525E-01
   7170.67  4.2046407E-01
   7171.00  4.2040108E-01
   7171.33  4.2041074E-01
   7171.67  4.2047267E-01
   7172.00  4.2055513E-01
