    FDMNES
    energy     <xanes>
   7097.00  4.4147607E-03
   7097.33  4.5041771E-03
   7097.67  4.5969460E-03
   7098.00  4.6932575E-03
   7098.33  4.7938267E-03
   7098.67  4.8984464E-03
   7099.00  5.0073665E-03
   7099.33  5.1214848E-03
   7099.67  5.2405794E-03
   7100.00  5.3649870E-03
   7100.33  5.4958623E-03
   7100.67  5.6329760E-03
   7101.00  5.7767966E-03
   7101.33  5.9288533E-03
   7101.67  6.0889289E-03
   7102.00  6.2577013E-03
   7102.33  6.4372708E-03
   7102.67  6.6274794E-03
   7103.00  6.8293555E-03
   7103.33  7.0459236E-03
   7103.67  7.2771962E-03
   7104.00  7.5248317E-03
   7104.33  7.7934625E-03
   7104.67  8.0835490E-03
   7105.00  8.3979872E-03
   7105.33  8.7444825E-03
   7105.67  9.1246949E-03
   7106.00  9.5442458E-03
   7106.33  1.0017496E-02
   7106.67  1.0549612E-02
   7107.00  1.1153223E-02
   7107.33  1.1859819E-02
   7107.67  1.2686582E-02
   7108.00  1.3668595E-02
   7108.33  1.4894000E-02
   7108.67  1.6433561E-02
   7109.00  1.8422602E-02
   7109.33  2.1224993E-02
   7109.67  2.5274809E-02
   7110.00  3.1434119E-02
   7110.33  4.2184179E-02
   7110.67  5.9708232E-02
   7111.00  8.1966895E-02
   7111.33  9.5652158E-02
   7111.67  9.7926180E-02
   7112.00  9.6315458E-02
   7112.33  9.8872829E-02
   7112.67  1.0343678E-01
   7113.00  1.0444909E-01
   7113.33  1.0275220E-01
   7113.67  1.0294614E-01
   7114.00  1.0434257E-01
   7114.33  1.0127573E-01
   7114.67  9.2658093E-02
   7115.00  8.2529990E-02
   7115.33  7.5705901E-02
   7115.67  7.3489261E-02
   7116.00  7.6207541E-02
   7116.33  8.4898913E-02
   7116.67  9.9816188E-02
   7117.00  1.2199393E-01
   7117.33  1.5238990E-01
   7117.67  1.8682353E-01
   7118.00  2.2003708E-01
   7118.33  2.4467206E-01
   7118.67  2.5823298E-01
   7119.00  2.6213201E-01
   7119.33  2.6190038E-01
   7119.67  2.6396009E-01
   7120.00  2.7074726E-01
   7120.33  2.8326236E-01
   7120.67  3.0019347E-01
   7121.00  3.2050788E-01
   7121.33  3.4246343E-01
   7121.67  3.6416124E-01
   7122.00  3.8548383E-01
   7122.33  4.0758515E-01
   7122.67  4.3082093E-01
   7123.00  4.5426700E-01
   7123.33  4.7590283E-01
   7123.67  4.9455664E-01
   7124.00  5.0906525E-01
   7124.33  5.1541257E-01
   7124.67  5.1225762E-01
   7125.00  5.0215680E-01
   7125.33  4.9190753E-01
   7125.67  4.8739155E-01
   7126.00  4.9094088E-01
   7126.33  5.0403938E-01
   7126.67  5.2429658E-01
   7127.00  5.4838986E-01
   7127.33  5.6986493E-01
   7127.67  5.8425287E-01
   7128.00  5.9098202E-01
   7128.33  5.9140600E-01
   7128.67  5.8884881E-01
   7129.00  5.8537190E-01
   7129.33  5.8324375E-01
   7129.67  5.8375512E-01
   7130.00  5.8720716E-01
   7130.33  5.9309293E-01
   7130.67  5.9966103E-01
   7131.00  6.0563292E-01
   7131.33  6.0988946E-01
   7131.67  6.1257457E-01
   7132.00  6.1426680E-01
   7132.33  6.1588202E-01
   7132.67  6.1799249E-01
   7133.00  6.2053835E-01
   7133.33  6.2310573E-01
   7133.67  6.2541631E-01
   7134.00  6.2749201E-01
   7134.33  6.2947152E-01
   7134.67  6.3144348E-01
   7135.00  6.3336866E-01
   7135.33  6.3519838E-01
   7135.67  6.3710796E-01
   7136.00  6.3933156E-01
   7136.33  6.4179610E-01
   7136.67  6.4363273E-01
   7137.00  6.4383363E-01
   7137.33  6.4146346E-01
   7137.67  6.3714422E-01
   7138.00  6.3170370E-01
   7138.33  6.2615341E-01
   7138.67  6.2123723E-01
   7139.00  6.1728723E-01
   7139.33  6.1455616E-01
   7139.67  6.1284078E-01
   7140.00  6.1199051E-01
   7140.33  6.1180354E-01
   7140.67  6.1178634E-01
   7141.00  6.1145019E-01
   7141.33  6.1005362E-01
   7141.67  6.0723548E-01
   7142.00  6.0280423E-01
   7142.33  5.9653585E-01
   7142.67  5.8869453E-01
   7143.00  5.7932988E-01
   7143.33  5.6834478E-01
   7143.67  5.5611404E-01
   7144.00  5.4293935E-01
   7144.33  5.2924829E-01
   7144.67  5.1563699E-01
   7145.00  5.0253009E-01
   7145.33  4.9042643E-01
   7145.67  4.7946859E-01
   7146.00  4.6977610E-01
   7146.33  4.6155606E-01
   7146.67  4.5460622E-01
   7147.00  4.4884157E-01
   7147.33  4.4424147E-01
   7147.67  4.4048847E-01
   7148.00  4.3740080E-01
   7148.33  4.3479055E-01
   7148.67  4.3235031E-01
   7149.00  4.2988882E-01
   7149.33  4.2724231E-01
   7149.67  4.2437917E-01
   7150.00  4.2131682E-01
   7150.33  4.1811396E-01
   7150.67  4.1489593E-01
   7151.00  4.1176935E-01
   7151.33  4.0888779E-01
   7151.67  4.0634514E-01
   7152.00  4.0423608E-01
   7152.33  4.0271883E-01
   7152.67  4.0179446E-01
   7153.00  4.0149785E-01
   7153.33  4.0191679E-01
   7153.67  4.0294193E-01
   7154.00  4.0453284E-01
   7154.33  4.0669352E-01
   7154.67  4.0928074E-01
   7155.00  4.1220878E-01
   7155.33  4.1539107E-01
   7155.67  4.1867826E-01
   7156.00  4.2196982E-01
   7156.33  4.2515044E-01
   7156.67  4.2815352E-01
   7157.00  4.3093487E-01
   7157.33  4.3344120E-01
   7157.67  4.3570469E-01
   7158.00  4.3774240E-01
   7158.33  4.3956803E-01
   7158.67  4.4125359E-01
   7159.00  4.4284217E-01
   7159.33  4.4437224E-01
   7159.67  4.4588417E-01
   7160.00  4.4739673E-01
   7160.33  4.4892339E-01
   7160.67  4.5046939E-01
   7161.00  4.5204352E-01
   7161.33  4.5366545E-01
   7161.67  4.5534823E-01
   7162.00  4.5710834E-01
   7162.33  4.5896416E-01
   7162.67  4.6089543E-01
   7163.00  4.6288035E-01
   7163.33  4.6488010E-01
   7163.67  4.6683882E-01
   7164.00  4.6870235E-01
   7164.33  4.7038511E-01
   7164.67  4.7184696E-01
   7165.00  4.7304537E-01
   7165.33  4.7390766E-01
   7165.67  4.7445135E-01
   7166.00  4.7466978E-01
   7166.33  4.7452357E-01
   7166.67  4.7405993E-01
   7167.00  4.7328618E-01
   7167.33  4.7217404E-01
   7167.67  4.7077197E-01
   7168.00  4.6909184E-01
   7168.33  4.6712045E-01
   7168.67  4.6491741E-01
   7169.00  4.6251369E-01
   7169.33  4.5993454E-01
   7169.67  4.5725272E-01
   7170.00  4.5451940E-01
   7170.33  4.5179984E-01
   7170.67  4.4916026E-01
   7171.00  4.4666241E-01
   7171.33  4.4441271E-01
   7171.67  4.4247824E-01
   7172.00  4.4095181E-01
