    FDMNES
    energy     <xanes>
   7097.00  4.5042519E-03
   7097.33  4.5965808E-03
   7097.67  4.6924949E-03
   7098.00  4.7922090E-03
   7098.33  4.8965070E-03
   7098.67  5.0051834E-03
   7099.00  5.1185249E-03
   7099.33  5.2375310E-03
   7099.67  5.3619858E-03
   7100.00  5.4922833E-03
   7100.33  5.6297320E-03
   7100.67  5.7741179E-03
   7101.00  5.9260013E-03
   7101.33  6.0871509E-03
   7101.67  6.2573849E-03
   7102.00  6.4375324E-03
   7102.33  6.6300821E-03
   7102.67  6.8349521E-03
   7103.00  7.0534320E-03
   7103.33  7.2892038E-03
   7103.67  7.5424450E-03
   7104.00  7.8152894E-03
   7104.33  8.1135429E-03
   7104.67  8.4380362E-03
   7105.00  8.7925871E-03
   7105.33  9.1871421E-03
   7105.67  9.6242401E-03
   7106.00  1.0111444E-02
   7106.33  1.0667787E-02
   7106.67  1.1300705E-02
   7107.00  1.2027389E-02
   7107.33  1.2890288E-02
   7107.67  1.3913204E-02
   7108.00  1.5143675E-02
   7108.33  1.6700084E-02
   7108.67  1.8676164E-02
   7109.00  2.1248930E-02
   7109.33  2.4886786E-02
   7109.67  3.0124476E-02
   7110.00  3.8011559E-02
   7110.33  5.1613834E-02
   7110.67  7.4652811E-02
   7111.00  1.0979227E-01
   7111.33  1.4671494E-01
   7111.67  1.6167265E-01
   7112.00  1.4811262E-01
   7112.33  1.2857076E-01
   7112.67  1.2510217E-01
   7113.00  1.3872648E-01
   7113.33  1.5422712E-01
   7113.67  1.4478264E-01
   7114.00  1.1703404E-01
   7114.33  9.3877298E-02
   7114.67  7.9164353E-02
   7115.00  7.0924644E-02
   7115.33  6.8184175E-02
   7115.67  6.9121507E-02
   7116.00  7.2280573E-02
   7116.33  7.5739021E-02
   7116.67  7.8898931E-02
   7117.00  8.2905049E-02
   7117.33  8.9833122E-02
   7117.67  1.0042579E-01
   7118.00  1.1469732E-01
   7118.33  1.3156209E-01
   7118.67  1.4860251E-01
   7119.00  1.6483185E-01
   7119.33  1.8023278E-01
   7119.67  1.9480499E-01
   7120.00  2.0784861E-01
   7120.33  2.1860142E-01
   7120.67  2.2799146E-01
   7121.00  2.3714186E-01
   7121.33  2.4723344E-01
   7121.67  2.5865680E-01
   7122.00  2.7138416E-01
   7122.33  2.8506209E-01
   7122.67  2.9909144E-01
   7123.00  3.1375757E-01
   7123.33  3.3123018E-01
   7123.67  3.5443064E-01
   7124.00  3.8608616E-01
   7124.33  4.2789897E-01
   7124.67  4.7641942E-01
   7125.00  5.3194612E-01
   7125.33  6.0097093E-01
   7125.67  6.7815742E-01
   7126.00  7.4607501E-01
   7126.33  7.7906530E-01
   7126.67  7.8005018E-01
   7127.00  7.6369221E-01
   7127.33  7.4509597E-01
   7127.67  7.3032977E-01
   7128.00  7.2039937E-01
   7128.33  7.1580766E-01
   7128.67  7.1491111E-01
   7129.00  7.1631388E-01
   7129.33  7.1820538E-01
   7129.67  7.1860064E-01
   7130.00  7.1603362E-01
   7130.33  7.0931698E-01
   7130.67  7.0025626E-01
   7131.00  6.9123447E-01
   7131.33  6.8446283E-01
   7131.67  6.7967610E-01
   7132.00  6.7595364E-01
   7132.33  6.7225837E-01
   7132.67  6.6801625E-01
   7133.00  6.6316490E-01
   7133.33  6.5814744E-01
   7133.67  6.5410368E-01
   7134.00  6.5243733E-01
   7134.33  6.5509821E-01
   7134.67  6.6177112E-01
   7135.00  6.7104877E-01
   7135.33  6.8006502E-01
   7135.67  6.8630653E-01
   7136.00  6.8875078E-01
   7136.33  6.8694949E-01
   7136.67  6.8197786E-01
   7137.00  6.7438792E-01
   7137.33  6.6441078E-01
   7137.67  6.5265602E-01
   7138.00  6.3935985E-01
   7138.33  6.2466177E-01
   7138.67  6.0910291E-01
   7139.00  5.9310513E-01
   7139.33  5.7725705E-01
   7139.67  5.6210031E-01
   7140.00  5.4803896E-01
   7140.33  5.3560470E-01
   7140.67  5.2482532E-01
   7141.00  5.1577812E-01
   7141.33  5.0868609E-01
   7141.67  5.0328895E-01
   7142.00  4.9953844E-01
   7142.33  4.9758090E-01
   7142.67  4.9716741E-01
   7143.00  4.9824555E-01
   7143.33  5.0089071E-01
   7143.67  5.0475674E-01
   7144.00  5.0961129E-01
   7144.33  5.1513344E-01
   7144.67  5.2071150E-01
   7145.00  5.2578848E-01
   7145.33  5.2952802E-01
   7145.67  5.3149055E-01
   7146.00  5.3137921E-01
   7146.33  5.2888645E-01
   7146.67  5.2450531E-01
   7147.00  5.1855966E-01
   7147.33  5.1130249E-01
   7147.67  5.0320467E-01
   7148.00  4.9446328E-01
   7148.33  4.8517550E-01
   7148.67  4.7552109E-01
   7149.00  4.6559858E-01
   7149.33  4.5552859E-01
   7149.67  4.4548845E-01
   7150.00  4.3561548E-01
   7150.33  4.2610740E-01
   7150.67  4.1707576E-01
   7151.00  4.0864012E-01
   7151.33  4.0100719E-01
   7151.67  3.9417624E-01
   7152.00  3.8819816E-01
   7152.33  3.8321362E-01
   7152.67  3.7911564E-01
   7153.00  3.7589131E-01
   7153.33  3.7361316E-01
   7153.67  3.7211980E-01
   7154.00  3.7136403E-01
   7154.33  3.7139482E-01
   7154.67  3.7208033E-01
   7155.00  3.7337547E-01
   7155.33  3.7529692E-01
   7155.67  3.7772175E-01
   7156.00  3.8060274E-01
   7156.33  3.8393221E-01
   7156.67  3.8759822E-01
   7157.00  3.9154211E-01
   7157.33  3.9571598E-01
   7157.67  4.0001682E-01
   7158.00  4.0437549E-01
   7158.33  4.0870655E-01
   7158.67  4.1293014E-01
   7159.00  4.1697568E-01
   7159.33  4.2073162E-01
   7159.67  4.2415561E-01
   7160.00  4.2718964E-01
   7160.33  4.2972051E-01
   7160.67  4.3176079E-01
   7161.00  4.3328747E-01
   7161.33  4.3422988E-01
   7161.67  4.3467409E-01
   7162.00  4.3466174E-01
   7162.33  4.3422088E-01
   7162.67  4.3350037E-01
   7163.00  4.3259803E-01
   7163.33  4.3162479E-01
   7163.67  4.3070405E-01
   7164.00  4.2992465E-01
   7164.33  4.2939849E-01
   7164.67  4.2915463E-01
   7165.00  4.2921973E-01
   7165.33  4.2964057E-01
   7165.67  4.3036359E-01
   7166.00  4.3136416E-01
   7166.33  4.3263417E-01
   7166.67  4.3410066E-01
   7167.00  4.3572661E-01
   7167.33  4.3748714E-01
   7167.67  4.3933299E-01
   7168.00  4.4123954E-01
   7168.33  4.4318735E-01
   7168.67  4.4515128E-01
   7169.00  4.4711556E-01
   7169.33  4.4906144E-01
   7169.67  4.5097533E-01
   7170.00  4.5284408E-01
   7170.33  4.5464431E-01
   7170.67  4.5636510E-01
   7171.00  4.5798534E-01
   7171.33  4.5945297E-01
   7171.67  4.6073069E-01
   7172.00  4.6175552E-01
