    FDMNES
    energy     <xanes>
   7097.00  5.1286428E-03
   7097.33  5.2509933E-03
   7097.67  5.3789556E-03
   7098.00  5.5129132E-03
   7098.33  5.6541717E-03
   7098.67  5.8024709E-03
   7099.00  5.9583347E-03
   7099.33  6.1234742E-03
   7099.67  6.2976249E-03
   7100.00  6.4815214E-03
   7100.33  6.6774664E-03
   7100.67  6.8852177E-03
   7101.00  7.1058386E-03
   7101.33  7.3425249E-03
   7101.67  7.5951173E-03
   7102.00  7.8652128E-03
   7102.33  8.1574151E-03
   7102.67  8.4717819E-03
   7103.00  8.8108206E-03
   7103.33  9.1814729E-03
   7103.67  9.5843177E-03
   7104.00  1.0023514E-02
   7104.33  1.0510141E-02
   7104.67  1.1046028E-02
   7105.00  1.1638568E-02
   7105.33  1.2306774E-02
   7105.67  1.3055615E-02
   7106.00  1.3899469E-02
   7106.33  1.4874263E-02
   7106.67  1.5993578E-02
   7107.00  1.7288996E-02
   7107.33  1.8838083E-02
   7107.67  2.0681694E-02
   7108.00  2.2902404E-02
   7108.33  2.5704011E-02
   7108.67  2.9235713E-02
   7109.00  3.3779855E-02
   7109.33  4.0068677E-02
   7109.67  4.8871688E-02
   7110.00  6.1680441E-02
   7110.33  8.2790272E-02
   7110.67  1.1773647E-01
   7111.00  1.7330911E-01
   7111.33  2.4596453E-01
   7111.67  3.0037062E-01
   7112.00  3.2760998E-01
   7112.33  3.5091155E-01
   7112.67  3.8186119E-01
   7113.00  4.1735511E-01
   7113.33  3.9272376E-01
   7113.67  3.1705586E-01
   7114.00  2.3962182E-01
   7114.33  1.9326608E-01
   7114.67  1.7404266E-01
   7115.00  1.7782783E-01
   7115.33  2.0608211E-01
   7115.67  2.5274441E-01
   7116.00  3.0238325E-01
   7116.33  3.2685829E-01
   7116.67  3.2509097E-01
   7117.00  3.0347139E-01
   7117.33  2.7099374E-01
   7117.67  2.3974298E-01
   7118.00  2.1328841E-01
   7118.33  1.9169842E-01
   7118.67  1.7393720E-01
   7119.00  1.6013299E-01
   7119.33  1.5096581E-01
   7119.67  1.4539569E-01
   7120.00  1.4186728E-01
   7120.33  1.3870347E-01
   7120.67  1.3596068E-01
   7121.00  1.3435028E-01
   7121.33  1.3453472E-01
   7121.67  1.3645959E-01
   7122.00  1.4019957E-01
   7122.33  1.4610473E-01
   7122.67  1.5411142E-01
   7123.00  1.6445800E-01
   7123.33  1.7773528E-01
   7123.67  1.9376544E-01
   7124.00  2.1257835E-01
   7124.33  2.3444768E-01
   7124.67  2.5865103E-01
   7125.00  2.8429660E-01
   7125.33  3.0980526E-01
   7125.67  3.3376348E-01
   7126.00  3.5531005E-01
   7126.33  3.7395670E-01
   7126.67  3.9128404E-01
   7127.00  4.0891534E-01
   7127.33  4.2835536E-01
   7127.67  4.4983969E-01
   7128.00  4.7335823E-01
   7128.33  4.9900955E-01
   7128.67  5.2627704E-01
   7129.00  5.5474615E-01
   7129.33  5.8414207E-01
   7129.67  6.1434918E-01
   7130.00  6.4557268E-01
   7130.33  6.7811674E-01
   7130.67  7.1168362E-01
   7131.00  7.4584864E-01
   7131.33  7.7952442E-01
   7131.67  8.1094008E-01
   7132.00  8.3811317E-01
   7132.33  8.5845893E-01
   7132.67  8.7224681E-01
   7133.00  8.7985688E-01
   7133.33  8.8086841E-01
   7133.67  8.7580855E-01
   7134.00  8.6463387E-01
   7134.33  8.4757801E-01
   7134.67  8.2693938E-01
   7135.00  8.0390119E-01
   7135.33  7.7883581E-01
   7135.67  7.5216920E-01
   7136.00  7.2421354E-01
   7136.33  6.9556094E-01
   7136.67  6.6714578E-01
   7137.00  6.3971544E-01
   7137.33  6.1427174E-01
   7137.67  5.9123827E-01
   7138.00  5.7104817E-01
   7138.33  5.5443583E-01
   7138.67  5.4110507E-01
   7139.00  5.3093671E-01
   7139.33  5.2396334E-01
   7139.67  5.1942091E-01
   7140.00  5.1698415E-01
   7140.33  5.1660605E-01
   7140.67  5.1789971E-01
   7141.00  5.2078597E-01
   7141.33  5.2535837E-01
   7141.67  5.3127439E-01
   7142.00  5.3832327E-01
   7142.33  5.4625485E-01
   7142.67  5.5450769E-01
   7143.00  5.6258490E-01
   7143.33  5.6967247E-01
   7143.67  5.7506538E-01
   7144.00  5.7805116E-01
   7144.33  5.7758531E-01
   7144.67  5.7380954E-01
   7145.00  5.6697601E-01
   7145.33  5.5755045E-01
   7145.67  5.4682223E-01
   7146.00  5.3568584E-01
   7146.33  5.2513078E-01
   7146.67  5.1579180E-01
   7147.00  5.0806903E-01
   7147.33  5.0242100E-01
   7147.67  4.9861257E-01
   7148.00  4.9653071E-01
   7148.33  4.9617908E-01
   7148.67  4.9715181E-01
   7149.00  4.9926031E-01
   7149.33  5.0240417E-01
   7149.67  5.0626652E-01
   7150.00  5.1069166E-01
   7150.33  5.1558298E-01
   7150.67  5.2077984E-01
   7151.00  5.2621992E-01
   7151.33  5.3189151E-01
   7151.67  5.3776044E-01
   7152.00  5.4383238E-01
   7152.33  5.5014371E-01
   7152.67  5.5666723E-01
   7153.00  5.6338361E-01
   7153.33  5.7026388E-01
   7153.67  5.7721759E-01
   7154.00  5.8416381E-01
   7154.33  5.9097532E-01
   7154.67  5.9754140E-01
   7155.00  6.0374970E-01
   7155.33  6.0941168E-01
   7155.67  6.1447044E-01
   7156.00  6.1883794E-01
   7156.33  6.2233489E-01
   7156.67  6.2500031E-01
   7157.00  6.2680539E-01
   7157.33  6.2763267E-01
   7157.67  6.2760795E-01
   7158.00  6.2676476E-01
   7158.33  6.2506496E-01
   7158.67  6.2267469E-01
   7159.00  6.1966167E-01
   7159.33  6.1604009E-01
   7159.67  6.1195770E-01
   7160.00  6.0747832E-01
   7160.33  6.0262477E-01
   7160.67  5.9749044E-01
   7161.00  5.9211082E-01
   7161.33  5.8649011E-01
   7161.67  5.8067339E-01
   7162.00  5.7466754E-01
   7162.33  5.6844837E-01
   7162.67  5.6203469E-01
   7163.00  5.5542256E-01
   7163.33  5.4858593E-01
   7163.67  5.4155697E-01
   7164.00  5.3435092E-01
   7164.33  5.2697768E-01
   7164.67  5.1949705E-01
   7165.00  5.1195495E-01
   7165.33  5.0441434E-01
   7165.67  4.9694519E-01
   7166.00  4.8961063E-01
   7166.33  4.8250728E-01
   7166.67  4.7567329E-01
   7167.00  4.6915562E-01
   7167.33  4.6304154E-01
   7167.67  4.5731472E-01
   7168.00  4.5199076E-01
   7168.33  4.4713144E-01
   7168.67  4.4268180E-01
   7169.00  4.3862936E-01
   7169.33  4.3500075E-01
   7169.67  4.3172462E-01
   7170.00  4.2877837E-01
   7170.33  4.2617301E-01
   7170.67  4.2384554E-01
   7171.00  4.2177874E-01
   7171.33  4.1999483E-01
   7171.67  4.1847419E-01
   7172.00  4.1724635E-01
