    FDMNES
    energy     <xanes>
   7097.00  4.1376889E-03
   7097.33  4.2184347E-03
   7097.67  4.3020132E-03
   7098.00  4.3885713E-03
   7098.33  4.4786899E-03
   7098.67  4.5721753E-03
   7099.00  4.6692157E-03
   7099.33  4.7705238E-03
   7099.67  4.8758879E-03
   7100.00  4.9855537E-03
   7100.33  5.1004135E-03
   7100.67  5.2202391E-03
   7101.00  5.3453612E-03
   7101.33  5.4769229E-03
   7101.67  5.6146883E-03
   7102.00  5.7591169E-03
   7102.33  5.9117191E-03
   7102.67  6.0722728E-03
   7103.00  6.2414450E-03
   7103.33  6.4213136E-03
   7103.67  6.6117238E-03
   7104.00  6.8137013E-03
   7104.33  7.0302663E-03
   7104.67  7.2614686E-03
   7105.00  7.5090130E-03
   7105.33  7.7776422E-03
   7105.67  8.0679882E-03
   7106.00  8.3832064E-03
   7106.33  8.7316314E-03
   7106.67  9.1156468E-03
   7107.00  9.5420620E-03
   7107.33  1.0028208E-02
   7107.67  1.0582569E-02
   7108.00  1.1223547E-02
   7108.33  1.1997805E-02
   7108.67  1.2941290E-02
   7109.00  1.4124002E-02
   7109.33  1.5734597E-02
   7109.67  1.7995562E-02
   7110.00  2.1350581E-02
   7110.33  2.7088871E-02
   7110.67  3.6467937E-02
   7111.00  4.8893904E-02
   7111.33  5.7024166E-02
   7111.67  5.8093670E-02
   7112.00  5.6111208E-02
   7112.33  5.2329234E-02
   7112.67  4.8122109E-02
   7113.00  4.3795990E-02
   7113.33  4.0183963E-02
   7113.67  3.8657441E-02
   7114.00  3.9007344E-02
   7114.33  4.1016007E-02
   7114.67  4.4484759E-02
   7115.00  4.9658827E-02
   7115.33  5.7427744E-02
   7115.67  6.8625174E-02
   7116.00  8.4826670E-02
   7116.33  1.0957637E-01
   7116.67  1.4394677E-01
   7117.00  1.8633056E-01
   7117.33  2.3186556E-01
   7117.67  2.7768512E-01
   7118.00  3.1993151E-01
   7118.33  3.4799073E-01
   7118.67  3.5854932E-01
   7119.00  3.5561712E-01
   7119.33  3.4709002E-01
   7119.67  3.3906563E-01
   7120.00  3.3349479E-01
   7120.33  3.3163538E-01
   7120.67  3.3366383E-01
   7121.00  3.4004332E-01
   7121.33  3.5127912E-01
   7121.67  3.6590129E-01
   7122.00  3.8236093E-01
   7122.33  3.9832420E-01
   7122.67  4.1221471E-01
   7123.00  4.2373779E-01
   7123.33  4.3363049E-01
   7123.67  4.4310129E-01
   7124.00  4.5137963E-01
   7124.33  4.5606787E-01
   7124.67  4.5691913E-01
   7125.00  4.5521351E-01
   7125.33  4.5361523E-01
   7125.67  4.5395770E-01
   7126.00  4.5616923E-01
   7126.33  4.5892351E-01
   7126.67  4.6073312E-01
   7127.00  4.6092003E-01
   7127.33  4.5927439E-01
   7127.67  4.5672701E-01
   7128.00  4.5390599E-01
   7128.33  4.5073305E-01
   7128.67  4.4670548E-01
   7129.00  4.4175011E-01
   7129.33  4.3656286E-01
   7129.67  4.3221054E-01
   7130.00  4.2940310E-01
   7130.33  4.2906311E-01
   7130.67  4.3156901E-01
   7131.00  4.3740364E-01
   7131.33  4.4722780E-01
   7131.67  4.6030441E-01
   7132.00  4.7595350E-01
   7132.33  4.9310207E-01
   7132.67  5.1006372E-01
   7133.00  5.2561275E-01
   7133.33  5.3867963E-01
   7133.67  5.4988574E-01
   7134.00  5.6031032E-01
   7134.33  5.7147397E-01
   7134.67  5.8425739E-01
   7135.00  5.9885750E-01
   7135.33  6.1487282E-01
   7135.67  6.3082348E-01
   7136.00  6.4514752E-01
   7136.33  6.5550687E-01
   7136.67  6.6095088E-01
   7137.00  6.6108558E-01
   7137.33  6.5587858E-01
   7137.67  6.4722063E-01
   7138.00  6.3637974E-01
   7138.33  6.2447823E-01
   7138.67  6.1243015E-01
   7139.00  6.0057291E-01
   7139.33  5.8907495E-01
   7139.67  5.7792988E-01
   7140.00  5.6722028E-01
   7140.33  5.5726000E-01
   7140.67  5.4831518E-01
   7141.00  5.4071220E-01
   7141.33  5.3497686E-01
   7141.67  5.3108175E-01
   7142.00  5.2904416E-01
   7142.33  5.2896040E-01
   7142.67  5.3038117E-01
   7143.00  5.3304282E-01
   7143.33  5.3670187E-01
   7143.67  5.4087959E-01
   7144.00  5.4528356E-01
   7144.33  5.4963313E-01
   7144.67  5.5376098E-01
   7145.00  5.5761833E-01
   7145.33  5.6123940E-01
   7145.67  5.6480789E-01
   7146.00  5.6849852E-01
   7146.33  5.7253414E-01
   7146.67  5.7697559E-01
   7147.00  5.8181357E-01
   7147.33  5.8695212E-01
   7147.67  5.9210282E-01
   7148.00  5.9696975E-01
   7148.33  6.0110471E-01
   7148.67  6.0429273E-01
   7149.00  6.0638959E-01
   7149.33  6.0724348E-01
   7149.67  6.0712281E-01
   7150.00  6.0620760E-01
   7150.33  6.0466023E-01
   7150.67  6.0276665E-01
   7151.00  6.0067826E-01
   7151.33  5.9851716E-01
   7151.67  5.9637696E-01
   7152.00  5.9430332E-01
   7152.33  5.9233808E-01
   7152.67  5.9048052E-01
   7153.00  5.8872901E-01
   7153.33  5.8708127E-01
   7153.67  5.8549918E-01
   7154.00  5.8394881E-01
   7154.33  5.8237393E-01
   7154.67  5.8070903E-01
   7155.00  5.7888484E-01
   7155.33  5.7677967E-01
   7155.67  5.7432992E-01
   7156.00  5.7145786E-01
   7156.33  5.6802509E-01
   7156.67  5.6404346E-01
   7157.00  5.5949630E-01
   7157.33  5.5433109E-01
   7157.67  5.4867040E-01
   7158.00  5.4258525E-01
   7158.33  5.3613617E-01
   7158.67  5.2947245E-01
   7159.00  5.2268704E-01
   7159.33  5.1588467E-01
   7159.67  5.0914850E-01
   7160.00  5.0251585E-01
   7160.33  4.9602131E-01
   7160.67  4.8965714E-01
   7161.00  4.8342616E-01
   7161.33  4.7734662E-01
   7161.67  4.7140825E-01
   7162.00  4.6562621E-01
   7162.33  4.6005094E-01
   7162.67  4.5469350E-01
   7163.00  4.4958484E-01
   7163.33  4.4479238E-01
   7163.67  4.4030363E-01
   7164.00  4.3612660E-01
   7164.33  4.3229281E-01
   7164.67  4.2874147E-01
   7165.00  4.2544187E-01
   7165.33  4.2237218E-01
   7165.67  4.1944877E-01
   7166.00  4.1661464E-01
   7166.33  4.1380128E-01
   7166.67  4.1093875E-01
   7167.00  4.0797957E-01
   7167.33  4.0487421E-01
   7167.67  4.0163739E-01
   7168.00  3.9829589E-01
   7168.33  3.9490609E-01
   7168.67  3.9155972E-01
   7169.00  3.8834088E-01
   7169.33  3.8537422E-01
   7169.67  3.8271504E-01
   7170.00  3.8041655E-01
   7170.33  3.7856354E-01
   7170.67  3.7711206E-01
   7171.00  3.7604355E-01
   7171.33  3.7535097E-01
   7171.67  3.7491096E-01
   7172.00  3.7462551E-01
