    FDMNES
    energy     <xanes>
   7097.00  4.7080280E-03
   7097.33  4.8061512E-03
   7097.67  4.9081600E-03
   7098.00  5.0142884E-03
   7098.33  5.1253879E-03
   7098.67  5.2412368E-03
   7099.00  5.3621467E-03
   7099.33  5.4892021E-03
   7099.67  5.6221684E-03
   7100.00  5.7614722E-03
   7100.33  5.9085299E-03
   7100.67  6.0631063E-03
   7101.00  6.2258040E-03
   7101.33  6.3985309E-03
   7101.67  6.5810803E-03
   7102.00  6.7743376E-03
   7102.33  6.9809722E-03
   7102.67  7.2008735E-03
   7103.00  7.4354064E-03
   7103.33  7.6884891E-03
   7103.67  7.9602663E-03
   7104.00  8.2529725E-03
   7104.33  8.5727250E-03
   7104.67  8.9203162E-03
   7105.00  9.2996991E-03
   7105.33  9.7212327E-03
   7105.67  1.0187411E-02
   7106.00  1.0705979E-02
   7106.33  1.1296525E-02
   7106.67  1.1966442E-02
   7107.00  1.2733199E-02
   7107.33  1.3640081E-02
   7107.67  1.4711025E-02
   7108.00  1.5994325E-02
   7108.33  1.7610750E-02
   7108.67  1.9656570E-02
   7109.00  2.2314930E-02
   7109.33  2.6075177E-02
   7109.67  3.1511292E-02
   7110.00  3.9758627E-02
   7110.33  5.4093491E-02
   7110.67  7.7665668E-02
   7111.00  1.0902628E-01
   7111.33  1.3155160E-01
   7111.67  1.3985136E-01
   7112.00  1.4234735E-01
   7112.33  1.4775647E-01
   7112.67  1.5729011E-01
   7113.00  1.6427755E-01
   7113.33  1.5664677E-01
   7113.67  1.3882320E-01
   7114.00  1.2017434E-01
   7114.33  1.0746097E-01
   7114.67  1.0062327E-01
   7115.00  9.8679257E-02
   7115.33  1.0093864E-01
   7115.67  1.0610927E-01
   7116.00  1.1370765E-01
   7116.33  1.2358106E-01
   7116.67  1.3516673E-01
   7117.00  1.4824199E-01
   7117.33  1.6274081E-01
   7117.67  1.7831268E-01
   7118.00  1.9481287E-01
   7118.33  2.1218397E-01
   7118.67  2.3017878E-01
   7119.00  2.4867115E-01
   7119.33  2.6758500E-01
   7119.67  2.8679127E-01
   7120.00  3.0623353E-01
   7120.33  3.2583900E-01
   7120.67  3.4540520E-01
   7121.00  3.6463255E-01
   7121.33  3.8287860E-01
   7121.67  3.9959637E-01
   7122.00  4.1424892E-01
   7122.33  4.2611166E-01
   7122.67  4.3544848E-01
   7123.00  4.4256441E-01
   7123.33  4.4800893E-01
   7123.67  4.5300043E-01
   7124.00  4.5851483E-01
   7124.33  4.6578581E-01
   7124.67  4.7539030E-01
   7125.00  4.8768485E-01
   7125.33  5.0302676E-01
   7125.67  5.2072169E-01
   7126.00  5.4022773E-01
   7126.33  5.6081211E-01
   7126.67  5.8134366E-01
   7127.00  6.0087410E-01
   7127.33  6.1800662E-01
   7127.67  6.3196545E-01
   7128.00  6.4202345E-01
   7128.33  6.4707690E-01
   7128.67  6.4754662E-01
   7129.00  6.4367754E-01
   7129.33  6.3565446E-01
   7129.67  6.2482037E-01
   7130.00  6.1197526E-01
   7130.33  5.9782165E-01
   7130.67  5.8319811E-01
   7131.00  5.6857554E-01
   7131.33  5.5445024E-01
   7131.67  5.4113458E-01
   7132.00  5.2890524E-01
   7132.33  5.1820782E-01
   7132.67  5.0907828E-01
   7133.00  5.0162052E-01
   7133.33  4.9606950E-01
   7133.67  4.9213667E-01
   7134.00  4.8969347E-01
   7134.33  4.8870717E-01
   7134.67  4.8880393E-01
   7135.00  4.8980818E-01
   7135.33  4.9162875E-01
   7135.67  4.9402560E-01
   7136.00  4.9689803E-01
   7136.33  5.0020604E-01
   7136.67  5.0383830E-01
   7137.00  5.0775607E-01
   7137.33  5.1195747E-01
   7137.67  5.1638361E-01
   7138.00  5.2101077E-01
   7138.33  5.2582629E-01
   7138.67  5.3076270E-01
   7139.00  5.3576456E-01
   7139.33  5.4074123E-01
   7139.67  5.4557891E-01
   7140.00  5.5015557E-01
   7140.33  5.5426014E-01
   7140.67  5.5778600E-01
   7141.00  5.6061479E-01
   7141.33  5.6255469E-01
   7141.67  5.6367147E-01
   7142.00  5.6397743E-01
   7142.33  5.6342796E-01
   7142.67  5.6220061E-01
   7143.00  5.6038163E-01
   7143.33  5.5801558E-01
   7143.67  5.5526386E-01
   7144.00  5.5220385E-01
   7144.33  5.4888369E-01
   7144.67  5.4540176E-01
   7145.00  5.4181223E-01
   7145.33  5.3815919E-01
   7145.67  5.3449161E-01
   7146.00  5.3083972E-01
   7146.33  5.2723789E-01
   7146.67  5.2370301E-01
   7147.00  5.2025004E-01
   7147.33  5.1690432E-01
   7147.67  5.1366477E-01
   7148.00  5.1053938E-01
   7148.33  5.0755711E-01
   7148.67  5.0472604E-01
   7149.00  5.0207653E-01
   7149.33  4.9968396E-01
   7149.67  4.9757191E-01
   7150.00  4.9577725E-01
   7150.33  4.9437627E-01
   7150.67  4.9335351E-01
   7151.00  4.9272749E-01
   7151.33  4.9255828E-01
   7151.67  4.9278813E-01
   7152.00  4.9339786E-01
   7152.33  4.9439488E-01
   7152.67  4.9568985E-01
   7153.00  4.9723785E-01
   7153.33  4.9900954E-01
   7153.67  5.0092780E-01
   7154.00  5.0295165E-01
   7154.33  5.0504748E-01
   7154.67  5.0717331E-01
   7155.00  5.0930654E-01
   7155.33  5.1142713E-01
   7155.67  5.1352503E-01
   7156.00  5.1559459E-01
   7156.33  5.1762883E-01
   7156.67  5.1963219E-01
   7157.00  5.2160725E-01
   7157.33  5.2355487E-01
   7157.67  5.2548238E-01
   7158.00  5.2739401E-01
   7158.33  5.2929261E-01
   7158.67  5.3117935E-01
   7159.00  5.3305082E-01
   7159.33  5.3489523E-01
   7159.67  5.3670572E-01
   7160.00  5.3847370E-01
   7160.33  5.4017803E-01
   7160.67  5.4180759E-01
   7161.00  5.4334457E-01
   7161.33  5.4475220E-01
   7161.67  5.4602112E-01
   7162.00  5.4712994E-01
   7162.33  5.4803037E-01
   7162.67  5.4872177E-01
   7163.00  5.4918558E-01
   7163.33  5.4937261E-01
   7163.67  5.4929930E-01
   7164.00  5.4895661E-01
   7164.33  5.4830385E-01
   7164.67  5.4737604E-01
   7165.00  5.4617997E-01
   7165.33  5.4469704E-01
   7165.67  5.4297776E-01
   7166.00  5.4104205E-01
   7166.33  5.3889272E-01
   7166.67  5.3658316E-01
   7167.00  5.3414076E-01
   7167.33  5.3158593E-01
   7167.67  5.2896434E-01
   7168.00  5.2630409E-01
   7168.33  5.2363487E-01
   7168.67  5.2098513E-01
   7169.00  5.1837606E-01
   7169.33  5.1583719E-01
   7169.67  5.1337868E-01
   7170.00  5.1101370E-01
   7170.33  5.0877004E-01
   7170.67  5.0664975E-01
   7171.00  5.0466969E-01
   7171.33  5.0288184E-01
   7171.67  5.0132179E-01
   7172.00  5.0006527E-01
