    FDMNES
    energy     <xanes>
   7097.00  5.1755792E-03
   7097.33  5.3050419E-03
   7097.67  5.4407848E-03
   7098.00  5.5832642E-03
   7098.33  5.7339872E-03
   7098.67  5.8927016E-03
   7099.00  6.0600428E-03
   7099.33  6.2380240E-03
   7099.67  6.4264057E-03
   7100.00  6.6260994E-03
   7100.33  6.8398755E-03
   7100.67  7.0675534E-03
   7101.00  7.3104880E-03
   7101.33  7.5726284E-03
   7101.67  7.8539555E-03
   7102.00  8.1565694E-03
   7102.33  8.4863456E-03
   7102.67  8.8436555E-03
   7103.00  9.2319241E-03
   7103.33  9.6603655E-03
   7103.67  1.0130276E-02
   7104.00  1.0647604E-02
   7104.33  1.1227784E-02
   7104.67  1.1874370E-02
   7105.00  1.2598551E-02
   7105.33  1.3428472E-02
   7105.67  1.4373585E-02
   7106.00  1.5457244E-02
   7106.33  1.6736915E-02
   7106.67  1.8239286E-02
   7107.00  2.0020524E-02
   7107.33  2.2217888E-02
   7107.67  2.4917836E-02
   7108.00  2.8285882E-02
   7108.33  3.2735144E-02
   7108.67  3.8621525E-02
   7109.00  4.6610785E-02
   7109.33  5.8491668E-02
   7109.67  7.6445721E-02
   7110.00  1.0478661E-01
   7110.33  1.5613030E-01
   7110.67  2.4390893E-01
   7111.00  3.6717976E-01
   7111.33  4.5637355E-01
   7111.67  4.5066171E-01
   7112.00  3.7959478E-01
   7112.33  3.0402355E-01
   7112.67  2.4737103E-01
   7113.00  2.1084391E-01
   7113.33  1.9323159E-01
   7113.67  1.8678856E-01
   7114.00  1.8484563E-01
   7114.33  1.8358852E-01
   7114.67  1.8623755E-01
   7115.00  1.9460208E-01
   7115.33  2.0349122E-01
   7115.67  2.0484498E-01
   7116.00  1.9765028E-01
   7116.33  1.8674405E-01
   7116.67  1.7731845E-01
   7117.00  1.7098555E-01
   7117.33  1.6828962E-01
   7117.67  1.6850130E-01
   7118.00  1.7156676E-01
   7118.33  1.7750896E-01
   7118.67  1.8424393E-01
   7119.00  1.8909002E-01
   7119.33  1.8917182E-01
   7119.67  1.8565733E-01
   7120.00  1.8103131E-01
   7120.33  1.7844588E-01
   7120.67  1.7942096E-01
   7121.00  1.8460569E-01
   7121.33  1.9476526E-01
   7121.67  2.0906482E-01
   7122.00  2.2694927E-01
   7122.33  2.4799749E-01
   7122.67  2.7098672E-01
   7123.00  2.9495977E-01
   7123.33  3.1824349E-01
   7123.67  3.3878883E-01
   7124.00  3.5486134E-01
   7124.33  3.6503544E-01
   7124.67  3.7110105E-01
   7125.00  3.7508298E-01
   7125.33  3.7958652E-01
   7125.67  3.8665395E-01
   7126.00  3.9760155E-01
   7126.33  4.1399307E-01
   7126.67  4.3529443E-01
   7127.00  4.6052667E-01
   7127.33  4.8739483E-01
   7127.67  5.1237090E-01
   7128.00  5.3299544E-01
   7128.33  5.4746501E-01
   7128.67  5.5691276E-01
   7129.00  5.6203406E-01
   7129.33  5.6279872E-01
   7129.67  5.6012369E-01
   7130.00  5.5506475E-01
   7130.33  5.4975798E-01
   7130.67  5.4653604E-01
   7131.00  5.4686546E-01
   7131.33  5.5241841E-01
   7131.67  5.6335394E-01
   7132.00  5.8007327E-01
   7132.33  6.0304236E-01
   7132.67  6.2974859E-01
   7133.00  6.5687504E-01
   7133.33  6.7904483E-01
   7133.67  6.9400477E-01
   7134.00  7.0226917E-01
   7134.33  7.0541771E-01
   7134.67  7.0554535E-01
   7135.00  7.0307586E-01
   7135.33  6.9778678E-01
   7135.67  6.9027036E-01
   7136.00  6.8111719E-01
   7136.33  6.7123629E-01
   7136.67  6.6172835E-01
   7137.00  6.5326124E-01
   7137.33  6.4639702E-01
   7137.67  6.4093286E-01
   7138.00  6.3663844E-01
   7138.33  6.3330911E-01
   7138.67  6.3064258E-01
   7139.00  6.2862498E-01
   7139.33  6.2751831E-01
   7139.67  6.2748874E-01
   7140.00  6.2875202E-01
   7140.33  6.3161968E-01
   7140.67  6.3585839E-01
   7141.00  6.4125593E-01
   7141.33  6.4748458E-01
   7141.67  6.5389524E-01
   7142.00  6.5995576E-01
   7142.33  6.6494317E-01
   7142.67  6.6847686E-01
   7143.00  6.7026754E-01
   7143.33  6.6993842E-01
   7143.67  6.6778408E-01
   7144.00  6.6397977E-01
   7144.33  6.5864538E-01
   7144.67  6.5227521E-01
   7145.00  6.4514200E-01
   7145.33  6.3747628E-01
   7145.67  6.2957197E-01
   7146.00  6.2156422E-01
   7146.33  6.1355861E-01
   7146.67  6.0563919E-01
   7147.00  5.9786881E-01
   7147.33  5.9033709E-01
   7147.67  5.8306668E-01
   7148.00  5.7608953E-01
   7148.33  5.6946995E-01
   7148.67  5.6318378E-01
   7149.00  5.5724060E-01
   7149.33  5.5169159E-01
   7149.67  5.4649682E-01
   7150.00  5.4165768E-01
   7150.33  5.3721788E-01
   7150.67  5.3313056E-01
   7151.00  5.2939302E-01
   7151.33  5.2604493E-01
   7151.67  5.2303985E-01
   7152.00  5.2037691E-01
   7152.33  5.1810159E-01
   7152.67  5.1617847E-01
   7153.00  5.1462013E-01
   7153.33  5.1349785E-01
   7153.67  5.1279170E-01
   7154.00  5.1252742E-01
   7154.33  5.1279330E-01
   7154.67  5.1355365E-01
   7155.00  5.1481714E-01
   7155.33  5.1663579E-01
   7155.67  5.1891301E-01
   7156.00  5.2159769E-01
   7156.33  5.2464698E-01
   7156.67  5.2791336E-01
   7157.00  5.3128812E-01
   7157.33  5.3462436E-01
   7157.67  5.3777157E-01
   7158.00  5.4059268E-01
   7158.33  5.4287099E-01
   7158.67  5.4452344E-01
   7159.00  5.4544518E-01
   7159.33  5.4544201E-01
   7159.67  5.4456337E-01
   7160.00  5.4279274E-01
   7160.33  5.4003472E-01
   7160.67  5.3644627E-01
   7161.00  5.3208980E-01
   7161.33  5.2697496E-01
   7161.67  5.2129461E-01
   7162.00  5.1514491E-01
   7162.33  5.0859508E-01
   7162.67  5.0180340E-01
   7163.00  4.9486369E-01
   7163.33  4.8786913E-01
   7163.67  4.8091275E-01
   7164.00  4.7405880E-01
   7164.33  4.6738819E-01
   7164.67  4.6092599E-01
   7165.00  4.5470085E-01
   7165.33  4.4876740E-01
   7165.67  4.4310425E-01
   7166.00  4.3771388E-01
   7166.33  4.3262787E-01
   7166.67  4.2780663E-01
   7167.00  4.2324287E-01
   7167.33  4.1895637E-01
   7167.67  4.1490465E-01
   7168.00  4.1107808E-01
   7168.33  4.0749129E-01
   7168.67  4.0410522E-01
   7169.00  4.0091069E-01
   7169.33  3.9792295E-01
   7169.67  3.9511561E-01
   7170.00  3.9248991E-01
   7170.33  3.9007605E-01
   7170.67  3.8786305E-01
   7171.00  3.8586688E-01
   7171.33  3.8414304E-01
   7171.67  3.8269391E-01
   7172.00  3.8154757E-01
