    FDMNES
    energy     <xanes>
   7097.00  4.8759206E-03
   7097.33  4.9911802E-03
   7097.67  5.1118282E-03
   7098.00  5.2382505E-03
   7098.33  5.3717316E-03
   7098.67  5.5120486E-03
   7099.00  5.6597393E-03
   7099.33  5.8165169E-03
   7099.67  5.9821702E-03
   7100.00  6.1574720E-03
   7100.33  6.3447785E-03
   7100.67  6.5439314E-03
   7101.00  6.7560822E-03
   7101.33  6.9845931E-03
   7101.67  7.2294486E-03
   7102.00  7.4924412E-03
   7102.33  7.7785862E-03
   7102.67  8.0882148E-03
   7103.00  8.4242671E-03
   7103.33  8.7946442E-03
   7103.67  9.2005016E-03
   7104.00  9.6469850E-03
   7104.33  1.0147422E-02
   7104.67  1.0704992E-02
   7105.00  1.1329470E-02
   7105.33  1.2045397E-02
   7105.67  1.2861286E-02
   7106.00  1.3797798E-02
   7106.33  1.4905696E-02
   7106.67  1.6209262E-02
   7107.00  1.7758970E-02
   7107.33  1.9678182E-02
   7107.67  2.2046673E-02
   7108.00  2.5016226E-02
   7108.33  2.8966670E-02
   7108.67  3.4233236E-02
   7109.00  4.1443041E-02
   7109.33  5.2291986E-02
   7109.67  6.8894439E-02
   7110.00  9.5443909E-02
   7110.33  1.4414182E-01
   7110.67  2.2659816E-01
   7111.00  3.3510469E-01
   7111.33  3.9846906E-01
   7111.67  3.8362044E-01
   7112.00  3.1663823E-01
   7112.33  2.4329847E-01
   7112.67  1.8621352E-01
   7113.00  1.4669729E-01
   7113.33  1.2317905E-01
   7113.67  1.1035691E-01
   7114.00  1.0615143E-01
   7114.33  1.1104951E-01
   7114.67  1.2448608E-01
   7115.00  1.4312427E-01
   7115.33  1.5142604E-01
   7115.67  1.4179847E-01
   7116.00  1.2407977E-01
   7116.33  1.0968006E-01
   7116.67  1.0051089E-01
   7117.00  9.5953824E-02
   7117.33  9.5828105E-02
   7117.67  9.9575546E-02
   7118.00  1.0750307E-01
   7118.33  1.2038970E-01
   7118.67  1.3697416E-01
   7119.00  1.5560518E-01
   7119.33  1.7346214E-01
   7119.67  1.8758505E-01
   7120.00  1.9623921E-01
   7120.33  1.9974569E-01
   7120.67  2.0156453E-01
   7121.00  2.0398053E-01
   7121.33  2.0941920E-01
   7121.67  2.1920541E-01
   7122.00  2.3427809E-01
   7122.33  2.5565569E-01
   7122.67  2.8184592E-01
   7123.00  3.1082156E-01
   7123.33  3.3799241E-01
   7123.67  3.5833151E-01
   7124.00  3.6984126E-01
   7124.33  3.7551126E-01
   7124.67  3.8285140E-01
   7125.00  3.9506646E-01
   7125.33  4.1135776E-01
   7125.67  4.2831261E-01
   7126.00  4.4452149E-01
   7126.33  4.5946116E-01
   7126.67  4.7258771E-01
   7127.00  4.8209841E-01
   7127.33  4.8565990E-01
   7127.67  4.8552549E-01
   7128.00  4.8497834E-01
   7128.33  4.8738340E-01
   7128.67  4.9322210E-01
   7129.00  5.0186106E-01
   7129.33  5.1247869E-01
   7129.67  5.2429210E-01
   7130.00  5.3720817E-01
   7130.33  5.5141082E-01
   7130.67  5.6683171E-01
   7131.00  5.8352946E-01
   7131.33  6.0153768E-01
   7131.67  6.2009581E-01
   7132.00  6.3812903E-01
   7132.33  6.5378772E-01
   7132.67  6.6624216E-01
   7133.00  6.7554385E-01
   7133.33  6.8253584E-01
   7133.67  6.8877335E-01
   7134.00  6.9489658E-01
   7134.33  7.0103543E-01
   7134.67  7.0692576E-01
   7135.00  7.1220446E-01
   7135.33  7.1626526E-01
   7135.67  7.1876203E-01
   7136.00  7.1926537E-01
   7136.33  7.1695044E-01
   7136.67  7.1171466E-01
   7137.00  7.0343099E-01
   7137.33  6.9204048E-01
   7137.67  6.7867132E-01
   7138.00  6.6428516E-01
   7138.33  6.5013709E-01
   7138.67  6.3731760E-01
   7139.00  6.2657736E-01
   7139.33  6.1883713E-01
   7139.67  6.1406681E-01
   7140.00  6.1234217E-01
   7140.33  6.1395661E-01
   7140.67  6.1831355E-01
   7141.00  6.2510709E-01
   7141.33  6.3408140E-01
   7141.67  6.4433611E-01
   7142.00  6.5519475E-01
   7142.33  6.6577836E-01
   7142.67  6.7532542E-01
   7143.00  6.8330168E-01
   7143.33  6.8908960E-01
   7143.67  6.9282948E-01
   7144.00  6.9460394E-01
   7144.33  6.9440617E-01
   7144.67  6.9271521E-01
   7145.00  6.8974990E-01
   7145.33  6.8560398E-01
   7145.67  6.8059400E-01
   7146.00  6.7485150E-01
   7146.33  6.6841574E-01
   7146.67  6.6143696E-01
   7147.00  6.5395622E-01
   7147.33  6.4595115E-01
   7147.67  6.3751698E-01
   7148.00  6.2869615E-01
   7148.33  6.1951606E-01
   7148.67  6.1010273E-01
   7149.00  6.0054044E-01
   7149.33  5.9092644E-01
   7149.67  5.8137027E-01
   7150.00  5.7195327E-01
   7150.33  5.6277602E-01
   7150.67  5.5385622E-01
   7151.00  5.4520992E-01
   7151.33  5.3687800E-01
   7151.67  5.2882208E-01
   7152.00  5.2103156E-01
   7152.33  5.1351426E-01
   7152.67  5.0620798E-01
   7153.00  4.9908154E-01
   7153.33  4.9211748E-01
   7153.67  4.8527095E-01
   7154.00  4.7853286E-01
   7154.33  4.7193176E-01
   7154.67  4.6549794E-01
   7155.00  4.5929734E-01
   7155.33  4.5347407E-01
   7155.67  4.4810390E-01
   7156.00  4.4328700E-01
   7156.33  4.3920053E-01
   7156.67  4.3581613E-01
   7157.00  4.3313114E-01
   7157.33  4.3115984E-01
   7157.67  4.2969826E-01
   7158.00  4.2860611E-01
   7158.33  4.2773002E-01
   7158.67  4.2688162E-01
   7159.00  4.2594900E-01
   7159.33  4.2482888E-01
   7159.67  4.2351444E-01
   7160.00  4.2202020E-01
   7160.33  4.2037195E-01
   7160.67  4.1863405E-01
   7161.00  4.1684446E-01
   7161.33  4.1503968E-01
   7161.67  4.1324848E-01
   7162.00  4.1148790E-01
   7162.33  4.0978450E-01
   7162.67  4.0815899E-01
   7163.00  4.0664214E-01
   7163.33  4.0529782E-01
   7163.67  4.0415830E-01
   7164.00  4.0326860E-01
   7164.33  4.0271445E-01
   7164.67  4.0249825E-01
   7165.00  4.0264325E-01
   7165.33  4.0320699E-01
   7165.67  4.0413604E-01
   7166.00  4.0541075E-01
   7166.33  4.0703128E-01
   7166.67  4.0890543E-01
   7167.00  4.1097623E-01
   7167.33  4.1318408E-01
   7167.67  4.1543160E-01
   7168.00  4.1764175E-01
   7168.33  4.1970551E-01
   7168.67  4.2154815E-01
   7169.00  4.2309644E-01
   7169.33  4.2423130E-01
   7169.67  4.2494774E-01
   7170.00  4.2522554E-01
   7170.33  4.2501947E-01
   7170.67  4.2443014E-01
   7171.00  4.2353045E-01
   7171.33  4.2242188E-01
   7171.67  4.2129800E-01
   7172.00  4.2033287E-01
