    FDMNES
    energy     <xanes>
   7097.00  5.3199532E-03
   7097.33  5.4464237E-03
   7097.67  5.5786912E-03
   7098.00  5.7171491E-03
   7098.33  5.8631401E-03
   7098.67  6.0163901E-03
   7099.00  6.1774336E-03
   7099.33  6.3480243E-03
   7099.67  6.5278795E-03
   7100.00  6.7177443E-03
   7100.33  6.9199666E-03
   7100.67  7.1342797E-03
   7101.00  7.3617534E-03
   7101.33  7.6056252E-03
   7101.67  7.8656989E-03
   7102.00  8.1435662E-03
   7102.33  8.4438509E-03
   7102.67  8.7665488E-03
   7103.00  9.1141305E-03
   7103.33  9.4934904E-03
   7103.67  9.9050913E-03
   7104.00  1.0352973E-02
   7104.33  1.0847985E-02
   7104.67  1.1391707E-02
   7105.00  1.1991200E-02
   7105.33  1.2664755E-02
   7105.67  1.3416745E-02
   7106.00  1.4260622E-02
   7106.33  1.5230214E-02
   7106.67  1.6337476E-02
   7107.00  1.7611296E-02
   7107.33  1.9122919E-02
   7107.67  2.0908093E-02
   7108.00  2.3040665E-02
   7108.33  2.5703291E-02
   7108.67  2.9026061E-02
   7109.00  3.3257948E-02
   7109.33  3.9046835E-02
   7109.67  4.7072781E-02
   7110.00  5.8662590E-02
   7110.33  7.7599042E-02
   7110.67  1.0807245E-01
   7111.00  1.5247567E-01
   7111.33  2.0261763E-01
   7111.67  2.5055502E-01
   7112.00  2.9550098E-01
   7112.33  3.2459379E-01
   7112.67  3.3645254E-01
   7113.00  3.4875908E-01
   7113.33  3.8484341E-01
   7113.67  4.3451426E-01
   7114.00  4.6940744E-01
   7114.33  4.5937441E-01
   7114.67  4.1825279E-01
   7115.00  3.6818286E-01
   7115.33  3.2825665E-01
   7115.67  3.0290702E-01
   7116.00  2.9185156E-01
   7116.33  2.9343451E-01
   7116.67  2.9909566E-01
   7117.00  2.9921172E-01
   7117.33  2.8462104E-01
   7117.67  2.6025261E-01
   7118.00  2.3233438E-01
   7118.33  2.0561039E-01
   7118.67  1.8269630E-01
   7119.00  1.6497938E-01
   7119.33  1.5310643E-01
   7119.67  1.4519465E-01
   7120.00  1.3978427E-01
   7120.33  1.3540601E-01
   7120.67  1.3108761E-01
   7121.00  1.2682555E-01
   7121.33  1.2322442E-01
   7121.67  1.2087276E-01
   7122.00  1.2021640E-01
   7122.33  1.2176541E-01
   7122.67  1.2526010E-01
   7123.00  1.3058552E-01
   7123.33  1.3788706E-01
   7123.67  1.4699071E-01
   7124.00  1.5800880E-01
   7124.33  1.7139864E-01
   7124.67  1.8716356E-01
   7125.00  2.0557702E-01
   7125.33  2.2728795E-01
   7125.67  2.5201366E-01
   7126.00  2.7953097E-01
   7126.33  3.0939027E-01
   7126.67  3.4007041E-01
   7127.00  3.6996021E-01
   7127.33  3.9649851E-01
   7127.67  4.1845154E-01
   7128.00  4.3562717E-01
   7128.33  4.4913828E-01
   7128.67  4.6213227E-01
   7129.00  4.7701648E-01
   7129.33  4.9631565E-01
   7129.67  5.2041071E-01
   7130.00  5.4918846E-01
   7130.33  5.8229476E-01
   7130.67  6.1797422E-01
   7131.00  6.5499290E-01
   7131.33  6.9171994E-01
   7131.67  7.2634989E-01
   7132.00  7.5733554E-01
   7132.33  7.8283226E-01
   7132.67  8.0320790E-01
   7133.00  8.1905086E-01
   7133.33  8.3121338E-01
   7133.67  8.4144988E-01
   7134.00  8.5059222E-01
   7134.33  8.5881348E-01
   7134.67  8.6557606E-01
   7135.00  8.6960349E-01
   7135.33  8.6825121E-01
   7135.67  8.6013869E-01
   7136.00  8.4430666E-01
   7136.33  8.2018028E-01
   7136.67  7.9059318E-01
   7137.00  7.5796212E-01
   7137.33  7.2518965E-01
   7137.67  6.9467689E-01
   7138.00  6.6779454E-01
   7138.33  6.4589281E-01
   7138.67  6.2850724E-01
   7139.00  6.1533585E-01
   7139.33  6.0628911E-01
   7139.67  6.0032772E-01
   7140.00  5.9700168E-01
   7140.33  5.9614417E-01
   7140.67  5.9711702E-01
   7141.00  5.9964258E-01
   7141.33  6.0354882E-01
   7141.67  6.0831546E-01
   7142.00  6.1357415E-01
   7142.33  6.1883123E-01
   7142.67  6.2355256E-01
   7143.00  6.2728942E-01
   7143.33  6.2941484E-01
   7143.67  6.2979928E-01
   7144.00  6.2831691E-01
   7144.33  6.2475366E-01
   7144.67  6.1951005E-01
   7145.00  6.1281768E-01
   7145.33  6.0483070E-01
   7145.67  5.9595975E-01
   7146.00  5.8641325E-01
   7146.33  5.7637371E-01
   7146.67  5.6612218E-01
   7147.00  5.5583716E-01
   7147.33  5.4572228E-01
   7147.67  5.3591735E-01
   7148.00  5.2653859E-01
   7148.33  5.1776639E-01
   7148.67  5.0962464E-01
   7149.00  5.0217634E-01
   7149.33  4.9557142E-01
   7149.67  4.8975541E-01
   7150.00  4.8475002E-01
   7150.33  4.8067118E-01
   7150.67  4.7741810E-01
   7151.00  4.7498684E-01
   7151.33  4.7347085E-01
   7151.67  4.7275633E-01
   7152.00  4.7282821E-01
   7152.33  4.7375951E-01
   7152.67  4.7542460E-01
   7153.00  4.7778616E-01
   7153.33  4.8086093E-01
   7153.67  4.8448606E-01
   7154.00  4.8857477E-01
   7154.33  4.9305762E-01
   7154.67  4.9777160E-01
   7155.00  5.0261595E-01
   7155.33  5.0748546E-01
   7155.67  5.1228460E-01
   7156.00  5.1694804E-01
   7156.33  5.2139255E-01
   7156.67  5.2560019E-01
   7157.00  5.2954533E-01
   7157.33  5.3317195E-01
   7157.67  5.3650119E-01
   7158.00  5.3952345E-01
   7158.33  5.4218953E-01
   7158.67  5.4452944E-01
   7159.00  5.4653475E-01
   7159.33  5.4815361E-01
   7159.67  5.4942231E-01
   7160.00  5.5033817E-01
   7160.33  5.5085944E-01
   7160.67  5.5103893E-01
   7161.00  5.5089095E-01
   7161.33  5.5040303E-01
   7161.67  5.4964693E-01
   7162.00  5.4865826E-01
   7162.33  5.4746123E-01
   7162.67  5.4612906E-01
   7163.00  5.4469887E-01
   7163.33  5.4319339E-01
   7163.67  5.4165351E-01
   7164.00  5.4010716E-01
   7164.33  5.3857960E-01
   7164.67  5.3707991E-01
   7165.00  5.3560956E-01
   7165.33  5.3416556E-01
   7165.67  5.3273237E-01
   7166.00  5.3129585E-01
   7166.33  5.2983492E-01
   7166.67  5.2833245E-01
   7167.00  5.2677121E-01
   7167.33  5.2512259E-01
   7167.67  5.2338107E-01
   7168.00  5.2154114E-01
   7168.33  5.1958860E-01
   7168.67  5.1753123E-01
   7169.00  5.1536503E-01
   7169.33  5.1307430E-01
   7169.67  5.1067519E-01
   7170.00  5.0817426E-01
   7170.33  5.0557579E-01
   7170.67  5.0291812E-01
   7171.00  5.0024079E-01
   7171.33  4.9763231E-01
   7171.67  4.9523413E-01
   7172.00  4.9324154E-01
