    FDMNES
    energy     <xanes>
   7097.00  4.4767553E-03
   7097.33  4.5824524E-03
   7097.67  4.6932119E-03
   7098.00  4.8094103E-03
   7098.33  4.9322785E-03
   7098.67  5.0616277E-03
   7099.00  5.1979885E-03
   7099.33  5.3430214E-03
   7099.67  5.4965572E-03
   7100.00  5.6593675E-03
   7100.33  5.8337648E-03
   7100.67  6.0196450E-03
   7101.00  6.2181722E-03
   7101.33  6.4326904E-03
   7101.67  6.6632600E-03
   7102.00  6.9117148E-03
   7102.33  7.1831139E-03
   7102.67  7.4779035E-03
   7103.00  7.7991285E-03
   7103.33  8.1548735E-03
   7103.67  8.5464892E-03
   7104.00  8.9793657E-03
   7104.33  9.4673312E-03
   7104.67  1.0013941E-02
   7105.00  1.0629536E-02
   7105.33  1.1339905E-02
   7105.67  1.2154386E-02
   7106.00  1.3095009E-02
   7106.33  1.4215667E-02
   7106.67  1.5542713E-02
   7107.00  1.7130202E-02
   7107.33  1.9109880E-02
   7107.67  2.1567541E-02
   7108.00  2.4665465E-02
   7108.33  2.8808589E-02
   7108.67  3.4352372E-02
   7109.00  4.1958819E-02
   7109.33  5.3407372E-02
   7109.67  7.0883237E-02
   7110.00  9.8709021E-02
   7110.33  1.4969527E-01
   7110.67  2.3913461E-01
   7111.00  3.7165482E-01
   7111.33  4.6160294E-01
   7111.67  4.2000444E-01
   7112.00  3.1950795E-01
   7112.33  2.4972228E-01
   7112.67  2.0497192E-01
   7113.00  1.6914910E-01
   7113.33  1.3709045E-01
   7113.67  1.0948905E-01
   7114.00  8.8990497E-02
   7114.33  7.7072935E-02
   7114.67  7.1199490E-02
   7115.00  6.7690724E-02
   7115.33  6.1667160E-02
   7115.67  5.5675450E-02
   7116.00  5.2316851E-02
   7116.33  5.0734802E-02
   7116.67  4.8504222E-02
   7117.00  4.5656215E-02
   7117.33  4.3078363E-02
   7117.67  4.1259917E-02
   7118.00  4.0517714E-02
   7118.33  4.1045352E-02
   7118.67  4.2598752E-02
   7119.00  4.5142864E-02
   7119.33  4.8933975E-02
   7119.67  5.4143012E-02
   7120.00  6.1117444E-02
   7120.33  7.0441105E-02
   7120.67  8.2170437E-02
   7121.00  9.6489515E-02
   7121.33  1.1150023E-01
   7121.67  1.2094041E-01
   7122.00  1.1984647E-01
   7122.33  1.1038060E-01
   7122.67  1.0184455E-01
   7123.00  9.8042650E-02
   7123.33  1.0049308E-01
   7123.67  1.0809169E-01
   7124.00  1.2060219E-01
   7124.33  1.3884771E-01
   7124.67  1.6282974E-01
   7125.00  1.9325278E-01
   7125.33  2.3126231E-01
   7125.67  2.7415580E-01
   7126.00  3.1702749E-01
   7126.33  3.5056499E-01
   7126.67  3.7207953E-01
   7127.00  3.8390769E-01
   7127.33  3.8673443E-01
   7127.67  3.8155668E-01
   7128.00  3.7203446E-01
   7128.33  3.6560636E-01
   7128.67  3.6644390E-01
   7129.00  3.7567466E-01
   7129.33  3.9399016E-01
   7129.67  4.1949949E-01
   7130.00  4.5164467E-01
   7130.33  4.9115306E-01
   7130.67  5.3758569E-01
   7131.00  5.9146516E-01
   7131.33  6.5467730E-01
   7131.67  7.2665133E-01
   7132.00  8.0451967E-01
   7132.33  8.7168291E-01
   7132.67  9.0416667E-01
   7133.00  8.9907803E-01
   7133.33  8.8269594E-01
   7133.67  8.7938592E-01
   7134.00  8.9504644E-01
   7134.33  9.3368781E-01
   7134.67  9.9479654E-01
   7135.00  1.0800929E+00
   7135.33  1.1861815E+00
   7135.67  1.2822277E+00
   7136.00  1.3240673E+00
   7136.33  1.2698560E+00
   7136.67  1.1591784E+00
   7137.00  1.0358747E+00
   7137.33  9.3113480E-01
   7137.67  8.4861602E-01
   7138.00  7.8547638E-01
   7138.33  7.3880058E-01
   7138.67  7.0284320E-01
   7139.00  6.7520849E-01
   7139.33  6.5479791E-01
   7139.67  6.3957971E-01
   7140.00  6.2885769E-01
   7140.33  6.2257954E-01
   7140.67  6.1988566E-01
   7141.00  6.2054743E-01
   7141.33  6.2474919E-01
   7141.67  6.3191619E-01
   7142.00  6.4187683E-01
   7142.33  6.5467898E-01
   7142.67  6.6961307E-01
   7143.00  6.8619776E-01
   7143.33  7.0377251E-01
   7143.67  7.2120453E-01
   7144.00  7.3742649E-01
   7144.33  7.5075535E-01
   7144.67  7.6021894E-01
   7145.00  7.6495367E-01
   7145.33  7.6379864E-01
   7145.67  7.5755064E-01
   7146.00  7.4681867E-01
   7146.33  7.3227843E-01
   7146.67  7.1561768E-01
   7147.00  6.9786796E-01
   7147.33  6.8001503E-01
   7147.67  6.6279518E-01
   7148.00  6.4659647E-01
   7148.33  6.3177919E-01
   7148.67  6.1820273E-01
   7149.00  6.0577505E-01
   7149.33  5.9443796E-01
   7149.67  5.8384957E-01
   7150.00  5.7381023E-01
   7150.33  5.6412538E-01
   7150.67  5.5453145E-01
   7151.00  5.4485244E-01
   7151.33  5.3487334E-01
   7151.67  5.2447329E-01
   7152.00  5.1354465E-01
   7152.33  5.0191345E-01
   7152.67  4.8959894E-01
   7153.00  4.7658769E-01
   7153.33  4.6280780E-01
   7153.67  4.4838203E-01
   7154.00  4.3337444E-01
   7154.33  4.1784346E-01
   7154.67  4.0201645E-01
   7155.00  3.8608661E-01
   7155.33  3.7032099E-01
   7155.67  3.5495028E-01
   7156.00  3.4018846E-01
   7156.33  3.2637650E-01
   7156.67  3.1361340E-01
   7157.00  3.0204282E-01
   7157.33  2.9194842E-01
   7157.67  2.8322661E-01
   7158.00  2.7588419E-01
   7158.33  2.7005301E-01
   7158.67  2.6549349E-01
   7159.00  2.6212496E-01
   7159.33  2.5997563E-01
   7159.67  2.5879698E-01
   7160.00  2.5849234E-01
   7160.33  2.5904824E-01
   7160.67  2.6026595E-01
   7161.00  2.6206301E-01
   7161.33  2.6441386E-01
   7161.67  2.6718205E-01
   7162.00  2.7031379E-01
   7162.33  2.7379708E-01
   7162.67  2.7755721E-01
   7163.00  2.8157649E-01
   7163.33  2.8587334E-01
   7163.67  2.9040225E-01
   7164.00  2.9513819E-01
   7164.33  3.0004310E-01
   7164.67  3.0500138E-01
   7165.00  3.0989754E-01
   7165.33  3.1454607E-01
   7165.67  3.1881705E-01
   7166.00  3.2259929E-01
   7166.33  3.2574865E-01
   7166.67  3.2833675E-01
   7167.00  3.3042107E-01
   7167.33  3.3206801E-01
   7167.67  3.3346889E-01
   7168.00  3.3474967E-01
   7168.33  3.3604879E-01
   7168.67  3.3748019E-01
   7169.00  3.3912267E-01
   7169.33  3.4107704E-01
   7169.67  3.4334723E-01
   7170.00  3.4594414E-01
   7170.33  3.4889294E-01
   7170.67  3.5210840E-01
   7171.00  3.5551823E-01
   7171.33  3.5898533E-01
   7171.67  3.6225250E-01
   7172.00  3.6500050E-01
