    FDMNES
    energy     <xanes>
   7097.00  4.4937581E-03
   7097.33  4.5797588E-03
   7097.67  4.6688343E-03
   7098.00  4.7611547E-03
   7098.33  4.8573693E-03
   7098.67  4.9572839E-03
   7099.00  5.0611228E-03
   7099.33  5.1697006E-03
   7099.67  5.2828112E-03
   7100.00  5.4007593E-03
   7100.33  5.5245942E-03
   7100.67  5.6541075E-03
   7101.00  5.7897279E-03
   7101.33  5.9328535E-03
   7101.67  6.0832963E-03
   7102.00  6.2416872E-03
   7102.33  6.4099702E-03
   7102.67  6.5880320E-03
   7103.00  6.7768544E-03
   7103.33  6.9792933E-03
   7103.67  7.1954416E-03
   7104.00  7.4269381E-03
   7104.33  7.6782916E-03
   7104.67  7.9501360E-03
   7105.00  8.2454615E-03
   7105.33  8.5720968E-03
   7105.67  8.9321498E-03
   7106.00  9.3317463E-03
   7106.33  9.7863264E-03
   7106.67  1.0302430E-02
   7107.00  1.0894710E-02
   7107.33  1.1599442E-02
   7107.67  1.2438907E-02
   7108.00  1.3456667E-02
   7108.33  1.4762285E-02
   7108.67  1.6450834E-02
   7109.00  1.8701526E-02
   7109.33  2.1999560E-02
   7109.67  2.6947559E-02
   7110.00  3.4744108E-02
   7110.33  4.8916731E-02
   7110.67  7.3194729E-02
   7111.00  1.0649728E-01
   7111.33  1.2374212E-01
   7111.67  1.1069128E-01
   7112.00  8.7247182E-02
   7112.33  7.1429820E-02
   7112.67  6.1920327E-02
   7113.00  5.5603126E-02
   7113.33  5.0200145E-02
   7113.67  4.5413724E-02
   7114.00  4.2061211E-02
   7114.33  4.0349364E-02
   7114.67  3.9657851E-02
   7115.00  3.9714919E-02
   7115.33  4.0414193E-02
   7115.67  4.1597110E-02
   7116.00  4.3234579E-02
   7116.33  4.5384686E-02
   7116.67  4.8023708E-02
   7117.00  5.1210325E-02
   7117.33  5.5136969E-02
   7117.67  5.9880373E-02
   7118.00  6.5620512E-02
   7118.33  7.2785101E-02
   7118.67  8.1553925E-02
   7119.00  9.2268581E-02
   7119.33  1.0568434E-01
   7119.67  1.2204621E-01
   7120.00  1.4194966E-01
   7120.33  1.6684341E-01
   7120.67  1.9729071E-01
   7121.00  2.3444277E-01
   7121.33  2.8085297E-01
   7121.67  3.3695144E-01
   7122.00  4.0351450E-01
   7122.33  4.8128722E-01
   7122.67  5.6570513E-01
   7123.00  6.5036011E-01
   7123.33  7.2090319E-01
   7123.67  7.6258583E-01
   7124.00  7.6549774E-01
   7124.33  7.2946673E-01
   7124.67  6.7850078E-01
   7125.00  6.3064892E-01
   7125.33  6.0040455E-01
   7125.67  5.8942646E-01
   7126.00  5.9666251E-01
   7126.33  6.2042959E-01
   7126.67  6.5334666E-01
   7127.00  6.8899293E-01
   7127.33  7.1913384E-01
   7127.67  7.3983712E-01
   7128.00  7.5110063E-01
   7128.33  7.5552409E-01
   7128.67  7.5812206E-01
   7129.00  7.6172268E-01
   7129.33  7.6852947E-01
   7129.67  7.7882139E-01
   7130.00  7.9280627E-01
   7130.33  8.1162086E-01
   7130.67  8.3468409E-01
   7131.00  8.5866429E-01
   7131.33  8.7437469E-01
   7131.67  8.7561385E-01
   7132.00  8.6101895E-01
   7132.33  8.3216380E-01
   7132.67  7.9575832E-01
   7133.00  7.5587833E-01
   7133.33  7.1602655E-01
   7133.67  6.7837752E-01
   7134.00  6.4402174E-01
   7134.33  6.1416373E-01
   7134.67  5.8861983E-01
   7135.00  5.6743630E-01
   7135.33  5.5097530E-01
   7135.67  5.3837871E-01
   7136.00  5.2928090E-01
   7136.33  5.2359836E-01
   7136.67  5.2050425E-01
   7137.00  5.1965363E-01
   7137.33  5.2090948E-01
   7137.67  5.2369647E-01
   7138.00  5.2773933E-01
   7138.33  5.3283375E-01
   7138.67  5.3852136E-01
   7139.00  5.4448130E-01
   7139.33  5.5028181E-01
   7139.67  5.5548570E-01
   7140.00  5.5968547E-01
   7140.33  5.6224612E-01
   7140.67  5.6298623E-01
   7141.00  5.6172519E-01
   7141.33  5.5819649E-01
   7141.67  5.5282840E-01
   7142.00  5.4588903E-01
   7142.33  5.3762749E-01
   7142.67  5.2861578E-01
   7143.00  5.1919776E-01
   7143.33  5.0970333E-01
   7143.67  5.0039531E-01
   7144.00  4.9142514E-01
   7144.33  4.8295633E-01
   7144.67  4.7498151E-01
   7145.00  4.6750672E-01
   7145.33  4.6056968E-01
   7145.67  4.5406884E-01
   7146.00  4.4795978E-01
   7146.33  4.4222819E-01
   7146.67  4.3677573E-01
   7147.00  4.3155624E-01
   7147.33  4.2654215E-01
   7147.67  4.2166415E-01
   7148.00  4.1688591E-01
   7148.33  4.1217748E-01
   7148.67  4.0749851E-01
   7149.00  4.0282486E-01
   7149.33  3.9812946E-01
   7149.67  3.9339320E-01
   7150.00  3.8859898E-01
   7150.33  3.8371675E-01
   7150.67  3.7873474E-01
   7151.00  3.7363282E-01
   7151.33  3.6836670E-01
   7151.67  3.6292770E-01
   7152.00  3.5729605E-01
   7152.33  3.5143329E-01
   7152.67  3.4537178E-01
   7153.00  3.3913864E-01
   7153.33  3.3278008E-01
   7153.67  3.2640092E-01
   7154.00  3.2009870E-01
   7154.33  3.1402689E-01
   7154.67  3.0828913E-01
   7155.00  3.0298454E-01
   7155.33  2.9827230E-01
   7155.67  2.9415136E-01
   7156.00  2.9065221E-01
   7156.33  2.8785841E-01
   7156.67  2.8566723E-01
   7157.00  2.8403895E-01
   7157.33  2.8297477E-01
   7157.67  2.8234297E-01
   7158.00  2.8208459E-01
   7158.33  2.8217696E-01
   7158.67  2.8253356E-01
   7159.00  2.8312835E-01
   7159.33  2.8397909E-01
   7159.67  2.8506914E-01
   7160.00  2.8642596E-01
   7160.33  2.8813869E-01
   7160.67  2.9023252E-01
   7161.00  2.9277123E-01
   7161.33  2.9589876E-01
   7161.67  2.9962666E-01
   7162.00  3.0401560E-01
   7162.33  3.0921455E-01
   7162.67  3.1517413E-01
   7163.00  3.2191290E-01
   7163.33  3.2953107E-01
   7163.67  3.3791253E-01
   7164.00  3.4702528E-01
   7164.33  3.5689897E-01
   7164.67  3.6737289E-01
   7165.00  3.7836359E-01
   7165.33  3.8981460E-01
   7165.67  4.0155198E-01
   7166.00  4.1345420E-01
   7166.33  4.2539093E-01
   7166.67  4.3723502E-01
   7167.00  4.4888591E-01
   7167.33  4.6019841E-01
   7167.67  4.7111600E-01
   7168.00  4.8157034E-01
   7168.33  4.9143224E-01
   7168.67  5.0072068E-01
   7169.00  5.0940721E-01
   7169.33  5.1739361E-01
   7169.67  5.2474859E-01
   7170.00  5.3147115E-01
   7170.33  5.3748726E-01
   7170.67  5.4288158E-01
   7171.00  5.4765623E-01
   7171.33  5.5172452E-01
   7171.67  5.5513132E-01
   7172.00  5.5782596E-01
