    FDMNES
    energy     <xanes>
   7097.00  4.5683607E-03
   7097.33  4.6625796E-03
   7097.67  4.7604790E-03
   7098.00  4.8622791E-03
   7098.33  4.9687842E-03
   7098.67  5.0797828E-03
   7099.00  5.1955685E-03
   7099.33  5.3171656E-03
   7099.67  5.4443507E-03
   7100.00  5.5775264E-03
   7100.33  5.7180308E-03
   7100.67  5.8656411E-03
   7101.00  6.0209271E-03
   7101.33  6.1856930E-03
   7101.67  6.3597450E-03
   7102.00  6.5439224E-03
   7102.33  6.7407539E-03
   7102.67  6.9501405E-03
   7103.00  7.1733799E-03
   7103.33  7.4141925E-03
   7103.67  7.6727275E-03
   7104.00  7.9511160E-03
   7104.33  8.2551811E-03
   7104.67  8.5856965E-03
   7105.00  8.9464383E-03
   7105.33  9.3472840E-03
   7105.67  9.7906296E-03
   7106.00  1.0283863E-02
   7106.33  1.0845634E-02
   7106.67  1.1482936E-02
   7107.00  1.2212293E-02
   7107.33  1.3074544E-02
   7107.67  1.4091815E-02
   7108.00  1.5308807E-02
   7108.33  1.6836679E-02
   7108.67  1.8760913E-02
   7109.00  2.1243577E-02
   7109.33  2.4711759E-02
   7109.67  2.9642949E-02
   7110.00  3.6971223E-02
   7110.33  4.9365072E-02
   7110.67  6.9554243E-02
   7111.00  9.7989024E-02
   7111.33  1.2897094E-01
   7111.67  1.5878998E-01
   7112.00  1.7960069E-01
   7112.33  1.8604448E-01
   7112.67  1.7960231E-01
   7113.00  1.5796127E-01
   7113.33  1.2837679E-01
   7113.67  1.0173843E-01
   7114.00  8.2165273E-02
   7114.33  6.9900863E-02
   7114.67  6.2362725E-02
   7115.00  5.8564103E-02
   7115.33  5.8190302E-02
   7115.67  6.0610437E-02
   7116.00  6.5927067E-02
   7116.33  7.4966522E-02
   7116.67  8.8006663E-02
   7117.00  1.0565803E-01
   7117.33  1.2880103E-01
   7117.67  1.5591218E-01
   7118.00  1.8419105E-01
   7118.33  2.0770130E-01
   7118.67  2.2312620E-01
   7119.00  2.2984226E-01
   7119.33  2.2969737E-01
   7119.67  2.2928194E-01
   7120.00  2.3281494E-01
   7120.33  2.4265606E-01
   7120.67  2.5724683E-01
   7121.00  2.7509865E-01
   7121.33  2.9498933E-01
   7121.67  3.1611838E-01
   7122.00  3.3884921E-01
   7122.33  3.6475173E-01
   7122.67  3.9432506E-01
   7123.00  4.2675586E-01
   7123.33  4.5826031E-01
   7123.67  4.8357087E-01
   7124.00  4.9955158E-01
   7124.33  5.0568650E-01
   7124.67  5.0697135E-01
   7125.00  5.0711793E-01
   7125.33  5.0955673E-01
   7125.67  5.1521986E-01
   7126.00  5.2357497E-01
   7126.33  5.3416482E-01
   7126.67  5.4751267E-01
   7127.00  5.6493488E-01
   7127.33  5.8762727E-01
   7127.67  6.1388312E-01
   7128.00  6.4135720E-01
   7128.33  6.6624507E-01
   7128.67  6.8653399E-01
   7129.00  7.0217407E-01
   7129.33  7.1316568E-01
   7129.67  7.1939751E-01
   7130.00  7.2001214E-01
   7130.33  7.1466429E-01
   7130.67  7.0601074E-01
   7131.00  6.9628320E-01
   7131.33  6.8784591E-01
   7131.67  6.8206675E-01
   7132.00  6.7970642E-01
   7132.33  6.8134728E-01
   7132.67  6.8561909E-01
   7133.00  6.9085695E-01
   7133.33  6.9440742E-01
   7133.67  6.9447082E-01
   7134.00  6.9055395E-01
   7134.33  6.8313822E-01
   7134.67  6.7390396E-01
   7135.00  6.6356142E-01
   7135.33  6.5243617E-01
   7135.67  6.4090985E-01
   7136.00  6.2923130E-01
   7136.33  6.1765548E-01
   7136.67  6.0633630E-01
   7137.00  5.9536596E-01
   7137.33  5.8487460E-01
   7137.67  5.7486904E-01
   7138.00  5.6539029E-01
   7138.33  5.5654488E-01
   7138.67  5.4829257E-01
   7139.00  5.4066146E-01
   7139.33  5.3377324E-01
   7139.67  5.2759850E-01
   7140.00  5.2220457E-01
   7140.33  5.1779958E-01
   7140.67  5.1438057E-01
   7141.00  5.1202829E-01
   7141.33  5.1092776E-01
   7141.67  5.1089222E-01
   7142.00  5.1177818E-01
   7142.33  5.1336660E-01
   7142.67  5.1517373E-01
   7143.00  5.1682198E-01
   7143.33  5.1786458E-01
   7143.67  5.1814219E-01
   7144.00  5.1761384E-01
   7144.33  5.1629334E-01
   7144.67  5.1445402E-01
   7145.00  5.1225737E-01
   7145.33  5.0981967E-01
   7145.67  5.0724958E-01
   7146.00  5.0457778E-01
   7146.33  5.0180753E-01
   7146.67  4.9895885E-01
   7147.00  4.9604147E-01
   7147.33  4.9307124E-01
   7147.67  4.9009435E-01
   7148.00  4.8716332E-01
   7148.33  4.8437097E-01
   7148.67  4.8178027E-01
   7149.00  4.7944119E-01
   7149.33  4.7740590E-01
   7149.67  4.7560602E-01
   7150.00  4.7396973E-01
   7150.33  4.7238101E-01
   7150.67  4.7071032E-01
   7151.00  4.6887877E-01
   7151.33  4.6680911E-01
   7151.67  4.6451993E-01
   7152.00  4.6203309E-01
   7152.33  4.5937037E-01
   7152.67  4.5659150E-01
   7153.00  4.5372105E-01
   7153.33  4.5076164E-01
   7153.67  4.4771862E-01
   7154.00  4.4457634E-01
   7154.33  4.4129019E-01
   7154.67  4.3784153E-01
   7155.00  4.3419864E-01
   7155.33  4.3029516E-01
   7155.67  4.2612800E-01
   7156.00  4.2167974E-01
   7156.33  4.1691496E-01
   7156.67  4.1190011E-01
   7157.00  4.0669115E-01
   7157.33  4.0137267E-01
   7157.67  3.9607940E-01
   7158.00  3.9092600E-01
   7158.33  3.8607436E-01
   7158.67  3.8160127E-01
   7159.00  3.7758153E-01
   7159.33  3.7414140E-01
   7159.67  3.7125339E-01
   7160.00  3.6893367E-01
   7160.33  3.6726040E-01
   7160.67  3.6615698E-01
   7161.00  3.6561139E-01
   7161.33  3.6567197E-01
   7161.67  3.6625176E-01
   7162.00  3.6733202E-01
   7162.33  3.6894255E-01
   7162.67  3.7098546E-01
   7163.00  3.7342141E-01
   7163.33  3.7624284E-01
   7163.67  3.7935297E-01
   7164.00  3.8270568E-01
   7164.33  3.8627558E-01
   7164.67  3.8999608E-01
   7165.00  3.9383780E-01
   7165.33  3.9778847E-01
   7165.67  4.0182212E-01
   7166.00  4.0593392E-01
   7166.33  4.1013434E-01
   7166.67  4.1441741E-01
   7167.00  4.1878575E-01
   7167.33  4.2325012E-01
   7167.67  4.2779480E-01
   7168.00  4.3240979E-01
   7168.33  4.3708327E-01
   7168.67  4.4178391E-01
   7169.00  4.4648590E-01
   7169.33  4.5115100E-01
   7169.67  4.5574619E-01
   7170.00  4.6023836E-01
   7170.33  4.6457012E-01
   7170.67  4.6871603E-01
   7171.00  4.7263062E-01
   7171.33  4.7619928E-01
   7171.67  4.7933115E-01
   7172.00  4.8186289E-01
