    FDMNES
    energy     <xanes>
   7097.00  4.3071566E-03
   7097.33  4.4020833E-03
   7097.67  4.5011187E-03
   7098.00  4.6045363E-03
   7098.33  4.7132800E-03
   7098.67  4.8271504E-03
   7099.00  4.9465205E-03
   7099.33  5.0726225E-03
   7099.67  5.2052536E-03
   7100.00  5.3449368E-03
   7100.33  5.4933254E-03
   7100.67  5.6502331E-03
   7101.00  5.8164175E-03
   7101.33  5.9941699E-03
   7101.67  6.1833655E-03
   7102.00  6.3851454E-03
   7102.33  6.6028117E-03
   7102.67  6.8364017E-03
   7103.00  7.0877167E-03
   7103.33  7.3617504E-03
   7103.67  7.6589335E-03
   7104.00  7.9822795E-03
   7104.33  8.3398106E-03
   7104.67  8.7329145E-03
   7105.00  9.1670182E-03
   7105.33  9.6560544E-03
   7105.67  1.0203863E-02
   7106.00  1.0821210E-02
   7106.33  1.1534959E-02
   7106.67  1.2355883E-02
   7107.00  1.3308388E-02
   7107.33  1.4452462E-02
   7107.67  1.5821905E-02
   7108.00  1.7483878E-02
   7108.33  1.9605449E-02
   7108.67  2.2319086E-02
   7109.00  2.5875306E-02
   7109.33  3.0939282E-02
   7109.67  3.8278512E-02
   7110.00  4.9404045E-02
   7110.33  6.8671208E-02
   7110.67  1.0049862E-01
   7111.00  1.4461127E-01
   7111.33  1.8466635E-01
   7111.67  2.0640711E-01
   7112.00  2.0272676E-01
   7112.33  1.9201317E-01
   7112.67  1.9518624E-01
   7113.00  2.1036892E-01
   7113.33  2.2682789E-01
   7113.67  2.3852383E-01
   7114.00  2.4680715E-01
   7114.33  2.6391436E-01
   7114.67  2.7373254E-01
   7115.00  2.5177514E-01
   7115.33  2.0625271E-01
   7115.67  1.6514347E-01
   7116.00  1.3343913E-01
   7116.33  1.0925691E-01
   7116.67  9.1435574E-02
   7117.00  7.9642273E-02
   7117.33  7.2463145E-02
   7117.67  6.8220320E-02
   7118.00  6.6611231E-02
   7118.33  6.7570043E-02
   7118.67  7.0474128E-02
   7119.00  7.5119049E-02
   7119.33  8.1523568E-02
   7119.67  8.9316750E-02
   7120.00  9.8309917E-02
   7120.33  1.0830795E-01
   7120.67  1.1870762E-01
   7121.00  1.2893494E-01
   7121.33  1.3846182E-01
   7121.67  1.4757866E-01
   7122.00  1.5678610E-01
   7122.33  1.6650209E-01
   7122.67  1.7662241E-01
   7123.00  1.8697647E-01
   7123.33  1.9758666E-01
   7123.67  2.0879227E-01
   7124.00  2.2120238E-01
   7124.33  2.3598690E-01
   7124.67  2.5363166E-01
   7125.00  2.7412287E-01
   7125.33  2.9614789E-01
   7125.67  3.1708114E-01
   7126.00  3.3601568E-01
   7126.33  3.5372563E-01
   7126.67  3.7147306E-01
   7127.00  3.9013096E-01
   7127.33  4.1131980E-01
   7127.67  4.3564503E-01
   7128.00  4.6268534E-01
   7128.33  4.9018907E-01
   7128.67  5.1367601E-01
   7129.00  5.2871302E-01
   7129.33  5.3159491E-01
   7129.67  5.2562245E-01
   7130.00  5.1389976E-01
   7130.33  4.9930246E-01
   7130.67  4.8452408E-01
   7131.00  4.7084816E-01
   7131.33  4.5920809E-01
   7131.67  4.4994760E-01
   7132.00  4.4399203E-01
   7132.33  4.4335031E-01
   7132.67  4.4849881E-01
   7133.00  4.5978443E-01
   7133.33  4.7795543E-01
   7133.67  5.0217065E-01
   7134.00  5.3243034E-01
   7134.33  5.6926597E-01
   7134.67  6.1098737E-01
   7135.00  6.5583995E-01
   7135.33  7.0069246E-01
   7135.67  7.4147166E-01
   7136.00  7.7430060E-01
   7136.33  7.9430192E-01
   7136.67  8.0269004E-01
   7137.00  8.0199246E-01
   7137.33  7.9559552E-01
   7137.67  7.8737047E-01
   7138.00  7.7894906E-01
   7138.33  7.7116093E-01
   7138.67  7.6387270E-01
   7139.00  7.5669146E-01
   7139.33  7.4904783E-01
   7139.67  7.4067245E-01
   7140.00  7.3155599E-01
   7140.33  7.2191829E-01
   7140.67  7.1227195E-01
   7141.00  7.0301746E-01
   7141.33  6.9460474E-01
   7141.67  6.8712664E-01
   7142.00  6.8061633E-01
   7142.33  6.7513273E-01
   7142.67  6.7046727E-01
   7143.00  6.6652116E-01
   7143.33  6.6321267E-01
   7143.67  6.6027027E-01
   7144.00  6.5749733E-01
   7144.33  6.5466798E-01
   7144.67  6.5162490E-01
   7145.00  6.4830169E-01
   7145.33  6.4469283E-01
   7145.67  6.4096607E-01
   7146.00  6.3730972E-01
   7146.33  6.3403113E-01
   7146.67  6.3134945E-01
   7147.00  6.2943831E-01
   7147.33  6.2849835E-01
   7147.67  6.2836433E-01
   7148.00  6.2886558E-01
   7148.33  6.2973466E-01
   7148.67  6.3055869E-01
   7149.00  6.3101956E-01
   7149.33  6.3072453E-01
   7149.67  6.2954464E-01
   7150.00  6.2737519E-01
   7150.33  6.2405440E-01
   7150.67  6.1975858E-01
   7151.00  6.1458646E-01
   7151.33  6.0862415E-01
   7151.67  6.0216994E-01
   7152.00  5.9541069E-01
   7152.33  5.8853824E-01
   7152.67  5.8174342E-01
   7153.00  5.7514924E-01
   7153.33  5.6890029E-01
   7153.67  5.6302763E-01
   7154.00  5.5756535E-01
   7154.33  5.5258161E-01
   7154.67  5.4801783E-01
   7155.00  5.4385722E-01
   7155.33  5.4011641E-01
   7155.67  5.3671127E-01
   7156.00  5.3359430E-01
   7156.33  5.3070663E-01
   7156.67  5.2790860E-01
   7157.00  5.2507835E-01
   7157.33  5.2202046E-01
   7157.67  5.1856500E-01
   7158.00  5.1453667E-01
   7158.33  5.0964645E-01
   7158.67  5.0383178E-01
   7159.00  4.9700177E-01
   7159.33  4.8898541E-01
   7159.67  4.7995503E-01
   7160.00  4.7000921E-01
   7160.33  4.5923681E-01
   7160.67  4.4796623E-01
   7161.00  4.3642892E-01
   7161.33  4.2490465E-01
   7161.67  4.1365673E-01
   7162.00  4.0288961E-01
   7162.33  3.9288766E-01
   7162.67  3.8371532E-01
   7163.00  3.7545970E-01
   7163.33  3.6829567E-01
   7163.67  3.6210567E-01
   7164.00  3.5686405E-01
   7164.33  3.5263282E-01
   7164.67  3.4923340E-01
   7165.00  3.4660175E-01
   7165.33  3.4474668E-01
   7165.67  3.4350527E-01
   7166.00  3.4281498E-01
   7166.33  3.4266713E-01
   7166.67  3.4293838E-01
   7167.00  3.4358197E-01
   7167.33  3.4459354E-01
   7167.67  3.4589622E-01
   7168.00  3.4746539E-01
   7168.33  3.4930705E-01
   7168.67  3.5136799E-01
   7169.00  3.5362753E-01
   7169.33  3.5607950E-01
   7169.67  3.5866887E-01
   7170.00  3.6136069E-01
   7170.33  3.6411407E-01
   7170.67  3.6686574E-01
   7171.00  3.6955738E-01
   7171.33  3.7208094E-01
   7171.67  3.7432180E-01
   7172.00  3.7612407E-01
