    FDMNES
    energy     <xanes>
   7097.00  4.9005384E-03
   7097.33  5.0188674E-03
   7097.67  5.1427208E-03
   7098.00  5.2724874E-03
   7098.33  5.4094721E-03
   7098.67  5.5534354E-03
   7099.00  5.7049146E-03
   7099.33  5.8656372E-03
   7099.67  6.0353683E-03
   7100.00  6.2148713E-03
   7100.33  6.4064995E-03
   7100.67  6.6100567E-03
   7101.00  6.8266649E-03
   7101.33  7.0596398E-03
   7101.67  7.3088993E-03
   7102.00  7.5761596E-03
   7102.33  7.8662848E-03
   7102.67  8.1794748E-03
   7103.00  8.5184830E-03
   7103.33  8.8908066E-03
   7103.67  9.2973128E-03
   7104.00  9.7426864E-03
   7104.33  1.0239215E-02
   7104.67  1.0789372E-02
   7105.00  1.1401739E-02
   7105.33  1.2098101E-02
   7105.67  1.2885027E-02
   7106.00  1.3779827E-02
   7106.33  1.4825341E-02
   7106.67  1.6039707E-02
   7107.00  1.7462708E-02
   7107.33  1.9191657E-02
   7107.67  2.1282949E-02
   7108.00  2.3847000E-02
   7108.33  2.7157646E-02
   7108.67  3.1433834E-02
   7109.00  3.7087022E-02
   7109.33  4.5206141E-02
   7109.67  5.7041784E-02
   7110.00  7.5045930E-02
   7110.33  1.0624257E-01
   7110.67  1.5753341E-01
   7111.00  2.2761701E-01
   7111.33  2.9042411E-01
   7111.67  3.4287846E-01
   7112.00  3.9811301E-01
   7112.33  4.4054249E-01
   7112.67  4.3490186E-01
   7113.00  3.6327952E-01
   7113.33  2.7338451E-01
   7113.67  2.0577942E-01
   7114.00  1.6380553E-01
   7114.33  1.4627341E-01
   7114.67  1.4766312E-01
   7115.00  1.6290985E-01
   7115.33  1.7019405E-01
   7115.67  1.5273223E-01
   7116.00  1.2478801E-01
   7116.33  1.0418098E-01
   7116.67  9.1925761E-02
   7117.00  8.5995366E-02
   7117.33  8.4632992E-02
   7117.67  8.5425937E-02
   7118.00  8.7043076E-02
   7118.33  8.8863103E-02
   7118.67  9.1177141E-02
   7119.00  9.4258982E-02
   7119.33  9.7838553E-02
   7119.67  1.0128223E-01
   7120.00  1.0459277E-01
   7120.33  1.0892371E-01
   7120.67  1.1572627E-01
   7121.00  1.2578380E-01
   7121.33  1.3972968E-01
   7121.67  1.5682106E-01
   7122.00  1.7652987E-01
   7122.33  1.9924961E-01
   7122.67  2.2499234E-01
   7123.00  2.5313644E-01
   7123.33  2.8273696E-01
   7123.67  3.1270309E-01
   7124.00  3.4127267E-01
   7124.33  3.6479564E-01
   7124.67  3.8192135E-01
   7125.00  3.9362385E-01
   7125.33  4.0283959E-01
   7125.67  4.1270373E-01
   7126.00  4.2515877E-01
   7126.33  4.4298108E-01
   7126.67  4.6651691E-01
   7127.00  4.9473605E-01
   7127.33  5.2555086E-01
   7127.67  5.5729385E-01
   7128.00  5.9000377E-01
   7128.33  6.2276490E-01
   7128.67  6.5311512E-01
   7129.00  6.8073948E-01
   7129.33  7.0836213E-01
   7129.67  7.3720596E-01
   7130.00  7.6502836E-01
   7130.33  7.8683028E-01
   7130.67  7.9977158E-01
   7131.00  8.0237863E-01
   7131.33  7.9400802E-01
   7131.67  7.7907172E-01
   7132.00  7.6130076E-01
   7132.33  7.4439546E-01
   7132.67  7.3039170E-01
   7133.00  7.2017364E-01
   7133.33  7.1441233E-01
   7133.67  7.1190870E-01
   7134.00  7.1163910E-01
   7134.33  7.1273178E-01
   7134.67  7.1452736E-01
   7135.00  7.1678736E-01
   7135.33  7.1894873E-01
   7135.67  7.2012032E-01
   7136.00  7.1965288E-01
   7136.33  7.1722304E-01
   7136.67  7.1369546E-01
   7137.00  7.0994415E-01
   7137.33  7.0699575E-01
   7137.67  7.0531607E-01
   7138.00  7.0494116E-01
   7138.33  7.0535645E-01
   7138.67  7.0523997E-01
   7139.00  7.0336189E-01
   7139.33  6.9832913E-01
   7139.67  6.9014699E-01
   7140.00  6.7889442E-01
   7140.33  6.6438524E-01
   7140.67  6.4726776E-01
   7141.00  6.2822312E-01
   7141.33  6.0885866E-01
   7141.67  5.9145320E-01
   7142.00  5.7775048E-01
   7142.33  5.6940971E-01
   7142.67  5.6556715E-01
   7143.00  5.6504228E-01
   7143.33  5.6588363E-01
   7143.67  5.6559513E-01
   7144.00  5.6247761E-01
   7144.33  5.5498329E-01
   7144.67  5.4377866E-01
   7145.00  5.2986626E-01
   7145.33  5.1479890E-01
   7145.67  5.0037181E-01
   7146.00  4.8766704E-01
   7146.33  4.7777278E-01
   7146.67  4.7068880E-01
   7147.00  4.6638569E-01
   7147.33  4.6491471E-01
   7147.67  4.6556741E-01
   7148.00  4.6798249E-01
   7148.33  4.7192283E-01
   7148.67  4.7683703E-01
   7149.00  4.8242932E-01
   7149.33  4.8844873E-01
   7149.67  4.9459660E-01
   7150.00  5.0068641E-01
   7150.33  5.0648913E-01
   7150.67  5.1185230E-01
   7151.00  5.1663086E-01
   7151.33  5.2060166E-01
   7151.67  5.2379031E-01
   7152.00  5.2621825E-01
   7152.33  5.2792236E-01
   7152.67  5.2917031E-01
   7153.00  5.3013770E-01
   7153.33  5.3098044E-01
   7153.67  5.3180778E-01
   7154.00  5.3263365E-01
   7154.33  5.3340220E-01
   7154.67  5.3402507E-01
   7155.00  5.3440603E-01
   7155.33  5.3439219E-01
   7155.67  5.3393358E-01
   7156.00  5.3296410E-01
   7156.33  5.3134972E-01
   7156.67  5.2911254E-01
   7157.00  5.2621765E-01
   7157.33  5.2254456E-01
   7157.67  5.1815502E-01
   7158.00  5.1303933E-01
   7158.33  5.0711720E-01
   7158.67  5.0051933E-01
   7159.00  4.9331156E-01
   7159.33  4.8554185E-01
   7159.67  4.7741457E-01
   7160.00  4.6906921E-01
   7160.33  4.6066792E-01
   7160.67  4.5237543E-01
   7161.00  4.4430986E-01
   7161.33  4.3661990E-01
   7161.67  4.2933413E-01
   7162.00  4.2248223E-01
   7162.33  4.1612229E-01
   7162.67  4.1018107E-01
   7163.00  4.0463071E-01
   7163.33  3.9947137E-01
   7163.67  3.9460993E-01
   7164.00  3.9000329E-01
   7164.33  3.8563051E-01
   7164.67  3.8142935E-01
   7165.00  3.7738260E-01
   7165.33  3.7350780E-01
   7165.67  3.6980416E-01
   7166.00  3.6630137E-01
   7166.33  3.6307442E-01
   7166.67  3.6013923E-01
   7167.00  3.5753210E-01
   7167.33  3.5533221E-01
   7167.67  3.5351685E-01
   7168.00  3.5209537E-01
   7168.33  3.5111672E-01
   7168.67  3.5052206E-01
   7169.00  3.5029743E-01
   7169.33  3.5046468E-01
   7169.67  3.5095319E-01
   7170.00  3.5173552E-01
   7170.33  3.5280657E-01
   7170.67  3.5408896E-01
   7171.00  3.5553261E-01
   7171.33  3.5706264E-01
   7171.67  3.5853071E-01
   7172.00  3.5976202E-01
