    FDMNES
    energy     <xanes>
   7097.00  3.8393220E-03
   7097.33  3.9136758E-03
   7097.67  3.9908649E-03
   7098.00  4.0710591E-03
   7098.33  4.1548779E-03
   7098.67  4.2421578E-03
   7099.00  4.3331245E-03
   7099.33  4.4285657E-03
   7099.67  4.5283075E-03
   7100.00  4.6326573E-03
   7100.33  4.7426401E-03
   7100.67  4.8580790E-03
   7101.00  4.9794047E-03
   7101.33  5.1079887E-03
   7101.67  5.2436676E-03
   7102.00  5.3870653E-03
   7102.33  5.5400788E-03
   7102.67  5.7025955E-03
   7103.00  5.8755559E-03
   7103.33  6.0616902E-03
   7103.67  6.2610207E-03
   7104.00  6.4750330E-03
   7104.33  6.7078545E-03
   7104.67  6.9598344E-03
   7105.00  7.2334614E-03
   7105.33  7.5353673E-03
   7105.67  7.8666971E-03
   7106.00  8.2319387E-03
   7106.33  8.6426179E-03
   7106.67  9.1019152E-03
   7107.00  9.6187445E-03
   7107.33  1.0215343E-02
   7107.67  1.0900642E-02
   7108.00  1.1694855E-02
   7108.33  1.2647673E-02
   7108.67  1.3787133E-02
   7109.00  1.5168966E-02
   7109.33  1.6932014E-02
   7109.67  1.9187295E-02
   7110.00  2.2145545E-02
   7110.33  2.6367446E-02
   7110.67  3.2473220E-02
   7111.00  4.1529325E-02
   7111.33  5.6134198E-02
   7111.67  7.8565971E-02
   7112.00  1.1162597E-01
   7112.33  1.5612359E-01
   7112.67  1.9059154E-01
   7113.00  1.9735868E-01
   7113.33  1.8315548E-01
   7113.67  1.7312731E-01
   7114.00  1.7596639E-01
   7114.33  1.9231321E-01
   7114.67  2.0752843E-01
   7115.00  2.0284329E-01
   7115.33  1.7654840E-01
   7115.67  1.5212500E-01
   7116.00  1.3312422E-01
   7116.33  1.1594026E-01
   7116.67  1.0036583E-01
   7117.00  8.7405278E-02
   7117.33  7.7756819E-02
   7117.67  7.0692679E-02
   7118.00  6.5754494E-02
   7118.33  6.2677757E-02
   7118.67  6.0903172E-02
   7119.00  6.0203793E-02
   7119.33  6.0497696E-02
   7119.67  6.1656288E-02
   7120.00  6.3767917E-02
   7120.33  6.7085038E-02
   7120.67  7.1663101E-02
   7121.00  7.7715392E-02
   7121.33  8.5714688E-02
   7121.67  9.5384173E-02
   7122.00  1.0643197E-01
   7122.33  1.1891517E-01
   7122.67  1.3294467E-01
   7123.00  1.4851315E-01
   7123.33  1.6349636E-01
   7123.67  1.7428903E-01
   7124.00  1.7968058E-01
   7124.33  1.8091443E-01
   7124.67  1.8164067E-01
   7125.00  1.8464248E-01
   7125.33  1.9230067E-01
   7125.67  2.0420677E-01
   7126.00  2.1950486E-01
   7126.33  2.3667795E-01
   7126.67  2.5321093E-01
   7127.00  2.6740922E-01
   7127.33  2.7938875E-01
   7127.67  2.9181184E-01
   7128.00  3.0609709E-01
   7128.33  3.2238168E-01
   7128.67  3.3953199E-01
   7129.00  3.5726585E-01
   7129.33  3.7600250E-01
   7129.67  3.9584254E-01
   7130.00  4.1657670E-01
   7130.33  4.3752152E-01
   7130.67  4.5766307E-01
   7131.00  4.7626233E-01
   7131.33  4.9278368E-01
   7131.67  5.0736030E-01
   7132.00  5.1905242E-01
   7132.33  5.2581718E-01
   7132.67  5.2869281E-01
   7133.00  5.2943450E-01
   7133.33  5.2966466E-01
   7133.67  5.3029222E-01
   7134.00  5.3171118E-01
   7134.33  5.3442207E-01
   7134.67  5.3861499E-01
   7135.00  5.4456038E-01
   7135.33  5.5274072E-01
   7135.67  5.6303300E-01
   7136.00  5.7548333E-01
   7136.33  5.9027891E-01
   7136.67  6.0691657E-01
   7137.00  6.2499886E-01
   7137.33  6.4389429E-01
   7137.67  6.6275540E-01
   7138.00  6.8110550E-01
   7138.33  6.9842192E-01
   7138.67  7.1450548E-01
   7139.00  7.2920974E-01
   7139.33  7.4234557E-01
   7139.67  7.5418849E-01
   7140.00  7.6485821E-01
   7140.33  7.7433699E-01
   7140.67  7.8277233E-01
   7141.00  7.9004805E-01
   7141.33  7.9567423E-01
   7141.67  7.9939328E-01
   7142.00  8.0082623E-01
   7142.33  7.9925775E-01
   7142.67  7.9476175E-01
   7143.00  7.8734716E-01
   7143.33  7.7704546E-01
   7143.67  7.6484727E-01
   7144.00  7.5147801E-01
   7144.33  7.3776398E-01
   7144.67  7.2449010E-01
   7145.00  7.1213340E-01
   7145.33  7.0118918E-01
   7145.67  6.9162107E-01
   7146.00  6.8338924E-01
   7146.33  6.7647144E-01
   7146.67  6.7047245E-01
   7147.00  6.6515144E-01
   7147.33  6.6028468E-01
   7147.67  6.5558613E-01
   7148.00  6.5090206E-01
   7148.33  6.4610767E-01
   7148.67  6.4117757E-01
   7149.00  6.3613198E-01
   7149.33  6.3101257E-01
   7149.67  6.2587967E-01
   7150.00  6.2078852E-01
   7150.33  6.1583203E-01
   7150.67  6.1107560E-01
   7151.00  6.0658147E-01
   7151.33  6.0244737E-01
   7151.67  5.9867211E-01
   7152.00  5.9527441E-01
   7152.33  5.9230990E-01
   7152.67  5.8972751E-01
   7153.00  5.8752081E-01
   7153.33  5.8572830E-01
   7153.67  5.8429977E-01
   7154.00  5.8323502E-01
   7154.33  5.8258076E-01
   7154.67  5.8228874E-01
   7155.00  5.8234812E-01
   7155.33  5.8276873E-01
   7155.67  5.8345459E-01
   7156.00  5.8433427E-01
   7156.33  5.8530816E-01
   7156.67  5.8623272E-01
   7157.00  5.8698352E-01
   7157.33  5.8737549E-01
   7157.67  5.8731614E-01
   7158.00  5.8671388E-01
   7158.33  5.8542644E-01
   7158.67  5.8350852E-01
   7159.00  5.8097213E-01
   7159.33  5.7778725E-01
   7159.67  5.7408952E-01
   7160.00  5.6994378E-01
   7160.33  5.6538428E-01
   7160.67  5.6053773E-01
   7161.00  5.5547178E-01
   7161.33  5.5024210E-01
   7161.67  5.4493143E-01
   7162.00  5.3958350E-01
   7162.33  5.3422913E-01
   7162.67  5.2887687E-01
   7163.00  5.2351468E-01
   7163.33  5.1810466E-01
   7163.67  5.1260810E-01
   7164.00  5.0698689E-01
   7164.33  5.0118753E-01
   7164.67  4.9521954E-01
   7165.00  4.8909881E-01
   7165.33  4.8286014E-01
   7165.67  4.7659169E-01
   7166.00  4.7037318E-01
   7166.33  4.6432166E-01
   7166.67  4.5850954E-01
   7167.00  4.5300086E-01
   7167.33  4.4789256E-01
   7167.67  4.4316738E-01
   7168.00  4.3883008E-01
   7168.33  4.3491513E-01
   7168.67  4.3134885E-01
   7169.00  4.2810102E-01
   7169.33  4.2516707E-01
   7169.67  4.2247180E-01
   7170.00  4.1998282E-01
   7170.33  4.1769059E-01
   7170.67  4.1555222E-01
   7171.00  4.1356121E-01
   7171.33  4.1175060E-01
   7171.67  4.1014846E-01
   7172.00  4.0882811E-01
