    FDMNES
    energy     <xanes>
   7097.00  5.4907401E-03
   7097.33  5.6330388E-03
   7097.67  5.7822710E-03
   7098.00  5.9389296E-03
   7098.33  6.1046597E-03
   7098.67  6.2791654E-03
   7099.00  6.4631259E-03
   7099.33  6.6587180E-03
   7099.67  6.8656477E-03
   7100.00  7.0848760E-03
   7100.33  7.3193620E-03
   7100.67  7.5688530E-03
   7101.00  7.8347523E-03
   7101.33  8.1212120E-03
   7101.67  8.4281073E-03
   7102.00  8.7575665E-03
   7102.33  9.1156407E-03
   7102.67  9.5025245E-03
   7103.00  9.9215945E-03
   7103.33  1.0382088E-02
   7103.67  1.0884952E-02
   7104.00  1.1435850E-02
   7104.33  1.2049715E-02
   7104.67  1.2729290E-02
   7105.00  1.3484755E-02
   7105.33  1.4342086E-02
   7105.67  1.5308523E-02
   7106.00  1.6404090E-02
   7106.33  1.7678538E-02
   7106.67  1.9151456E-02
   7107.00  2.0867293E-02
   7107.33  2.2934850E-02
   7107.67  2.5412816E-02
   7108.00  2.8418391E-02
   7108.33  3.2240236E-02
   7108.67  3.7091705E-02
   7109.00  4.3374137E-02
   7109.33  5.2125002E-02
   7109.67  6.4428524E-02
   7110.00  8.2376173E-02
   7110.33  1.1200764E-01
   7110.67  1.6168587E-01
   7111.00  2.4469691E-01
   7111.33  3.6652737E-01
   7111.67  4.5552897E-01
   7112.00  4.6395074E-01
   7112.33  4.4972874E-01
   7112.67  4.5970691E-01
   7113.00  4.8957899E-01
   7113.33  5.2045886E-01
   7113.67  5.0923801E-01
   7114.00  4.4852738E-01
   7114.33  3.7222983E-01
   7114.67  2.9834726E-01
   7115.00  2.3377749E-01
   7115.33  1.8711446E-01
   7115.67  1.5533540E-01
   7116.00  1.3485276E-01
   7116.33  1.2272270E-01
   7116.67  1.1480194E-01
   7117.00  1.0935780E-01
   7117.33  1.0624117E-01
   7117.67  1.0553642E-01
   7118.00  1.0749643E-01
   7118.33  1.1256423E-01
   7118.67  1.2010314E-01
   7119.00  1.2932428E-01
   7119.33  1.3902839E-01
   7119.67  1.4907549E-01
   7120.00  1.6098605E-01
   7120.33  1.7640746E-01
   7120.67  1.9291769E-01
   7121.00  2.0742509E-01
   7121.33  2.1741458E-01
   7121.67  2.2522569E-01
   7122.00  2.3618905E-01
   7122.33  2.5697637E-01
   7122.67  2.8774044E-01
   7123.00  3.2679300E-01
   7123.33  3.7188433E-01
   7123.67  4.1933058E-01
   7124.00  4.6614500E-01
   7124.33  5.0895909E-01
   7124.67  5.4660995E-01
   7125.00  5.7820323E-01
   7125.33  6.0207803E-01
   7125.67  6.1917289E-01
   7126.00  6.3063962E-01
   7126.33  6.3832153E-01
   7126.67  6.4510569E-01
   7127.00  6.5272835E-01
   7127.33  6.6260778E-01
   7127.67  6.7461084E-01
   7128.00  6.8795240E-01
   7128.33  7.0063751E-01
   7128.67  7.1093119E-01
   7129.00  7.1832710E-01
   7129.33  7.2336876E-01
   7129.67  7.2780529E-01
   7130.00  7.3199250E-01
   7130.33  7.3371427E-01
   7130.67  7.2997909E-01
   7131.00  7.1941772E-01
   7131.33  7.0306165E-01
   7131.67  6.8531213E-01
   7132.00  6.6932272E-01
   7132.33  6.5805522E-01
   7132.67  6.5179115E-01
   7133.00  6.5001512E-01
   7133.33  6.5135800E-01
   7133.67  6.5298409E-01
   7134.00  6.5272849E-01
   7134.33  6.4877138E-01
   7134.67  6.4212778E-01
   7135.00  6.3437646E-01
   7135.33  6.2692242E-01
   7135.67  6.1987979E-01
   7136.00  6.1297638E-01
   7136.33  6.0632383E-01
   7136.67  6.0040581E-01
   7137.00  5.9565820E-01
   7137.33  5.9241252E-01
   7137.67  5.9026061E-01
   7138.00  5.8884359E-01
   7138.33  5.8774240E-01
   7138.67  5.8641798E-01
   7139.00  5.8438869E-01
   7139.33  5.8093973E-01
   7139.67  5.7574784E-01
   7140.00  5.6848326E-01
   7140.33  5.5858279E-01
   7140.67  5.4626758E-01
   7141.00  5.3172953E-01
   7141.33  5.1534315E-01
   7141.67  4.9819777E-01
   7142.00  4.8116134E-01
   7142.33  4.6531303E-01
   7142.67  4.5123346E-01
   7143.00  4.3928408E-01
   7143.33  4.2989515E-01
   7143.67  4.2270454E-01
   7144.00  4.1753415E-01
   7144.33  4.1432896E-01
   7144.67  4.1256957E-01
   7145.00  4.1199508E-01
   7145.33  4.1242291E-01
   7145.67  4.1346754E-01
   7146.00  4.1491334E-01
   7146.33  4.1655613E-01
   7146.67  4.1817813E-01
   7147.00  4.1963917E-01
   7147.33  4.2077865E-01
   7147.67  4.2155301E-01
   7148.00  4.2193008E-01
   7148.33  4.2186293E-01
   7148.67  4.2144195E-01
   7149.00  4.2072605E-01
   7149.33  4.1977703E-01
   7149.67  4.1872216E-01
   7150.00  4.1765548E-01
   7150.33  4.1670356E-01
   7150.67  4.1596232E-01
   7151.00  4.1551331E-01
   7151.33  4.1547708E-01
   7151.67  4.1585354E-01
   7152.00  4.1665442E-01
   7152.33  4.1790960E-01
   7152.67  4.1951146E-01
   7153.00  4.2138331E-01
   7153.33  4.2342500E-01
   7153.67  4.2547002E-01
   7154.00  4.2737194E-01
   7154.33  4.2890127E-01
   7154.67  4.2990000E-01
   7155.00  4.3019551E-01
   7155.33  4.2948889E-01
   7155.67  4.2774077E-01
   7156.00  4.2486936E-01
   7156.33  4.2070976E-01
   7156.67  4.1547199E-01
   7157.00  4.0928135E-01
   7157.33  4.0225398E-01
   7157.67  3.9473449E-01
   7158.00  3.8694991E-01
   7158.33  3.7915093E-01
   7158.67  3.7155984E-01
   7159.00  3.6433289E-01
   7159.33  3.5767353E-01
   7159.67  3.5161673E-01
   7160.00  3.4621621E-01
   7160.33  3.4159029E-01
   7160.67  3.3765847E-01
   7161.00  3.3440810E-01
   7161.33  3.3189024E-01
   7161.67  3.2998174E-01
   7162.00  3.2864140E-01
   7162.33  3.2788287E-01
   7162.67  3.2759028E-01
   7163.00  3.2772143E-01
   7163.33  3.2827894E-01
   7163.67  3.2917840E-01
   7164.00  3.3039441E-01
   7164.33  3.3193624E-01
   7164.67  3.3374193E-01
   7165.00  3.3579621E-01
   7165.33  3.3811854E-01
   7165.67  3.4067174E-01
   7166.00  3.4344997E-01
   7166.33  3.4647340E-01
   7166.67  3.4970685E-01
   7167.00  3.5314242E-01
   7167.33  3.5679339E-01
   7167.67  3.6062278E-01
   7168.00  3.6461714E-01
   7168.33  3.6877725E-01
   7168.67  3.7306507E-01
   7169.00  3.7746165E-01
   7169.33  3.8195254E-01
   7169.67  3.8649848E-01
   7170.00  3.9107145E-01
   7170.33  3.9563273E-01
   7170.67  4.0013492E-01
   7171.00  4.0451802E-01
   7171.33  4.0864245E-01
   7171.67  4.1234305E-01
   7172.00  4.1537062E-01
