    FDMNES
    energy     <xanes>
   7097.00  4.4548951E-03
   7097.33  4.5591917E-03
   7097.67  4.6683806E-03
   7098.00  4.7828092E-03
   7098.33  4.9036372E-03
   7098.67  5.0306557E-03
   7099.00  5.1643438E-03
   7099.33  5.3062376E-03
   7099.67  5.4561305E-03
   7100.00  5.6147016E-03
   7100.33  5.7840412E-03
   7100.67  5.9639733E-03
   7101.00  6.1554913E-03
   7101.33  6.3615311E-03
   7101.67  6.5820086E-03
   7102.00  6.8184314E-03
   7102.33  7.0750812E-03
   7102.67  7.3521001E-03
   7103.00  7.6518789E-03
   7103.33  7.9809515E-03
   7103.67  8.3399872E-03
   7104.00  8.7329847E-03
   7104.33  9.1704849E-03
   7104.67  9.6543954E-03
   7105.00  1.0191861E-02
   7105.33  1.0801114E-02
   7105.67  1.1487108E-02
   7106.00  1.2263731E-02
   7106.33  1.3165488E-02
   7106.67  1.4205481E-02
   7107.00  1.5413876E-02
   7107.33  1.6864402E-02
   7107.67  1.8594938E-02
   7108.00  2.0681999E-02
   7108.33  2.3312864E-02
   7108.67  2.6617351E-02
   7109.00  3.0840158E-02
   7109.33  3.6602905E-02
   7109.67  4.4504934E-02
   7110.00  5.5684255E-02
   7110.33  7.3302098E-02
   7110.67  1.0120205E-01
   7111.00  1.4481608E-01
   7111.33  2.1297221E-01
   7111.67  3.1663124E-01
   7112.00  4.5760206E-01
   7112.33  5.3444145E-01
   7112.67  4.7223985E-01
   7113.00  3.6729394E-01
   7113.33  3.0466051E-01
   7113.67  2.6506970E-01
   7114.00  2.2736331E-01
   7114.33  1.8837846E-01
   7114.67  1.5558389E-01
   7115.00  1.3175811E-01
   7115.33  1.1735727E-01
   7115.67  1.0847632E-01
   7116.00  1.0126136E-01
   7116.33  9.3491664E-02
   7116.67  8.6543601E-02
   7117.00  8.1272915E-02
   7117.33  7.7729946E-02
   7117.67  7.5197043E-02
   7118.00  7.3338827E-02
   7118.33  7.2163616E-02
   7118.67  7.1670489E-02
   7119.00  7.1864477E-02
   7119.33  7.2704145E-02
   7119.67  7.3988566E-02
   7120.00  7.5660057E-02
   7120.33  7.7719203E-02
   7120.67  8.0064614E-02
   7121.00  8.2696181E-02
   7121.33  8.5763659E-02
   7121.67  8.9333580E-02
   7122.00  9.3495036E-02
   7122.33  9.8613180E-02
   7122.67  1.0507608E-01
   7123.00  1.1336182E-01
   7123.33  1.2417819E-01
   7123.67  1.3737491E-01
   7124.00  1.5274889E-01
   7124.33  1.6991405E-01
   7124.67  1.8783270E-01
   7125.00  2.0586864E-01
   7125.33  2.2402876E-01
   7125.67  2.4338809E-01
   7126.00  2.6555452E-01
   7126.33  2.9337510E-01
   7126.67  3.2787592E-01
   7127.00  3.6888454E-01
   7127.33  4.1422745E-01
   7127.67  4.5961437E-01
   7128.00  5.0273577E-01
   7128.33  5.4254380E-01
   7128.67  5.7991863E-01
   7129.00  6.1499097E-01
   7129.33  6.4596544E-01
   7129.67  6.7022622E-01
   7130.00  6.8470414E-01
   7130.33  6.8578913E-01
   7130.67  6.7551202E-01
   7131.00  6.5593541E-01
   7131.33  6.2901366E-01
   7131.67  5.9783406E-01
   7132.00  5.6407872E-01
   7132.33  5.2995663E-01
   7132.67  4.9769163E-01
   7133.00  4.6824710E-01
   7133.33  4.4193661E-01
   7133.67  4.1798606E-01
   7134.00  3.9624139E-01
   7134.33  3.7716318E-01
   7134.67  3.6079891E-01
   7135.00  3.4739399E-01
   7135.33  3.3745541E-01
   7135.67  3.3055135E-01
   7136.00  3.2654513E-01
   7136.33  3.2555117E-01
   7136.67  3.2699678E-01
   7137.00  3.3069109E-01
   7137.33  3.3669932E-01
   7137.67  3.4460366E-01
   7138.00  3.5428039E-01
   7138.33  3.6578571E-01
   7138.67  3.7874150E-01
   7139.00  3.9294762E-01
   7139.33  4.0818602E-01
   7139.67  4.2389689E-01
   7140.00  4.3964732E-01
   7140.33  4.5491401E-01
   7140.67  4.6941956E-01
   7141.00  4.8303877E-01
   7141.33  4.9569286E-01
   7141.67  5.0762038E-01
   7142.00  5.1892957E-01
   7142.33  5.2961675E-01
   7142.67  5.3975904E-01
   7143.00  5.4934234E-01
   7143.33  5.5829616E-01
   7143.67  5.6671341E-01
   7144.00  5.7463907E-01
   7144.33  5.8217854E-01
   7144.67  5.8957881E-01
   7145.00  5.9698424E-01
   7145.33  6.0453463E-01
   7145.67  6.1231118E-01
   7146.00  6.2035500E-01
   7146.33  6.2869375E-01
   7146.67  6.3724629E-01
   7147.00  6.4594893E-01
   7147.33  6.5472325E-01
   7147.67  6.6347272E-01
   7148.00  6.7212801E-01
   7148.33  6.8060907E-01
   7148.67  6.8890765E-01
   7149.00  6.9703295E-01
   7149.33  7.0502091E-01
   7149.67  7.1296987E-01
   7150.00  7.2095558E-01
   7150.33  7.2906617E-01
   7150.67  7.3733471E-01
   7151.00  7.4576697E-01
   7151.33  7.5434031E-01
   7151.67  7.6294415E-01
   7152.00  7.7144136E-01
   7152.33  7.7959173E-01
   7152.67  7.8721941E-01
   7153.00  7.9415211E-01
   7153.33  8.0011902E-01
   7153.67  8.0512377E-01
   7154.00  8.0913340E-01
   7154.33  8.1205213E-01
   7154.67  8.1408225E-01
   7155.00  8.1532151E-01
   7155.33  8.1581119E-01
   7155.67  8.1574897E-01
   7156.00  8.1521146E-01
   7156.33  8.1420101E-01
   7156.67  8.1278638E-01
   7157.00  8.1095442E-01
   7157.33  8.0860808E-01
   7157.67  8.0574533E-01
   7158.00  8.0230658E-01
   7158.33  7.9814188E-01
   7158.67  7.9327058E-01
   7159.00  7.8764648E-01
   7159.33  7.8112570E-01
   7159.67  7.7378013E-01
   7160.00  7.6560178E-01
   7160.33  7.5649762E-01
   7160.67  7.4660004E-01
   7161.00  7.3594864E-01
   7161.33  7.2451642E-01
   7161.67  7.1246241E-01
   7162.00  6.9985688E-01
   7162.33  6.8673010E-01
   7162.67  6.7323458E-01
   7163.00  6.5945727E-01
   7163.33  6.4548158E-01
   7163.67  6.3143645E-01
   7164.00  6.1741128E-01
   7164.33  6.0351448E-01
   7164.67  5.8981147E-01
   7165.00  5.7635790E-01
   7165.33  5.6323900E-01
   7165.67  5.5044920E-01
   7166.00  5.3800519E-01
   7166.33  5.2596039E-01
   7166.67  5.1427246E-01
   7167.00  5.0294179E-01
   7167.33  4.9201542E-01
   7167.67  4.8145639E-01
   7168.00  4.7127756E-01
   7168.33  4.6154850E-01
   7168.67  4.5224194E-01
   7169.00  4.4337824E-01
   7169.33  4.3503857E-01
   7169.67  4.2718628E-01
   7170.00  4.1983870E-01
   7170.33  4.1308001E-01
   7170.67  4.0686511E-01
   7171.00  4.0121812E-01
   7171.33  3.9626488E-01
   7171.67  3.9202415E-01
   7172.00  3.8862259E-01
