    FDMNES
    energy     <xanes>
   7097.00  4.2966620E-03
   7097.33  4.3929960E-03
   7097.67  4.4936971E-03
   7098.00  4.5990692E-03
   7098.33  4.7101375E-03
   7098.67  4.8267076E-03
   7099.00  4.9491976E-03
   7099.33  5.0789596E-03
   7099.67  5.2158000E-03
   7100.00  5.3603095E-03
   7100.33  5.5143208E-03
   7100.67  5.6776644E-03
   7101.00  5.8512024E-03
   7101.33  6.0374985E-03
   7101.67  6.2364602E-03
   7102.00  6.4493919E-03
   7102.33  6.6800185E-03
   7102.67  6.9284380E-03
   7103.00  7.1967135E-03
   7103.33  7.4905078E-03
   7103.67  7.8103650E-03
   7104.00  8.1597258E-03
   7104.33  8.5476889E-03
   7104.67  8.9758470E-03
   7105.00  9.4503251E-03
   7105.33  9.9867890E-03
   7105.67  1.0589402E-02
   7106.00  1.1270008E-02
   7106.33  1.2058082E-02
   7106.67  1.2964607E-02
   7107.00  1.4015114E-02
   7107.33  1.5272023E-02
   7107.67  1.6766785E-02
   7108.00  1.8563308E-02
   7108.33  2.0817752E-02
   7108.67  2.3635826E-02
   7109.00  2.7217104E-02
   7109.33  3.2065549E-02
   7109.67  3.8652103E-02
   7110.00  4.7865106E-02
   7110.33  6.2121099E-02
   7110.67  8.4096941E-02
   7111.00  1.1748867E-01
   7111.33  1.7322023E-01
   7111.67  2.6723322E-01
   7112.00  4.0506908E-01
   7112.33  5.1081910E-01
   7112.67  4.8784212E-01
   7113.00  3.6700108E-01
   7113.33  2.5384240E-01
   7113.67  1.8052202E-01
   7114.00  1.3670064E-01
   7114.33  1.1167574E-01
   7114.67  9.6123329E-02
   7115.00  8.6784937E-02
   7115.33  8.1920590E-02
   7115.67  7.9005353E-02
   7116.00  7.6271350E-02
   7116.33  7.3811107E-02
   7116.67  7.2742531E-02
   7117.00  7.2777388E-02
   7117.33  7.3051573E-02
   7117.67  7.3444418E-02
   7118.00  7.4132362E-02
   7118.33  7.5190745E-02
   7118.67  7.6690859E-02
   7119.00  7.8744911E-02
   7119.33  8.1323244E-02
   7119.67  8.4166369E-02
   7120.00  8.7203598E-02
   7120.33  9.0469101E-02
   7120.67  9.3810985E-02
   7121.00  9.7070544E-02
   7121.33  1.0062005E-01
   7121.67  1.0528471E-01
   7122.00  1.1171419E-01
   7122.33  1.2077255E-01
   7122.67  1.3258778E-01
   7123.00  1.4721117E-01
   7123.33  1.6435852E-01
   7123.67  1.8227057E-01
   7124.00  1.9908820E-01
   7124.33  2.1285717E-01
   7124.67  2.2401326E-01
   7125.00  2.3362023E-01
   7125.33  2.4276643E-01
   7125.67  2.5216551E-01
   7126.00  2.6261013E-01
   7126.33  2.7654408E-01
   7126.67  2.9642743E-01
   7127.00  3.2403858E-01
   7127.33  3.6056742E-01
   7127.67  4.0340395E-01
   7128.00  4.5013947E-01
   7128.33  4.9657451E-01
   7128.67  5.3692869E-01
   7129.00  5.6653905E-01
   7129.33  5.8261235E-01
   7129.67  5.9038169E-01
   7130.00  5.9418137E-01
   7130.33  5.9694717E-01
   7130.67  5.9902224E-01
   7131.00  5.9906272E-01
   7131.33  5.9458297E-01
   7131.67  5.8509622E-01
   7132.00  5.7125762E-01
   7132.33  5.5490942E-01
   7132.67  5.3824890E-01
   7133.00  5.2148380E-01
   7133.33  5.0343643E-01
   7133.67  4.8369497E-01
   7134.00  4.6283571E-01
   7134.33  4.4215062E-01
   7134.67  4.2280841E-01
   7135.00  4.0553008E-01
   7135.33  3.9118020E-01
   7135.67  3.7980243E-01
   7136.00  3.7165339E-01
   7136.33  3.6739906E-01
   7136.67  3.6671698E-01
   7137.00  3.6954897E-01
   7137.33  3.7599921E-01
   7137.67  3.8510246E-01
   7138.00  3.9618160E-01
   7138.33  4.0841997E-01
   7138.67  4.2069988E-01
   7139.00  4.3226436E-01
   7139.33  4.4232750E-01
   7139.67  4.5085416E-01
   7140.00  4.5799898E-01
   7140.33  4.6404212E-01
   7140.67  4.6955315E-01
   7141.00  4.7484556E-01
   7141.33  4.8016595E-01
   7141.67  4.8565236E-01
   7142.00  4.9137520E-01
   7142.33  4.9739322E-01
   7142.67  5.0366238E-01
   7143.00  5.1015958E-01
   7143.33  5.1685561E-01
   7143.67  5.2361771E-01
   7144.00  5.3031151E-01
   7144.33  5.3682577E-01
   7144.67  5.4315845E-01
   7145.00  5.4933172E-01
   7145.33  5.5546529E-01
   7145.67  5.6178469E-01
   7146.00  5.6852553E-01
   7146.33  5.7606982E-01
   7146.67  5.8460284E-01
   7147.00  5.9432196E-01
   7147.33  6.0556729E-01
   7147.67  6.1826793E-01
   7148.00  6.3244834E-01
   7148.33  6.4824556E-01
   7148.67  6.6535562E-01
   7149.00  6.8360002E-01
   7149.33  7.0279273E-01
   7149.67  7.2248153E-01
   7150.00  7.4235502E-01
   7150.33  7.6199375E-01
   7150.67  7.8098921E-01
   7151.00  7.9895396E-01
   7151.33  8.1528196E-01
   7151.67  8.2978912E-01
   7152.00  8.4221087E-01
   7152.33  8.5203918E-01
   7152.67  8.5945350E-01
   7153.00  8.6444660E-01
   7153.33  8.6680916E-01
   7153.67  8.6699866E-01
   7154.00  8.6520552E-01
   7154.33  8.6147013E-01
   7154.67  8.5627901E-01
   7155.00  8.4986093E-01
   7155.33  8.4234335E-01
   7155.67  8.3407312E-01
   7156.00  8.2522136E-01
   7156.33  8.1591059E-01
   7156.67  8.0633915E-01
   7157.00  7.9661502E-01
   7157.33  7.8683633E-01
   7157.67  7.7708979E-01
   7158.00  7.6743087E-01
   7158.33  7.5792964E-01
   7158.67  7.4859865E-01
   7159.00  7.3944162E-01
   7159.33  7.3045854E-01
   7159.67  7.2159284E-01
   7160.00  7.1280406E-01
   7160.33  7.0404242E-01
   7160.67  6.9525164E-01
   7161.00  6.8639043E-01
   7161.33  6.7740628E-01
   7161.67  6.6828713E-01
   7162.00  6.5902211E-01
   7162.33  6.4959043E-01
   7162.67  6.4001761E-01
   7163.00  6.3031603E-01
   7163.33  6.2049048E-01
   7163.67  6.1057535E-01
   7164.00  6.0058815E-01
   7164.33  5.9053884E-01
   7164.67  5.8044706E-01
   7165.00  5.7032188E-01
   7165.33  5.6016937E-01
   7165.67  5.5000300E-01
   7166.00  5.3983560E-01
   7166.33  5.2969021E-01
   7166.67  5.1959286E-01
   7167.00  5.0957655E-01
   7167.33  4.9970635E-01
   7167.67  4.9002397E-01
   7168.00  4.8058371E-01
   7168.33  4.7148861E-01
   7168.67  4.6276294E-01
   7169.00  4.5445557E-01
   7169.33  4.4667341E-01
   7169.67  4.3939781E-01
   7170.00  4.3265570E-01
   7170.33  4.2653985E-01
   7170.67  4.2099814E-01
   7171.00  4.1604519E-01
   7171.33  4.1178369E-01
   7171.67  4.0818994E-01
   7172.00  4.0533520E-01
