    FDMNES
    energy     <xanes>
   7097.00  4.9879710E-03
   7097.33  5.1072657E-03
   7097.67  5.2320280E-03
   7098.00  5.3626320E-03
   7098.33  5.5003501E-03
   7098.67  5.6449299E-03
   7099.00  5.7968831E-03
   7099.33  5.9578799E-03
   7099.67  6.1276652E-03
   7100.00  6.3069589E-03
   7100.33  6.4980134E-03
   7100.67  6.7005992E-03
   7101.00  6.9157630E-03
   7101.33  7.1466419E-03
   7101.67  7.3930965E-03
   7102.00  7.6567087E-03
   7102.33  7.9420231E-03
   7102.67  8.2491337E-03
   7103.00  8.5805483E-03
   7103.33  8.9431779E-03
   7103.67  9.3376821E-03
   7104.00  9.7682785E-03
   7104.33  1.0246143E-02
   7104.67  1.0773315E-02
   7105.00  1.1357447E-02
   7105.33  1.2018114E-02
   7105.67  1.2760927E-02
   7106.00  1.3601232E-02
   7106.33  1.4577233E-02
   7106.67  1.5704802E-02
   7107.00  1.7019317E-02
   7107.33  1.8607760E-02
   7107.67  2.0520973E-02
   7108.00  2.2859129E-02
   7108.33  2.5872681E-02
   7108.67  2.9769062E-02
   7109.00  3.4941366E-02
   7109.33  4.2449192E-02
   7109.67  5.3579363E-02
   7110.00  7.0884072E-02
   7110.33  1.0156029E-01
   7110.67  1.5014015E-01
   7111.00  2.0340378E-01
   7111.33  2.2914917E-01
   7111.67  2.5992075E-01
   7112.00  3.0308069E-01
   7112.33  3.0213233E-01
   7112.67  2.5969900E-01
   7113.00  2.2353203E-01
   7113.33  2.2309918E-01
   7113.67  2.6073208E-01
   7114.00  3.3745250E-01
   7114.33  4.2018399E-01
   7114.67  4.3011763E-01
   7115.00  3.6344272E-01
   7115.33  2.8272636E-01
   7115.67  2.1726919E-01
   7116.00  1.6829264E-01
   7116.33  1.3567720E-01
   7116.67  1.1453987E-01
   7117.00  1.0208769E-01
   7117.33  9.6642982E-02
   7117.67  9.5913975E-02
   7118.00  9.8911780E-02
   7118.33  1.0463910E-01
   7118.67  1.1210525E-01
   7119.00  1.2219095E-01
   7119.33  1.3767233E-01
   7119.67  1.6018514E-01
   7120.00  1.9082656E-01
   7120.33  2.2803244E-01
   7120.67  2.6257520E-01
   7121.00  2.8631521E-01
   7121.33  2.9724806E-01
   7121.67  3.0311237E-01
   7122.00  3.0771816E-01
   7122.33  3.1236905E-01
   7122.67  3.1732175E-01
   7123.00  3.2299516E-01
   7123.33  3.3079924E-01
   7123.67  3.4237759E-01
   7124.00  3.5867086E-01
   7124.33  3.7757879E-01
   7124.67  3.9233474E-01
   7125.00  3.9771946E-01
   7125.33  3.9318841E-01
   7125.67  3.8689266E-01
   7126.00  3.8487037E-01
   7126.33  3.9110607E-01
   7126.67  4.0424670E-01
   7127.00  4.2275691E-01
   7127.33  4.4499000E-01
   7127.67  4.6898618E-01
   7128.00  4.9415259E-01
   7128.33  5.2010461E-01
   7128.67  5.4571543E-01
   7129.00  5.6962602E-01
   7129.33  5.8971292E-01
   7129.67  6.0486720E-01
   7130.00  6.1419297E-01
   7130.33  6.1701562E-01
   7130.67  6.1567626E-01
   7131.00  6.1253151E-01
   7131.33  6.1050765E-01
   7131.67  6.1121299E-01
   7132.00  6.1495401E-01
   7132.33  6.2159193E-01
   7132.67  6.3039392E-01
   7133.00  6.4146555E-01
   7133.33  6.5581188E-01
   7133.67  6.7409449E-01
   7134.00  6.9731105E-01
   7134.33  7.2685129E-01
   7134.67  7.6068998E-01
   7135.00  7.9434619E-01
   7135.33  8.1685478E-01
   7135.67  8.2002882E-01
   7136.00  8.0280517E-01
   7136.33  7.7164947E-01
   7136.67  7.3822584E-01
   7137.00  7.0799214E-01
   7137.33  6.8396970E-01
   7137.67  6.6531261E-01
   7138.00  6.5098313E-01
   7138.33  6.3965619E-01
   7138.67  6.2930359E-01
   7139.00  6.1880317E-01
   7139.33  6.0735799E-01
   7139.67  5.9496390E-01
   7140.00  5.8182804E-01
   7140.33  5.6835507E-01
   7140.67  5.5515814E-01
   7141.00  5.4279568E-01
   7141.33  5.3211656E-01
   7141.67  5.2350445E-01
   7142.00  5.1728807E-01
   7142.33  5.1390095E-01
   7142.67  5.1284540E-01
   7143.00  5.1375458E-01
   7143.33  5.1621380E-01
   7143.67  5.1940208E-01
   7144.00  5.2279504E-01
   7144.33  5.2585021E-01
   7144.67  5.2824612E-01
   7145.00  5.2979855E-01
   7145.33  5.3031491E-01
   7145.67  5.2991951E-01
   7146.00  5.2863685E-01
   7146.33  5.2637266E-01
   7146.67  5.2321916E-01
   7147.00  5.1913395E-01
   7147.33  5.1392368E-01
   7147.67  5.0765942E-01
   7148.00  5.0034678E-01
   7148.33  4.9199070E-01
   7148.67  4.8299386E-01
   7149.00  4.7374179E-01
   7149.33  4.6484279E-01
   7149.67  4.5686591E-01
   7150.00  4.5028117E-01
   7150.33  4.4571725E-01
   7150.67  4.4314721E-01
   7151.00  4.4257225E-01
   7151.33  4.4405255E-01
   7151.67  4.4704776E-01
   7152.00  4.5120865E-01
   7152.33  4.5614273E-01
   7152.67  4.6123406E-01
   7153.00  4.6602213E-01
   7153.33  4.6991331E-01
   7153.67  4.7260573E-01
   7154.00  4.7386716E-01
   7154.33  4.7341733E-01
   7154.67  4.7154033E-01
   7155.00  4.6841962E-01
   7155.33  4.6421935E-01
   7155.67  4.5936437E-01
   7156.00  4.5409469E-01
   7156.33  4.4861433E-01
   7156.67  4.4310969E-01
   7157.00  4.3767339E-01
   7157.33  4.3238699E-01
   7157.67  4.2726683E-01
   7158.00  4.2232690E-01
   7158.33  4.1759943E-01
   7158.67  4.1306834E-01
   7159.00  4.0874430E-01
   7159.33  4.0467524E-01
   7159.67  4.0086148E-01
   7160.00  3.9733558E-01
   7160.33  3.9418334E-01
   7160.67  3.9140982E-01
   7161.00  3.8905381E-01
   7161.33  3.8721106E-01
   7161.67  3.8585158E-01
   7162.00  3.8498741E-01
   7162.33  3.8467475E-01
   7162.67  3.8482319E-01
   7163.00  3.8539096E-01
   7163.33  3.8635725E-01
   7163.67  3.8759914E-01
   7164.00  3.8904134E-01
   7164.33  3.9060561E-01
   7164.67  3.9218876E-01
   7165.00  3.9372077E-01
   7165.33  3.9511944E-01
   7165.67  3.9635282E-01
   7166.00  3.9740239E-01
   7166.33  3.9825256E-01
   7166.67  3.9895950E-01
   7167.00  3.9957036E-01
   7167.33  4.0015136E-01
   7167.67  4.0078220E-01
   7168.00  4.0152650E-01
   7168.33  4.0247138E-01
   7168.67  4.0364349E-01
   7169.00  4.0506900E-01
   7169.33  4.0679323E-01
   7169.67  4.0877716E-01
   7170.00  4.1100247E-01
   7170.33  4.1345883E-01
   7170.67  4.1606740E-01
   7171.00  4.1876402E-01
   7171.33  4.2143503E-01
   7171.67  4.2390468E-01
   7172.00  4.2595421E-01
