    FDMNES
    energy     <xanes>
   7097.00  4.7167663E-03
   7097.33  4.8221200E-03
   7097.67  4.9320654E-03
   7098.00  5.0469074E-03
   7098.33  5.1676999E-03
   7098.67  5.2942191E-03
   7099.00  5.4268807E-03
   7099.33  5.5670594E-03
   7099.67  5.7145270E-03
   7100.00  5.8698657E-03
   7100.33  6.0349183E-03
   7100.67  6.2094741E-03
   7101.00  6.3943757E-03
   7101.33  6.5921746E-03
   7101.67  6.8027274E-03
   7102.00  7.0273023E-03
   7102.33  7.2695725E-03
   7102.67  7.5295737E-03
   7103.00  7.8093058E-03
   7103.33  8.1143188E-03
   7103.67  8.4450833E-03
   7104.00  8.8049425E-03
   7104.33  9.2028036E-03
   7104.67  9.6401941E-03
   7105.00  1.0123128E-02
   7105.33  1.0667055E-02
   7105.67  1.1276200E-02
   7106.00  1.1962469E-02
   7106.33  1.2755561E-02
   7106.67  1.3667284E-02
   7107.00  1.4724465E-02
   7107.33  1.5992991E-02
   7107.67  1.7509453E-02
   7108.00  1.9346683E-02
   7108.33  2.1685207E-02
   7108.67  2.4664719E-02
   7109.00  2.8548627E-02
   7109.33  3.4028950E-02
   7109.67  4.1875494E-02
   7110.00  5.3591272E-02
   7110.33  7.3516845E-02
   7110.67  1.0673456E-01
   7111.00  1.5695776E-01
   7111.33  2.1570367E-01
   7111.67  2.5740870E-01
   7112.00  2.6680966E-01
   7112.33  2.5182319E-01
   7112.67  2.2982701E-01
   7113.00  2.0914209E-01
   7113.33  2.0509622E-01
   7113.67  2.1600611E-01
   7114.00  2.2769211E-01
   7114.33  2.3549156E-01
   7114.67  2.3971729E-01
   7115.00  2.2805266E-01
   7115.33  1.9097888E-01
   7115.67  1.4946285E-01
   7116.00  1.1756840E-01
   7116.33  9.9174007E-02
   7116.67  8.9850173E-02
   7117.00  8.7374351E-02
   7117.33  9.0597166E-02
   7117.67  9.7470266E-02
   7118.00  1.0729021E-01
   7118.33  1.2033016E-01
   7118.67  1.3471510E-01
   7119.00  1.4719295E-01
   7119.33  1.5674202E-01
   7119.67  1.6772554E-01
   7120.00  1.8260639E-01
   7120.33  2.0033236E-01
   7120.67  2.1663348E-01
   7121.00  2.2985614E-01
   7121.33  2.4206428E-01
   7121.67  2.5658936E-01
   7122.00  2.7383923E-01
   7122.33  2.9015605E-01
   7122.67  3.0115357E-01
   7123.00  3.0779565E-01
   7123.33  3.1582510E-01
   7123.67  3.2775276E-01
   7124.00  3.4116499E-01
   7124.33  3.5024066E-01
   7124.67  3.5273523E-01
   7125.00  3.5069787E-01
   7125.33  3.4917601E-01
   7125.67  3.5186378E-01
   7126.00  3.5987204E-01
   7126.33  3.7333967E-01
   7126.67  3.9012537E-01
   7127.00  4.0855797E-01
   7127.33  4.2723740E-01
   7127.67  4.4603944E-01
   7128.00  4.6553722E-01
   7128.33  4.8603645E-01
   7128.67  5.0653440E-01
   7129.00  5.2589377E-01
   7129.33  5.4320511E-01
   7129.67  5.5890563E-01
   7130.00  5.7336582E-01
   7130.33  5.8659082E-01
   7130.67  5.9864196E-01
   7131.00  6.0959339E-01
   7131.33  6.1976417E-01
   7131.67  6.2978710E-01
   7132.00  6.4019508E-01
   7132.33  6.5206661E-01
   7132.67  6.6640749E-01
   7133.00  6.8395768E-01
   7133.33  7.0470055E-01
   7133.67  7.2559699E-01
   7134.00  7.4242781E-01
   7134.33  7.4922168E-01
   7134.67  7.4601082E-01
   7135.00  7.3561220E-01
   7135.33  7.2242041E-01
   7135.67  7.1010702E-01
   7136.00  6.9996153E-01
   7136.33  6.9257595E-01
   7136.67  6.8732025E-01
   7137.00  6.8377503E-01
   7137.33  6.8166104E-01
   7137.67  6.8053267E-01
   7138.00  6.8025629E-01
   7138.33  6.8082137E-01
   7138.67  6.8201062E-01
   7139.00  6.8365102E-01
   7139.33  6.8537272E-01
   7139.67  6.8650983E-01
   7140.00  6.8630384E-01
   7140.33  6.8359508E-01
   7140.67  6.7810398E-01
   7141.00  6.6976977E-01
   7141.33  6.5868272E-01
   7141.67  6.4586849E-01
   7142.00  6.3201122E-01
   7142.33  6.1772903E-01
   7142.67  6.0349922E-01
   7143.00  5.8950433E-01
   7143.33  5.7582452E-01
   7143.67  5.6237578E-01
   7144.00  5.4912248E-01
   7144.33  5.3614488E-01
   7144.67  5.2360054E-01
   7145.00  5.1174940E-01
   7145.33  5.0108312E-01
   7145.67  4.9181372E-01
   7146.00  4.8416536E-01
   7146.33  4.7848515E-01
   7146.67  4.7452588E-01
   7147.00  4.7214624E-01
   7147.33  4.7123815E-01
   7147.67  4.7130378E-01
   7148.00  4.7205911E-01
   7148.33  4.7328717E-01
   7148.67  4.7475441E-01
   7149.00  4.7636291E-01
   7149.33  4.7803393E-01
   7149.67  4.7967861E-01
   7150.00  4.8122102E-01
   7150.33  4.8252464E-01
   7150.67  4.8348365E-01
   7151.00  4.8398626E-01
   7151.33  4.8386253E-01
   7151.67  4.8313256E-01
   7152.00  4.8180180E-01
   7152.33  4.7986846E-01
   7152.67  4.7751623E-01
   7153.00  4.7487233E-01
   7153.33  4.7208012E-01
   7153.67  4.6931819E-01
   7154.00  4.6672281E-01
   7154.33  4.6448188E-01
   7154.67  4.6268671E-01
   7155.00  4.6142919E-01
   7155.33  4.6086010E-01
   7155.67  4.6093283E-01
   7156.00  4.6163233E-01
   7156.33  4.6296197E-01
   7156.67  4.6473674E-01
   7157.00  4.6682726E-01
   7157.33  4.6907952E-01
   7157.67  4.7129687E-01
   7158.00  4.7333172E-01
   7158.33  4.7498316E-01
   7158.67  4.7615767E-01
   7159.00  4.7676692E-01
   7159.33  4.7667280E-01
   7159.67  4.7594359E-01
   7160.00  4.7461587E-01
   7160.33  4.7271832E-01
   7160.67  4.7043704E-01
   7161.00  4.6789012E-01
   7161.33  4.6520080E-01
   7161.67  4.6251160E-01
   7162.00  4.5990988E-01
   7162.33  4.5748525E-01
   7162.67  4.5525387E-01
   7163.00  4.5322306E-01
   7163.33  4.5140416E-01
   7163.67  4.4974539E-01
   7164.00  4.4821512E-01
   7164.33  4.4678760E-01
   7164.67  4.4542087E-01
   7165.00  4.4409884E-01
   7165.33  4.4282443E-01
   7165.67  4.4161054E-01
   7166.00  4.4048947E-01
   7166.33  4.3953338E-01
   7166.67  4.3878914E-01
   7167.00  4.3831461E-01
   7167.33  4.3821010E-01
   7167.67  4.3847375E-01
   7168.00  4.3911700E-01
   7168.33  4.4017173E-01
   7168.67  4.4155288E-01
   7169.00  4.4321116E-01
   7169.33  4.4510446E-01
   7169.67  4.4713389E-01
   7170.00  4.4923761E-01
   7170.33  4.5134853E-01
   7170.67  4.5340395E-01
   7171.00  4.5535470E-01
   7171.33  4.5712175E-01
   7171.67  4.5865239E-01
   7172.00  4.5986713E-01
