    FDMNES
    energy     <xanes>
   7097.00  4.8588177E-03
   7097.33  4.9674773E-03
   7097.67  5.0808464E-03
   7098.00  5.1992376E-03
   7098.33  5.3237323E-03
   7098.67  5.4541015E-03
   7099.00  5.5907729E-03
   7099.33  5.7351596E-03
   7099.67  5.8870304E-03
   7100.00  6.0469871E-03
   7100.33  6.2169298E-03
   7100.67  6.3966504E-03
   7101.00  6.5870256E-03
   7101.33  6.7906994E-03
   7101.67  7.0075433E-03
   7102.00  7.2388881E-03
   7102.33  7.4885689E-03
   7102.67  7.7566646E-03
   7103.00  8.0452983E-03
   7103.33  8.3603250E-03
   7103.67  8.7023265E-03
   7104.00  9.0749040E-03
   7104.33  9.4875877E-03
   7104.67  9.9421886E-03
   7105.00  1.0445303E-02
   7105.33  1.1013767E-02
   7105.67  1.1652562E-02
   7106.00  1.2375033E-02
   7106.33  1.3214304E-02
   7106.67  1.4184385E-02
   7107.00  1.5316115E-02
   7107.33  1.6685034E-02
   7107.67  1.8335147E-02
   7108.00  2.0352527E-02
   7108.33  2.2950614E-02
   7108.67  2.6300290E-02
   7109.00  3.0721682E-02
   7109.33  3.7058576E-02
   7109.67  4.6269121E-02
   7110.00  6.0221874E-02
   7110.33  8.4292349E-02
   7110.67  1.2445974E-01
   7111.00  1.8398299E-01
   7111.33  2.5562965E-01
   7111.67  3.2084598E-01
   7112.00  3.4202396E-01
   7112.33  2.9060722E-01
   7112.67  2.2347240E-01
   7113.00  1.7060874E-01
   7113.33  1.3665081E-01
   7113.67  1.1349542E-01
   7114.00  9.7766135E-02
   7114.33  8.8208040E-02
   7114.67  8.2619889E-02
   7115.00  7.9846898E-02
   7115.33  7.9288663E-02
   7115.67  8.0490936E-02
   7116.00  8.3522857E-02
   7116.33  8.8634440E-02
   7116.67  9.5537468E-02
   7117.00  1.0410098E-01
   7117.33  1.1417195E-01
   7117.67  1.2533858E-01
   7118.00  1.3772093E-01
   7118.33  1.5184726E-01
   7118.67  1.6765584E-01
   7119.00  1.8497037E-01
   7119.33  2.0337224E-01
   7119.67  2.2185513E-01
   7120.00  2.3957248E-01
   7120.33  2.5580451E-01
   7120.67  2.7106871E-01
   7121.00  2.8637086E-01
   7121.33  3.0343913E-01
   7121.67  3.2339347E-01
   7122.00  3.4677779E-01
   7122.33  3.7369430E-01
   7122.67  4.0263199E-01
   7123.00  4.3241653E-01
   7123.33  4.6176612E-01
   7123.67  4.8897621E-01
   7124.00  5.1180455E-01
   7124.33  5.2768714E-01
   7124.67  5.3794416E-01
   7125.00  5.4440543E-01
   7125.33  5.4899488E-01
   7125.67  5.5289579E-01
   7126.00  5.5619719E-01
   7126.33  5.5906971E-01
   7126.67  5.6212530E-01
   7127.00  5.6566123E-01
   7127.33  5.6940218E-01
   7127.67  5.7262083E-01
   7128.00  5.7489483E-01
   7128.33  5.7606791E-01
   7128.67  5.7645410E-01
   7129.00  5.7624415E-01
   7129.33  5.7573822E-01
   7129.67  5.7540056E-01
   7130.00  5.7554837E-01
   7130.33  5.7641613E-01
   7130.67  5.7780923E-01
   7131.00  5.7945309E-01
   7131.33  5.8094899E-01
   7131.67  5.8211623E-01
   7132.00  5.8309263E-01
   7132.33  5.8440078E-01
   7132.67  5.8656234E-01
   7133.00  5.8984361E-01
   7133.33  5.9437869E-01
   7133.67  5.9985243E-01
   7134.00  6.0606438E-01
   7134.33  6.1280024E-01
   7134.67  6.1970127E-01
   7135.00  6.2650724E-01
   7135.33  6.3289192E-01
   7135.67  6.3867370E-01
   7136.00  6.4371146E-01
   7136.33  6.4780098E-01
   7136.67  6.5100158E-01
   7137.00  6.5329351E-01
   7137.33  6.5454608E-01
   7137.67  6.5487461E-01
   7138.00  6.5430188E-01
   7138.33  6.5279045E-01
   7138.67  6.5056279E-01
   7139.00  6.4775935E-01
   7139.33  6.4452884E-01
   7139.67  6.4113039E-01
   7140.00  6.3774218E-01
   7140.33  6.3457571E-01
   7140.67  6.3175570E-01
   7141.00  6.2936924E-01
   7141.33  6.2751809E-01
   7141.67  6.2611704E-01
   7142.00  6.2509540E-01
   7142.33  6.2436615E-01
   7142.67  6.2376686E-01
   7143.00  6.2320158E-01
   7143.33  6.2259544E-01
   7143.67  6.2195091E-01
   7144.00  6.2132006E-01
   7144.33  6.2078684E-01
   7144.67  6.2040183E-01
   7145.00  6.2019404E-01
   7145.33  6.2016463E-01
   7145.67  6.2020089E-01
   7146.00  6.2016040E-01
   7146.33  6.1977810E-01
   7146.67  6.1882775E-01
   7147.00  6.1708342E-01
   7147.33  6.1419404E-01
   7147.67  6.1013885E-01
   7148.00  6.0486650E-01
   7148.33  5.9825726E-01
   7148.67  5.9057353E-01
   7149.00  5.8196853E-01
   7149.33  5.7257389E-01
   7149.67  5.6270676E-01
   7150.00  5.5254758E-01
   7150.33  5.4225904E-01
   7150.67  5.3199230E-01
   7151.00  5.2183212E-01
   7151.33  5.1185813E-01
   7151.67  5.0207343E-01
   7152.00  4.9248013E-01
   7152.33  4.8309192E-01
   7152.67  4.7387458E-01
   7153.00  4.6482312E-01
   7153.33  4.5596253E-01
   7153.67  4.4728893E-01
   7154.00  4.3882928E-01
   7154.33  4.3066034E-01
   7154.67  4.2280630E-01
   7155.00  4.1532244E-01
   7155.33  4.0833023E-01
   7155.67  4.0183922E-01
   7156.00  3.9589890E-01
   7156.33  3.9063086E-01
   7156.67  3.8599235E-01
   7157.00  3.8199655E-01
   7157.33  3.7872134E-01
   7157.67  3.7606705E-01
   7158.00  3.7400465E-01
   7158.33  3.7255566E-01
   7158.67  3.7159248E-01
   7159.00  3.7105688E-01
   7159.33  3.7092260E-01
   7159.67  3.7107537E-01
   7160.00  3.7146040E-01
   7160.33  3.7204584E-01
   7160.67  3.7276845E-01
   7161.00  3.7360556E-01
   7161.33  3.7455773E-01
   7161.67  3.7560841E-01
   7162.00  3.7675508E-01
   7162.33  3.7801369E-01
   7162.67  3.7938269E-01
   7163.00  3.8087142E-01
   7163.33  3.8250199E-01
   7163.67  3.8425992E-01
   7164.00  3.8614311E-01
   7164.33  3.8816179E-01
   7164.67  3.9029459E-01
   7165.00  3.9253645E-01
   7165.33  3.9489664E-01
   7165.67  3.9736055E-01
   7166.00  3.9992854E-01
   7166.33  4.0261545E-01
   7166.67  4.0541023E-01
   7167.00  4.0831464E-01
   7167.33  4.1134348E-01
   7167.67  4.1448174E-01
   7168.00  4.1772599E-01
   7168.33  4.2108006E-01
   7168.67  4.2451761E-01
   7169.00  4.2802218E-01
   7169.33  4.3157553E-01
   7169.67  4.3514324E-01
   7170.00  4.3869592E-01
   7170.33  4.4218701E-01
   7170.67  4.4557558E-01
   7171.00  4.4881047E-01
   7171.33  4.5178116E-01
   7171.67  4.5439265E-01
   7172.00  4.5649870E-01
