    FDMNES
    energy     <xanes>
   7097.00  4.0226755E-03
   7097.33  4.1011022E-03
   7097.67  4.1824771E-03
   7098.00  4.2669780E-03
   7098.33  4.3552519E-03
   7098.67  4.4471326E-03
   7099.00  4.5428597E-03
   7099.33  4.6432633E-03
   7099.67  4.7481719E-03
   7100.00  4.8579190E-03
   7100.33  4.9736006E-03
   7100.67  5.0950533E-03
   7101.00  5.2227583E-03
   7101.33  5.3582150E-03
   7101.67  5.5012985E-03
   7102.00  5.6527333E-03
   7102.33  5.8146625E-03
   7102.67  5.9870681E-03
   7103.00  6.1711005E-03
   7103.33  6.3699927E-03
   7103.67  6.5839949E-03
   7104.00  6.8150551E-03
   7104.33  7.0683945E-03
   7104.67  7.3449322E-03
   7105.00  7.6482462E-03
   7105.33  7.9875387E-03
   7105.67  8.3654877E-03
   7106.00  8.7893953E-03
   7106.33  9.2774698E-03
   7106.67  9.8375173E-03
   7107.00  1.0486731E-02
   7107.33  1.1267398E-02
   7107.67  1.2205006E-02
   7108.00  1.3349298E-02
   7108.33  1.4824700E-02
   7108.67  1.6736308E-02
   7109.00  1.9282234E-02
   7109.33  2.2996107E-02
   7109.67  2.8528597E-02
   7110.00  3.7169537E-02
   7110.33  5.2630286E-02
   7110.67  7.8091872E-02
   7111.00  1.0995915E-01
   7111.33  1.2709344E-01
   7111.67  1.2655950E-01
   7112.00  1.2460204E-01
   7112.33  1.3743383E-01
   7112.67  1.5020035E-01
   7113.00  1.4020675E-01
   7113.33  1.1627631E-01
   7113.67  9.8593830E-02
   7114.00  8.3927722E-02
   7114.33  7.0628737E-02
   7114.67  6.0447002E-02
   7115.00  5.3184467E-02
   7115.33  4.6077538E-02
   7115.67  4.0004625E-02
   7116.00  3.6031368E-02
   7116.33  3.4050054E-02
   7116.67  3.3279003E-02
   7117.00  3.3352879E-02
   7117.33  3.3963580E-02
   7117.67  3.4725474E-02
   7118.00  3.5470413E-02
   7118.33  3.6218578E-02
   7118.67  3.7153015E-02
   7119.00  3.8448406E-02
   7119.33  4.0324091E-02
   7119.67  4.2836844E-02
   7120.00  4.6098434E-02
   7120.33  5.0390458E-02
   7120.67  5.5812928E-02
   7121.00  6.2583350E-02
   7121.33  7.1202594E-02
   7121.67  8.1831011E-02
   7122.00  9.4868715E-02
   7122.33  1.1118913E-01
   7122.67  1.3047506E-01
   7123.00  1.5172493E-01
   7123.33  1.7302526E-01
   7123.67  1.9418481E-01
   7124.00  2.1700022E-01
   7124.33  2.4421954E-01
   7124.67  2.7609424E-01
   7125.00  3.1269137E-01
   7125.33  3.5673879E-01
   7125.67  4.1063255E-01
   7126.00  4.7534340E-01
   7126.33  5.4835544E-01
   7126.67  6.2252343E-01
   7127.00  6.9183463E-01
   7127.33  7.4574059E-01
   7127.67  7.8139241E-01
   7128.00  8.0355729E-01
   7128.33  8.1484018E-01
   7128.67  8.1350674E-01
   7129.00  8.0061680E-01
   7129.33  7.8538215E-01
   7129.67  7.7884718E-01
   7130.00  7.8504869E-01
   7130.33  8.0144442E-01
   7130.67  8.1412542E-01
   7131.00  8.1057579E-01
   7131.33  7.8697217E-01
   7131.67  7.5724093E-01
   7132.00  7.3097473E-01
   7132.33  7.1429486E-01
   7132.67  7.0642749E-01
   7133.00  7.0569609E-01
   7133.33  7.1005469E-01
   7133.67  7.1686110E-01
   7134.00  7.2534251E-01
   7134.33  7.3579164E-01
   7134.67  7.4784333E-01
   7135.00  7.6016475E-01
   7135.33  7.6989438E-01
   7135.67  7.7529910E-01
   7136.00  7.7592264E-01
   7136.33  7.7207597E-01
   7136.67  7.6577430E-01
   7137.00  7.5832827E-01
   7137.33  7.5084409E-01
   7137.67  7.4380179E-01
   7138.00  7.3710834E-01
   7138.33  7.3022830E-01
   7138.67  7.2252954E-01
   7139.00  7.1357307E-01
   7139.33  7.0296583E-01
   7139.67  6.9103117E-01
   7140.00  6.7812372E-01
   7140.33  6.6479720E-01
   7140.67  6.5179289E-01
   7141.00  6.3967913E-01
   7141.33  6.2912382E-01
   7141.67  6.2018867E-01
   7142.00  6.1287036E-01
   7142.33  6.0715222E-01
   7142.67  6.0254420E-01
   7143.00  5.9877099E-01
   7143.33  5.9566785E-01
   7143.67  5.9303415E-01
   7144.00  5.9084956E-01
   7144.33  5.8925612E-01
   7144.67  5.8833439E-01
   7145.00  5.8821315E-01
   7145.33  5.8908797E-01
   7145.67  5.9081369E-01
   7146.00  5.9325300E-01
   7146.33  5.9618476E-01
   7146.67  5.9920218E-01
   7147.00  6.0201604E-01
   7147.33  6.0429036E-01
   7147.67  6.0588084E-01
   7148.00  6.0666322E-01
   7148.33  6.0641028E-01
   7148.67  6.0514241E-01
   7149.00  6.0280976E-01
   7149.33  5.9924987E-01
   7149.67  5.9458349E-01
   7150.00  5.8881323E-01
   7150.33  5.8186191E-01
   7150.67  5.7396138E-01
   7151.00  5.6520897E-01
   7151.33  5.5559615E-01
   7151.67  5.4524466E-01
   7152.00  5.3411368E-01
   7152.33  5.2197038E-01
   7152.67  5.0879604E-01
   7153.00  4.9454213E-01
   7153.33  4.7916708E-01
   7153.67  4.6304804E-01
   7154.00  4.4650945E-01
   7154.33  4.2998521E-01
   7154.67  4.1388179E-01
   7155.00  3.9847319E-01
   7155.33  3.8406720E-01
   7155.67  3.7062582E-01
   7156.00  3.5814347E-01
   7156.33  3.4669211E-01
   7156.67  3.3611558E-01
   7157.00  3.2639917E-01
   7157.33  3.1765966E-01
   7157.67  3.0981034E-01
   7158.00  3.0286817E-01
   7158.33  2.9694956E-01
   7158.67  2.9191513E-01
   7159.00  2.8771666E-01
   7159.33  2.8436242E-01
   7159.67  2.8165097E-01
   7160.00  2.7948463E-01
   7160.33  2.7781639E-01
   7160.67  2.7651934E-01
   7161.00  2.7556418E-01
   7161.33  2.7498994E-01
   7161.67  2.7479132E-01
   7162.00  2.7503369E-01
   7162.33  2.7587524E-01
   7162.67  2.7733612E-01
   7163.00  2.7947855E-01
   7163.33  2.8244458E-01
   7163.67  2.8615770E-01
   7164.00  2.9060054E-01
   7164.33  2.9580394E-01
   7164.67  3.0159310E-01
   7165.00  3.0786422E-01
   7165.33  3.1451657E-01
   7165.67  3.2135096E-01
   7166.00  3.2822926E-01
   7166.33  3.3498712E-01
   7166.67  3.4151225E-01
   7167.00  3.4772292E-01
   7167.33  3.5350825E-01
   7167.67  3.5888260E-01
   7168.00  3.6383771E-01
   7168.33  3.6833036E-01
   7168.67  3.7243360E-01
   7169.00  3.7617369E-01
   7169.33  3.7954748E-01
   7169.67  3.8263783E-01
   7170.00  3.8548160E-01
   7170.33  3.8809351E-01
   7170.67  3.9053220E-01
   7171.00  3.9281371E-01
   7171.33  3.9490956E-01
   7171.67  3.9678102E-01
   7172.00  3.9832493E-01
