    FDMNES
    energy     <xanes>
   7097.00  4.9844519E-03
   7097.33  5.1000800E-03
   7097.67  5.2208684E-03
   7098.00  5.3471618E-03
   7098.33  5.4801468E-03
   7098.67  5.6195729E-03
   7099.00  5.7659079E-03
   7099.33  5.9206977E-03
   7099.67  6.0836835E-03
   7100.00  6.2555173E-03
   7100.33  6.4382642E-03
   7100.67  6.6316790E-03
   7101.00  6.8366977E-03
   7101.33  7.0561632E-03
   7101.67  7.2898926E-03
   7102.00  7.5392782E-03
   7102.33  7.8083771E-03
   7102.67  8.0971756E-03
   7103.00  8.4078368E-03
   7103.33  8.7464083E-03
   7103.67  9.1132886E-03
   7104.00  9.5120192E-03
   7104.33  9.9521180E-03
   7104.67  1.0434970E-02
   7105.00  1.0966767E-02
   7105.33  1.1563562E-02
   7105.67  1.2229186E-02
   7106.00  1.2975432E-02
   7106.33  1.3831943E-02
   7106.67  1.4809128E-02
   7107.00  1.5932175E-02
   7107.33  1.7263118E-02
   7107.67  1.8832555E-02
   7108.00  2.0703813E-02
   7108.33  2.3032810E-02
   7108.67  2.5926795E-02
   7109.00  2.9590472E-02
   7109.33  3.4548979E-02
   7109.67  4.1322199E-02
   7110.00  5.0910014E-02
   7110.33  6.6110916E-02
   7110.67  9.0117373E-02
   7111.00  1.2643201E-01
   7111.33  1.8023097E-01
   7111.67  2.5217580E-01
   7112.00  3.1726928E-01
   7112.33  3.2937492E-01
   7112.67  3.4326119E-01
   7113.00  3.7898496E-01
   7113.33  3.7807843E-01
   7113.67  3.2564090E-01
   7114.00  2.5757913E-01
   7114.33  2.0783913E-01
   7114.67  1.8540653E-01
   7115.00  1.9070803E-01
   7115.33  2.2728521E-01
   7115.67  2.8330656E-01
   7116.00  3.2947199E-01
   7116.33  3.2319529E-01
   7116.67  2.8252309E-01
   7117.00  2.3571260E-01
   7117.33  2.0010030E-01
   7117.67  1.7642517E-01
   7118.00  1.6216421E-01
   7118.33  1.5462459E-01
   7118.67  1.5080471E-01
   7119.00  1.4955836E-01
   7119.33  1.4980327E-01
   7119.67  1.5019973E-01
   7120.00  1.5036930E-01
   7120.33  1.5025675E-01
   7120.67  1.4901953E-01
   7121.00  1.4642228E-01
   7121.33  1.4444621E-01
   7121.67  1.4527112E-01
   7122.00  1.5000757E-01
   7122.33  1.5932538E-01
   7122.67  1.7181528E-01
   7123.00  1.8613505E-01
   7123.33  2.0067221E-01
   7123.67  2.1421673E-01
   7124.00  2.2636899E-01
   7124.33  2.3737208E-01
   7124.67  2.4812522E-01
   7125.00  2.5906073E-01
   7125.33  2.7055017E-01
   7125.67  2.8328671E-01
   7126.00  2.9828951E-01
   7126.33  3.1683063E-01
   7126.67  3.3861767E-01
   7127.00  3.6324997E-01
   7127.33  3.9024766E-01
   7127.67  4.1846382E-01
   7128.00  4.4738485E-01
   7128.33  4.7729871E-01
   7128.67  5.0860754E-01
   7129.00  5.4128614E-01
   7129.33  5.7437908E-01
   7129.67  6.0636753E-01
   7130.00  6.3657828E-01
   7130.33  6.6535771E-01
   7130.67  6.9452085E-01
   7131.00  7.2558278E-01
   7131.33  7.5939826E-01
   7131.67  7.9450918E-01
   7132.00  8.2932542E-01
   7132.33  8.6157620E-01
   7132.67  8.8914403E-01
   7133.00  9.0967030E-01
   7133.33  9.1967598E-01
   7133.67  9.1951890E-01
   7134.00  9.1013458E-01
   7134.33  8.9335741E-01
   7134.67  8.7329691E-01
   7135.00  8.5232436E-01
   7135.33  8.3192525E-01
   7135.67  8.1182562E-01
   7136.00  7.9092854E-01
   7136.33  7.6750067E-01
   7136.67  7.4100117E-01
   7137.00  7.1155917E-01
   7137.33  6.8001060E-01
   7137.67  6.4821577E-01
   7138.00  6.1759695E-01
   7138.33  5.8989211E-01
   7138.67  5.6588537E-01
   7139.00  5.4622684E-01
   7139.33  5.3179893E-01
   7139.67  5.2183853E-01
   7140.00  5.1590771E-01
   7140.33  5.1375114E-01
   7140.67  5.1424167E-01
   7141.00  5.1682652E-01
   7141.33  5.2117364E-01
   7141.67  5.2668979E-01
   7142.00  5.3310080E-01
   7142.33  5.4014346E-01
   7142.67  5.4728945E-01
   7143.00  5.5398485E-01
   7143.33  5.5925029E-01
   7143.67  5.6237227E-01
   7144.00  5.6274150E-01
   7144.33  5.5963492E-01
   7144.67  5.5358084E-01
   7145.00  5.4505568E-01
   7145.33  5.3471143E-01
   7145.67  5.2372481E-01
   7146.00  5.1287343E-01
   7146.33  5.0298348E-01
   7146.67  4.9442220E-01
   7147.00  4.8741155E-01
   7147.33  4.8225079E-01
   7147.67  4.7870446E-01
   7148.00  4.7667220E-01
   7148.33  4.7615098E-01
   7148.67  4.7679023E-01
   7149.00  4.7844001E-01
   7149.33  4.8104229E-01
   7149.67  4.8433900E-01
   7150.00  4.8820863E-01
   7150.33  4.9257826E-01
   7150.67  4.9728288E-01
   7151.00  5.0224537E-01
   7151.33  5.0742060E-01
   7151.67  5.1274411E-01
   7152.00  5.1820096E-01
   7152.33  5.2380816E-01
   7152.67  5.2956034E-01
   7153.00  5.3546768E-01
   7153.33  5.4155415E-01
   7153.67  5.4778882E-01
   7154.00  5.5414702E-01
   7154.33  5.6059221E-01
   7154.67  5.6705188E-01
   7155.00  5.7346155E-01
   7155.33  5.7972115E-01
   7155.67  5.8575807E-01
   7156.00  5.9149334E-01
   7156.33  5.9678702E-01
   7156.67  6.0160304E-01
   7157.00  6.0587665E-01
   7157.33  6.0947141E-01
   7157.67  6.1242069E-01
   7158.00  6.1470416E-01
   7158.33  6.1622928E-01
   7158.67  6.1708473E-01
   7159.00  6.1728264E-01
   7159.33  6.1676057E-01
   7159.67  6.1561435E-01
   7160.00  6.1385575E-01
   7160.33  6.1142341E-01
   7160.67  6.0840969E-01
   7161.00  6.0483668E-01
   7161.33  6.0067777E-01
   7161.67  5.9605151E-01
   7162.00  5.9101129E-01
   7162.33  5.8558054E-01
   7162.67  5.7987052E-01
   7163.00  5.7393669E-01
   7163.33  5.6781522E-01
   7163.67  5.6157366E-01
   7164.00  5.5524305E-01
   7164.33  5.4884081E-01
   7164.67  5.4239253E-01
   7165.00  5.3591017E-01
   7165.33  5.2940388E-01
   7165.67  5.2289180E-01
   7166.00  5.1639050E-01
   7166.33  5.0992572E-01
   7166.67  5.0351705E-01
   7167.00  4.9718524E-01
   7167.33  4.9096444E-01
   7167.67  4.8486101E-01
   7168.00  4.7888884E-01
   7168.33  4.7307905E-01
   7168.67  4.6742712E-01
   7169.00  4.6194786E-01
   7169.33  4.5668954E-01
   7169.67  4.5165271E-01
   7170.00  4.4685673E-01
   7170.33  4.4235861E-01
   7170.67  4.3815346E-01
   7171.00  4.3427255E-01
   7171.33  4.3081764E-01
   7171.67  4.2783485E-01
   7172.00  4.2544043E-01
