    FDMNES
    energy     <xanes>
   7097.00  5.1742892E-03
   7097.33  5.2994442E-03
   7097.67  5.4303717E-03
   7098.00  5.5674632E-03
   7098.33  5.7120555E-03
   7098.67  5.8638752E-03
   7099.00  6.0234536E-03
   7099.33  6.1925348E-03
   7099.67  6.3708352E-03
   7100.00  6.5590938E-03
   7100.33  6.7596418E-03
   7100.67  6.9722080E-03
   7101.00  7.1978496E-03
   7101.33  7.4397718E-03
   7101.67  7.6977665E-03
   7102.00  7.9733977E-03
   7102.33  8.2712225E-03
   7102.67  8.5912063E-03
   7103.00  8.9357572E-03
   7103.33  9.3116224E-03
   7103.67  9.7191866E-03
   7104.00  1.0162342E-02
   7104.33  1.0651588E-02
   7104.67  1.1188298E-02
   7105.00  1.1779155E-02
   7105.33  1.2441557E-02
   7105.67  1.3179281E-02
   7106.00  1.4004721E-02
   7106.33  1.4949182E-02
   7106.67  1.6022706E-02
   7107.00  1.7250821E-02
   7107.33  1.8696605E-02
   7107.67  2.0388606E-02
   7108.00  2.2387977E-02
   7108.33  2.4845162E-02
   7108.67  2.7856097E-02
   7109.00  3.1607315E-02
   7109.33  3.6575073E-02
   7109.67  4.3208206E-02
   7110.00  5.2375205E-02
   7110.33  6.6465008E-02
   7110.67  8.7742127E-02
   7111.00  1.1703267E-01
   7111.33  1.5263563E-01
   7111.67  1.9876689E-01
   7112.00  2.6629026E-01
   7112.33  3.6626624E-01
   7112.67  4.7279050E-01
   7113.00  5.5589590E-01
   7113.33  6.0394081E-01
   7113.67  5.9337515E-01
   7114.00  5.1591284E-01
   7114.33  4.1285659E-01
   7114.67  3.2843892E-01
   7115.00  2.7152949E-01
   7115.33  2.4139224E-01
   7115.67  2.2949835E-01
   7116.00  2.2959623E-01
   7116.33  2.2970122E-01
   7116.67  2.2150237E-01
   7117.00  2.0744985E-01
   7117.33  1.9311622E-01
   7117.67  1.8109683E-01
   7118.00  1.7185877E-01
   7118.33  1.6510521E-01
   7118.67  1.5958204E-01
   7119.00  1.5468062E-01
   7119.33  1.4998440E-01
   7119.67  1.4523359E-01
   7120.00  1.4044441E-01
   7120.33  1.3591529E-01
   7120.67  1.3213540E-01
   7121.00  1.2966853E-01
   7121.33  1.2924779E-01
   7121.67  1.3079899E-01
   7122.00  1.3420657E-01
   7122.33  1.3942121E-01
   7122.67  1.4594965E-01
   7123.00  1.5362788E-01
   7123.33  1.6284840E-01
   7123.67  1.7409922E-01
   7124.00  1.8804278E-01
   7124.33  2.0562958E-01
   7124.67  2.2650581E-01
   7125.00  2.5031983E-01
   7125.33  2.7649143E-01
   7125.67  3.0318973E-01
   7126.00  3.2858863E-01
   7126.33  3.5023052E-01
   7126.67  3.6731330E-01
   7127.00  3.8032957E-01
   7127.33  3.9127270E-01
   7127.67  4.0303322E-01
   7128.00  4.1788110E-01
   7128.33  4.3832083E-01
   7128.67  4.6358452E-01
   7129.00  4.9209557E-01
   7129.33  5.2217738E-01
   7129.67  5.5302312E-01
   7130.00  5.8475505E-01
   7130.33  6.1765790E-01
   7130.67  6.5179196E-01
   7131.00  6.8752228E-01
   7131.33  7.2540770E-01
   7131.67  7.6476822E-01
   7132.00  8.0446403E-01
   7132.33  8.4258726E-01
   7132.67  8.7768419E-01
   7133.00  9.0835974E-01
   7133.33  9.3152446E-01
   7133.67  9.4484949E-01
   7134.00  9.4553236E-01
   7134.33  9.2993343E-01
   7134.67  9.0071475E-01
   7135.00  8.6060049E-01
   7135.33  8.1297841E-01
   7135.67  7.6268691E-01
   7136.00  7.1239439E-01
   7136.33  6.6448825E-01
   7136.67  6.1999766E-01
   7137.00  5.7960444E-01
   7137.33  5.4438470E-01
   7137.67  5.1405950E-01
   7138.00  4.8874473E-01
   7138.33  4.6902587E-01
   7138.67  4.5406079E-01
   7139.00  4.4353573E-01
   7139.33  4.3748525E-01
   7139.67  4.3490345E-01
   7140.00  4.3535407E-01
   7140.33  4.3867006E-01
   7140.67  4.4407977E-01
   7141.00  4.5122080E-01
   7141.33  4.5987172E-01
   7141.67  4.6951450E-01
   7142.00  4.7988262E-01
   7142.33  4.9076599E-01
   7142.67  5.0188505E-01
   7143.00  5.1307739E-01
   7143.33  5.2415608E-01
   7143.67  5.3495974E-01
   7144.00  5.4533290E-01
   7144.33  5.5501230E-01
   7144.67  5.6389500E-01
   7145.00  5.7184593E-01
   7145.33  5.7862011E-01
   7145.67  5.8429714E-01
   7146.00  5.8888779E-01
   7146.33  5.9232929E-01
   7146.67  5.9485389E-01
   7147.00  5.9656969E-01
   7147.33  5.9752448E-01
   7147.67  5.9792797E-01
   7148.00  5.9787761E-01
   7148.33  5.9743211E-01
   7148.67  5.9672333E-01
   7149.00  5.9581869E-01
   7149.33  5.9478038E-01
   7149.67  5.9369599E-01
   7150.00  5.9262227E-01
   7150.33  5.9162810E-01
   7150.67  5.9075733E-01
   7151.00  5.9004852E-01
   7151.33  5.8956449E-01
   7151.67  5.8930913E-01
   7152.00  5.8929948E-01
   7152.33  5.8957873E-01
   7152.67  5.9011726E-01
   7153.00  5.9091090E-01
   7153.33  5.9197785E-01
   7153.67  5.9326775E-01
   7154.00  5.9475691E-01
   7154.33  5.9643030E-01
   7154.67  5.9822363E-01
   7155.00  6.0009301E-01
   7155.33  6.0198287E-01
   7155.67  6.0382663E-01
   7156.00  6.0556520E-01
   7156.33  6.0710518E-01
   7156.67  6.0839689E-01
   7157.00  6.0938012E-01
   7157.33  6.0994412E-01
   7157.67  6.1008267E-01
   7158.00  6.0976177E-01
   7158.33  6.0889583E-01
   7158.67  6.0753633E-01
   7159.00  6.0568786E-01
   7159.33  6.0331052E-01
   7159.67  6.0049525E-01
   7160.00  5.9727921E-01
   7160.33  5.9367206E-01
   7160.67  5.8977806E-01
   7161.00  5.8565256E-01
   7161.33  5.8134096E-01
   7161.67  5.7693109E-01
   7162.00  5.7247776E-01
   7162.33  5.6803807E-01
   7162.67  5.6365239E-01
   7163.00  5.5934328E-01
   7163.33  5.5513060E-01
   7163.67  5.5099455E-01
   7164.00  5.4691481E-01
   7164.33  5.4285843E-01
   7164.67  5.3877798E-01
   7165.00  5.3463160E-01
   7165.33  5.3035598E-01
   7165.67  5.2592014E-01
   7166.00  5.2129117E-01
   7166.33  5.1641120E-01
   7166.67  5.1128817E-01
   7167.00  5.0591404E-01
   7167.33  5.0025852E-01
   7167.67  4.9436592E-01
   7168.00  4.8825854E-01
   7168.33  4.8195028E-01
   7168.67  4.7550710E-01
   7169.00  4.6897227E-01
   7169.33  4.6239909E-01
   7169.67  4.5585714E-01
   7170.00  4.4940794E-01
   7170.33  4.4315021E-01
   7170.67  4.3714802E-01
   7171.00  4.3148573E-01
   7171.33  4.2634895E-01
   7171.67  4.2186939E-01
   7172.00  4.1826781E-01
