    FDMNES
    energy     <xanes>
   7097.00  5.2200617E-03
   7097.33  5.3467898E-03
   7097.67  5.4793173E-03
   7098.00  5.6180322E-03
   7098.33  5.7642674E-03
   7098.67  5.9177398E-03
   7099.00  6.0789726E-03
   7099.33  6.2496966E-03
   7099.67  6.4296143E-03
   7100.00  6.6194481E-03
   7100.33  6.8214972E-03
   7100.67  7.0354686E-03
   7101.00  7.2623875E-03
   7101.33  7.5053907E-03
   7101.67  7.7642328E-03
   7102.00  8.0404150E-03
   7102.33  8.3383540E-03
   7102.67  8.6579463E-03
   7103.00  9.0014742E-03
   7103.33  9.3753966E-03
   7103.67  9.7799604E-03
   7104.00  1.0218796E-02
   7104.33  1.0701797E-02
   7104.67  1.1230036E-02
   7105.00  1.1809624E-02
   7105.33  1.2456624E-02
   7105.67  1.3174093E-02
   7106.00  1.3973081E-02
   7106.33  1.4881732E-02
   7106.67  1.5908164E-02
   7107.00  1.7074400E-02
   7107.33  1.8435176E-02
   7107.67  2.0013103E-02
   7108.00  2.1858693E-02
   7108.33  2.4096317E-02
   7108.67  2.6799114E-02
   7109.00  3.0112280E-02
   7109.33  3.4403606E-02
   7109.67  3.9995801E-02
   7110.00  4.7514389E-02
   7110.33  5.8668548E-02
   7110.67  7.5150234E-02
   7111.00  9.8212704E-02
   7111.33  1.2803568E-01
   7111.67  1.6692219E-01
   7112.00  2.2079065E-01
   7112.33  2.8552983E-01
   7112.67  3.4740041E-01
   7113.00  4.2307924E-01
   7113.33  5.3832913E-01
   7113.67  6.6391323E-01
   7114.00  7.5522355E-01
   7114.33  7.2356789E-01
   7114.67  5.9816775E-01
   7115.00  4.6004577E-01
   7115.33  3.5931381E-01
   7115.67  2.9106825E-01
   7116.00  2.4649192E-01
   7116.33  2.1952506E-01
   7116.67  2.0337726E-01
   7117.00  1.9530486E-01
   7117.33  1.9214223E-01
   7117.67  1.8757867E-01
   7118.00  1.7779752E-01
   7118.33  1.6387964E-01
   7118.67  1.5041631E-01
   7119.00  1.3918014E-01
   7119.33  1.3064909E-01
   7119.67  1.2410360E-01
   7120.00  1.1924541E-01
   7120.33  1.1605359E-01
   7120.67  1.1412469E-01
   7121.00  1.1318109E-01
   7121.33  1.1312463E-01
   7121.67  1.1395023E-01
   7122.00  1.1574034E-01
   7122.33  1.1841302E-01
   7122.67  1.2158121E-01
   7123.00  1.2513142E-01
   7123.33  1.2915596E-01
   7123.67  1.3373033E-01
   7124.00  1.3898258E-01
   7124.33  1.4516437E-01
   7124.67  1.5231894E-01
   7125.00  1.6057803E-01
   7125.33  1.7027730E-01
   7125.67  1.8146730E-01
   7126.00  1.9435543E-01
   7126.33  2.0943529E-01
   7126.67  2.2666109E-01
   7127.00  2.4608146E-01
   7127.33  2.6777910E-01
   7127.67  2.9114785E-01
   7128.00  3.1591206E-01
   7128.33  3.4202672E-01
   7128.67  3.6920390E-01
   7129.00  3.9748541E-01
   7129.33  4.2813730E-01
   7129.67  4.6374208E-01
   7130.00  5.0798156E-01
   7130.33  5.6616343E-01
   7130.67  6.3693370E-01
   7131.00  7.1640322E-01
   7131.33  7.9750518E-01
   7131.67  8.7417316E-01
   7132.00  9.4425532E-01
   7132.33  1.0064770E+00
   7132.67  1.0614642E+00
   7133.00  1.1082555E+00
   7133.33  1.1434681E+00
   7133.67  1.1656070E+00
   7134.00  1.1722590E+00
   7134.33  1.1593210E+00
   7134.67  1.1289624E+00
   7135.00  1.0830766E+00
   7135.33  1.0242205E+00
   7135.67  9.5864687E-01
   7136.00  8.9022277E-01
   7136.33  8.2270495E-01
   7136.67  7.5863850E-01
   7137.00  6.9956856E-01
   7137.33  6.4741794E-01
   7137.67  6.0208524E-01
   7138.00  5.6387403E-01
   7138.33  5.3379041E-01
   7138.67  5.1077873E-01
   7139.00  4.9450074E-01
   7139.33  4.8509113E-01
   7139.67  4.8095755E-01
   7140.00  4.8129544E-01
   7140.33  4.8559027E-01
   7140.67  4.9251682E-01
   7141.00  5.0141754E-01
   7141.33  5.1183679E-01
   7141.67  5.2312911E-01
   7142.00  5.3498272E-01
   7142.33  5.4714367E-01
   7142.67  5.5933181E-01
   7143.00  5.7134495E-01
   7143.33  5.8288673E-01
   7143.67  5.9374733E-01
   7144.00  6.0368820E-01
   7144.33  6.1227740E-01
   7144.67  6.1939886E-01
   7145.00  6.2485532E-01
   7145.33  6.2824774E-01
   7145.67  6.2972022E-01
   7146.00  6.2927627E-01
   7146.33  6.2678230E-01
   7146.67  6.2264696E-01
   7147.00  6.1707999E-01
   7147.33  6.1022353E-01
   7147.67  6.0252632E-01
   7148.00  5.9425044E-01
   7148.33  5.8565295E-01
   7148.67  5.7703695E-01
   7149.00  5.6860331E-01
   7149.33  5.6059668E-01
   7149.67  5.5312792E-01
   7150.00  5.4630365E-01
   7150.33  5.4030980E-01
   7150.67  5.3512355E-01
   7151.00  5.3078944E-01
   7151.33  5.2744358E-01
   7151.67  5.2497975E-01
   7152.00  5.2338877E-01
   7152.33  5.2275313E-01
   7152.67  5.2292992E-01
   7153.00  5.2387780E-01
   7153.33  5.2562682E-01
   7153.67  5.2801926E-01
   7154.00  5.3099028E-01
   7154.33  5.3452206E-01
   7154.67  5.3846990E-01
   7155.00  5.4276255E-01
   7155.33  5.4734576E-01
   7155.67  5.5209237E-01
   7156.00  5.5691475E-01
   7156.33  5.6169989E-01
   7156.67  5.6633504E-01
   7157.00  5.7071525E-01
   7157.33  5.7467211E-01
   7157.67  5.7814093E-01
   7158.00  5.8104049E-01
   7158.33  5.8321911E-01
   7158.67  5.8471246E-01
   7159.00  5.8550348E-01
   7159.33  5.8550604E-01
   7159.67  5.8482707E-01
   7160.00  5.8349305E-01
   7160.33  5.8146402E-01
   7160.67  5.7885765E-01
   7161.00  5.7571005E-01
   7161.33  5.7200212E-01
   7161.67  5.6783729E-01
   7162.00  5.6325019E-01
   7162.33  5.5823117E-01
   7162.67  5.5286150E-01
   7163.00  5.4716482E-01
   7163.33  5.4112880E-01
   7163.67  5.3482412E-01
   7164.00  5.2828115E-01
   7164.33  5.2150655E-01
   7164.67  5.1455663E-01
   7165.00  5.0745726E-01
   7165.33  5.0022408E-01
   7165.67  4.9290325E-01
   7166.00  4.8552242E-01
   7166.33  4.7811163E-01
   7166.67  4.7070857E-01
   7167.00  4.6334346E-01
   7167.33  4.5606319E-01
   7167.67  4.4889966E-01
   7168.00  4.4189100E-01
   7168.33  4.3510953E-01
   7168.67  4.2858077E-01
   7169.00  4.2235039E-01
   7169.33  4.1651483E-01
   7169.67  4.1107916E-01
   7170.00  4.0607970E-01
   7170.33  4.0160549E-01
   7170.67  3.9761846E-01
   7171.00  3.9413102E-01
   7171.33  3.9121656E-01
   7171.67  3.8882165E-01
   7172.00  3.8695526E-01
