    FDMNES
    energy     <xanes>
   7097.00  4.5507489E-03
   7097.33  4.6511579E-03
   7097.67  4.7557829E-03
   7098.00  4.8648949E-03
   7098.33  4.9794461E-03
   7098.67  5.0992190E-03
   7099.00  5.2245808E-03
   7099.33  5.3567653E-03
   7099.67  5.4955491E-03
   7100.00  5.6414441E-03
   7100.33  5.7960941E-03
   7100.67  5.9592887E-03
   7101.00  6.1317670E-03
   7101.33  6.3157927E-03
   7101.67  6.5112130E-03
   7102.00  6.7191395E-03
   7102.33  6.9428194E-03
   7102.67  7.1822584E-03
   7103.00  7.4392128E-03
   7103.33  7.7185841E-03
   7103.67  8.0207709E-03
   7104.00  8.3487259E-03
   7104.33  8.7103380E-03
   7104.67  9.1069791E-03
   7105.00  9.5440177E-03
   7105.33  1.0035254E-02
   7105.67  1.0584597E-02
   7106.00  1.1202861E-02
   7106.33  1.1917029E-02
   7106.67  1.2738328E-02
   7107.00  1.3691810E-02
   7107.33  1.4839089E-02
   7107.67  1.6216257E-02
   7108.00  1.7894286E-02
   7108.33  2.0050253E-02
   7108.67  2.2829723E-02
   7109.00  2.6507219E-02
   7109.33  3.1816811E-02
   7109.67  3.9630387E-02
   7110.00  5.1668116E-02
   7110.33  7.2872730E-02
   7110.67  1.0783040E-01
   7111.00  1.5429442E-01
   7111.33  1.9328879E-01
   7111.67  2.1169681E-01
   7112.00  2.0592758E-01
   7112.33  1.9649754E-01
   7112.67  1.8830829E-01
   7113.00  1.7401209E-01
   7113.33  1.5683498E-01
   7113.67  1.4347577E-01
   7114.00  1.3751651E-01
   7114.33  1.4050258E-01
   7114.67  1.4481169E-01
   7115.00  1.4016498E-01
   7115.33  1.2456819E-01
   7115.67  1.0916273E-01
   7116.00  9.8487201E-02
   7116.33  9.3211612E-02
   7116.67  9.1305319E-02
   7117.00  9.1964672E-02
   7117.33  9.5404328E-02
   7117.67  1.0174408E-01
   7118.00  1.1147028E-01
   7118.33  1.2563275E-01
   7118.67  1.4392562E-01
   7119.00  1.6542978E-01
   7119.33  1.8665111E-01
   7119.67  2.0376758E-01
   7120.00  2.1746152E-01
   7120.33  2.3134468E-01
   7120.67  2.4639091E-01
   7121.00  2.6220327E-01
   7121.33  2.7970388E-01
   7121.67  3.0010159E-01
   7122.00  3.2305609E-01
   7122.33  3.4565048E-01
   7122.67  3.6529995E-01
   7123.00  3.8250922E-01
   7123.33  4.0052348E-01
   7123.67  4.2208448E-01
   7124.00  4.4810751E-01
   7124.33  4.7837247E-01
   7124.67  5.1015433E-01
   7125.00  5.4067051E-01
   7125.33  5.6589793E-01
   7125.67  5.8390479E-01
   7126.00  5.9390713E-01
   7126.33  5.9544487E-01
   7126.67  5.9102191E-01
   7127.00  5.8295754E-01
   7127.33  5.7455020E-01
   7127.67  5.6842465E-01
   7128.00  5.6565393E-01
   7128.33  5.6714339E-01
   7128.67  5.7266566E-01
   7129.00  5.8234150E-01
   7129.33  5.9583040E-01
   7129.67  6.1026569E-01
   7130.00  6.2259275E-01
   7130.33  6.2869615E-01
   7130.67  6.2736765E-01
   7131.00  6.1892218E-01
   7131.33  6.0505917E-01
   7131.67  5.8948588E-01
   7132.00  5.7452323E-01
   7132.33  5.6224424E-01
   7132.67  5.5333411E-01
   7133.00  5.4830565E-01
   7133.33  5.4786102E-01
   7133.67  5.5098240E-01
   7134.00  5.5664300E-01
   7134.33  5.6344424E-01
   7134.67  5.6994608E-01
   7135.00  5.7551816E-01
   7135.33  5.7989296E-01
   7135.67  5.8348226E-01
   7136.00  5.8664214E-01
   7136.33  5.8969984E-01
   7136.67  5.9279711E-01
   7137.00  5.9587798E-01
   7137.33  5.9875498E-01
   7137.67  6.0128991E-01
   7138.00  6.0340640E-01
   7138.33  6.0503018E-01
   7138.67  6.0621102E-01
   7139.00  6.0691815E-01
   7139.33  6.0702540E-01
   7139.67  6.0656436E-01
   7140.00  6.0556303E-01
   7140.33  6.0408152E-01
   7140.67  6.0235147E-01
   7141.00  6.0054642E-01
   7141.33  5.9886602E-01
   7141.67  5.9742791E-01
   7142.00  5.9628000E-01
   7142.33  5.9542549E-01
   7142.67  5.9472354E-01
   7143.00  5.9404411E-01
   7143.33  5.9321844E-01
   7143.67  5.9215210E-01
   7144.00  5.9080767E-01
   7144.33  5.8919453E-01
   7144.67  5.8747647E-01
   7145.00  5.8580681E-01
   7145.33  5.8439912E-01
   7145.67  5.8341289E-01
   7146.00  5.8300292E-01
   7146.33  5.8341494E-01
   7146.67  5.8466313E-01
   7147.00  5.8677957E-01
   7147.33  5.8982960E-01
   7147.67  5.9359032E-01
   7148.00  5.9788924E-01
   7148.33  6.0248346E-01
   7148.67  6.0700726E-01
   7149.00  6.1115386E-01
   7149.33  6.1448664E-01
   7149.67  6.1681043E-01
   7150.00  6.1795450E-01
   7150.33  6.1765754E-01
   7150.67  6.1608344E-01
   7151.00  6.1330892E-01
   7151.33  6.0935538E-01
   7151.67  6.0454405E-01
   7152.00  5.9904329E-01
   7152.33  5.9296635E-01
   7152.67  5.8651948E-01
   7153.00  5.7979384E-01
   7153.33  5.7283907E-01
   7153.67  5.6573251E-01
   7154.00  5.5850897E-01
   7154.33  5.5119485E-01
   7154.67  5.4383603E-01
   7155.00  5.3646243E-01
   7155.33  5.2910609E-01
   7155.67  5.2178722E-01
   7156.00  5.1451541E-01
   7156.33  5.0728851E-01
   7156.67  5.0007677E-01
   7157.00  4.9285417E-01
   7157.33  4.8557965E-01
   7157.67  4.7822166E-01
   7158.00  4.7075180E-01
   7158.33  4.6313031E-01
   7158.67  4.5537021E-01
   7159.00  4.4748725E-01
   7159.33  4.3951262E-01
   7159.67  4.3152336E-01
   7160.00  4.2359508E-01
   7160.33  4.1585002E-01
   7160.67  4.0837453E-01
   7161.00  4.0125763E-01
   7161.33  3.9464929E-01
   7161.67  3.8856567E-01
   7162.00  3.8304570E-01
   7162.33  3.7817867E-01
   7162.67  3.7388423E-01
   7163.00  3.7013541E-01
   7163.33  3.6694311E-01
   7163.67  3.6418393E-01
   7164.00  3.6180467E-01
   7164.33  3.5979091E-01
   7164.67  3.5805859E-01
   7165.00  3.5658061E-01
   7165.33  3.5536554E-01
   7165.67  3.5437278E-01
   7166.00  3.5359730E-01
   7166.33  3.5306223E-01
   7166.67  3.5273801E-01
   7167.00  3.5262210E-01
   7167.33  3.5273553E-01
   7167.67  3.5304537E-01
   7168.00  3.5354244E-01
   7168.33  3.5423459E-01
   7168.67  3.5508336E-01
   7169.00  3.5607220E-01
   7169.33  3.5719442E-01
   7169.67  3.5841120E-01
   7170.00  3.5969990E-01
   7170.33  3.6103740E-01
   7170.67  3.6238699E-01
   7171.00  3.6371773E-01
   7171.33  3.6497495E-01
   7171.67  3.6609670E-01
   7172.00  3.6699879E-01
