    FDMNES
    energy     <xanes>
   7097.00  5.2670088E-03
   7097.33  5.3951295E-03
   7097.67  5.5292440E-03
   7098.00  5.6697674E-03
   7098.33  5.8181025E-03
   7098.67  5.9739782E-03
   7099.00  6.1379624E-03
   7099.33  6.3118989E-03
   7099.67  6.4955129E-03
   7100.00  6.6896023E-03
   7100.33  6.8966542E-03
   7100.67  7.1164201E-03
   7101.00  7.3500565E-03
   7101.33  7.6010240E-03
   7101.67  7.8691670E-03
   7102.00  8.1562252E-03
   7102.33  8.4671967E-03
   7102.67  8.8021670E-03
   7103.00  9.1638735E-03
   7103.33  9.5598737E-03
   7103.67  9.9908329E-03
   7104.00  1.0461307E-02
   7104.33  1.0983401E-02
   7104.67  1.1559181E-02
   7105.00  1.2196790E-02
   7105.33  1.2917129E-02
   7105.67  1.3725828E-02
   7106.00  1.4638884E-02
   7106.33  1.5696247E-02
   7106.67  1.6913578E-02
   7107.00  1.8326760E-02
   7107.33  2.0024103E-02
   7107.67  2.2054573E-02
   7108.00  2.4516219E-02
   7108.33  2.7653450E-02
   7108.67  3.1659738E-02
   7109.00  3.6903367E-02
   7109.33  4.4369198E-02
   7109.67  5.5214344E-02
   7110.00  7.1731012E-02
   7110.33  1.0042474E-01
   7110.67  1.4617642E-01
   7111.00  2.0028055E-01
   7111.33  2.2954971E-01
   7111.67  2.4890431E-01
   7112.00  2.7977886E-01
   7112.33  3.2064291E-01
   7112.67  3.6227928E-01
   7113.00  4.0582427E-01
   7113.33  4.4707772E-01
   7113.67  4.6803133E-01
   7114.00  4.5346545E-01
   7114.33  4.0732429E-01
   7114.67  3.6018705E-01
   7115.00  3.2755149E-01
   7115.33  3.1166010E-01
   7115.67  2.9866951E-01
   7116.00  2.7950292E-01
   7116.33  2.5507092E-01
   7116.67  2.3221616E-01
   7117.00  2.1315292E-01
   7117.33  1.9821597E-01
   7117.67  1.8621726E-01
   7118.00  1.7631672E-01
   7118.33  1.6752753E-01
   7118.67  1.5915617E-01
   7119.00  1.5131192E-01
   7119.33  1.4444137E-01
   7119.67  1.3861550E-01
   7120.00  1.3387018E-01
   7120.33  1.3039254E-01
   7120.67  1.2811102E-01
   7121.00  1.2707457E-01
   7121.33  1.2753191E-01
   7121.67  1.2937504E-01
   7122.00  1.3249996E-01
   7122.33  1.3684884E-01
   7122.67  1.4227513E-01
   7123.00  1.4897777E-01
   7123.33  1.5757740E-01
   7123.67  1.6839598E-01
   7124.00  1.8194117E-01
   7124.33  1.9919299E-01
   7124.67  2.2015449E-01
   7125.00  2.4494583E-01
   7125.33  2.7366159E-01
   7125.67  3.0448622E-01
   7126.00  3.3502437E-01
   7126.33  3.6197045E-01
   7126.67  3.8526764E-01
   7127.00  4.0609824E-01
   7127.33  4.2537892E-01
   7127.67  4.4456436E-01
   7128.00  4.6554722E-01
   7128.33  4.9070182E-01
   7128.67  5.1967347E-01
   7129.00  5.5108852E-01
   7129.33  5.8282260E-01
   7129.67  6.1355636E-01
   7130.00  6.4336654E-01
   7130.33  6.7311362E-01
   7130.67  7.0362377E-01
   7131.00  7.3516652E-01
   7131.33  7.6758100E-01
   7131.67  8.0005073E-01
   7132.00  8.3178751E-01
   7132.33  8.6166254E-01
   7132.67  8.8886668E-01
   7133.00  9.1213076E-01
   7133.33  9.2842500E-01
   7133.67  9.3575041E-01
   7134.00  9.3204277E-01
   7134.33  9.1471146E-01
   7134.67  8.8613090E-01
   7135.00  8.4845478E-01
   7135.33  8.0430585E-01
   7135.67  7.5764797E-01
   7136.00  7.1072999E-01
   7136.33  6.6571232E-01
   7136.67  6.2379764E-01
   7137.00  5.8592049E-01
   7137.33  5.5353550E-01
   7137.67  5.2657933E-01
   7138.00  5.0519085E-01
   7138.33  4.8968064E-01
   7138.67  4.7852050E-01
   7139.00  4.7069857E-01
   7139.33  4.6534243E-01
   7139.67  4.6136439E-01
   7140.00  4.5842302E-01
   7140.33  4.5658090E-01
   7140.67  4.5584224E-01
   7141.00  4.5633041E-01
   7141.33  4.5827114E-01
   7141.67  4.6145004E-01
   7142.00  4.6573722E-01
   7142.33  4.7102871E-01
   7142.67  4.7696785E-01
   7143.00  4.8334716E-01
   7143.33  4.8997702E-01
   7143.67  4.9664850E-01
   7144.00  5.0323701E-01
   7144.33  5.0960671E-01
   7144.67  5.1570220E-01
   7145.00  5.2147715E-01
   7145.33  5.2685615E-01
   7145.67  5.3187185E-01
   7146.00  5.3652694E-01
   7146.33  5.4079244E-01
   7146.67  5.4473546E-01
   7147.00  5.4838309E-01
   7147.33  5.5174063E-01
   7147.67  5.5488099E-01
   7148.00  5.5783997E-01
   7148.33  5.6064207E-01
   7148.67  5.6334368E-01
   7149.00  5.6597529E-01
   7149.33  5.6857450E-01
   7149.67  5.7119155E-01
   7150.00  5.7386683E-01
   7150.33  5.7666348E-01
   7150.67  5.7962105E-01
   7151.00  5.8278534E-01
   7151.33  5.8623714E-01
   7151.67  5.8998058E-01
   7152.00  5.9402933E-01
   7152.33  5.9840869E-01
   7152.67  6.0303495E-01
   7153.00  6.0783699E-01
   7153.33  6.1270220E-01
   7153.67  6.1747350E-01
   7154.00  6.2201335E-01
   7154.33  6.2611275E-01
   7154.67  6.2967034E-01
   7155.00  6.3257599E-01
   7155.33  6.3464126E-01
   7155.67  6.3590466E-01
   7156.00  6.3635069E-01
   7156.33  6.3589377E-01
   7156.67  6.3467743E-01
   7157.00  6.3275530E-01
   7157.33  6.3012268E-01
   7157.67  6.2693834E-01
   7158.00  6.2327040E-01
   7158.33  6.1914231E-01
   7158.67  6.1467274E-01
   7159.00  6.0991358E-01
   7159.33  6.0488832E-01
   7159.67  5.9967220E-01
   7160.00  5.9429908E-01
   7160.33  5.8878730E-01
   7160.67  5.8318095E-01
   7161.00  5.7750303E-01
   7161.33  5.7177547E-01
   7161.67  5.6603152E-01
   7162.00  5.6029483E-01
   7162.33  5.5460187E-01
   7162.67  5.4898469E-01
   7163.00  5.4347672E-01
   7163.33  5.3813480E-01
   7163.67  5.3297420E-01
   7164.00  5.2801630E-01
   7164.33  5.2330051E-01
   7164.67  5.1879684E-01
   7165.00  5.1449026E-01
   7165.33  5.1037185E-01
   7165.67  5.0638100E-01
   7166.00  5.0247913E-01
   7166.33  4.9862708E-01
   7166.67  4.9478029E-01
   7167.00  4.9091273E-01
   7167.33  4.8700046E-01
   7167.67  4.8304446E-01
   7168.00  4.7905327E-01
   7168.33  4.7504504E-01
   7168.67  4.7104693E-01
   7169.00  4.6708227E-01
   7169.33  4.6318690E-01
   7169.67  4.5938194E-01
   7170.00  4.5569095E-01
   7170.33  4.5215710E-01
   7170.67  4.4879043E-01
   7171.00  4.4562132E-01
   7171.33  4.4273645E-01
   7171.67  4.4020233E-01
   7172.00  4.3814513E-01
