    FDMNES
    energy     <xanes>
   7097.00  5.2295271E-03
   7097.33  5.3553859E-03
   7097.67  5.4870683E-03
   7098.00  5.6249730E-03
   7098.33  5.7704555E-03
   7098.67  5.9232457E-03
   7099.00  6.0838873E-03
   7099.33  6.2541554E-03
   7099.67  6.4337736E-03
   7100.00  6.6235026E-03
   7100.33  6.8257273E-03
   7100.67  7.0401915E-03
   7101.00  7.2679923E-03
   7101.33  7.5124317E-03
   7101.67  7.7733333E-03
   7102.00  8.0523374E-03
   7102.33  8.3541843E-03
   7102.67  8.6789089E-03
   7103.00  9.0290732E-03
   7103.33  9.4117904E-03
   7103.67  9.8276060E-03
   7104.00  1.0280742E-02
   7104.33  1.0782482E-02
   7104.67  1.1334596E-02
   7105.00  1.1944534E-02
   7105.33  1.2631518E-02
   7105.67  1.3400394E-02
   7106.00  1.4265542E-02
   7106.33  1.5262992E-02
   7106.67  1.6406049E-02
   7107.00  1.7726106E-02
   7107.33  1.9300455E-02
   7107.67  2.1169395E-02
   7108.00  2.3415013E-02
   7108.33  2.6240589E-02
   7108.67  2.9796007E-02
   7109.00  3.4366680E-02
   7109.33  4.0699498E-02
   7109.67  4.9602125E-02
   7110.00  6.2654415E-02
   7110.33  8.4398032E-02
   7110.67  1.1998911E-01
   7111.00  1.7250015E-01
   7111.33  2.2979052E-01
   7111.67  2.6927138E-01
   7112.00  2.8917186E-01
   7112.33  3.0696693E-01
   7112.67  3.2991005E-01
   7113.00  3.6570664E-01
   7113.33  4.1247972E-01
   7113.67  4.4583333E-01
   7114.00  4.4627555E-01
   7114.33  4.1148316E-01
   7114.67  3.7291473E-01
   7115.00  3.4877654E-01
   7115.33  3.4106061E-01
   7115.67  3.3200116E-01
   7116.00  3.0945814E-01
   7116.33  2.7616734E-01
   7116.67  2.4477461E-01
   7117.00  2.1969120E-01
   7117.33  2.0147974E-01
   7117.67  1.8770315E-01
   7118.00  1.7711713E-01
   7118.33  1.6867285E-01
   7118.67  1.6120547E-01
   7119.00  1.5444621E-01
   7119.33  1.4851132E-01
   7119.67  1.4338694E-01
   7120.00  1.3914784E-01
   7120.33  1.3597631E-01
   7120.67  1.3377126E-01
   7121.00  1.3252300E-01
   7121.33  1.3238818E-01
   7121.67  1.3348201E-01
   7122.00  1.3610934E-01
   7122.33  1.4067665E-01
   7122.67  1.4707007E-01
   7123.00  1.5554982E-01
   7123.33  1.6703638E-01
   7123.67  1.8193004E-01
   7124.00  2.0074306E-01
   7124.33  2.2404132E-01
   7124.67  2.5044943E-01
   7125.00  2.7829014E-01
   7125.33  3.0441012E-01
   7125.67  3.2593540E-01
   7126.00  3.4152537E-01
   7126.33  3.5147413E-01
   7126.67  3.5915097E-01
   7127.00  3.6697945E-01
   7127.33  3.7768332E-01
   7127.67  3.9310124E-01
   7128.00  4.1445985E-01
   7128.33  4.4242778E-01
   7128.67  4.7469045E-01
   7129.00  5.0927576E-01
   7129.33  5.4378131E-01
   7129.67  5.7655039E-01
   7130.00  6.0730510E-01
   7130.33  6.3674034E-01
   7130.67  6.6626495E-01
   7131.00  6.9671923E-01
   7131.33  7.2864946E-01
   7131.67  7.6157372E-01
   7132.00  7.9471108E-01
   7132.33  8.2651654E-01
   7132.67  8.5531667E-01
   7133.00  8.7934701E-01
   7133.33  8.9580355E-01
   7133.67  9.0401479E-01
   7134.00  9.0319511E-01
   7134.33  8.9190241E-01
   7134.67  8.7170791E-01
   7135.00  8.4358342E-01
   7135.33  8.0865709E-01
   7135.67  7.7000761E-01
   7136.00  7.2955002E-01
   7136.33  6.8914052E-01
   7136.67  6.5019960E-01
   7137.00  6.1368313E-01
   7137.33  5.8088041E-01
   7137.67  5.5201807E-01
   7138.00  5.2742177E-01
   7138.33  5.0768449E-01
   7138.67  4.9196117E-01
   7139.00  4.7978602E-01
   7139.33  4.7092915E-01
   7139.67  4.6453228E-01
   7140.00  4.6031516E-01
   7140.33  4.5831091E-01
   7140.67  4.5808966E-01
   7141.00  4.5946942E-01
   7141.33  4.6236137E-01
   7141.67  4.6629795E-01
   7142.00  4.7100634E-01
   7142.33  4.7624010E-01
   7142.67  4.8168137E-01
   7143.00  4.8716138E-01
   7143.33  4.9254398E-01
   7143.67  4.9778642E-01
   7144.00  5.0288885E-01
   7144.33  5.0787379E-01
   7144.67  5.1280719E-01
   7145.00  5.1773422E-01
   7145.33  5.2270069E-01
   7145.67  5.2772490E-01
   7146.00  5.3280991E-01
   7146.33  5.3794946E-01
   7146.67  5.4311383E-01
   7147.00  5.4827895E-01
   7147.33  5.5341625E-01
   7147.67  5.5851497E-01
   7148.00  5.6357947E-01
   7148.33  5.6862734E-01
   7148.67  5.7368024E-01
   7149.00  5.7874869E-01
   7149.33  5.8383403E-01
   7149.67  5.8890918E-01
   7150.00  5.9393015E-01
   7150.33  5.9880464E-01
   7150.67  6.0345238E-01
   7151.00  6.0778287E-01
   7151.33  6.1164323E-01
   7151.67  6.1500444E-01
   7152.00  6.1782175E-01
   7152.33  6.2000974E-01
   7152.67  6.2166317E-01
   7153.00  6.2283053E-01
   7153.33  6.2354038E-01
   7153.67  6.2393463E-01
   7154.00  6.2408788E-01
   7154.33  6.2404982E-01
   7154.67  6.2388831E-01
   7155.00  6.2362136E-01
   7155.33  6.2323208E-01
   7155.67  6.2270979E-01
   7156.00  6.2202200E-01
   7156.33  6.2109708E-01
   7156.67  6.1991449E-01
   7157.00  6.1843734E-01
   7157.33  6.1658941E-01
   7157.67  6.1438852E-01
   7158.00  6.1182503E-01
   7158.33  6.0885437E-01
   7158.67  6.0553473E-01
   7159.00  6.0188635E-01
   7159.33  5.9790482E-01
   7159.67  5.9366758E-01
   7160.00  5.8921398E-01
   7160.33  5.8457170E-01
   7160.67  5.7980784E-01
   7161.00  5.7496023E-01
   7161.33  5.7006679E-01
   7161.67  5.6516912E-01
   7162.00  5.6029098E-01
   7162.33  5.5546317E-01
   7162.67  5.5070281E-01
   7163.00  5.4602513E-01
   7163.33  5.4145404E-01
   7163.67  5.3698459E-01
   7164.00  5.3261897E-01
   7164.33  5.2836776E-01
   7164.67  5.2421224E-01
   7165.00  5.2014484E-01
   7165.33  5.1616496E-01
   7165.67  5.1225328E-01
   7166.00  5.0840254E-01
   7166.33  5.0461184E-01
   7166.67  5.0086919E-01
   7167.00  4.9717173E-01
   7167.33  4.9352205E-01
   7167.67  4.8991280E-01
   7168.00  4.8634295E-01
   7168.33  4.8281588E-01
   7168.67  4.7932481E-01
   7169.00  4.7586766E-01
   7169.33  4.7244708E-01
   7169.67  4.6905986E-01
   7170.00  4.6570932E-01
   7170.33  4.6240974E-01
   7170.67  4.5917364E-01
   7171.00  4.5603124E-01
   7171.33  4.5307045E-01
   7171.67  4.5040252E-01
   7172.00  4.4820235E-01
