    FDMNES
    energy     <xanes>
   7097.00  5.2957825E-03
   7097.33  5.4221335E-03
   7097.67  5.5540926E-03
   7098.00  5.6920278E-03
   7098.33  5.8372184E-03
   7098.67  5.9893841E-03
   7099.00  6.1490239E-03
   7099.33  6.3177992E-03
   7099.67  6.4954209E-03
   7100.00  6.6825839E-03
   7100.33  6.8815046E-03
   7100.67  7.0919098E-03
   7101.00  7.3148005E-03
   7101.33  7.5532295E-03
   7101.67  7.8069978E-03
   7102.00  8.0776053E-03
   7102.33  8.3694268E-03
   7102.67  8.6824687E-03
   7103.00  9.0190919E-03
   7103.33  9.3858829E-03
   7103.67  9.7833611E-03
   7104.00  1.0215476E-02
   7104.33  1.0692790E-02
   7104.67  1.1217095E-02
   7105.00  1.1795536E-02
   7105.33  1.2446503E-02
   7105.67  1.3175111E-02
   7106.00  1.3995679E-02
   7106.33  1.4943986E-02
   7106.67  1.6034727E-02
   7107.00  1.7300926E-02
   7107.33  1.8823874E-02
   7107.67  2.0650798E-02
   7108.00  2.2874871E-02
   7108.33  2.5728567E-02
   7108.67  2.9401896E-02
   7109.00  3.4253383E-02
   7109.33  4.1240319E-02
   7109.67  5.1493348E-02
   7110.00  6.7242744E-02
   7110.33  9.4940959E-02
   7110.67  1.4110084E-01
   7111.00  2.0458528E-01
   7111.33  2.5690367E-01
   7111.67  2.8032240E-01
   7112.00  2.8028530E-01
   7112.33  2.6377906E-01
   7112.67  2.3510968E-01
   7113.00  2.0236991E-01
   7113.33  1.7703282E-01
   7113.67  1.6053329E-01
   7114.00  1.5140585E-01
   7114.33  1.4849961E-01
   7114.67  1.4991386E-01
   7115.00  1.5518060E-01
   7115.33  1.6482841E-01
   7115.67  1.7872649E-01
   7116.00  1.9713212E-01
   7116.33  2.2039763E-01
   7116.67  2.4673270E-01
   7117.00  2.7377122E-01
   7117.33  2.9633657E-01
   7117.67  3.0978234E-01
   7118.00  3.1330948E-01
   7118.33  3.1249201E-01
   7118.67  3.1613949E-01
   7119.00  3.2817146E-01
   7119.33  3.5015323E-01
   7119.67  3.7927599E-01
   7120.00  4.1297334E-01
   7120.33  4.4643456E-01
   7120.67  4.7463761E-01
   7121.00  4.9647983E-01
   7121.33  5.1408165E-01
   7121.67  5.3096639E-01
   7122.00  5.4873544E-01
   7122.33  5.6775467E-01
   7122.67  5.8639144E-01
   7123.00  6.0276578E-01
   7123.33  6.1471843E-01
   7123.67  6.2229140E-01
   7124.00  6.2603886E-01
   7124.33  6.2688611E-01
   7124.67  6.2637687E-01
   7125.00  6.2515686E-01
   7125.33  6.2329087E-01
   7125.67  6.2046296E-01
   7126.00  6.1624279E-01
   7126.33  6.1034046E-01
   7126.67  6.0352360E-01
   7127.00  5.9666358E-01
   7127.33  5.9077687E-01
   7127.67  5.8607368E-01
   7128.00  5.8228367E-01
   7128.33  5.7859811E-01
   7128.67  5.7399798E-01
   7129.00  5.6782908E-01
   7129.33  5.5967899E-01
   7129.67  5.5020856E-01
   7130.00  5.4006416E-01
   7130.33  5.2992750E-01
   7130.67  5.2018781E-01
   7131.00  5.1096674E-01
   7131.33  5.0238834E-01
   7131.67  4.9446200E-01
   7132.00  4.8725361E-01
   7132.33  4.8074834E-01
   7132.67  4.7454818E-01
   7133.00  4.6839030E-01
   7133.33  4.6225453E-01
   7133.67  4.5641388E-01
   7134.00  4.5118991E-01
   7134.33  4.4699531E-01
   7134.67  4.4386161E-01
   7135.00  4.4182367E-01
   7135.33  4.4105264E-01
   7135.67  4.4148949E-01
   7136.00  4.4323956E-01
   7136.33  4.4660523E-01
   7136.67  4.5150609E-01
   7137.00  4.5800665E-01
   7137.33  4.6634676E-01
   7137.67  4.7624572E-01
   7138.00  4.8746188E-01
   7138.33  4.9949869E-01
   7138.67  5.1129767E-01
   7139.00  5.2182222E-01
   7139.33  5.2968018E-01
   7139.67  5.3452724E-01
   7140.00  5.3634939E-01
   7140.33  5.3535131E-01
   7140.67  5.3266286E-01
   7141.00  5.2900627E-01
   7141.33  5.2506079E-01
   7141.67  5.2139087E-01
   7142.00  5.1833624E-01
   7142.33  5.1632640E-01
   7142.67  5.1550624E-01
   7143.00  5.1606038E-01
   7143.33  5.1832686E-01
   7143.67  5.2216719E-01
   7144.00  5.2754344E-01
   7144.33  5.3450321E-01
   7144.67  5.4267083E-01
   7145.00  5.5183110E-01
   7145.33  5.6178531E-01
   7145.67  5.7212892E-01
   7146.00  5.8256742E-01
   7146.33  5.9269077E-01
   7146.67  6.0212132E-01
   7147.00  6.1048223E-01
   7147.33  6.1715374E-01
   7147.67  6.2195887E-01
   7148.00  6.2468801E-01
   7148.33  6.2498403E-01
   7148.67  6.2320295E-01
   7149.00  6.1952173E-01
   7149.33  6.1399270E-01
   7149.67  6.0709374E-01
   7150.00  5.9905344E-01
   7150.33  5.9001169E-01
   7150.67  5.8031264E-01
   7151.00  5.7014237E-01
   7151.33  5.5966789E-01
   7151.67  5.4910366E-01
   7152.00  5.3858548E-01
   7152.33  5.2826659E-01
   7152.67  5.1822121E-01
   7153.00  5.0850197E-01
   7153.33  4.9918082E-01
   7153.67  4.9020879E-01
   7154.00  4.8155847E-01
   7154.33  4.7320768E-01
   7154.67  4.6504842E-01
   7155.00  4.5700630E-01
   7155.33  4.4899390E-01
   7155.67  4.4092660E-01
   7156.00  4.3275444E-01
   7156.33  4.2443890E-01
   7156.67  4.1602089E-01
   7157.00  4.0756359E-01
   7157.33  3.9919740E-01
   7157.67  3.9107111E-01
   7158.00  3.8333516E-01
   7158.33  3.7622536E-01
   7158.67  3.6980744E-01
   7159.00  3.6416130E-01
   7159.33  3.5943384E-01
   7159.67  3.5551902E-01
   7160.00  3.5238130E-01
   7160.33  3.5004119E-01
   7160.67  3.4832587E-01
   7161.00  3.4715926E-01
   7161.33  3.4651420E-01
   7161.67  3.4625635E-01
   7162.00  3.4632929E-01
   7162.33  3.4671499E-01
   7162.67  3.4734051E-01
   7163.00  3.4818374E-01
   7163.33  3.4925486E-01
   7163.67  3.5052255E-01
   7164.00  3.5198673E-01
   7164.33  3.5367515E-01
   7164.67  3.5556661E-01
   7165.00  3.5766351E-01
   7165.33  3.5999212E-01
   7165.67  3.6252314E-01
   7166.00  3.6524966E-01
   7166.33  3.6818266E-01
   7166.67  3.7128352E-01
   7167.00  3.7453618E-01
   7167.33  3.7793676E-01
   7167.67  3.8144829E-01
   7168.00  3.8505398E-01
   7168.33  3.8874534E-01
   7168.67  3.9249609E-01
   7169.00  3.9629227E-01
   7169.33  4.0012145E-01
   7169.67  4.0396301E-01
   7170.00  4.0780051E-01
   7170.33  4.1160658E-01
   7170.67  4.1535056E-01
   7171.00  4.1898767E-01
   7171.33  4.2240645E-01
   7171.67  4.2547334E-01
   7172.00  4.2798285E-01
