    FDMNES
    energy     <xanes>
   7097.00  4.8266761E-03
   7097.33  4.9415596E-03
   7097.67  5.0617134E-03
   7098.00  5.1874999E-03
   7098.33  5.3201486E-03
   7098.67  5.4594185E-03
   7099.00  5.6058056E-03
   7099.33  5.7609250E-03
   7099.67  5.9245328E-03
   7100.00  6.0973267E-03
   7100.33  6.2814852E-03
   7100.67  6.4767883E-03
   7101.00  6.6842484E-03
   7101.33  6.9068973E-03
   7101.67  7.1445982E-03
   7102.00  7.3988758E-03
   7102.33  7.6741112E-03
   7102.67  7.9703810E-03
   7103.00  8.2900865E-03
   7103.33  8.6398554E-03
   7103.67  9.0202737E-03
   7104.00  9.4353372E-03
   7104.33  9.8956591E-03
   7104.67  1.0403045E-02
   7105.00  1.0964617E-02
   7105.33  1.1598656E-02
   7105.67  1.2310023E-02
   7106.00  1.3112614E-02
   7106.33  1.4041101E-02
   7106.67  1.5108746E-02
   7107.00  1.6346188E-02
   7107.33  1.7828642E-02
   7107.67  1.9596141E-02
   7108.00  2.1729352E-02
   7108.33  2.4427647E-02
   7108.67  2.7839115E-02
   7109.00  3.2244351E-02
   7109.33  3.8375899E-02
   7109.67  4.7023167E-02
   7110.00  5.9723281E-02
   7110.33  8.0843115E-02
   7110.67  1.1497528E-01
   7111.00  1.6402437E-01
   7111.33  2.2198437E-01
   7111.67  2.8295636E-01
   7112.00  3.3288383E-01
   7112.33  3.4520485E-01
   7112.67  3.3808727E-01
   7113.00  3.3350889E-01
   7113.33  3.4668179E-01
   7113.67  3.7270444E-01
   7114.00  3.8835880E-01
   7114.33  3.6395564E-01
   7114.67  3.1411755E-01
   7115.00  2.5543632E-01
   7115.33  2.0308965E-01
   7115.67  1.6382700E-01
   7116.00  1.3749157E-01
   7116.33  1.2178786E-01
   7116.67  1.1207930E-01
   7117.00  1.0673721E-01
   7117.33  1.0524653E-01
   7117.67  1.0617582E-01
   7118.00  1.0847558E-01
   7118.33  1.1125284E-01
   7118.67  1.1426367E-01
   7119.00  1.1782646E-01
   7119.33  1.2188843E-01
   7119.67  1.2525751E-01
   7120.00  1.2709089E-01
   7120.33  1.2686342E-01
   7120.67  1.2517576E-01
   7121.00  1.2323416E-01
   7121.33  1.2258132E-01
   7121.67  1.2373335E-01
   7122.00  1.2687366E-01
   7122.33  1.3211030E-01
   7122.67  1.3889125E-01
   7123.00  1.4717470E-01
   7123.33  1.5765567E-01
   7123.67  1.7068095E-01
   7124.00  1.8640193E-01
   7124.33  2.0460889E-01
   7124.67  2.2423790E-01
   7125.00  2.4489465E-01
   7125.33  2.6664036E-01
   7125.67  2.8938333E-01
   7126.00  3.1298549E-01
   7126.33  3.3706518E-01
   7126.67  3.6125784E-01
   7127.00  3.8546210E-01
   7127.33  4.0870353E-01
   7127.67  4.2938668E-01
   7128.00  4.4692162E-01
   7128.33  4.6333305E-01
   7128.67  4.8281549E-01
   7129.00  5.0806766E-01
   7129.33  5.4078450E-01
   7129.67  5.7901841E-01
   7130.00  6.2058125E-01
   7130.33  6.6096512E-01
   7130.67  6.9442118E-01
   7131.00  7.1698757E-01
   7131.33  7.2693308E-01
   7131.67  7.3014221E-01
   7132.00  7.3249614E-01
   7132.33  7.4021798E-01
   7132.67  7.5444030E-01
   7133.00  7.7393483E-01
   7133.33  7.9677111E-01
   7133.67  8.2087202E-01
   7134.00  8.4493554E-01
   7134.33  8.6599794E-01
   7134.67  8.8077280E-01
   7135.00  8.8721249E-01
   7135.33  8.8449769E-01
   7135.67  8.7512463E-01
   7136.00  8.6057798E-01
   7136.33  8.4311006E-01
   7136.67  8.2635418E-01
   7137.00  8.1284281E-01
   7137.33  8.0503991E-01
   7137.67  8.0286582E-01
   7138.00  8.0595738E-01
   7138.33  8.1362407E-01
   7138.67  8.2345801E-01
   7139.00  8.3339612E-01
   7139.33  8.4052872E-01
   7139.67  8.4290788E-01
   7140.00  8.3935032E-01
   7140.33  8.2894533E-01
   7140.67  8.1351455E-01
   7141.00  7.9455736E-01
   7141.33  7.7374556E-01
   7141.67  7.5286046E-01
   7142.00  7.3280553E-01
   7142.33  7.1420301E-01
   7142.67  6.9682796E-01
   7143.00  6.8039381E-01
   7143.33  6.6458538E-01
   7143.67  6.4903923E-01
   7144.00  6.3362230E-01
   7144.33  6.1833666E-01
   7144.67  6.0326990E-01
   7145.00  5.8855581E-01
   7145.33  5.7441572E-01
   7145.67  5.6090819E-01
   7146.00  5.4809362E-01
   7146.33  5.3607266E-01
   7146.67  5.2471487E-01
   7147.00  5.1395186E-01
   7147.33  5.0374343E-01
   7147.67  4.9392036E-01
   7148.00  4.8440152E-01
   7148.33  4.7515148E-01
   7148.67  4.6610982E-01
   7149.00  4.5728170E-01
   7149.33  4.4873983E-01
   7149.67  4.4051723E-01
   7150.00  4.3267524E-01
   7150.33  4.2533143E-01
   7150.67  4.1848233E-01
   7151.00  4.1216508E-01
   7151.33  4.0648160E-01
   7151.67  4.0137877E-01
   7152.00  3.9686034E-01
   7152.33  3.9299048E-01
   7152.67  3.8967869E-01
   7153.00  3.8690373E-01
   7153.33  3.8470170E-01
   7153.67  3.8298091E-01
   7154.00  3.8171912E-01
   7154.33  3.8095427E-01
   7154.67  3.8062375E-01
   7155.00  3.8072634E-01
   7155.33  3.8131641E-01
   7155.67  3.8233730E-01
   7156.00  3.8378171E-01
   7156.33  3.8568254E-01
   7156.67  3.8795700E-01
   7157.00  3.9056279E-01
   7157.33  3.9346286E-01
   7157.67  3.9653022E-01
   7158.00  3.9966331E-01
   7158.33  4.0270951E-01
   7158.67  4.0550931E-01
   7159.00  4.0790640E-01
   7159.33  4.0966042E-01
   7159.67  4.1071576E-01
   7160.00  4.1101387E-01
   7160.33  4.1045651E-01
   7160.67  4.0918948E-01
   7161.00  4.0727597E-01
   7161.33  4.0473438E-01
   7161.67  4.0173723E-01
   7162.00  3.9837546E-01
   7162.33  3.9471812E-01
   7162.67  3.9090191E-01
   7163.00  3.8702308E-01
   7163.33  3.8319683E-01
   7163.67  3.7951948E-01
   7164.00  3.7607104E-01
   7164.33  3.7296804E-01
   7164.67  3.7023001E-01
   7165.00  3.6788953E-01
   7165.33  3.6601712E-01
   7165.67  3.6456192E-01
   7166.00  3.6351414E-01
   7166.33  3.6290095E-01
   7166.67  3.6264610E-01
   7167.00  3.6272252E-01
   7167.33  3.6313355E-01
   7167.67  3.6380645E-01
   7168.00  3.6470965E-01
   7168.33  3.6582991E-01
   7168.67  3.6710620E-01
   7169.00  3.6850756E-01
   7169.33  3.7001099E-01
   7169.67  3.7157314E-01
   7170.00  3.7316836E-01
   7170.33  3.7476881E-01
   7170.67  3.7634511E-01
   7171.00  3.7786964E-01
   7171.33  3.7928829E-01
   7171.67  3.8054590E-01
   7172.00  3.8155968E-01
