    FDMNES
    energy     <xanes>
   7097.00  4.3613297E-03
   7097.33  4.4532648E-03
   7097.67  4.5489869E-03
   7098.00  4.6487400E-03
   7098.33  4.7533808E-03
   7098.67  4.8627159E-03
   7099.00  4.9770770E-03
   7099.33  5.0975775E-03
   7099.67  5.2240201E-03
   7100.00  5.3568704E-03
   7100.33  5.4976165E-03
   7100.67  5.6460769E-03
   7101.00  5.8029273E-03
   7101.33  5.9702270E-03
   7101.67  6.1478532E-03
   7102.00  6.3368284E-03
   7102.33  6.5401243E-03
   7102.67  6.7577735E-03
   7103.00  6.9914031E-03
   7103.33  7.2455293E-03
   7103.67  7.5205646E-03
   7104.00  7.8192636E-03
   7104.33  8.1489482E-03
   7104.67  8.5109646E-03
   7105.00  8.9103517E-03
   7105.33  9.3600073E-03
   7105.67  9.8636965E-03
   7106.00  1.0431611E-02
   7106.33  1.1089102E-02
   7106.67  1.1846859E-02
   7107.00  1.2728499E-02
   7107.33  1.3791973E-02
   7107.67  1.5071224E-02
   7108.00  1.6632738E-02
   7108.33  1.8641869E-02
   7108.67  2.1232985E-02
   7109.00  2.4658597E-02
   7109.33  2.9589393E-02
   7109.67  3.6806160E-02
   7110.00  4.7842056E-02
   7110.33  6.7116741E-02
   7110.67  9.9182657E-02
   7111.00  1.4418231E-01
   7111.33  1.8790463E-01
   7111.67  2.1884365E-01
   7112.00  2.2216906E-01
   7112.33  1.9840572E-01
   7112.67  1.7726258E-01
   7113.00  1.6484489E-01
   7113.33  1.5595493E-01
   7113.67  1.4380674E-01
   7114.00  1.2822051E-01
   7114.33  1.1234504E-01
   7114.67  9.7323223E-02
   7115.00  8.4132924E-02
   7115.33  7.3947807E-02
   7115.67  6.5939146E-02
   7116.00  5.9691412E-02
   7116.33  5.5387365E-02
   7116.67  5.2837086E-02
   7117.00  5.1997520E-02
   7117.33  5.3129570E-02
   7117.67  5.6266784E-02
   7118.00  6.1765685E-02
   7118.33  7.0230406E-02
   7118.67  8.0909373E-02
   7119.00  9.2674465E-02
   7119.33  1.0333533E-01
   7119.67  1.1084261E-01
   7120.00  1.1491236E-01
   7120.33  1.1729405E-01
   7120.67  1.1998508E-01
   7121.00  1.2365200E-01
   7121.33  1.2974734E-01
   7121.67  1.3990649E-01
   7122.00  1.5564935E-01
   7122.33  1.7914821E-01
   7122.67  2.0994284E-01
   7123.00  2.4706903E-01
   7123.33  2.8879566E-01
   7123.67  3.3369816E-01
   7124.00  3.8318564E-01
   7124.33  4.3973503E-01
   7124.67  4.9971865E-01
   7125.00  5.5463533E-01
   7125.33  5.8837000E-01
   7125.67  5.9614891E-01
   7126.00  5.8293901E-01
   7126.33  5.6064618E-01
   7126.67  5.4148914E-01
   7127.00  5.3205732E-01
   7127.33  5.3982277E-01
   7127.67  5.6413924E-01
   7128.00  5.9979172E-01
   7128.33  6.3368467E-01
   7128.67  6.5450517E-01
   7129.00  6.6120720E-01
   7129.33  6.6081171E-01
   7129.67  6.6305588E-01
   7130.00  6.7212999E-01
   7130.33  6.8928186E-01
   7130.67  7.1058573E-01
   7131.00  7.3183539E-01
   7131.33  7.4670722E-01
   7131.67  7.5268378E-01
   7132.00  7.5129360E-01
   7132.33  7.4650729E-01
   7132.67  7.4110240E-01
   7133.00  7.3494772E-01
   7133.33  7.2787713E-01
   7133.67  7.2135562E-01
   7134.00  7.1637939E-01
   7134.33  7.1229416E-01
   7134.67  7.0698165E-01
   7135.00  6.9920594E-01
   7135.33  6.8866127E-01
   7135.67  6.7686855E-01
   7136.00  6.6526360E-01
   7136.33  6.5568528E-01
   7136.67  6.4919618E-01
   7137.00  6.4654946E-01
   7137.33  6.4866597E-01
   7137.67  6.5473287E-01
   7138.00  6.6404157E-01
   7138.33  6.7571203E-01
   7138.67  6.8814630E-01
   7139.00  7.0013016E-01
   7139.33  7.1001501E-01
   7139.67  7.1663127E-01
   7140.00  7.1870924E-01
   7140.33  7.1381828E-01
   7140.67  7.0113150E-01
   7141.00  6.7996779E-01
   7141.33  6.5040667E-01
   7141.67  6.1644641E-01
   7142.00  5.8137308E-01
   7142.33  5.4847757E-01
   7142.67  5.1914629E-01
   7143.00  4.9392250E-01
   7143.33  4.7348707E-01
   7143.67  4.5718834E-01
   7144.00  4.4477013E-01
   7144.33  4.3624499E-01
   7144.67  4.3071697E-01
   7145.00  4.2779628E-01
   7145.33  4.2731841E-01
   7145.67  4.2858780E-01
   7146.00  4.3124022E-01
   7146.33  4.3496657E-01
   7146.67  4.3922971E-01
   7147.00  4.4369958E-01
   7147.33  4.4805369E-01
   7147.67  4.5212458E-01
   7148.00  4.5587904E-01
   7148.33  4.5937679E-01
   7148.67  4.6282631E-01
   7149.00  4.6639855E-01
   7149.33  4.7024882E-01
   7149.67  4.7433075E-01
   7150.00  4.7852635E-01
   7150.33  4.8257364E-01
   7150.67  4.8618081E-01
   7151.00  4.8909751E-01
   7151.33  4.9100045E-01
   7151.67  4.9190135E-01
   7152.00  4.9178609E-01
   7152.33  4.9056070E-01
   7152.67  4.8837619E-01
   7153.00  4.8522273E-01
   7153.33  4.8092057E-01
   7153.67  4.7552431E-01
   7154.00  4.6897778E-01
   7154.33  4.6110275E-01
   7154.67  4.5207722E-01
   7155.00  4.4198761E-01
   7155.33  4.3089478E-01
   7155.67  4.1914911E-01
   7156.00  4.0699155E-01
   7156.33  3.9469829E-01
   7156.67  3.8254951E-01
   7157.00  3.7072352E-01
   7157.33  3.5940183E-01
   7157.67  3.4855698E-01
   7158.00  3.3814618E-01
   7158.33  3.2812354E-01
   7158.67  3.1837214E-01
   7159.00  3.0887753E-01
   7159.33  2.9973645E-01
   7159.67  2.9104319E-01
   7160.00  2.8295964E-01
   7160.33  2.7581051E-01
   7160.67  2.6972934E-01
   7161.00  2.6492318E-01
   7161.33  2.6181503E-01
   7161.67  2.6042973E-01
   7162.00  2.6092277E-01
   7162.33  2.6368312E-01
   7162.67  2.6853046E-01
   7163.00  2.7545669E-01
   7163.33  2.8459907E-01
   7163.67  2.9548228E-01
   7164.00  3.0781161E-01
   7164.33  3.2126764E-01
   7164.67  3.3520312E-01
   7165.00  3.4914406E-01
   7165.33  3.6249371E-01
   7165.67  3.7486116E-01
   7166.00  3.8594705E-01
   7166.33  3.9534560E-01
   7166.67  4.0316775E-01
   7167.00  4.0944971E-01
   7167.33  4.1415490E-01
   7167.67  4.1767260E-01
   7168.00  4.2022519E-01
   7168.33  4.2201123E-01
   7168.67  4.2340801E-01
   7169.00  4.2465959E-01
   7169.33  4.2604059E-01
   7169.67  4.2775017E-01
   7170.00  4.2991675E-01
   7170.33  4.3267412E-01
   7170.67  4.3592551E-01
   7171.00  4.3956123E-01
   7171.33  4.4337355E-01
   7171.67  4.4699602E-01
   7172.00  4.5004799E-01
