    FDMNES
    energy     <xanes>
   7097.00  5.1753321E-03
   7097.33  5.2971724E-03
   7097.67  5.4245242E-03
   7098.00  5.5577569E-03
   7098.33  5.6981393E-03
   7098.67  5.8454046E-03
   7099.00  6.0000530E-03
   7099.33  6.1637362E-03
   7099.67  6.3361771E-03
   7100.00  6.5180705E-03
   7100.33  6.7116196E-03
   7100.67  6.9165583E-03
   7101.00  7.1338804E-03
   7101.33  7.3666107E-03
   7101.67  7.6145426E-03
   7102.00  7.8791475E-03
   7102.33  8.1647240E-03
   7102.67  8.4712324E-03
   7103.00  8.8009438E-03
   7103.33  9.1602304E-03
   7103.67  9.5494614E-03
   7104.00  9.9723265E-03
   7104.33  1.0438781E-02
   7104.67  1.0950177E-02
   7105.00  1.1512908E-02
   7105.33  1.2143616E-02
   7105.67  1.2846090E-02
   7106.00  1.3632397E-02
   7106.33  1.4532978E-02
   7106.67  1.5558197E-02
   7107.00  1.6733642E-02
   7107.33  1.8122541E-02
   7107.67  1.9755676E-02
   7108.00  2.1697430E-02
   7108.33  2.4107039E-02
   7108.67  2.7095194E-02
   7109.00  3.0874849E-02
   7109.33  3.5998820E-02
   7109.67  4.3037497E-02
   7110.00  5.3104092E-02
   7110.33  6.9364352E-02
   7110.67  9.5310405E-02
   7111.00  1.3304557E-01
   7111.33  1.7544068E-01
   7111.67  2.1250525E-01
   7112.00  2.4980216E-01
   7112.33  2.9627155E-01
   7112.67  3.3672139E-01
   7113.00  3.6346424E-01
   7113.33  3.9167878E-01
   7113.67  4.2282616E-01
   7114.00  4.3865098E-01
   7114.33  4.2703681E-01
   7114.67  3.9810058E-01
   7115.00  3.6057796E-01
   7115.33  3.2670981E-01
   7115.67  3.0360408E-01
   7116.00  2.9317176E-01
   7116.33  2.9571853E-01
   7116.67  3.0414933E-01
   7117.00  3.0848775E-01
   7117.33  2.9459987E-01
   7117.67  2.6465944E-01
   7118.00  2.2854075E-01
   7118.33  1.9676423E-01
   7118.67  1.7215474E-01
   7119.00  1.5420059E-01
   7119.33  1.4195586E-01
   7119.67  1.3326355E-01
   7120.00  1.2701606E-01
   7120.33  1.2247530E-01
   7120.67  1.1901151E-01
   7121.00  1.1646892E-01
   7121.33  1.1499793E-01
   7121.67  1.1483043E-01
   7122.00  1.1620022E-01
   7122.33  1.1919740E-01
   7122.67  1.2340549E-01
   7123.00  1.2869181E-01
   7123.33  1.3517496E-01
   7123.67  1.4293998E-01
   7124.00  1.5240369E-01
   7124.33  1.6452368E-01
   7124.67  1.7971168E-01
   7125.00  1.9849621E-01
   7125.33  2.2171326E-01
   7125.67  2.4876006E-01
   7126.00  2.7921997E-01
   7126.33  3.1283699E-01
   7126.67  3.4844309E-01
   7127.00  3.8453886E-01
   7127.33  4.1775037E-01
   7127.67  4.4512420E-01
   7128.00  4.6510278E-01
   7128.33  4.7759482E-01
   7128.67  4.8634626E-01
   7129.00  4.9426402E-01
   7129.33  5.0414984E-01
   7129.67  5.1717299E-01
   7130.00  5.3369273E-01
   7130.33  5.5379902E-01
   7130.67  5.7637964E-01
   7131.00  6.0091706E-01
   7131.33  6.2769586E-01
   7131.67  6.5721101E-01
   7132.00  6.8999740E-01
   7132.33  7.2569309E-01
   7132.67  7.6169105E-01
   7133.00  7.9586856E-01
   7133.33  8.2691830E-01
   7133.67  8.5617812E-01
   7134.00  8.8514041E-01
   7134.33  9.1462356E-01
   7134.67  9.4274540E-01
   7135.00  9.6546290E-01
   7135.33  9.7521300E-01
   7135.67  9.6911232E-01
   7136.00  9.4701687E-01
   7136.33  9.1102768E-01
   7136.67  8.6791063E-01
   7137.00  8.2163691E-01
   7137.33  7.7550567E-01
   7137.67  7.3153634E-01
   7138.00  6.9082881E-01
   7138.33  6.5474825E-01
   7138.67  6.2332093E-01
   7139.00  5.9678796E-01
   7139.33  5.7576474E-01
   7139.67  5.5935684E-01
   7140.00  5.4714644E-01
   7140.33  5.3898606E-01
   7140.67  5.3380479E-01
   7141.00  5.3110377E-01
   7141.33  5.3062800E-01
   7141.67  5.3173457E-01
   7142.00  5.3416496E-01
   7142.33  5.3782779E-01
   7142.67  5.4240702E-01
   7143.00  5.4776223E-01
   7143.33  5.5378849E-01
   7143.67  5.6018634E-01
   7144.00  5.6671090E-01
   7144.33  5.7298176E-01
   7144.67  5.7861100E-01
   7145.00  5.8320950E-01
   7145.33  5.8614165E-01
   7145.67  5.8720290E-01
   7146.00  5.8615849E-01
   7146.33  5.8262922E-01
   7146.67  5.7700110E-01
   7147.00  5.6953317E-01
   7147.33  5.6050338E-01
   7147.67  5.5062840E-01
   7148.00  5.4037772E-01
   7148.33  5.3021992E-01
   7148.67  5.2048889E-01
   7149.00  5.1141506E-01
   7149.33  5.0330958E-01
   7149.67  4.9620312E-01
   7150.00  4.9017062E-01
   7150.33  4.8539722E-01
   7150.67  4.8175360E-01
   7151.00  4.7922960E-01
   7151.33  4.7793264E-01
   7151.67  4.7768166E-01
   7152.00  4.7842649E-01
   7152.33  4.8020955E-01
   7152.67  4.8282609E-01
   7153.00  4.8618614E-01
   7153.33  4.9024778E-01
   7153.67  4.9479994E-01
   7154.00  4.9972240E-01
   7154.33  5.0490333E-01
   7154.67  5.1017953E-01
   7155.00  5.1544443E-01
   7155.33  5.2057326E-01
   7155.67  5.2548983E-01
   7156.00  5.3013047E-01
   7156.33  5.3439348E-01
   7156.67  5.3827619E-01
   7157.00  5.4175401E-01
   7157.33  5.4476090E-01
   7157.67  5.4734793E-01
   7158.00  5.4952064E-01
   7158.33  5.5124001E-01
   7158.67  5.5256999E-01
   7159.00  5.5352140E-01
   7159.33  5.5405954E-01
   7159.67  5.5424048E-01
   7160.00  5.5407227E-01
   7160.33  5.5352086E-01
   7160.67  5.5263690E-01
   7161.00  5.5143060E-01
   7161.33  5.4987751E-01
   7161.67  5.4802843E-01
   7162.00  5.4589518E-01
   7162.33  5.4346137E-01
   7162.67  5.4077779E-01
   7163.00  5.3785771E-01
   7163.33  5.3469862E-01
   7163.67  5.3136300E-01
   7164.00  5.2788637E-01
   7164.33  5.2430061E-01
   7164.67  5.2066210E-01
   7165.00  5.1700827E-01
   7165.33  5.1338581E-01
   7165.67  5.0983217E-01
   7166.00  5.0637948E-01
   7166.33  5.0307699E-01
   7166.67  4.9993320E-01
   7167.00  4.9696294E-01
   7167.33  4.9419794E-01
   7167.67  4.9161513E-01
   7168.00  4.8920678E-01
   7168.33  4.8697590E-01
   7168.67  4.8488045E-01
   7169.00  4.8289942E-01
   7169.33  4.8102032E-01
   7169.67  4.7920957E-01
   7170.00  4.7745045E-01
   7170.33  4.7573492E-01
   7170.67  4.7405758E-01
   7171.00  4.7243046E-01
   7171.33  4.7089883E-01
   7171.67  4.6952076E-01
   7172.00  4.6838484E-01
