    FDMNES
    energy     <xanes>
   7097.00  4.5710444E-03
   7097.33  4.6778082E-03
   7097.67  4.7894119E-03
   7098.00  4.9061932E-03
   7098.33  5.0292908E-03
   7098.67  5.1584928E-03
   7099.00  5.2942672E-03
   7099.33  5.4381237E-03
   7099.67  5.5898574E-03
   7100.00  5.7501376E-03
   7100.33  5.9210279E-03
   7100.67  6.1023644E-03
   7101.00  6.2951402E-03
   7101.33  6.5022809E-03
   7101.67  6.7237398E-03
   7102.00  6.9610552E-03
   7102.33  7.2185648E-03
   7102.67  7.4965095E-03
   7103.00  7.7974020E-03
   7103.33  8.1280354E-03
   7103.67  8.4893403E-03
   7104.00  8.8856973E-03
   7104.33  9.3285021E-03
   7104.67  9.8203842E-03
   7105.00  1.0369636E-02
   7105.33  1.0997139E-02
   7105.67  1.1710006E-02
   7106.00  1.2525712E-02
   7106.33  1.3487270E-02
   7106.67  1.4615050E-02
   7107.00  1.5951634E-02
   7107.33  1.7601173E-02
   7107.67  1.9630660E-02
   7108.00  2.2167815E-02
   7108.33  2.5532232E-02
   7108.67  3.0004933E-02
   7109.00  3.6111656E-02
   7109.33  4.5272490E-02
   7109.67  5.9251200E-02
   7110.00  8.1545948E-02
   7110.33  1.2240072E-01
   7110.67  1.9232738E-01
   7111.00  2.8770143E-01
   7111.33  3.4404288E-01
   7111.67  3.2152476E-01
   7112.00  2.5628254E-01
   7112.33  1.9790909E-01
   7112.67  1.5671599E-01
   7113.00  1.2959272E-01
   7113.33  1.1318835E-01
   7113.67  1.0308400E-01
   7114.00  9.7704778E-02
   7114.33  9.6604247E-02
   7114.67  9.8800802E-02
   7115.00  1.0392340E-01
   7115.33  1.1112442E-01
   7115.67  1.1842942E-01
   7116.00  1.2502930E-01
   7116.33  1.3113494E-01
   7116.67  1.3820973E-01
   7117.00  1.4706664E-01
   7117.33  1.5648200E-01
   7117.67  1.6177576E-01
   7118.00  1.5856785E-01
   7118.33  1.4774323E-01
   7118.67  1.3758777E-01
   7119.00  1.3155599E-01
   7119.33  1.2929725E-01
   7119.67  1.2844006E-01
   7120.00  1.2866230E-01
   7120.33  1.3093951E-01
   7120.67  1.3556016E-01
   7121.00  1.4280107E-01
   7121.33  1.5342607E-01
   7121.67  1.6742055E-01
   7122.00  1.8487214E-01
   7122.33  2.0581481E-01
   7122.67  2.2915987E-01
   7123.00  2.5444165E-01
   7123.33  2.8194342E-01
   7123.67  3.1182828E-01
   7124.00  3.4396847E-01
   7124.33  3.7665334E-01
   7124.67  4.0705130E-01
   7125.00  4.3405068E-01
   7125.33  4.5808819E-01
   7125.67  4.8044811E-01
   7126.00  5.0109033E-01
   7126.33  5.1899271E-01
   7126.67  5.3365543E-01
   7127.00  5.4445431E-01
   7127.33  5.5025640E-01
   7127.67  5.5186254E-01
   7128.00  5.5067481E-01
   7128.33  5.4940398E-01
   7128.67  5.5078927E-01
   7129.00  5.5642004E-01
   7129.33  5.6773941E-01
   7129.67  5.8405253E-01
   7130.00  6.0478731E-01
   7130.33  6.2922045E-01
   7130.67  6.5543119E-01
   7131.00  6.8193142E-01
   7131.33  7.0671824E-01
   7131.67  7.2827785E-01
   7132.00  7.4538798E-01
   7132.33  7.5633279E-01
   7132.67  7.6121363E-01
   7133.00  7.5990218E-01
   7133.33  7.5211566E-01
   7133.67  7.3985758E-01
   7134.00  7.2486349E-01
   7134.33  7.0921297E-01
   7134.67  6.9438615E-01
   7135.00  6.8060323E-01
   7135.33  6.6723341E-01
   7135.67  6.5319338E-01
   7136.00  6.3777314E-01
   7136.33  6.2038725E-01
   7136.67  6.0136694E-01
   7137.00  5.8110994E-01
   7137.33  5.6026764E-01
   7137.67  5.3980433E-01
   7138.00  5.2056305E-01
   7138.33  5.0372632E-01
   7138.67  4.8975697E-01
   7139.00  4.7914991E-01
   7139.33  4.7292246E-01
   7139.67  4.7113294E-01
   7140.00  4.7422160E-01
   7140.33  4.8319603E-01
   7140.67  4.9746607E-01
   7141.00  5.1681709E-01
   7141.33  5.4127351E-01
   7141.67  5.6945601E-01
   7142.00  6.0048306E-01
   7142.33  6.3331227E-01
   7142.67  6.6620263E-01
   7143.00  6.9750924E-01
   7143.33  7.2438682E-01
   7143.67  7.4462610E-01
   7144.00  7.5605464E-01
   7144.33  7.5614353E-01
   7144.67  7.4716912E-01
   7145.00  7.3164769E-01
   7145.33  7.1282148E-01
   7145.67  6.9406980E-01
   7146.00  6.7696880E-01
   7146.33  6.6262136E-01
   7146.67  6.5078748E-01
   7147.00  6.4121200E-01
   7147.33  6.3369598E-01
   7147.67  6.2760052E-01
   7148.00  6.2265687E-01
   7148.33  6.1877564E-01
   7148.67  6.1570985E-01
   7149.00  6.1338433E-01
   7149.33  6.1181035E-01
   7149.67  6.1083277E-01
   7150.00  6.1038889E-01
   7150.33  6.1046538E-01
   7150.67  6.1093978E-01
   7151.00  6.1176410E-01
   7151.33  6.1293060E-01
   7151.67  6.1436517E-01
   7152.00  6.1603821E-01
   7152.33  6.1792904E-01
   7152.67  6.1994837E-01
   7153.00  6.2201795E-01
   7153.33  6.2400735E-01
   7153.67  6.2577522E-01
   7154.00  6.2717973E-01
   7154.33  6.2799263E-01
   7154.67  6.2813964E-01
   7155.00  6.2753179E-01
   7155.33  6.2601018E-01
   7155.67  6.2367063E-01
   7156.00  6.2054368E-01
   7156.33  6.1659985E-01
   7156.67  6.1199761E-01
   7157.00  6.0678349E-01
   7157.33  6.0090932E-01
   7157.67  5.9443541E-01
   7158.00  5.8732314E-01
   7158.33  5.7942515E-01
   7158.67  5.7077893E-01
   7159.00  5.6136407E-01
   7159.33  5.5111139E-01
   7159.67  5.4020828E-01
   7160.00  5.2878958E-01
   7160.33  5.1701386E-01
   7160.67  5.0513122E-01
   7161.00  4.9331531E-01
   7161.33  4.8177194E-01
   7161.67  4.7059902E-01
   7162.00  4.5986549E-01
   7162.33  4.4966755E-01
   7162.67  4.3994397E-01
   7163.00  4.3067134E-01
   7163.33  4.2185529E-01
   7163.67  4.1338905E-01
   7164.00  4.0522226E-01
   7164.33  3.9732820E-01
   7164.67  3.8962720E-01
   7165.00  3.8208844E-01
   7165.33  3.7471051E-01
   7165.67  3.6747606E-01
   7166.00  3.6040132E-01
   7166.33  3.5354532E-01
   7166.67  3.4693081E-01
   7167.00  3.4060263E-01
   7167.33  3.3465398E-01
   7167.67  3.2908830E-01
   7168.00  3.2393732E-01
   7168.33  3.1927762E-01
   7168.67  3.1506042E-01
   7169.00  3.1128464E-01
   7169.33  3.0799837E-01
   7169.67  3.0513679E-01
   7170.00  3.0268895E-01
   7170.33  3.0068921E-01
   7170.67  2.9906772E-01
   7171.00  2.9780172E-01
   7171.33  2.9689260E-01
   7171.67  2.9623862E-01
   7172.00  2.9575858E-01
