    FDMNES
    energy     <xanes>
   7097.00  4.3579126E-03
   7097.33  4.4504469E-03
   7097.67  4.5467587E-03
   7098.00  4.6470884E-03
   7098.33  4.7522852E-03
   7098.67  4.8621519E-03
   7099.00  4.9770144E-03
   7099.33  5.0979730E-03
   7099.67  5.2248256E-03
   7100.00  5.3580282E-03
   7100.33  5.4990470E-03
   7100.67  5.6476937E-03
   7101.00  5.8046286E-03
   7101.33  5.9718744E-03
   7101.67  6.1492984E-03
   7102.00  6.3378979E-03
   7102.33  6.5405839E-03
   7102.67  6.7573733E-03
   7103.00  6.9898519E-03
   7103.33  7.2424343E-03
   7103.67  7.5155077E-03
   7104.00  7.8117569E-03
   7104.33  8.1383339E-03
   7104.67  8.4965423E-03
   7105.00  8.8913034E-03
   7105.33  9.3352314E-03
   7105.67  9.8320222E-03
   7106.00  1.0391679E-02
   7106.33  1.1039099E-02
   7106.67  1.1784900E-02
   7107.00  1.2652465E-02
   7107.33  1.3699225E-02
   7107.67  1.4959380E-02
   7108.00  1.6499745E-02
   7108.33  1.8486992E-02
   7108.67  2.1059478E-02
   7109.00  2.4477563E-02
   7109.33  2.9437967E-02
   7109.67  3.6772724E-02
   7110.00  4.8125291E-02
   7110.33  6.8252001E-02
   7110.67  1.0177713E-01
   7111.00  1.4624735E-01
   7111.33  1.7449821E-01
   7111.67  1.8639450E-01
   7112.00  2.0452531E-01
   7112.33  2.2179407E-01
   7112.67  2.0262169E-01
   7113.00  1.5816726E-01
   7113.33  1.2168732E-01
   7113.67  9.8073644E-02
   7114.00  8.2995463E-02
   7114.33  7.3018702E-02
   7114.67  6.6351905E-02
   7115.00  6.2366150E-02
   7115.33  6.0477694E-02
   7115.67  5.9967910E-02
   7116.00  6.0777679E-02
   7116.33  6.3173537E-02
   7116.67  6.7036880E-02
   7117.00  7.2332767E-02
   7117.33  7.8997341E-02
   7117.67  8.6550685E-02
   7118.00  9.4896601E-02
   7118.33  1.0431379E-01
   7118.67  1.1481275E-01
   7119.00  1.2639515E-01
   7119.33  1.3907504E-01
   7119.67  1.5251120E-01
   7120.00  1.6649364E-01
   7120.33  1.8089965E-01
   7120.67  1.9566231E-01
   7121.00  2.1093831E-01
   7121.33  2.2731838E-01
   7121.67  2.4546964E-01
   7122.00  2.6617638E-01
   7122.33  2.9043405E-01
   7122.67  3.1744696E-01
   7123.00  3.4556103E-01
   7123.33  3.7111532E-01
   7123.67  3.9169837E-01
   7124.00  4.0839434E-01
   7124.33  4.2527324E-01
   7124.67  4.4413505E-01
   7125.00  4.6435796E-01
   7125.33  4.8562784E-01
   7125.67  5.0804449E-01
   7126.00  5.3076681E-01
   7126.33  5.5105515E-01
   7126.67  5.6664501E-01
   7127.00  5.7623493E-01
   7127.33  5.7899026E-01
   7127.67  5.7711287E-01
   7128.00  5.7264263E-01
   7128.33  5.6783317E-01
   7128.67  5.6430504E-01
   7129.00  5.6288685E-01
   7129.33  5.6427722E-01
   7129.67  5.6793162E-01
   7130.00  5.7332807E-01
   7130.33  5.8003945E-01
   7130.67  5.8774143E-01
   7131.00  5.9662185E-01
   7131.33  6.0730230E-01
   7131.67  6.1981899E-01
   7132.00  6.3379430E-01
   7132.33  6.4811392E-01
   7132.67  6.6153662E-01
   7133.00  6.7360642E-01
   7133.33  6.8443659E-01
   7133.67  6.9471112E-01
   7134.00  7.0464531E-01
   7134.33  7.1394207E-01
   7134.67  7.2218299E-01
   7135.00  7.2902340E-01
   7135.33  7.3418791E-01
   7135.67  7.3811792E-01
   7136.00  7.4116509E-01
   7136.33  7.4361769E-01
   7136.67  7.4571372E-01
   7137.00  7.4742904E-01
   7137.33  7.4847900E-01
   7137.67  7.4857127E-01
   7138.00  7.4731628E-01
   7138.33  7.4402854E-01
   7138.67  7.3857051E-01
   7139.00  7.3078633E-01
   7139.33  7.2045502E-01
   7139.67  7.0818850E-01
   7140.00  6.9443867E-01
   7140.33  6.7972903E-01
   7140.67  6.6480256E-01
   7141.00  6.5014245E-01
   7141.33  6.3628001E-01
   7141.67  6.2342728E-01
   7142.00  6.1174093E-01
   7142.33  6.0148699E-01
   7142.67  5.9254441E-01
   7143.00  5.8487292E-01
   7143.33  5.7851857E-01
   7143.67  5.7320350E-01
   7144.00  5.6879734E-01
   7144.33  5.6522650E-01
   7144.67  5.6222477E-01
   7145.00  5.5964475E-01
   7145.33  5.5735552E-01
   7145.67  5.5517834E-01
   7146.00  5.5300568E-01
   7146.33  5.5072553E-01
   7146.67  5.4828187E-01
   7147.00  5.4564480E-01
   7147.33  5.4278861E-01
   7147.67  5.3977159E-01
   7148.00  5.3664801E-01
   7148.33  5.3349841E-01
   7148.67  5.3041943E-01
   7149.00  5.2748898E-01
   7149.33  5.2480882E-01
   7149.67  5.2239053E-01
   7150.00  5.2023197E-01
   7150.33  5.1833314E-01
   7150.67  5.1661062E-01
   7151.00  5.1499675E-01
   7151.33  5.1339600E-01
   7151.67  5.1169831E-01
   7152.00  5.0980723E-01
   7152.33  5.0757415E-01
   7152.67  5.0493428E-01
   7153.00  5.0181421E-01
   7153.33  4.9808709E-01
   7153.67  4.9379423E-01
   7154.00  4.8894408E-01
   7154.33  4.8351376E-01
   7154.67  4.7762776E-01
   7155.00  4.7133748E-01
   7155.33  4.6464186E-01
   7155.67  4.5761000E-01
   7156.00  4.5025632E-01
   7156.33  4.4256862E-01
   7156.67  4.3463408E-01
   7157.00  4.2652208E-01
   7157.33  4.1832979E-01
   7157.67  4.1018501E-01
   7158.00  4.0218648E-01
   7158.33  3.9446329E-01
   7158.67  3.8706070E-01
   7159.00  3.8002693E-01
   7159.33  3.7345424E-01
   7159.67  3.6732136E-01
   7160.00  3.6164707E-01
   7160.33  3.5650686E-01
   7160.67  3.5185659E-01
   7161.00  3.4771135E-01
   7161.33  3.4415786E-01
   7161.67  3.4115648E-01
   7162.00  3.3873224E-01
   7162.33  3.3698514E-01
   7162.67  3.3585584E-01
   7163.00  3.3535184E-01
   7163.33  3.3554854E-01
   7163.67  3.3634831E-01
   7164.00  3.3771773E-01
   7164.33  3.3966297E-01
   7164.67  3.4204355E-01
   7165.00  3.4478030E-01
   7165.33  3.4779943E-01
   7165.67  3.5095582E-01
   7166.00  3.5415058E-01
   7166.33  3.5726620E-01
   7166.67  3.6021869E-01
   7167.00  3.6294787E-01
   7167.33  3.6537876E-01
   7167.67  3.6753410E-01
   7168.00  3.6942747E-01
   7168.33  3.7106633E-01
   7168.67  3.7252758E-01
   7169.00  3.7385647E-01
   7169.33  3.7509255E-01
   7169.67  3.7628782E-01
   7170.00  3.7746943E-01
   7170.33  3.7865839E-01
   7170.67  3.7986057E-01
   7171.00  3.8106875E-01
   7171.33  3.8225039E-01
   7171.67  3.8334261E-01
   7172.00  3.8425404E-01
