    FDMNES
    energy     <xanes>
   7097.00  4.3461372E-03
   7097.33  4.4388197E-03
   7097.67  4.5353335E-03
   7098.00  4.6359253E-03
   7098.33  4.7414618E-03
   7098.67  4.8517466E-03
   7099.00  4.9671153E-03
   7099.33  5.0886931E-03
   7099.67  5.2162798E-03
   7100.00  5.3503451E-03
   7100.33  5.4923921E-03
   7100.67  5.6422354E-03
   7101.00  5.8005559E-03
   7101.33  5.9694311E-03
   7101.67  6.1487330E-03
   7102.00  6.3394903E-03
   7102.33  6.5446963E-03
   7102.67  6.7643765E-03
   7103.00  7.0001648E-03
   7103.33  7.2566018E-03
   7103.67  7.5340902E-03
   7104.00  7.8353907E-03
   7104.33  8.1678508E-03
   7104.67  8.5328030E-03
   7105.00  8.9352904E-03
   7105.33  9.3882368E-03
   7105.67  9.8953921E-03
   7106.00  1.0466958E-02
   7106.33  1.1128333E-02
   7106.67  1.1890235E-02
   7107.00  1.2776378E-02
   7107.33  1.3845027E-02
   7107.67  1.5130581E-02
   7108.00  1.6700456E-02
   7108.33  1.8722859E-02
   7108.67  2.1336832E-02
   7109.00  2.4804520E-02
   7109.33  2.9828080E-02
   7109.67  3.7246857E-02
   7110.00  4.8719825E-02
   7110.33  6.9020392E-02
   7110.67  1.0249459E-01
   7111.00  1.4605599E-01
   7111.33  1.7561467E-01
   7111.67  1.8370850E-01
   7112.00  1.8623208E-01
   7112.33  1.9639708E-01
   7112.67  2.0753977E-01
   7113.00  2.1014724E-01
   7113.33  1.8973203E-01
   7113.67  1.6108301E-01
   7114.00  1.3383370E-01
   7114.33  1.0912289E-01
   7114.67  8.9572578E-02
   7115.00  7.6630511E-02
   7115.33  6.9497895E-02
   7115.67  6.5664920E-02
   7116.00  6.4175625E-02
   7116.33  6.4862839E-02
   7116.67  6.7329126E-02
   7117.00  7.1187553E-02
   7117.33  7.5465952E-02
   7117.67  7.9179405E-02
   7118.00  8.2505901E-02
   7118.33  8.6582907E-02
   7118.67  9.2171721E-02
   7119.00  9.9652177E-02
   7119.33  1.0957409E-01
   7119.67  1.2174001E-01
   7120.00  1.3597992E-01
   7120.33  1.5202903E-01
   7120.67  1.6898776E-01
   7121.00  1.8625635E-01
   7121.33  2.0341767E-01
   7121.67  2.2048684E-01
   7122.00  2.3779582E-01
   7122.33  2.5624603E-01
   7122.67  2.7669621E-01
   7123.00  2.9976351E-01
   7123.33  3.2560528E-01
   7123.67  3.5231970E-01
   7124.00  3.7763887E-01
   7124.33  3.9964551E-01
   7124.67  4.2013407E-01
   7125.00  4.4109778E-01
   7125.33  4.6346100E-01
   7125.67  4.8533006E-01
   7126.00  5.0366577E-01
   7126.33  5.1504305E-01
   7126.67  5.2082698E-01
   7127.00  5.2324860E-01
   7127.33  5.2422767E-01
   7127.67  5.2537202E-01
   7128.00  5.2807282E-01
   7128.33  5.3358106E-01
   7128.67  5.4066499E-01
   7129.00  5.4737609E-01
   7129.33  5.5162511E-01
   7129.67  5.5365983E-01
   7130.00  5.5445453E-01
   7130.33  5.5512981E-01
   7130.67  5.5651303E-01
   7131.00  5.5915570E-01
   7131.33  5.6364476E-01
   7131.67  5.6969096E-01
   7132.00  5.7693276E-01
   7132.33  5.8499177E-01
   7132.67  5.9343863E-01
   7133.00  6.0213833E-01
   7133.33  6.1124259E-01
   7133.67  6.2124487E-01
   7134.00  6.3280029E-01
   7134.33  6.4649140E-01
   7134.67  6.6169386E-01
   7135.00  6.7767758E-01
   7135.33  6.9341611E-01
   7135.67  7.0803111E-01
   7136.00  7.2097973E-01
   7136.33  7.3173973E-01
   7136.67  7.4059557E-01
   7137.00  7.4772585E-01
   7137.33  7.5317199E-01
   7137.67  7.5726302E-01
   7138.00  7.6001087E-01
   7138.33  7.6112254E-01
   7138.67  7.6059585E-01
   7139.00  7.5829439E-01
   7139.33  7.5393538E-01
   7139.67  7.4785186E-01
   7140.00  7.4026712E-01
   7140.33  7.3142963E-01
   7140.67  7.2194767E-01
   7141.00  7.1223705E-01
   7141.33  7.0276481E-01
   7141.67  6.9384814E-01
   7142.00  6.8567568E-01
   7142.33  6.7842379E-01
   7142.67  6.7190169E-01
   7143.00  6.6591584E-01
   7143.33  6.6017532E-01
   7143.67  6.5431847E-01
   7144.00  6.4812747E-01
   7144.33  6.4145730E-01
   7144.67  6.3446214E-01
   7145.00  6.2733076E-01
   7145.33  6.2032739E-01
   7145.67  6.1366488E-01
   7146.00  6.0749325E-01
   7146.33  6.0198207E-01
   7146.67  5.9706429E-01
   7147.00  5.9269467E-01
   7147.33  5.8884324E-01
   7147.67  5.8534551E-01
   7148.00  5.8210403E-01
   7148.33  5.7902371E-01
   7148.67  5.7597977E-01
   7149.00  5.7288760E-01
   7149.33  5.6964004E-01
   7149.67  5.6617673E-01
   7150.00  5.6244388E-01
   7150.33  5.5834647E-01
   7150.67  5.5388249E-01
   7151.00  5.4902891E-01
   7151.33  5.4372461E-01
   7151.67  5.3802880E-01
   7152.00  5.3196210E-01
   7152.33  5.2552015E-01
   7152.67  5.1880011E-01
   7153.00  5.1186235E-01
   7153.33  5.0476957E-01
   7153.67  4.9762348E-01
   7154.00  4.9049377E-01
   7154.33  4.8346262E-01
   7154.67  4.7657468E-01
   7155.00  4.6986251E-01
   7155.33  4.6337029E-01
   7155.67  4.5707658E-01
   7156.00  4.5097470E-01
   7156.33  4.4507477E-01
   7156.67  4.3934475E-01
   7157.00  4.3378347E-01
   7157.33  4.2842229E-01
   7157.67  4.2325926E-01
   7158.00  4.1831796E-01
   7158.33  4.1365715E-01
   7158.67  4.0926591E-01
   7159.00  4.0514990E-01
   7159.33  4.0133024E-01
   7159.67  3.9774292E-01
   7160.00  3.9434906E-01
   7160.33  3.9111164E-01
   7160.67  3.8795816E-01
   7161.00  3.8484940E-01
   7161.33  3.8176047E-01
   7161.67  3.7868924E-01
   7162.00  3.7565774E-01
   7162.33  3.7272342E-01
   7162.67  3.6993641E-01
   7163.00  3.6735262E-01
   7163.33  3.6506798E-01
   7163.67  3.6310194E-01
   7164.00  3.6148542E-01
   7164.33  3.6027930E-01
   7164.67  3.5943135E-01
   7165.00  3.5892032E-01
   7165.33  3.5874409E-01
   7165.67  3.5881493E-01
   7166.00  3.5908568E-01
   7166.33  3.5952295E-01
   7166.67  3.6006614E-01
   7167.00  3.6069018E-01
   7167.33  3.6138830E-01
   7167.67  3.6215229E-01
   7168.00  3.6299212E-01
   7168.33  3.6393902E-01
   7168.67  3.6500361E-01
   7169.00  3.6620376E-01
   7169.33  3.6757393E-01
   7169.67  3.6910229E-01
   7170.00  3.7078610E-01
   7170.33  3.7262747E-01
   7170.67  3.7457764E-01
   7171.00  3.7659323E-01
   7171.33  3.7859188E-01
   7171.67  3.8044053E-01
   7172.00  3.8197117E-01
