    FDMNES
    energy     <xanes>
   7097.00  4.0549279E-03
   7097.33  4.1388989E-03
   7097.67  4.2263269E-03
   7098.00  4.3174409E-03
   7098.33  4.4130340E-03
   7098.67  4.5129390E-03
   7099.00  4.6174715E-03
   7099.33  4.7276723E-03
   7099.67  4.8433767E-03
   7100.00  4.9650331E-03
   7100.33  5.0940508E-03
   7100.67  5.2302893E-03
   7101.00  5.3744100E-03
   7101.33  5.5283932E-03
   7101.67  5.6921713E-03
   7102.00  5.8667638E-03
   7102.33  6.0550803E-03
   7102.67  6.2572362E-03
   7103.00  6.4748868E-03
   7103.33  6.7125488E-03
   7103.67  6.9707762E-03
   7104.00  7.2524349E-03
   7104.33  7.5650303E-03
   7104.67  7.9101916E-03
   7105.00  8.2932950E-03
   7105.33  8.7279393E-03
   7105.67  9.2185638E-03
   7106.00  9.7763557E-03
   7106.33  1.0428918E-02
   7106.67  1.1188873E-02
   7107.00  1.2083003E-02
   7107.33  1.3176807E-02
   7107.67  1.4511087E-02
   7108.00  1.6164203E-02
   7108.33  1.8331602E-02
   7108.67  2.1180122E-02
   7109.00  2.5022101E-02
   7109.33  3.0695601E-02
   7109.67  3.9216752E-02
   7110.00  5.2590701E-02
   7110.33  7.6594748E-02
   7110.67  1.1656234E-01
   7111.00  1.6908821E-01
   7111.33  2.0869579E-01
   7111.67  2.3017884E-01
   7112.00  2.3069185E-01
   7112.33  1.9985318E-01
   7112.67  1.6035971E-01
   7113.00  1.2594965E-01
   7113.33  9.9374452E-02
   7113.67  7.9928579E-02
   7114.00  6.7326369E-02
   7114.33  6.0883356E-02
   7114.67  5.7071546E-02
   7115.00  5.2553866E-02
   7115.33  4.7175641E-02
   7115.67  4.3160965E-02
   7116.00  4.0710573E-02
   7116.33  3.9415001E-02
   7116.67  3.8817958E-02
   7117.00  3.8860955E-02
   7117.33  3.9639885E-02
   7117.67  4.1081447E-02
   7118.00  4.3177599E-02
   7118.33  4.5962296E-02
   7118.67  4.9223770E-02
   7119.00  5.2727553E-02
   7119.33  5.6077955E-02
   7119.67  5.8979456E-02
   7120.00  6.1391312E-02
   7120.33  6.3547344E-02
   7120.67  6.5911016E-02
   7121.00  6.8856659E-02
   7121.33  7.2885709E-02
   7121.67  7.8210107E-02
   7122.00  8.5071327E-02
   7122.33  9.3848982E-02
   7122.67  1.0430828E-01
   7123.00  1.1632658E-01
   7123.33  1.3001776E-01
   7123.67  1.4535873E-01
   7124.00  1.6265600E-01
   7124.33  1.8261877E-01
   7124.67  2.0522361E-01
   7125.00  2.3037543E-01
   7125.33  2.5774071E-01
   7125.67  2.8630695E-01
   7126.00  3.1563832E-01
   7126.33  3.4560143E-01
   7126.67  3.7534877E-01
   7127.00  4.0307813E-01
   7127.33  4.2588975E-01
   7127.67  4.4431285E-01
   7128.00  4.6089990E-01
   7128.33  4.7958847E-01
   7128.67  5.0220926E-01
   7129.00  5.2891319E-01
   7129.33  5.5948301E-01
   7129.67  5.9304450E-01
   7130.00  6.2970577E-01
   7130.33  6.7038476E-01
   7130.67  7.1494329E-01
   7131.00  7.6306131E-01
   7131.33  8.1350339E-01
   7131.67  8.6319961E-01
   7132.00  9.0908293E-01
   7132.33  9.4708533E-01
   7132.67  9.7656786E-01
   7133.00  9.9799855E-01
   7133.33  1.0125918E+00
   7133.67  1.0232583E+00
   7134.00  1.0310775E+00
   7134.33  1.0357660E+00
   7134.67  1.0368465E+00
   7135.00  1.0334244E+00
   7135.33  1.0241569E+00
   7135.67  1.0096389E+00
   7136.00  9.9028261E-01
   7136.33  9.6637565E-01
   7136.67  9.3934735E-01
   7137.00  9.0999079E-01
   7137.33  8.7899468E-01
   7137.67  8.4734711E-01
   7138.00  8.1569114E-01
   7138.33  7.8478652E-01
   7138.67  7.5511726E-01
   7139.00  7.2706323E-01
   7139.33  7.0117012E-01
   7139.67  6.7736694E-01
   7140.00  6.5571160E-01
   7140.33  6.3647043E-01
   7140.67  6.1933300E-01
   7141.00  6.0424575E-01
   7141.33  5.9136897E-01
   7141.67  5.8036263E-01
   7142.00  5.7114843E-01
   7142.33  5.6383888E-01
   7142.67  5.5810321E-01
   7143.00  5.5381994E-01
   7143.33  5.5099567E-01
   7143.67  5.4931812E-01
   7144.00  5.4866153E-01
   7144.33  5.4899348E-01
   7144.67  5.5008206E-01
   7145.00  5.5184094E-01
   7145.33  5.5425904E-01
   7145.67  5.5718782E-01
   7146.00  5.6056150E-01
   7146.33  5.6433586E-01
   7146.67  5.6835519E-01
   7147.00  5.7250163E-01
   7147.33  5.7660730E-01
   7147.67  5.8049090E-01
   7148.00  5.8398206E-01
   7148.33  5.8680867E-01
   7148.67  5.8887281E-01
   7149.00  5.9006718E-01
   7149.33  5.9018338E-01
   7149.67  5.8928329E-01
   7150.00  5.8734447E-01
   7150.33  5.8424207E-01
   7150.67  5.8014104E-01
   7151.00  5.7509392E-01
   7151.33  5.6907192E-01
   7151.67  5.6227443E-01
   7152.00  5.5478320E-01
   7152.33  5.4661763E-01
   7152.67  5.3794421E-01
   7153.00  5.2883914E-01
   7153.33  5.1934462E-01
   7153.67  5.0958770E-01
   7154.00  4.9964022E-01
   7154.33  4.8956984E-01
   7154.67  4.7946574E-01
   7155.00  4.6938298E-01
   7155.33  4.5938024E-01
   7155.67  4.4948572E-01
   7156.00  4.3971802E-01
   7156.33  4.3009616E-01
   7156.67  4.2058897E-01
   7157.00  4.1117414E-01
   7157.33  4.0183058E-01
   7157.67  3.9252577E-01
   7158.00  3.8324725E-01
   7158.33  3.7399886E-01
   7158.67  3.6479916E-01
   7159.00  3.5568729E-01
   7159.33  3.4675244E-01
   7159.67  3.3806734E-01
   7160.00  3.2972512E-01
   7160.33  3.2190153E-01
   7160.67  3.1466039E-01
   7161.00  3.0810289E-01
   7161.33  3.0243171E-01
   7161.67  2.9762988E-01
   7162.00  2.9375104E-01
   7162.33  2.9095499E-01
   7162.67  2.8912670E-01
   7163.00  2.8824281E-01
   7163.33  2.8835559E-01
   7163.67  2.8926976E-01
   7164.00  2.9089454E-01
   7164.33  2.9317723E-01
   7164.67  2.9590509E-01
   7165.00  2.9895511E-01
   7165.33  3.0221329E-01
   7165.67  3.0553603E-01
   7166.00  3.0883854E-01
   7166.33  3.1203346E-01
   7166.67  3.1508502E-01
   7167.00  3.1797591E-01
   7167.33  3.2069142E-01
   7167.67  3.2327599E-01
   7168.00  3.2576126E-01
   7168.33  3.2818332E-01
   7168.67  3.3059392E-01
   7169.00  3.3302920E-01
   7169.33  3.3553363E-01
   7169.67  3.3812830E-01
   7170.00  3.4082968E-01
   7170.33  3.4365838E-01
   7170.67  3.4658720E-01
   7171.00  3.4958116E-01
   7171.33  3.5254841E-01
   7171.67  3.5531114E-01
   7172.00  3.5762239E-01
