    FDMNES
    energy     <xanes>
   7097.00  4.0535902E-03
   7097.33  4.1374496E-03
   7097.67  4.2247564E-03
   7098.00  4.3157385E-03
   7098.33  4.4111865E-03
   7098.67  4.5109331E-03
   7099.00  4.6152924E-03
   7099.33  4.7253015E-03
   7099.67  4.8407955E-03
   7100.00  4.9622208E-03
   7100.33  5.0909809E-03
   7100.67  5.2269350E-03
   7101.00  5.3707413E-03
   7101.33  5.5243712E-03
   7101.67  5.6877565E-03
   7102.00  5.8619112E-03
   7102.33  6.0497314E-03
   7102.67  6.2513302E-03
   7103.00  6.4683542E-03
   7103.33  6.7052973E-03
   7103.67  6.9627087E-03
   7104.00  7.2434383E-03
   7104.33  7.5549520E-03
   7104.67  7.8988675E-03
   7105.00  8.2805303E-03
   7105.33  8.7134640E-03
   7105.67  9.2020792E-03
   7106.00  9.7574979E-03
   7106.33  1.0407165E-02
   7106.67  1.1163623E-02
   7107.00  1.2053493E-02
   7107.33  1.3141887E-02
   7107.67  1.4469347E-02
   7108.00  1.6113750E-02
   7108.33  1.8269324E-02
   7108.67  2.1101816E-02
   7109.00  2.4921511E-02
   7109.33  3.0560867E-02
   7109.67  3.9028812E-02
   7110.00  5.2316054E-02
   7110.33  7.6157678E-02
   7110.67  1.1585284E-01
   7111.00  1.6808448E-01
   7111.33  2.0790366E-01
   7111.67  2.2970589E-01
   7112.00  2.2966603E-01
   7112.33  1.9814561E-01
   7112.67  1.5878481E-01
   7113.00  1.2466155E-01
   7113.33  9.8369754E-02
   7113.67  7.9262220E-02
   7114.00  6.6989962E-02
   7114.33  6.0798131E-02
   7114.67  5.7066753E-02
   7115.00  5.2475375E-02
   7115.33  4.7089817E-02
   7115.67  4.3123154E-02
   7116.00  4.0717912E-02
   7116.33  3.9454924E-02
   7116.67  3.8889644E-02
   7117.00  3.8968032E-02
   7117.33  3.9786058E-02
   7117.67  4.1268618E-02
   7118.00  4.3406365E-02
   7118.33  4.6228507E-02
   7118.67  4.9515505E-02
   7119.00  5.3026281E-02
   7119.33  5.6364845E-02
   7119.67  5.9253349E-02
   7120.00  6.1666925E-02
   7120.33  6.3848524E-02
   7120.67  6.6252171E-02
   7121.00  6.9244244E-02
   7121.33  7.3321654E-02
   7121.67  7.8696043E-02
   7122.00  8.5609216E-02
   7122.33  9.4437343E-02
   7122.67  1.0494326E-01
   7123.00  1.1700932E-01
   7123.33  1.3076519E-01
   7123.67  1.4619930E-01
   7124.00  1.6362028E-01
   7124.33  1.8373126E-01
   7124.67  2.0649332E-01
   7125.00  2.3180537E-01
   7125.33  2.5934106E-01
   7125.67  2.8810159E-01
   7126.00  3.1765743E-01
   7126.33  3.4784204E-01
   7126.67  3.7771944E-01
   7127.00  4.0540982E-01
   7127.33  4.2802751E-01
   7127.67  4.4629640E-01
   7128.00  4.6289688E-01
   7128.33  4.8178329E-01
   7128.67  5.0466940E-01
   7129.00  5.3163361E-01
   7129.33  5.6241645E-01
   7129.67  5.9614867E-01
   7130.00  6.3294740E-01
   7130.33  6.7373105E-01
   7130.67  7.1836065E-01
   7131.00  7.6649787E-01
   7131.33  8.1683639E-01
   7131.67  8.6623751E-01
   7132.00  9.1157658E-01
   7132.33  9.4875471E-01
   7132.67  9.7725720E-01
   7133.00  9.9767601E-01
   7133.33  1.0113654E+00
   7133.67  1.0212914E+00
   7134.00  1.0285455E+00
   7134.33  1.0328498E+00
   7134.67  1.0336851E+00
   7135.00  1.0301441E+00
   7135.33  1.0208879E+00
   7135.67  1.0064781E+00
   7136.00  9.8729899E-01
   7136.33  9.6360241E-01
   7136.67  9.3677750E-01
   7137.00  9.0759454E-01
   7137.33  8.7672295E-01
   7137.67  8.4515586E-01
   7138.00  8.1354438E-01
   7138.33  7.8266007E-01
   7138.67  7.5300500E-01
   7139.00  7.2497038E-01
   7139.33  6.9911344E-01
   7139.67  6.7536723E-01
   7140.00  6.5379234E-01
   7140.33  6.3465899E-01
   7140.67  6.1765301E-01
   7141.00  6.0272012E-01
   7141.33  5.9002127E-01
   7141.67  5.7920852E-01
   7142.00  5.7019770E-01
   7142.33  5.6309421E-01
   7142.67  5.5755946E-01
   7143.00  5.5346578E-01
   7143.33  5.5081110E-01
   7143.67  5.4928038E-01
   7144.00  5.4874495E-01
   7144.33  5.4916715E-01
   7144.67  5.5031834E-01
   7145.00  5.5211327E-01
   7145.33  5.5454047E-01
   7145.67  5.5745844E-01
   7146.00  5.6080575E-01
   7146.33  5.6454262E-01
   7146.67  5.6852019E-01
   7147.00  5.7262475E-01
   7147.33  5.7669246E-01
   7147.67  5.8054381E-01
   7148.00  5.8400923E-01
   7148.33  5.8681619E-01
   7148.67  5.8886105E-01
   7149.00  5.9003260E-01
   7149.33  5.9012030E-01
   7149.67  5.8918592E-01
   7150.00  5.8720638E-01
   7150.33  5.8405554E-01
   7150.67  5.7989947E-01
   7151.00  5.7479145E-01
   7151.33  5.6870331E-01
   7151.67  5.6183635E-01
   7152.00  5.5427339E-01
   7152.33  5.4603479E-01
   7152.67  5.3728807E-01
   7153.00  5.2811012E-01
   7153.33  5.1854394E-01
   7153.67  5.0871714E-01
   7154.00  4.9870213E-01
   7154.33  4.8856751E-01
   7154.67  4.7840214E-01
   7155.00  4.6826042E-01
   7155.33  4.5820168E-01
   7155.67  4.4825463E-01
   7156.00  4.3843771E-01
   7156.33  4.2877000E-01
   7156.67  4.1921966E-01
   7157.00  4.0976395E-01
   7157.33  4.0038186E-01
   7157.67  3.9104138E-01
   7158.00  3.8173121E-01
   7158.33  3.7245765E-01
   7158.67  3.6324067E-01
   7159.00  3.5412151E-01
   7159.33  3.4519340E-01
   7159.67  3.3652963E-01
   7160.00  3.2822466E-01
   7160.33  3.2045777E-01
   7160.67  3.1329158E-01
   7161.00  3.0682741E-01
   7161.33  3.0126953E-01
   7161.67  2.9659733E-01
   7162.00  2.9286263E-01
   7162.33  2.9022403E-01
   7162.67  2.8856087E-01
   7163.00  2.8784413E-01
   7163.33  2.8812154E-01
   7163.67  2.8919531E-01
   7164.00  2.9097032E-01
   7164.33  2.9338685E-01
   7164.67  2.9622972E-01
   7165.00  2.9937323E-01
   7165.33  3.0269875E-01
   7165.67  3.0606550E-01
   7166.00  3.0939020E-01
   7166.33  3.1258700E-01
   7166.67  3.1562687E-01
   7167.00  3.1849629E-01
   7167.33  3.2118413E-01
   7167.67  3.2373922E-01
   7168.00  3.2619570E-01
   7168.33  3.2859200E-01
   7168.67  3.3098073E-01
   7169.00  3.3339851E-01
   7169.33  3.3589050E-01
   7169.67  3.3847708E-01
   7170.00  3.4117447E-01
   7170.33  3.4400337E-01
   7170.67  3.4693566E-01
   7171.00  3.4993592E-01
   7171.33  3.5291178E-01
   7171.67  3.5568394E-01
   7172.00  3.5800385E-01
