    FDMNES
    energy     <xanes>
   7097.00  4.3133998E-03
   7097.33  4.3999430E-03
   7097.67  4.4896228E-03
   7098.00  4.5826079E-03
   7098.33  4.6795513E-03
   7098.67  4.7802464E-03
   7099.00  4.8849109E-03
   7099.33  4.9943531E-03
   7099.67  5.1083483E-03
   7100.00  5.2271845E-03
   7100.33  5.3518836E-03
   7100.67  5.4822067E-03
   7101.00  5.6185461E-03
   7101.33  5.7622276E-03
   7101.67  5.9130106E-03
   7102.00  6.0714492E-03
   7102.33  6.2393215E-03
   7102.67  6.4164164E-03
   7103.00  6.6035526E-03
   7103.33  6.8032219E-03
   7103.67  7.0153177E-03
   7104.00  7.2411257E-03
   7104.33  7.4843469E-03
   7104.67  7.7451717E-03
   7105.00  8.0257850E-03
   7105.33  8.3321472E-03
   7105.67  8.6652695E-03
   7106.00  9.0292898E-03
   7106.33  9.4349715E-03
   7106.67  9.8857648E-03
   7107.00  1.0390785E-02
   7107.33  1.0973005E-02
   7107.67  1.1644314E-02
   7108.00  1.2429716E-02
   7108.33  1.3392332E-02
   7108.67  1.4581861E-02
   7109.00  1.6094174E-02
   7109.33  1.8187330E-02
   7109.67  2.1167433E-02
   7110.00  2.5643314E-02
   7110.33  3.3372530E-02
   7110.67  4.5964629E-02
   7111.00  6.2289123E-02
   7111.33  7.3409968E-02
   7111.67  7.5495946E-02
   7112.00  7.1921669E-02
   7112.33  7.0300981E-02
   7112.67  7.0684068E-02
   7113.00  6.9271239E-02
   7113.33  6.5012946E-02
   7113.67  6.0729272E-02
   7114.00  5.7661953E-02
   7114.33  5.6481193E-02
   7114.67  5.7097749E-02
   7115.00  5.9607179E-02
   7115.33  6.4517729E-02
   7115.67  7.1983907E-02
   7116.00  8.2491417E-02
   7116.33  9.7047764E-02
   7116.67  1.1537669E-01
   7117.00  1.3697787E-01
   7117.33  1.6087090E-01
   7117.67  1.8600983E-01
   7118.00  2.1307893E-01
   7118.33  2.4458105E-01
   7118.67  2.8101768E-01
   7119.00  3.2008720E-01
   7119.33  3.5369144E-01
   7119.67  3.7562456E-01
   7120.00  3.8792942E-01
   7120.33  3.9969440E-01
   7120.67  4.1772813E-01
   7121.00  4.4378805E-01
   7121.33  4.7952291E-01
   7121.67  5.2447904E-01
   7122.00  5.7689363E-01
   7122.33  6.2765358E-01
   7122.67  6.6293118E-01
   7123.00  6.7357002E-01
   7123.33  6.5515217E-01
   7123.67  6.1872509E-01
   7124.00  5.7410496E-01
   7124.33  5.3174717E-01
   7124.67  4.9744929E-01
   7125.00  4.7278230E-01
   7125.33  4.5775415E-01
   7125.67  4.4877344E-01
   7126.00  4.4345343E-01
   7126.33  4.3956881E-01
   7126.67  4.3552864E-01
   7127.00  4.3110317E-01
   7127.33  4.2707132E-01
   7127.67  4.2468703E-01
   7128.00  4.2509640E-01
   7128.33  4.2979750E-01
   7128.67  4.3870456E-01
   7129.00  4.5149622E-01
   7129.33  4.6760619E-01
   7129.67  4.8567851E-01
   7130.00  5.0489497E-01
   7130.33  5.2375280E-01
   7130.67  5.3992600E-01
   7131.00  5.5100277E-01
   7131.33  5.5392731E-01
   7131.67  5.4922718E-01
   7132.00  5.3818069E-01
   7132.33  5.2295021E-01
   7132.67  5.0676239E-01
   7133.00  4.9148655E-01
   7133.33  4.7879517E-01
   7133.67  4.6905215E-01
   7134.00  4.6239557E-01
   7134.33  4.5903434E-01
   7134.67  4.5821477E-01
   7135.00  4.5945259E-01
   7135.33  4.6220901E-01
   7135.67  4.6563740E-01
   7136.00  4.6940658E-01
   7136.33  4.7356590E-01
   7136.67  4.7830635E-01
   7137.00  4.8380614E-01
   7137.33  4.9022263E-01
   7137.67  4.9733264E-01
   7138.00  5.0491592E-01
   7138.33  5.1264613E-01
   7138.67  5.2014240E-01
   7139.00  5.2714277E-01
   7139.33  5.3339267E-01
   7139.67  5.3898292E-01
   7140.00  5.4404833E-01
   7140.33  5.4884242E-01
   7140.67  5.5387767E-01
   7141.00  5.5976895E-01
   7141.33  5.6755029E-01
   7141.67  5.7760252E-01
   7142.00  5.9000027E-01
   7142.33  6.0459938E-01
   7142.67  6.2054306E-01
   7143.00  6.3732536E-01
   7143.33  6.5446713E-01
   7143.67  6.7139204E-01
   7144.00  6.8753787E-01
   7144.33  7.0190021E-01
   7144.67  7.1378831E-01
   7145.00  7.2250155E-01
   7145.33  7.2699860E-01
   7145.67  7.2754931E-01
   7146.00  7.2429313E-01
   7146.33  7.1725594E-01
   7146.67  7.0748311E-01
   7147.00  6.9556053E-01
   7147.33  6.8196365E-01
   7147.67  6.6745797E-01
   7148.00  6.5245912E-01
   7148.33  6.3735630E-01
   7148.67  6.2248521E-01
   7149.00  6.0805548E-01
   7149.33  5.9430175E-01
   7149.67  5.8126304E-01
   7150.00  5.6902379E-01
   7150.33  5.5777214E-01
   7150.67  5.4744692E-01
   7151.00  5.3806076E-01
   7151.33  5.2970267E-01
   7151.67  5.2218835E-01
   7152.00  5.1542412E-01
   7152.33  5.0934582E-01
   7152.67  5.0371892E-01
   7153.00  4.9840808E-01
   7153.33  4.9329499E-01
   7153.67  4.8825234E-01
   7154.00  4.8322737E-01
   7154.33  4.7820716E-01
   7154.67  4.7322603E-01
   7155.00  4.6834371E-01
   7155.33  4.6367002E-01
   7155.67  4.5926473E-01
   7156.00  4.5517905E-01
   7156.33  4.5147523E-01
   7156.67  4.4808194E-01
   7157.00  4.4494295E-01
   7157.33  4.4199670E-01
   7157.67  4.3914319E-01
   7158.00  4.3633422E-01
   7158.33  4.3354156E-01
   7158.67  4.3075566E-01
   7159.00  4.2797964E-01
   7159.33  4.2521987E-01
   7159.67  4.2247467E-01
   7160.00  4.1973996E-01
   7160.33  4.1701119E-01
   7160.67  4.1429047E-01
   7161.00  4.1158719E-01
   7161.33  4.0892404E-01
   7161.67  4.0632298E-01
   7162.00  4.0381215E-01
   7162.33  4.0144360E-01
   7162.67  3.9923629E-01
   7163.00  3.9721403E-01
   7163.33  3.9541720E-01
   7163.67  3.9382040E-01
   7164.00  3.9241140E-01
   7164.33  3.9118519E-01
   7164.67  3.9008940E-01
   7165.00  3.8909579E-01
   7165.33  3.8818491E-01
   7165.67  3.8732848E-01
   7166.00  3.8651997E-01
   7166.33  3.8576988E-01
   7166.67  3.8508637E-01
   7167.00  3.8448794E-01
   7167.33  3.8401352E-01
   7167.67  3.8367567E-01
   7168.00  3.8349620E-01
   7168.33  3.8351984E-01
   7168.67  3.8374030E-01
   7169.00  3.8416602E-01
   7169.33  3.8482598E-01
   7169.67  3.8568885E-01
   7170.00  3.8674325E-01
   7170.33  3.8798932E-01
   7170.67  3.8937461E-01
   7171.00  3.9086062E-01
   7171.33  3.9238176E-01
   7171.67  3.9381691E-01
   7172.00  3.9501761E-01
