    FDMNES
    energy     <xanes>
   7097.00  4.4738359E-03
   7097.33  4.5680392E-03
   7097.67  4.6659882E-03
   7098.00  4.7679108E-03
   7098.33  4.8746313E-03
   7098.67  4.9859390E-03
   7099.00  5.1021383E-03
   7099.33  5.2242825E-03
   7099.67  5.3521500E-03
   7100.00  5.4861590E-03
   7100.33  5.6276907E-03
   7100.67  5.7765251E-03
   7101.00  5.9332562E-03
   7101.33  6.0997522E-03
   7101.67  6.2758254E-03
   7102.00  6.4623526E-03
   7102.33  6.6619605E-03
   7102.67  6.8745622E-03
   7103.00  7.1015155E-03
   7103.33  7.3466951E-03
   7103.67  7.6102754E-03
   7104.00  7.8944864E-03
   7104.33  8.2054032E-03
   7104.67  8.5438513E-03
   7105.00  8.9137781E-03
   7105.33  9.3254885E-03
   7105.67  9.7814883E-03
   7106.00  1.0289475E-02
   7106.33  1.0868857E-02
   7106.67  1.1526864E-02
   7107.00  1.2280599E-02
   7107.33  1.3172302E-02
   7107.67  1.4224571E-02
   7108.00  1.5483169E-02
   7108.33  1.7061672E-02
   7108.67  1.9045980E-02
   7109.00  2.1598934E-02
   7109.33  2.5147506E-02
   7109.67  3.0159802E-02
   7110.00  3.7548554E-02
   7110.33  4.9920747E-02
   7110.67  7.0097037E-02
   7111.00  9.9481730E-02
   7111.33  1.3436932E-01
   7111.67  1.6750489E-01
   7112.00  1.9045928E-01
   7112.33  1.9794910E-01
   7112.67  1.9245513E-01
   7113.00  1.7452993E-01
   7113.33  1.4636028E-01
   7113.67  1.1953676E-01
   7114.00  9.9770491E-02
   7114.33  8.7677076E-02
   7114.67  8.0139969E-02
   7115.00  7.5847725E-02
   7115.33  7.4478922E-02
   7115.67  7.5374153E-02
   7116.00  7.8313645E-02
   7116.33  8.3165517E-02
   7116.67  8.9100514E-02
   7117.00  9.5421827E-02
   7117.33  1.0222521E-01
   7117.67  1.1087585E-01
   7118.00  1.2233645E-01
   7118.33  1.3739091E-01
   7118.67  1.5577480E-01
   7119.00  1.7740605E-01
   7119.33  2.0203364E-01
   7119.67  2.2827771E-01
   7120.00  2.5520219E-01
   7120.33  2.8195940E-01
   7120.67  3.0768790E-01
   7121.00  3.3122903E-01
   7121.33  3.5124702E-01
   7121.67  3.6910023E-01
   7122.00  3.8689672E-01
   7122.33  4.0647965E-01
   7122.67  4.2632823E-01
   7123.00  4.4411204E-01
   7123.33  4.5934851E-01
   7123.67  4.7387500E-01
   7124.00  4.8789545E-01
   7124.33  5.0032422E-01
   7124.67  5.1050983E-01
   7125.00  5.1798131E-01
   7125.33  5.2263883E-01
   7125.67  5.2604616E-01
   7126.00  5.2958159E-01
   7126.33  5.3476088E-01
   7126.67  5.4158490E-01
   7127.00  5.4900846E-01
   7127.33  5.5570790E-01
   7127.67  5.6186942E-01
   7128.00  5.6806597E-01
   7128.33  5.7464511E-01
   7128.67  5.8165913E-01
   7129.00  5.8890162E-01
   7129.33  5.9563440E-01
   7129.67  6.0145385E-01
   7130.00  6.0645236E-01
   7130.33  6.1069538E-01
   7130.67  6.1404312E-01
   7131.00  6.1620587E-01
   7131.33  6.1705446E-01
   7131.67  6.1721091E-01
   7132.00  6.1718929E-01
   7132.33  6.1724466E-01
   7132.67  6.1692777E-01
   7133.00  6.1556389E-01
   7133.33  6.1279139E-01
   7133.67  6.0933975E-01
   7134.00  6.0553256E-01
   7134.33  6.0119059E-01
   7134.67  5.9619206E-01
   7135.00  5.9049361E-01
   7135.33  5.8410054E-01
   7135.67  5.7731080E-01
   7136.00  5.7037875E-01
   7136.33  5.6360529E-01
   7136.67  5.5718413E-01
   7137.00  5.5123163E-01
   7137.33  5.4589865E-01
   7137.67  5.4117287E-01
   7138.00  5.3710222E-01
   7138.33  5.3383961E-01
   7138.67  5.3135944E-01
   7139.00  5.2970664E-01
   7139.33  5.2901590E-01
   7139.67  5.2917380E-01
   7140.00  5.3014488E-01
   7140.33  5.3194635E-01
   7140.67  5.3437897E-01
   7141.00  5.3732995E-01
   7141.33  5.4069936E-01
   7141.67  5.4428979E-01
   7142.00  5.4797459E-01
   7142.33  5.5161084E-01
   7142.67  5.5509070E-01
   7143.00  5.5834948E-01
   7143.33  5.6132074E-01
   7143.67  5.6403645E-01
   7144.00  5.6651012E-01
   7144.33  5.6872360E-01
   7144.67  5.7069346E-01
   7145.00  5.7238408E-01
   7145.33  5.7368482E-01
   7145.67  5.7455501E-01
   7146.00  5.7492118E-01
   7146.33  5.7463985E-01
   7146.67  5.7374562E-01
   7147.00  5.7224939E-01
   7147.33  5.7015258E-01
   7147.67  5.6764660E-01
   7148.00  5.6487935E-01
   7148.33  5.6203724E-01
   7148.67  5.5930260E-01
   7149.00  5.5679173E-01
   7149.33  5.5463713E-01
   7149.67  5.5284249E-01
   7150.00  5.5140604E-01
   7150.33  5.5032801E-01
   7150.67  5.4950393E-01
   7151.00  5.4887252E-01
   7151.33  5.4838568E-01
   7151.67  5.4797564E-01
   7152.00  5.4760314E-01
   7152.33  5.4722796E-01
   7152.67  5.4680999E-01
   7153.00  5.4630648E-01
   7153.33  5.4563155E-01
   7153.67  5.4471804E-01
   7154.00  5.4348076E-01
   7154.33  5.4175835E-01
   7154.67  5.3949595E-01
   7155.00  5.3660709E-01
   7155.33  5.3292051E-01
   7155.67  5.2847205E-01
   7156.00  5.2324727E-01
   7156.33  5.1717687E-01
   7156.67  5.1042782E-01
   7157.00  5.0310158E-01
   7157.33  4.9530144E-01
   7157.67  4.8726003E-01
   7158.00  4.7913465E-01
   7158.33  4.7110542E-01
   7158.67  4.6330724E-01
   7159.00  4.5584402E-01
   7159.33  4.4886901E-01
   7159.67  4.4240644E-01
   7160.00  4.3650809E-01
   7160.33  4.3129365E-01
   7160.67  4.2671420E-01
   7161.00  4.2277886E-01
   7161.33  4.1955653E-01
   7161.67  4.1693770E-01
   7162.00  4.1488572E-01
   7162.33  4.1341522E-01
   7162.67  4.1240874E-01
   7163.00  4.1182261E-01
   7163.33  4.1165615E-01
   7163.67  4.1181679E-01
   7164.00  4.1226336E-01
   7164.33  4.1297235E-01
   7164.67  4.1385530E-01
   7165.00  4.1485558E-01
   7165.33  4.1590754E-01
   7165.67  4.1693262E-01
   7166.00  4.1787145E-01
   7166.33  4.1864353E-01
   7166.67  4.1921840E-01
   7167.00  4.1956820E-01
   7167.33  4.1964871E-01
   7167.67  4.1949485E-01
   7168.00  4.1912491E-01
   7168.33  4.1855063E-01
   7168.67  4.1783907E-01
   7169.00  4.1703219E-01
   7169.33  4.1617318E-01
   7169.67  4.1531299E-01
   7170.00  4.1448468E-01
   7170.33  4.1372570E-01
   7170.67  4.1304799E-01
   7171.00  4.1246077E-01
   7171.33  4.1197938E-01
   7171.67  4.1159112E-01
   7172.00  4.1129310E-01
