    FDMNES
    energy     <xanes>
   7097.00  4.9534987E-03
   7097.33  5.0667484E-03
   7097.67  5.1849675E-03
   7098.00  5.3084822E-03
   7098.33  5.4384251E-03
   7098.67  5.5745466E-03
   7099.00  5.7172869E-03
   7099.33  5.8681141E-03
   7099.67  6.0267677E-03
   7100.00  6.1938575E-03
   7100.33  6.3713335E-03
   7100.67  6.5589428E-03
   7101.00  6.7575551E-03
   7101.33  6.9698374E-03
   7101.67  7.1955863E-03
   7102.00  7.4360871E-03
   7102.33  7.6951168E-03
   7102.67  7.9726155E-03
   7103.00  8.2705644E-03
   7103.33  8.5945479E-03
   7103.67  8.9448617E-03
   7104.00  9.3247246E-03
   7104.33  9.7428488E-03
   7104.67  1.0200391E-02
   7105.00  1.0702940E-02
   7105.33  1.1265062E-02
   7105.67  1.1890073E-02
   7106.00  1.2588557E-02
   7106.33  1.3387247E-02
   7106.67  1.4295334E-02
   7107.00  1.5335438E-02
   7107.33  1.6563499E-02
   7107.67  1.8007220E-02
   7108.00  1.9724298E-02
   7108.33  2.1857733E-02
   7108.67  2.4509215E-02
   7109.00  2.7874161E-02
   7109.33  3.2462911E-02
   7109.67  3.8816166E-02
   7110.00  4.7992195E-02
   7110.33  6.2993035E-02
   7110.67  8.6860083E-02
   7111.00  1.2029951E-01
   7111.33  1.5660790E-01
   7111.67  1.9010932E-01
   7112.00  2.1932150E-01
   7112.33  2.4526951E-01
   7112.67  2.7433597E-01
   7113.00  3.0306232E-01
   7113.33  3.2152557E-01
   7113.67  3.4010619E-01
   7114.00  3.6262018E-01
   7114.33  3.7544212E-01
   7114.67  3.6130319E-01
   7115.00  3.2519287E-01
   7115.33  2.8226910E-01
   7115.67  2.4544928E-01
   7116.00  2.2094542E-01
   7116.33  2.1147830E-01
   7116.67  2.1400418E-01
   7117.00  2.2862722E-01
   7117.33  2.5565461E-01
   7117.67  2.7868063E-01
   7118.00  2.7514431E-01
   7118.33  2.4177822E-01
   7118.67  2.0628681E-01
   7119.00  1.7891883E-01
   7119.33  1.6067510E-01
   7119.67  1.4883479E-01
   7120.00  1.4185012E-01
   7120.33  1.3758248E-01
   7120.67  1.3440236E-01
   7121.00  1.3234359E-01
   7121.33  1.3123268E-01
   7121.67  1.3106939E-01
   7122.00  1.3271032E-01
   7122.33  1.3736655E-01
   7122.67  1.4492020E-01
   7123.00  1.5498009E-01
   7123.33  1.6716612E-01
   7123.67  1.8160859E-01
   7124.00  1.9933608E-01
   7124.33  2.2122735E-01
   7124.67  2.4520785E-01
   7125.00  2.6862671E-01
   7125.33  2.8832992E-01
   7125.67  3.0375084E-01
   7126.00  3.1549042E-01
   7126.33  3.2528570E-01
   7126.67  3.3623390E-01
   7127.00  3.5090714E-01
   7127.33  3.7206483E-01
   7127.67  3.9912128E-01
   7128.00  4.3034988E-01
   7128.33  4.6204530E-01
   7128.67  4.9038675E-01
   7129.00  5.1392715E-01
   7129.33  5.3256705E-01
   7129.67  5.4827656E-01
   7130.00  5.6298113E-01
   7130.33  5.7972109E-01
   7130.67  5.9972407E-01
   7131.00  6.2211272E-01
   7131.33  6.4449162E-01
   7131.67  6.6491850E-01
   7132.00  6.8288063E-01
   7132.33  6.9880250E-01
   7132.67  7.1429154E-01
   7133.00  7.3068008E-01
   7133.33  7.4972802E-01
   7133.67  7.7208276E-01
   7134.00  7.9739280E-01
   7134.33  8.2300423E-01
   7134.67  8.4427057E-01
   7135.00  8.5757090E-01
   7135.33  8.6010834E-01
   7135.67  8.5446186E-01
   7136.00  8.4300526E-01
   7136.33  8.2784476E-01
   7136.67  8.1092216E-01
   7137.00  7.9289439E-01
   7137.33  7.7418665E-01
   7137.67  7.5543385E-01
   7138.00  7.3721338E-01
   7138.33  7.2037758E-01
   7138.67  7.0535808E-01
   7139.00  6.9248218E-01
   7139.33  6.8220699E-01
   7139.67  6.7423776E-01
   7140.00  6.6847661E-01
   7140.33  6.6497403E-01
   7140.67  6.6317825E-01
   7141.00  6.6274071E-01
   7141.33  6.6326100E-01
   7141.67  6.6405441E-01
   7142.00  6.6461356E-01
   7142.33  6.6429428E-01
   7142.67  6.6274592E-01
   7143.00  6.5969317E-01
   7143.33  6.5476199E-01
   7143.67  6.4817595E-01
   7144.00  6.4006537E-01
   7144.33  6.3047363E-01
   7144.67  6.1980564E-01
   7145.00  6.0829612E-01
   7145.33  5.9616099E-01
   7145.67  5.8374755E-01
   7146.00  5.7127996E-01
   7146.33  5.5902213E-01
   7146.67  5.4716824E-01
   7147.00  5.3588545E-01
   7147.33  5.2543518E-01
   7147.67  5.1586307E-01
   7148.00  5.0726065E-01
   7148.33  4.9983010E-01
   7148.67  4.9347550E-01
   7149.00  4.8819793E-01
   7149.33  4.8410148E-01
   7149.67  4.8100551E-01
   7150.00  4.7885491E-01
   7150.33  4.7767924E-01
   7150.67  4.7728498E-01
   7151.00  4.7760146E-01
   7151.33  4.7863082E-01
   7151.67  4.8022168E-01
   7152.00  4.8231728E-01
   7152.33  4.8492109E-01
   7152.67  4.8793654E-01
   7153.00  4.9133616E-01
   7153.33  4.9513792E-01
   7153.67  4.9927133E-01
   7154.00  5.0371037E-01
   7154.33  5.0844842E-01
   7154.67  5.1339582E-01
   7155.00  5.1848602E-01
   7155.33  5.2362238E-01
   7155.67  5.2867192E-01
   7156.00  5.3350725E-01
   7156.33  5.3792147E-01
   7156.67  5.4180145E-01
   7157.00  5.4502108E-01
   7157.33  5.4736063E-01
   7157.67  5.4883143E-01
   7158.00  5.4939086E-01
   7158.33  5.4890973E-01
   7158.67  5.4752510E-01
   7159.00  5.4527910E-01
   7159.33  5.4214411E-01
   7159.67  5.3830735E-01
   7160.00  5.3385319E-01
   7160.33  5.2882046E-01
   7160.67  5.2337925E-01
   7161.00  5.1762167E-01
   7161.33  5.1163044E-01
   7161.67  5.0554204E-01
   7162.00  4.9944669E-01
   7162.33  4.9345232E-01
   7162.67  4.8763951E-01
   7163.00  4.8208399E-01
   7163.33  4.7690341E-01
   7163.67  4.7210903E-01
   7164.00  4.6773365E-01
   7164.33  4.6386100E-01
   7164.67  4.6044737E-01
   7165.00  4.5749063E-01
   7165.33  4.5503032E-01
   7165.67  4.5298353E-01
   7166.00  4.5131923E-01
   7166.33  4.5003794E-01
   7166.67  4.4905000E-01
   7167.00  4.4831156E-01
   7167.33  4.4779357E-01
   7167.67  4.4741710E-01
   7168.00  4.4713640E-01
   7168.33  4.4690924E-01
   7168.67  4.4668595E-01
   7169.00  4.4643049E-01
   7169.33  4.4610065E-01
   7169.67  4.4568187E-01
   7170.00  4.4516405E-01
   7170.33  4.4453551E-01
   7170.67  4.4382396E-01
   7171.00  4.4305506E-01
   7171.33  4.4227277E-01
   7171.67  4.4154251E-01
   7172.00  4.4093052E-01
