    FDMNES
    energy     <xanes>
   7097.00  4.6597718E-03
   7097.33  4.7696475E-03
   7097.67  4.8846401E-03
   7098.00  5.0051125E-03
   7098.33  5.1322782E-03
   7098.67  5.2659196E-03
   7099.00  5.4065396E-03
   7099.33  5.5557488E-03
   7099.67  5.7133359E-03
   7100.00  5.8800175E-03
   7100.33  6.0579944E-03
   7100.67  6.2470944E-03
   7101.00  6.4483748E-03
   7101.33  6.6649464E-03
   7101.67  6.8967501E-03
   7102.00  7.1454084E-03
   7102.33  7.4155030E-03
   7102.67  7.7072502E-03
   7103.00  8.0232642E-03
   7103.33  8.3706377E-03
   7103.67  8.7502375E-03
   7104.00  9.1665320E-03
   7104.33  9.6312060E-03
   7104.67  1.0146692E-02
   7105.00  1.0721221E-02
   7105.33  1.1375631E-02
   7105.67  1.2116365E-02
   7106.00  1.2960128E-02
   7106.33  1.3948203E-02
   7106.67  1.5098401E-02
   7107.00  1.6449424E-02
   7107.33  1.8095879E-02
   7107.67  2.0093423E-02
   7108.00  2.2550475E-02
   7108.33  2.5736016E-02
   7108.67  2.9867482E-02
   7109.00  3.5352617E-02
   7109.33  4.3271149E-02
   7109.67  5.4869027E-02
   7110.00  7.2587254E-02
   7110.33  1.0344467E-01
   7110.67  1.5471499E-01
   7111.00  2.2747046E-01
   7111.33  3.0338217E-01
   7111.67  3.5796754E-01
   7112.00  3.6504949E-01
   7112.33  3.3657646E-01
   7112.67  3.1347266E-01
   7113.00  2.9952797E-01
   7113.33  2.7583472E-01
   7113.67  2.3735821E-01
   7114.00  1.9725228E-01
   7114.33  1.6900155E-01
   7114.67  1.5255446E-01
   7115.00  1.4526874E-01
   7115.33  1.4202124E-01
   7115.67  1.3420053E-01
   7116.00  1.1986331E-01
   7116.33  1.0539790E-01
   7116.67  9.5113637E-02
   7117.00  8.9016374E-02
   7117.33  8.6383011E-02
   7117.67  8.5910754E-02
   7118.00  8.7131206E-02
   7118.33  8.9866761E-02
   7118.67  9.3539517E-02
   7119.00  9.7587955E-02
   7119.33  1.0099346E-01
   7119.67  1.0297687E-01
   7120.00  1.0365600E-01
   7120.33  1.0420890E-01
   7120.67  1.0581183E-01
   7121.00  1.0890333E-01
   7121.33  1.1372423E-01
   7121.67  1.1998095E-01
   7122.00  1.2763073E-01
   7122.33  1.3689636E-01
   7122.67  1.4773376E-01
   7123.00  1.6033903E-01
   7123.33  1.7531000E-01
   7123.67  1.9283881E-01
   7124.00  2.1337640E-01
   7124.33  2.3781313E-01
   7124.67  2.6576339E-01
   7125.00  2.9613009E-01
   7125.33  3.2407270E-01
   7125.67  3.4278874E-01
   7126.00  3.4939753E-01
   7126.33  3.4560115E-01
   7126.67  3.3742067E-01
   7127.00  3.2832922E-01
   7127.33  3.2158115E-01
   7127.67  3.1885899E-01
   7128.00  3.2130410E-01
   7128.33  3.3099519E-01
   7128.67  3.4841385E-01
   7129.00  3.7425877E-01
   7129.33  4.0912692E-01
   7129.67  4.5003734E-01
   7130.00  4.9447849E-01
   7130.33  5.3949596E-01
   7130.67  5.8270335E-01
   7131.00  6.2323274E-01
   7131.33  6.6128733E-01
   7131.67  6.9857302E-01
   7132.00  7.3625573E-01
   7132.33  7.7482517E-01
   7132.67  8.1295181E-01
   7133.00  8.4824443E-01
   7133.33  8.7657580E-01
   7133.67  8.9695956E-01
   7134.00  9.1042613E-01
   7134.33  9.1910637E-01
   7134.67  9.2480487E-01
   7135.00  9.2687999E-01
   7135.33  9.2342293E-01
   7135.67  9.1451072E-01
   7136.00  9.0046713E-01
   7136.33  8.8164171E-01
   7136.67  8.5959252E-01
   7137.00  8.3516278E-01
   7137.33  8.0906170E-01
   7137.67  7.8227407E-01
   7138.00  7.5540747E-01
   7138.33  7.2914134E-01
   7138.67  7.0392240E-01
   7139.00  6.8011638E-01
   7139.33  6.5828341E-01
   7139.67  6.3846319E-01
   7140.00  6.2082998E-01
   7140.33  6.0585866E-01
   7140.67  5.9343775E-01
   7141.00  5.8373279E-01
   7141.33  5.7726525E-01
   7141.67  5.7373368E-01
   7142.00  5.7305711E-01
   7142.33  5.7530199E-01
   7142.67  5.7974295E-01
   7143.00  5.8595594E-01
   7143.33  5.9353699E-01
   7143.67  6.0173545E-01
   7144.00  6.1002448E-01
   7144.33  6.1775337E-01
   7144.67  6.2448271E-01
   7145.00  6.2989943E-01
   7145.33  6.3362293E-01
   7145.67  6.3583176E-01
   7146.00  6.3663581E-01
   7146.33  6.3609639E-01
   7146.67  6.3460570E-01
   7147.00  6.3236622E-01
   7147.33  6.2951523E-01
   7147.67  6.2628689E-01
   7148.00  6.2279282E-01
   7148.33  6.1910700E-01
   7148.67  6.1531406E-01
   7149.00  6.1144781E-01
   7149.33  6.0752352E-01
   7149.67  6.0355701E-01
   7150.00  5.9954971E-01
   7150.33  5.9549793E-01
   7150.67  5.9140752E-01
   7151.00  5.8727997E-01
   7151.33  5.8311766E-01
   7151.67  5.7893484E-01
   7152.00  5.7474044E-01
   7152.33  5.7054091E-01
   7152.67  5.6633895E-01
   7153.00  5.6213197E-01
   7153.33  5.5790974E-01
   7153.67  5.5365970E-01
   7154.00  5.4936600E-01
   7154.33  5.4499942E-01
   7154.67  5.4054583E-01
   7155.00  5.3598616E-01
   7155.33  5.3128303E-01
   7155.67  5.2643360E-01
   7156.00  5.2142444E-01
   7156.33  5.1622021E-01
   7156.67  5.1083043E-01
   7157.00  5.0524575E-01
   7157.33  4.9942968E-01
   7157.67  4.9339653E-01
   7158.00  4.8713474E-01
   7158.33  4.8059927E-01
   7158.67  4.7380914E-01
   7159.00  4.6675981E-01
   7159.33  4.5942057E-01
   7159.67  4.5183496E-01
   7160.00  4.4402403E-01
   7160.33  4.3600560E-01
   7160.67  4.2786089E-01
   7161.00  4.1965275E-01
   7161.33  4.1147063E-01
   7161.67  4.0340621E-01
   7162.00  3.9554304E-01
   7162.33  3.8801284E-01
   7162.67  3.8086520E-01
   7163.00  3.7416468E-01
   7163.33  3.6803639E-01
   7163.67  3.6246309E-01
   7164.00  3.5747239E-01
   7164.33  3.5315675E-01
   7164.67  3.4944205E-01
   7165.00  3.4632075E-01
   7165.33  3.4385179E-01
   7165.67  3.4194341E-01
   7166.00  3.4057553E-01
   7166.33  3.3978665E-01
   7166.67  3.3948448E-01
   7167.00  3.3964371E-01
   7167.33  3.4028848E-01
   7167.67  3.4133515E-01
   7168.00  3.4275722E-01
   7168.33  3.4456337E-01
   7168.67  3.4667271E-01
   7169.00  3.4904942E-01
   7169.33  3.5168030E-01
   7169.67  3.5449433E-01
   7170.00  3.5745134E-01
   7170.33  3.6051078E-01
   7170.67  3.6360096E-01
   7171.00  3.6665827E-01
   7171.33  3.6956356E-01
   7171.67  3.7217261E-01
   7172.00  3.7428989E-01
