    FDMNES
    energy     <xanes>
   7097.00  4.6975336E-03
   7097.33  4.8088301E-03
   7097.67  4.9253042E-03
   7098.00  5.0473215E-03
   7098.33  5.1761074E-03
   7098.67  5.3114394E-03
   7099.00  5.4538236E-03
   7099.33  5.6048842E-03
   7099.67  5.7644038E-03
   7100.00  5.9331027E-03
   7100.33  6.1131963E-03
   7100.67  6.3045055E-03
   7101.00  6.5080901E-03
   7101.33  6.7270764E-03
   7101.67  6.9613950E-03
   7102.00  7.2126695E-03
   7102.33  7.4854934E-03
   7102.67  7.7800671E-03
   7103.00  8.0989989E-03
   7103.33  8.4493796E-03
   7103.67  8.8320459E-03
   7104.00  9.2514403E-03
   7104.33  9.7191999E-03
   7104.67  1.0237689E-02
   7105.00  1.0815049E-02
   7105.33  1.1471929E-02
   7105.67  1.2214575E-02
   7106.00  1.3059402E-02
   7106.33  1.4047000E-02
   7106.67  1.5194533E-02
   7107.00  1.6539620E-02
   7107.33  1.8174203E-02
   7107.67  2.0151226E-02
   7108.00  2.2574335E-02
   7108.33  2.5699980E-02
   7108.67  2.9730484E-02
   7109.00  3.5045138E-02
   7109.33  4.2640990E-02
   7109.67  5.3637468E-02
   7110.00  7.0215894E-02
   7110.33  9.8621076E-02
   7110.67  1.4557786E-01
   7111.00  2.1408551E-01
   7111.33  2.9607607E-01
   7111.67  3.7349255E-01
   7112.00  4.0542514E-01
   7112.33  3.7433010E-01
   7112.67  3.3182046E-01
   7113.00  2.9994082E-01
   7113.33  2.7783015E-01
   7113.67  2.4958663E-01
   7114.00  2.1198899E-01
   7114.33  1.7470005E-01
   7114.67  1.4573248E-01
   7115.00  1.2610569E-01
   7115.33  1.1385031E-01
   7115.67  1.0340009E-01
   7116.00  9.1969121E-02
   7116.33  8.1371413E-02
   7116.67  7.3910935E-02
   7117.00  6.9744395E-02
   7117.33  6.8577824E-02
   7117.67  6.9551557E-02
   7118.00  7.2439186E-02
   7118.33  7.7379218E-02
   7118.67  8.3883797E-02
   7119.00  9.0972293E-02
   7119.33  9.6484870E-02
   7119.67  1.0013633E-01
   7120.00  1.0340275E-01
   7120.33  1.0814346E-01
   7120.67  1.1489728E-01
   7121.00  1.2378998E-01
   7121.33  1.3512362E-01
   7121.67  1.4869530E-01
   7122.00  1.6457239E-01
   7122.33  1.8308408E-01
   7122.67  2.0400977E-01
   7123.00  2.2755848E-01
   7123.33  2.5445893E-01
   7123.67  2.8430614E-01
   7124.00  3.1612553E-01
   7124.33  3.4758375E-01
   7124.67  3.7708337E-01
   7125.00  4.0499331E-01
   7125.33  4.3135212E-01
   7125.67  4.5266076E-01
   7126.00  4.6293572E-01
   7126.33  4.5724125E-01
   7126.67  4.4180690E-01
   7127.00  4.2259937E-01
   7127.33  4.0535672E-01
   7127.67  3.9266935E-01
   7128.00  3.8519929E-01
   7128.33  3.8338953E-01
   7128.67  3.8615080E-01
   7129.00  3.9315400E-01
   7129.33  4.0457427E-01
   7129.67  4.1959959E-01
   7130.00  4.3798794E-01
   7130.33  4.5993231E-01
   7130.67  4.8480754E-01
   7131.00  5.1229245E-01
   7131.33  5.4221968E-01
   7131.67  5.7401403E-01
   7132.00  6.0757826E-01
   7132.33  6.4301544E-01
   7132.67  6.7961237E-01
   7133.00  7.1623826E-01
   7133.33  7.5033885E-01
   7133.67  7.7982221E-01
   7134.00  8.0418018E-01
   7134.33  8.2510980E-01
   7134.67  8.4563610E-01
   7135.00  8.6603741E-01
   7135.33  8.8338652E-01
   7135.67  8.9415211E-01
   7136.00  8.9593098E-01
   7136.33  8.8717093E-01
   7136.67  8.7094468E-01
   7137.00  8.4961655E-01
   7137.33  8.2519846E-01
   7137.67  7.9952343E-01
   7138.00  7.7338792E-01
   7138.33  7.4763042E-01
   7138.67  7.2304983E-01
   7139.00  7.0033711E-01
   7139.33  6.8039662E-01
   7139.67  6.6319356E-01
   7140.00  6.4871298E-01
   7140.33  6.3704448E-01
   7140.67  6.2754701E-01
   7141.00  6.1993305E-01
   7141.33  6.1411311E-01
   7141.67  6.0966113E-01
   7142.00  6.0642966E-01
   7142.33  6.0443110E-01
   7142.67  6.0343761E-01
   7143.00  6.0338102E-01
   7143.33  6.0427515E-01
   7143.67  6.0588544E-01
   7144.00  6.0805815E-01
   7144.33  6.1060468E-01
   7144.67  6.1322330E-01
   7145.00  6.1569201E-01
   7145.33  6.1771940E-01
   7145.67  6.1916603E-01
   7146.00  6.1993516E-01
   7146.33  6.1990170E-01
   7146.67  6.1918750E-01
   7147.00  6.1785938E-01
   7147.33  6.1595706E-01
   7147.67  6.1365730E-01
   7148.00  6.1105278E-01
   7148.33  6.0821464E-01
   7148.67  6.0524855E-01
   7149.00  6.0220395E-01
   7149.33  5.9910994E-01
   7149.67  5.9598428E-01
   7150.00  5.9282171E-01
   7150.33  5.8959563E-01
   7150.67  5.8628820E-01
   7151.00  5.8287631E-01
   7151.33  5.7931058E-01
   7151.67  5.7557659E-01
   7152.00  5.7165347E-01
   7152.33  5.6749339E-01
   7152.67  5.6309782E-01
   7153.00  5.5844358E-01
   7153.33  5.5346516E-01
   7153.67  5.4816745E-01
   7154.00  5.4252530E-01
   7154.33  5.3646900E-01
   7154.67  5.3003053E-01
   7155.00  5.2320764E-01
   7155.33  5.1596267E-01
   7155.67  5.0836412E-01
   7156.00  5.0043887E-01
   7156.33  4.9218797E-01
   7156.67  4.8368898E-01
   7157.00  4.7497942E-01
   7157.33  4.6608252E-01
   7157.67  4.5706426E-01
   7158.00  4.4796569E-01
   7158.33  4.3883250E-01
   7158.67  4.2972199E-01
   7159.00  4.2068503E-01
   7159.33  4.1179898E-01
   7159.67  4.0311078E-01
   7160.00  3.9467864E-01
   7160.33  3.8661022E-01
   7160.67  3.7892938E-01
   7161.00  3.7168679E-01
   7161.33  3.6499249E-01
   7161.67  3.5882090E-01
   7162.00  3.5319041E-01
   7162.33  3.4817876E-01
   7162.67  3.4371582E-01
   7163.00  3.3979461E-01
   7163.33  3.3646789E-01
   7163.67  3.3365276E-01
   7164.00  3.3133262E-01
   7164.33  3.2954542E-01
   7164.67  3.2820937E-01
   7165.00  3.2730196E-01
   7165.33  3.2684425E-01
   7165.67  3.2676276E-01
   7166.00  3.2704162E-01
   7166.33  3.2770774E-01
   7166.67  3.2870451E-01
   7167.00  3.3002207E-01
   7167.33  3.3168858E-01
   7167.67  3.3365517E-01
   7168.00  3.3591288E-01
   7168.33  3.3848495E-01
   7168.67  3.4132176E-01
   7169.00  3.4440671E-01
   7169.33  3.4774173E-01
   7169.67  3.5126430E-01
   7170.00  3.5493636E-01
   7170.33  3.5871426E-01
   7170.67  3.6251587E-01
   7171.00  3.6626379E-01
   7171.33  3.6981113E-01
   7171.67  3.7298833E-01
   7172.00  3.7556731E-01
