    FDMNES
    energy     <xanes>
   7097.00  5.2989486E-03
   7097.33  5.4292027E-03
   7097.67  5.5655608E-03
   7098.00  5.7084431E-03
   7098.33  5.8592736E-03
   7098.67  6.0177717E-03
   7099.00  6.1845101E-03
   7099.33  6.3613545E-03
   7099.67  6.5480170E-03
   7100.00  6.7452976E-03
   7100.33  6.9557023E-03
   7100.67  7.1789625E-03
   7101.00  7.4162298E-03
   7101.33  7.6709693E-03
   7101.67  7.9429915E-03
   7102.00  8.2340119E-03
   7102.33  8.5489928E-03
   7102.67  8.8879538E-03
   7103.00  9.2535601E-03
   7103.33  9.6532242E-03
   7103.67  1.0087469E-02
   7104.00  1.0560651E-02
   7104.33  1.1084441E-02
   7104.67  1.1660556E-02
   7105.00  1.2296588E-02
   7105.33  1.3012185E-02
   7105.67  1.3812010E-02
   7106.00  1.4710449E-02
   7106.33  1.5743645E-02
   7106.67  1.6924152E-02
   7107.00  1.8282511E-02
   7107.33  1.9893971E-02
   7107.67  2.1795306E-02
   7108.00  2.4062991E-02
   7108.33  2.6885551E-02
   7108.67  3.0392553E-02
   7109.00  3.4832313E-02
   7109.33  4.0844610E-02
   7109.67  4.9071682E-02
   7110.00  6.0758862E-02
   7110.33  7.9454380E-02
   7110.67  1.0952043E-01
   7111.00  1.5584305E-01
   7111.33  2.1594391E-01
   7111.67  2.6927303E-01
   7112.00  3.0732336E-01
   7112.33  3.4429509E-01
   7112.67  3.8617754E-01
   7113.00  4.4920690E-01
   7113.33  5.3566814E-01
   7113.67  5.9860876E-01
   7114.00  5.8620942E-01
   7114.33  5.0091786E-01
   7114.67  4.1086347E-01
   7115.00  3.3644902E-01
   7115.33  2.8535330E-01
   7115.67  2.5861688E-01
   7116.00  2.5523040E-01
   7116.33  2.6421791E-01
   7116.67  2.6209541E-01
   7117.00  2.4066932E-01
   7117.33  2.1055540E-01
   7117.67  1.8483694E-01
   7118.00  1.6592928E-01
   7118.33  1.5337985E-01
   7118.67  1.4481113E-01
   7119.00  1.3915542E-01
   7119.33  1.3581910E-01
   7119.67  1.3405594E-01
   7120.00  1.3349367E-01
   7120.33  1.3330027E-01
   7120.67  1.3240395E-01
   7121.00  1.3074431E-01
   7121.33  1.2931292E-01
   7121.67  1.2904147E-01
   7122.00  1.3031775E-01
   7122.33  1.3348754E-01
   7122.67  1.3833648E-01
   7123.00  1.4473042E-01
   7123.33  1.5256408E-01
   7123.67  1.6138649E-01
   7124.00  1.7101313E-01
   7124.33  1.8145805E-01
   7124.67  1.9261866E-01
   7125.00  2.0442348E-01
   7125.33  2.1679953E-01
   7125.67  2.2972928E-01
   7126.00  2.4357231E-01
   7126.33  2.5921850E-01
   7126.67  2.7694216E-01
   7127.00  2.9656567E-01
   7127.33  3.1743864E-01
   7127.67  3.3854607E-01
   7128.00  3.5944902E-01
   7128.33  3.8052777E-01
   7128.67  4.0337211E-01
   7129.00  4.3015690E-01
   7129.33  4.6439882E-01
   7129.67  5.0713179E-01
   7130.00  5.5856247E-01
   7130.33  6.1786308E-01
   7130.67  6.8126746E-01
   7131.00  7.4624644E-01
   7131.33  8.0944689E-01
   7131.67  8.6776249E-01
   7132.00  9.1926657E-01
   7132.33  9.6242551E-01
   7132.67  9.9824860E-01
   7133.00  1.0261860E+00
   7133.33  1.0431855E+00
   7133.67  1.0480834E+00
   7134.00  1.0393134E+00
   7134.33  1.0145146E+00
   7134.67  9.7654374E-01
   7135.00  9.2774735E-01
   7135.33  8.7120386E-01
   7135.67  8.1194345E-01
   7136.00  7.5298792E-01
   7136.33  6.9725689E-01
   7136.67  6.4603286E-01
   7137.00  6.0021974E-01
   7137.33  5.6134606E-01
   7137.67  5.2920341E-01
   7138.00  5.0409938E-01
   7138.33  4.8698931E-01
   7138.67  4.7667030E-01
   7139.00  4.7256024E-01
   7139.33  4.7432977E-01
   7139.67  4.8013237E-01
   7140.00  4.8888149E-01
   7140.33  4.9956516E-01
   7140.67  5.1087170E-01
   7141.00  5.2200715E-01
   7141.33  5.3212437E-01
   7141.67  5.4081023E-01
   7142.00  5.4777811E-01
   7142.33  5.5265950E-01
   7142.67  5.5574828E-01
   7143.00  5.5721485E-01
   7143.33  5.5720745E-01
   7143.67  5.5630749E-01
   7144.00  5.5491408E-01
   7144.33  5.5346986E-01
   7144.67  5.5235780E-01
   7145.00  5.5181984E-01
   7145.33  5.5212741E-01
   7145.67  5.5325666E-01
   7146.00  5.5519217E-01
   7146.33  5.5792926E-01
   7146.67  5.6122165E-01
   7147.00  5.6490421E-01
   7147.33  5.6879648E-01
   7147.67  5.7268191E-01
   7148.00  5.7641924E-01
   7148.33  5.7985239E-01
   7148.67  5.8294401E-01
   7149.00  5.8567222E-01
   7149.33  5.8800486E-01
   7149.67  5.9002467E-01
   7150.00  5.9177527E-01
   7150.33  5.9328161E-01
   7150.67  5.9461542E-01
   7151.00  5.9580479E-01
   7151.33  5.9685434E-01
   7151.67  5.9778934E-01
   7152.00  5.9861480E-01
   7152.33  5.9932876E-01
   7152.67  5.9996687E-01
   7153.00  6.0056394E-01
   7153.33  6.0118315E-01
   7153.67  6.0190220E-01
   7154.00  6.0279947E-01
   7154.33  6.0400085E-01
   7154.67  6.0555312E-01
   7155.00  6.0750671E-01
   7155.33  6.0994321E-01
   7155.67  6.1279783E-01
   7156.00  6.1602838E-01
   7156.33  6.1958592E-01
   7156.67  6.2331404E-01
   7157.00  6.2708554E-01
   7157.33  6.3071423E-01
   7157.67  6.3403380E-01
   7158.00  6.3688877E-01
   7158.33  6.3903018E-01
   7158.67  6.4039039E-01
   7159.00  6.4086897E-01
   7159.33  6.4026368E-01
   7159.67  6.3865386E-01
   7160.00  6.3603727E-01
   7160.33  6.3232321E-01
   7160.67  6.2769549E-01
   7161.00  6.2222617E-01
   7161.33  6.1592001E-01
   7161.67  6.0897669E-01
   7162.00  6.0149195E-01
   7162.33  5.9352309E-01
   7162.67  5.8523269E-01
   7163.00  5.7671113E-01
   7163.33  5.6804305E-01
   7163.67  5.5933517E-01
   7164.00  5.5065546E-01
   7164.33  5.4208233E-01
   7164.67  5.3365641E-01
   7165.00  5.2541371E-01
   7165.33  5.1741266E-01
   7165.67  5.0964785E-01
   7166.00  5.0213095E-01
   7166.33  4.9489882E-01
   7166.67  4.8791712E-01
   7167.00  4.8117936E-01
   7167.33  4.7470379E-01
   7167.67  4.6844887E-01
   7168.00  4.6240541E-01
   7168.33  4.5658964E-01
   7168.67  4.5096757E-01
   7169.00  4.4553223E-01
   7169.33  4.4029766E-01
   7169.67  4.3523380E-01
   7170.00  4.3033685E-01
   7170.33  4.2563528E-01
   7170.67  4.2113018E-01
   7171.00  4.1685754E-01
   7171.33  4.1293192E-01
   7171.67  4.0945761E-01
   7172.00  4.0662062E-01
