    FDMNES
    energy     <xanes>
   7097.00  4.9720278E-03
   7097.33  5.0909132E-03
   7097.67  5.2151845E-03
   7098.00  5.3452088E-03
   7098.33  5.4822376E-03
   7098.67  5.6260215E-03
   7099.00  5.7770640E-03
   7099.33  5.9370099E-03
   7099.67  6.1056097E-03
   7100.00  6.2835749E-03
   7100.33  6.4731297E-03
   7100.67  6.6740555E-03
   7101.00  6.8873936E-03
   7101.33  7.1162561E-03
   7101.67  7.3605253E-03
   7102.00  7.6217888E-03
   7102.33  7.9045871E-03
   7102.67  8.2090601E-03
   7103.00  8.5377525E-03
   7103.33  8.8976393E-03
   7103.67  9.2894820E-03
   7104.00  9.7176204E-03
   7104.33  1.0193484E-02
   7104.67  1.0719357E-02
   7105.00  1.1303239E-02
   7105.33  1.1965483E-02
   7105.67  1.2712316E-02
   7106.00  1.3560065E-02
   7106.33  1.4549174E-02
   7106.67  1.5697211E-02
   7107.00  1.7042369E-02
   7107.33  1.8678168E-02
   7107.67  2.0660454E-02
   7108.00  2.3097778E-02
   7108.33  2.6260009E-02
   7108.67  3.0368887E-02
   7109.00  3.5839802E-02
   7109.33  4.3775783E-02
   7109.67  5.5464659E-02
   7110.00  7.3432848E-02
   7110.33  1.0500799E-01
   7110.67  1.5831170E-01
   7111.00  2.3634638E-01
   7111.33  3.1627990E-01
   7111.67  3.5864286E-01
   7112.00  3.4757490E-01
   7112.33  3.0171526E-01
   7112.67  2.5143181E-01
   7113.00  2.0758692E-01
   7113.33  1.7399246E-01
   7113.67  1.4888677E-01
   7114.00  1.3125954E-01
   7114.33  1.2050820E-01
   7114.67  1.1363007E-01
   7115.00  1.0760970E-01
   7115.33  1.0119857E-01
   7115.67  9.6995711E-02
   7116.00  9.6295378E-02
   7116.33  9.9510223E-02
   7116.67  1.0599585E-01
   7117.00  1.1566986E-01
   7117.33  1.2852473E-01
   7117.67  1.4309157E-01
   7118.00  1.5830198E-01
   7118.33  1.7421559E-01
   7118.67  1.9046207E-01
   7119.00  2.0547904E-01
   7119.33  2.1831462E-01
   7119.67  2.3131387E-01
   7120.00  2.4764384E-01
   7120.33  2.7055696E-01
   7120.67  2.9865705E-01
   7121.00  3.2898870E-01
   7121.33  3.5918610E-01
   7121.67  3.9102810E-01
   7122.00  4.2641820E-01
   7122.33  4.6559708E-01
   7122.67  5.0672850E-01
   7123.00  5.4892549E-01
   7123.33  5.9183097E-01
   7123.67  6.3463913E-01
   7124.00  6.7572847E-01
   7124.33  7.1123815E-01
   7124.67  7.3752123E-01
   7125.00  7.5073490E-01
   7125.33  7.4595208E-01
   7125.67  7.2636728E-01
   7126.00  6.9664615E-01
   7126.33  6.6321234E-01
   7126.67  6.3146224E-01
   7127.00  6.0323442E-01
   7127.33  5.7911455E-01
   7127.67  5.5789590E-01
   7128.00  5.3901231E-01
   7128.33  5.2264358E-01
   7128.67  5.0889178E-01
   7129.00  4.9798864E-01
   7129.33  4.8989494E-01
   7129.67  4.8340525E-01
   7130.00  4.7778649E-01
   7130.33  4.7269084E-01
   7130.67  4.6808462E-01
   7131.00  4.6410979E-01
   7131.33  4.6097048E-01
   7131.67  4.5861196E-01
   7132.00  4.5709002E-01
   7132.33  4.5671602E-01
   7132.67  4.5770090E-01
   7133.00  4.6045403E-01
   7133.33  4.6573707E-01
   7133.67  4.7337890E-01
   7134.00  4.8296480E-01
   7134.33  4.9382569E-01
   7134.67  5.0513797E-01
   7135.00  5.1654055E-01
   7135.33  5.2769810E-01
   7135.67  5.3833210E-01
   7136.00  5.4819135E-01
   7136.33  5.5694521E-01
   7136.67  5.6465638E-01
   7137.00  5.7141584E-01
   7137.33  5.7740706E-01
   7137.67  5.8308617E-01
   7138.00  5.8875335E-01
   7138.33  5.9465327E-01
   7138.67  6.0079443E-01
   7139.00  6.0707660E-01
   7139.33  6.1327078E-01
   7139.67  6.1909992E-01
   7140.00  6.2429101E-01
   7140.33  6.2841408E-01
   7140.67  6.3132808E-01
   7141.00  6.3287965E-01
   7141.33  6.3288069E-01
   7141.67  6.3170478E-01
   7142.00  6.2963693E-01
   7142.33  6.2699355E-01
   7142.67  6.2419251E-01
   7143.00  6.2145875E-01
   7143.33  6.1895683E-01
   7143.67  6.1669161E-01
   7144.00  6.1462828E-01
   7144.33  6.1269614E-01
   7144.67  6.1077857E-01
   7145.00  6.0879889E-01
   7145.33  6.0668722E-01
   7145.67  6.0445070E-01
   7146.00  6.0211985E-01
   7146.33  5.9975599E-01
   7146.67  5.9743728E-01
   7147.00  5.9521530E-01
   7147.33  5.9312813E-01
   7147.67  5.9113194E-01
   7148.00  5.8916181E-01
   7148.33  5.8709590E-01
   7148.67  5.8481328E-01
   7149.00  5.8220394E-01
   7149.33  5.7910840E-01
   7149.67  5.7551087E-01
   7150.00  5.7138384E-01
   7150.33  5.6666316E-01
   7150.67  5.6144544E-01
   7151.00  5.5577262E-01
   7151.33  5.4965116E-01
   7151.67  5.4318601E-01
   7152.00  5.3641905E-01
   7152.33  5.2935936E-01
   7152.67  5.2207742E-01
   7153.00  5.1460712E-01
   7153.33  5.0697504E-01
   7153.67  4.9925202E-01
   7154.00  4.9149036E-01
   7154.33  4.8376091E-01
   7154.67  4.7613188E-01
   7155.00  4.6866540E-01
   7155.33  4.6145789E-01
   7155.67  4.5453952E-01
   7156.00  4.4795370E-01
   7156.33  4.4179005E-01
   7156.67  4.3603698E-01
   7157.00  4.3071888E-01
   7157.33  4.2591180E-01
   7157.67  4.2156510E-01
   7158.00  4.1767028E-01
   7158.33  4.1424947E-01
   7158.67  4.1119694E-01
   7159.00  4.0845296E-01
   7159.33  4.0596415E-01
   7159.67  4.0361202E-01
   7160.00  4.0131854E-01
   7160.33  3.9899776E-01
   7160.67  3.9658626E-01
   7161.00  3.9404415E-01
   7161.33  3.9132714E-01
   7161.67  3.8845398E-01
   7162.00  3.8544211E-01
   7162.33  3.8231666E-01
   7162.67  3.7914183E-01
   7163.00  3.7596844E-01
   7163.33  3.7286504E-01
   7163.67  3.6988182E-01
   7164.00  3.6706343E-01
   7164.33  3.6447900E-01
   7164.67  3.6213402E-01
   7165.00  3.6004627E-01
   7165.33  3.5826095E-01
   7165.67  3.5674819E-01
   7166.00  3.5550599E-01
   7166.33  3.5455934E-01
   7166.67  3.5386188E-01
   7167.00  3.5339805E-01
   7167.33  3.5317309E-01
   7167.67  3.5313726E-01
   7168.00  3.5327048E-01
   7168.33  3.5356944E-01
   7168.67  3.5399776E-01
   7169.00  3.5454456E-01
   7169.33  3.5521743E-01
   7169.67  3.5600180E-01
   7170.00  3.5690009E-01
   7170.33  3.5792960E-01
   7170.67  3.5907235E-01
   7171.00  3.6031360E-01
   7171.33  3.6161491E-01
   7171.67  3.6286962E-01
   7172.00  3.6393544E-01
