    FDMNES
    energy     <xanes>
   7097.00  5.2769935E-03
   7097.33  5.4014256E-03
   7097.67  5.5315257E-03
   7098.00  5.6676775E-03
   7098.33  5.8111924E-03
   7098.67  5.9618018E-03
   7099.00  6.1200270E-03
   7099.33  6.2875806E-03
   7099.67  6.4641856E-03
   7100.00  6.6505690E-03
   7100.33  6.8490237E-03
   7100.67  7.0592881E-03
   7101.00  7.2824069E-03
   7101.33  7.5215413E-03
   7101.67  7.7764992E-03
   7102.00  8.0488350E-03
   7102.33  8.3430640E-03
   7102.67  8.6591822E-03
   7103.00  8.9996021E-03
   7103.33  9.3710572E-03
   7103.67  9.7739992E-03
   7104.00  1.0212373E-02
   7104.33  1.0696773E-02
   7104.67  1.1228740E-02
   7105.00  1.1815165E-02
   7105.33  1.2473901E-02
   7105.67  1.3209203E-02
   7106.00  1.4034188E-02
   7106.33  1.4981834E-02
   7106.67  1.6063758E-02
   7107.00  1.7308072E-02
   7107.33  1.8784117E-02
   7107.67  2.0526577E-02
   7108.00  2.2607206E-02
   7108.33  2.5203559E-02
   7108.67  2.8442093E-02
   7109.00  3.2565281E-02
   7109.33  3.8205625E-02
   7109.67  4.6031957E-02
   7110.00  5.7351823E-02
   7110.33  7.5860343E-02
   7110.67  1.0518990E-01
   7111.00  1.4589969E-01
   7111.33  1.9108109E-01
   7111.67  2.3363933E-01
   7112.00  2.6912389E-01
   7112.33  3.0586537E-01
   7112.67  3.4479038E-01
   7113.00  3.8545974E-01
   7113.33  4.3773731E-01
   7113.67  4.9609748E-01
   7114.00  5.2975683E-01
   7114.33  4.9611164E-01
   7114.67  4.2261775E-01
   7115.00  3.4530508E-01
   7115.33  2.8617911E-01
   7115.67  2.4491272E-01
   7116.00  2.1843056E-01
   7116.33  2.0384343E-01
   7116.67  1.9562739E-01
   7117.00  1.8943183E-01
   7117.33  1.7969899E-01
   7117.67  1.6653302E-01
   7118.00  1.5380171E-01
   7118.33  1.4520497E-01
   7118.67  1.4030108E-01
   7119.00  1.3789342E-01
   7119.33  1.3703834E-01
   7119.67  1.3727158E-01
   7120.00  1.3863194E-01
   7120.33  1.4068802E-01
   7120.67  1.4214728E-01
   7121.00  1.4239632E-01
   7121.33  1.4210526E-01
   7121.67  1.4314392E-01
   7122.00  1.4633321E-01
   7122.33  1.5147351E-01
   7122.67  1.5761043E-01
   7123.00  1.6428738E-01
   7123.33  1.7148347E-01
   7123.67  1.7955418E-01
   7124.00  1.8901068E-01
   7124.33  2.0061335E-01
   7124.67  2.1441955E-01
   7125.00  2.3042730E-01
   7125.33  2.4851030E-01
   7125.67  2.6774090E-01
   7126.00  2.8748817E-01
   7126.33  3.0735535E-01
   7126.67  3.2744074E-01
   7127.00  3.4827819E-01
   7127.33  3.7116592E-01
   7127.67  3.9716550E-01
   7128.00  4.2713429E-01
   7128.33  4.6148804E-01
   7128.67  4.9768415E-01
   7129.00  5.3267730E-01
   7129.33  5.6345376E-01
   7129.67  5.9149186E-01
   7130.00  6.1991737E-01
   7130.33  6.5220058E-01
   7130.67  6.8792270E-01
   7131.00  7.2511692E-01
   7131.33  7.6145553E-01
   7131.67  7.9638768E-01
   7132.00  8.3051633E-01
   7132.33  8.6484915E-01
   7132.67  8.9931913E-01
   7133.00  9.3226557E-01
   7133.33  9.5969894E-01
   7133.67  9.7938158E-01
   7134.00  9.9067638E-01
   7134.33  9.9346389E-01
   7134.67  9.8901479E-01
   7135.00  9.7627909E-01
   7135.33  9.5270332E-01
   7135.67  9.1996654E-01
   7136.00  8.8008445E-01
   7136.33  8.3565455E-01
   7136.67  7.9009084E-01
   7137.00  7.4536350E-01
   7137.33  7.0337076E-01
   7137.67  6.6478873E-01
   7138.00  6.3013024E-01
   7138.33  6.0025361E-01
   7138.67  5.7472766E-01
   7139.00  5.5349317E-01
   7139.33  5.3685155E-01
   7139.67  5.2396308E-01
   7140.00  5.1447307E-01
   7140.33  5.0827704E-01
   7140.67  5.0451953E-01
   7141.00  5.0280768E-01
   7141.33  5.0295574E-01
   7141.67  5.0445670E-01
   7142.00  5.0713195E-01
   7142.33  5.1098590E-01
   7142.67  5.1582435E-01
   7143.00  5.2161783E-01
   7143.33  5.2843657E-01
   7143.67  5.3607426E-01
   7144.00  5.4439825E-01
   7144.33  5.5324134E-01
   7144.67  5.6223592E-01
   7145.00  5.7105052E-01
   7145.33  5.7916792E-01
   7145.67  5.8621198E-01
   7146.00  5.9182847E-01
   7146.33  5.9548703E-01
   7146.67  5.9724738E-01
   7147.00  5.9711483E-01
   7147.33  5.9503069E-01
   7147.67  5.9149139E-01
   7148.00  5.8678909E-01
   7148.33  5.8117019E-01
   7148.67  5.7505052E-01
   7149.00  5.6865191E-01
   7149.33  5.6216129E-01
   7149.67  5.5572394E-01
   7150.00  5.4941170E-01
   7150.33  5.4329636E-01
   7150.67  5.3739054E-01
   7151.00  5.3172632E-01
   7151.33  5.2637891E-01
   7151.67  5.2135254E-01
   7152.00  5.1668766E-01
   7152.33  5.1249228E-01
   7152.67  5.0877566E-01
   7153.00  5.0559058E-01
   7153.33  5.0306623E-01
   7153.67  5.0117332E-01
   7154.00  4.9993589E-01
   7154.33  4.9944334E-01
   7154.67  4.9959216E-01
   7155.00  5.0033942E-01
   7155.33  5.0166772E-01
   7155.67  5.0339660E-01
   7156.00  5.0540286E-01
   7156.33  5.0753777E-01
   7156.67  5.0961555E-01
   7157.00  5.1149382E-01
   7157.33  5.1298244E-01
   7157.67  5.1400917E-01
   7158.00  5.1450436E-01
   7158.33  5.1435079E-01
   7158.67  5.1361362E-01
   7159.00  5.1231473E-01
   7159.33  5.1044391E-01
   7159.67  5.0814325E-01
   7160.00  5.0549651E-01
   7160.33  5.0258636E-01
   7160.67  4.9956442E-01
   7161.00  4.9653945E-01
   7161.33  4.9365138E-01
   7161.67  4.9100142E-01
   7162.00  4.8867857E-01
   7162.33  4.8682070E-01
   7162.67  4.8543804E-01
   7163.00  4.8456420E-01
   7163.33  4.8428439E-01
   7163.67  4.8452493E-01
   7164.00  4.8525732E-01
   7164.33  4.8649256E-01
   7164.67  4.8812228E-01
   7165.00  4.9009137E-01
   7165.33  4.9235764E-01
   7165.67  4.9480511E-01
   7166.00  4.9735892E-01
   7166.33  4.9993102E-01
   7166.67  5.0242838E-01
   7167.00  5.0477465E-01
   7167.33  5.0685515E-01
   7167.67  5.0861945E-01
   7168.00  5.1000477E-01
   7168.33  5.1089285E-01
   7168.67  5.1129003E-01
   7169.00  5.1116774E-01
   7169.33  5.1044488E-01
   7169.67  5.0919759E-01
   7170.00  5.0745580E-01
   7170.33  5.0523426E-01
   7170.67  5.0268842E-01
   7171.00  4.9992622E-01
   7171.33  4.9710669E-01
   7171.67  4.9447281E-01
   7172.00  4.9228850E-01
