    FDMNES
    energy     <xanes>
   7097.00  4.4533159E-03
   7097.33  4.5435256E-03
   7097.67  4.6371497E-03
   7098.00  4.7343835E-03
   7098.33  4.8359577E-03
   7098.67  4.9416635E-03
   7099.00  5.0517578E-03
   7099.33  5.1671597E-03
   7099.67  5.2876455E-03
   7100.00  5.4135619E-03
   7100.33  5.5460931E-03
   7100.67  5.6850087E-03
   7101.00  5.8307920E-03
   7101.33  5.9850146E-03
   7101.67  6.1474604E-03
   7102.00  6.3188305E-03
   7102.33  6.5012900E-03
   7102.67  6.6946876E-03
   7103.00  6.9000916E-03
   7103.33  7.1206333E-03
   7103.67  7.3563469E-03
   7104.00  7.6089674E-03
   7104.33  7.8833218E-03
   7104.67  8.1799355E-03
   7105.00  8.5018687E-03
   7105.33  8.8572328E-03
   7105.67  9.2478832E-03
   7106.00  9.6798488E-03
   7106.33  1.0168484E-02
   7106.67  1.0719591E-02
   7107.00  1.1346999E-02
   7107.33  1.2085143E-02
   7107.67  1.2953621E-02
   7108.00  1.3991897E-02
   7108.33  1.5299294E-02
   7108.67  1.6958283E-02
   7109.00  1.9125922E-02
   7109.33  2.2226653E-02
   7109.67  2.6778241E-02
   7110.00  3.3810393E-02
   7110.33  4.6297868E-02
   7110.67  6.6857732E-02
   7111.00  9.2797528E-02
   7111.33  1.0717254E-01
   7111.67  1.0729020E-01
   7112.00  1.0035051E-01
   7112.33  9.2253044E-02
   7112.67  8.6371611E-02
   7113.00  8.4191785E-02
   7113.33  8.0790279E-02
   7113.67  7.2954093E-02
   7114.00  6.3969857E-02
   7114.33  5.7972651E-02
   7114.67  5.5324939E-02
   7115.00  5.5630380E-02
   7115.33  5.8852717E-02
   7115.67  6.4663424E-02
   7116.00  7.3333505E-02
   7116.33  8.5836195E-02
   7116.67  1.0244574E-01
   7117.00  1.2368567E-01
   7117.33  1.4975569E-01
   7117.67  1.7875151E-01
   7118.00  2.1113663E-01
   7118.33  2.5273934E-01
   7118.67  3.0784443E-01
   7119.00  3.7549425E-01
   7119.33  4.4595466E-01
   7119.67  5.0934355E-01
   7120.00  5.6243060E-01
   7120.33  5.9728965E-01
   7120.67  6.0945062E-01
   7121.00  5.9934599E-01
   7121.33  5.7293556E-01
   7121.67  5.4162846E-01
   7122.00  5.1172325E-01
   7122.33  4.8797395E-01
   7122.67  4.7023205E-01
   7123.00  4.5660500E-01
   7123.33  4.4367981E-01
   7123.67  4.2910554E-01
   7124.00  4.1396612E-01
   7124.33  4.0157733E-01
   7124.67  3.9174754E-01
   7125.00  3.8282447E-01
   7125.33  3.7412243E-01
   7125.67  3.6639392E-01
   7126.00  3.6056965E-01
   7126.33  3.5757637E-01
   7126.67  3.5726766E-01
   7127.00  3.5978330E-01
   7127.33  3.6565851E-01
   7127.67  3.7435680E-01
   7128.00  3.8538424E-01
   7128.33  3.9794440E-01
   7128.67  4.1056737E-01
   7129.00  4.2205517E-01
   7129.33  4.3100586E-01
   7129.67  4.3734539E-01
   7130.00  4.4159739E-01
   7130.33  4.4481689E-01
   7130.67  4.4792151E-01
   7131.00  4.5077789E-01
   7131.33  4.5234386E-01
   7131.67  4.5189499E-01
   7132.00  4.4926005E-01
   7132.33  4.4470057E-01
   7132.67  4.3920515E-01
   7133.00  4.3338393E-01
   7133.33  4.2768495E-01
   7133.67  4.2206135E-01
   7134.00  4.1619166E-01
   7134.33  4.1011601E-01
   7134.67  4.0505064E-01
   7135.00  4.0240607E-01
   7135.33  4.0373241E-01
   7135.67  4.0893725E-01
   7136.00  4.1789651E-01
   7136.33  4.3063621E-01
   7136.67  4.4626991E-01
   7137.00  4.6444568E-01
   7137.33  4.8513687E-01
   7137.67  5.0783559E-01
   7138.00  5.3234340E-01
   7138.33  5.5853114E-01
   7138.67  5.8575436E-01
   7139.00  6.1351169E-01
   7139.33  6.4115785E-01
   7139.67  6.6814219E-01
   7140.00  6.9411062E-01
   7140.33  7.1862773E-01
   7140.67  7.4161705E-01
   7141.00  7.6281328E-01
   7141.33  7.8155500E-01
   7141.67  7.9774139E-01
   7142.00  8.1115369E-01
   7142.33  8.2131293E-01
   7142.67  8.2852897E-01
   7143.00  8.3274016E-01
   7143.33  8.3345245E-01
   7143.67  8.3097909E-01
   7144.00  8.2535454E-01
   7144.33  8.1642688E-01
   7144.67  8.0495205E-01
   7145.00  7.9134649E-01
   7145.33  7.7589544E-01
   7145.67  7.5919020E-01
   7146.00  7.4144768E-01
   7146.33  7.2271798E-01
   7146.67  7.0324716E-01
   7147.00  6.8317604E-01
   7147.33  6.6267862E-01
   7147.67  6.4211830E-01
   7148.00  6.2181372E-01
   7148.33  6.0221571E-01
   7148.67  5.8356796E-01
   7149.00  5.6606455E-01
   7149.33  5.4998489E-01
   7149.67  5.3520020E-01
   7150.00  5.2168368E-01
   7150.33  5.0950752E-01
   7150.67  4.9841210E-01
   7151.00  4.8829965E-01
   7151.33  4.7917656E-01
   7151.67  4.7083763E-01
   7152.00  4.6320395E-01
   7152.33  4.5625886E-01
   7152.67  4.4982991E-01
   7153.00  4.4383329E-01
   7153.33  4.3821419E-01
   7153.67  4.3284095E-01
   7154.00  4.2764774E-01
   7154.33  4.2259136E-01
   7154.67  4.1762219E-01
   7155.00  4.1273107E-01
   7155.33  4.0793957E-01
   7155.67  4.0326514E-01
   7156.00  3.9874186E-01
   7156.33  3.9443868E-01
   7156.67  3.9037658E-01
   7157.00  3.8659251E-01
   7157.33  3.8316452E-01
   7157.67  3.8008563E-01
   7158.00  3.7737871E-01
   7158.33  3.7511447E-01
   7158.67  3.7326107E-01
   7159.00  3.7183124E-01
   7159.33  3.7089262E-01
   7159.67  3.7040063E-01
   7160.00  3.7036092E-01
   7160.33  3.7083792E-01
   7160.67  3.7178246E-01
   7161.00  3.7319755E-01
   7161.33  3.7513391E-01
   7161.67  3.7751036E-01
   7162.00  3.8029694E-01
   7162.33  3.8349633E-01
   7162.67  3.8700984E-01
   7163.00  3.9078698E-01
   7163.33  3.9479399E-01
   7163.67  3.9895025E-01
   7164.00  4.0321437E-01
   7164.33  4.0755481E-01
   7164.67  4.1193156E-01
   7165.00  4.1632383E-01
   7165.33  4.2071312E-01
   7165.67  4.2508560E-01
   7166.00  4.2942972E-01
   7166.33  4.3372435E-01
   7166.67  4.3795427E-01
   7167.00  4.4209587E-01
   7167.33  4.4609935E-01
   7167.67  4.4993908E-01
   7168.00  4.5357705E-01
   7168.33  4.5693834E-01
   7168.67  4.6001268E-01
   7169.00  4.6277161E-01
   7169.33  4.6515341E-01
   7169.67  4.6719629E-01
   7170.00  4.6890882E-01
   7170.33  4.7027356E-01
   7170.67  4.7135954E-01
   7171.00  4.7219830E-01
   7171.33  4.7280583E-01
   7171.67  4.7325442E-01
   7172.00  4.7358796E-01
