    FDMNES
    energy     <xanes>
   7097.00  4.3763670E-03
   7097.33  4.4678719E-03
   7097.67  4.5631517E-03
   7098.00  4.6624543E-03
   7098.33  4.7666427E-03
   7098.67  4.8755315E-03
   7099.00  4.9894615E-03
   7099.33  5.1095624E-03
   7099.67  5.2356503E-03
   7100.00  5.3682085E-03
   7100.33  5.5087626E-03
   7100.67  5.6571530E-03
   7101.00  5.8140912E-03
   7101.33  5.9817148E-03
   7101.67  6.1599410E-03
   7102.00  6.3498639E-03
   7102.33  6.5546169E-03
   7102.67  6.7743109E-03
   7103.00  7.0107204E-03
   7103.33  7.2686994E-03
   7103.67  7.5488275E-03
   7104.00  7.8541756E-03
   7104.33  8.1928008E-03
   7104.67  8.5664376E-03
   7105.00  8.9808523E-03
   7105.33  9.4506477E-03
   7105.67  9.9805928E-03
   7106.00  1.0582721E-02
   7106.33  1.1286744E-02
   7106.67  1.2106324E-02
   7107.00  1.3070418E-02
   7107.33  1.4249908E-02
   7107.67  1.5689331E-02
   7108.00  1.7474134E-02
   7108.33  1.9817775E-02
   7108.67  2.2904370E-02
   7109.00  2.7078766E-02
   7109.33  3.3269101E-02
   7109.67  4.2612234E-02
   7110.00  5.7355968E-02
   7110.33  8.3990169E-02
   7110.67  1.2844388E-01
   7111.00  1.8612025E-01
   7111.33  2.2545812E-01
   7111.67  2.4361949E-01
   7112.00  2.3570142E-01
   7112.33  1.9233195E-01
   7112.67  1.4494899E-01
   7113.00  1.1098061E-01
   7113.33  9.5072479E-02
   7113.67  8.8723638E-02
   7114.00  8.3449559E-02
   7114.33  7.4782293E-02
   7114.67  6.4446929E-02
   7115.00  5.5086853E-02
   7115.33  4.8870446E-02
   7115.67  4.5158876E-02
   7116.00  4.3397020E-02
   7116.33  4.3369270E-02
   7116.67  4.4765715E-02
   7117.00  4.7691666E-02
   7117.33  5.2820113E-02
   7117.67  6.0808023E-02
   7118.00  7.2608584E-02
   7118.33  8.7768582E-02
   7118.67  9.8901129E-02
   7119.00  9.8779240E-02
   7119.33  8.9764379E-02
   7119.67  8.1357069E-02
   7120.00  7.6374838E-02
   7120.33  7.5182119E-02
   7120.67  7.6666457E-02
   7121.00  8.0386198E-02
   7121.33  8.6235853E-02
   7121.67  9.3771639E-02
   7122.00  1.0292448E-01
   7122.33  1.1398204E-01
   7122.67  1.2704565E-01
   7123.00  1.4252967E-01
   7123.33  1.6121891E-01
   7123.67  1.8314045E-01
   7124.00  2.0892794E-01
   7124.33  2.3999940E-01
   7124.67  2.7410374E-01
   7125.00  3.0687562E-01
   7125.33  3.3409701E-01
   7125.67  3.5847036E-01
   7126.00  3.8461092E-01
   7126.33  4.1834656E-01
   7126.67  4.6182163E-01
   7127.00  5.1545942E-01
   7127.33  5.7792084E-01
   7127.67  6.4297805E-01
   7128.00  7.0369842E-01
   7128.33  7.5134802E-01
   7128.67  7.8959439E-01
   7129.00  8.2693337E-01
   7129.33  8.7051397E-01
   7129.67  9.1864926E-01
   7130.00  9.6667497E-01
   7130.33  1.0071986E+00
   7130.67  1.0359055E+00
   7131.00  1.0505769E+00
   7131.33  1.0494266E+00
   7131.67  1.0363157E+00
   7132.00  1.0143193E+00
   7132.33  9.8724258E-01
   7132.67  9.5946029E-01
   7133.00  9.3287868E-01
   7133.33  9.0899468E-01
   7133.67  8.8902854E-01
   7134.00  8.7425476E-01
   7134.33  8.6482661E-01
   7134.67  8.5757365E-01
   7135.00  8.4985501E-01
   7135.33  8.3881100E-01
   7135.67  8.2365186E-01
   7136.00  8.0484561E-01
   7136.33  7.8392038E-01
   7136.67  7.6305273E-01
   7137.00  7.4343096E-01
   7137.33  7.2598998E-01
   7137.67  7.1063009E-01
   7138.00  6.9723028E-01
   7138.33  6.8574595E-01
   7138.67  6.7566366E-01
   7139.00  6.6671618E-01
   7139.33  6.5872134E-01
   7139.67  6.5136394E-01
   7140.00  6.4454169E-01
   7140.33  6.3824664E-01
   7140.67  6.3236068E-01
   7141.00  6.2681766E-01
   7141.33  6.2155912E-01
   7141.67  6.1647759E-01
   7142.00  6.1154869E-01
   7142.33  6.0681187E-01
   7142.67  6.0228904E-01
   7143.00  5.9802639E-01
   7143.33  5.9409488E-01
   7143.67  5.9043707E-01
   7144.00  5.8697562E-01
   7144.33  5.8355623E-01
   7144.67  5.7996209E-01
   7145.00  5.7599579E-01
   7145.33  5.7137422E-01
   7145.67  5.6601844E-01
   7146.00  5.5986695E-01
   7146.33  5.5284005E-01
   7146.67  5.4513524E-01
   7147.00  5.3688139E-01
   7147.33  5.2820372E-01
   7147.67  5.1932384E-01
   7148.00  5.1038054E-01
   7148.33  5.0151733E-01
   7148.67  4.9282337E-01
   7149.00  4.8435356E-01
   7149.33  4.7617095E-01
   7149.67  4.6824257E-01
   7150.00  4.6054510E-01
   7150.33  4.5305183E-01
   7150.67  4.4567280E-01
   7151.00  4.3834019E-01
   7151.33  4.3096082E-01
   7151.67  4.2344859E-01
   7152.00  4.1573080E-01
   7152.33  4.0770477E-01
   7152.67  3.9936477E-01
   7153.00  3.9070597E-01
   7153.33  3.8172477E-01
   7153.67  3.7253450E-01
   7154.00  3.6323612E-01
   7154.33  3.5396770E-01
   7154.67  3.4485964E-01
   7155.00  3.3601649E-01
   7155.33  3.2757549E-01
   7155.67  3.1953766E-01
   7156.00  3.1191164E-01
   7156.33  3.0473313E-01
   7156.67  2.9791823E-01
   7157.00  2.9142828E-01
   7157.33  2.8526483E-01
   7157.67  2.7937500E-01
   7158.00  2.7375941E-01
   7158.33  2.6847747E-01
   7158.67  2.6354170E-01
   7159.00  2.5901703E-01
   7159.33  2.5506632E-01
   7159.67  2.5174413E-01
   7160.00  2.4916071E-01
   7160.33  2.4755585E-01
   7160.67  2.4694549E-01
   7161.00  2.4742312E-01
   7161.33  2.4921718E-01
   7161.67  2.5222558E-01
   7162.00  2.5645335E-01
   7162.33  2.6201508E-01
   7162.67  2.6867865E-01
   7163.00  2.7632691E-01
   7163.33  2.8488397E-01
   7163.67  2.9405072E-01
   7164.00  3.0365027E-01
   7164.33  3.1350266E-01
   7164.67  3.2337975E-01
   7165.00  3.3312470E-01
   7165.33  3.4254430E-01
   7165.67  3.5154986E-01
   7166.00  3.6006141E-01
   7166.33  3.6794770E-01
   7166.67  3.7524657E-01
   7167.00  3.8195150E-01
   7167.33  3.8800274E-01
   7167.67  3.9350316E-01
   7168.00  3.9848935E-01
   7168.33  4.0295611E-01
   7168.67  4.0702016E-01
   7169.00  4.1073191E-01
   7169.33  4.1411280E-01
   7169.67  4.1725818E-01
   7170.00  4.2021379E-01
   7170.33  4.2300471E-01
   7170.67  4.2567708E-01
   7171.00  4.2823645E-01
   7171.33  4.3063760E-01
   7171.67  4.3280989E-01
   7172.00  4.3461829E-01
