    FDMNES
    energy     <xanes>
   7097.00  4.7547148E-03
   7097.33  4.8733266E-03
   7097.67  4.9979113E-03
   7098.00  5.1289278E-03
   7098.33  5.2678532E-03
   7098.67  5.4144844E-03
   7099.00  5.5694722E-03
   7099.33  5.7348250E-03
   7099.67  5.9103693E-03
   7100.00  6.0970577E-03
   7100.33  6.2977098E-03
   7100.67  6.5122414E-03
   7101.00  6.7420991E-03
   7101.33  6.9913951E-03
   7101.67  7.2602636E-03
   7102.00  7.5510006E-03
   7102.33  7.8698831E-03
   7102.67  8.2175538E-03
   7103.00  8.5978555E-03
   7103.33  9.0209171E-03
   7103.67  9.4885732E-03
   7104.00  1.0007690E-02
   7104.33  1.0595784E-02
   7104.67  1.1257610E-02
   7105.00  1.2006493E-02
   7105.33  1.2875537E-02
   7105.67  1.3877243E-02
   7106.00  1.5040431E-02
   7106.33  1.6435480E-02
   7106.67  1.8098111E-02
   7107.00  2.0100592E-02
   7107.33  2.2619265E-02
   7107.67  2.5773427E-02
   7108.00  2.9787468E-02
   7108.33  3.5225236E-02
   7108.67  4.2604276E-02
   7109.00  5.2893761E-02
   7109.33  6.8745474E-02
   7109.67  9.3589704E-02
   7110.00  1.3426600E-01
   7110.33  2.1038180E-01
   7110.67  3.3550638E-01
   7111.00  4.7422255E-01
   7111.33  5.0215242E-01
   7111.67  4.4476587E-01
   7112.00  3.7223131E-01
   7112.33  3.1690112E-01
   7112.67  2.6432170E-01
   7113.00  2.0966148E-01
   7113.33  1.6199305E-01
   7113.67  1.2493828E-01
   7114.00  9.9407418E-02
   7114.33  8.4561784E-02
   7114.67  7.6310284E-02
   7115.00  7.1151393E-02
   7115.33  6.4512939E-02
   7115.67  5.8201385E-02
   7116.00  5.4465408E-02
   7116.33  5.2406653E-02
   7116.67  4.9543338E-02
   7117.00  4.5898604E-02
   7117.33  4.3060164E-02
   7117.67  4.1564284E-02
   7118.00  4.1332328E-02
   7118.33  4.2284000E-02
   7118.67  4.4095265E-02
   7119.00  4.6618563E-02
   7119.33  4.9839774E-02
   7119.67  5.3835240E-02
   7120.00  5.9014051E-02
   7120.33  6.6331960E-02
   7120.67  7.6482466E-02
   7121.00  9.0504738E-02
   7121.33  1.0964026E-01
   7121.67  1.2992339E-01
   7122.00  1.4373170E-01
   7122.33  1.4483236E-01
   7122.67  1.3956589E-01
   7123.00  1.3376693E-01
   7123.33  1.3198483E-01
   7123.67  1.3563753E-01
   7124.00  1.4549457E-01
   7124.33  1.6283577E-01
   7124.67  1.8722104E-01
   7125.00  2.1892997E-01
   7125.33  2.5826835E-01
   7125.67  3.0117933E-01
   7126.00  3.4162124E-01
   7126.33  3.6979434E-01
   7126.67  3.8370106E-01
   7127.00  3.8601345E-01
   7127.33  3.7967613E-01
   7127.67  3.6841781E-01
   7128.00  3.5629866E-01
   7128.33  3.4989551E-01
   7128.67  3.5156812E-01
   7129.00  3.6104052E-01
   7129.33  3.7787932E-01
   7129.67  4.0049207E-01
   7130.00  4.2887988E-01
   7130.33  4.6466252E-01
   7130.67  5.0840004E-01
   7131.00  5.6140531E-01
   7131.33  6.2621078E-01
   7131.67  7.0109914E-01
   7132.00  7.8119516E-01
   7132.33  8.4873091E-01
   7132.67  8.8624951E-01
   7133.00  8.9532258E-01
   7133.33  8.9645781E-01
   7133.67  9.0771285E-01
   7134.00  9.3312610E-01
   7134.33  9.7330718E-01
   7134.67  1.0268911E+00
   7135.00  1.0972632E+00
   7135.33  1.1902370E+00
   7135.67  1.2914389E+00
   7136.00  1.3641627E+00
   7136.33  1.3426581E+00
   7136.67  1.2363925E+00
   7137.00  1.0938417E+00
   7137.33  9.6467526E-01
   7137.67  8.6242490E-01
   7138.00  7.8526757E-01
   7138.33  7.2963543E-01
   7138.67  6.8783706E-01
   7139.00  6.5660770E-01
   7139.33  6.3435354E-01
   7139.67  6.1838212E-01
   7140.00  6.0770891E-01
   7140.33  6.0211183E-01
   7140.67  6.0051711E-01
   7141.00  6.0264453E-01
   7141.33  6.0871744E-01
   7141.67  6.1811504E-01
   7142.00  6.3062304E-01
   7142.33  6.4613994E-01
   7142.67  6.6357760E-01
   7143.00  6.8198858E-01
   7143.33  6.9982758E-01
   7143.67  7.1534978E-01
   7144.00  7.2696550E-01
   7144.33  7.3252980E-01
   7144.67  7.3206966E-01
   7145.00  7.2584964E-01
   7145.33  7.1441240E-01
   7145.67  6.9994306E-01
   7146.00  6.8386091E-01
   7146.33  6.6754301E-01
   7146.67  6.5200441E-01
   7147.00  6.3774590E-01
   7147.33  6.2519550E-01
   7147.67  6.1412850E-01
   7148.00  6.0436526E-01
   7148.33  5.9572588E-01
   7148.67  5.8776085E-01
   7149.00  5.8020961E-01
   7149.33  5.7282853E-01
   7149.67  5.6539559E-01
   7150.00  5.5777824E-01
   7150.33  5.4981844E-01
   7150.67  5.4146098E-01
   7151.00  5.3263509E-01
   7151.33  5.2317937E-01
   7151.67  5.1305259E-01
   7152.00  5.0214263E-01
   7152.33  4.9019637E-01
   7152.67  4.7722152E-01
   7153.00  4.6317646E-01
   7153.33  4.4795761E-01
   7153.67  4.3182934E-01
   7154.00  4.1499555E-01
   7154.33  3.9773174E-01
   7154.67  3.8047656E-01
   7155.00  3.6356976E-01
   7155.33  3.4743975E-01
   7155.67  3.3227944E-01
   7156.00  3.1827464E-01
   7156.33  3.0574344E-01
   7156.67  2.9461598E-01
   7157.00  2.8493003E-01
   7157.33  2.7686586E-01
   7157.67  2.7020445E-01
   7158.00  2.6488909E-01
   7158.33  2.6099217E-01
   7158.67  2.5825870E-01
   7159.00  2.5660116E-01
   7159.33  2.5603788E-01
   7159.67  2.5634504E-01
   7160.00  2.5743981E-01
   7160.33  2.5932366E-01
   7160.67  2.6183687E-01
   7161.00  2.6493095E-01
   7161.33  2.6863367E-01
   7161.67  2.7285188E-01
   7162.00  2.7757138E-01
   7162.33  2.8284265E-01
   7162.67  2.8858525E-01
   7163.00  2.9476068E-01
   7163.33  3.0132443E-01
   7163.67  3.0808719E-01
   7164.00  3.1487908E-01
   7164.33  3.2144936E-01
   7164.67  3.2760476E-01
   7165.00  3.3319529E-01
   7165.33  3.3802731E-01
   7165.67  3.4214971E-01
   7166.00  3.4558316E-01
   7166.33  3.4831633E-01
   7166.67  3.5052041E-01
   7167.00  3.5228539E-01
   7167.33  3.5367840E-01
   7167.67  3.5484809E-01
   7168.00  3.5588349E-01
   7168.33  3.5687882E-01
   7168.67  3.5792798E-01
   7169.00  3.5909681E-01
   7169.33  3.6046877E-01
   7169.67  3.6206189E-01
   7170.00  3.6389235E-01
   7170.33  3.6598466E-01
   7170.67  3.6827753E-01
   7171.00  3.7071702E-01
   7171.33  3.7320129E-01
   7171.67  3.7554267E-01
   7172.00  3.7751306E-01
