    FDMNES
    energy     <xanes>
   7097.00  4.7539997E-03
   7097.33  4.8569713E-03
   7097.67  4.9641865E-03
   7098.00  5.0759116E-03
   7098.33  5.1930944E-03
   7098.67  5.3155074E-03
   7099.00  5.4435088E-03
   7099.33  5.5783184E-03
   7099.67  5.7196989E-03
   7100.00  5.8681458E-03
   7100.33  6.0252708E-03
   7100.67  6.1908432E-03
   7101.00  6.3655713E-03
   7101.33  6.5516530E-03
   7101.67  6.7489022E-03
   7102.00  6.9583716E-03
   7102.33  7.1831772E-03
   7102.67  7.4232634E-03
   7103.00  7.6802707E-03
   7103.33  7.9588342E-03
   7103.67  8.2592275E-03
   7104.00  8.5841617E-03
   7104.33  8.9409621E-03
   7104.67  9.3307153E-03
   7105.00  9.7582445E-03
   7105.33  1.0236067E-02
   7105.67  1.0767354E-02
   7106.00  1.1361550E-02
   7106.33  1.2042375E-02
   7106.67  1.2818840E-02
   7107.00  1.3711983E-02
   7107.33  1.4773640E-02
   7107.67  1.6031764E-02
   7108.00  1.7542666E-02
   7108.33  1.9445892E-02
   7108.67  2.1847033E-02
   7109.00  2.4945808E-02
   7109.33  2.9264926E-02
   7109.67  3.5374905E-02
   7110.00  4.4387071E-02
   7110.33  5.9491327E-02
   7110.67  8.4346739E-02
   7111.00  1.2141610E-01
   7111.33  1.6427073E-01
   7111.67  2.0239404E-01
   7112.00  2.3393992E-01
   7112.33  2.5257154E-01
   7112.67  2.4929795E-01
   7113.00  2.1506927E-01
   7113.33  1.6949765E-01
   7113.67  1.3414279E-01
   7114.00  1.1096475E-01
   7114.33  9.7803629E-02
   7114.67  9.0369187E-02
   7115.00  8.6908791E-02
   7115.33  8.6695620E-02
   7115.67  8.8905295E-02
   7116.00  9.3339637E-02
   7116.33  1.0010895E-01
   7116.67  1.0888209E-01
   7117.00  1.1965449E-01
   7117.33  1.3268801E-01
   7117.67  1.4773807E-01
   7118.00  1.6472912E-01
   7118.33  1.8340706E-01
   7118.67  2.0279211E-01
   7119.00  2.2226653E-01
   7119.33  2.4137412E-01
   7119.67  2.5980177E-01
   7120.00  2.7695015E-01
   7120.33  2.9161551E-01
   7120.67  3.0390854E-01
   7121.00  3.1477997E-01
   7121.33  3.2565805E-01
   7121.67  3.3763132E-01
   7122.00  3.5145292E-01
   7122.33  3.6774227E-01
   7122.67  3.8609272E-01
   7123.00  4.0607670E-01
   7123.33  4.2700264E-01
   7123.67  4.4835643E-01
   7124.00  4.7045734E-01
   7124.33  4.9364393E-01
   7124.67  5.1679544E-01
   7125.00  5.3814718E-01
   7125.33  5.5488663E-01
   7125.67  5.6598426E-01
   7126.00  5.7123376E-01
   7126.33  5.7152734E-01
   7126.67  5.7068360E-01
   7127.00  5.7155358E-01
   7127.33  5.7546830E-01
   7127.67  5.8085331E-01
   7128.00  5.8636885E-01
   7128.33  5.9101038E-01
   7128.67  5.9466974E-01
   7129.00  5.9754262E-01
   7129.33  6.0006735E-01
   7129.67  6.0286063E-01
   7130.00  6.0634993E-01
   7130.33  6.1090410E-01
   7130.67  6.1624300E-01
   7131.00  6.2185444E-01
   7131.33  6.2686837E-01
   7131.67  6.3087672E-01
   7132.00  6.3407196E-01
   7132.33  6.3703424E-01
   7132.67  6.4003490E-01
   7133.00  6.4283861E-01
   7133.33  6.4508966E-01
   7133.67  6.4691047E-01
   7134.00  6.4858694E-01
   7134.33  6.5051475E-01
   7134.67  6.5284180E-01
   7135.00  6.5544653E-01
   7135.33  6.5796467E-01
   7135.67  6.6001473E-01
   7136.00  6.6131288E-01
   7136.33  6.6149186E-01
   7136.67  6.6053931E-01
   7137.00  6.5842929E-01
   7137.33  6.5510492E-01
   7137.67  6.5088449E-01
   7138.00  6.4598868E-01
   7138.33  6.4066164E-01
   7138.67  6.3523180E-01
   7139.00  6.2989191E-01
   7139.33  6.2480308E-01
   7139.67  6.1995763E-01
   7140.00  6.1529061E-01
   7140.33  6.1066797E-01
   7140.67  6.0592788E-01
   7141.00  6.0096280E-01
   7141.33  5.9567895E-01
   7141.67  5.9012710E-01
   7142.00  5.8435557E-01
   7142.33  5.7843408E-01
   7142.67  5.7249309E-01
   7143.00  5.6663528E-01
   7143.33  5.6098212E-01
   7143.67  5.5557828E-01
   7144.00  5.5045688E-01
   7144.33  5.4566552E-01
   7144.67  5.4115246E-01
   7145.00  5.3688901E-01
   7145.33  5.3285539E-01
   7145.67  5.2897601E-01
   7146.00  5.2520999E-01
   7146.33  5.2152606E-01
   7146.67  5.1788582E-01
   7147.00  5.1427423E-01
   7147.33  5.1068608E-01
   7147.67  5.0711792E-01
   7148.00  5.0357245E-01
   7148.33  5.0005664E-01
   7148.67  4.9656865E-01
   7149.00  4.9310781E-01
   7149.33  4.8967445E-01
   7149.67  4.8625651E-01
   7150.00  4.8284249E-01
   7150.33  4.7941777E-01
   7150.67  4.7596998E-01
   7151.00  4.7248837E-01
   7151.33  4.6895770E-01
   7151.67  4.6537791E-01
   7152.00  4.6174868E-01
   7152.33  4.5807058E-01
   7152.67  4.5436185E-01
   7153.00  4.5063731E-01
   7153.33  4.4691799E-01
   7153.67  4.4322702E-01
   7154.00  4.3958637E-01
   7154.33  4.3602667E-01
   7154.67  4.3255546E-01
   7155.00  4.2918766E-01
   7155.33  4.2595415E-01
   7155.67  4.2285266E-01
   7156.00  4.1989138E-01
   7156.33  4.1709691E-01
   7156.67  4.1445972E-01
   7157.00  4.1198926E-01
   7157.33  4.0972117E-01
   7157.67  4.0764969E-01
   7158.00  4.0579168E-01
   7158.33  4.0419764E-01
   7158.67  4.0286039E-01
   7159.00  4.0179849E-01
   7159.33  4.0106776E-01
   7159.67  4.0064709E-01
   7160.00  4.0054704E-01
   7160.33  4.0081675E-01
   7160.67  4.0141853E-01
   7161.00  4.0235233E-01
   7161.33  4.0365633E-01
   7161.67  4.0528244E-01
   7162.00  4.0722039E-01
   7162.33  4.0948933E-01
   7162.67  4.1202796E-01
   7163.00  4.1480618E-01
   7163.33  4.1779686E-01
   7163.67  4.2091452E-01
   7164.00  4.2410415E-01
   7164.33  4.2730041E-01
   7164.67  4.3043591E-01
   7165.00  4.3345625E-01
   7165.33  4.3628378E-01
   7165.67  4.3889450E-01
   7166.00  4.4125997E-01
   7166.33  4.4332750E-01
   7166.67  4.4512515E-01
   7167.00  4.4665951E-01
   7167.33  4.4791830E-01
   7167.67  4.4895917E-01
   7168.00  4.4981042E-01
   7168.33  4.5048947E-01
   7168.67  4.5105344E-01
   7169.00  4.5153414E-01
   7169.33  4.5196015E-01
   7169.67  4.5236803E-01
   7170.00  4.5277953E-01
   7170.33  4.5321679E-01
   7170.67  4.5368862E-01
   7171.00  4.5419679E-01
   7171.33  4.5473216E-01
   7171.67  4.5525564E-01
   7172.00  4.5571260E-01
