    FDMNES
    energy     <xanes>
   7097.00  5.3450486E-03
   7097.33  5.4792727E-03
   7097.67  5.6198612E-03
   7098.00  5.7672547E-03
   7098.33  5.9229417E-03
   7098.67  6.0866329E-03
   7099.00  6.2589287E-03
   7099.33  6.4417813E-03
   7099.67  6.6348937E-03
   7100.00  6.8391051E-03
   7100.33  7.0570390E-03
   7100.67  7.2884186E-03
   7101.00  7.5344510E-03
   7101.33  7.7987651E-03
   7101.67  8.0811650E-03
   7102.00  8.3834474E-03
   7102.33  8.7108057E-03
   7102.67  9.0632586E-03
   7103.00  9.4435902E-03
   7103.33  9.8595453E-03
   7103.67  1.0311654E-02
   7104.00  1.0804447E-02
   7104.33  1.1350072E-02
   7104.67  1.1950258E-02
   7105.00  1.2612844E-02
   7105.33  1.3358131E-02
   7105.67  1.4190757E-02
   7106.00  1.5125373E-02
   7106.33  1.6198831E-02
   7106.67  1.7423337E-02
   7107.00  1.8829270E-02
   7107.33  2.0491448E-02
   7107.67  2.2444278E-02
   7108.00  2.4760634E-02
   7108.33  2.7619101E-02
   7108.67  3.1132900E-02
   7109.00  3.5520358E-02
   7109.33  4.1332548E-02
   7109.67  4.9066759E-02
   7110.00  5.9671298E-02
   7110.33  7.5753044E-02
   7110.67  1.0037694E-01
   7111.00  1.3805086E-01
   7111.33  1.9572184E-01
   7111.67  2.7165868E-01
   7112.00  3.6403436E-01
   7112.33  4.6510173E-01
   7112.67  5.5277936E-01
   7113.00  6.1593319E-01
   7113.33  6.3432576E-01
   7113.67  5.9298796E-01
   7114.00  4.9706703E-01
   7114.33  3.9906850E-01
   7114.67  3.2770775E-01
   7115.00  2.8344338E-01
   7115.33  2.6465520E-01
   7115.67  2.6227683E-01
   7116.00  2.6557874E-01
   7116.33  2.6011733E-01
   7116.67  2.4686663E-01
   7117.00  2.3046180E-01
   7117.33  2.1135090E-01
   7117.67  1.9135006E-01
   7118.00  1.7302905E-01
   7118.33  1.5835428E-01
   7118.67  1.4708712E-01
   7119.00  1.3889078E-01
   7119.33  1.3348668E-01
   7119.67  1.2995762E-01
   7120.00  1.2784315E-01
   7120.33  1.2677085E-01
   7120.67  1.2627756E-01
   7121.00  1.2642614E-01
   7121.33  1.2775633E-01
   7121.67  1.3035372E-01
   7122.00  1.3418578E-01
   7122.33  1.3938201E-01
   7122.67  1.4589671E-01
   7123.00  1.5391394E-01
   7123.33  1.6394557E-01
   7123.67  1.7608826E-01
   7124.00  1.9058940E-01
   7124.33  2.0790547E-01
   7124.67  2.2752718E-01
   7125.00  2.4885157E-01
   7125.33  2.7063025E-01
   7125.67  2.9111532E-01
   7126.00  3.0913969E-01
   7126.33  3.2424881E-01
   7126.67  3.3768363E-01
   7127.00  3.4997930E-01
   7127.33  3.6079134E-01
   7127.67  3.7024778E-01
   7128.00  3.7933663E-01
   7128.33  3.9036721E-01
   7128.67  4.0520875E-01
   7129.00  4.2530817E-01
   7129.33  4.5280244E-01
   7129.67  4.8743607E-01
   7130.00  5.2883850E-01
   7130.33  5.7648591E-01
   7130.67  6.2873507E-01
   7131.00  6.8617926E-01
   7131.33  7.5238009E-01
   7131.67  8.2916562E-01
   7132.00  9.1691023E-01
   7132.33  1.0123297E+00
   7132.67  1.1045411E+00
   7133.00  1.1810494E+00
   7133.33  1.2226971E+00
   7133.67  1.2233662E+00
   7134.00  1.1830189E+00
   7134.33  1.1081606E+00
   7134.67  1.0182224E+00
   7135.00  9.2499918E-01
   7135.33  8.3775640E-01
   7135.67  7.5945407E-01
   7136.00  6.9074398E-01
   7136.33  6.3226563E-01
   7136.67  5.8202430E-01
   7137.00  5.3937896E-01
   7137.33  5.0468994E-01
   7137.67  4.7671976E-01
   7138.00  4.5519122E-01
   7138.33  4.4046368E-01
   7138.67  4.3124320E-01
   7139.00  4.2693776E-01
   7139.33  4.2725853E-01
   7139.67  4.3085140E-01
   7140.00  4.3703563E-01
   7140.33  4.4536061E-01
   7140.67  4.5503614E-01
   7141.00  4.6569141E-01
   7141.33  4.7706894E-01
   7141.67  4.8881887E-01
   7142.00  5.0073981E-01
   7142.33  5.1260584E-01
   7142.67  5.2420795E-01
   7143.00  5.3536378E-01
   7143.33  5.4578939E-01
   7143.67  5.5538413E-01
   7144.00  5.6401772E-01
   7144.33  5.7144359E-01
   7144.67  5.7772882E-01
   7145.00  5.8285044E-01
   7145.33  5.8667584E-01
   7145.67  5.8939736E-01
   7146.00  5.9108137E-01
   7146.33  5.9171173E-01
   7146.67  5.9152545E-01
   7147.00  5.9063562E-01
   7147.33  5.8910963E-01
   7147.67  5.8715806E-01
   7148.00  5.8489895E-01
   7148.33  5.8244231E-01
   7148.67  5.7993398E-01
   7149.00  5.7747424E-01
   7149.33  5.7519168E-01
   7149.67  5.7316142E-01
   7150.00  5.7145047E-01
   7150.33  5.7017057E-01
   7150.67  5.6932284E-01
   7151.00  5.6893574E-01
   7151.33  5.6908370E-01
   7151.67  5.6970036E-01
   7152.00  5.7076061E-01
   7152.33  5.7226282E-01
   7152.67  5.7408806E-01
   7153.00  5.7616679E-01
   7153.33  5.7843797E-01
   7153.67  5.8080716E-01
   7154.00  5.8322614E-01
   7154.33  5.8566203E-01
   7154.67  5.8810012E-01
   7155.00  5.9054230E-01
   7155.33  5.9299961E-01
   7155.67  5.9547928E-01
   7156.00  5.9798352E-01
   7156.33  6.0050753E-01
   7156.67  6.0303020E-01
   7157.00  6.0552608E-01
   7157.33  6.0794814E-01
   7157.67  6.1025760E-01
   7158.00  6.1240856E-01
   7158.33  6.1431577E-01
   7158.67  6.1594573E-01
   7159.00  6.1724398E-01
   7159.33  6.1809399E-01
   7159.67  6.1847748E-01
   7160.00  6.1833654E-01
   7160.33  6.1753237E-01
   7160.67  6.1607498E-01
   7161.00  6.1391535E-01
   7161.33  6.1091868E-01
   7161.67  6.0715191E-01
   7162.00  6.0260285E-01
   7162.33  5.9717289E-01
   7162.67  5.9097589E-01
   7163.00  5.8403926E-01
   7163.33  5.7632277E-01
   7163.67  5.6797364E-01
   7164.00  5.5905392E-01
   7164.33  5.4958310E-01
   7164.67  5.3971126E-01
   7165.00  5.2951922E-01
   7165.33  5.1907560E-01
   7165.67  5.0850774E-01
   7166.00  4.9790036E-01
   7166.33  4.8735262E-01
   7166.67  4.7694270E-01
   7167.00  4.6673798E-01
   7167.33  4.5684379E-01
   7167.67  4.4728783E-01
   7168.00  4.3811826E-01
   7168.33  4.2944064E-01
   7168.67  4.2124581E-01
   7169.00  4.1356779E-01
   7169.33  4.0650459E-01
   7169.67  4.0000790E-01
   7170.00  3.9409095E-01
   7170.33  3.8883778E-01
   7170.67  3.8417942E-01
   7171.00  3.8011727E-01
   7171.33  3.7672727E-01
   7171.67  3.7394124E-01
   7172.00  3.7176589E-01
