    FDMNES
    energy     <xanes>
   7097.00  3.9458882E-03
   7097.33  4.0242920E-03
   7097.67  4.1057510E-03
   7098.00  4.1904571E-03
   7098.33  4.2790939E-03
   7098.67  4.3714996E-03
   7099.00  4.4679354E-03
   7099.33  4.5692870E-03
   7099.67  4.6753899E-03
   7100.00  4.7866110E-03
   7100.33  4.9041318E-03
   7100.67  5.0278013E-03
   7101.00  5.1581531E-03
   7101.33  5.2968212E-03
   7101.67  5.4437028E-03
   7102.00  5.5996080E-03
   7102.33  5.7668964E-03
   7102.67  5.9455924E-03
   7103.00  6.1369898E-03
   7103.33  6.3446816E-03
   7103.67  6.5690018E-03
   7104.00  6.8121498E-03
   7104.33  7.0799674E-03
   7104.67  7.3735472E-03
   7105.00  7.6969266E-03
   7105.33  8.0604293E-03
   7105.67  8.4671024E-03
   7106.00  8.9251309E-03
   7106.33  9.4548448E-03
   7106.67  1.0064849E-02
   7107.00  1.0774085E-02
   7107.33  1.1628948E-02
   7107.67  1.2656481E-02
   7108.00  1.3909565E-02
   7108.33  1.5519312E-02
   7108.67  1.7590727E-02
   7109.00  2.0320561E-02
   7109.33  2.4227732E-02
   7109.67  2.9902682E-02
   7110.00  3.8497306E-02
   7110.33  5.3308168E-02
   7110.67  7.7777500E-02
   7111.00  1.1286018E-01
   7111.33  1.5340616E-01
   7111.67  1.9463814E-01
   7112.00  2.1729339E-01
   7112.33  1.9486746E-01
   7112.67  1.5898307E-01
   7113.00  1.2682554E-01
   7113.33  9.7336929E-02
   7113.67  7.3764806E-02
   7114.00  5.8986626E-02
   7114.33  5.2540412E-02
   7114.67  4.9895083E-02
   7115.00  4.5947676E-02
   7115.33  4.0576055E-02
   7115.67  3.7493358E-02
   7116.00  3.6834341E-02
   7116.33  3.7723350E-02
   7116.67  3.8345491E-02
   7117.00  3.7642879E-02
   7117.33  3.6074163E-02
   7117.67  3.4861973E-02
   7118.00  3.4441184E-02
   7118.33  3.5043050E-02
   7118.67  3.6602244E-02
   7119.00  3.9233874E-02
   7119.33  4.3409235E-02
   7119.67  4.9483090E-02
   7120.00  5.8008868E-02
   7120.33  6.9481500E-02
   7120.67  8.2520108E-02
   7121.00  9.5732199E-02
   7121.33  1.0629222E-01
   7121.67  1.1219614E-01
   7122.00  1.1493536E-01
   7122.33  1.1838497E-01
   7122.67  1.2524905E-01
   7123.00  1.3703757E-01
   7123.33  1.5560469E-01
   7123.67  1.7994391E-01
   7124.00  2.0822703E-01
   7124.33  2.3609281E-01
   7124.67  2.5906475E-01
   7125.00  2.7708568E-01
   7125.33  2.9531576E-01
   7125.67  3.1681817E-01
   7126.00  3.3710711E-01
   7126.33  3.4305301E-01
   7126.67  3.3397026E-01
   7127.00  3.2236662E-01
   7127.33  3.2348365E-01
   7127.67  3.3881706E-01
   7128.00  3.6604755E-01
   7128.33  4.0213796E-01
   7128.67  4.4205172E-01
   7129.00  4.8440523E-01
   7129.33  5.3311151E-01
   7129.67  5.9213491E-01
   7130.00  6.6262938E-01
   7130.33  7.3843435E-01
   7130.67  7.9785629E-01
   7131.00  8.2260875E-01
   7131.33  8.2093328E-01
   7131.67  8.2622076E-01
   7132.00  8.4783950E-01
   7132.33  8.7097225E-01
   7132.67  8.7391474E-01
   7133.00  8.5920122E-01
   7133.33  8.4801579E-01
   7133.67  8.5294902E-01
   7134.00  8.7826415E-01
   7134.33  9.3153447E-01
   7134.67  1.0152023E+00
   7135.00  1.1280483E+00
   7135.33  1.2366409E+00
   7135.67  1.2696689E+00
   7136.00  1.1982264E+00
   7136.33  1.0687491E+00
   7136.67  9.4744733E-01
   7137.00  8.5158380E-01
   7137.33  7.8300580E-01
   7137.67  7.3242769E-01
   7138.00  6.9528509E-01
   7138.33  6.6912551E-01
   7138.67  6.5043028E-01
   7139.00  6.3796655E-01
   7139.33  6.3150589E-01
   7139.67  6.2985171E-01
   7140.00  6.3271691E-01
   7140.33  6.4036970E-01
   7140.67  6.5196451E-01
   7141.00  6.6708556E-01
   7141.33  6.8528253E-01
   7141.67  7.0496693E-01
   7142.00  7.2469514E-01
   7142.33  7.4221538E-01
   7142.67  7.5565162E-01
   7143.00  7.6341888E-01
   7143.33  7.6354699E-01
   7143.67  7.5682989E-01
   7144.00  7.4405676E-01
   7144.33  7.2625287E-01
   7144.67  7.0582835E-01
   7145.00  6.8427265E-01
   7145.33  6.6301768E-01
   7145.67  6.4299414E-01
   7146.00  6.2470464E-01
   7146.33  6.0868420E-01
   7146.67  5.9472697E-01
   7147.00  5.8274679E-01
   7147.33  5.7277706E-01
   7147.67  5.6435221E-01
   7148.00  5.5724724E-01
   7148.33  5.5132637E-01
   7148.67  5.4619272E-01
   7149.00  5.4162511E-01
   7149.33  5.3741805E-01
   7149.67  5.3331683E-01
   7150.00  5.2917047E-01
   7150.33  5.2478164E-01
   7150.67  5.1998865E-01
   7151.00  5.1462367E-01
   7151.33  5.0839879E-01
   7151.67  5.0123025E-01
   7152.00  4.9298399E-01
   7152.33  4.8338941E-01
   7152.67  4.7252775E-01
   7153.00  4.6039139E-01
   7153.33  4.4688428E-01
   7153.67  4.3228508E-01
   7154.00  4.1675421E-01
   7154.33  4.0045168E-01
   7154.67  3.8379379E-01
   7155.00  3.6710526E-01
   7155.33  3.5076688E-01
   7155.67  3.3504489E-01
   7156.00  3.2017858E-01
   7156.33  3.0654581E-01
   7156.67  2.9420044E-01
   7157.00  2.8326386E-01
   7157.33  2.7401696E-01
   7157.67  2.6631967E-01
   7158.00  2.6018359E-01
   7158.33  2.5578734E-01
   7158.67  2.5289760E-01
   7159.00  2.5146414E-01
   7159.33  2.5158455E-01
   7159.67  2.5299084E-01
   7160.00  2.5558040E-01
   7160.33  2.5933232E-01
   7160.67  2.6392796E-01
   7161.00  2.6917378E-01
   7161.33  2.7486935E-01
   7161.67  2.8070820E-01
   7162.00  2.8648667E-01
   7162.33  2.9197840E-01
   7162.67  2.9708069E-01
   7163.00  3.0172736E-01
   7163.33  3.0583100E-01
   7163.67  3.0946595E-01
   7164.00  3.1266697E-01
   7164.33  3.1544377E-01
   7164.67  3.1790845E-01
   7165.00  3.2011939E-01
   7165.33  3.2212363E-01
   7165.67  3.2401347E-01
   7166.00  3.2584538E-01
   7166.33  3.2767938E-01
   7166.67  3.2956675E-01
   7167.00  3.3154338E-01
   7167.33  3.3365468E-01
   7167.67  3.3590441E-01
   7168.00  3.3830017E-01
   7168.33  3.4086013E-01
   7168.67  3.4355793E-01
   7169.00  3.4638132E-01
   7169.33  3.4932466E-01
   7169.67  3.5235229E-01
   7170.00  3.5544332E-01
   7170.33  3.5857554E-01
   7170.67  3.6171112E-01
   7171.00  3.6480946E-01
   7171.33  3.6777634E-01
   7171.67  3.7047625E-01
   7172.00  3.7270694E-01
