    FDMNES
    energy     <xanes>
   7097.00  4.4431435E-03
   7097.33  4.5395138E-03
   7097.67  4.6399952E-03
   7098.00  4.7448637E-03
   7098.33  4.8550690E-03
   7098.67  4.9704166E-03
   7099.00  5.0912873E-03
   7099.33  5.2189297E-03
   7099.67  5.3531525E-03
   7100.00  5.4944969E-03
   7100.33  5.6446562E-03
   7100.67  5.8034686E-03
   7101.00  5.9717328E-03
   7101.33  6.1518312E-03
   7101.67  6.3436907E-03
   7102.00  6.5485424E-03
   7102.33  6.7698919E-03
   7102.67  7.0078882E-03
   7103.00  7.2645320E-03
   7103.33  7.5452740E-03
   7103.67  7.8507979E-03
   7104.00  8.1845741E-03
   7104.33  8.5556819E-03
   7104.67  8.9661230E-03
   7105.00  9.4224321E-03
   7105.33  9.9411268E-03
   7105.67  1.0527684E-02
   7106.00  1.1195792E-02
   7106.33  1.1979227E-02
   7106.67  1.2893711E-02
   7107.00  1.3972407E-02
   7107.33  1.5296512E-02
   7107.67  1.6917730E-02
   7108.00  1.8935059E-02
   7108.33  2.1596419E-02
   7108.67  2.5119205E-02
   7109.00  2.9911288E-02
   7109.33  3.7077229E-02
   7109.67  4.7996332E-02
   7110.00  6.5409564E-02
   7110.33  9.7270148E-02
   7110.67  1.5067177E-01
   7111.00  2.1765679E-01
   7111.33  2.4588676E-01
   7111.67  2.3115473E-01
   7112.00  2.0330844E-01
   7112.33  1.9416199E-01
   7112.67  1.9484209E-01
   7113.00  1.7917281E-01
   7113.33  1.4713933E-01
   7113.67  1.2270005E-01
   7114.00  1.1048720E-01
   7114.33  1.0450175E-01
   7114.67  9.3161397E-02
   7115.00  7.5000962E-02
   7115.33  6.0449275E-02
   7115.67  5.1519715E-02
   7116.00  4.6420213E-02
   7116.33  4.3851171E-02
   7116.67  4.2718276E-02
   7117.00  4.2642589E-02
   7117.33  4.3405526E-02
   7117.67  4.4609998E-02
   7118.00  4.6020664E-02
   7118.33  4.7570047E-02
   7118.67  4.9421125E-02
   7119.00  5.1814218E-02
   7119.33  5.5072220E-02
   7119.67  5.9264377E-02
   7120.00  6.4535899E-02
   7120.33  7.1259124E-02
   7120.67  7.9543898E-02
   7121.00  8.9691414E-02
   7121.33  1.0246442E-01
   7121.67  1.1821128E-01
   7122.00  1.3764130E-01
   7122.33  1.6234931E-01
   7122.67  1.9279609E-01
   7123.00  2.2956703E-01
   7123.33  2.7302757E-01
   7123.67  3.2010470E-01
   7124.00  3.6699188E-01
   7124.33  4.0782736E-01
   7124.67  4.4042996E-01
   7125.00  4.6598697E-01
   7125.33  4.8818105E-01
   7125.67  5.1086553E-01
   7126.00  5.3472849E-01
   7126.33  5.5786136E-01
   7126.67  5.7839109E-01
   7127.00  5.9630103E-01
   7127.33  6.1300481E-01
   7127.67  6.3062360E-01
   7128.00  6.4985514E-01
   7128.33  6.6918238E-01
   7128.67  6.8627905E-01
   7129.00  7.0064941E-01
   7129.33  7.1352365E-01
   7129.67  7.2738620E-01
   7130.00  7.4437415E-01
   7130.33  7.6733897E-01
   7130.67  7.9660494E-01
   7131.00  8.3134897E-01
   7131.33  8.6863793E-01
   7131.67  9.0309004E-01
   7132.00  9.2988577E-01
   7132.33  9.4315857E-01
   7132.67  9.4289152E-01
   7133.00  9.3027926E-01
   7133.33  9.0744423E-01
   7133.67  8.7943935E-01
   7134.00  8.4961315E-01
   7134.33  8.2184991E-01
   7134.67  7.9820437E-01
   7135.00  7.7849932E-01
   7135.33  7.6117137E-01
   7135.67  7.4446125E-01
   7136.00  7.2798929E-01
   7136.33  7.1200957E-01
   7136.67  6.9683643E-01
   7137.00  6.8270423E-01
   7137.33  6.6988330E-01
   7137.67  6.5821167E-01
   7138.00  6.4758470E-01
   7138.33  6.3791877E-01
   7138.67  6.2889414E-01
   7139.00  6.2035085E-01
   7139.33  6.1220923E-01
   7139.67  6.0438329E-01
   7140.00  5.9689898E-01
   7140.33  5.8988666E-01
   7140.67  5.8339410E-01
   7141.00  5.7750596E-01
   7141.33  5.7239081E-01
   7141.67  5.6802117E-01
   7142.00  5.6442367E-01
   7142.33  5.6169142E-01
   7142.67  5.5969119E-01
   7143.00  5.5838383E-01
   7143.33  5.5780745E-01
   7143.67  5.5781051E-01
   7144.00  5.5830829E-01
   7144.33  5.5923949E-01
   7144.67  5.6044565E-01
   7145.00  5.6183744E-01
   7145.33  5.6333230E-01
   7145.67  5.6483439E-01
   7146.00  5.6627553E-01
   7146.33  5.6756223E-01
   7146.67  5.6864402E-01
   7147.00  5.6947794E-01
   7147.33  5.7000015E-01
   7147.67  5.7022896E-01
   7148.00  5.7015142E-01
   7148.33  5.6970278E-01
   7148.67  5.6886475E-01
   7149.00  5.6754154E-01
   7149.33  5.6548877E-01
   7149.67  5.6258497E-01
   7150.00  5.5864943E-01
   7150.33  5.5334944E-01
   7150.67  5.4672193E-01
   7151.00  5.3874005E-01
   7151.33  5.2929810E-01
   7151.67  5.1869613E-01
   7152.00  5.0709816E-01
   7152.33  4.9462687E-01
   7152.67  4.8160322E-01
   7153.00  4.6820403E-01
   7153.33  4.5458443E-01
   7153.67  4.4091507E-01
   7154.00  4.2729796E-01
   7154.33  4.1384884E-01
   7154.67  4.0063221E-01
   7155.00  3.8771432E-01
   7155.33  3.7520497E-01
   7155.67  3.6311102E-01
   7156.00  3.5147407E-01
   7156.33  3.4040314E-01
   7156.67  3.2988016E-01
   7157.00  3.1994373E-01
   7157.33  3.1071623E-01
   7157.67  3.0215999E-01
   7158.00  2.9430859E-01
   7158.33  2.8729139E-01
   7158.67  2.8105011E-01
   7159.00  2.7561274E-01
   7159.33  2.7111408E-01
   7159.67  2.6747842E-01
   7160.00  2.6472725E-01
   7160.33  2.6299210E-01
   7160.67  2.6217190E-01
   7161.00  2.6227110E-01
   7161.33  2.6340090E-01
   7161.67  2.6543218E-01
   7162.00  2.6834140E-01
   7162.33  2.7218692E-01
   7162.67  2.7679313E-01
   7163.00  2.8208508E-01
   7163.33  2.8804337E-01
   7163.67  2.9448341E-01
   7164.00  3.0129072E-01
   7164.33  3.0835163E-01
   7164.67  3.1549535E-01
   7165.00  3.2261188E-01
   7165.33  3.2957332E-01
   7165.67  3.3630261E-01
   7166.00  3.4273433E-01
   7166.33  3.4876915E-01
   7166.67  3.5441864E-01
   7167.00  3.5967156E-01
   7167.33  3.6448177E-01
   7167.67  3.6891583E-01
   7168.00  3.7299778E-01
   7168.33  3.7672465E-01
   7168.67  3.8017901E-01
   7169.00  3.8340137E-01
   7169.33  3.8641782E-01
   7169.67  3.8929892E-01
   7170.00  3.9208160E-01
   7170.33  3.9479226E-01
   7170.67  3.9745797E-01
   7171.00  4.0007557E-01
   7171.33  4.0259088E-01
   7171.67  4.0489993E-01
   7172.00  4.0683154E-01
