    FDMNES
    energy     <xanes>
   7097.00  5.2099210E-03
   7097.33  5.3377090E-03
   7097.67  5.4714691E-03
   7098.00  5.6116119E-03
   7098.33  5.7595299E-03
   7098.67  5.9149483E-03
   7099.00  6.0784268E-03
   7099.33  6.2517901E-03
   7099.67  6.4347564E-03
   7100.00  6.6281085E-03
   7100.33  6.8342981E-03
   7100.67  7.0530633E-03
   7101.00  7.2855319E-03
   7101.33  7.5350968E-03
   7101.67  7.8015755E-03
   7102.00  8.0866511E-03
   7102.33  8.3951879E-03
   7102.67  8.7272142E-03
   7103.00  9.0853502E-03
   7103.33  9.4768768E-03
   7103.67  9.9023280E-03
   7104.00  1.0366000E-02
   7104.33  1.0879390E-02
   7104.67  1.1444235E-02
   7105.00  1.2068055E-02
   7105.33  1.2770283E-02
   7105.67  1.3555635E-02
   7106.00  1.4438436E-02
   7106.33  1.5454638E-02
   7106.67  1.6616955E-02
   7107.00  1.7956002E-02
   7107.33  1.9547141E-02
   7107.67  2.1427720E-02
   7108.00  2.3674911E-02
   7108.33  2.6478824E-02
   7108.67  2.9971158E-02
   7109.00  3.4403389E-02
   7109.33  4.0422564E-02
   7109.67  4.8677463E-02
   7110.00  6.0420243E-02
   7110.33  7.9176115E-02
   7110.67  1.0900885E-01
   7111.00  1.5427023E-01
   7111.33  2.1913563E-01
   7111.67  2.9477231E-01
   7112.00  3.5399387E-01
   7112.33  3.8217852E-01
   7112.67  3.9481421E-01
   7113.00  3.9419321E-01
   7113.33  4.0601458E-01
   7113.67  4.3982865E-01
   7114.00  4.6471570E-01
   7114.33  4.2990759E-01
   7114.67  3.7511015E-01
   7115.00  3.4172444E-01
   7115.33  3.3534439E-01
   7115.67  3.2826805E-01
   7116.00  3.0746452E-01
   7116.33  2.7954353E-01
   7116.67  2.5255074E-01
   7117.00  2.2846419E-01
   7117.33  2.0962774E-01
   7117.67  1.9414465E-01
   7118.00  1.8018151E-01
   7118.33  1.6797572E-01
   7118.67  1.5833692E-01
   7119.00  1.5125456E-01
   7119.33  1.4624473E-01
   7119.67  1.4250702E-01
   7120.00  1.3970920E-01
   7120.33  1.3763571E-01
   7120.67  1.3629944E-01
   7121.00  1.3602747E-01
   7121.33  1.3712554E-01
   7121.67  1.3942377E-01
   7122.00  1.4289309E-01
   7122.33  1.4753786E-01
   7122.67  1.5311791E-01
   7123.00  1.5967370E-01
   7123.33  1.6757196E-01
   7123.67  1.7701381E-01
   7124.00  1.8839033E-01
   7124.33  2.0265564E-01
   7124.67  2.2017034E-01
   7125.00  2.4121216E-01
   7125.33  2.6605824E-01
   7125.67  2.9388223E-01
   7126.00  3.2375620E-01
   7126.33  3.5249267E-01
   7126.67  3.7562158E-01
   7127.00  3.9067194E-01
   7127.33  3.9785388E-01
   7127.67  4.0205128E-01
   7128.00  4.0706064E-01
   7128.33  4.1668989E-01
   7128.67  4.3186577E-01
   7129.00  4.5235888E-01
   7129.33  4.7744386E-01
   7129.67  5.0521493E-01
   7130.00  5.3467134E-01
   7130.33  5.6518855E-01
   7130.67  5.9653019E-01
   7131.00  6.2912967E-01
   7131.33  6.6413751E-01
   7131.67  7.0202680E-01
   7132.00  7.4297736E-01
   7132.33  7.8686441E-01
   7132.67  8.3202409E-01
   7133.00  8.7625602E-01
   7133.33  9.1473707E-01
   7133.67  9.4266043E-01
   7134.00  9.5578241E-01
   7134.33  9.4974260E-01
   7134.67  9.2811747E-01
   7135.00  8.9427234E-01
   7135.33  8.5224553E-01
   7135.67  8.0759078E-01
   7136.00  7.6309617E-01
   7136.33  7.2061662E-01
   7136.67  6.8041340E-01
   7137.00  6.4253728E-01
   7137.33  6.0733698E-01
   7137.67  5.7473264E-01
   7138.00  5.4505165E-01
   7138.33  5.1917465E-01
   7138.67  4.9709860E-01
   7139.00  4.7905605E-01
   7139.33  4.6560173E-01
   7139.67  4.5604396E-01
   7140.00  4.5009521E-01
   7140.33  4.4773645E-01
   7140.67  4.4813534E-01
   7141.00  4.5094997E-01
   7141.33  4.5609492E-01
   7141.67  4.6301887E-01
   7142.00  4.7149767E-01
   7142.33  4.8144480E-01
   7142.67  4.9244405E-01
   7143.00  5.0426838E-01
   7143.33  5.1670847E-01
   7143.67  5.2940750E-01
   7144.00  5.4211589E-01
   7144.33  5.5451497E-01
   7144.67  5.6637159E-01
   7145.00  5.7747927E-01
   7145.33  5.8752164E-01
   7145.67  5.9648064E-01
   7146.00  6.0429797E-01
   7146.33  6.1083322E-01
   7146.67  6.1629819E-01
   7147.00  6.2080010E-01
   7147.33  6.2439212E-01
   7147.67  6.2731947E-01
   7148.00  6.2967830E-01
   7148.33  6.3148039E-01
   7148.67  6.3282179E-01
   7149.00  6.3370836E-01
   7149.33  6.3407921E-01
   7149.67  6.3400065E-01
   7150.00  6.3349851E-01
   7150.33  6.3257699E-01
   7150.67  6.3135486E-01
   7151.00  6.2990415E-01
   7151.33  6.2829262E-01
   7151.67  6.2661616E-01
   7152.00  6.2493038E-01
   7152.33  6.2328783E-01
   7152.67  6.2171229E-01
   7153.00  6.2021393E-01
   7153.33  6.1879854E-01
   7153.67  6.1744002E-01
   7154.00  6.1611651E-01
   7154.33  6.1479843E-01
   7154.67  6.1345406E-01
   7155.00  6.1205909E-01
   7155.33  6.1058111E-01
   7155.67  6.0901294E-01
   7156.00  6.0734627E-01
   7156.33  6.0556493E-01
   7156.67  6.0368383E-01
   7157.00  6.0170767E-01
   7157.33  5.9963186E-01
   7157.67  5.9747326E-01
   7158.00  5.9523474E-01
   7158.33  5.9290499E-01
   7158.67  5.9048656E-01
   7159.00  5.8796710E-01
   7159.33  5.8531037E-01
   7159.67  5.8250474E-01
   7160.00  5.7952439E-01
   7160.33  5.7631253E-01
   7160.67  5.7286222E-01
   7161.00  5.6914599E-01
   7161.33  5.6510024E-01
   7161.67  5.6074364E-01
   7162.00  5.5607043E-01
   7162.33  5.5104544E-01
   7162.67  5.4572444E-01
   7163.00  5.4013138E-01
   7163.33  5.3427198E-01
   7163.67  5.2821837E-01
   7164.00  5.2201078E-01
   7164.33  5.1568418E-01
   7164.67  5.0929801E-01
   7165.00  5.0288871E-01
   7165.33  4.9649598E-01
   7165.67  4.9014985E-01
   7166.00  4.8387316E-01
   7166.33  4.7769860E-01
   7166.67  4.7163021E-01
   7167.00  4.6567685E-01
   7167.33  4.5986037E-01
   7167.67  4.5417008E-01
   7168.00  4.4860918E-01
   7168.33  4.4319898E-01
   7168.67  4.3793062E-01
   7169.00  4.3281433E-01
   7169.33  4.2788530E-01
   7169.67  4.2314066E-01
   7170.00  4.1859823E-01
   7170.33  4.1431154E-01
   7170.67  4.1028439E-01
   7171.00  4.0655231E-01
   7171.33  4.0321874E-01
   7171.67  4.0033555E-01
   7172.00  3.9801788E-01
