    FDMNES
    energy     <xanes>
   7097.00  4.4041427E-03
   7097.33  4.4919058E-03
   7097.67  4.5830306E-03
   7098.00  4.6777211E-03
   7098.33  4.7767177E-03
   7098.67  4.8798329E-03
   7099.00  4.9873426E-03
   7099.33  5.1001983E-03
   7099.67  5.2182080E-03
   7100.00  5.3417567E-03
   7100.33  5.4721053E-03
   7100.67  5.6090735E-03
   7101.00  5.7532202E-03
   7101.33  5.9062794E-03
   7101.67  6.0681215E-03
   7102.00  6.2395962E-03
   7102.33  6.4232015E-03
   7102.67  6.6189478E-03
   7103.00  6.8282022E-03
   7103.33  7.0547807E-03
   7103.67  7.2990463E-03
   7104.00  7.5633595E-03
   7104.33  7.8539985E-03
   7104.67  8.1722225E-03
   7105.00  8.5224834E-03
   7105.33  8.9161487E-03
   7105.67  9.3568953E-03
   7106.00  9.8541361E-03
   7106.33  1.0431225E-02
   7106.67  1.1099126E-02
   7107.00  1.1881038E-02
   7107.33  1.2833969E-02
   7107.67  1.3995055E-02
   7108.00  1.5435260E-02
   7108.33  1.7333018E-02
   7108.67  1.9848605E-02
   7109.00  2.3282612E-02
   7109.33  2.8452884E-02
   7109.67  3.6397771E-02
   7110.00  4.9188731E-02
   7110.33  7.2959749E-02
   7110.67  1.1416657E-01
   7111.00  1.6902127E-01
   7111.33  1.8375046E-01
   7111.67  1.5098408E-01
   7112.00  1.1368647E-01
   7112.33  8.8688626E-02
   7112.67  7.1812144E-02
   7113.00  6.0672184E-02
   7113.33  5.4375865E-02
   7113.67  5.0672785E-02
   7114.00  4.7307351E-02
   7114.33  4.3266812E-02
   7114.67  4.0028144E-02
   7115.00  3.8202138E-02
   7115.33  3.7833327E-02
   7115.67  3.8567774E-02
   7116.00  4.0391708E-02
   7116.33  4.3620902E-02
   7116.67  4.8342078E-02
   7117.00  5.4516243E-02
   7117.33  6.1143137E-02
   7117.67  6.6520847E-02
   7118.00  7.0866478E-02
   7118.33  7.6270693E-02
   7118.67  8.3139333E-02
   7119.00  8.9959436E-02
   7119.33  9.4741250E-02
   7119.67  9.9470434E-02
   7120.00  1.0694932E-01
   7120.33  1.1928250E-01
   7120.67  1.3636975E-01
   7121.00  1.5859403E-01
   7121.33  1.8740478E-01
   7121.67  2.2296837E-01
   7122.00  2.6620930E-01
   7122.33  3.2033314E-01
   7122.67  3.8685777E-01
   7123.00  4.6478580E-01
   7123.33  5.4157721E-01
   7123.67  5.9534725E-01
   7124.00  6.1735425E-01
   7124.33  6.1925639E-01
   7124.67  6.2091070E-01
   7125.00  6.2690830E-01
   7125.33  6.3473064E-01
   7125.67  6.4126153E-01
   7126.00  6.4644215E-01
   7126.33  6.5184602E-01
   7126.67  6.5872682E-01
   7127.00  6.6776234E-01
   7127.33  6.8069191E-01
   7127.67  6.9891023E-01
   7128.00  7.2298369E-01
   7128.33  7.5017255E-01
   7128.67  7.7257711E-01
   7129.00  7.8426611E-01
   7129.33  7.8370505E-01
   7129.67  7.7692633E-01
   7130.00  7.6733587E-01
   7130.33  7.5714082E-01
   7130.67  7.4821550E-01
   7131.00  7.4151227E-01
   7131.33  7.3559306E-01
   7131.67  7.2719782E-01
   7132.00  7.1512666E-01
   7132.33  6.9980699E-01
   7132.67  6.8302919E-01
   7133.00  6.6586512E-01
   7133.33  6.4976797E-01
   7133.67  6.3619570E-01
   7134.00  6.2604672E-01
   7134.33  6.1962879E-01
   7134.67  6.1596121E-01
   7135.00  6.1458142E-01
   7135.33  6.1501288E-01
   7135.67  6.1645012E-01
   7136.00  6.1862604E-01
   7136.33  6.2153068E-01
   7136.67  6.2506234E-01
   7137.00  6.2917251E-01
   7137.33  6.3378150E-01
   7137.67  6.3860294E-01
   7138.00  6.4336740E-01
   7138.33  6.4765012E-01
   7138.67  6.5111022E-01
   7139.00  6.5342117E-01
   7139.33  6.5407274E-01
   7139.67  6.5302200E-01
   7140.00  6.5017214E-01
   7140.33  6.4530159E-01
   7140.67  6.3874430E-01
   7141.00  6.3065525E-01
   7141.33  6.2108642E-01
   7141.67  6.1043169E-01
   7142.00  5.9889015E-01
   7142.33  5.8660133E-01
   7142.67  5.7385553E-01
   7143.00  5.6081887E-01
   7143.33  5.4765819E-01
   7143.67  5.3455439E-01
   7144.00  5.2163979E-01
   7144.33  5.0909646E-01
   7144.67  4.9700081E-01
   7145.00  4.8542060E-01
   7145.33  4.7447512E-01
   7145.67  4.6413003E-01
   7146.00  4.5440964E-01
   7146.33  4.4541280E-01
   7146.67  4.3706720E-01
   7147.00  4.2937276E-01
   7147.33  4.2240215E-01
   7147.67  4.1606067E-01
   7148.00  4.1033229E-01
   7148.33  4.0526777E-01
   7148.67  4.0076666E-01
   7149.00  3.9680410E-01
   7149.33  3.9341196E-01
   7149.67  3.9049317E-01
   7150.00  3.8801788E-01
   7150.33  3.8600130E-01
   7150.67  3.8435504E-01
   7151.00  3.8304608E-01
   7151.33  3.8207371E-01
   7151.67  3.8136174E-01
   7152.00  3.8087521E-01
   7152.33  3.8059937E-01
   7152.67  3.8047805E-01
   7153.00  3.8048794E-01
   7153.33  3.8062224E-01
   7153.67  3.8085376E-01
   7154.00  3.8117408E-01
   7154.33  3.8158248E-01
   7154.67  3.8206704E-01
   7155.00  3.8263222E-01
   7155.33  3.8329455E-01
   7155.67  3.8404947E-01
   7156.00  3.8490427E-01
   7156.33  3.8588464E-01
   7156.67  3.8698679E-01
   7157.00  3.8821550E-01
   7157.33  3.8958831E-01
   7157.67  3.9108654E-01
   7158.00  3.9270346E-01
   7158.33  3.9443823E-01
   7158.67  3.9625737E-01
   7159.00  3.9813940E-01
   7159.33  4.0006028E-01
   7159.67  4.0198402E-01
   7160.00  4.0388042E-01
   7160.33  4.0570546E-01
   7160.67  4.0743366E-01
   7161.00  4.0904040E-01
   7161.33  4.1048586E-01
   7161.67  4.1177486E-01
   7162.00  4.1290352E-01
   7162.33  4.1385693E-01
   7162.67  4.1466975E-01
   7163.00  4.1536274E-01
   7163.33  4.1595172E-01
   7163.67  4.1647811E-01
   7164.00  4.1697490E-01
   7164.33  4.1748593E-01
   7164.67  4.1805098E-01
   7165.00  4.1870352E-01
   7165.33  4.1949502E-01
   7165.67  4.2044250E-01
   7166.00  4.2157142E-01
   7166.33  4.2293543E-01
   7166.67  4.2453346E-01
   7167.00  4.2638428E-01
   7167.33  4.2853942E-01
   7167.67  4.3097680E-01
   7168.00  4.3370093E-01
   7168.33  4.3674531E-01
   7168.67  4.4006314E-01
   7169.00  4.4363731E-01
   7169.33  4.4746833E-01
   7169.67  4.5149026E-01
   7170.00  4.5566422E-01
   7170.33  4.5995287E-01
   7170.67  4.6427601E-01
   7171.00  4.6855299E-01
   7171.33  4.7262592E-01
   7171.67  4.7630094E-01
   7172.00  4.7931335E-01
