    FDMNES
    energy     <xanes>
   7097.00  5.1621668E-03
   7097.33  5.2898917E-03
   7097.67  5.4235890E-03
   7098.00  5.5636725E-03
   7098.33  5.7115416E-03
   7098.67  5.8669278E-03
   7099.00  6.0303994E-03
   7099.33  6.2037992E-03
   7099.67  6.3868584E-03
   7100.00  6.5803793E-03
   7100.33  6.7868561E-03
   7100.67  7.0060529E-03
   7101.00  7.2391400E-03
   7101.33  7.4896059E-03
   7101.67  7.7573209E-03
   7102.00  8.0440607E-03
   7102.33  8.3549002E-03
   7102.67  8.6899807E-03
   7103.00  9.0521264E-03
   7103.33  9.4490873E-03
   7103.67  9.8816531E-03
   7104.00  1.0354587E-02
   7104.33  1.0880464E-02
   7104.67  1.1461644E-02
   7105.00  1.2106775E-02
   7105.33  1.2837923E-02
   7105.67  1.3661463E-02
   7106.00  1.4594692E-02
   7106.33  1.5680587E-02
   7106.67  1.6936881E-02
   7107.00  1.8403077E-02
   7107.33  2.0176053E-02
   7107.67  2.2311289E-02
   7108.00  2.4918198E-02
   7108.33  2.8268746E-02
   7108.67  3.2580460E-02
   7109.00  3.8263810E-02
   7109.33  4.6409593E-02
   7109.67  5.8283874E-02
   7110.00  7.6381422E-02
   7110.33  1.0789774E-01
   7110.67  1.5997236E-01
   7111.00  2.3027902E-01
   7111.33  2.8084065E-01
   7111.67  3.0393851E-01
   7112.00  3.3179631E-01
   7112.33  3.8402953E-01
   7112.67  4.3455669E-01
   7113.00  4.4513308E-01
   7113.33  3.9704639E-01
   7113.67  3.2746657E-01
   7114.00  2.6051005E-01
   7114.33  2.1126045E-01
   7114.67  1.7843399E-01
   7115.00  1.5815308E-01
   7115.33  1.4579158E-01
   7115.67  1.3607138E-01
   7116.00  1.2746773E-01
   7116.33  1.2059922E-01
   7116.67  1.1608529E-01
   7117.00  1.1422586E-01
   7117.33  1.1542026E-01
   7117.67  1.1925990E-01
   7118.00  1.2544393E-01
   7118.33  1.3310152E-01
   7118.67  1.4136788E-01
   7119.00  1.5114620E-01
   7119.33  1.6318454E-01
   7119.67  1.7584858E-01
   7120.00  1.8867976E-01
   7120.33  2.0406304E-01
   7120.67  2.2394399E-01
   7121.00  2.4859446E-01
   7121.33  2.7779784E-01
   7121.67  3.1091831E-01
   7122.00  3.4869584E-01
   7122.33  3.9219715E-01
   7122.67  4.3743686E-01
   7123.00  4.7650174E-01
   7123.33  4.9792553E-01
   7123.67  5.0370364E-01
   7124.00  5.0109757E-01
   7124.33  4.9861292E-01
   7124.67  5.0070909E-01
   7125.00  5.0855144E-01
   7125.33  5.2272695E-01
   7125.67  5.4162213E-01
   7126.00  5.6357420E-01
   7126.33  5.8537476E-01
   7126.67  6.0409387E-01
   7127.00  6.1876690E-01
   7127.33  6.2896466E-01
   7127.67  6.3516432E-01
   7128.00  6.3738005E-01
   7128.33  6.3670130E-01
   7128.67  6.3599588E-01
   7129.00  6.3716650E-01
   7129.33  6.4167847E-01
   7129.67  6.4892640E-01
   7130.00  6.5782764E-01
   7130.33  6.6684417E-01
   7130.67  6.7498839E-01
   7131.00  6.8201972E-01
   7131.33  6.8751231E-01
   7131.67  6.9093666E-01
   7132.00  6.9170026E-01
   7132.33  6.8972910E-01
   7132.67  6.8680840E-01
   7133.00  6.8457413E-01
   7133.33  6.8431477E-01
   7133.67  6.8522419E-01
   7134.00  6.8566946E-01
   7134.33  6.8330545E-01
   7134.67  6.7773043E-01
   7135.00  6.6970274E-01
   7135.33  6.6055922E-01
   7135.67  6.5135884E-01
   7136.00  6.4224047E-01
   7136.33  6.3298567E-01
   7136.67  6.2350963E-01
   7137.00  6.1396754E-01
   7137.33  6.0471324E-01
   7137.67  5.9604251E-01
   7138.00  5.8822803E-01
   7138.33  5.8162335E-01
   7138.67  5.7616753E-01
   7139.00  5.7181623E-01
   7139.33  5.6853473E-01
   7139.67  5.6598495E-01
   7140.00  5.6397585E-01
   7140.33  5.6238412E-01
   7140.67  5.6106867E-01
   7141.00  5.5997035E-01
   7141.33  5.5893813E-01
   7141.67  5.5756681E-01
   7142.00  5.5525951E-01
   7142.33  5.5088997E-01
   7142.67  5.4390045E-01
   7143.00  5.3403015E-01
   7143.33  5.2134696E-01
   7143.67  5.0711596E-01
   7144.00  4.9232115E-01
   7144.33  4.7803439E-01
   7144.67  4.6489708E-01
   7145.00  4.5323617E-01
   7145.33  4.4338902E-01
   7145.67  4.3512443E-01
   7146.00  4.2834827E-01
   7146.33  4.2308318E-01
   7146.67  4.1900279E-01
   7147.00  4.1596926E-01
   7147.33  4.1393062E-01
   7147.67  4.1261024E-01
   7148.00  4.1186508E-01
   7148.33  4.1159205E-01
   7148.67  4.1160186E-01
   7149.00  4.1179657E-01
   7149.33  4.1210282E-01
   7149.67  4.1244759E-01
   7150.00  4.1279564E-01
   7150.33  4.1311991E-01
   7150.67  4.1341160E-01
   7151.00  4.1367196E-01
   7151.33  4.1391556E-01
   7151.67  4.1417580E-01
   7152.00  4.1448939E-01
   7152.33  4.1491748E-01
   7152.67  4.1549314E-01
   7153.00  4.1624552E-01
   7153.33  4.1720930E-01
   7153.67  4.1833537E-01
   7154.00  4.1956436E-01
   7154.33  4.2077979E-01
   7154.67  4.2182850E-01
   7155.00  4.2256215E-01
   7155.33  4.2275509E-01
   7155.67  4.2233615E-01
   7156.00  4.2123598E-01
   7156.33  4.1934387E-01
   7156.67  4.1678320E-01
   7157.00  4.1361966E-01
   7157.33  4.0989044E-01
   7157.67  4.0576702E-01
   7158.00  4.0133889E-01
   7158.33  3.9667198E-01
   7158.67  3.9187155E-01
   7159.00  3.8699546E-01
   7159.33  3.8210251E-01
   7159.67  3.7725306E-01
   7160.00  3.7249708E-01
   7160.33  3.6791153E-01
   7160.67  3.6353506E-01
   7161.00  3.5941281E-01
   7161.33  3.5562582E-01
   7161.67  3.5217216E-01
   7162.00  3.4907529E-01
   7162.33  3.4640198E-01
   7162.67  3.4411800E-01
   7163.00  3.4222786E-01
   7163.33  3.4077591E-01
   7163.67  3.3970133E-01
   7164.00  3.3899493E-01
   7164.33  3.3869255E-01
   7164.67  3.3873955E-01
   7165.00  3.3912701E-01
   7165.33  3.3988500E-01
   7165.67  3.4096026E-01
   7166.00  3.4234191E-01
   7166.33  3.4405295E-01
   7166.67  3.4604105E-01
   7167.00  3.4829032E-01
   7167.33  3.5080970E-01
   7167.67  3.5354545E-01
   7168.00  3.5647526E-01
   7168.33  3.5959228E-01
   7168.67  3.6284666E-01
   7169.00  3.6621292E-01
   7169.33  3.6967193E-01
   7169.67  3.7318424E-01
   7170.00  3.7672452E-01
   7170.33  3.8026082E-01
   7170.67  3.8375518E-01
   7171.00  3.8716204E-01
   7171.33  3.9037477E-01
   7171.67  3.9326238E-01
   7172.00  3.9562560E-01
