    FDMNES
    energy     <xanes>
   7097.00  5.0690325E-03
   7097.33  5.1847160E-03
   7097.67  5.3055573E-03
   7098.00  5.4319020E-03
   7098.33  5.5649380E-03
   7098.67  5.7044165E-03
   7099.00  5.8508070E-03
   7099.33  6.0056581E-03
   7099.67  6.1687133E-03
   7100.00  6.3406270E-03
   7100.33  6.5234698E-03
   7100.67  6.7169991E-03
   7101.00  6.9221549E-03
   7101.33  7.1417893E-03
   7101.67  7.3757223E-03
   7102.00  7.6253530E-03
   7102.33  7.8947530E-03
   7102.67  8.1839125E-03
   7103.00  8.4950043E-03
   7103.33  8.8340991E-03
   7103.67  9.2016003E-03
   7104.00  9.6010642E-03
   7104.33  1.0042045E-02
   7104.67  1.0525933E-02
   7105.00  1.1058948E-02
   7105.33  1.1657200E-02
   7105.67  1.2324540E-02
   7106.00  1.3072813E-02
   7106.33  1.3931802E-02
   7106.67  1.4912009E-02
   7107.00  1.6038825E-02
   7107.33  1.7374848E-02
   7107.67  1.8951332E-02
   7108.00  2.0832900E-02
   7108.33  2.3179263E-02
   7108.67  2.6103372E-02
   7109.00  2.9821524E-02
   7109.33  3.4895879E-02
   7109.67  4.1912912E-02
   7110.00  5.2015471E-02
   7110.33  6.8428959E-02
   7110.67  9.4430882E-02
   7111.00  1.3108485E-01
   7111.33  1.7345667E-01
   7111.67  2.2005962E-01
   7112.00  2.6810574E-01
   7112.33  2.9900878E-01
   7112.67  3.1459173E-01
   7113.00  3.3848648E-01
   7113.33  3.8516178E-01
   7113.67  4.3144149E-01
   7114.00  4.5091495E-01
   7114.33  4.1450328E-01
   7114.67  3.5057490E-01
   7115.00  2.9043444E-01
   7115.33  2.4793570E-01
   7115.67  2.1821276E-01
   7116.00  1.9683466E-01
   7116.33  1.8037983E-01
   7116.67  1.6564450E-01
   7117.00  1.5170499E-01
   7117.33  1.3917475E-01
   7117.67  1.2814716E-01
   7118.00  1.1917516E-01
   7118.33  1.1334925E-01
   7118.67  1.1028226E-01
   7119.00  1.0961080E-01
   7119.33  1.1102138E-01
   7119.67  1.1345879E-01
   7120.00  1.1602475E-01
   7120.33  1.1789617E-01
   7120.67  1.1911572E-01
   7121.00  1.2007917E-01
   7121.33  1.2144760E-01
   7121.67  1.2380004E-01
   7122.00  1.2761842E-01
   7122.33  1.3354445E-01
   7122.67  1.4154547E-01
   7123.00  1.5170495E-01
   7123.33  1.6447865E-01
   7123.67  1.7996530E-01
   7124.00  1.9871470E-01
   7124.33  2.2201067E-01
   7124.67  2.4994759E-01
   7125.00  2.8243730E-01
   7125.33  3.1838059E-01
   7125.67  3.5422649E-01
   7126.00  3.8641415E-01
   7126.33  4.1039645E-01
   7126.67  4.2669450E-01
   7127.00  4.3841614E-01
   7127.33  4.4986993E-01
   7127.67  4.6285742E-01
   7128.00  4.7678312E-01
   7128.33  4.8987704E-01
   7128.67  5.0106626E-01
   7129.00  5.1061665E-01
   7129.33  5.2007633E-01
   7129.67  5.3113326E-01
   7130.00  5.4441756E-01
   7130.33  5.5964463E-01
   7130.67  5.7539277E-01
   7131.00  5.9074682E-01
   7131.33  6.0516838E-01
   7131.67  6.1910188E-01
   7132.00  6.3340602E-01
   7132.33  6.4988246E-01
   7132.67  6.7015570E-01
   7133.00  6.9552479E-01
   7133.33  7.2701344E-01
   7133.67  7.6308518E-01
   7134.00  8.0308327E-01
   7134.33  8.4785321E-01
   7134.67  8.9739962E-01
   7135.00  9.5045410E-01
   7135.33  1.0009770E+00
   7135.67  1.0389715E+00
   7136.00  1.0553658E+00
   7136.33  1.0424786E+00
   7136.67  1.0082709E+00
   7137.00  9.6110419E-01
   7137.33  9.0982056E-01
   7137.67  8.6092337E-01
   7138.00  8.1698408E-01
   7138.33  7.7977242E-01
   7138.67  7.4844462E-01
   7139.00  7.2253417E-01
   7139.33  7.0193581E-01
   7139.67  6.8531797E-01
   7140.00  6.7205660E-01
   7140.33  6.6182251E-01
   7140.67  6.5369464E-01
   7141.00  6.4722754E-01
   7141.33  6.4208431E-01
   7141.67  6.3762127E-01
   7142.00  6.3335265E-01
   7142.33  6.2854113E-01
   7142.67  6.2249674E-01
   7143.00  6.1465309E-01
   7143.33  6.0441768E-01
   7143.67  5.9224364E-01
   7144.00  5.7864568E-01
   7144.33  5.6429856E-01
   7144.67  5.4995975E-01
   7145.00  5.3604030E-01
   7145.33  5.2291538E-01
   7145.67  5.1063859E-01
   7146.00  4.9926753E-01
   7146.33  4.8894958E-01
   7146.67  4.7956180E-01
   7147.00  4.7107384E-01
   7147.33  4.6356025E-01
   7147.67  4.5689439E-01
   7148.00  4.5106958E-01
   7148.33  4.4618716E-01
   7148.67  4.4213997E-01
   7149.00  4.3892423E-01
   7149.33  4.3663357E-01
   7149.67  4.3514662E-01
   7150.00  4.3443149E-01
   7150.33  4.3450946E-01
   7150.67  4.3520558E-01
   7151.00  4.3643704E-01
   7151.33  4.3814552E-01
   7151.67  4.4015501E-01
   7152.00  4.4235877E-01
   7152.33  4.4465092E-01
   7152.67  4.4692379E-01
   7153.00  4.4911198E-01
   7153.33  4.5114703E-01
   7153.67  4.5301877E-01
   7154.00  4.5471786E-01
   7154.33  4.5622451E-01
   7154.67  4.5756996E-01
   7155.00  4.5876756E-01
   7155.33  4.5982135E-01
   7155.67  4.6076975E-01
   7156.00  4.6163213E-01
   7156.33  4.6242253E-01
   7156.67  4.6317047E-01
   7157.00  4.6389416E-01
   7157.33  4.6461439E-01
   7157.67  4.6535254E-01
   7158.00  4.6612632E-01
   7158.33  4.6696299E-01
   7158.67  4.6787507E-01
   7159.00  4.6887831E-01
   7159.33  4.7000283E-01
   7159.67  4.7124901E-01
   7160.00  4.7262589E-01
   7160.33  4.7415761E-01
   7160.67  4.7583017E-01
   7161.00  4.7764329E-01
   7161.33  4.7960861E-01
   7161.67  4.8169953E-01
   7162.00  4.8390548E-01
   7162.33  4.8622495E-01
   7162.67  4.8862526E-01
   7163.00  4.9108155E-01
   7163.33  4.9356938E-01
   7163.67  4.9606139E-01
   7164.00  4.9853777E-01
   7164.33  5.0097194E-01
   7164.67  5.0334767E-01
   7165.00  5.0564750E-01
   7165.33  5.0784077E-01
   7165.67  5.0992262E-01
   7166.00  5.1187977E-01
   7166.33  5.1367940E-01
   7166.67  5.1532369E-01
   7167.00  5.1679973E-01
   7167.33  5.1807207E-01
   7167.67  5.1915419E-01
   7168.00  5.2003533E-01
   7168.33  5.2067103E-01
   7168.67  5.2107327E-01
   7169.00  5.2123642E-01
   7169.33  5.2112970E-01
   7169.67  5.2078695E-01
   7170.00  5.2021663E-01
   7170.33  5.1941020E-01
   7170.67  5.1842258E-01
   7171.00  5.1729060E-01
   7171.33  5.1607134E-01
   7171.67  5.1488737E-01
   7172.00  5.1388199E-01
