    FDMNES
    energy     <xanes>
   7097.00  5.3828324E-03
   7097.33  5.5210284E-03
   7097.67  5.6660074E-03
   7098.00  5.8182576E-03
   7098.33  5.9793980E-03
   7098.67  6.1491474E-03
   7099.00  6.3281797E-03
   7099.33  6.5186438E-03
   7099.67  6.7202621E-03
   7100.00  6.9339902E-03
   7100.33  7.1627572E-03
   7100.67  7.4063287E-03
   7101.00  7.6661029E-03
   7101.33  7.9461995E-03
   7101.67  8.2465138E-03
   7102.00  8.5691684E-03
   7102.33  8.9201785E-03
   7102.67  9.2997589E-03
   7103.00  9.7112777E-03
   7103.33  1.0163926E-02
   7103.67  1.0658667E-02
   7104.00  1.1201141E-02
   7104.33  1.1806206E-02
   7104.67  1.2476595E-02
   7105.00  1.3222420E-02
   7105.33  1.4069475E-02
   7105.67  1.5024894E-02
   7106.00  1.6108477E-02
   7106.33  1.7369411E-02
   7106.67  1.8826829E-02
   7107.00  2.0524368E-02
   7107.33  2.2568822E-02
   7107.67  2.5017040E-02
   7108.00  2.7983039E-02
   7108.33  3.1747603E-02
   7108.67  3.6516337E-02
   7109.00  4.2677498E-02
   7109.33  5.1237158E-02
   7109.67  6.3251273E-02
   7110.00  8.0762085E-02
   7110.33  1.0952693E-01
   7110.67  1.5568360E-01
   7111.00  2.2293068E-01
   7111.33  3.0926950E-01
   7111.67  4.1498750E-01
   7112.00  5.2670595E-01
   7112.33  5.9440432E-01
   7112.67  5.9994431E-01
   7113.00  5.5371984E-01
   7113.33  4.8030878E-01
   7113.67  4.0800561E-01
   7114.00  3.4587897E-01
   7114.33  2.9882904E-01
   7114.67  2.6442990E-01
   7115.00  2.4057673E-01
   7115.33  2.2599744E-01
   7115.67  2.1756560E-01
   7116.00  2.1306840E-01
   7116.33  2.0881028E-01
   7116.67  2.0122507E-01
   7117.00  1.8964968E-01
   7117.33  1.7583167E-01
   7117.67  1.6253318E-01
   7118.00  1.5109355E-01
   7118.33  1.4226173E-01
   7118.67  1.3542527E-01
   7119.00  1.3010688E-01
   7119.33  1.2604914E-01
   7119.67  1.2302770E-01
   7120.00  1.2118848E-01
   7120.33  1.2098595E-01
   7120.67  1.2228646E-01
   7121.00  1.2476507E-01
   7121.33  1.2791238E-01
   7121.67  1.3118137E-01
   7122.00  1.3439135E-01
   7122.33  1.3767403E-01
   7122.67  1.4139921E-01
   7123.00  1.4589986E-01
   7123.33  1.5158321E-01
   7123.67  1.5850448E-01
   7124.00  1.6679163E-01
   7124.33  1.7673895E-01
   7124.67  1.8818663E-01
   7125.00  2.0106722E-01
   7125.33  2.1540841E-01
   7125.67  2.3098101E-01
   7126.00  2.4788743E-01
   7126.33  2.6658453E-01
   7126.67  2.8713594E-01
   7127.00  3.0970153E-01
   7127.33  3.3459948E-01
   7127.67  3.6142668E-01
   7128.00  3.8995703E-01
   7128.33  4.2024454E-01
   7128.67  4.5242799E-01
   7129.00  4.8739180E-01
   7129.33  5.2722440E-01
   7129.67  5.7293105E-01
   7130.00  6.2536496E-01
   7130.33  6.8537910E-01
   7130.67  7.5078354E-01
   7131.00  8.1926905E-01
   7131.33  8.8708357E-01
   7131.67  9.5051754E-01
   7132.00  1.0071986E+00
   7132.33  1.0549386E+00
   7132.67  1.0941445E+00
   7133.00  1.1227897E+00
   7133.33  1.1329574E+00
   7133.67  1.1196425E+00
   7134.00  1.0808049E+00
   7134.33  1.0194782E+00
   7134.67  9.4841604E-01
   7135.00  8.7555116E-01
   7135.33  8.0709071E-01
   7135.67  7.4496640E-01
   7136.00  6.8969249E-01
   7136.33  6.4190777E-01
   7136.67  6.0032363E-01
   7137.00  5.6455521E-01
   7137.33  5.3490684E-01
   7137.67  5.1038578E-01
   7138.00  4.9074055E-01
   7138.33  4.7622624E-01
   7138.67  4.6591403E-01
   7139.00  4.5946054E-01
   7139.33  4.5686390E-01
   7139.67  4.5725349E-01
   7140.00  4.6025739E-01
   7140.33  4.6574153E-01
   7140.67  4.7305773E-01
   7141.00  4.8192468E-01
   7141.33  4.9222248E-01
   7141.67  5.0353996E-01
   7142.00  5.1566332E-01
   7142.33  5.2839859E-01
   7142.67  5.4137946E-01
   7143.00  5.5430628E-01
   7143.33  5.6671798E-01
   7143.67  5.7822417E-01
   7144.00  5.8843382E-01
   7144.33  5.9672140E-01
   7144.67  6.0299455E-01
   7145.00  6.0711453E-01
   7145.33  6.0881884E-01
   7145.67  6.0855320E-01
   7146.00  6.0657900E-01
   7146.33  6.0311457E-01
   7146.67  5.9874229E-01
   7147.00  5.9380961E-01
   7147.33  5.8865287E-01
   7147.67  5.8359253E-01
   7148.00  5.7882825E-01
   7148.33  5.7459431E-01
   7148.67  5.7093045E-01
   7149.00  5.6786687E-01
   7149.33  5.6548203E-01
   7149.67  5.6368364E-01
   7150.00  5.6244545E-01
   7150.33  5.6179206E-01
   7150.67  5.6161245E-01
   7151.00  5.6186604E-01
   7151.33  5.6255597E-01
   7151.67  5.6359324E-01
   7152.00  5.6494841E-01
   7152.33  5.6662977E-01
   7152.67  5.6857875E-01
   7153.00  5.7077833E-01
   7153.33  5.7323568E-01
   7153.67  5.7589449E-01
   7154.00  5.7872231E-01
   7154.33  5.8168203E-01
   7154.67  5.8469036E-01
   7155.00  5.8767540E-01
   7155.33  5.9052615E-01
   7155.67  5.9315350E-01
   7156.00  5.9546739E-01
   7156.33  5.9731786E-01
   7156.67  5.9867054E-01
   7157.00  5.9946465E-01
   7157.33  5.9956977E-01
   7157.67  5.9902869E-01
   7158.00  5.9782873E-01
   7158.33  5.9588995E-01
   7158.67  5.9331282E-01
   7159.00  5.9012510E-01
   7159.33  5.8630072E-01
   7159.67  5.8196659E-01
   7160.00  5.7717783E-01
   7160.33  5.7195513E-01
   7160.67  5.6641782E-01
   7161.00  5.6062388E-01
   7161.33  5.5460562E-01
   7161.67  5.4844067E-01
   7162.00  5.4217015E-01
   7162.33  5.3582200E-01
   7162.67  5.2942940E-01
   7163.00  5.2300546E-01
   7163.33  5.1655468E-01
   7163.67  5.1008170E-01
   7164.00  5.0358489E-01
   7164.33  4.9705620E-01
   7164.67  4.9049448E-01
   7165.00  4.8389763E-01
   7165.33  4.7726293E-01
   7165.67  4.7060139E-01
   7166.00  4.6392360E-01
   7166.33  4.5724826E-01
   7166.67  4.5059966E-01
   7167.00  4.4400260E-01
   7167.33  4.3750134E-01
   7167.67  4.3112668E-01
   7168.00  4.2491876E-01
   7168.33  4.1894694E-01
   7168.67  4.1322635E-01
   7169.00  4.0779227E-01
   7169.33  4.0272283E-01
   7169.67  3.9801041E-01
   7170.00  3.9368002E-01
   7170.33  3.8980685E-01
   7170.67  3.8635854E-01
   7171.00  3.8334590E-01
   7171.33  3.8083283E-01
   7171.67  3.7877153E-01
   7172.00  3.7716541E-01
