    FDMNES
    energy     <xanes>
   7097.00  4.1882036E-03
   7097.33  4.2769021E-03
   7097.67  4.3693053E-03
   7098.00  4.4656587E-03
   7098.33  4.5668126E-03
   7098.67  4.6725877E-03
   7099.00  4.7833216E-03
   7099.33  4.9001294E-03
   7099.67  5.0228333E-03
   7100.00  5.1519126E-03
   7100.33  5.2888748E-03
   7100.67  5.4335668E-03
   7101.00  5.5866942E-03
   7101.33  5.7503716E-03
   7101.67  5.9245221E-03
   7102.00  6.1102308E-03
   7102.33  6.3105998E-03
   7102.67  6.5257440E-03
   7103.00  6.7574229E-03
   7103.33  7.0104441E-03
   7103.67  7.2853864E-03
   7104.00  7.5852934E-03
   7104.33  7.9181460E-03
   7104.67  8.2856657E-03
   7105.00  8.6935652E-03
   7105.33  9.1563082E-03
   7105.67  9.6786197E-03
   7106.00  1.0272418E-02
   7106.33  1.0967131E-02
   7106.67  1.1776294E-02
   7107.00  1.2728595E-02
   7107.33  1.3894263E-02
   7107.67  1.5317464E-02
   7108.00  1.7082938E-02
   7108.33  1.9402435E-02
   7108.67  2.2458860E-02
   7109.00  2.6594837E-02
   7109.33  3.2732894E-02
   7109.67  4.2004523E-02
   7110.00  5.6648148E-02
   7110.33  8.3146796E-02
   7110.67  1.2763795E-01
   7111.00  1.8664391E-01
   7111.33  2.2740868E-01
   7111.67  2.3162157E-01
   7112.00  2.0867127E-01
   7112.33  1.7987851E-01
   7112.67  1.5199761E-01
   7113.00  1.2535181E-01
   7113.33  1.0365465E-01
   7113.67  8.8366955E-02
   7114.00  7.8627817E-02
   7114.33  7.2471622E-02
   7114.67  6.7686884E-02
   7115.00  6.3577114E-02
   7115.33  6.0379988E-02
   7115.67  5.8266553E-02
   7116.00  5.7227026E-02
   7116.33  5.7275776E-02
   7116.67  5.8187610E-02
   7117.00  5.9863311E-02
   7117.33  6.2199541E-02
   7117.67  6.4873701E-02
   7118.00  6.7692708E-02
   7118.33  7.0600418E-02
   7118.67  7.3698711E-02
   7119.00  7.7147657E-02
   7119.33  8.1194991E-02
   7119.67  8.5923137E-02
   7120.00  9.1448241E-02
   7120.33  9.8031988E-02
   7120.67  1.0569232E-01
   7121.00  1.1451761E-01
   7121.33  1.2480987E-01
   7121.67  1.3673422E-01
   7122.00  1.5072419E-01
   7122.33  1.6755958E-01
   7122.67  1.8716519E-01
   7123.00  2.0955148E-01
   7123.33  2.3485725E-01
   7123.67  2.6236181E-01
   7124.00  2.9160167E-01
   7124.33  3.2236327E-01
   7124.67  3.5456766E-01
   7125.00  3.8785302E-01
   7125.33  4.1727485E-01
   7125.67  4.3512692E-01
   7126.00  4.4092913E-01
   7126.33  4.4306390E-01
   7126.67  4.4789544E-01
   7127.00  4.5550510E-01
   7127.33  4.6460089E-01
   7127.67  4.7473387E-01
   7128.00  4.8670283E-01
   7128.33  5.0176583E-01
   7128.67  5.1981850E-01
   7129.00  5.4089038E-01
   7129.33  5.6556969E-01
   7129.67  5.9305136E-01
   7130.00  6.2187571E-01
   7130.33  6.4918373E-01
   7130.67  6.7254057E-01
   7131.00  6.9070408E-01
   7131.33  7.0333371E-01
   7131.67  7.1292705E-01
   7132.00  7.2164101E-01
   7132.33  7.3165317E-01
   7132.67  7.4353317E-01
   7133.00  7.5658135E-01
   7133.33  7.6884828E-01
   7133.67  7.7904631E-01
   7134.00  7.8719933E-01
   7134.33  7.9326582E-01
   7134.67  7.9672335E-01
   7135.00  7.9665651E-01
   7135.33  7.9215254E-01
   7135.67  7.8411155E-01
   7136.00  7.7330014E-01
   7136.33  7.6065550E-01
   7136.67  7.4760675E-01
   7137.00  7.3511300E-01
   7137.33  7.2418414E-01
   7137.67  7.1509116E-01
   7138.00  7.0791282E-01
   7138.33  7.0268691E-01
   7138.67  6.9883816E-01
   7139.00  6.9599787E-01
   7139.33  6.9381510E-01
   7139.67  6.9186370E-01
   7140.00  6.8993715E-01
   7140.33  6.8791674E-01
   7140.67  6.8582837E-01
   7141.00  6.8374333E-01
   7141.33  6.8176317E-01
   7141.67  6.7992865E-01
   7142.00  6.7823782E-01
   7142.33  6.7665006E-01
   7142.67  6.7507175E-01
   7143.00  6.7342943E-01
   7143.33  6.7164375E-01
   7143.67  6.6971259E-01
   7144.00  6.6764202E-01
   7144.33  6.6542983E-01
   7144.67  6.6311189E-01
   7145.00  6.6070126E-01
   7145.33  6.5818164E-01
   7145.67  6.5552908E-01
   7146.00  6.5268220E-01
   7146.33  6.4949698E-01
   7146.67  6.4587771E-01
   7147.00  6.4170427E-01
   7147.33  6.3676932E-01
   7147.67  6.3108488E-01
   7148.00  6.2465072E-01
   7148.33  6.1745669E-01
   7148.67  6.0973298E-01
   7149.00  6.0164588E-01
   7149.33  5.9337947E-01
   7149.67  5.8513123E-01
   7150.00  5.7700650E-01
   7150.33  5.6908132E-01
   7150.67  5.6132710E-01
   7151.00  5.5370218E-01
   7151.33  5.4612983E-01
   7151.67  5.3849714E-01
   7152.00  5.3070441E-01
   7152.33  5.2260976E-01
   7152.67  5.1416541E-01
   7153.00  5.0533405E-01
   7153.33  4.9607253E-01
   7153.67  4.8648642E-01
   7154.00  4.7666156E-01
   7154.33  4.6671385E-01
   7154.67  4.5680397E-01
   7155.00  4.4705970E-01
   7155.33  4.3765383E-01
   7155.67  4.2865850E-01
   7156.00  4.2014253E-01
   7156.33  4.1221050E-01
   7156.67  4.0478759E-01
   7157.00  3.9783209E-01
   7157.33  3.9131779E-01
   7157.67  3.8510763E-01
   7158.00  3.7912865E-01
   7158.33  3.7333047E-01
   7158.67  3.6764681E-01
   7159.00  3.6206026E-01
   7159.33  3.5658882E-01
   7159.67  3.5124743E-01
   7160.00  3.4607210E-01
   7160.33  3.4113896E-01
   7160.67  3.3647109E-01
   7161.00  3.3210699E-01
   7161.33  3.2812582E-01
   7161.67  3.2451028E-01
   7162.00  3.2127108E-01
   7162.33  3.1845547E-01
   7162.67  3.1600697E-01
   7163.00  3.1391300E-01
   7163.33  3.1219847E-01
   7163.67  3.1080467E-01
   7164.00  3.0972101E-01
   7164.33  3.0897867E-01
   7164.67  3.0853859E-01
   7165.00  3.0840337E-01
   7165.33  3.0861679E-01
   7165.67  3.0914520E-01
   7166.00  3.0999157E-01
   7166.33  3.1119593E-01
   7166.67  3.1271488E-01
   7167.00  3.1454232E-01
   7167.33  3.1670522E-01
   7167.67  3.1915336E-01
   7168.00  3.2187404E-01
   7168.33  3.2488181E-01
   7168.67  3.2812366E-01
   7169.00  3.3157949E-01
   7169.33  3.3524823E-01
   7169.67  3.3907901E-01
   7170.00  3.4304470E-01
   7170.33  3.4711813E-01
   7170.67  3.5123418E-01
   7171.00  3.5532724E-01
   7171.33  3.5925721E-01
   7171.67  3.6282778E-01
   7172.00  3.6576290E-01
