    FDMNES
    energy     <xanes>
   7097.00  4.8879390E-03
   7097.33  5.0052222E-03
   7097.67  5.1279706E-03
   7098.00  5.2565691E-03
   7098.33  5.3923084E-03
   7098.67  5.5349518E-03
   7099.00  5.6850308E-03
   7099.33  5.8442547E-03
   7099.67  6.0123912E-03
   7100.00  6.1901957E-03
   7100.33  6.3799970E-03
   7100.67  6.5816010E-03
   7101.00  6.7961184E-03
   7101.33  7.0268301E-03
   7101.67  7.2736556E-03
   7102.00  7.5382936E-03
   7102.33  7.8255581E-03
   7102.67  8.1356478E-03
   7103.00  8.4712882E-03
   7103.33  8.8399000E-03
   7103.67  9.2423426E-03
   7104.00  9.6832536E-03
   7104.33  1.0174796E-02
   7104.67  1.0719417E-02
   7105.00  1.1325614E-02
   7105.33  1.2014946E-02
   7105.67  1.2793913E-02
   7106.00  1.3679643E-02
   7106.33  1.4714522E-02
   7106.67  1.5916473E-02
   7107.00  1.7324825E-02
   7107.33  1.9035761E-02
   7107.67  2.1104903E-02
   7108.00  2.3641171E-02
   7108.33  2.6914529E-02
   7108.67  3.1140027E-02
   7109.00  3.6721568E-02
   7109.33  4.4726241E-02
   7109.67  5.6372431E-02
   7110.00  7.4045556E-02
   7110.33  1.0458108E-01
   7110.67  1.5488106E-01
   7111.00  2.2483922E-01
   7111.33  2.9175762E-01
   7111.67  3.4814674E-01
   7112.00  4.0293918E-01
   7112.33  4.4061266E-01
   7112.67  4.2264438E-01
   7113.00  3.4178296E-01
   7113.33  2.5536821E-01
   7113.67  1.9479136E-01
   7114.00  1.5945756E-01
   7114.33  1.4702818E-01
   7114.67  1.5208874E-01
   7115.00  1.6892580E-01
   7115.33  1.7545034E-01
   7115.67  1.5797693E-01
   7116.00  1.3001055E-01
   7116.33  1.0800015E-01
   7116.67  9.3931366E-02
   7117.00  8.6290539E-02
   7117.33  8.3549533E-02
   7117.67  8.3345157E-02
   7118.00  8.4519278E-02
   7118.33  8.6737505E-02
   7118.67  9.0102118E-02
   7119.00  9.4582275E-02
   7119.33  9.9539393E-02
   7119.67  1.0389482E-01
   7120.00  1.0729306E-01
   7120.33  1.1074339E-01
   7120.67  1.1582114E-01
   7121.00  1.2350760E-01
   7121.33  1.3501634E-01
   7121.67  1.5024502E-01
   7122.00  1.6898259E-01
   7122.33  1.9132482E-01
   7122.67  2.1689185E-01
   7123.00  2.4519369E-01
   7123.33  2.7495206E-01
   7123.67  3.0423027E-01
   7124.00  3.3121569E-01
   7124.33  3.5340851E-01
   7124.67  3.7018411E-01
   7125.00  3.8182749E-01
   7125.33  3.9013734E-01
   7125.67  3.9888183E-01
   7126.00  4.1112092E-01
   7126.33  4.2996283E-01
   7126.67  4.5458818E-01
   7127.00  4.8302756E-01
   7127.33  5.1248809E-01
   7127.67  5.4155678E-01
   7128.00  5.7072189E-01
   7128.33  6.0003609E-01
   7128.67  6.2777029E-01
   7129.00  6.5292692E-01
   7129.33  6.7638023E-01
   7129.67  6.9962861E-01
   7130.00  7.2207414E-01
   7130.33  7.4119837E-01
   7130.67  7.5561145E-01
   7131.00  7.6450763E-01
   7131.33  7.6633276E-01
   7131.67  7.6169356E-01
   7132.00  7.5191005E-01
   7132.33  7.3991285E-01
   7132.67  7.2917252E-01
   7133.00  7.2147617E-01
   7133.33  7.1817403E-01
   7133.67  7.1839008E-01
   7134.00  7.2085230E-01
   7134.33  7.2379813E-01
   7134.67  7.2615239E-01
   7135.00  7.2802336E-01
   7135.33  7.2993765E-01
   7135.67  7.3186646E-01
   7136.00  7.3329212E-01
   7136.33  7.3349770E-01
   7136.67  7.3248812E-01
   7137.00  7.3049731E-01
   7137.33  7.2786818E-01
   7137.67  7.2492636E-01
   7138.00  7.2150492E-01
   7138.33  7.1664471E-01
   7138.67  7.0942039E-01
   7139.00  6.9929135E-01
   7139.33  6.8622143E-01
   7139.67  6.7149975E-01
   7140.00  6.5598061E-01
   7140.33  6.4042467E-01
   7140.67  6.2554630E-01
   7141.00  6.1210652E-01
   7141.33  6.0140306E-01
   7141.67  5.9388991E-01
   7142.00  5.8973201E-01
   7142.33  5.8873260E-01
   7142.67  5.8926413E-01
   7143.00  5.8982956E-01
   7143.33  5.8833585E-01
   7143.67  5.8350792E-01
   7144.00  5.7474420E-01
   7144.33  5.6196266E-01
   7144.67  5.4694515E-01
   7145.00  5.3118308E-01
   7145.33  5.1633460E-01
   7145.67  5.0332471E-01
   7146.00  4.9259591E-01
   7146.33  4.8463298E-01
   7146.67  4.7909291E-01
   7147.00  4.7583476E-01
   7147.33  4.7491487E-01
   7147.67  4.7584678E-01
   7148.00  4.7839917E-01
   7148.33  4.8241404E-01
   7148.67  4.8739275E-01
   7149.00  4.9306099E-01
   7149.33  4.9914441E-01
   7149.67  5.0527088E-01
   7150.00  5.1117191E-01
   7150.33  5.1651546E-01
   7150.67  5.2117497E-01
   7151.00  5.2507927E-01
   7151.33  5.2817670E-01
   7151.67  5.3071132E-01
   7152.00  5.3287411E-01
   7152.33  5.3487501E-01
   7152.67  5.3690064E-01
   7153.00  5.3901558E-01
   7153.33  5.4120704E-01
   7153.67  5.4336827E-01
   7154.00  5.4538439E-01
   7154.33  5.4708278E-01
   7154.67  5.4837567E-01
   7155.00  5.4917356E-01
   7155.33  5.4931775E-01
   7155.67  5.4881206E-01
   7156.00  5.4760994E-01
   7156.33  5.4557954E-01
   7156.67  5.4278945E-01
   7157.00  5.3923376E-01
   7157.33  5.3482799E-01
   7157.67  5.2969401E-01
   7158.00  5.2386785E-01
   7158.33  5.1732366E-01
   7158.67  5.1021068E-01
   7159.00  5.0260454E-01
   7159.33  4.9456588E-01
   7159.67  4.8627277E-01
   7160.00  4.7785019E-01
   7160.33  4.6945281E-01
   7160.67  4.6122483E-01
   7161.00  4.5327778E-01
   7161.33  4.4575952E-01
   7161.67  4.3868062E-01
   7162.00  4.3205485E-01
   7162.33  4.2591759E-01
   7162.67  4.2016755E-01
   7163.00  4.1475025E-01
   7163.33  4.0963102E-01
   7163.67  4.0471732E-01
   7164.00  3.9997284E-01
   7164.33  3.9539403E-01
   7164.67  3.9096376E-01
   7165.00  3.8670044E-01
   7165.33  3.8266486E-01
   7165.67  3.7887560E-01
   7166.00  3.7537305E-01
   7166.33  3.7224363E-01
   7166.67  3.6948312E-01
   7167.00  3.6711457E-01
   7167.33  3.6520462E-01
   7167.67  3.6370603E-01
   7168.00  3.6261272E-01
   7168.33  3.6195642E-01
   7168.67  3.6166430E-01
   7169.00  3.6171206E-01
   7169.33  3.6210777E-01
   7169.67  3.6278068E-01
   7170.00  3.6370222E-01
   7170.33  3.6486399E-01
   7170.67  3.6619936E-01
   7171.00  3.6766482E-01
   7171.33  3.6919214E-01
   7171.67  3.7064643E-01
   7172.00  3.7186267E-01
