    FDMNES
    energy     <xanes>
   7097.00  4.5637249E-03
   7097.33  4.6658494E-03
   7097.67  4.7724048E-03
   7098.00  4.8836874E-03
   7098.33  5.0007172E-03
   7098.67  5.1232816E-03
   7099.00  5.2517861E-03
   7099.33  5.3875665E-03
   7099.67  5.5304091E-03
   7100.00  5.6808859E-03
   7100.33  5.8407967E-03
   7100.67  6.0099516E-03
   7101.00  6.1891853E-03
   7101.33  6.3810083E-03
   7101.67  6.5853088E-03
   7102.00  6.8033569E-03
   7102.33  7.0388030E-03
   7102.67  7.2917367E-03
   7103.00  7.5641889E-03
   7103.33  7.8617461E-03
   7103.67  8.1849854E-03
   7104.00  8.5373583E-03
   7104.33  8.9279817E-03
   7104.67  9.3586217E-03
   7105.00  9.8356151E-03
   7105.33  1.0375113E-02
   7105.67  1.0981955E-02
   7106.00  1.1668997E-02
   7106.33  1.2468137E-02
   7106.67  1.3393007E-02
   7107.00  1.4473484E-02
   7107.33  1.5782780E-02
   7107.67  1.7364101E-02
   7108.00  1.9301810E-02
   7108.33  2.1805754E-02
   7108.67  2.5047466E-02
   7109.00  2.9349328E-02
   7109.33  3.5569566E-02
   7109.67  4.4715461E-02
   7110.00  5.8768125E-02
   7110.33  8.3411009E-02
   7110.67  1.2399550E-01
   7111.00  1.7792904E-01
   7111.33  2.2127625E-01
   7111.67  2.5679264E-01
   7112.00  2.9718289E-01
   7112.33  3.1231640E-01
   7112.67  2.6989675E-01
   7113.00  2.0276598E-01
   7113.33  1.5323811E-01
   7113.67  1.2285475E-01
   7114.00  1.0699902E-01
   7114.33  1.0181971E-01
   7114.67  9.9258718E-02
   7115.00  9.3076047E-02
   7115.33  8.4281851E-02
   7115.67  7.7647533E-02
   7116.00  7.3994868E-02
   7116.33  7.3156268E-02
   7116.67  7.4272352E-02
   7117.00  7.6977224E-02
   7117.33  8.1258920E-02
   7117.67  8.7381193E-02
   7118.00  9.5984455E-02
   7118.33  1.0766975E-01
   7118.67  1.2127054E-01
   7119.00  1.3501654E-01
   7119.33  1.4650995E-01
   7119.67  1.5590278E-01
   7120.00  1.6471681E-01
   7120.33  1.7517498E-01
   7120.67  1.8855105E-01
   7121.00  2.0556022E-01
   7121.33  2.2675718E-01
   7121.67  2.5098007E-01
   7122.00  2.7740518E-01
   7122.33  3.0535006E-01
   7122.67  3.3402771E-01
   7123.00  3.6306024E-01
   7123.33  3.9135922E-01
   7123.67  4.1716665E-01
   7124.00  4.3922161E-01
   7124.33  4.5703958E-01
   7124.67  4.7235699E-01
   7125.00  4.8624573E-01
   7125.33  4.9887309E-01
   7125.67  5.0961868E-01
   7126.00  5.1748149E-01
   7126.33  5.2169051E-01
   7126.67  5.2369862E-01
   7127.00  5.2497899E-01
   7127.33  5.2678266E-01
   7127.67  5.2913493E-01
   7128.00  5.3161983E-01
   7128.33  5.3402251E-01
   7128.67  5.3660207E-01
   7129.00  5.3950253E-01
   7129.33  5.4239655E-01
   7129.67  5.4471066E-01
   7130.00  5.4610244E-01
   7130.33  5.4642369E-01
   7130.67  5.4619396E-01
   7131.00  5.4604670E-01
   7131.33  5.4698977E-01
   7131.67  5.4967616E-01
   7132.00  5.5451814E-01
   7132.33  5.6192664E-01
   7132.67  5.7138229E-01
   7133.00  5.8244927E-01
   7133.33  5.9456504E-01
   7133.67  6.0686396E-01
   7134.00  6.1872993E-01
   7134.33  6.2949590E-01
   7134.67  6.3905093E-01
   7135.00  6.4739085E-01
   7135.33  6.5444870E-01
   7135.67  6.6048982E-01
   7136.00  6.6567826E-01
   7136.33  6.7019894E-01
   7136.67  6.7440255E-01
   7137.00  6.7847941E-01
   7137.33  6.8256732E-01
   7137.67  6.8672296E-01
   7138.00  6.9094939E-01
   7138.33  6.9521606E-01
   7138.67  6.9944223E-01
   7139.00  7.0351711E-01
   7139.33  7.0719542E-01
   7139.67  7.1023636E-01
   7140.00  7.1234720E-01
   7140.33  7.1303135E-01
   7140.67  7.1219842E-01
   7141.00  7.0976690E-01
   7141.33  7.0563597E-01
   7141.67  7.0025026E-01
   7142.00  6.9390868E-01
   7142.33  6.8690386E-01
   7142.67  6.7963756E-01
   7143.00  6.7232939E-01
   7143.33  6.6515121E-01
   7143.67  6.5816951E-01
   7144.00  6.5143218E-01
   7144.33  6.4502382E-01
   7144.67  6.3895377E-01
   7145.00  6.3326414E-01
   7145.33  6.2807320E-01
   7145.67  6.2339295E-01
   7146.00  6.1926196E-01
   7146.33  6.1577813E-01
   7146.67  6.1287547E-01
   7147.00  6.1053668E-01
   7147.33  6.0877279E-01
   7147.67  6.0743077E-01
   7148.00  6.0640929E-01
   7148.33  6.0559657E-01
   7148.67  6.0483187E-01
   7149.00  6.0400658E-01
   7149.33  6.0299187E-01
   7149.67  6.0172165E-01
   7150.00  6.0013538E-01
   7150.33  5.9812307E-01
   7150.67  5.9566440E-01
   7151.00  5.9269011E-01
   7151.33  5.8902719E-01
   7151.67  5.8464317E-01
   7152.00  5.7944599E-01
   7152.33  5.7323390E-01
   7152.67  5.6606724E-01
   7153.00  5.5794121E-01
   7153.33  5.4878957E-01
   7153.67  5.3882997E-01
   7154.00  5.2818926E-01
   7154.33  5.1697907E-01
   7154.67  5.0544828E-01
   7155.00  4.9375443E-01
   7155.33  4.8206898E-01
   7155.67  4.7054064E-01
   7156.00  4.5927938E-01
   7156.33  4.4843835E-01
   7156.67  4.3805714E-01
   7157.00  4.2819617E-01
   7157.33  4.1898351E-01
   7157.67  4.1039003E-01
   7158.00  4.0244213E-01
   7158.33  3.9523977E-01
   7158.67  3.8870275E-01
   7159.00  3.8282189E-01
   7159.33  3.7765278E-01
   7159.67  3.7308123E-01
   7160.00  3.6906996E-01
   7160.33  3.6563398E-01
   7160.67  3.6265966E-01
   7161.00  3.6010647E-01
   7161.33  3.5797860E-01
   7161.67  3.5619317E-01
   7162.00  3.5472571E-01
   7162.33  3.5358716E-01
   7162.67  3.5270879E-01
   7163.00  3.5205367E-01
   7163.33  3.5160290E-01
   7163.67  3.5129403E-01
   7164.00  3.5109688E-01
   7164.33  3.5099753E-01
   7164.67  3.5097201E-01
   7165.00  3.5101840E-01
   7165.33  3.5115259E-01
   7165.67  3.5137574E-01
   7166.00  3.5169858E-01
   7166.33  3.5214687E-01
   7166.67  3.5271658E-01
   7167.00  3.5341445E-01
   7167.33  3.5426303E-01
   7167.67  3.5524951E-01
   7168.00  3.5637562E-01
   7168.33  3.5765860E-01
   7168.67  3.5907754E-01
   7169.00  3.6062672E-01
   7169.33  3.6231126E-01
   7169.67  3.6410234E-01
   7170.00  3.6598452E-01
   7170.33  3.6794303E-01
   7170.67  3.6993796E-01
   7171.00  3.7193196E-01
   7171.33  3.7385098E-01
   7171.67  3.7559327E-01
   7172.00  3.7702069E-01
