    FDMNES
    energy     <xanes>
   7097.00  5.2180932E-03
   7097.33  5.3452083E-03
   7097.67  5.4782047E-03
   7098.00  5.6174812E-03
   7098.33  5.7643997E-03
   7098.67  5.9186813E-03
   7099.00  6.0808670E-03
   7099.33  6.2527330E-03
   7099.67  6.4339894E-03
   7100.00  6.6253879E-03
   7100.33  6.8293008E-03
   7100.67  7.0454502E-03
   7101.00  7.2749100E-03
   7101.33  7.5209393E-03
   7101.67  7.7833220E-03
   7102.00  8.0636451E-03
   7102.33  8.3665370E-03
   7102.67  8.6919544E-03
   7103.00  9.0423371E-03
   7103.33  9.4245286E-03
   7103.67  9.8389053E-03
   7104.00  1.0289405E-02
   7104.33  1.0786662E-02
   7104.67  1.1332049E-02
   7105.00  1.1932319E-02
   7105.33  1.2605080E-02
   7105.67  1.3354134E-02
   7106.00  1.4192022E-02
   7106.33  1.5150447E-02
   7106.67  1.6239620E-02
   7107.00  1.7485499E-02
   7107.33  1.8952311E-02
   7107.67  2.0669581E-02
   7108.00  2.2700413E-02
   7108.33  2.5200621E-02
   7108.67  2.8272826E-02
   7109.00  3.2116651E-02
   7109.33  3.7247596E-02
   7109.67  4.4177505E-02
   7110.00  5.3907554E-02
   7110.33  6.9256154E-02
   7110.67  9.3056998E-02
   7111.00  1.2564007E-01
   7111.33  1.5686472E-01
   7111.67  1.9118966E-01
   7112.00  2.4349764E-01
   7112.33  3.0737213E-01
   7112.67  3.7853391E-01
   7113.00  4.7530836E-01
   7113.33  5.9642271E-01
   7113.67  6.9300314E-01
   7114.00  6.8324980E-01
   7114.33  5.5774247E-01
   7114.67  4.2874158E-01
   7115.00  3.3396253E-01
   7115.33  2.7616464E-01
   7115.67  2.4134189E-01
   7116.00  2.2347305E-01
   7116.33  2.1976520E-01
   7116.67  2.2441498E-01
   7117.00  2.3157487E-01
   7117.33  2.3196873E-01
   7117.67  2.2214237E-01
   7118.00  2.0493539E-01
   7118.33  1.8626546E-01
   7118.67  1.6985587E-01
   7119.00  1.5649739E-01
   7119.33  1.4635448E-01
   7119.67  1.3854047E-01
   7120.00  1.3255576E-01
   7120.33  1.2800467E-01
   7120.67  1.2442497E-01
   7121.00  1.2191834E-01
   7121.33  1.2092049E-01
   7121.67  1.2124015E-01
   7122.00  1.2264564E-01
   7122.33  1.2492038E-01
   7122.67  1.2769666E-01
   7123.00  1.3085559E-01
   7123.33  1.3445444E-01
   7123.67  1.3855119E-01
   7124.00  1.4327739E-01
   7124.33  1.4893092E-01
   7124.67  1.5565051E-01
   7125.00  1.6364955E-01
   7125.33  1.7331255E-01
   7125.67  1.8462379E-01
   7126.00  1.9780783E-01
   7126.33  2.1361237E-01
   7126.67  2.3225768E-01
   7127.00  2.5388521E-01
   7127.33  2.7819616E-01
   7127.67  3.0355503E-01
   7128.00  3.2878882E-01
   7128.33  3.5348574E-01
   7128.67  3.7886128E-01
   7129.00  4.0652725E-01
   7129.33  4.3846904E-01
   7129.67  4.7499328E-01
   7130.00  5.1652986E-01
   7130.33  5.6429822E-01
   7130.67  6.1807907E-01
   7131.00  6.7801107E-01
   7131.33  7.4448041E-01
   7131.67  8.1573852E-01
   7132.00  8.9008213E-01
   7132.33  9.6405318E-01
   7132.67  1.0327746E+00
   7133.00  1.0914299E+00
   7133.33  1.1328464E+00
   7133.67  1.1550356E+00
   7134.00  1.1563252E+00
   7134.33  1.1346200E+00
   7134.67  1.0954625E+00
   7135.00  1.0428442E+00
   7135.33  9.8089927E-01
   7135.67  9.1534805E-01
   7136.00  8.4936860E-01
   7136.33  7.8590341E-01
   7136.67  7.2642822E-01
   7137.00  6.7193822E-01
   7137.33  6.2392435E-01
   7137.67  5.8214963E-01
   7138.00  5.4682458E-01
   7138.33  5.1874916E-01
   7138.67  4.9686039E-01
   7139.00  4.8074163E-01
   7139.33  4.7033082E-01
   7139.67  4.6414736E-01
   7140.00  4.6143501E-01
   7140.33  4.6171515E-01
   7140.67  4.6399541E-01
   7141.00  4.6785450E-01
   7141.33  4.7311160E-01
   7141.67  4.7940095E-01
   7142.00  4.8660333E-01
   7142.33  4.9470823E-01
   7142.67  5.0349894E-01
   7143.00  5.1285202E-01
   7143.33  5.2263523E-01
   7143.67  5.3258421E-01
   7144.00  5.4249344E-01
   7144.33  5.5208366E-01
   7144.67  5.6116305E-01
   7145.00  5.6956690E-01
   7145.33  5.7705132E-01
   7145.67  5.8363386E-01
   7146.00  5.8928288E-01
   7146.33  5.9388123E-01
   7146.67  5.9756920E-01
   7147.00  6.0037492E-01
   7147.33  6.0222533E-01
   7147.67  6.0325578E-01
   7148.00  6.0348840E-01
   7148.33  6.0285372E-01
   7148.67  6.0148358E-01
   7149.00  5.9942249E-01
   7149.33  5.9666329E-01
   7149.67  5.9337140E-01
   7150.00  5.8963660E-01
   7150.33  5.8553820E-01
   7150.67  5.8125300E-01
   7151.00  5.7690889E-01
   7151.33  5.7266212E-01
   7151.67  5.6864198E-01
   7152.00  5.6496625E-01
   7152.33  5.6182692E-01
   7152.67  5.5928691E-01
   7153.00  5.5744048E-01
   7153.33  5.5647959E-01
   7153.67  5.5637623E-01
   7154.00  5.5716702E-01
   7154.33  5.5897181E-01
   7154.67  5.6163819E-01
   7155.00  5.6508914E-01
   7155.33  5.6926314E-01
   7155.67  5.7388583E-01
   7156.00  5.7875777E-01
   7156.33  5.8362583E-01
   7156.67  5.8823927E-01
   7157.00  5.9240238E-01
   7157.33  5.9584923E-01
   7157.67  5.9852996E-01
   7158.00  6.0038243E-01
   7158.33  6.0128232E-01
   7158.67  6.0136537E-01
   7159.00  6.0068528E-01
   7159.33  5.9923966E-01
   7159.67  5.9720672E-01
   7160.00  5.9466674E-01
   7160.33  5.9165117E-01
   7160.67  5.8828071E-01
   7161.00  5.8459971E-01
   7161.33  5.8061032E-01
   7161.67  5.7636745E-01
   7162.00  5.7187966E-01
   7162.33  5.6712075E-01
   7162.67  5.6211926E-01
   7163.00  5.5687034E-01
   7163.33  5.5134106E-01
   7163.67  5.4556715E-01
   7164.00  5.3955735E-01
   7164.33  5.3329944E-01
   7164.67  5.2684190E-01
   7165.00  5.2020667E-01
   7165.33  5.1340445E-01
   7165.67  5.0648784E-01
   7166.00  4.9948926E-01
   7166.33  4.9244320E-01
   7166.67  4.8539686E-01
   7167.00  4.7838665E-01
   7167.33  4.7146289E-01
   7167.67  4.6465604E-01
   7168.00  4.5800040E-01
   7168.33  4.5155722E-01
   7168.67  4.4533840E-01
   7169.00  4.3937391E-01
   7169.33  4.3373430E-01
   7169.67  4.2841429E-01
   7170.00  4.2343278E-01
   7170.33  4.1884987E-01
   7170.67  4.1463818E-01
   7171.00  4.1081730E-01
   7171.33  4.0747573E-01
   7171.67  4.0462536E-01
   7172.00  4.0235038E-01
