    FDMNES
    energy     <xanes>
   7097.00  4.2112843E-03
   7097.33  4.2995867E-03
   7097.67  4.3915311E-03
   7098.00  4.4873485E-03
   7098.33  4.5878562E-03
   7098.67  4.6928611E-03
   7099.00  4.8026740E-03
   7099.33  4.9183470E-03
   7099.67  5.0396779E-03
   7100.00  5.1670948E-03
   7100.33  5.3019868E-03
   7100.67  5.4441543E-03
   7101.00  5.5942056E-03
   7101.33  5.7540280E-03
   7101.67  5.9234530E-03
   7102.00  6.1033753E-03
   7102.33  6.2964505E-03
   7102.67  6.5026037E-03
   7103.00  6.7232067E-03
   7103.33  6.9621584E-03
   7103.67  7.2196183E-03
   7104.00  7.4977998E-03
   7104.33  7.8027353E-03
   7104.67  8.1351489E-03
   7105.00  8.4988461E-03
   7105.33  8.9038021E-03
   7105.67  9.3521332E-03
   7106.00  9.8509383E-03
   7106.33  1.0418210E-02
   7106.67  1.1059749E-02
   7107.00  1.1790325E-02
   7107.33  1.2646481E-02
   7107.67  1.3645044E-02
   7108.00  1.4821864E-02
   7108.33  1.6265172E-02
   7108.67  1.8032072E-02
   7109.00  2.0232868E-02
   7109.33  2.3148163E-02
   7109.67  2.7040468E-02
   7110.00  3.2413404E-02
   7110.33  4.0664314E-02
   7110.67  5.3417258E-02
   7111.00  7.2777191E-02
   7111.33  1.0134738E-01
   7111.67  1.3699894E-01
   7112.00  1.7780852E-01
   7112.33  2.2938089E-01
   7112.67  2.6327236E-01
   7113.00  2.5259918E-01
   7113.33  2.3443168E-01
   7113.67  2.3283512E-01
   7114.00  2.3427654E-01
   7114.33  2.0645703E-01
   7114.67  1.6853020E-01
   7115.00  1.4044242E-01
   7115.33  1.2597203E-01
   7115.67  1.2072367E-01
   7116.00  1.2440629E-01
   7116.33  1.4073642E-01
   7116.67  1.6987516E-01
   7117.00  2.0975817E-01
   7117.33  2.4598972E-01
   7117.67  2.5010969E-01
   7118.00  2.1717350E-01
   7118.33  1.7279603E-01
   7118.67  1.3807683E-01
   7119.00  1.1568850E-01
   7119.33  1.0312143E-01
   7119.67  9.3765677E-02
   7120.00  8.5171867E-02
   7120.33  7.8888180E-02
   7120.67  7.5968222E-02
   7121.00  7.6197943E-02
   7121.33  7.9041572E-02
   7121.67  8.3373024E-02
   7122.00  8.8623420E-02
   7122.33  9.4472382E-02
   7122.67  1.0098580E-01
   7123.00  1.0880463E-01
   7123.33  1.1895277E-01
   7123.67  1.3130984E-01
   7124.00  1.4578598E-01
   7124.33  1.6288023E-01
   7124.67  1.8300572E-01
   7125.00  2.0686892E-01
   7125.33  2.3468098E-01
   7125.67  2.6346259E-01
   7126.00  2.9005149E-01
   7126.33  3.1181902E-01
   7126.67  3.2835595E-01
   7127.00  3.3821541E-01
   7127.33  3.4078142E-01
   7127.67  3.4221492E-01
   7128.00  3.4892949E-01
   7128.33  3.6673181E-01
   7128.67  3.9383407E-01
   7129.00  4.2655911E-01
   7129.33  4.5826954E-01
   7129.67  4.8198861E-01
   7130.00  4.9656227E-01
   7130.33  5.0812261E-01
   7130.67  5.2231448E-01
   7131.00  5.3872971E-01
   7131.33  5.5283537E-01
   7131.67  5.6003836E-01
   7132.00  5.6065203E-01
   7132.33  5.6258620E-01
   7132.67  5.7217135E-01
   7133.00  5.8913230E-01
   7133.33  6.1005443E-01
   7133.67  6.3020353E-01
   7134.00  6.4662737E-01
   7134.33  6.5658534E-01
   7134.67  6.6054513E-01
   7135.00  6.5965940E-01
   7135.33  6.5609221E-01
   7135.67  6.5294285E-01
   7136.00  6.5217495E-01
   7136.33  6.5535030E-01
   7136.67  6.6178829E-01
   7137.00  6.7070231E-01
   7137.33  6.8160760E-01
   7137.67  6.9423548E-01
   7138.00  7.0896414E-01
   7138.33  7.2662745E-01
   7138.67  7.4709840E-01
   7139.00  7.7015283E-01
   7139.33  7.9525519E-01
   7139.67  8.2084881E-01
   7140.00  8.4533695E-01
   7140.33  8.6599219E-01
   7140.67  8.8069980E-01
   7141.00  8.8738384E-01
   7141.33  8.8304534E-01
   7141.67  8.6847426E-01
   7142.00  8.4468104E-01
   7142.33  8.1335113E-01
   7142.67  7.7846213E-01
   7143.00  7.4251803E-01
   7143.33  7.0787785E-01
   7143.67  6.7574739E-01
   7144.00  6.4668918E-01
   7144.33  6.2126594E-01
   7144.67  5.9890158E-01
   7145.00  5.7931235E-01
   7145.33  5.6240760E-01
   7145.67  5.4750215E-01
   7146.00  5.3429531E-01
   7146.33  5.2266410E-01
   7146.67  5.1220354E-01
   7147.00  5.0277577E-01
   7147.33  4.9439595E-01
   7147.67  4.8689860E-01
   7148.00  4.8028509E-01
   7148.33  4.7471615E-01
   7148.67  4.7014617E-01
   7149.00  4.6662843E-01
   7149.33  4.6432607E-01
   7149.67  4.6309578E-01
   7150.00  4.6290865E-01
   7150.33  4.6383359E-01
   7150.67  4.6567298E-01
   7151.00  4.6834639E-01
   7151.33  4.7182474E-01
   7151.67  4.7589967E-01
   7152.00  4.8049245E-01
   7152.33  4.8559855E-01
   7152.67  4.9112939E-01
   7153.00  4.9707319E-01
   7153.33  5.0345859E-01
   7153.67  5.1016906E-01
   7154.00  5.1707278E-01
   7154.33  5.2388479E-01
   7154.67  5.3020603E-01
   7155.00  5.3561514E-01
   7155.33  5.3946877E-01
   7155.67  5.4161330E-01
   7156.00  5.4193677E-01
   7156.33  5.4025101E-01
   7156.67  5.3690047E-01
   7157.00  5.3199214E-01
   7157.33  5.2543278E-01
   7157.67  5.1746816E-01
   7158.00  5.0816030E-01
   7158.33  4.9748075E-01
   7158.67  4.8578789E-01
   7159.00  4.7332409E-01
   7159.33  4.6036517E-01
   7159.67  4.4730524E-01
   7160.00  4.3440851E-01
   7160.33  4.2197959E-01
   7160.67  4.1015781E-01
   7161.00  3.9906680E-01
   7161.33  3.8892098E-01
   7161.67  3.7969765E-01
   7162.00  3.7144989E-01
   7162.33  3.6434959E-01
   7162.67  3.5830115E-01
   7163.00  3.5332876E-01
   7163.33  3.4960028E-01
   7163.67  3.4701152E-01
   7164.00  3.4560082E-01
   7164.33  3.4557957E-01
   7164.67  3.4685698E-01
   7165.00  3.4948506E-01
   7165.33  3.5367868E-01
   7165.67  3.5925483E-01
   7166.00  3.6614873E-01
   7166.33  3.7436047E-01
   7166.67  3.8350697E-01
   7167.00  3.9330670E-01
   7167.33  4.0338311E-01
   7167.67  4.1324557E-01
   7168.00  4.2249651E-01
   7168.33  4.3059760E-01
   7168.67  4.3737697E-01
   7169.00  4.4269771E-01
   7169.33  4.4637068E-01
   7169.67  4.4872357E-01
   7170.00  4.4997459E-01
   7170.33  4.5034751E-01
   7170.67  4.5028323E-01
   7171.00  4.5005426E-01
   7171.33  4.4991626E-01
   7171.67  4.4997547E-01
   7172.00  4.5019403E-01
