    FDMNES
    energy     <xanes>
   7097.00  4.8985523E-03
   7097.33  5.0127788E-03
   7097.67  5.1320915E-03
   7098.00  5.2568300E-03
   7098.33  5.3881647E-03
   7098.67  5.5258498E-03
   7099.00  5.6703484E-03
   7099.33  5.8231880E-03
   7099.67  5.9841179E-03
   7100.00  6.1537864E-03
   7100.33  6.3342424E-03
   7100.67  6.5252546E-03
   7101.00  6.7277613E-03
   7101.33  6.9446004E-03
   7101.67  7.1756157E-03
   7102.00  7.4222194E-03
   7102.33  7.6884992E-03
   7102.67  7.9744987E-03
   7103.00  8.2824464E-03
   7103.33  8.6185221E-03
   7103.67  8.9832564E-03
   7104.00  9.3803776E-03
   7104.33  9.8198137E-03
   7104.67  1.0303281E-02
   7105.00  1.0837498E-02
   7105.33  1.1439708E-02
   7105.67  1.2114666E-02
   7106.00  1.2875698E-02
   7106.33  1.3756039E-02
   7106.67  1.4768991E-02
   7107.00  1.5944684E-02
   7107.33  1.7357109E-02
   7107.67  1.9047626E-02
   7108.00  2.1098410E-02
   7108.33  2.3713265E-02
   7108.67  2.7051021E-02
   7109.00  3.1411178E-02
   7109.33  3.7582490E-02
   7109.67  4.6450402E-02
   7110.00  5.9745417E-02
   7110.33  8.2426697E-02
   7110.67  1.1975235E-01
   7111.00  1.7343073E-01
   7111.33  2.3322747E-01
   7111.67  2.8499297E-01
   7112.00  3.1149314E-01
   7112.33  3.0654953E-01
   7112.67  2.8980691E-01
   7113.00  2.6532313E-01
   7113.33  2.3485381E-01
   7113.67  2.0421169E-01
   7114.00  1.7852214E-01
   7114.33  1.6166983E-01
   7114.67  1.4985232E-01
   7115.00  1.3926255E-01
   7115.33  1.2970939E-01
   7115.67  1.2463740E-01
   7116.00  1.2687410E-01
   7116.33  1.3943682E-01
   7116.67  1.6016634E-01
   7117.00  1.8255246E-01
   7117.33  1.9340586E-01
   7117.67  1.9371696E-01
   7118.00  1.9300802E-01
   7118.33  2.0003935E-01
   7118.67  2.1280836E-01
   7119.00  2.2654819E-01
   7119.33  2.3931776E-01
   7119.67  2.5176428E-01
   7120.00  2.6278148E-01
   7120.33  2.7115188E-01
   7120.67  2.7727078E-01
   7121.00  2.8163244E-01
   7121.33  2.8682399E-01
   7121.67  2.9648795E-01
   7122.00  3.1266379E-01
   7122.33  3.3625285E-01
   7122.67  3.6431140E-01
   7123.00  3.9406045E-01
   7123.33  4.2289421E-01
   7123.67  4.4990017E-01
   7124.00  4.7478084E-01
   7124.33  4.9567583E-01
   7124.67  5.0932826E-01
   7125.00  5.1376542E-01
   7125.33  5.1294771E-01
   7125.67  5.1600108E-01
   7126.00  5.2739196E-01
   7126.33  5.4712227E-01
   7126.67  5.6886605E-01
   7127.00  5.8784951E-01
   7127.33  6.0013299E-01
   7127.67  6.0508715E-01
   7128.00  6.0184658E-01
   7128.33  5.8913858E-01
   7128.67  5.7064488E-01
   7129.00  5.5088953E-01
   7129.33  5.3525756E-01
   7129.67  5.2529973E-01
   7130.00  5.2031059E-01
   7130.33  5.1863174E-01
   7130.67  5.1830027E-01
   7131.00  5.1884826E-01
   7131.33  5.2057872E-01
   7131.67  5.2347783E-01
   7132.00  5.2702055E-01
   7132.33  5.3008570E-01
   7132.67  5.3257417E-01
   7133.00  5.3567041E-01
   7133.33  5.4118618E-01
   7133.67  5.4874304E-01
   7134.00  5.5688685E-01
   7134.33  5.6374069E-01
   7134.67  5.6878142E-01
   7135.00  5.7211709E-01
   7135.33  5.7364998E-01
   7135.67  5.7315793E-01
   7136.00  5.7006593E-01
   7136.33  5.6394859E-01
   7136.67  5.5629491E-01
   7137.00  5.4889696E-01
   7137.33  5.4412940E-01
   7137.67  5.4298876E-01
   7138.00  5.4581716E-01
   7138.33  5.5278281E-01
   7138.67  5.6262709E-01
   7139.00  5.7443338E-01
   7139.33  5.8712560E-01
   7139.67  5.9939170E-01
   7140.00  6.1016561E-01
   7140.33  6.1790015E-01
   7140.67  6.2204372E-01
   7141.00  6.2244484E-01
   7141.33  6.1950749E-01
   7141.67  6.1507845E-01
   7142.00  6.1041095E-01
   7142.33  6.0643769E-01
   7142.67  6.0315794E-01
   7143.00  6.0022392E-01
   7143.33  5.9710572E-01
   7143.67  5.9346868E-01
   7144.00  5.8920374E-01
   7144.33  5.8429129E-01
   7144.67  5.7894358E-01
   7145.00  5.7327383E-01
   7145.33  5.6731881E-01
   7145.67  5.6110206E-01
   7146.00  5.5458026E-01
   7146.33  5.4767303E-01
   7146.67  5.4046004E-01
   7147.00  5.3306408E-01
   7147.33  5.2573641E-01
   7147.67  5.1877409E-01
   7148.00  5.1243181E-01
   7148.33  5.0702841E-01
   7148.67  5.0255691E-01
   7149.00  4.9900855E-01
   7149.33  4.9638009E-01
   7149.67  4.9438319E-01
   7150.00  4.9281403E-01
   7150.33  4.9142788E-01
   7150.67  4.8993640E-01
   7151.00  4.8813753E-01
   7151.33  4.8580912E-01
   7151.67  4.8292664E-01
   7152.00  4.7947741E-01
   7152.33  4.7545578E-01
   7152.67  4.7105685E-01
   7153.00  4.6643684E-01
   7153.33  4.6179735E-01
   7153.67  4.5733269E-01
   7154.00  4.5317226E-01
   7154.33  4.4945385E-01
   7154.67  4.4614624E-01
   7155.00  4.4321812E-01
   7155.33  4.4063852E-01
   7155.67  4.3828702E-01
   7156.00  4.3609837E-01
   7156.33  4.3402354E-01
   7156.67  4.3200715E-01
   7157.00  4.3002685E-01
   7157.33  4.2807377E-01
   7157.67  4.2614416E-01
   7158.00  4.2424021E-01
   7158.33  4.2236263E-01
   7158.67  4.2049764E-01
   7159.00  4.1863023E-01
   7159.33  4.1673859E-01
   7159.67  4.1481477E-01
   7160.00  4.1286478E-01
   7160.33  4.1091669E-01
   7160.67  4.0902029E-01
   7161.00  4.0722938E-01
   7161.33  4.0562906E-01
   7161.67  4.0425369E-01
   7162.00  4.0313675E-01
   7162.33  4.0233024E-01
   7162.67  4.0179532E-01
   7163.00  4.0151466E-01
   7163.33  4.0148611E-01
   7163.67  4.0164681E-01
   7164.00  4.0196717E-01
   7164.33  4.0243363E-01
   7164.67  4.0300743E-01
   7165.00  4.0367503E-01
   7165.33  4.0443609E-01
   7165.67  4.0527151E-01
   7166.00  4.0617290E-01
   7166.33  4.0713504E-01
   7166.67  4.0813722E-01
   7167.00  4.0916737E-01
   7167.33  4.1021619E-01
   7167.67  4.1127609E-01
   7168.00  4.1234850E-01
   7168.33  4.1344464E-01
   7168.67  4.1457603E-01
   7169.00  4.1575675E-01
   7169.33  4.1700996E-01
   7169.67  4.1833829E-01
   7170.00  4.1974507E-01
   7170.33  4.2123451E-01
   7170.67  4.2278148E-01
   7171.00  4.2436057E-01
   7171.33  4.2591674E-01
   7171.67  4.2735667E-01
   7172.00  4.2855543E-01
