    FDMNES
    energy     <xanes>
   7097.00  4.8430217E-03
   7097.33  4.9481193E-03
   7097.67  5.0575302E-03
   7098.00  5.1715205E-03
   7098.33  5.2910459E-03
   7098.67  5.4158682E-03
   7099.00  5.5463433E-03
   7099.33  5.6836941E-03
   7099.67  5.8276694E-03
   7100.00  5.9787576E-03
   7100.33  6.1385635E-03
   7100.67  6.3068370E-03
   7101.00  6.4842703E-03
   7101.33  6.6730344E-03
   7101.67  6.8729146E-03
   7102.00  7.0849299E-03
   7102.33  7.3121301E-03
   7102.67  7.5544138E-03
   7103.00  7.8133543E-03
   7103.33  8.0934435E-03
   7103.67  8.3948759E-03
   7104.00  8.7202297E-03
   7104.33  9.0765342E-03
   7104.67  9.4647308E-03
   7105.00  9.8893781E-03
   7105.33  1.0362393E-02
   7105.67  1.0886667E-02
   7106.00  1.1471120E-02
   7106.33  1.2138269E-02
   7106.67  1.2896608E-02
   7107.00  1.3766182E-02
   7107.33  1.4796626E-02
   7107.67  1.6015261E-02
   7108.00  1.7477240E-02
   7108.33  1.9320367E-02
   7108.67  2.1653837E-02
   7109.00  2.4685377E-02
   7109.33  2.8969122E-02
   7109.67  3.5151081E-02
   7110.00  4.4507399E-02
   7110.33  6.0711059E-02
   7110.67  8.7274403E-02
   7111.00  1.2279891E-01
   7111.33  1.5136971E-01
   7111.67  1.6606516E-01
   7112.00  1.6870541E-01
   7112.33  1.6615772E-01
   7112.67  1.6673009E-01
   7113.00  1.7078146E-01
   7113.33  1.7353587E-01
   7113.67  1.7004225E-01
   7114.00  1.5938447E-01
   7114.33  1.4582091E-01
   7114.67  1.3329263E-01
   7115.00  1.2353829E-01
   7115.33  1.1947272E-01
   7115.67  1.2264382E-01
   7116.00  1.3494437E-01
   7116.33  1.6060899E-01
   7116.67  1.9916669E-01
   7117.00  2.4299290E-01
   7117.33  2.6792776E-01
   7117.67  2.7100114E-01
   7118.00  2.6904057E-01
   7118.33  2.7546265E-01
   7118.67  2.8717994E-01
   7119.00  2.9566447E-01
   7119.33  2.9440107E-01
   7119.67  2.9135114E-01
   7120.00  2.9339032E-01
   7120.33  3.0366781E-01
   7120.67  3.1949349E-01
   7121.00  3.3807245E-01
   7121.33  3.5642458E-01
   7121.67  3.7356442E-01
   7122.00  3.8999454E-01
   7122.33  4.0577464E-01
   7122.67  4.1981162E-01
   7123.00  4.3123151E-01
   7123.33  4.4003808E-01
   7123.67  4.4774466E-01
   7124.00  4.5551346E-01
   7124.33  4.6453313E-01
   7124.67  4.7505233E-01
   7125.00  4.8752312E-01
   7125.33  5.0401458E-01
   7125.67  5.2551365E-01
   7126.00  5.5146644E-01
   7126.33  5.7897838E-01
   7126.67  6.0322019E-01
   7127.00  6.2036374E-01
   7127.33  6.2721657E-01
   7127.67  6.2671692E-01
   7128.00  6.2278786E-01
   7128.33  6.1965457E-01
   7128.67  6.1799953E-01
   7129.00  6.1629882E-01
   7129.33  6.1298448E-01
   7129.67  6.0837469E-01
   7130.00  6.0274913E-01
   7130.33  5.9531094E-01
   7130.67  5.8547881E-01
   7131.00  5.7360339E-01
   7131.33  5.6151108E-01
   7131.67  5.5145099E-01
   7132.00  5.4467447E-01
   7132.33  5.4204744E-01
   7132.67  5.4265889E-01
   7133.00  5.4575491E-01
   7133.33  5.5070008E-01
   7133.67  5.5698406E-01
   7134.00  5.6481656E-01
   7134.33  5.7419303E-01
   7134.67  5.8311117E-01
   7135.00  5.8905846E-01
   7135.33  5.8950185E-01
   7135.67  5.8548604E-01
   7136.00  5.7875127E-01
   7136.33  5.7150753E-01
   7136.67  5.6551147E-01
   7137.00  5.6162667E-01
   7137.33  5.6057718E-01
   7137.67  5.6189314E-01
   7138.00  5.6501634E-01
   7138.33  5.6896754E-01
   7138.67  5.7236033E-01
   7139.00  5.7419505E-01
   7139.33  5.7349910E-01
   7139.67  5.7052125E-01
   7140.00  5.6566753E-01
   7140.33  5.5948240E-01
   7140.67  5.5275989E-01
   7141.00  5.4589207E-01
   7141.33  5.3914433E-01
   7141.67  5.3260148E-01
   7142.00  5.2629406E-01
   7142.33  5.2028956E-01
   7142.67  5.1461842E-01
   7143.00  5.0936394E-01
   7143.33  5.0469783E-01
   7143.67  5.0063021E-01
   7144.00  4.9717175E-01
   7144.33  4.9432552E-01
   7144.67  4.9188967E-01
   7145.00  4.8972095E-01
   7145.33  4.8767026E-01
   7145.67  4.8559920E-01
   7146.00  4.8344343E-01
   7146.33  4.8116388E-01
   7146.67  4.7878748E-01
   7147.00  4.7633900E-01
   7147.33  4.7383525E-01
   7147.67  4.7127481E-01
   7148.00  4.6862650E-01
   7148.33  4.6583518E-01
   7148.67  4.6289622E-01
   7149.00  4.5982004E-01
   7149.33  4.5664594E-01
   7149.67  4.5345213E-01
   7150.00  4.5028867E-01
   7150.33  4.4719779E-01
   7150.67  4.4417445E-01
   7151.00  4.4119898E-01
   7151.33  4.3823364E-01
   7151.67  4.3523569E-01
   7152.00  4.3217743E-01
   7152.33  4.2903601E-01
   7152.67  4.2583575E-01
   7153.00  4.2261268E-01
   7153.33  4.1942769E-01
   7153.67  4.1633742E-01
   7154.00  4.1339022E-01
   7154.33  4.1065699E-01
   7154.67  4.0815115E-01
   7155.00  4.0589938E-01
   7155.33  4.0396876E-01
   7155.67  4.0236072E-01
   7156.00  4.0111231E-01
   7156.33  4.0031966E-01
   7156.67  3.9997094E-01
   7157.00  4.0008323E-01
   7157.33  4.0069752E-01
   7157.67  4.0169517E-01
   7158.00  4.0298742E-01
   7158.33  4.0446661E-01
   7158.67  4.0597701E-01
   7159.00  4.0741542E-01
   7159.33  4.0867523E-01
   7159.67  4.0973395E-01
   7160.00  4.1059526E-01
   7160.33  4.1128836E-01
   7160.67  4.1191332E-01
   7161.00  4.1255621E-01
   7161.33  4.1334092E-01
   7161.67  4.1435905E-01
   7162.00  4.1569370E-01
   7162.33  4.1747041E-01
   7162.67  4.1968831E-01
   7163.00  4.2236409E-01
   7163.33  4.2554456E-01
   7163.67  4.2913646E-01
   7164.00  4.3308926E-01
   7164.33  4.3736443E-01
   7164.67  4.4184193E-01
   7165.00  4.4644675E-01
   7165.33  4.5109959E-01
   7165.67  4.5571901E-01
   7166.00  4.6024970E-01
   7166.33  4.6462348E-01
   7166.67  4.6882088E-01
   7167.00  4.7282027E-01
   7167.33  4.7658217E-01
   7167.67  4.8013032E-01
   7168.00  4.8346732E-01
   7168.33  4.8657260E-01
   7168.67  4.8947575E-01
   7169.00  4.9217682E-01
   7169.33  4.9464502E-01
   7169.67  4.9689617E-01
   7170.00  4.9891906E-01
   7170.33  5.0067037E-01
   7170.67  5.0216983E-01
   7171.00  5.0341337E-01
   7171.33  5.0437526E-01
   7171.67  5.0510970E-01
   7172.00  5.0565437E-01
