    FDMNES
    energy     <xanes>
   7097.00  5.1109396E-03
   7097.33  5.2386824E-03
   7097.67  5.3725021E-03
   7098.00  5.5128281E-03
   7098.33  5.6610985E-03
   7098.67  5.8170519E-03
   7099.00  5.9812812E-03
   7099.33  6.1556908E-03
   7099.67  6.3400234E-03
   7100.00  6.5351209E-03
   7100.33  6.7435771E-03
   7100.67  6.9651760E-03
   7101.00  7.2011541E-03
   7101.33  7.4551634E-03
   7101.67  7.7271121E-03
   7102.00  8.0188888E-03
   7102.33  8.3358470E-03
   7102.67  8.6782016E-03
   7103.00  9.0489785E-03
   7103.33  9.4564203E-03
   7103.67  9.9014691E-03
   7104.00  1.0389266E-02
   7104.33  1.0933302E-02
   7104.67  1.1536271E-02
   7105.00  1.2207575E-02
   7105.33  1.2971094E-02
   7105.67  1.3833985E-02
   7106.00  1.4815178E-02
   7106.33  1.5961540E-02
   7106.67  1.7292805E-02
   7107.00  1.8852363E-02
   7107.33  2.0746351E-02
   7107.67  2.3035909E-02
   7108.00  2.5840879E-02
   7108.33  2.9458132E-02
   7108.67  3.4122968E-02
   7109.00  4.0277072E-02
   7109.33  4.9084624E-02
   7109.67  6.1864208E-02
   7110.00  8.1192863E-02
   7110.33  1.1447983E-01
   7110.67  1.6972428E-01
   7111.00  2.4963797E-01
   7111.33  3.3462568E-01
   7111.67  4.0065504E-01
   7112.00  4.3815000E-01
   7112.33  4.4593436E-01
   7112.67  4.2637923E-01
   7113.00  3.7698881E-01
   7113.33  3.1013504E-01
   7113.67  2.5507951E-01
   7114.00  2.2277176E-01
   7114.33  2.0474556E-01
   7114.67  1.8088579E-01
   7115.00  1.5096132E-01
   7115.33  1.2690398E-01
   7115.67  1.1065768E-01
   7116.00  9.9377952E-02
   7116.33  9.2170223E-02
   7116.67  8.9367843E-02
   7117.00  9.1065024E-02
   7117.33  9.7289969E-02
   7117.67  1.0616052E-01
   7118.00  1.1534751E-01
   7118.33  1.2208730E-01
   7118.67  1.2679812E-01
   7119.00  1.3119441E-01
   7119.33  1.3748349E-01
   7119.67  1.4682467E-01
   7120.00  1.5976659E-01
   7120.33  1.7661632E-01
   7120.67  1.9603701E-01
   7121.00  2.1711970E-01
   7121.33  2.3983883E-01
   7121.67  2.6472592E-01
   7122.00  2.9243586E-01
   7122.33  3.2364135E-01
   7122.67  3.5787745E-01
   7123.00  3.9519214E-01
   7123.33  4.3654711E-01
   7123.67  4.8192039E-01
   7124.00  5.3056900E-01
   7124.33  5.7959085E-01
   7124.67  6.2455697E-01
   7125.00  6.6202576E-01
   7125.33  6.8831934E-01
   7125.67  7.0394169E-01
   7126.00  7.0935942E-01
   7126.33  7.0502833E-01
   7126.67  6.9413126E-01
   7127.00  6.7843557E-01
   7127.33  6.5924364E-01
   7127.67  6.3830614E-01
   7128.00  6.1670143E-01
   7128.33  5.9567588E-01
   7128.67  5.7613724E-01
   7129.00  5.5862858E-01
   7129.33  5.4367522E-01
   7129.67  5.3092733E-01
   7130.00  5.2023591E-01
   7130.33  5.1168220E-01
   7130.67  5.0491696E-01
   7131.00  4.9985984E-01
   7131.33  4.9660094E-01
   7131.67  4.9478840E-01
   7132.00  4.9425201E-01
   7132.33  4.9491066E-01
   7132.67  4.9648223E-01
   7133.00  4.9895512E-01
   7133.33  5.0257139E-01
   7133.67  5.0734579E-01
   7134.00  5.1332187E-01
   7134.33  5.2054292E-01
   7134.67  5.2864299E-01
   7135.00  5.3738312E-01
   7135.33  5.4657772E-01
   7135.67  5.5604097E-01
   7136.00  5.6572164E-01
   7136.33  5.7558631E-01
   7136.67  5.8552732E-01
   7137.00  5.9546824E-01
   7137.33  6.0534311E-01
   7137.67  6.1506714E-01
   7138.00  6.2443295E-01
   7138.33  6.3287512E-01
   7138.67  6.3982801E-01
   7139.00  6.4463227E-01
   7139.33  6.4626391E-01
   7139.67  6.4486633E-01
   7140.00  6.4071710E-01
   7140.33  6.3427352E-01
   7140.67  6.2670506E-01
   7141.00  6.1877322E-01
   7141.33  6.1121905E-01
   7141.67  6.0443331E-01
   7142.00  5.9858612E-01
   7142.33  5.9381721E-01
   7142.67  5.8990359E-01
   7143.00  5.8670910E-01
   7143.33  5.8413868E-01
   7143.67  5.8199127E-01
   7144.00  5.8019770E-01
   7144.33  5.7876894E-01
   7144.67  5.7766918E-01
   7145.00  5.7690462E-01
   7145.33  5.7649821E-01
   7145.67  5.7636552E-01
   7146.00  5.7645262E-01
   7146.33  5.7668979E-01
   7146.67  5.7695311E-01
   7147.00  5.7714577E-01
   7147.33  5.7714108E-01
   7147.67  5.7687478E-01
   7148.00  5.7629212E-01
   7148.33  5.7530839E-01
   7148.67  5.7395185E-01
   7149.00  5.7222441E-01
   7149.33  5.7009741E-01
   7149.67  5.6763903E-01
   7150.00  5.6487012E-01
   7150.33  5.6177185E-01
   7150.67  5.5838612E-01
   7151.00  5.5470498E-01
   7151.33  5.5066197E-01
   7151.67  5.4625870E-01
   7152.00  5.4146188E-01
   7152.33  5.3618212E-01
   7152.67  5.3044594E-01
   7153.00  5.2424225E-01
   7153.33  5.1751862E-01
   7153.67  5.1036344E-01
   7154.00  5.0282424E-01
   7154.33  4.9493065E-01
   7154.67  4.8680164E-01
   7155.00  4.7851082E-01
   7155.33  4.7013358E-01
   7155.67  4.6175993E-01
   7156.00  4.5345286E-01
   7156.33  4.4529134E-01
   7156.67  4.3730811E-01
   7157.00  4.2953349E-01
   7157.33  4.2201916E-01
   7157.67  4.1474868E-01
   7158.00  4.0772714E-01
   7158.33  4.0098701E-01
   7158.67  3.9449502E-01
   7159.00  3.8824864E-01
   7159.33  3.8227915E-01
   7159.67  3.7656123E-01
   7160.00  3.7110017E-01
   7160.33  3.6593742E-01
   7160.67  3.6105160E-01
   7161.00  3.5645498E-01
   7161.33  3.5220252E-01
   7161.67  3.4827440E-01
   7162.00  3.4468474E-01
   7162.33  3.4149074E-01
   7162.67  3.3865924E-01
   7163.00  3.3619685E-01
   7163.33  3.3415241E-01
   7163.67  3.3247613E-01
   7164.00  3.3116138E-01
   7164.33  3.3024031E-01
   7164.67  3.2965364E-01
   7165.00  3.2938553E-01
   7165.33  3.2945332E-01
   7165.67  3.2979917E-01
   7166.00  3.3040555E-01
   7166.33  3.3128246E-01
   7166.67  3.3238084E-01
   7167.00  3.3368572E-01
   7167.33  3.3520513E-01
   7167.67  3.3690087E-01
   7168.00  3.3876132E-01
   7168.33  3.4079243E-01
   7168.67  3.4296243E-01
   7169.00  3.4525993E-01
   7169.33  3.4768456E-01
   7169.67  3.5020525E-01
   7170.00  3.5280433E-01
   7170.33  3.5546250E-01
   7170.67  3.5813810E-01
   7171.00  3.6078778E-01
   7171.33  3.6331902E-01
   7171.67  3.6560857E-01
   7172.00  3.6748300E-01
