    FDMNES
    energy     <xanes>
   7097.00  4.9628283E-03
   7097.33  5.0786312E-03
   7097.67  5.1995780E-03
   7098.00  5.3260071E-03
   7098.33  5.4590921E-03
   7098.67  5.5985756E-03
   7099.00  5.7449138E-03
   7099.33  5.8996275E-03
   7099.67  6.0624468E-03
   7100.00  6.2340023E-03
   7100.33  6.4163120E-03
   7100.67  6.6091116E-03
   7101.00  6.8132984E-03
   7101.33  7.0316266E-03
   7101.67  7.2638789E-03
   7102.00  7.5113758E-03
   7102.33  7.7780065E-03
   7102.67  8.0636919E-03
   7103.00  8.3704572E-03
   7103.33  8.7040260E-03
   7103.67  9.0646645E-03
   7104.00  9.4556392E-03
   7104.33  9.8858215E-03
   7104.67  1.0356310E-02
   7105.00  1.0872723E-02
   7105.33  1.1449758E-02
   7105.67  1.2090584E-02
   7106.00  1.2805710E-02
   7106.33  1.3621761E-02
   7106.67  1.4547485E-02
   7107.00  1.5604969E-02
   7107.33  1.6848945E-02
   7107.67  1.8305468E-02
   7108.00  2.0029677E-02
   7108.33  2.2158177E-02
   7108.67  2.4784982E-02
   7109.00  2.8092033E-02
   7109.33  3.2553016E-02
   7109.67  3.8658703E-02
   7110.00  4.7369648E-02
   7110.33  6.1383431E-02
   7110.67  8.3208547E-02
   7111.00  1.1261491E-01
   7111.33  1.4409420E-01
   7111.67  1.8082121E-01
   7112.00  2.2409434E-01
   7112.33  2.6227708E-01
   7112.67  2.8550252E-01
   7113.00  3.0061649E-01
   7113.33  3.2511187E-01
   7113.67  3.6216947E-01
   7114.00  4.1006183E-01
   7114.33  4.5287845E-01
   7114.67  4.5152660E-01
   7115.00  3.9854478E-01
   7115.33  3.3498203E-01
   7115.67  2.9257981E-01
   7116.00  2.7319224E-01
   7116.33  2.6899577E-01
   7116.67  2.6761833E-01
   7117.00  2.6288136E-01
   7117.33  2.5155654E-01
   7117.67  2.3668033E-01
   7118.00  2.2121811E-01
   7118.33  2.0709050E-01
   7118.67  1.9436553E-01
   7119.00  1.8284923E-01
   7119.33  1.7253739E-01
   7119.67  1.6323491E-01
   7120.00  1.5490688E-01
   7120.33  1.4783990E-01
   7120.67  1.4220971E-01
   7121.00  1.3823461E-01
   7121.33  1.3632724E-01
   7121.67  1.3631180E-01
   7122.00  1.3804761E-01
   7122.33  1.4139691E-01
   7122.67  1.4579515E-01
   7123.00  1.5093584E-01
   7123.33  1.5665002E-01
   7123.67  1.6283838E-01
   7124.00  1.6972331E-01
   7124.33  1.7799618E-01
   7124.67  1.8807213E-01
   7125.00  2.0035115E-01
   7125.33  2.1599143E-01
   7125.67  2.3589030E-01
   7126.00  2.6078730E-01
   7126.33  2.9099840E-01
   7126.67  3.2385392E-01
   7127.00  3.5595430E-01
   7127.33  3.8241138E-01
   7127.67  4.0166106E-01
   7128.00  4.1436619E-01
   7128.33  4.2397489E-01
   7128.67  4.3594798E-01
   7129.00  4.5322746E-01
   7129.33  4.7775884E-01
   7129.67  5.0833999E-01
   7130.00  5.4403964E-01
   7130.33  5.8378478E-01
   7130.67  6.2559819E-01
   7131.00  6.6890346E-01
   7131.33  7.1445066E-01
   7131.67  7.6303013E-01
   7132.00  8.1532972E-01
   7132.33  8.7191851E-01
   7132.67  9.3156614E-01
   7133.00  9.9268916E-01
   7133.33  1.0506571E+00
   7133.67  1.0970891E+00
   7134.00  1.1210862E+00
   7134.33  1.1076545E+00
   7134.67  1.0609109E+00
   7135.00  9.9057859E-01
   7135.33  9.1052489E-01
   7135.67  8.3300137E-01
   7136.00  7.6261057E-01
   7136.33  7.0158973E-01
   7136.67  6.4825485E-01
   7137.00  6.0182894E-01
   7137.33  5.6220785E-01
   7137.67  5.2780943E-01
   7138.00  4.9798808E-01
   7138.33  4.7263898E-01
   7138.67  4.5087478E-01
   7139.00  4.3251642E-01
   7139.33  4.1787048E-01
   7139.67  4.0643183E-01
   7140.00  3.9807370E-01
   7140.33  3.9292724E-01
   7140.67  3.9034956E-01
   7141.00  3.9008060E-01
   7141.33  3.9208567E-01
   7141.67  3.9585922E-01
   7142.00  4.0121286E-01
   7142.33  4.0811609E-01
   7142.67  4.1618429E-01
   7143.00  4.2520366E-01
   7143.33  4.3494581E-01
   7143.67  4.4494767E-01
   7144.00  4.5483030E-01
   7144.33  4.6405890E-01
   7144.67  4.7228674E-01
   7145.00  4.7924679E-01
   7145.33  4.8461679E-01
   7145.67  4.8862906E-01
   7146.00  4.9147893E-01
   7146.33  4.9341731E-01
   7146.67  4.9497211E-01
   7147.00  4.9653130E-01
   7147.33  4.9857869E-01
   7147.67  5.0144554E-01
   7148.00  5.0542966E-01
   7148.33  5.1096427E-01
   7148.67  5.1804873E-01
   7149.00  5.2676276E-01
   7149.33  5.3727447E-01
   7149.67  5.4917294E-01
   7150.00  5.6213122E-01
   7150.33  5.7567978E-01
   7150.67  5.8911224E-01
   7151.00  6.0187878E-01
   7151.33  6.1329979E-01
   7151.67  6.2319090E-01
   7152.00  6.3143907E-01
   7152.33  6.3788150E-01
   7152.67  6.4287572E-01
   7153.00  6.4660067E-01
   7153.33  6.4914154E-01
   7153.67  6.5083003E-01
   7154.00  6.5181681E-01
   7154.33  6.5218566E-01
   7154.67  6.5213672E-01
   7155.00  6.5176904E-01
   7155.33  6.5115705E-01
   7155.67  6.5041403E-01
   7156.00  6.4959933E-01
   7156.33  6.4875986E-01
   7156.67  6.4792593E-01
   7157.00  6.4710269E-01
   7157.33  6.4627480E-01
   7157.67  6.4540982E-01
   7158.00  6.4447003E-01
   7158.33  6.4339103E-01
   7158.67  6.4213925E-01
   7159.00  6.4067544E-01
   7159.33  6.3892754E-01
   7159.67  6.3689374E-01
   7160.00  6.3455091E-01
   7160.33  6.3183572E-01
   7160.67  6.2877242E-01
   7161.00  6.2534942E-01
   7161.33  6.2150982E-01
   7161.67  6.1729304E-01
   7162.00  6.1269632E-01
   7162.33  6.0767237E-01
   7162.67  6.0227429E-01
   7163.00  5.9651513E-01
   7163.33  5.9037257E-01
   7163.67  5.8390886E-01
   7164.00  5.7714239E-01
   7164.33  5.7006226E-01
   7164.67  5.6273038E-01
   7165.00  5.5517216E-01
   7165.33  5.4739557E-01
   7165.67  5.3945937E-01
   7166.00  5.3139418E-01
   7166.33  5.2322867E-01
   7166.67  5.1501769E-01
   7167.00  5.0679990E-01
   7167.33  4.9862558E-01
   7167.67  4.9053492E-01
   7168.00  4.8256451E-01
   7168.33  4.7477339E-01
   7168.67  4.6717883E-01
   7169.00  4.5981155E-01
   7169.33  4.5273535E-01
   7169.67  4.4594802E-01
   7170.00  4.3947575E-01
   7170.33  4.3338844E-01
   7170.67  4.2767545E-01
   7171.00  4.2237638E-01
   7171.33  4.1762680E-01
   7171.67  4.1350185E-01
   7172.00  4.1017759E-01
