    FDMNES
    energy     <xanes>
   7097.00  4.2149529E-03
   7097.33  4.3081171E-03
   7097.67  4.4054462E-03
   7098.00  4.5072307E-03
   7098.33  4.6144500E-03
   7098.67  4.7269207E-03
   7099.00  4.8450447E-03
   7099.33  4.9701183E-03
   7099.67  5.1019625E-03
   7100.00  5.2411495E-03
   7100.33  5.3894462E-03
   7100.67  5.5467046E-03
   7101.00  5.7137682E-03
   7101.33  5.8931303E-03
   7101.67  6.0847329E-03
   7102.00  6.2898712E-03
   7102.33  6.5122130E-03
   7102.67  6.7519216E-03
   7103.00  7.0110856E-03
   7103.33  7.2953814E-03
   7103.67  7.6054964E-03
   7104.00  7.9450064E-03
   7104.33  8.3232692E-03
   7104.67  8.7422362E-03
   7105.00  9.2085081E-03
   7105.33  9.7388000E-03
   7105.67  1.0338301E-02
   7106.00  1.1020439E-02
   7106.33  1.1818385E-02
   7106.67  1.2746496E-02
   7107.00  1.3835904E-02
   7107.33  1.5162643E-02
   7107.67  1.6771369E-02
   7108.00  1.8748905E-02
   7108.33  2.1310089E-02
   7108.67  2.4626557E-02
   7109.00  2.9018816E-02
   7109.33  3.5328490E-02
   7109.67  4.4501699E-02
   7110.00  5.8379601E-02
   7110.33  8.2309886E-02
   7110.67  1.2289371E-01
   7111.00  1.8524034E-01
   7111.33  2.5816350E-01
   7111.67  3.3694347E-01
   7112.00  3.7828066E-01
   7112.33  2.9303431E-01
   7112.67  1.9396999E-01
   7113.00  1.3182955E-01
   7113.33  1.0092544E-01
   7113.67  8.4846866E-02
   7114.00  7.8048524E-02
   7114.33  7.8831620E-02
   7114.67  8.6439039E-02
   7115.00  1.0226829E-01
   7115.33  1.2682006E-01
   7115.67  1.5193180E-01
   7116.00  1.7627804E-01
   7116.33  1.9572057E-01
   7116.67  1.8991433E-01
   7117.00  1.6592933E-01
   7117.33  1.4386383E-01
   7117.67  1.2814336E-01
   7118.00  1.1585071E-01
   7118.33  1.0538339E-01
   7118.67  9.9136392E-02
   7119.00  9.7756704E-02
   7119.33  1.0041843E-01
   7119.67  1.0477762E-01
   7120.00  1.0889169E-01
   7120.33  1.1047692E-01
   7120.67  1.0934376E-01
   7121.00  1.0658563E-01
   7121.33  1.0450159E-01
   7121.67  1.0436970E-01
   7122.00  1.0617025E-01
   7122.33  1.0935943E-01
   7122.67  1.1316119E-01
   7123.00  1.1746828E-01
   7123.33  1.2244193E-01
   7123.67  1.2791025E-01
   7124.00  1.3364430E-01
   7124.33  1.3940738E-01
   7124.67  1.4505651E-01
   7125.00  1.5048009E-01
   7125.33  1.5543928E-01
   7125.67  1.5996382E-01
   7126.00  1.6436695E-01
   7126.33  1.6912114E-01
   7126.67  1.7426758E-01
   7127.00  1.7983814E-01
   7127.33  1.8651271E-01
   7127.67  1.9524012E-01
   7128.00  2.0700993E-01
   7128.33  2.2313342E-01
   7128.67  2.4334942E-01
   7129.00  2.6736775E-01
   7129.33  2.9487567E-01
   7129.67  3.2468733E-01
   7130.00  3.5632299E-01
   7130.33  3.9005876E-01
   7130.67  4.2658954E-01
   7131.00  4.6739028E-01
   7131.33  5.1538922E-01
   7131.67  5.7159628E-01
   7132.00  6.3643147E-01
   7132.33  7.0841349E-01
   7132.67  7.7984719E-01
   7133.00  8.4093050E-01
   7133.33  8.7713399E-01
   7133.67  8.8673111E-01
   7134.00  8.7417987E-01
   7134.33  8.4757618E-01
   7134.67  8.1644723E-01
   7135.00  7.8466942E-01
   7135.33  7.5473781E-01
   7135.67  7.2770702E-01
   7136.00  7.0430110E-01
   7136.33  6.8552540E-01
   7136.67  6.7096275E-01
   7137.00  6.6041758E-01
   7137.33  6.5383106E-01
   7137.67  6.5011200E-01
   7138.00  6.4874382E-01
   7138.33  6.4944165E-01
   7138.67  6.5155674E-01
   7139.00  6.5479869E-01
   7139.33  6.5897691E-01
   7139.67  6.6375990E-01
   7140.00  6.6903933E-01
   7140.33  6.7479534E-01
   7140.67  6.8093987E-01
   7141.00  6.8744116E-01
   7141.33  6.9427009E-01
   7141.67  7.0127116E-01
   7142.00  7.0828816E-01
   7142.33  7.1506013E-01
   7142.67  7.2134139E-01
   7143.00  7.2688339E-01
   7143.33  7.3128367E-01
   7143.67  7.3443826E-01
   7144.00  7.3619346E-01
   7144.33  7.3625993E-01
   7144.67  7.3485125E-01
   7145.00  7.3208835E-01
   7145.33  7.2800132E-01
   7145.67  7.2291855E-01
   7146.00  7.1701379E-01
   7146.33  7.1043176E-01
   7146.67  7.0346982E-01
   7147.00  6.9631041E-01
   7147.33  6.8914925E-01
   7147.67  6.8216135E-01
   7148.00  6.7547891E-01
   7148.33  6.6928880E-01
   7148.67  6.6364439E-01
   7149.00  6.5861872E-01
   7149.33  6.5435700E-01
   7149.67  6.5080609E-01
   7150.00  6.4796875E-01
   7150.33  6.4590293E-01
   7150.67  6.4446051E-01
   7151.00  6.4356035E-01
   7151.33  6.4313008E-01
   7151.67  6.4296616E-01
   7152.00  6.4292380E-01
   7152.33  6.4281855E-01
   7152.67  6.4248185E-01
   7153.00  6.4177798E-01
   7153.33  6.4053983E-01
   7153.67  6.3879514E-01
   7154.00  6.3653868E-01
   7154.33  6.3371038E-01
   7154.67  6.3040449E-01
   7155.00  6.2666604E-01
   7155.33  6.2251197E-01
   7155.67  6.1805346E-01
   7156.00  6.1334223E-01
   7156.33  6.0840458E-01
   7156.67  6.0330676E-01
   7157.00  5.9807639E-01
   7157.33  5.9272436E-01
   7157.67  5.8728221E-01
   7158.00  5.8176226E-01
   7158.33  5.7616798E-01
   7158.67  5.7051799E-01
   7159.00  5.6482147E-01
   7159.33  5.5908418E-01
   7159.67  5.5332114E-01
   7160.00  5.4754303E-01
   7160.33  5.4176365E-01
   7160.67  5.3599715E-01
   7161.00  5.3025528E-01
   7161.33  5.2455563E-01
   7161.67  5.1890464E-01
   7162.00  5.1331019E-01
   7162.33  5.0778729E-01
   7162.67  5.0233292E-01
   7163.00  4.9694918E-01
   7163.33  4.9164351E-01
   7163.67  4.8640259E-01
   7164.00  4.8122047E-01
   7164.33  4.7609386E-01
   7164.67  4.7100486E-01
   7165.00  4.6594195E-01
   7165.33  4.6089257E-01
   7165.67  4.5584248E-01
   7166.00  4.5078303E-01
   7166.33  4.4570552E-01
   7166.67  4.4060965E-01
   7167.00  4.3549747E-01
   7167.33  4.3037556E-01
   7167.67  4.2525888E-01
   7168.00  4.2016429E-01
   7168.33  4.1512146E-01
   7168.67  4.1015184E-01
   7169.00  4.0528054E-01
   7169.33  4.0055420E-01
   7169.67  3.9598837E-01
   7170.00  3.9161126E-01
   7170.33  3.8748465E-01
   7170.67  3.8361721E-01
   7171.00  3.8004519E-01
   7171.33  3.7686828E-01
   7171.67  3.7412965E-01
   7172.00  3.7193230E-01
