    FDMNES
    energy     <xanes>
   7097.00  5.2235876E-03
   7097.33  5.3467439E-03
   7097.67  5.4754763E-03
   7098.00  5.6101593E-03
   7098.33  5.7520780E-03
   7098.67  5.9009640E-03
   7099.00  6.0573252E-03
   7099.33  6.2228364E-03
   7099.67  6.3972197E-03
   7100.00  6.5811821E-03
   7100.33  6.7769611E-03
   7100.67  6.9842924E-03
   7101.00  7.2041896E-03
   7101.33  7.4397317E-03
   7101.67  7.6907194E-03
   7102.00  7.9586591E-03
   7102.33  8.2479403E-03
   7102.67  8.5585439E-03
   7103.00  8.8928064E-03
   7103.33  9.2572641E-03
   7103.67  9.6523391E-03
   7104.00  1.0081853E-02
   7104.33  1.0556086E-02
   7104.67  1.1076522E-02
   7105.00  1.1649851E-02
   7105.33  1.2293417E-02
   7105.67  1.3011378E-02
   7106.00  1.3816524E-02
   7106.33  1.4741032E-02
   7106.67  1.5796389E-02
   7107.00  1.7010255E-02
   7107.33  1.8450902E-02
   7107.67  2.0153163E-02
   7108.00  2.2188743E-02
   7108.33  2.4735474E-02
   7108.67  2.7923198E-02
   7109.00  3.2000528E-02
   7109.33  3.7619937E-02
   7109.67  4.5489929E-02
   7110.00  5.6999359E-02
   7110.33  7.6069781E-02
   7110.67  1.0626926E-01
   7111.00  1.4659567E-01
   7111.33  1.8788940E-01
   7111.67  2.3064573E-01
   7112.00  2.7426449E-01
   7112.33  3.0797553E-01
   7112.67  3.2377812E-01
   7113.00  3.2668448E-01
   7113.33  3.3031023E-01
   7113.67  3.4947814E-01
   7114.00  3.8499207E-01
   7114.33  4.1194191E-01
   7114.67  4.1034776E-01
   7115.00  3.8569157E-01
   7115.33  3.5592840E-01
   7115.67  3.3420903E-01
   7116.00  3.2328380E-01
   7116.33  3.1944682E-01
   7116.67  3.1148629E-01
   7117.00  2.9164305E-01
   7117.33  2.6039121E-01
   7117.67  2.2844243E-01
   7118.00  2.0129139E-01
   7118.33  1.8073433E-01
   7118.67  1.6471643E-01
   7119.00  1.5208473E-01
   7119.33  1.4221145E-01
   7119.67  1.3424395E-01
   7120.00  1.2799932E-01
   7120.33  1.2367534E-01
   7120.67  1.2111338E-01
   7121.00  1.2037440E-01
   7121.33  1.2178768E-01
   7121.67  1.2517179E-01
   7122.00  1.3048970E-01
   7122.33  1.3797922E-01
   7122.67  1.4766973E-01
   7123.00  1.6000400E-01
   7123.33  1.7593539E-01
   7123.67  1.9537911E-01
   7124.00  2.1816215E-01
   7124.33  2.4359994E-01
   7124.67  2.6961293E-01
   7125.00  2.9445753E-01
   7125.33  3.1646408E-01
   7125.67  3.3601162E-01
   7126.00  3.5421909E-01
   7126.33  3.7291174E-01
   7126.67  3.9332794E-01
   7127.00  4.1564052E-01
   7127.33  4.3892252E-01
   7127.67  4.6131007E-01
   7128.00  4.8156312E-01
   7128.33  4.9886875E-01
   7128.67  5.1415276E-01
   7129.00  5.2851728E-01
   7129.33  5.4347518E-01
   7129.67  5.6011762E-01
   7130.00  5.7892823E-01
   7130.33  6.0000065E-01
   7130.67  6.2227243E-01
   7131.00  6.4481642E-01
   7131.33  6.6667388E-01
   7131.67  6.8757805E-01
   7132.00  7.0763010E-01
   7132.33  7.2704041E-01
   7132.67  7.4620775E-01
   7133.00  7.6564727E-01
   7133.33  7.8675566E-01
   7133.67  8.1109482E-01
   7134.00  8.3996545E-01
   7134.33  8.7380297E-01
   7134.67  9.0837572E-01
   7135.00  9.3683760E-01
   7135.33  9.4698299E-01
   7135.67  9.3436562E-01
   7136.00  9.0023383E-01
   7136.33  8.5053889E-01
   7136.67  7.9590598E-01
   7137.00  7.4200385E-01
   7137.33  6.9318330E-01
   7137.67  6.5049509E-01
   7138.00  6.1433824E-01
   7138.33  5.8538993E-01
   7138.67  5.6237749E-01
   7139.00  5.4475760E-01
   7139.33  5.3241066E-01
   7139.67  5.2401577E-01
   7140.00  5.1895029E-01
   7140.33  5.1685219E-01
   7140.67  5.1674248E-01
   7141.00  5.1808712E-01
   7141.33  5.2037076E-01
   7141.67  5.2286010E-01
   7142.00  5.2502174E-01
   7142.33  5.2618532E-01
   7142.67  5.2605189E-01
   7143.00  5.2444682E-01
   7143.33  5.2121468E-01
   7143.67  5.1676958E-01
   7144.00  5.1141628E-01
   7144.33  5.0548779E-01
   7144.67  4.9942475E-01
   7145.00  4.9348996E-01
   7145.33  4.8792912E-01
   7145.67  4.8282918E-01
   7146.00  4.7827274E-01
   7146.33  4.7441321E-01
   7146.67  4.7123233E-01
   7147.00  4.6877092E-01
   7147.33  4.6716241E-01
   7147.67  4.6634242E-01
   7148.00  4.6633068E-01
   7148.33  4.6724483E-01
   7148.67  4.6898614E-01
   7149.00  4.7154816E-01
   7149.33  4.7500976E-01
   7149.67  4.7923385E-01
   7150.00  4.8417401E-01
   7150.33  4.8983134E-01
   7150.67  4.9602337E-01
   7151.00  5.0265485E-01
   7151.33  5.0964507E-01
   7151.67  5.1682265E-01
   7152.00  5.2407048E-01
   7152.33  5.3124399E-01
   7152.67  5.3821951E-01
   7153.00  5.4489504E-01
   7153.33  5.5112401E-01
   7153.67  5.5688545E-01
   7154.00  5.6214048E-01
   7154.33  5.6680342E-01
   7154.67  5.7094425E-01
   7155.00  5.7458161E-01
   7155.33  5.7769141E-01
   7155.67  5.8037567E-01
   7156.00  5.8267516E-01
   7156.33  5.8459618E-01
   7156.67  5.8622748E-01
   7157.00  5.8760652E-01
   7157.33  5.8874687E-01
   7157.67  5.8971067E-01
   7158.00  5.9052451E-01
   7158.33  5.9119954E-01
   7158.67  5.9177352E-01
   7159.00  5.9226285E-01
   7159.33  5.9267446E-01
   7159.67  5.9302720E-01
   7160.00  5.9332756E-01
   7160.33  5.9357609E-01
   7160.67  5.9378126E-01
   7161.00  5.9394204E-01
   7161.33  5.9404567E-01
   7161.67  5.9408577E-01
   7162.00  5.9404929E-01
   7162.33  5.9390636E-01
   7162.67  5.9364526E-01
   7163.00  5.9324183E-01
   7163.33  5.9264561E-01
   7163.67  5.9184838E-01
   7164.00  5.9082017E-01
   7164.33  5.8948854E-01
   7164.67  5.8784786E-01
   7165.00  5.8586621E-01
   7165.33  5.8346302E-01
   7165.67  5.8065694E-01
   7166.00  5.7743023E-01
   7166.33  5.7371660E-01
   7166.67  5.6956661E-01
   7167.00  5.6498398E-01
   7167.33  5.5992982E-01
   7167.67  5.5448089E-01
   7168.00  5.4866609E-01
   7168.33  5.4248541E-01
   7168.67  5.3602886E-01
   7169.00  5.2934887E-01
   7169.33  5.2249552E-01
   7169.67  5.1555889E-01
   7170.00  5.0860277E-01
   7170.33  5.0171725E-01
   7170.67  4.9499115E-01
   7171.00  4.8852739E-01
   7171.33  4.8254572E-01
   7171.67  4.7725428E-01
   7172.00  4.7296850E-01
