    FDMNES
    energy     <xanes>
   7097.00  5.2819364E-03
   7097.33  5.4192505E-03
   7097.67  5.5634132E-03
   7098.00  5.7149277E-03
   7098.33  5.8754463E-03
   7098.67  6.0447002E-03
   7099.00  6.2233894E-03
   7099.33  6.4137227E-03
   7099.67  6.6154435E-03
   7100.00  6.8295540E-03
   7100.33  7.0590921E-03
   7100.67  7.3038614E-03
   7101.00  7.5653457E-03
   7101.33  7.8478658E-03
   7101.67  8.1513913E-03
   7102.00  8.4782074E-03
   7102.33  8.8347144E-03
   7102.67  9.2212803E-03
   7103.00  9.6415986E-03
   7103.33  1.0105629E-02
   7103.67  1.0614676E-02
   7104.00  1.1175071E-02
   7104.33  1.1803300E-02
   7104.67  1.2502912E-02
   7105.00  1.3285604E-02
   7105.33  1.4180903E-02
   7105.67  1.5198102E-02
   7106.00  1.6361004E-02
   7106.33  1.7728320E-02
   7106.67  1.9325624E-02
   7107.00  2.1208167E-02
   7107.33  2.3510860E-02
   7107.67  2.6313401E-02
   7108.00  2.9770612E-02
   7108.33  3.4266198E-02
   7108.67  4.0109928E-02
   7109.00  4.7881466E-02
   7109.33  5.9111577E-02
   7109.67  7.5553440E-02
   7110.00  1.0063534E-01
   7110.33  1.4429039E-01
   7110.67  2.1793622E-01
   7111.00  3.2807544E-01
   7111.33  4.4813591E-01
   7111.67  5.2213765E-01
   7112.00  5.2623308E-01
   7112.33  4.7981781E-01
   7112.67  4.2172040E-01
   7113.00  3.6993745E-01
   7113.33  3.2960837E-01
   7113.67  2.9248965E-01
   7114.00  2.5468379E-01
   7114.33  2.2044723E-01
   7114.67  1.9532585E-01
   7115.00  1.8115622E-01
   7115.33  1.7809828E-01
   7115.67  1.8060087E-01
   7116.00  1.8244267E-01
   7116.33  1.7814384E-01
   7116.67  1.7033552E-01
   7117.00  1.6246709E-01
   7117.33  1.5685845E-01
   7117.67  1.5352106E-01
   7118.00  1.5225995E-01
   7118.33  1.5321212E-01
   7118.67  1.5600350E-01
   7119.00  1.6031676E-01
   7119.33  1.6549552E-01
   7119.67  1.7026442E-01
   7120.00  1.7386413E-01
   7120.33  1.7678072E-01
   7120.67  1.8075456E-01
   7121.00  1.8705892E-01
   7121.33  1.9685006E-01
   7121.67  2.0954618E-01
   7122.00  2.2423001E-01
   7122.33  2.4010226E-01
   7122.67  2.5701424E-01
   7123.00  2.7521203E-01
   7123.33  2.9484406E-01
   7123.67  3.1537724E-01
   7124.00  3.3626385E-01
   7124.33  3.5705552E-01
   7124.67  3.7781145E-01
   7125.00  3.9826294E-01
   7125.33  4.1664143E-01
   7125.67  4.3084148E-01
   7126.00  4.3953740E-01
   7126.33  4.4206877E-01
   7126.67  4.3979887E-01
   7127.00  4.3355746E-01
   7127.33  4.2522511E-01
   7127.67  4.1810980E-01
   7128.00  4.1454577E-01
   7128.33  4.1663040E-01
   7128.67  4.2394678E-01
   7129.00  4.3616454E-01
   7129.33  4.5320400E-01
   7129.67  4.7348114E-01
   7130.00  4.9554419E-01
   7130.33  5.1727036E-01
   7130.67  5.3698807E-01
   7131.00  5.5422113E-01
   7131.33  5.6958694E-01
   7131.67  5.8482508E-01
   7132.00  6.0085404E-01
   7132.33  6.1763194E-01
   7132.67  6.3366651E-01
   7133.00  6.4711866E-01
   7133.33  6.5529445E-01
   7133.67  6.5753495E-01
   7134.00  6.5387321E-01
   7134.33  6.4494997E-01
   7134.67  6.3314921E-01
   7135.00  6.1985209E-01
   7135.33  6.0603710E-01
   7135.67  5.9220347E-01
   7136.00  5.7847151E-01
   7136.33  5.6503842E-01
   7136.67  5.5226382E-01
   7137.00  5.4066916E-01
   7137.33  5.3115839E-01
   7137.67  5.2406291E-01
   7138.00  5.1968904E-01
   7138.33  5.1852422E-01
   7138.67  5.2012980E-01
   7139.00  5.2429187E-01
   7139.33  5.3088246E-01
   7139.67  5.3909678E-01
   7140.00  5.4840391E-01
   7140.33  5.5823979E-01
   7140.67  5.6801518E-01
   7141.00  5.7740162E-01
   7141.33  5.8608447E-01
   7141.67  5.9402763E-01
   7142.00  6.0120535E-01
   7142.33  6.0755810E-01
   7142.67  6.1326290E-01
   7143.00  6.1842626E-01
   7143.33  6.2314592E-01
   7143.67  6.2761939E-01
   7144.00  6.3195598E-01
   7144.33  6.3624271E-01
   7144.67  6.4053596E-01
   7145.00  6.4484905E-01
   7145.33  6.4917173E-01
   7145.67  6.5347099E-01
   7146.00  6.5770775E-01
   7146.33  6.6181102E-01
   7146.67  6.6572743E-01
   7147.00  6.6938781E-01
   7147.33  6.7266861E-01
   7147.67  6.7554913E-01
   7148.00  6.7798012E-01
   7148.33  6.7984416E-01
   7148.67  6.8117028E-01
   7149.00  6.8195178E-01
   7149.33  6.8213931E-01
   7149.67  6.8183383E-01
   7150.00  6.8107432E-01
   7150.33  6.7986003E-01
   7150.67  6.7829071E-01
   7151.00  6.7640499E-01
   7151.33  6.7420711E-01
   7151.67  6.7176468E-01
   7152.00  6.6910258E-01
   7152.33  6.6622295E-01
   7152.67  6.6317431E-01
   7153.00  6.5997556E-01
   7153.33  6.5662697E-01
   7153.67  6.5315389E-01
   7154.00  6.4955560E-01
   7154.33  6.4580262E-01
   7154.67  6.4188744E-01
   7155.00  6.3778082E-01
   7155.33  6.3341441E-01
   7155.67  6.2877715E-01
   7156.00  6.2383835E-01
   7156.33  6.1852816E-01
   7156.67  6.1286980E-01
   7157.00  6.0685643E-01
   7157.33  6.0044296E-01
   7157.67  5.9367795E-01
   7158.00  5.8656591E-01
   7158.33  5.7906860E-01
   7158.67  5.7123495E-01
   7159.00  5.6307542E-01
   7159.33  5.5457611E-01
   7159.67  5.4581806E-01
   7160.00  5.3685871E-01
   7160.33  5.2777668E-01
   7160.67  5.1870175E-01
   7161.00  5.0974123E-01
   7161.33  5.0104151E-01
   7161.67  4.9267143E-01
   7162.00  4.8469206E-01
   7162.33  4.7719607E-01
   7162.67  4.7013559E-01
   7163.00  4.6349350E-01
   7163.33  4.5727740E-01
   7163.67  4.5138763E-01
   7164.00  4.4577529E-01
   7164.33  4.4041183E-01
   7164.67  4.3522096E-01
   7165.00  4.3017029E-01
   7165.33  4.2524742E-01
   7165.67  4.2042395E-01
   7166.00  4.1569714E-01
   7166.33  4.1108306E-01
   7166.67  4.0657534E-01
   7167.00  4.0218029E-01
   7167.33  3.9791848E-01
   7167.67  3.9377524E-01
   7168.00  3.8974700E-01
   7168.33  3.8584087E-01
   7168.67  3.8203810E-01
   7169.00  3.7833785E-01
   7169.33  3.7475878E-01
   7169.67  3.7130081E-01
   7170.00  3.6798281E-01
   7170.33  3.6485624E-01
   7170.67  3.6193759E-01
   7171.00  3.5926423E-01
   7171.33  3.5692207E-01
   7171.67  3.5493284E-01
   7172.00  3.5335128E-01
