    FDMNES
    energy     <xanes>
   7097.00  5.0363611E-03
   7097.33  5.1530655E-03
   7097.67  5.2749836E-03
   7098.00  5.4024630E-03
   7098.33  5.5367014E-03
   7098.67  5.6774446E-03
   7099.00  5.8251639E-03
   7099.33  5.9814182E-03
   7099.67  6.1459444E-03
   7100.00  6.3193982E-03
   7100.33  6.5038601E-03
   7100.67  6.6990795E-03
   7101.00  6.9059966E-03
   7101.33  7.1274722E-03
   7101.67  7.3633162E-03
   7102.00  7.6149262E-03
   7102.33  7.8863794E-03
   7102.67  8.1776542E-03
   7103.00  8.4909198E-03
   7103.33  8.8322487E-03
   7103.67  9.2020326E-03
   7104.00  9.6038244E-03
   7104.33  1.0047182E-02
   7104.67  1.0533497E-02
   7105.00  1.1068999E-02
   7105.33  1.1669846E-02
   7105.67  1.2339945E-02
   7106.00  1.3091251E-02
   7106.33  1.3953830E-02
   7106.67  1.4938521E-02
   7107.00  1.6071295E-02
   7107.33  1.7416252E-02
   7107.67  1.9006422E-02
   7108.00  2.0909567E-02
   7108.33  2.3293807E-02
   7108.67  2.6282978E-02
   7109.00  3.0113809E-02
   7109.33  3.5408081E-02
   7109.67  4.2844752E-02
   7110.00  5.3756426E-02
   7110.33  7.1954093E-02
   7110.67  1.0135611E-01
   7111.00  1.4243163E-01
   7111.33  1.8216648E-01
   7111.67  2.1241764E-01
   7112.00  2.3917390E-01
   7112.33  2.6700407E-01
   7112.67  2.9027637E-01
   7113.00  3.0898404E-01
   7113.33  3.3142661E-01
   7113.67  3.5853295E-01
   7114.00  3.7790579E-01
   7114.33  3.7154401E-01
   7114.67  3.4648746E-01
   7115.00  3.1475484E-01
   7115.33  2.8784047E-01
   7115.67  2.7008542E-01
   7116.00  2.6178461E-01
   7116.33  2.6157663E-01
   7116.67  2.6551910E-01
   7117.00  2.7025507E-01
   7117.33  2.6664573E-01
   7117.67  2.4787620E-01
   7118.00  2.1734370E-01
   7118.33  1.8620693E-01
   7118.67  1.6140279E-01
   7119.00  1.4387660E-01
   7119.33  1.3305581E-01
   7119.67  1.2634235E-01
   7120.00  1.2244541E-01
   7120.33  1.2094590E-01
   7120.67  1.2142950E-01
   7121.00  1.2350501E-01
   7121.33  1.2635479E-01
   7121.67  1.2960536E-01
   7122.00  1.3389278E-01
   7122.33  1.4047960E-01
   7122.67  1.4984324E-01
   7123.00  1.6210007E-01
   7123.33  1.7662233E-01
   7123.67  1.9178640E-01
   7124.00  2.0715773E-01
   7124.33  2.2335613E-01
   7124.67  2.4096926E-01
   7125.00  2.6016292E-01
   7125.33  2.8079104E-01
   7125.67  3.0236510E-01
   7126.00  3.2501232E-01
   7126.33  3.4951307E-01
   7126.67  3.7619998E-01
   7127.00  4.0528583E-01
   7127.33  4.3737687E-01
   7127.67  4.7221348E-01
   7128.00  5.0878908E-01
   7128.33  5.4346637E-01
   7128.67  5.7147085E-01
   7129.00  5.9029855E-01
   7129.33  6.0161091E-01
   7129.67  6.1225396E-01
   7130.00  6.2542071E-01
   7130.33  6.4003293E-01
   7130.67  6.5305977E-01
   7131.00  6.6460924E-01
   7131.33  6.7753569E-01
   7131.67  6.9348035E-01
   7132.00  7.1182070E-01
   7132.33  7.3022768E-01
   7132.67  7.4663898E-01
   7133.00  7.6065416E-01
   7133.33  7.7288923E-01
   7133.67  7.8398225E-01
   7134.00  7.9277414E-01
   7134.33  7.9585638E-01
   7134.67  7.9172458E-01
   7135.00  7.8024793E-01
   7135.33  7.6195147E-01
   7135.67  7.3966042E-01
   7136.00  7.1552860E-01
   7136.33  6.9197565E-01
   7136.67  6.7060072E-01
   7137.00  6.5221863E-01
   7137.33  6.3766130E-01
   7137.67  6.2651553E-01
   7138.00  6.1859407E-01
   7138.33  6.1391411E-01
   7138.67  6.1171574E-01
   7139.00  6.1164502E-01
   7139.33  6.1349302E-01
   7139.67  6.1658621E-01
   7140.00  6.2046252E-01
   7140.33  6.2447578E-01
   7140.67  6.2780670E-01
   7141.00  6.2969753E-01
   7141.33  6.2905385E-01
   7141.67  6.2564329E-01
   7142.00  6.1941808E-01
   7142.33  6.1051879E-01
   7142.67  6.0003092E-01
   7143.00  5.8870969E-01
   7143.33  5.7736035E-01
   7143.67  5.6662116E-01
   7144.00  5.5687153E-01
   7144.33  5.4853252E-01
   7144.67  5.4155193E-01
   7145.00  5.3591392E-01
   7145.33  5.3164702E-01
   7145.67  5.2838203E-01
   7146.00  5.2587929E-01
   7146.33  5.2387764E-01
   7146.67  5.2200378E-01
   7147.00  5.2002519E-01
   7147.33  5.1772932E-01
   7147.67  5.1510601E-01
   7148.00  5.1222120E-01
   7148.33  5.0922417E-01
   7148.67  5.0633288E-01
   7149.00  5.0372351E-01
   7149.33  5.0162469E-01
   7149.67  5.0009717E-01
   7150.00  4.9919505E-01
   7150.33  4.9901222E-01
   7150.67  4.9944537E-01
   7151.00  5.0045659E-01
   7151.33  5.0205365E-01
   7151.67  5.0410615E-01
   7152.00  5.0655610E-01
   7152.33  5.0937895E-01
   7152.67  5.1247058E-01
   7153.00  5.1577917E-01
   7153.33  5.1926543E-01
   7153.67  5.2285113E-01
   7154.00  5.2648534E-01
   7154.33  5.3010615E-01
   7154.67  5.3365434E-01
   7155.00  5.3707831E-01
   7155.33  5.4029622E-01
   7155.67  5.4327340E-01
   7156.00  5.4596153E-01
   7156.33  5.4826239E-01
   7156.67  5.5016473E-01
   7157.00  5.5162298E-01
   7157.33  5.5252453E-01
   7157.67  5.5288489E-01
   7158.00  5.5266981E-01
   7158.33  5.5177236E-01
   7158.67  5.5024969E-01
   7159.00  5.4809902E-01
   7159.33  5.4526016E-01
   7159.67  5.4184517E-01
   7160.00  5.3789832E-01
   7160.33  5.3342841E-01
   7160.67  5.2857413E-01
   7161.00  5.2341370E-01
   7161.33  5.1802031E-01
   7161.67  5.1252049E-01
   7162.00  5.0699856E-01
   7162.33  5.0156777E-01
   7162.67  4.9632778E-01
   7163.00  4.9136879E-01
   7163.33  4.8682907E-01
   7163.67  4.8273679E-01
   7164.00  4.7914074E-01
   7164.33  4.7614206E-01
   7164.67  4.7368349E-01
   7165.00  4.7175328E-01
   7165.33  4.7037828E-01
   7165.67  4.6944198E-01
   7166.00  4.6888562E-01
   7166.33  4.6867224E-01
   7166.67  4.6868854E-01
   7167.00  4.6886808E-01
   7167.33  4.6914443E-01
   7167.67  4.6943796E-01
   7168.00  4.6969864E-01
   7168.33  4.6986907E-01
   7168.67  4.6992443E-01
   7169.00  4.6984535E-01
   7169.33  4.6960484E-01
   7169.67  4.6922628E-01
   7170.00  4.6872404E-01
   7170.33  4.6811156E-01
   7170.67  4.6743441E-01
   7171.00  4.6672567E-01
   7171.33  4.6603040E-01
   7171.67  4.6539848E-01
   7172.00  4.6487952E-01
