    FDMNES
    energy     <xanes>
   7097.00  4.1914148E-03
   7097.33  4.2750527E-03
   7097.67  4.3618825E-03
   7098.00  4.4520961E-03
   7098.33  4.5463927E-03
   7098.67  4.6445908E-03
   7099.00  4.7469477E-03
   7099.33  4.8543571E-03
   7099.67  4.9666297E-03
   7100.00  5.0841207E-03
   7100.33  5.2080040E-03
   7100.67  5.3380944E-03
   7101.00  5.4748993E-03
   7101.33  5.6200120E-03
   7101.67  5.7732795E-03
   7102.00  5.9354558E-03
   7102.33  6.1087926E-03
   7102.67  6.2932316E-03
   7103.00  6.4899498E-03
   7103.33  6.7022907E-03
   7103.67  6.9304361E-03
   7104.00  7.1763353E-03
   7104.33  7.4452723E-03
   7104.67  7.7380213E-03
   7105.00  8.0580613E-03
   7105.33  8.4144320E-03
   7105.67  8.8094293E-03
   7106.00  9.2498875E-03
   7106.33  9.7529778E-03
   7106.67  1.0325263E-02
   7107.00  1.0982029E-02
   7107.33  1.1760947E-02
   7107.67  1.2682490E-02
   7108.00  1.3787846E-02
   7108.33  1.5179259E-02
   7108.67  1.6935136E-02
   7109.00  1.9204119E-02
   7109.33  2.2378074E-02
   7109.67  2.6895640E-02
   7110.00  3.3615133E-02
   7110.33  4.4952511E-02
   7110.67  6.2958007E-02
   7111.00  8.6359371E-02
   7111.33  1.1066947E-01
   7111.67  1.3948797E-01
   7112.00  1.6618665E-01
   7112.33  1.7991285E-01
   7112.67  1.9392941E-01
   7113.00  2.0361308E-01
   7113.33  1.7298050E-01
   7113.67  1.3105589E-01
   7114.00  9.9479741E-02
   7114.33  8.0250053E-02
   7114.67  6.7929206E-02
   7115.00  5.8643303E-02
   7115.33  5.0804363E-02
   7115.67  4.5178511E-02
   7116.00  4.1667731E-02
   7116.33  3.9881503E-02
   7116.67  3.9218326E-02
   7117.00  3.9488776E-02
   7117.33  4.0626271E-02
   7117.67  4.2255873E-02
   7118.00  4.4022359E-02
   7118.33  4.5703250E-02
   7118.67  4.7526154E-02
   7119.00  4.9810733E-02
   7119.33  5.2940391E-02
   7119.67  5.7016539E-02
   7120.00  6.2186354E-02
   7120.33  6.8813285E-02
   7120.67  7.6996499E-02
   7121.00  8.7017335E-02
   7121.33  9.9552017E-02
   7121.67  1.1477467E-01
   7122.00  1.3308756E-01
   7122.33  1.5536661E-01
   7122.67  1.8151206E-01
   7123.00  2.1167148E-01
   7123.33  2.4623921E-01
   7123.67  2.8428368E-01
   7124.00  3.2517966E-01
   7124.33  3.6835249E-01
   7124.67  4.1242943E-01
   7125.00  4.5547581E-01
   7125.33  4.9355196E-01
   7125.67  5.2575881E-01
   7126.00  5.5483846E-01
   7126.33  5.8603614E-01
   7126.67  6.2008109E-01
   7127.00  6.5343970E-01
   7127.33  6.8078883E-01
   7127.67  7.0178959E-01
   7128.00  7.1829193E-01
   7128.33  7.3189629E-01
   7128.67  7.4240370E-01
   7129.00  7.4832622E-01
   7129.33  7.4838068E-01
   7129.67  7.4436527E-01
   7130.00  7.3807581E-01
   7130.33  7.3175923E-01
   7130.67  7.2738131E-01
   7131.00  7.2620262E-01
   7131.33  7.2966354E-01
   7131.67  7.3762885E-01
   7132.00  7.5000764E-01
   7132.33  7.6662999E-01
   7132.67  7.8569891E-01
   7133.00  8.0547835E-01
   7133.33  8.2319451E-01
   7133.67  8.3661159E-01
   7134.00  8.4439782E-01
   7134.33  8.4553371E-01
   7134.67  8.4127660E-01
   7135.00  8.3238338E-01
   7135.33  8.1969545E-01
   7135.67  8.0490576E-01
   7136.00  7.8880589E-01
   7136.33  7.7190085E-01
   7136.67  7.5467859E-01
   7137.00  7.3740016E-01
   7137.33  7.2032426E-01
   7137.67  7.0360583E-01
   7138.00  6.8736797E-01
   7138.33  6.7182037E-01
   7138.67  6.5702590E-01
   7139.00  6.4311170E-01
   7139.33  6.3034898E-01
   7139.67  6.1872963E-01
   7140.00  6.0832536E-01
   7140.33  5.9933000E-01
   7140.67  5.9156752E-01
   7141.00  5.8497803E-01
   7141.33  5.7960858E-01
   7141.67  5.7523808E-01
   7142.00  5.7179748E-01
   7142.33  5.6931630E-01
   7142.67  5.6761455E-01
   7143.00  5.6663230E-01
   7143.33  5.6638407E-01
   7143.67  5.6672281E-01
   7144.00  5.6759185E-01
   7144.33  5.6898024E-01
   7144.67  5.7075784E-01
   7145.00  5.7286024E-01
   7145.33  5.7524950E-01
   7145.67  5.7784144E-01
   7146.00  5.8058963E-01
   7146.33  5.8343150E-01
   7146.67  5.8626251E-01
   7147.00  5.8897279E-01
   7147.33  5.9134786E-01
   7147.67  5.9319340E-01
   7148.00  5.9427699E-01
   7148.33  5.9418357E-01
   7148.67  5.9278422E-01
   7149.00  5.8990870E-01
   7149.33  5.8525160E-01
   7149.67  5.7901387E-01
   7150.00  5.7128223E-01
   7150.33  5.6206524E-01
   7150.67  5.5174500E-01
   7151.00  5.4051983E-01
   7151.33  5.2853050E-01
   7151.67  5.1607075E-01
   7152.00  5.0330319E-01
   7152.33  4.9037947E-01
   7152.67  4.7746423E-01
   7153.00  4.6466670E-01
   7153.33  4.5212413E-01
   7153.67  4.3991160E-01
   7154.00  4.2811749E-01
   7154.33  4.1687754E-01
   7154.67  4.0617705E-01
   7155.00  3.9604420E-01
   7155.33  3.8657065E-01
   7155.67  3.7768620E-01
   7156.00  3.6938227E-01
   7156.33  3.6170775E-01
   7156.67  3.5456493E-01
   7157.00  3.4792495E-01
   7157.33  3.4180729E-01
   7157.67  3.3611384E-01
   7158.00  3.3081179E-01
   7158.33  3.2591085E-01
   7158.67  3.2133712E-01
   7159.00  3.1707101E-01
   7159.33  3.1313339E-01
   7159.67  3.0948097E-01
   7160.00  3.0611493E-01
   7160.33  3.0308162E-01
   7160.67  3.0036353E-01
   7161.00  2.9798636E-01
   7161.33  2.9603785E-01
   7161.67  2.9452104E-01
   7162.00  2.9348655E-01
   7162.33  2.9306733E-01
   7162.67  2.9326180E-01
   7163.00  2.9412194E-01
   7163.33  2.9577570E-01
   7163.67  2.9815157E-01
   7164.00  3.0125191E-01
   7164.33  3.0514262E-01
   7164.67  3.0967125E-01
   7165.00  3.1475667E-01
   7165.33  3.2034316E-01
   7165.67  3.2624605E-01
   7166.00  3.3234973E-01
   7166.33  3.3853076E-01
   7166.67  3.4465832E-01
   7167.00  3.5064114E-01
   7167.33  3.5636587E-01
   7167.67  3.6180243E-01
   7168.00  3.6692120E-01
   7168.33  3.7166911E-01
   7168.67  3.7609608E-01
   7169.00  3.8022184E-01
   7169.33  3.8404551E-01
   7169.67  3.8763883E-01
   7170.00  3.9103456E-01
   7170.33  3.9424512E-01
   7170.67  3.9731241E-01
   7171.00  4.0023908E-01
   7171.33  4.0297160E-01
   7171.67  4.0543058E-01
   7172.00  4.0746113E-01
