    FDMNES
    energy     <xanes>
   7097.00  4.3001124E-03
   7097.33  4.3896197E-03
   7097.67  4.4827487E-03
   7098.00  4.5797291E-03
   7098.33  4.6813746E-03
   7098.67  4.7874951E-03
   7099.00  4.8984022E-03
   7099.33  5.0151491E-03
   7099.67  5.1375410E-03
   7100.00  5.2660132E-03
   7100.33  5.4019678E-03
   7100.67  5.5452225E-03
   7101.00  5.6964069E-03
   7101.33  5.8574524E-03
   7101.67  6.0282278E-03
   7102.00  6.2096819E-03
   7102.33  6.4045885E-03
   7102.67  6.6129546E-03
   7103.00  6.8362835E-03
   7103.33  7.0787680E-03
   7103.67  7.3407562E-03
   7104.00  7.6247803E-03
   7104.33  7.9375994E-03
   7104.67  8.2804009E-03
   7105.00  8.6577921E-03
   7105.33  9.0816051E-03
   7105.67  9.5551982E-03
   7106.00  1.0087836E-02
   7106.33  1.0702611E-02
   7106.67  1.1409074E-02
   7107.00  1.2228542E-02
   7107.33  1.3213363E-02
   7107.67  1.4393747E-02
   7108.00  1.5829144E-02
   7108.33  1.7667285E-02
   7108.67  2.0026592E-02
   7109.00  2.3129701E-02
   7109.33  2.7565728E-02
   7109.67  3.4010824E-02
   7110.00  4.3790754E-02
   7110.33  6.0756785E-02
   7110.67  8.9333803E-02
   7111.00  1.3171475E-01
   7111.33  1.7405378E-01
   7111.67  1.9407703E-01
   7112.00  1.9460028E-01
   7112.33  1.9363333E-01
   7112.67  1.8913806E-01
   7113.00  1.7160644E-01
   7113.33  1.4506330E-01
   7113.67  1.2381648E-01
   7114.00  1.1005713E-01
   7114.33  9.6785061E-02
   7114.67  8.2711108E-02
   7115.00  7.2474141E-02
   7115.33  6.7281173E-02
   7115.67  6.4343879E-02
   7116.00  6.2160631E-02
   7116.33  6.0806759E-02
   7116.67  6.0852715E-02
   7117.00  6.2339636E-02
   7117.33  6.4922017E-02
   7117.67  6.8042266E-02
   7118.00  7.1735696E-02
   7118.33  7.6426359E-02
   7118.67  8.2210964E-02
   7119.00  8.9214942E-02
   7119.33  9.7845200E-02
   7119.67  1.0819387E-01
   7120.00  1.2051437E-01
   7120.33  1.3540711E-01
   7120.67  1.5284000E-01
   7121.00  1.7293096E-01
   7121.33  1.9597507E-01
   7121.67  2.2135171E-01
   7122.00  2.4859345E-01
   7122.33  2.7703786E-01
   7122.67  3.0552210E-01
   7123.00  3.3318145E-01
   7123.33  3.5914518E-01
   7123.67  3.8336910E-01
   7124.00  4.0585651E-01
   7124.33  4.2593393E-01
   7124.67  4.4266679E-01
   7125.00  4.5486494E-01
   7125.33  4.6142037E-01
   7125.67  4.6426550E-01
   7126.00  4.6516787E-01
   7126.33  4.6579309E-01
   7126.67  4.6738103E-01
   7127.00  4.7049811E-01
   7127.33  4.7548076E-01
   7127.67  4.8195018E-01
   7128.00  4.8950525E-01
   7128.33  4.9728717E-01
   7128.67  5.0437859E-01
   7129.00  5.1061724E-01
   7129.33  5.1662879E-01
   7129.67  5.2303579E-01
   7130.00  5.2965960E-01
   7130.33  5.3584955E-01
   7130.67  5.4156945E-01
   7131.00  5.4759501E-01
   7131.33  5.5598765E-01
   7131.67  5.6856718E-01
   7132.00  5.8654199E-01
   7132.33  6.1050098E-01
   7132.67  6.3799344E-01
   7133.00  6.6665670E-01
   7133.33  6.9374471E-01
   7133.67  7.1799466E-01
   7134.00  7.3907718E-01
   7134.33  7.5665742E-01
   7134.67  7.7138420E-01
   7135.00  7.8336478E-01
   7135.33  7.9145566E-01
   7135.67  7.9484489E-01
   7136.00  7.9303795E-01
   7136.33  7.8607516E-01
   7136.67  7.7594593E-01
   7137.00  7.6394662E-01
   7137.33  7.5116281E-01
   7137.67  7.3835071E-01
   7138.00  7.2573565E-01
   7138.33  7.1338594E-01
   7138.67  7.0124449E-01
   7139.00  6.8932215E-01
   7139.33  6.7774271E-01
   7139.67  6.6661145E-01
   7140.00  6.5606241E-01
   7140.33  6.4631304E-01
   7140.67  6.3735237E-01
   7141.00  6.2920535E-01
   7141.33  6.2196352E-01
   7141.67  6.1549364E-01
   7142.00  6.0976178E-01
   7142.33  6.0481915E-01
   7142.67  6.0055097E-01
   7143.00  5.9694383E-01
   7143.33  5.9407613E-01
   7143.67  5.9187380E-01
   7144.00  5.9034786E-01
   7144.33  5.8959341E-01
   7144.67  5.8953819E-01
   7145.00  5.9020194E-01
   7145.33  5.9170262E-01
   7145.67  5.9396188E-01
   7146.00  5.9697387E-01
   7146.33  6.0078733E-01
   7146.67  6.0522203E-01
   7147.00  6.1014451E-01
   7147.33  6.1536625E-01
   7147.67  6.2057392E-01
   7148.00  6.2548959E-01
   7148.33  6.2968989E-01
   7148.67  6.3292693E-01
   7149.00  6.3496984E-01
   7149.33  6.3547258E-01
   7149.67  6.3455155E-01
   7150.00  6.3225567E-01
   7150.33  6.2857281E-01
   7150.67  6.2384519E-01
   7151.00  6.1823931E-01
   7151.33  6.1184267E-01
   7151.67  6.0487939E-01
   7152.00  5.9743346E-01
   7152.33  5.8952678E-01
   7152.67  5.8126888E-01
   7153.00  5.7269950E-01
   7153.33  5.6381964E-01
   7153.67  5.5469245E-01
   7154.00  5.4533548E-01
   7154.33  5.3573233E-01
   7154.67  5.2592122E-01
   7155.00  5.1591871E-01
   7155.33  5.0572614E-01
   7155.67  4.9539167E-01
   7156.00  4.8494700E-01
   7156.33  4.7443120E-01
   7156.67  4.6390899E-01
   7157.00  4.5343573E-01
   7157.33  4.4309490E-01
   7157.67  4.3294300E-01
   7158.00  4.2304241E-01
   7158.33  4.1350616E-01
   7158.67  4.0436607E-01
   7159.00  3.9568397E-01
   7159.33  3.8759519E-01
   7159.67  3.8009859E-01
   7160.00  3.7324484E-01
   7160.33  3.6717111E-01
   7160.67  3.6183028E-01
   7161.00  3.5724576E-01
   7161.33  3.5352586E-01
   7161.67  3.5057128E-01
   7162.00  3.4836701E-01
   7162.33  3.4697024E-01
   7162.67  3.4624065E-01
   7163.00  3.4611767E-01
   7163.33  3.4658625E-01
   7163.67  3.4750032E-01
   7164.00  3.4879032E-01
   7164.33  3.5041243E-01
   7164.67  3.5225292E-01
   7165.00  3.5425139E-01
   7165.33  3.5635918E-01
   7165.67  3.5851576E-01
   7166.00  3.6069010E-01
   7166.33  3.6285762E-01
   7166.67  3.6500811E-01
   7167.00  3.6714111E-01
   7167.33  3.6926255E-01
   7167.67  3.7138510E-01
   7168.00  3.7351965E-01
   7168.33  3.7568234E-01
   7168.67  3.7788173E-01
   7169.00  3.8012514E-01
   7169.33  3.8242308E-01
   7169.67  3.8476880E-01
   7170.00  3.8715683E-01
   7170.33  3.8957730E-01
   7170.67  3.9200214E-01
   7171.00  3.9439647E-01
   7171.33  3.9667940E-01
   7171.67  3.9874264E-01
   7172.00  4.0043305E-01
