    FDMNES
    energy     <xanes>
   7097.00  4.2667811E-03
   7097.33  4.3500480E-03
   7097.67  4.4364001E-03
   7098.00  4.5260157E-03
   7098.33  4.6195594E-03
   7098.67  4.7168462E-03
   7099.00  4.8181136E-03
   7099.33  4.9242031E-03
   7099.67  5.0349200E-03
   7100.00  5.1505890E-03
   7100.33  5.2723050E-03
   7100.67  5.3998735E-03
   7101.00  5.5337548E-03
   7101.33  5.6754206E-03
   7101.67  5.8247013E-03
   7102.00  5.9822768E-03
   7102.33  6.1502089E-03
   7102.67  6.3284094E-03
   7103.00  6.5179364E-03
   7103.33  6.7218316E-03
   7103.67  6.9402232E-03
   7104.00  7.1748669E-03
   7104.33  7.4305603E-03
   7104.67  7.7079839E-03
   7105.00  8.0103006E-03
   7105.33  8.3457677E-03
   7105.67  8.7165329E-03
   7106.00  9.1289407E-03
   7106.33  9.5989707E-03
   7106.67  1.0133067E-02
   7107.00  1.0745956E-02
   7107.33  1.1474056E-02
   7107.67  1.2338646E-02
   7108.00  1.3381881E-02
   7108.33  1.4709423E-02
   7108.67  1.6409312E-02
   7109.00  1.8648264E-02
   7109.33  2.1875322E-02
   7109.67  2.6635264E-02
   7110.00  3.4008979E-02
   7110.33  4.7113595E-02
   7110.67  6.8693914E-02
   7111.00  9.5939951E-02
   7111.33  1.1080981E-01
   7111.67  1.1174016E-01
   7112.00  1.0976651E-01
   7112.33  1.1385726E-01
   7112.67  1.2108656E-01
   7113.00  1.2202726E-01
   7113.33  1.0761261E-01
   7113.67  8.9801569E-02
   7114.00  7.5547357E-02
   7114.33  6.4004541E-02
   7114.67  5.5007893E-02
   7115.00  4.9541085E-02
   7115.33  4.7425897E-02
   7115.67  4.7424627E-02
   7116.00  4.9147483E-02
   7116.33  5.2714892E-02
   7116.67  5.8001400E-02
   7117.00  6.4885860E-02
   7117.33  7.3048752E-02
   7117.67  8.2354369E-02
   7118.00  9.3405793E-02
   7118.33  1.0694645E-01
   7118.67  1.2267177E-01
   7119.00  1.4070527E-01
   7119.33  1.6116812E-01
   7119.67  1.8131730E-01
   7120.00  1.9710854E-01
   7120.33  2.0456027E-01
   7120.67  2.0669820E-01
   7121.00  2.0795008E-01
   7121.33  2.1333634E-01
   7121.67  2.2515230E-01
   7122.00  2.4470806E-01
   7122.33  2.7348876E-01
   7122.67  3.0870967E-01
   7123.00  3.4621765E-01
   7123.33  3.7878665E-01
   7123.67  4.0155943E-01
   7124.00  4.1155369E-01
   7124.33  4.0873665E-01
   7124.67  4.0427387E-01
   7125.00  4.0548757E-01
   7125.33  4.1613106E-01
   7125.67  4.3513057E-01
   7126.00  4.6173153E-01
   7126.33  4.9415801E-01
   7126.67  5.2794094E-01
   7127.00  5.6060776E-01
   7127.33  5.9243513E-01
   7127.67  6.2589347E-01
   7128.00  6.6175370E-01
   7128.33  6.9793656E-01
   7128.67  7.3007699E-01
   7129.00  7.5448864E-01
   7129.33  7.6763942E-01
   7129.67  7.7125274E-01
   7130.00  7.6734679E-01
   7130.33  7.5809907E-01
   7130.67  7.4619923E-01
   7131.00  7.3306889E-01
   7131.33  7.2097513E-01
   7131.67  7.1238410E-01
   7132.00  7.0900056E-01
   7132.33  7.1217449E-01
   7132.67  7.2007509E-01
   7133.00  7.3044153E-01
   7133.33  7.3958652E-01
   7133.67  7.4441441E-01
   7134.00  7.4356885E-01
   7134.33  7.3698094E-01
   7134.67  7.2703526E-01
   7135.00  7.1489098E-01
   7135.33  7.0096922E-01
   7135.67  6.8592954E-01
   7136.00  6.7037646E-01
   7136.33  6.5530090E-01
   7136.67  6.4174878E-01
   7137.00  6.3067569E-01
   7137.33  6.2329028E-01
   7137.67  6.1930605E-01
   7138.00  6.1826063E-01
   7138.33  6.1948463E-01
   7138.67  6.2175773E-01
   7139.00  6.2441599E-01
   7139.33  6.2694624E-01
   7139.67  6.2910776E-01
   7140.00  6.3078733E-01
   7140.33  6.3179184E-01
   7140.67  6.3201535E-01
   7141.00  6.3125313E-01
   7141.33  6.2910988E-01
   7141.67  6.2556747E-01
   7142.00  6.2058150E-01
   7142.33  6.1405664E-01
   7142.67  6.0633304E-01
   7143.00  5.9758011E-01
   7143.33  5.8787274E-01
   7143.67  5.7747293E-01
   7144.00  5.6650950E-01
   7144.33  5.5509487E-01
   7144.67  5.4345624E-01
   7145.00  5.3174679E-01
   7145.33  5.2014971E-01
   7145.67  5.0882100E-01
   7146.00  4.9791260E-01
   7146.33  4.8768944E-01
   7146.67  4.7826825E-01
   7147.00  4.6980386E-01
   7147.33  4.6258181E-01
   7147.67  4.5655953E-01
   7148.00  4.5177312E-01
   7148.33  4.4836812E-01
   7148.67  4.4612564E-01
   7149.00  4.4493769E-01
   7149.33  4.4472699E-01
   7149.67  4.4514746E-01
   7150.00  4.4596894E-01
   7150.33  4.4692867E-01
   7150.67  4.4774359E-01
   7151.00  4.4820785E-01
   7151.33  4.4806031E-01
   7151.67  4.4723666E-01
   7152.00  4.4567159E-01
   7152.33  4.4324867E-01
   7152.67  4.4008959E-01
   7153.00  4.3624888E-01
   7153.33  4.3174892E-01
   7153.67  4.2678044E-01
   7154.00  4.2144994E-01
   7154.33  4.1584335E-01
   7154.67  4.1008969E-01
   7155.00  4.0425548E-01
   7155.33  3.9839626E-01
   7155.67  3.9255849E-01
   7156.00  3.8677279E-01
   7156.33  3.8108119E-01
   7156.67  3.7550375E-01
   7157.00  3.7006694E-01
   7157.33  3.6482278E-01
   7157.67  3.5977797E-01
   7158.00  3.5495248E-01
   7158.33  3.5039235E-01
   7158.67  3.4607856E-01
   7159.00  3.4201653E-01
   7159.33  3.3824244E-01
   7159.67  3.3472818E-01
   7160.00  3.3147877E-01
   7160.33  3.2853743E-01
   7160.67  3.2588320E-01
   7161.00  3.2353438E-01
   7161.33  3.2156429E-01
   7161.67  3.1997182E-01
   7162.00  3.1879793E-01
   7162.33  3.1814955E-01
   7162.67  3.1801216E-01
   7163.00  3.1841755E-01
   7163.33  3.1946456E-01
   7163.67  3.2109744E-01
   7164.00  3.2331881E-01
   7164.33  3.2619279E-01
   7164.67  3.2962806E-01
   7165.00  3.3360089E-01
   7165.33  3.3814091E-01
   7165.67  3.4315071E-01
   7166.00  3.4860186E-01
   7166.33  3.5451406E-01
   7166.67  3.6080466E-01
   7167.00  3.6744539E-01
   7167.33  3.7443997E-01
   7167.67  3.8170654E-01
   7168.00  3.8920215E-01
   7168.33  3.9689919E-01
   7168.67  4.0472423E-01
   7169.00  4.1263050E-01
   7169.33  4.2056357E-01
   7169.67  4.2845907E-01
   7170.00  4.3625957E-01
   7170.33  4.4386852E-01
   7170.67  4.5121677E-01
   7171.00  4.5820550E-01
   7171.33  4.6460730E-01
   7171.67  4.7023026E-01
   7172.00  4.7476607E-01
