    FDMNES
    energy     <xanes>
   7097.00  4.3256467E-03
   7097.33  4.4100427E-03
   7097.67  4.4975995E-03
   7098.00  4.5885027E-03
   7098.33  4.6834375E-03
   7098.67  4.7822182E-03
   7099.00  4.8850927E-03
   7099.33  4.9929320E-03
   7099.67  5.1055413E-03
   7100.00  5.2232610E-03
   7100.33  5.3472287E-03
   7100.67  5.4772520E-03
   7101.00  5.6138148E-03
   7101.33  5.7584538E-03
   7101.67  5.9110051E-03
   7102.00  6.0721871E-03
   7102.33  6.2441627E-03
   7102.67  6.4268587E-03
   7103.00  6.6213979E-03
   7103.33  6.8309884E-03
   7103.67  7.0557940E-03
   7104.00  7.2976864E-03
   7104.33  7.5617552E-03
   7104.67  7.8487661E-03
   7105.00  8.1621084E-03
   7105.33  8.5105965E-03
   7105.67  8.8965961E-03
   7106.00  9.3269434E-03
   7106.33  9.8188140E-03
   7106.67  1.0379274E-02
   7107.00  1.1024295E-02
   7107.33  1.1793337E-02
   7107.67  1.2709785E-02
   7108.00  1.3819744E-02
   7108.33  1.5238846E-02
   7108.67  1.7064520E-02
   7109.00  1.9481094E-02
   7109.33  2.2986144E-02
   7109.67  2.8188658E-02
   7110.00  3.6299030E-02
   7110.33  5.0826124E-02
   7110.67  7.4951450E-02
   7111.00  1.0549136E-01
   7111.33  1.1924329E-01
   7111.67  1.1507151E-01
   7112.00  1.0943035E-01
   7112.33  1.1137978E-01
   7112.67  1.1870521E-01
   7113.00  1.2628406E-01
   7113.33  1.2016927E-01
   7113.67  1.0248701E-01
   7114.00  8.5784400E-02
   7114.33  7.1820172E-02
   7114.67  5.9095301E-02
   7115.00  5.0758063E-02
   7115.33  4.7382462E-02
   7115.67  4.7172824E-02
   7116.00  4.9611888E-02
   7116.33  5.4999145E-02
   7116.67  6.3220599E-02
   7117.00  7.4406626E-02
   7117.33  8.9205833E-02
   7117.67  1.0740851E-01
   7118.00  1.2811119E-01
   7118.33  1.4864521E-01
   7118.67  1.6570689E-01
   7119.00  1.7622117E-01
   7119.33  1.7712827E-01
   7119.67  1.7207453E-01
   7120.00  1.6553050E-01
   7120.33  1.6184526E-01
   7120.67  1.6261378E-01
   7121.00  1.6858933E-01
   7121.33  1.8116567E-01
   7121.67  2.0012257E-01
   7122.00  2.2545541E-01
   7122.33  2.5675553E-01
   7122.67  2.9062561E-01
   7123.00  3.2293390E-01
   7123.33  3.4631653E-01
   7123.67  3.5720003E-01
   7124.00  3.5660013E-01
   7124.33  3.5146264E-01
   7124.67  3.5119622E-01
   7125.00  3.6036056E-01
   7125.33  3.8163767E-01
   7125.67  4.1152947E-01
   7126.00  4.4612789E-01
   7126.33  4.8103194E-01
   7126.67  5.1447621E-01
   7127.00  5.4702816E-01
   7127.33  5.8011173E-01
   7127.67  6.1437029E-01
   7128.00  6.4943014E-01
   7128.33  6.8416000E-01
   7128.67  7.1686283E-01
   7129.00  7.4490780E-01
   7129.33  7.6337433E-01
   7129.67  7.7149660E-01
   7130.00  7.7077593E-01
   7130.33  7.6422977E-01
   7130.67  7.5581295E-01
   7131.00  7.4746713E-01
   7131.33  7.4088385E-01
   7131.67  7.3673320E-01
   7132.00  7.3516775E-01
   7132.33  7.3626146E-01
   7132.67  7.3995054E-01
   7133.00  7.4690775E-01
   7133.33  7.5762613E-01
   7133.67  7.6985164E-01
   7134.00  7.8102902E-01
   7134.33  7.8849380E-01
   7134.67  7.9130174E-01
   7135.00  7.8804358E-01
   7135.33  7.7669882E-01
   7135.67  7.5928237E-01
   7136.00  7.3833841E-01
   7136.33  7.1720391E-01
   7136.67  6.9851389E-01
   7137.00  6.8348274E-01
   7137.33  6.7283378E-01
   7137.67  6.6539930E-01
   7138.00  6.6021748E-01
   7138.33  6.5622944E-01
   7138.67  6.5226711E-01
   7139.00  6.4763772E-01
   7139.33  6.4163806E-01
   7139.67  6.3420053E-01
   7140.00  6.2544034E-01
   7140.33  6.1569428E-01
   7140.67  6.0568521E-01
   7141.00  5.9589811E-01
   7141.33  5.8675813E-01
   7141.67  5.7825450E-01
   7142.00  5.7022744E-01
   7142.33  5.6234519E-01
   7142.67  5.5418792E-01
   7143.00  5.4545931E-01
   7143.33  5.3586780E-01
   7143.67  5.2552072E-01
   7144.00  5.1458157E-01
   7144.33  5.0333525E-01
   7144.67  4.9221437E-01
   7145.00  4.8157753E-01
   7145.33  4.7192435E-01
   7145.67  4.6346673E-01
   7146.00  4.5639770E-01
   7146.33  4.5101265E-01
   7146.67  4.4710801E-01
   7147.00  4.4458288E-01
   7147.33  4.4338768E-01
   7147.67  4.4311124E-01
   7148.00  4.4348726E-01
   7148.33  4.4422776E-01
   7148.67  4.4497937E-01
   7149.00  4.4550973E-01
   7149.33  4.4557236E-01
   7149.67  4.4512596E-01
   7150.00  4.4416192E-01
   7150.33  4.4265515E-01
   7150.67  4.4071122E-01
   7151.00  4.3835405E-01
   7151.33  4.3553631E-01
   7151.67  4.3230362E-01
   7152.00  4.2865978E-01
   7152.33  4.2458155E-01
   7152.67  4.2015964E-01
   7153.00  4.1543621E-01
   7153.33  4.1042882E-01
   7153.67  4.0521577E-01
   7154.00  3.9983530E-01
   7154.33  3.9431724E-01
   7154.67  3.8872640E-01
   7155.00  3.8311131E-01
   7155.33  3.7754160E-01
   7155.67  3.7208166E-01
   7156.00  3.6678910E-01
   7156.33  3.6174663E-01
   7156.67  3.5696288E-01
   7157.00  3.5245449E-01
   7157.33  3.4825870E-01
   7157.67  3.4432700E-01
   7158.00  3.4063755E-01
   7158.33  3.3718520E-01
   7158.67  3.3391441E-01
   7159.00  3.3080922E-01
   7159.33  3.2788862E-01
   7159.67  3.2515406E-01
   7160.00  3.2264454E-01
   7160.33  3.2046130E-01
   7160.67  3.1864845E-01
   7161.00  3.1728177E-01
   7161.33  3.1651532E-01
   7161.67  3.1636431E-01
   7162.00  3.1689454E-01
   7162.33  3.1827192E-01
   7162.67  3.2046153E-01
   7163.00  3.2349557E-01
   7163.33  3.2749467E-01
   7163.67  3.3234016E-01
   7164.00  3.3799913E-01
   7164.33  3.4449975E-01
   7164.67  3.5165783E-01
   7165.00  3.5938023E-01
   7165.33  3.6760462E-01
   7165.67  3.7615454E-01
   7166.00  3.8492995E-01
   7166.33  3.9383984E-01
   7166.67  4.0277878E-01
   7167.00  4.1168290E-01
   7167.33  4.2048286E-01
   7167.67  4.2914771E-01
   7168.00  4.3765026E-01
   7168.33  4.4594280E-01
   7168.67  4.5402570E-01
   7169.00  4.6187555E-01
   7169.33  4.6942381E-01
   7169.67  4.7665817E-01
   7170.00  4.8353081E-01
   7170.33  4.8992648E-01
   7170.67  4.9583232E-01
   7171.00  5.0119019E-01
   7171.33  5.0584687E-01
   7171.67  5.0978045E-01
   7172.00  5.1288433E-01
