    FDMNES
    energy     <xanes>
   7097.00  5.2803863E-03
   7097.33  5.4111902E-03
   7097.67  5.5481791E-03
   7098.00  5.6917828E-03
   7098.33  5.8434512E-03
   7098.67  6.0029056E-03
   7099.00  6.1707334E-03
   7099.33  6.3488392E-03
   7099.67  6.5369391E-03
   7100.00  6.7358566E-03
   7100.33  6.9481578E-03
   7100.67  7.1735825E-03
   7101.00  7.4133199E-03
   7101.33  7.6709315E-03
   7101.67  7.9462449E-03
   7102.00  8.2410387E-03
   7102.33  8.5604342E-03
   7102.67  8.9044867E-03
   7103.00  9.2759715E-03
   7103.33  9.6825751E-03
   7103.67  1.0124896E-02
   7104.00  1.0607492E-02
   7104.33  1.1142531E-02
   7104.67  1.1731895E-02
   7105.00  1.2383571E-02
   7105.33  1.3118160E-02
   7105.67  1.3940708E-02
   7106.00  1.4866430E-02
   7106.33  1.5933448E-02
   7106.67  1.7155266E-02
   7107.00  1.8564322E-02
   7107.33  2.0240384E-02
   7107.67  2.2222810E-02
   7108.00  2.4592928E-02
   7108.33  2.7550837E-02
   7108.67  3.1233923E-02
   7109.00  3.5904514E-02
   7109.33  4.2235802E-02
   7109.67  5.0894958E-02
   7110.00  6.3168364E-02
   7110.33  8.2685205E-02
   7110.67  1.1379891E-01
   7111.00  1.6171052E-01
   7111.33  2.2914161E-01
   7111.67  3.0194469E-01
   7112.00  3.6375221E-01
   7112.33  4.0674162E-01
   7112.67  4.4066569E-01
   7113.00  4.8629100E-01
   7113.33  5.4067185E-01
   7113.67  5.5725032E-01
   7114.00  5.1632701E-01
   7114.33  4.3418310E-01
   7114.67  3.5243202E-01
   7115.00  2.8985852E-01
   7115.33  2.5197834E-01
   7115.67  2.3220531E-01
   7116.00  2.2687666E-01
   7116.33  2.3097394E-01
   7116.67  2.3384390E-01
   7117.00  2.2792294E-01
   7117.33  2.1140273E-01
   7117.67  1.9188659E-01
   7118.00  1.7402134E-01
   7118.33  1.5989278E-01
   7118.67  1.4863998E-01
   7119.00  1.3966350E-01
   7119.33  1.3277067E-01
   7119.67  1.2748980E-01
   7120.00  1.2366038E-01
   7120.33  1.2130343E-01
   7120.67  1.2017963E-01
   7121.00  1.2025430E-01
   7121.33  1.2171686E-01
   7121.67  1.2440450E-01
   7122.00  1.2809364E-01
   7122.33  1.3259455E-01
   7122.67  1.3775709E-01
   7123.00  1.4369710E-01
   7123.33  1.5077433E-01
   7123.67  1.5912831E-01
   7124.00  1.6899214E-01
   7124.33  1.8088729E-01
   7124.67  1.9495018E-01
   7125.00  2.1157225E-01
   7125.33  2.3150520E-01
   7125.67  2.5405558E-01
   7126.00  2.7802069E-01
   7126.33  3.0185963E-01
   7126.67  3.2499219E-01
   7127.00  3.4725590E-01
   7127.33  3.6801073E-01
   7127.67  3.8703728E-01
   7128.00  4.0474305E-01
   7128.33  4.2270283E-01
   7128.67  4.4294728E-01
   7129.00  4.6704024E-01
   7129.33  4.9661189E-01
   7129.67  5.3102313E-01
   7130.00  5.6980910E-01
   7130.33  6.1321414E-01
   7130.67  6.6092645E-01
   7131.00  7.1340087E-01
   7131.33  7.7212962E-01
   7131.67  8.3681616E-01
   7132.00  9.0621870E-01
   7132.33  9.7567915E-01
   7132.67  1.0374265E+00
   7133.00  1.0841723E+00
   7133.33  1.1070024E+00
   7133.67  1.1063070E+00
   7134.00  1.0828933E+00
   7134.33  1.0371862E+00
   7134.67  9.7642174E-01
   7135.00  9.0628904E-01
   7135.33  8.3387328E-01
   7135.67  7.6528326E-01
   7136.00  7.0323684E-01
   7136.33  6.4944848E-01
   7136.67  6.0249102E-01
   7137.00  5.6173966E-01
   7137.33  5.2741252E-01
   7137.67  4.9857958E-01
   7138.00  4.7516367E-01
   7138.33  4.5768984E-01
   7138.67  4.4519262E-01
   7139.00  4.3723659E-01
   7139.33  4.3362888E-01
   7139.67  4.3313122E-01
   7140.00  4.3512072E-01
   7140.33  4.3921036E-01
   7140.67  4.4469925E-01
   7141.00  4.5130949E-01
   7141.33  4.5894645E-01
   7141.67  4.6736623E-01
   7142.00  4.7648374E-01
   7142.33  4.8626836E-01
   7142.67  4.9650902E-01
   7143.00  5.0705238E-01
   7143.33  5.1769063E-01
   7143.67  5.2816495E-01
   7144.00  5.3825438E-01
   7144.33  5.4763719E-01
   7144.67  5.5618681E-01
   7145.00  5.6377265E-01
   7145.33  5.7017625E-01
   7145.67  5.7551447E-01
   7146.00  5.7982752E-01
   7146.33  5.8309352E-01
   7146.67  5.8555709E-01
   7147.00  5.8734213E-01
   7147.33  5.8852952E-01
   7147.67  5.8932469E-01
   7148.00  5.8983528E-01
   7148.33  5.9015549E-01
   7148.67  5.9040737E-01
   7149.00  5.9065550E-01
   7149.33  5.9096735E-01
   7149.67  5.9138868E-01
   7150.00  5.9195545E-01
   7150.33  5.9272318E-01
   7150.67  5.9369549E-01
   7151.00  5.9488886E-01
   7151.33  5.9634364E-01
   7151.67  5.9803233E-01
   7152.00  5.9994661E-01
   7152.33  6.0208331E-01
   7152.67  6.0437296E-01
   7153.00  6.0677459E-01
   7153.33  6.0924243E-01
   7153.67  6.1170817E-01
   7154.00  6.1411587E-01
   7154.33  6.1638691E-01
   7154.67  6.1847986E-01
   7155.00  6.2035386E-01
   7155.33  6.2193955E-01
   7155.67  6.2324243E-01
   7156.00  6.2424757E-01
   7156.33  6.2490707E-01
   7156.67  6.2525610E-01
   7157.00  6.2529471E-01
   7157.33  6.2498576E-01
   7157.67  6.2436897E-01
   7158.00  6.2344363E-01
   7158.33  6.2216709E-01
   7158.67  6.2057151E-01
   7159.00  6.1864864E-01
   7159.33  6.1634435E-01
   7159.67  6.1368820E-01
   7160.00  6.1066922E-01
   7160.33  6.0722841E-01
   7160.67  6.0340210E-01
   7161.00  5.9918417E-01
   7161.33  5.9452491E-01
   7161.67  5.8948218E-01
   7162.00  5.8407164E-01
   7162.33  5.7827905E-01
   7162.67  5.7218462E-01
   7163.00  5.6582576E-01
   7163.33  5.5922123E-01
   7163.67  5.5244366E-01
   7164.00  5.4552898E-01
   7164.33  5.3850018E-01
   7164.67  5.3139770E-01
   7165.00  5.2424107E-01
   7165.33  5.1704533E-01
   7165.67  5.0983269E-01
   7166.00  5.0262001E-01
   7166.33  4.9543174E-01
   7166.67  4.8828881E-01
   7167.00  4.8121355E-01
   7167.33  4.7424540E-01
   7167.67  4.6740025E-01
   7168.00  4.6070122E-01
   7168.33  4.5419526E-01
   7168.67  4.4788664E-01
   7169.00  4.4179577E-01
   7169.33  4.3596739E-01
   7169.67  4.3038460E-01
   7170.00  4.2505932E-01
   7170.33  4.2004278E-01
   7170.67  4.1532375E-01
   7171.00  4.1093259E-01
   7171.33  4.0698002E-01
   7171.67  4.0353422E-01
   7172.00  4.0074747E-01
