    FDMNES
    energy     <xanes>
   7097.00  4.8535264E-03
   7097.33  4.9725760E-03
   7097.67  5.0975072E-03
   7098.00  5.2287563E-03
   7098.33  5.3677504E-03
   7098.67  5.5142656E-03
   7099.00  5.6689119E-03
   7099.33  5.8336041E-03
   7099.67  6.0081332E-03
   7100.00  6.1933766E-03
   7100.33  6.3919805E-03
   7100.67  6.6037947E-03
   7101.00  6.8301260E-03
   7101.33  7.0747586E-03
   7101.67  7.3376994E-03
   7102.00  7.6209738E-03
   7102.33  7.9302228E-03
   7102.67  8.2658261E-03
   7103.00  8.6310804E-03
   7103.33  9.0348296E-03
   7103.67  9.4783243E-03
   7104.00  9.9672620E-03
   7104.33  1.0516407E-02
   7104.67  1.1129105E-02
   7105.00  1.1815975E-02
   7105.33  1.2603726E-02
   7105.67  1.3501085E-02
   7106.00  1.4529894E-02
   7106.33  1.5743889E-02
   7106.67  1.7167179E-02
   7107.00  1.8851116E-02
   7107.33  2.0921004E-02
   7107.67  2.3452712E-02
   7108.00  2.6592600E-02
   7108.33  3.0704084E-02
   7108.67  3.6087493E-02
   7109.00  4.3304593E-02
   7109.33  5.3848605E-02
   7109.67  6.9472087E-02
   7110.00  9.3614941E-02
   7110.33  1.3619362E-01
   7110.67  2.0733408E-01
   7111.00  3.0680213E-01
   7111.33  4.0025149E-01
   7111.67  4.6293700E-01
   7112.00  4.8349299E-01
   7112.33  4.4922669E-01
   7112.67  3.8260445E-01
   7113.00  3.0910731E-01
   7113.33  2.4967732E-01
   7113.67  2.0606050E-01
   7114.00  1.7547337E-01
   7114.33  1.5499257E-01
   7114.67  1.4043410E-01
   7115.00  1.3026806E-01
   7115.33  1.2391674E-01
   7115.67  1.1999230E-01
   7116.00  1.1732563E-01
   7116.33  1.1464073E-01
   7116.67  1.1170510E-01
   7117.00  1.0903738E-01
   7117.33  1.0726236E-01
   7117.67  1.0648582E-01
   7118.00  1.0686900E-01
   7118.33  1.0885923E-01
   7118.67  1.1254265E-01
   7119.00  1.1789836E-01
   7119.33  1.2407319E-01
   7119.67  1.2963345E-01
   7120.00  1.3442609E-01
   7120.33  1.3920351E-01
   7120.67  1.4448836E-01
   7121.00  1.5036531E-01
   7121.33  1.5703437E-01
   7121.67  1.6480316E-01
   7122.00  1.7437165E-01
   7122.33  1.8728458E-01
   7122.67  2.0404668E-01
   7123.00  2.2409410E-01
   7123.33  2.4443919E-01
   7123.67  2.6225512E-01
   7124.00  2.7793837E-01
   7124.33  2.9344456E-01
   7124.67  3.0946196E-01
   7125.00  3.2493659E-01
   7125.33  3.3759872E-01
   7125.67  3.4696670E-01
   7126.00  3.5378566E-01
   7126.33  3.5908649E-01
   7126.67  3.6308610E-01
   7127.00  3.6471001E-01
   7127.33  3.6193542E-01
   7127.67  3.5499678E-01
   7128.00  3.4553934E-01
   7128.33  3.3732514E-01
   7128.67  3.3403767E-01
   7129.00  3.3788867E-01
   7129.33  3.5040041E-01
   7129.67  3.6870931E-01
   7130.00  3.8931348E-01
   7130.33  4.0683957E-01
   7130.67  4.1819915E-01
   7131.00  4.2320930E-01
   7131.33  4.2340012E-01
   7131.67  4.2176745E-01
   7132.00  4.1994987E-01
   7132.33  4.1948849E-01
   7132.67  4.2125034E-01
   7133.00  4.2586988E-01
   7133.33  4.3416953E-01
   7133.67  4.4557915E-01
   7134.00  4.5916006E-01
   7134.33  4.7248320E-01
   7134.67  4.8228330E-01
   7135.00  4.8635707E-01
   7135.33  4.8358149E-01
   7135.67  4.7643976E-01
   7136.00  4.6694926E-01
   7136.33  4.5704863E-01
   7136.67  4.4814737E-01
   7137.00  4.4101104E-01
   7137.33  4.3649723E-01
   7137.67  4.3463903E-01
   7138.00  4.3558684E-01
   7138.33  4.3977808E-01
   7138.67  4.4684323E-01
   7139.00  4.5670246E-01
   7139.33  4.6949729E-01
   7139.67  4.8462824E-01
   7140.00  5.0181282E-01
   7140.33  5.2089745E-01
   7140.67  5.4124670E-01
   7141.00  5.6239876E-01
   7141.33  5.8364361E-01
   7141.67  6.0403106E-01
   7142.00  6.2263492E-01
   7142.33  6.3805127E-01
   7142.67  6.4983271E-01
   7143.00  6.5764737E-01
   7143.33  6.6115414E-01
   7143.67  6.6148633E-01
   7144.00  6.5946479E-01
   7144.33  6.5593039E-01
   7144.67  6.5191057E-01
   7145.00  6.4794670E-01
   7145.33  6.4451192E-01
   7145.67  6.4179594E-01
   7146.00  6.3994032E-01
   7146.33  6.3921137E-01
   7146.67  6.3963790E-01
   7147.00  6.4137240E-01
   7147.33  6.4478535E-01
   7147.67  6.4985200E-01
   7148.00  6.5666852E-01
   7148.33  6.6549302E-01
   7148.67  6.7603407E-01
   7149.00  6.8814253E-01
   7149.33  7.0170185E-01
   7149.67  7.1617106E-01
   7150.00  7.3115777E-01
   7150.33  7.4617230E-01
   7150.67  7.6075023E-01
   7151.00  7.7454231E-01
   7151.33  7.8704301E-01
   7151.67  7.9809761E-01
   7152.00  8.0751834E-01
   7152.33  8.1495537E-01
   7152.67  8.2059054E-01
   7153.00  8.2445031E-01
   7153.33  8.2640108E-01
   7153.67  8.2676056E-01
   7154.00  8.2562500E-01
   7154.33  8.2292678E-01
   7154.67  8.1893307E-01
   7155.00  8.1371425E-01
   7155.33  8.0719981E-01
   7155.67  7.9960308E-01
   7156.00  7.9098454E-01
   7156.33  7.8130007E-01
   7156.67  7.7074757E-01
   7157.00  7.5939875E-01
   7157.33  7.4725419E-01
   7157.67  7.3450220E-01
   7158.00  7.2123247E-01
   7158.33  7.0749539E-01
   7158.67  6.9344415E-01
   7159.00  6.7916542E-01
   7159.33  6.6474798E-01
   7159.67  6.5032268E-01
   7160.00  6.3599235E-01
   7160.33  6.2189021E-01
   7160.67  6.0808106E-01
   7161.00  5.9463268E-01
   7161.33  5.8166613E-01
   7161.67  5.6918541E-01
   7162.00  5.5723154E-01
   7162.33  5.4591225E-01
   7162.67  5.3518962E-01
   7163.00  5.2509307E-01
   7163.33  5.1574354E-01
   7163.67  5.0710031E-01
   7164.00  4.9920097E-01
   7164.33  4.9218203E-01
   7164.67  4.8597078E-01
   7165.00  4.8057222E-01
   7165.33  4.7606740E-01
   7165.67  4.7231429E-01
   7166.00  4.6925843E-01
   7166.33  4.6689095E-01
   7166.67  4.6503974E-01
   7167.00  4.6362270E-01
   7167.33  4.6258919E-01
   7167.67  4.6180791E-01
   7168.00  4.6120649E-01
   7168.33  4.6071561E-01
   7168.67  4.6024329E-01
   7169.00  4.5972286E-01
   7169.33  4.5906545E-01
   7169.67  4.5822292E-01
   7170.00  4.5715577E-01
   7170.33  4.5581233E-01
   7170.67  4.5423601E-01
   7171.00  4.5246936E-01
   7171.33  4.5059530E-01
   7171.67  4.4878568E-01
   7172.00  4.4723192E-01
