    FDMNES
    energy     <xanes>
   7097.00  5.3295069E-03
   7097.33  5.4621292E-03
   7097.67  5.6010014E-03
   7098.00  5.7465539E-03
   7098.33  5.9002451E-03
   7098.67  6.0617880E-03
   7099.00  6.2317687E-03
   7099.33  6.4120974E-03
   7099.67  6.6024785E-03
   7100.00  6.8037305E-03
   7100.33  7.0184168E-03
   7100.67  7.2462600E-03
   7101.00  7.4884358E-03
   7101.33  7.7484846E-03
   7101.67  8.0262061E-03
   7102.00  8.3233472E-03
   7102.33  8.6449674E-03
   7102.67  8.9910716E-03
   7103.00  9.3643634E-03
   7103.33  9.7723765E-03
   7103.67  1.0215608E-02
   7104.00  1.0698454E-02
   7104.33  1.1232715E-02
   7104.67  1.1820051E-02
   7105.00  1.2468061E-02
   7105.33  1.3196463E-02
   7105.67  1.4009744E-02
   7106.00  1.4922142E-02
   7106.33  1.5969499E-02
   7106.67  1.7163765E-02
   7107.00  1.8534648E-02
   7107.33  2.0155422E-02
   7107.67  2.2060448E-02
   7108.00  2.4322291E-02
   7108.33  2.7119645E-02
   7108.67  3.0570667E-02
   7109.00  3.4903736E-02
   7109.33  4.0705679E-02
   7109.67  4.8551085E-02
   7110.00  5.9554638E-02
   7110.33  7.6799475E-02
   7110.67  1.0313675E-01
   7111.00  1.3903061E-01
   7111.33  1.8200018E-01
   7111.67  2.3731227E-01
   7112.00  3.1048872E-01
   7112.33  4.0000963E-01
   7112.67  4.9462775E-01
   7113.00  5.8731360E-01
   7113.33  6.4284741E-01
   7113.67  6.4577040E-01
   7114.00  5.8955724E-01
   7114.33  4.8481165E-01
   7114.67  3.8513693E-01
   7115.00  3.1145813E-01
   7115.33  2.6556062E-01
   7115.67  2.3724658E-01
   7116.00  2.2188835E-01
   7116.33  2.1575026E-01
   7116.67  2.1179676E-01
   7117.00  2.0551637E-01
   7117.33  1.9509498E-01
   7117.67  1.8282443E-01
   7118.00  1.7090465E-01
   7118.33  1.6131502E-01
   7118.67  1.5435875E-01
   7119.00  1.4986716E-01
   7119.33  1.4742162E-01
   7119.67  1.4590972E-01
   7120.00  1.4437600E-01
   7120.33  1.4173316E-01
   7120.67  1.3833385E-01
   7121.00  1.3520679E-01
   7121.33  1.3356849E-01
   7121.67  1.3349523E-01
   7122.00  1.3467311E-01
   7122.33  1.3703943E-01
   7122.67  1.4062960E-01
   7123.00  1.4566116E-01
   7123.33  1.5255153E-01
   7123.67  1.6128320E-01
   7124.00  1.7200723E-01
   7124.33  1.8506527E-01
   7124.67  2.0001254E-01
   7125.00  2.1636787E-01
   7125.33  2.3337448E-01
   7125.67  2.5024428E-01
   7126.00  2.6676316E-01
   7126.33  2.8331124E-01
   7126.67  3.0086848E-01
   7127.00  3.2033040E-01
   7127.33  3.4201134E-01
   7127.67  3.6461106E-01
   7128.00  3.8745693E-01
   7128.33  4.1097033E-01
   7128.67  4.3583072E-01
   7129.00  4.6233126E-01
   7129.33  4.9097475E-01
   7129.67  5.2263289E-01
   7130.00  5.5896727E-01
   7130.33  6.0239922E-01
   7130.67  6.5253132E-01
   7131.00  7.0871333E-01
   7131.33  7.7022963E-01
   7131.67  8.3503911E-01
   7132.00  9.0172477E-01
   7132.33  9.6800718E-01
   7132.67  1.0306410E+00
   7133.00  1.0854952E+00
   7133.33  1.1240416E+00
   7133.67  1.1407256E+00
   7134.00  1.1315207E+00
   7134.33  1.0941669E+00
   7134.67  1.0380180E+00
   7135.00  9.7021994E-01
   7135.33  8.9782915E-01
   7135.67  8.2673255E-01
   7136.00  7.5972668E-01
   7136.33  6.9923688E-01
   7136.67  6.4522147E-01
   7137.00  5.9785091E-01
   7137.33  5.5794504E-01
   7137.67  5.2457358E-01
   7138.00  4.9760486E-01
   7138.33  4.7757069E-01
   7138.67  4.6331877E-01
   7139.00  4.5438735E-01
   7139.33  4.5068330E-01
   7139.67  4.5085176E-01
   7140.00  4.5419571E-01
   7140.33  4.6022291E-01
   7140.67  4.6792074E-01
   7141.00  4.7676198E-01
   7141.33  4.8631901E-01
   7141.67  4.9611154E-01
   7142.00  5.0586738E-01
   7142.33  5.1530057E-01
   7142.67  5.2425445E-01
   7143.00  5.3260148E-01
   7143.33  5.4014219E-01
   7143.67  5.4689330E-01
   7144.00  5.5281830E-01
   7144.33  5.5779622E-01
   7144.67  5.6194154E-01
   7145.00  5.6527909E-01
   7145.33  5.6775482E-01
   7145.67  5.6950695E-01
   7146.00  5.7057284E-01
   7146.33  5.7092792E-01
   7146.67  5.7071904E-01
   7147.00  5.7001419E-01
   7147.33  5.6885193E-01
   7147.67  5.6738213E-01
   7148.00  5.6569611E-01
   7148.33  5.6389193E-01
   7148.67  5.6209488E-01
   7149.00  5.6039744E-01
   7149.33  5.5892082E-01
   7149.67  5.5772055E-01
   7150.00  5.5684966E-01
   7150.33  5.5639266E-01
   7150.67  5.5631688E-01
   7151.00  5.5661577E-01
   7151.33  5.5730722E-01
   7151.67  5.5830700E-01
   7152.00  5.5957267E-01
   7152.33  5.6107851E-01
   7152.67  5.6274771E-01
   7153.00  5.6454186E-01
   7153.33  5.6643511E-01
   7153.67  5.6839176E-01
   7154.00  5.7040152E-01
   7154.33  5.7246951E-01
   7154.67  5.7459490E-01
   7155.00  5.7678347E-01
   7155.33  5.7904542E-01
   7155.67  5.8136406E-01
   7156.00  5.8372084E-01
   7156.33  5.8608081E-01
   7156.67  5.8839467E-01
   7157.00  5.9061185E-01
   7157.33  5.9264761E-01
   7157.67  5.9445606E-01
   7158.00  5.9598252E-01
   7158.33  5.9712629E-01
   7158.67  5.9788047E-01
   7159.00  5.9821064E-01
   7159.33  5.9802922E-01
   7159.67  5.9737245E-01
   7160.00  5.9623135E-01
   7160.33  5.9453761E-01
   7160.67  5.9234548E-01
   7161.00  5.8965274E-01
   7161.33  5.8639813E-01
   7161.67  5.8264756E-01
   7162.00  5.7840920E-01
   7162.33  5.7363891E-01
   7162.67  5.6841601E-01
   7163.00  5.6276266E-01
   7163.33  5.5665988E-01
   7163.67  5.5019339E-01
   7164.00  5.4339725E-01
   7164.33  5.3627761E-01
   7164.67  5.2891441E-01
   7165.00  5.2134777E-01
   7165.33  5.1360629E-01
   7165.67  5.0575843E-01
   7166.00  4.9784775E-01
   7166.33  4.8992288E-01
   7166.67  4.8203383E-01
   7167.00  4.7422147E-01
   7167.33  4.6654734E-01
   7167.67  4.5903978E-01
   7168.00  4.5173446E-01
   7168.33  4.4470172E-01
   7168.67  4.3795130E-01
   7169.00  4.3151605E-01
   7169.33  4.2547180E-01
   7169.67  4.1979995E-01
   7170.00  4.1451816E-01
   7170.33  4.0969671E-01
   7170.67  4.0530287E-01
   7171.00  4.0135475E-01
   7171.33  3.9794273E-01
   7171.67  3.9506156E-01
   7172.00  3.9277757E-01
