    FDMNES
    energy     <xanes>
   7097.00  5.1709491E-03
   7097.33  5.2948276E-03
   7097.67  5.4244923E-03
   7098.00  5.5603487E-03
   7098.33  5.7037595E-03
   7098.67  5.8544708E-03
   7099.00  6.0130403E-03
   7099.33  6.1812680E-03
   7099.67  6.3589012E-03
   7100.00  6.5467295E-03
   7100.33  6.7471961E-03
   7100.67  6.9600829E-03
   7101.00  7.1865443E-03
   7101.33  7.4300065E-03
   7101.67  7.6903592E-03
   7102.00  7.9693566E-03
   7102.33  8.2719950E-03
   7102.67  8.5984345E-03
   7103.00  8.9514681E-03
   7103.33  9.3387389E-03
   7103.67  9.7610499E-03
   7104.00  1.0223111E-02
   7104.33  1.0737337E-02
   7104.67  1.1306077E-02
   7105.00  1.1937876E-02
   7105.33  1.2654511E-02
   7105.67  1.3462276E-02
   7106.00  1.4378226E-02
   7106.33  1.5444712E-02
   7106.67  1.6679150E-02
   7107.00  1.8120377E-02
   7107.33  1.9863615E-02
   7107.67  2.1963184E-02
   7108.00  2.4526340E-02
   7108.33  2.7819711E-02
   7108.67  3.2056134E-02
   7109.00  3.7637676E-02
   7109.33  4.5633650E-02
   7109.67  5.7286843E-02
   7110.00  7.5047119E-02
   7110.33  1.0594523E-01
   7110.67  1.5657004E-01
   7111.00  2.2358457E-01
   7111.33  2.7443406E-01
   7111.67  2.9999415E-01
   7112.00  3.1619118E-01
   7112.33  3.4369500E-01
   7112.67  3.8554806E-01
   7113.00  4.2889695E-01
   7113.33  4.4320624E-01
   7113.67  4.1655253E-01
   7114.00  3.6047133E-01
   7114.33  3.0067480E-01
   7114.67  2.5303521E-01
   7115.00  2.1881711E-01
   7115.33  1.9395867E-01
   7115.67  1.7101510E-01
   7116.00  1.4777420E-01
   7116.33  1.2727407E-01
   7116.67  1.1183059E-01
   7117.00  1.0119943E-01
   7117.33  9.4342557E-02
   7117.67  8.9677567E-02
   7118.00  8.6762554E-02
   7118.33  8.5723770E-02
   7118.67  8.6443852E-02
   7119.00  8.8938159E-02
   7119.33  9.3002693E-02
   7119.67  9.7545785E-02
   7120.00  1.0198071E-01
   7120.33  1.0677845E-01
   7120.67  1.1313416E-01
   7121.00  1.2205310E-01
   7121.33  1.3448542E-01
   7121.67  1.4969617E-01
   7122.00  1.6670709E-01
   7122.33  1.8436567E-01
   7122.67  2.0236916E-01
   7123.00  2.2132684E-01
   7123.33  2.4193775E-01
   7123.67  2.6364495E-01
   7124.00  2.8563903E-01
   7124.33  3.0737369E-01
   7124.67  3.2983092E-01
   7125.00  3.5480939E-01
   7125.33  3.8447284E-01
   7125.67  4.1804601E-01
   7126.00  4.5349638E-01
   7126.33  4.8679857E-01
   7126.67  5.1446939E-01
   7127.00  5.3466920E-01
   7127.33  5.4647338E-01
   7127.67  5.5213476E-01
   7128.00  5.5291251E-01
   7128.33  5.5017516E-01
   7128.67  5.4657516E-01
   7129.00  5.4393976E-01
   7129.33  5.4394996E-01
   7129.67  5.4688329E-01
   7130.00  5.5284841E-01
   7130.33  5.6259582E-01
   7130.67  5.7672101E-01
   7131.00  5.9644203E-01
   7131.33  6.2379032E-01
   7131.67  6.5813456E-01
   7132.00  6.9843627E-01
   7132.33  7.4263954E-01
   7132.67  7.8742514E-01
   7133.00  8.3038343E-01
   7133.33  8.6700998E-01
   7133.67  8.9274758E-01
   7134.00  9.0400278E-01
   7134.33  8.9915502E-01
   7134.67  8.8456263E-01
   7135.00  8.6522366E-01
   7135.33  8.4578345E-01
   7135.67  8.2892016E-01
   7136.00  8.1560544E-01
   7136.33  8.0659062E-01
   7136.67  8.0121098E-01
   7137.00  7.9906044E-01
   7137.33  7.9969679E-01
   7137.67  8.0179097E-01
   7138.00  8.0431397E-01
   7138.33  8.0586910E-01
   7138.67  8.0530060E-01
   7139.00  8.0168255E-01
   7139.33  7.9386126E-01
   7139.67  7.8221877E-01
   7140.00  7.6719200E-01
   7140.33  7.4941833E-01
   7140.67  7.3032120E-01
   7141.00  7.1077142E-01
   7141.33  6.9153776E-01
   7141.67  6.7299503E-01
   7142.00  6.5529049E-01
   7142.33  6.3854247E-01
   7142.67  6.2256677E-01
   7143.00  6.0727885E-01
   7143.33  5.9267668E-01
   7143.67  5.7865562E-01
   7144.00  5.6523253E-01
   7144.33  5.5251769E-01
   7144.67  5.4046049E-01
   7145.00  5.2907528E-01
   7145.33  5.1844074E-01
   7145.67  5.0844584E-01
   7146.00  4.9905476E-01
   7146.33  4.9029109E-01
   7146.67  4.8204558E-01
   7147.00  4.7429709E-01
   7147.33  4.6710067E-01
   7147.67  4.6040411E-01
   7148.00  4.5422506E-01
   7148.33  4.4865724E-01
   7148.67  4.4365397E-01
   7149.00  4.3922639E-01
   7149.33  4.3545159E-01
   7149.67  4.3225240E-01
   7150.00  4.2961520E-01
   7150.33  4.2757772E-01
   7150.67  4.2603227E-01
   7151.00  4.2493670E-01
   7151.33  4.2428802E-01
   7151.67  4.2398465E-01
   7152.00  4.2398398E-01
   7152.33  4.2427222E-01
   7152.67  4.2477421E-01
   7153.00  4.2544968E-01
   7153.33  4.2625510E-01
   7153.67  4.2710158E-01
   7154.00  4.2791111E-01
   7154.33  4.2856126E-01
   7154.67  4.2895617E-01
   7155.00  4.2899818E-01
   7155.33  4.2852523E-01
   7155.67  4.2750858E-01
   7156.00  4.2589652E-01
   7156.33  4.2358298E-01
   7156.67  4.2065170E-01
   7157.00  4.1713262E-01
   7157.33  4.1302082E-01
   7157.67  4.0846600E-01
   7158.00  4.0355402E-01
   7158.33  3.9836551E-01
   7158.67  3.9305156E-01
   7159.00  3.8771779E-01
   7159.33  3.8249762E-01
   7159.67  3.7749613E-01
   7160.00  3.7281081E-01
   7160.33  3.6860082E-01
   7160.67  3.6490940E-01
   7161.00  3.6180810E-01
   7161.33  3.5944154E-01
   7161.67  3.5776187E-01
   7162.00  3.5677335E-01
   7162.33  3.5654724E-01
   7162.67  3.5696625E-01
   7163.00  3.5798703E-01
   7163.33  3.5961438E-01
   7163.67  3.6171238E-01
   7164.00  3.6422303E-01
   7164.33  3.6712981E-01
   7164.67  3.7033934E-01
   7165.00  3.7381917E-01
   7165.33  3.7757381E-01
   7165.67  3.8155762E-01
   7166.00  3.8576349E-01
   7166.33  3.9021260E-01
   7166.67  3.9486932E-01
   7167.00  3.9972224E-01
   7167.33  4.0477620E-01
   7167.67  4.0998545E-01
   7168.00  4.1532470E-01
   7168.33  4.2077142E-01
   7168.67  4.2627397E-01
   7169.00  4.3179413E-01
   7169.33  4.3727915E-01
   7169.67  4.4267951E-01
   7170.00  4.4794582E-01
   7170.33  4.5299231E-01
   7170.67  4.5777630E-01
   7171.00  4.6223226E-01
   7171.33  4.6621243E-01
   7171.67  4.6963648E-01
   7172.00  4.7235865E-01
