    FDMNES
    energy     <xanes>
   7097.00  5.1047746E-03
   7097.33  5.2242176E-03
   7097.67  5.3489941E-03
   7098.00  5.4794579E-03
   7098.33  5.6168313E-03
   7098.67  5.7608518E-03
   7099.00  5.9119985E-03
   7099.33  6.0718597E-03
   7099.67  6.2401626E-03
   7100.00  6.4175721E-03
   7100.33  6.6062041E-03
   7100.67  6.8057961E-03
   7101.00  7.0172990E-03
   7101.33  7.2436149E-03
   7101.67  7.4845385E-03
   7102.00  7.7414785E-03
   7102.33  8.0185574E-03
   7102.67  8.3157315E-03
   7103.00  8.6351775E-03
   7103.33  8.9830084E-03
   7103.67  9.3595779E-03
   7104.00  9.7684291E-03
   7104.33  1.0219125E-02
   7104.67  1.0712975E-02
   7105.00  1.1256138E-02
   7105.33  1.1864636E-02
   7105.67  1.2542162E-02
   7106.00  1.3300383E-02
   7106.33  1.4168716E-02
   7106.67  1.5157300E-02
   7107.00  1.6291004E-02
   7107.33  1.7631254E-02
   7107.67  1.9208297E-02
   7108.00  2.1085122E-02
   7108.33  2.3417553E-02
   7108.67  2.6315007E-02
   7109.00  2.9987613E-02
   7109.33  3.4981629E-02
   7109.67  4.1865532E-02
   7110.00  5.1749471E-02
   7110.33  6.7797564E-02
   7110.67  9.3517143E-02
   7111.00  1.3097986E-01
   7111.33  1.7278414E-01
   7111.67  2.0622693E-01
   7112.00  2.3332733E-01
   7112.33  2.7474229E-01
   7112.67  3.2815068E-01
   7113.00  3.6905254E-01
   7113.33  3.9846161E-01
   7113.67  4.2523259E-01
   7114.00  4.4027632E-01
   7114.33  4.2944373E-01
   7114.67  3.8145244E-01
   7115.00  3.1465141E-01
   7115.33  2.6266755E-01
   7115.67  2.3188225E-01
   7116.00  2.1448471E-01
   7116.33  1.9731700E-01
   7116.67  1.7529223E-01
   7117.00  1.5362757E-01
   7117.33  1.3958297E-01
   7117.67  1.3417389E-01
   7118.00  1.3726849E-01
   7118.33  1.4812485E-01
   7118.67  1.5965434E-01
   7119.00  1.6484123E-01
   7119.33  1.6153763E-01
   7119.67  1.5493401E-01
   7120.00  1.4940555E-01
   7120.33  1.4815262E-01
   7120.67  1.5064395E-01
   7121.00  1.5697007E-01
   7121.33  1.6844531E-01
   7121.67  1.8444586E-01
   7122.00  2.0392177E-01
   7122.33  2.2524620E-01
   7122.67  2.4745404E-01
   7123.00  2.7187001E-01
   7123.33  2.9912127E-01
   7123.67  3.2137452E-01
   7124.00  3.3228540E-01
   7124.33  3.3436586E-01
   7124.67  3.3660583E-01
   7125.00  3.4391670E-01
   7125.33  3.6106830E-01
   7125.67  3.8693687E-01
   7126.00  4.1763786E-01
   7126.33  4.4773588E-01
   7126.67  4.7633959E-01
   7127.00  5.0491487E-01
   7127.33  5.3343640E-01
   7127.67  5.6104094E-01
   7128.00  5.8676281E-01
   7128.33  6.1032876E-01
   7128.67  6.3325108E-01
   7129.00  6.5283896E-01
   7129.33  6.6344717E-01
   7129.67  6.6719029E-01
   7130.00  6.6759154E-01
   7130.33  6.6778212E-01
   7130.67  6.6886166E-01
   7131.00  6.7026106E-01
   7131.33  6.7090042E-01
   7131.67  6.7079289E-01
   7132.00  6.7055892E-01
   7132.33  6.7074328E-01
   7132.67  6.7086310E-01
   7133.00  6.7006298E-01
   7133.33  6.6772896E-01
   7133.67  6.6477945E-01
   7134.00  6.6228709E-01
   7134.33  6.6107516E-01
   7134.67  6.6066743E-01
   7135.00  6.6023645E-01
   7135.33  6.5856892E-01
   7135.67  6.5489052E-01
   7136.00  6.4862335E-01
   7136.33  6.3900933E-01
   7136.67  6.2640328E-01
   7137.00  6.1111851E-01
   7137.33  5.9365288E-01
   7137.67  5.7531784E-01
   7138.00  5.5718136E-01
   7138.33  5.4065474E-01
   7138.67  5.2657749E-01
   7139.00  5.1553544E-01
   7139.33  5.0824657E-01
   7139.67  5.0424467E-01
   7140.00  5.0330720E-01
   7140.33  5.0538314E-01
   7140.67  5.0965659E-01
   7141.00  5.1567875E-01
   7141.33  5.2312881E-01
   7141.67  5.3150676E-01
   7142.00  5.4065352E-01
   7142.33  5.5056931E-01
   7142.67  5.6110085E-01
   7143.00  5.7215700E-01
   7143.33  5.8363401E-01
   7143.67  5.9530310E-01
   7144.00  6.0698839E-01
   7144.33  6.1841477E-01
   7144.67  6.2927909E-01
   7145.00  6.3920146E-01
   7145.33  6.4746486E-01
   7145.67  6.5373539E-01
   7146.00  6.5771410E-01
   7146.33  6.5904351E-01
   7146.67  6.5824755E-01
   7147.00  6.5568358E-01
   7147.33  6.5168274E-01
   7147.67  6.4686864E-01
   7148.00  6.4155948E-01
   7148.33  6.3597564E-01
   7148.67  6.3027064E-01
   7149.00  6.2446309E-01
   7149.33  6.1849950E-01
   7149.67  6.1233586E-01
   7150.00  6.0592383E-01
   7150.33  5.9920522E-01
   7150.67  5.9224333E-01
   7151.00  5.8511010E-01
   7151.33  5.7792810E-01
   7151.67  5.7085778E-01
   7152.00  5.6403508E-01
   7152.33  5.5764918E-01
   7152.67  5.5175713E-01
   7153.00  5.4641437E-01
   7153.33  5.4171467E-01
   7153.67  5.3756817E-01
   7154.00  5.3392964E-01
   7154.33  5.3076812E-01
   7154.67  5.2792359E-01
   7155.00  5.2529531E-01
   7155.33  5.2277662E-01
   7155.67  5.2024474E-01
   7156.00  5.1762223E-01
   7156.33  5.1483300E-01
   7156.67  5.1187849E-01
   7157.00  5.0877521E-01
   7157.33  5.0555882E-01
   7157.67  5.0231140E-01
   7158.00  4.9910174E-01
   7158.33  4.9602760E-01
   7158.67  4.9315345E-01
   7159.00  4.9054093E-01
   7159.33  4.8829160E-01
   7159.67  4.8641560E-01
   7160.00  4.8494736E-01
   7160.33  4.8396852E-01
   7160.67  4.8343476E-01
   7161.00  4.8333698E-01
   7161.33  4.8368922E-01
   7161.67  4.8437455E-01
   7162.00  4.8530961E-01
   7162.33  4.8639595E-01
   7162.67  4.8750078E-01
   7163.00  4.8853327E-01
   7163.33  4.8939091E-01
   7163.67  4.9004411E-01
   7164.00  4.9046896E-01
   7164.33  4.9061722E-01
   7164.67  4.9050763E-01
   7165.00  4.9012909E-01
   7165.33  4.8942729E-01
   7165.67  4.8841386E-01
   7166.00  4.8706709E-01
   7166.33  4.8532306E-01
   7166.67  4.8321884E-01
   7167.00  4.8076250E-01
   7167.33  4.7794199E-01
   7167.67  4.7484739E-01
   7168.00  4.7153592E-01
   7168.33  4.6806816E-01
   7168.67  4.6454388E-01
   7169.00  4.6103153E-01
   7169.33  4.5761357E-01
   7169.67  4.5433954E-01
   7170.00  4.5125091E-01
   7170.33  4.4841066E-01
   7170.67  4.4581147E-01
   7171.00  4.4346419E-01
   7171.33  4.4141805E-01
   7171.67  4.3967509E-01
   7172.00  4.3828845E-01
