    FDMNES
    energy     <xanes>
   7097.00  4.6985531E-03
   7097.33  4.8030691E-03
   7097.67  4.9119738E-03
   7098.00  5.0255452E-03
   7098.33  5.1447679E-03
   7098.67  5.2694094E-03
   7099.00  5.3998444E-03
   7099.33  5.5373418E-03
   7099.67  5.6816597E-03
   7100.00  5.8333166E-03
   7100.33  5.9939923E-03
   7100.67  6.1634524E-03
   7101.00  6.3424394E-03
   7101.33  6.5332483E-03
   7101.67  6.7356937E-03
   7102.00  6.9508811E-03
   7102.33  7.1820726E-03
   7102.67  7.4292249E-03
   7103.00  7.6940667E-03
   7103.33  7.9814692E-03
   7103.67  8.2917489E-03
   7104.00  8.6277803E-03
   7104.33  8.9973096E-03
   7104.67  9.4015531E-03
   7105.00  9.8456780E-03
   7105.33  1.0343062E-02
   7105.67  1.0897274E-02
   7106.00  1.1518610E-02
   7106.33  1.2232890E-02
   7106.67  1.3050480E-02
   7107.00  1.3994998E-02
   7107.33  1.5124702E-02
   7107.67  1.6473047E-02
   7108.00  1.8106426E-02
   7108.33  2.0190676E-02
   7108.67  2.2860823E-02
   7109.00  2.6372281E-02
   7109.33  3.1407919E-02
   7109.67  3.8775862E-02
   7110.00  5.0073593E-02
   7110.33  6.9936957E-02
   7110.67  1.0306460E-01
   7111.00  1.4811675E-01
   7111.33  1.8035631E-01
   7111.67  1.9180318E-01
   7112.00  1.9243394E-01
   7112.33  1.8646593E-01
   7112.67  1.7968345E-01
   7113.00  1.7235099E-01
   7113.33  1.6154221E-01
   7113.67  1.4891916E-01
   7114.00  1.3716964E-01
   7114.33  1.2527917E-01
   7114.67  1.1384897E-01
   7115.00  1.0535144E-01
   7115.33  1.0236124E-01
   7115.67  1.0544146E-01
   7116.00  1.1546659E-01
   7116.33  1.3497804E-01
   7116.67  1.6514946E-01
   7117.00  2.0754984E-01
   7117.33  2.6037424E-01
   7117.67  3.0804268E-01
   7118.00  3.3370250E-01
   7118.33  3.3157652E-01
   7118.67  3.1966846E-01
   7119.00  3.0848485E-01
   7119.33  3.0276800E-01
   7119.67  3.0146840E-01
   7120.00  3.0275252E-01
   7120.33  3.0551638E-01
   7120.67  3.1039937E-01
   7121.00  3.1797466E-01
   7121.33  3.2709739E-01
   7121.67  3.3531706E-01
   7122.00  3.4156556E-01
   7122.33  3.4600178E-01
   7122.67  3.5007738E-01
   7123.00  3.5472731E-01
   7123.33  3.6039358E-01
   7123.67  3.6684828E-01
   7124.00  3.7430435E-01
   7124.33  3.8315218E-01
   7124.67  3.9269686E-01
   7125.00  4.0232081E-01
   7125.33  4.1258972E-01
   7125.67  4.2536880E-01
   7126.00  4.4188987E-01
   7126.33  4.6227728E-01
   7126.67  4.8485874E-01
   7127.00  5.0834766E-01
   7127.33  5.3074809E-01
   7127.67  5.5022531E-01
   7128.00  5.6572689E-01
   7128.33  5.7685883E-01
   7128.67  5.8538374E-01
   7129.00  5.9278378E-01
   7129.33  6.0063518E-01
   7129.67  6.0972423E-01
   7130.00  6.2002656E-01
   7130.33  6.3079822E-01
   7130.67  6.4075289E-01
   7131.00  6.4886002E-01
   7131.33  6.5404772E-01
   7131.67  6.5665530E-01
   7132.00  6.5725201E-01
   7132.33  6.5664749E-01
   7132.67  6.5587388E-01
   7133.00  6.5547110E-01
   7133.33  6.5551414E-01
   7133.67  6.5510850E-01
   7134.00  6.5331854E-01
   7134.33  6.4989302E-01
   7134.67  6.4618754E-01
   7135.00  6.4326734E-01
   7135.33  6.4171937E-01
   7135.67  6.4095224E-01
   7136.00  6.4025023E-01
   7136.33  6.3880003E-01
   7136.67  6.3635889E-01
   7137.00  6.3297128E-01
   7137.33  6.2877133E-01
   7137.67  6.2402218E-01
   7138.00  6.1870969E-01
   7138.33  6.1251340E-01
   7138.67  6.0522164E-01
   7139.00  5.9660480E-01
   7139.33  5.8635935E-01
   7139.67  5.7478921E-01
   7140.00  5.6220534E-01
   7140.33  5.4905189E-01
   7140.67  5.3590105E-01
   7141.00  5.2308249E-01
   7141.33  5.1086799E-01
   7141.67  4.9925025E-01
   7142.00  4.8822766E-01
   7142.33  4.7785808E-01
   7142.67  4.6805939E-01
   7143.00  4.5883385E-01
   7143.33  4.5026953E-01
   7143.67  4.4231322E-01
   7144.00  4.3498059E-01
   7144.33  4.2836436E-01
   7144.67  4.2239841E-01
   7145.00  4.1710384E-01
   7145.33  4.1261806E-01
   7145.67  4.0893165E-01
   7146.00  4.0613915E-01
   7146.33  4.0449616E-01
   7146.67  4.0400173E-01
   7147.00  4.0475103E-01
   7147.33  4.0699067E-01
   7147.67  4.1056250E-01
   7148.00  4.1539727E-01
   7148.33  4.2146490E-01
   7148.67  4.2838891E-01
   7149.00  4.3594451E-01
   7149.33  4.4392326E-01
   7149.67  4.5203837E-01
   7150.00  4.6011255E-01
   7150.33  4.6796199E-01
   7150.67  4.7549942E-01
   7151.00  4.8265209E-01
   7151.33  4.8928769E-01
   7151.67  4.9538813E-01
   7152.00  5.0088798E-01
   7152.33  5.0563926E-01
   7152.67  5.0968765E-01
   7153.00  5.1302026E-01
   7153.33  5.1556119E-01
   7153.67  5.1746336E-01
   7154.00  5.1881502E-01
   7154.33  5.1968000E-01
   7154.67  5.2022915E-01
   7155.00  5.2054957E-01
   7155.33  5.2069715E-01
   7155.67  5.2073252E-01
   7156.00  5.2066562E-01
   7156.33  5.2047084E-01
   7156.67  5.2013423E-01
   7157.00  5.1962220E-01
   7157.33  5.1885982E-01
   7157.67  5.1782258E-01
   7158.00  5.1645925E-01
   7158.33  5.1464763E-01
   7158.67  5.1235403E-01
   7159.00  5.0950842E-01
   7159.33  5.0597532E-01
   7159.67  5.0182346E-01
   7160.00  4.9710888E-01
   7160.33  4.9191881E-01
   7160.67  4.8649242E-01
   7161.00  4.8099814E-01
   7161.33  4.7563111E-01
   7161.67  4.7052133E-01
   7162.00  4.6575223E-01
   7162.33  4.6142120E-01
   7162.67  4.5748887E-01
   7163.00  4.5394356E-01
   7163.33  4.5080497E-01
   7163.67  4.4799825E-01
   7164.00  4.4549891E-01
   7164.33  4.4331741E-01
   7164.67  4.4139832E-01
   7165.00  4.3972684E-01
   7165.33  4.3831481E-01
   7165.67  4.3711318E-01
   7166.00  4.3609897E-01
   7166.33  4.3525642E-01
   7166.67  4.3452476E-01
   7167.00  4.3386440E-01
   7167.33  4.3322940E-01
   7167.67  4.3256761E-01
   7168.00  4.3183860E-01
   7168.33  4.3098779E-01
   7168.67  4.2999807E-01
   7169.00  4.2885419E-01
   7169.33  4.2753370E-01
   7169.67  4.2606964E-01
   7170.00  4.2448546E-01
   7170.33  4.2281028E-01
   7170.67  4.2110409E-01
   7171.00  4.1941720E-01
   7171.33  4.1782997E-01
   7171.67  4.1641976E-01
   7172.00  4.1527764E-01
