    FDMNES
    energy     <xanes>
   7097.00  4.6955479E-03
   7097.33  4.7999170E-03
   7097.67  4.9086676E-03
   7098.00  5.0220776E-03
   7098.33  5.1411297E-03
   7098.67  5.2655922E-03
   7099.00  5.3958390E-03
   7099.33  5.5331375E-03
   7099.67  5.6772461E-03
   7100.00  5.8286828E-03
   7100.33  5.9891249E-03
   7100.67  6.1583388E-03
   7101.00  6.3370659E-03
   7101.33  6.5275985E-03
   7101.67  6.7297517E-03
   7102.00  6.9446296E-03
   7102.33  7.1754906E-03
   7102.67  7.4222915E-03
   7103.00  7.6867593E-03
   7103.33  7.9737593E-03
   7103.67  8.2836080E-03
   7104.00  8.6191764E-03
   7104.33  8.9882012E-03
   7104.67  9.3918968E-03
   7105.00  9.8354236E-03
   7105.33  1.0332140E-02
   7105.67  1.0885609E-02
   7106.00  1.1506109E-02
   7106.33  1.2219413E-02
   7106.67  1.3035863E-02
   7107.00  1.3979025E-02
   7107.33  1.5107026E-02
   7107.67  1.6453215E-02
   7108.00  1.8083795E-02
   7108.33  2.0164117E-02
   7108.67  2.2828721E-02
   7109.00  2.6332146E-02
   7109.33  3.1354941E-02
   7109.67  3.8702387E-02
   7110.00  4.9966229E-02
   7110.33  6.9758256E-02
   7110.67  1.0267626E-01
   7111.00  1.4711964E-01
   7111.33  1.7893022E-01
   7111.67  1.9149730E-01
   7112.00  1.9434278E-01
   7112.33  1.8925839E-01
   7112.67  1.8125201E-01
   7113.00  1.7242951E-01
   7113.33  1.6188545E-01
   7113.67  1.4997138E-01
   7114.00  1.3858845E-01
   7114.33  1.2680272E-01
   7114.67  1.1505672E-01
   7115.00  1.0599133E-01
   7115.33  1.0243493E-01
   7115.67  1.0498342E-01
   7116.00  1.1445292E-01
   7116.33  1.3328408E-01
   7116.67  1.6260175E-01
   7117.00  2.0403159E-01
   7117.33  2.5627237E-01
   7117.67  3.0448669E-01
   7118.00  3.3164803E-01
   7118.33  3.3046396E-01
   7118.67  3.1858318E-01
   7119.00  3.0701380E-01
   7119.33  3.0062934E-01
   7119.67  2.9821104E-01
   7120.00  2.9798650E-01
   7120.33  2.9920943E-01
   7120.67  3.0297667E-01
   7121.00  3.1029414E-01
   7121.33  3.2049943E-01
   7121.67  3.3072651E-01
   7122.00  3.3920749E-01
   7122.33  3.4522000E-01
   7122.67  3.4998154E-01
   7123.00  3.5460254E-01
   7123.33  3.5990730E-01
   7123.67  3.6604785E-01
   7124.00  3.7336100E-01
   7124.33  3.8226523E-01
   7124.67  3.9198832E-01
   7125.00  4.0180655E-01
   7125.33  4.1208282E-01
   7125.67  4.2463181E-01
   7126.00  4.4079991E-01
   7126.33  4.6089437E-01
   7126.67  4.8326074E-01
   7127.00  5.0653040E-01
   7127.33  5.2870546E-01
   7127.67  5.4810700E-01
   7128.00  5.6380952E-01
   7128.33  5.7541799E-01
   7128.67  5.8452362E-01
   7129.00  5.9251259E-01
   7129.33  6.0086591E-01
   7129.67  6.1030195E-01
   7130.00  6.2078057E-01
   7130.33  6.3163015E-01
   7130.67  6.4172074E-01
   7131.00  6.5012757E-01
   7131.33  6.5583683E-01
   7131.67  6.5907432E-01
   7132.00  6.6026989E-01
   7132.33  6.6007643E-01
   7132.67  6.5951798E-01
   7133.00  6.5919579E-01
   7133.33  6.5927621E-01
   7133.67  6.5887541E-01
   7134.00  6.5695284E-01
   7134.33  6.5309348E-01
   7134.67  6.4865504E-01
   7135.00  6.4472721E-01
   7135.33  6.4192300E-01
   7135.67  6.3977139E-01
   7136.00  6.3767511E-01
   7136.33  6.3502105E-01
   7136.67  6.3173660E-01
   7137.00  6.2799391E-01
   7137.33  6.2405424E-01
   7137.67  6.2007452E-01
   7138.00  6.1596831E-01
   7138.33  6.1135703E-01
   7138.67  6.0585359E-01
   7139.00  5.9911125E-01
   7139.33  5.9066984E-01
   7139.67  5.8067641E-01
   7140.00  5.6932218E-01
   7140.33  5.5693708E-01
   7140.67  5.4417663E-01
   7141.00  5.3144854E-01
   7141.33  5.1909800E-01
   7141.67  5.0721686E-01
   7142.00  4.9584579E-01
   7142.33  4.8506930E-01
   7142.67  4.7483687E-01
   7143.00  4.6517144E-01
   7143.33  4.5618826E-01
   7143.67  4.4785398E-01
   7144.00  4.4019638E-01
   7144.33  4.3331656E-01
   7144.67  4.2712944E-01
   7145.00  4.2163792E-01
   7145.33  4.1695510E-01
   7145.67  4.1304989E-01
   7146.00  4.1000418E-01
   7146.33  4.0806338E-01
   7146.67  4.0723724E-01
   7147.00  4.0763346E-01
   7147.33  4.0951830E-01
   7147.67  4.1275401E-01
   7148.00  4.1728461E-01
   7148.33  4.2308905E-01
   7148.67  4.2977345E-01
   7149.00  4.3709704E-01
   7149.33  4.4483848E-01
   7149.67  4.5270810E-01
   7150.00  4.6053433E-01
   7150.33  4.6815189E-01
   7150.67  4.7549582E-01
   7151.00  4.8251557E-01
   7151.33  4.8911065E-01
   7151.67  4.9526358E-01
   7152.00  5.0090631E-01
   7152.33  5.0588197E-01
   7152.67  5.1019366E-01
   7153.00  5.1379178E-01
   7153.33  5.1655358E-01
   7153.67  5.1860268E-01
   7154.00  5.2000751E-01
   7154.33  5.2080941E-01
   7154.67  5.2119723E-01
   7155.00  5.2127218E-01
   7155.33  5.2110694E-01
   7155.67  5.2079768E-01
   7156.00  5.2037775E-01
   7156.33  5.1984676E-01
   7156.67  5.1920648E-01
   7157.00  5.1843383E-01
   7157.33  5.1746657E-01
   7157.67  5.1627647E-01
   7158.00  5.1481380E-01
   7158.33  5.1296575E-01
   7158.67  5.1069394E-01
   7159.00  5.0792797E-01
   7159.33  5.0453176E-01
   7159.67  5.0055054E-01
   7160.00  4.9601675E-01
   7160.33  4.9098428E-01
   7160.67  4.8566998E-01
   7161.00  4.8023017E-01
   7161.33  4.7485084E-01
   7161.67  4.6967961E-01
   7162.00  4.6481424E-01
   7162.33  4.6036847E-01
   7162.67  4.5632150E-01
   7163.00  4.5267245E-01
   7163.33  4.4945128E-01
   7163.67  4.4658401E-01
   7164.00  4.4404578E-01
   7164.33  4.4184653E-01
   7164.67  4.3992415E-01
   7165.00  4.3825989E-01
   7165.33  4.3686228E-01
   7165.67  4.3567868E-01
   7166.00  4.3468541E-01
   7166.33  4.3386815E-01
   7166.67  4.3316786E-01
   7167.00  4.3254776E-01
   7167.33  4.3196731E-01
   7167.67  4.3137636E-01
   7168.00  4.3073669E-01
   7168.33  4.2999683E-01
   7168.67  4.2913549E-01
   7169.00  4.2813381E-01
   7169.33  4.2696417E-01
   7169.67  4.2565129E-01
   7170.00  4.2421224E-01
   7170.33  4.2266799E-01
   7170.67  4.2107542E-01
   7171.00  4.1948255E-01
   7171.33  4.1796678E-01
   7171.67  4.1660969E-01
   7172.00  4.1550526E-01
