    FDMNES
    energy     <xanes>
   7097.00  4.6161438E-03
   7097.33  4.7168199E-03
   7097.67  4.8216229E-03
   7098.00  4.9308088E-03
   7098.33  5.0452944E-03
   7098.67  5.1648544E-03
   7099.00  5.2898325E-03
   7099.33  5.4214057E-03
   7099.67  5.5593382E-03
   7100.00  5.7041048E-03
   7100.33  5.8572569E-03
   7100.67  6.0185647E-03
   7101.00  6.1887062E-03
   7101.33  6.3697943E-03
   7101.67  6.5616426E-03
   7102.00  6.7652605E-03
   7102.33  6.9836438E-03
   7102.67  7.2167367E-03
   7103.00  7.4661201E-03
   7103.33  7.7362644E-03
   7103.67  8.0274503E-03
   7104.00  8.3423168E-03
   7104.33  8.6879888E-03
   7104.67  9.0655989E-03
   7105.00  9.4799284E-03
   7105.33  9.9433608E-03
   7105.67  1.0459292E-02
   7106.00  1.1037373E-02
   7106.33  1.1701808E-02
   7106.67  1.2462652E-02
   7107.00  1.3342501E-02
   7107.33  1.4397139E-02
   7107.67  1.5659836E-02
   7108.00  1.7196043E-02
   7108.33  1.9169958E-02
   7108.67  2.1720626E-02
   7109.00  2.5110991E-02
   7109.33  3.0051435E-02
   7109.67  3.7414244E-02
   7110.00  4.8932930E-02
   7110.33  6.9627514E-02
   7110.67  1.0399254E-01
   7111.00  1.4739986E-01
   7111.33  1.6848544E-01
   7111.67  1.6582524E-01
   7112.00  1.5715376E-01
   7112.33  1.4837082E-01
   7112.67  1.4017908E-01
   7113.00  1.3288662E-01
   7113.33  1.2357299E-01
   7113.67  1.1131928E-01
   7114.00  9.8789138E-02
   7114.33  8.9621414E-02
   7114.67  8.4755545E-02
   7115.00  8.4598982E-02
   7115.33  9.0099126E-02
   7115.67  1.0098848E-01
   7116.00  1.1750196E-01
   7116.33  1.3958632E-01
   7116.67  1.6381815E-01
   7117.00  1.8665224E-01
   7117.33  2.0542673E-01
   7117.67  2.2184812E-01
   7118.00  2.3818702E-01
   7118.33  2.5679216E-01
   7118.67  2.7834941E-01
   7119.00  3.0290619E-01
   7119.33  3.2993894E-01
   7119.67  3.5574585E-01
   7120.00  3.7498405E-01
   7120.33  3.8237206E-01
   7120.67  3.8160336E-01
   7121.00  3.7738065E-01
   7121.33  3.7404662E-01
   7121.67  3.7353672E-01
   7122.00  3.7653948E-01
   7122.33  3.8369676E-01
   7122.67  3.9404455E-01
   7123.00  4.0657265E-01
   7123.33  4.1985438E-01
   7123.67  4.3266935E-01
   7124.00  4.4476658E-01
   7124.33  4.5631469E-01
   7124.67  4.6821860E-01
   7125.00  4.8226681E-01
   7125.33  5.0172119E-01
   7125.67  5.2726698E-01
   7126.00  5.5774167E-01
   7126.33  5.8930552E-01
   7126.67  6.1634978E-01
   7127.00  6.3475968E-01
   7127.33  6.4171857E-01
   7127.67  6.4064498E-01
   7128.00  6.3436202E-01
   7128.33  6.2492033E-01
   7128.67  6.1370030E-01
   7129.00  6.0080244E-01
   7129.33  5.8615717E-01
   7129.67  5.7109243E-01
   7130.00  5.5745778E-01
   7130.33  5.4780468E-01
   7130.67  5.4256020E-01
   7131.00  5.4122224E-01
   7131.33  5.4268973E-01
   7131.67  5.4526413E-01
   7132.00  5.4819992E-01
   7132.33  5.5114236E-01
   7132.67  5.5412485E-01
   7133.00  5.5747649E-01
   7133.33  5.6199393E-01
   7133.67  5.6769884E-01
   7134.00  5.7333893E-01
   7134.33  5.7601931E-01
   7134.67  5.7463549E-01
   7135.00  5.6967721E-01
   7135.33  5.6241779E-01
   7135.67  5.5451616E-01
   7136.00  5.4675438E-01
   7136.33  5.3973517E-01
   7136.67  5.3367029E-01
   7137.00  5.2872523E-01
   7137.33  5.2517771E-01
   7137.67  5.2289271E-01
   7138.00  5.2177766E-01
   7138.33  5.2171523E-01
   7138.67  5.2227272E-01
   7139.00  5.2317902E-01
   7139.33  5.2420059E-01
   7139.67  5.2518910E-01
   7140.00  5.2611179E-01
   7140.33  5.2698020E-01
   7140.67  5.2782144E-01
   7141.00  5.2862158E-01
   7141.33  5.2929815E-01
   7141.67  5.2974540E-01
   7142.00  5.2983986E-01
   7142.33  5.2938226E-01
   7142.67  5.2832829E-01
   7143.00  5.2663164E-01
   7143.33  5.2423303E-01
   7143.67  5.2131116E-01
   7144.00  5.1799698E-01
   7144.33  5.1441538E-01
   7144.67  5.1070246E-01
   7145.00  5.0689002E-01
   7145.33  5.0293810E-01
   7145.67  4.9881031E-01
   7146.00  4.9447608E-01
   7146.33  4.8990620E-01
   7146.67  4.8516921E-01
   7147.00  4.8033978E-01
   7147.33  4.7553912E-01
   7147.67  4.7089725E-01
   7148.00  4.6652070E-01
   7148.33  4.6255481E-01
   7148.67  4.5902370E-01
   7149.00  4.5596127E-01
   7149.33  4.5343566E-01
   7149.67  4.5136497E-01
   7150.00  4.4971120E-01
   7150.33  4.4846896E-01
   7150.67  4.4754898E-01
   7151.00  4.4692287E-01
   7151.33  4.4660083E-01
   7151.67  4.4652888E-01
   7152.00  4.4669386E-01
   7152.33  4.4711370E-01
   7152.67  4.4774908E-01
   7153.00  4.4858870E-01
   7153.33  4.4964282E-01
   7153.67  4.5087900E-01
   7154.00  4.5229736E-01
   7154.33  4.5393217E-01
   7154.67  4.5577786E-01
   7155.00  4.5785235E-01
   7155.33  4.6020240E-01
   7155.67  4.6280060E-01
   7156.00  4.6563328E-01
   7156.33  4.6868550E-01
   7156.67  4.7186692E-01
   7157.00  4.7510204E-01
   7157.33  4.7828315E-01
   7157.67  4.8130982E-01
   7158.00  4.8409593E-01
   7158.33  4.8651766E-01
   7158.67  4.8855625E-01
   7159.00  4.9017998E-01
   7159.33  4.9131581E-01
   7159.67  4.9202066E-01
   7160.00  4.9231385E-01
   7160.33  4.9218105E-01
   7160.67  4.9170522E-01
   7161.00  4.9091963E-01
   7161.33  4.8983642E-01
   7161.67  4.8852882E-01
   7162.00  4.8702061E-01
   7162.33  4.8531317E-01
   7162.67  4.8345315E-01
   7163.00  4.8146340E-01
   7163.33  4.7935866E-01
   7163.67  4.7717848E-01
   7164.00  4.7494365E-01
   7164.33  4.7266886E-01
   7164.67  4.7037058E-01
   7165.00  4.6805287E-01
   7165.33  4.6571106E-01
   7165.67  4.6334164E-01
   7166.00  4.6093886E-01
   7166.33  4.5849294E-01
   7166.67  4.5600741E-01
   7167.00  4.5348452E-01
   7167.33  4.5092570E-01
   7167.67  4.4834312E-01
   7168.00  4.4574575E-01
   7168.33  4.4314545E-01
   7168.67  4.4055623E-01
   7169.00  4.3799056E-01
   7169.33  4.3546846E-01
   7169.67  4.3300128E-01
   7170.00  4.3060410E-01
   7170.33  4.2830775E-01
   7170.67  4.2612471E-01
   7171.00  4.2408082E-01
   7171.33  4.2224015E-01
   7171.67  4.2064350E-01
   7172.00  4.1936363E-01
