    FDMNES
    energy     <xanes>
   7097.00  4.1020935E-03
   7097.33  4.1810430E-03
   7097.67  4.2629638E-03
   7098.00  4.3480371E-03
   7098.33  4.4369191E-03
   7098.67  4.5294458E-03
   7099.00  4.6258634E-03
   7099.33  4.7270175E-03
   7099.67  4.8327410E-03
   7100.00  4.9433790E-03
   7100.33  5.0600551E-03
   7100.67  5.1826149E-03
   7101.00  5.3115603E-03
   7101.33  5.4484416E-03
   7101.67  5.5931515E-03
   7102.00  5.7464548E-03
   7102.33  5.9105910E-03
   7102.67  6.0855792E-03
   7103.00  6.2726506E-03
   7103.33  6.4752298E-03
   7103.67  6.6936508E-03
   7104.00  6.9300329E-03
   7104.33  7.1900026E-03
   7104.67  7.4746809E-03
   7105.00  7.7880383E-03
   7105.33  8.1402049E-03
   7105.67  8.5343922E-03
   7106.00  8.9788956E-03
   7106.33  9.4942851E-03
   7106.67  1.0089962E-02
   7107.00  1.0785994E-02
   7107.33  1.1631638E-02
   7107.67  1.2658034E-02
   7108.00  1.3925034E-02
   7108.33  1.5582573E-02
   7108.67  1.7761618E-02
   7109.00  2.0707921E-02
   7109.33  2.5086127E-02
   7109.67  3.1722252E-02
   7110.00  4.2254296E-02
   7110.33  6.1410105E-02
   7110.67  9.3295710E-02
   7111.00  1.3346855E-01
   7111.33  1.5648325E-01
   7111.67  1.5866445E-01
   7112.00  1.4552211E-01
   7112.33  1.2180111E-01
   7112.67  9.8109568E-02
   7113.00  7.8368770E-02
   7113.33  6.5035081E-02
   7113.67  5.7211720E-02
   7114.00  5.3022261E-02
   7114.33  4.8581762E-02
   7114.67  4.3037513E-02
   7115.00  3.8385113E-02
   7115.33  3.5849041E-02
   7115.67  3.4862112E-02
   7116.00  3.5031357E-02
   7116.33  3.6081450E-02
   7116.67  3.7636761E-02
   7117.00  3.9558703E-02
   7117.33  4.1851904E-02
   7117.67  4.4579350E-02
   7118.00  4.7892689E-02
   7118.33  5.1959151E-02
   7118.67  5.6557321E-02
   7119.00  6.1375677E-02
   7119.33  6.5871240E-02
   7119.67  6.9671573E-02
   7120.00  7.2741096E-02
   7120.33  7.5401088E-02
   7120.67  7.8276157E-02
   7121.00  8.1834230E-02
   7121.33  8.6630730E-02
   7121.67  9.2892754E-02
   7122.00  1.0103927E-01
   7122.33  1.1213902E-01
   7122.67  1.2685090E-01
   7123.00  1.4616993E-01
   7123.33  1.7217022E-01
   7123.67  2.0559490E-01
   7124.00  2.4747458E-01
   7124.33  2.9829219E-01
   7124.67  3.5210367E-01
   7125.00  4.0004507E-01
   7125.33  4.3032573E-01
   7125.67  4.4640831E-01
   7126.00  4.5786258E-01
   7126.33  4.7375680E-01
   7126.67  4.9497273E-01
   7127.00  5.1965925E-01
   7127.33  5.4531677E-01
   7127.67  5.6992419E-01
   7128.00  5.9293381E-01
   7128.33  6.1488825E-01
   7128.67  6.3667464E-01
   7129.00  6.5813288E-01
   7129.33  6.7839951E-01
   7129.67  6.9766516E-01
   7130.00  7.1745190E-01
   7130.33  7.4149037E-01
   7130.67  7.7273665E-01
   7131.00  8.1280027E-01
   7131.33  8.6136925E-01
   7131.67  9.1219034E-01
   7132.00  9.5807722E-01
   7132.33  9.8784535E-01
   7132.67  9.9571506E-01
   7133.00  9.7950230E-01
   7133.33  9.4253787E-01
   7133.67  9.0017377E-01
   7134.00  8.6322396E-01
   7134.33  8.3796991E-01
   7134.67  8.2085959E-01
   7135.00  8.0836176E-01
   7135.33  7.9794788E-01
   7135.67  7.8838994E-01
   7136.00  7.7964587E-01
   7136.33  7.7210161E-01
   7136.67  7.6585556E-01
   7137.00  7.6097341E-01
   7137.33  7.5750423E-01
   7137.67  7.5500816E-01
   7138.00  7.5313661E-01
   7138.33  7.5142672E-01
   7138.67  7.4935859E-01
   7139.00  7.4653558E-01
   7139.33  7.4245403E-01
   7139.67  7.3704397E-01
   7140.00  7.3026702E-01
   7140.33  7.2207430E-01
   7140.67  7.1285063E-01
   7141.00  7.0283332E-01
   7141.33  6.9222531E-01
   7141.67  6.8132201E-01
   7142.00  6.7028348E-01
   7142.33  6.5926309E-01
   7142.67  6.4838142E-01
   7143.00  6.3772661E-01
   7143.33  6.2741757E-01
   7143.67  6.1746095E-01
   7144.00  6.0785951E-01
   7144.33  5.9861535E-01
   7144.67  5.8962504E-01
   7145.00  5.8083467E-01
   7145.33  5.7222587E-01
   7145.67  5.6377794E-01
   7146.00  5.5551647E-01
   7146.33  5.4751010E-01
   7146.67  5.3975912E-01
   7147.00  5.3226454E-01
   7147.33  5.2501982E-01
   7147.67  5.1792820E-01
   7148.00  5.1091112E-01
   7148.33  5.0386177E-01
   7148.67  4.9667680E-01
   7149.00  4.8927534E-01
   7149.33  4.8155440E-01
   7149.67  4.7351732E-01
   7150.00  4.6516602E-01
   7150.33  4.5649822E-01
   7150.67  4.4761797E-01
   7151.00  4.3860804E-01
   7151.33  4.2956197E-01
   7151.67  4.2058038E-01
   7152.00  4.1174633E-01
   7152.33  4.0316878E-01
   7152.67  3.9486837E-01
   7153.00  3.8686526E-01
   7153.33  3.7919922E-01
   7153.67  3.7181918E-01
   7154.00  3.6470723E-01
   7154.33  3.5787213E-01
   7154.67  3.5126616E-01
   7155.00  3.4488181E-01
   7155.33  3.3874595E-01
   7155.67  3.3283687E-01
   7156.00  3.2716279E-01
   7156.33  3.2176474E-01
   7156.67  3.1662156E-01
   7157.00  3.1174045E-01
   7157.33  3.0716361E-01
   7157.67  3.0287064E-01
   7158.00  2.9888226E-01
   7158.33  2.9528135E-01
   7158.67  2.9208479E-01
   7159.00  2.8935978E-01
   7159.33  2.8726888E-01
   7159.67  2.8584080E-01
   7160.00  2.8515841E-01
   7160.33  2.8540873E-01
   7160.67  2.8654662E-01
   7161.00  2.8859492E-01
   7161.33  2.9165418E-01
   7161.67  2.9555186E-01
   7162.00  3.0020389E-01
   7162.33  3.0556914E-01
   7162.67  3.1144049E-01
   7163.00  3.1770530E-01
   7163.33  3.2425333E-01
   7163.67  3.3090770E-01
   7164.00  3.3755723E-01
   7164.33  3.4407968E-01
   7164.67  3.5040853E-01
   7165.00  3.5650187E-01
   7165.33  3.6231387E-01
   7165.67  3.6789160E-01
   7166.00  3.7326592E-01
   7166.33  3.7846903E-01
   7166.67  3.8357540E-01
   7167.00  3.8862408E-01
   7167.33  3.9364239E-01
   7167.67  3.9864555E-01
   7168.00  4.0362852E-01
   7168.33  4.0856899E-01
   7168.67  4.1344635E-01
   7169.00  4.1823638E-01
   7169.33  4.2289874E-01
   7169.67  4.2742682E-01
   7170.00  4.3180780E-01
   7170.33  4.3601098E-01
   7170.67  4.4004288E-01
   7171.00  4.4388084E-01
   7171.33  4.4743311E-01
   7171.67  4.5059937E-01
   7172.00  4.5319389E-01
