    FDMNES
    energy     <xanes>
   7097.00  5.5792201E-03
   7097.33  5.7292278E-03
   7097.67  5.8868913E-03
   7098.00  6.0527761E-03
   7098.33  6.2287329E-03
   7098.67  6.4144630E-03
   7099.00  6.6107502E-03
   7099.33  6.8200653E-03
   7099.67  7.0421185E-03
   7100.00  7.2780262E-03
   7100.33  7.5311757E-03
   7100.67  7.8013343E-03
   7101.00  8.0901425E-03
   7101.33  8.4023917E-03
   7101.67  8.7380109E-03
   7102.00  9.0995007E-03
   7102.33  9.4938961E-03
   7102.67  9.9215158E-03
   7103.00  1.0386343E-02
   7103.33  1.0899182E-02
   7103.67  1.1461256E-02
   7104.00  1.2079257E-02
   7104.33  1.2770731E-02
   7104.67  1.3539024E-02
   7105.00  1.4396160E-02
   7105.33  1.5372704E-02
   7105.67  1.6477259E-02
   7106.00  1.7733373E-02
   7106.33  1.9199429E-02
   7106.67  2.0898246E-02
   7107.00  2.2881613E-02
   7107.33  2.5276058E-02
   7107.67  2.8148639E-02
   7108.00  3.1633679E-02
   7108.33  3.6061219E-02
   7108.67  4.1669882E-02
   7109.00  4.8909649E-02
   7109.33  5.8940565E-02
   7109.67  7.2956377E-02
   7110.00  9.3256818E-02
   7110.33  1.2631025E-01
   7110.67  1.7925471E-01
   7111.00  2.5768447E-01
   7111.33  3.6053761E-01
   7111.67  4.8785261E-01
   7112.00  6.3909437E-01
   7112.33  7.6943654E-01
   7112.67  8.2171575E-01
   7113.00  7.6821751E-01
   7113.33  6.2425057E-01
   7113.67  4.7223671E-01
   7114.00  3.5033597E-01
   7114.33  2.6898423E-01
   7114.67  2.1441518E-01
   7115.00  1.7859844E-01
   7115.33  1.5654744E-01
   7115.67  1.4301223E-01
   7116.00  1.3626393E-01
   7116.33  1.3560588E-01
   7116.67  1.3879948E-01
   7117.00  1.4387539E-01
   7117.33  1.4722809E-01
   7117.67  1.4639512E-01
   7118.00  1.4258884E-01
   7118.33  1.3900719E-01
   7118.67  1.3721687E-01
   7119.00  1.3782942E-01
   7119.33  1.4163920E-01
   7119.67  1.4756997E-01
   7120.00  1.5330939E-01
   7120.33  1.5558448E-01
   7120.67  1.5519184E-01
   7121.00  1.5498142E-01
   7121.33  1.5854789E-01
   7121.67  1.6658931E-01
   7122.00  1.7880948E-01
   7122.33  1.9530583E-01
   7122.67  2.1613287E-01
   7123.00  2.4188119E-01
   7123.33  2.7173283E-01
   7123.67  3.0088898E-01
   7124.00  3.2465158E-01
   7124.33  3.3907221E-01
   7124.67  3.4671667E-01
   7125.00  3.5089193E-01
   7125.33  3.5521258E-01
   7125.67  3.6185503E-01
   7126.00  3.7101047E-01
   7126.33  3.8034803E-01
   7126.67  3.8614210E-01
   7127.00  3.8698833E-01
   7127.33  3.8465044E-01
   7127.67  3.8342680E-01
   7128.00  3.8610610E-01
   7128.33  3.9502594E-01
   7128.67  4.0931916E-01
   7129.00  4.2754141E-01
   7129.33  4.4727529E-01
   7129.67  4.6598973E-01
   7130.00  4.8270867E-01
   7130.33  4.9735336E-01
   7130.67  5.1098805E-01
   7131.00  5.2441239E-01
   7131.33  5.3858479E-01
   7131.67  5.5425683E-01
   7132.00  5.7206527E-01
   7132.33  5.9262084E-01
   7132.67  6.1486442E-01
   7133.00  6.3703699E-01
   7133.33  6.5590572E-01
   7133.67  6.6920328E-01
   7134.00  6.7547352E-01
   7134.33  6.7303648E-01
   7134.67  6.6308116E-01
   7135.00  6.4656561E-01
   7135.33  6.2483152E-01
   7135.67  6.0063739E-01
   7136.00  5.7547578E-01
   7136.33  5.5055788E-01
   7136.67  5.2691152E-01
   7137.00  5.0561422E-01
   7137.33  4.8835970E-01
   7137.67  4.7548402E-01
   7138.00  4.6713828E-01
   7138.33  4.6354704E-01
   7138.67  4.6358530E-01
   7139.00  4.6662960E-01
   7139.33  4.7217448E-01
   7139.67  4.7915717E-01
   7140.00  4.8695728E-01
   7140.33  4.9500277E-01
   7140.67  5.0284126E-01
   7141.00  5.1026872E-01
   7141.33  5.1718395E-01
   7141.67  5.2378014E-01
   7142.00  5.3027591E-01
   7142.33  5.3700159E-01
   7142.67  5.4421404E-01
   7143.00  5.5208826E-01
   7143.33  5.6081664E-01
   7143.67  5.7029753E-01
   7144.00  5.8047701E-01
   7144.33  5.9137371E-01
   7144.67  6.0289097E-01
   7145.00  6.1505624E-01
   7145.33  6.2801539E-01
   7145.67  6.4172479E-01
   7146.00  6.5618424E-01
   7146.33  6.7141936E-01
   7146.67  6.8721774E-01
   7147.00  7.0342484E-01
   7147.33  7.1983872E-01
   7147.67  7.3618208E-01
   7148.00  7.5225006E-01
   7148.33  7.6776730E-01
   7148.67  7.8257810E-01
   7149.00  7.9648718E-01
   7149.33  8.0912112E-01
   7149.67  8.2039533E-01
   7150.00  8.3013365E-01
   7150.33  8.3795203E-01
   7150.67  8.4393587E-01
   7151.00  8.4801149E-01
   7151.33  8.4988662E-01
   7151.67  8.4978661E-01
   7152.00  8.4770532E-01
   7152.33  8.4338557E-01
   7152.67  8.3705829E-01
   7153.00  8.2870255E-01
   7153.33  8.1804522E-01
   7153.67  8.0535803E-01
   7154.00  7.9070677E-01
   7154.33  7.7402912E-01
   7154.67  7.5581942E-01
   7155.00  7.3639112E-01
   7155.33  7.1608493E-01
   7155.67  6.9547718E-01
   7156.00  6.7497919E-01
   7156.33  6.5510351E-01
   7156.67  6.3614369E-01
   7157.00  6.1832396E-01
   7157.33  6.0195942E-01
   7157.67  5.8693762E-01
   7158.00  5.7323388E-01
   7158.33  5.6091597E-01
   7158.67  5.4970507E-01
   7159.00  5.3947767E-01
   7159.33  5.3018619E-01
   7159.67  5.2158420E-01
   7160.00  5.1357100E-01
   7160.33  5.0611904E-01
   7160.67  4.9910516E-01
   7161.00  4.9249727E-01
   7161.33  4.8632155E-01
   7161.67  4.8052224E-01
   7162.00  4.7509672E-01
   7162.33  4.7007607E-01
   7162.67  4.6538058E-01
   7163.00  4.6096285E-01
   7163.33  4.5677784E-01
   7163.67  4.5272111E-01
   7164.00  4.4872690E-01
   7164.33  4.4472697E-01
   7164.67  4.4066881E-01
   7165.00  4.3651940E-01
   7165.33  4.3224036E-01
   7165.67  4.2783941E-01
   7166.00  4.2332515E-01
   7166.33  4.1871230E-01
   7166.67  4.1404849E-01
   7167.00  4.0936984E-01
   7167.33  4.0472964E-01
   7167.67  4.0017570E-01
   7168.00  3.9575185E-01
   7168.33  3.9152670E-01
   7168.67  3.8751770E-01
   7169.00  3.8375326E-01
   7169.33  3.8029442E-01
   7169.67  3.7712797E-01
   7170.00  3.7426668E-01
   7170.33  3.7175938E-01
   7170.67  3.6957156E-01
   7171.00  3.6770350E-01
   7171.33  3.6618851E-01
   7171.67  3.6497222E-01
   7172.00  3.6403068E-01
