    FDMNES
    energy     <xanes>
   7097.00  5.3941670E-03
   7097.33  5.5299453E-03
   7097.67  5.6721904E-03
   7098.00  5.8213564E-03
   7098.33  5.9789683E-03
   7098.67  6.1447431E-03
   7099.00  6.3193059E-03
   7099.33  6.5046707E-03
   7099.67  6.7005560E-03
   7100.00  6.9078458E-03
   7100.33  7.1292741E-03
   7100.67  7.3645980E-03
   7101.00  7.6151098E-03
   7101.33  7.8846436E-03
   7101.67  8.1730775E-03
   7102.00  8.4823754E-03
   7102.33  8.8181302E-03
   7102.67  9.1805238E-03
   7103.00  9.5726850E-03
   7103.33  1.0003175E-02
   7103.67  1.0472900E-02
   7104.00  1.0987143E-02
   7104.33  1.1559824E-02
   7104.67  1.2193598E-02
   7105.00  1.2898066E-02
   7105.33  1.3697689E-02
   7105.67  1.4599587E-02
   7106.00  1.5622969E-02
   7106.33  1.6815520E-02
   7106.67  1.8196970E-02
   7107.00  1.9811177E-02
   7107.33  2.1765645E-02
   7107.67  2.4121959E-02
   7108.00  2.7001497E-02
   7108.33  3.0705899E-02
   7108.67  3.5476339E-02
   7109.00  4.1767972E-02
   7109.33  5.0790710E-02
   7109.67  6.3949717E-02
   7110.00  8.4010959E-02
   7110.33  1.1886415E-01
   7110.67  1.7546696E-01
   7111.00  2.4842195E-01
   7111.33  3.0462351E-01
   7111.67  3.5284586E-01
   7112.00  4.0777050E-01
   7112.33  4.4171599E-01
   7112.67  4.4520823E-01
   7113.00  4.3936812E-01
   7113.33  4.2865185E-01
   7113.67  3.8962650E-01
   7114.00  3.2375458E-01
   7114.33  2.5921818E-01
   7114.67  2.0988052E-01
   7115.00  1.7501955E-01
   7115.33  1.5245190E-01
   7115.67  1.3800484E-01
   7116.00  1.2974233E-01
   7116.33  1.2636507E-01
   7116.67  1.2625481E-01
   7117.00  1.2896790E-01
   7117.33  1.3426569E-01
   7117.67  1.4104613E-01
   7118.00  1.4838500E-01
   7118.33  1.5489870E-01
   7118.67  1.5988212E-01
   7119.00  1.6393782E-01
   7119.33  1.6905919E-01
   7119.67  1.7689164E-01
   7120.00  1.8823692E-01
   7120.33  2.0440359E-01
   7120.67  2.2552236E-01
   7121.00  2.5047300E-01
   7121.33  2.7544202E-01
   7121.67  3.0024148E-01
   7122.00  3.3021652E-01
   7122.33  3.6842895E-01
   7122.67  4.0542705E-01
   7123.00  4.3278822E-01
   7123.33  4.5103297E-01
   7123.67  4.6944688E-01
   7124.00  4.9185416E-01
   7124.33  5.1834627E-01
   7124.67  5.4612576E-01
   7125.00  5.7338820E-01
   7125.33  5.9827902E-01
   7125.67  6.1935098E-01
   7126.00  6.3488072E-01
   7126.33  6.4250443E-01
   7126.67  6.4321459E-01
   7127.00  6.3851764E-01
   7127.33  6.3074856E-01
   7127.67  6.2283679E-01
   7128.00  6.1632262E-01
   7128.33  6.1236597E-01
   7128.67  6.1026093E-01
   7129.00  6.0845875E-01
   7129.33  6.0483148E-01
   7129.67  5.9986428E-01
   7130.00  5.9603077E-01
   7130.33  5.9705588E-01
   7130.67  6.0342841E-01
   7131.00  6.1385194E-01
   7131.33  6.2527439E-01
   7131.67  6.3408697E-01
   7132.00  6.3846919E-01
   7132.33  6.3831719E-01
   7132.67  6.3630468E-01
   7133.00  6.3444816E-01
   7133.33  6.3526584E-01
   7133.67  6.4083752E-01
   7134.00  6.5304585E-01
   7134.33  6.7253831E-01
   7134.67  6.9257535E-01
   7135.00  7.0499870E-01
   7135.33  7.0378479E-01
   7135.67  6.9441929E-01
   7136.00  6.8272727E-01
   7136.33  6.7374839E-01
   7136.67  6.6895541E-01
   7137.00  6.6826873E-01
   7137.33  6.7109150E-01
   7137.67  6.7584167E-01
   7138.00  6.8172946E-01
   7138.33  6.8808635E-01
   7138.67  6.9400361E-01
   7139.00  6.9837920E-01
   7139.33  6.9905618E-01
   7139.67  6.9463685E-01
   7140.00  6.8410764E-01
   7140.33  6.6673401E-01
   7140.67  6.4461572E-01
   7141.00  6.1953061E-01
   7141.33  5.9348775E-01
   7141.67  5.6826058E-01
   7142.00  5.4477667E-01
   7142.33  5.2388109E-01
   7142.67  5.0544148E-01
   7143.00  4.8939568E-01
   7143.33  4.7582951E-01
   7143.67  4.6422515E-01
   7144.00  4.5436606E-01
   7144.33  4.4619172E-01
   7144.67  4.3927712E-01
   7145.00  4.3342843E-01
   7145.33  4.2855030E-01
   7145.67  4.2436608E-01
   7146.00  4.2075232E-01
   7146.33  4.1763636E-01
   7146.67  4.1484782E-01
   7147.00  4.1229648E-01
   7147.33  4.0990550E-01
   7147.67  4.0757825E-01
   7148.00  4.0526458E-01
   7148.33  4.0292845E-01
   7148.67  4.0056990E-01
   7149.00  3.9821095E-01
   7149.33  3.9589851E-01
   7149.67  3.9368006E-01
   7150.00  3.9160583E-01
   7150.33  3.8975986E-01
   7150.67  3.8816911E-01
   7151.00  3.8686732E-01
   7151.33  3.8591080E-01
   7151.67  3.8524630E-01
   7152.00  3.8482854E-01
   7152.33  3.8458567E-01
   7152.67  3.8437236E-01
   7153.00  3.8406634E-01
   7153.33  3.8350933E-01
   7153.67  3.8264175E-01
   7154.00  3.8143706E-01
   7154.33  3.7988183E-01
   7154.67  3.7808745E-01
   7155.00  3.7613788E-01
   7155.33  3.7413156E-01
   7155.67  3.7217346E-01
   7156.00  3.7033748E-01
   7156.33  3.6871787E-01
   7156.67  3.6734174E-01
   7157.00  3.6623648E-01
   7157.33  3.6544845E-01
   7157.67  3.6493263E-01
   7158.00  3.6466723E-01
   7158.33  3.6464196E-01
   7158.67  3.6478560E-01
   7159.00  3.6505779E-01
   7159.33  3.6542383E-01
   7159.67  3.6583354E-01
   7160.00  3.6625901E-01
   7160.33  3.6667397E-01
   7160.67  3.6706181E-01
   7161.00  3.6741165E-01
   7161.33  3.6770929E-01
   7161.67  3.6795939E-01
   7162.00  3.6816763E-01
   7162.33  3.6834146E-01
   7162.67  3.6849974E-01
   7163.00  3.6865672E-01
   7163.33  3.6883683E-01
   7163.67  3.6906974E-01
   7164.00  3.6938591E-01
   7164.33  3.6983437E-01
   7164.67  3.7043129E-01
   7165.00  3.7119927E-01
   7165.33  3.7218385E-01
   7165.67  3.7337697E-01
   7166.00  3.7478774E-01
   7166.33  3.7644921E-01
   7166.67  3.7833367E-01
   7167.00  3.8043803E-01
   7167.33  3.8278231E-01
   7167.67  3.8532994E-01
   7168.00  3.8806986E-01
   7168.33  3.9100904E-01
   7168.67  3.9410825E-01
   7169.00  3.9735120E-01
   7169.33  4.0073238E-01
   7169.67  4.0421279E-01
   7170.00  4.0776845E-01
   7170.33  4.1137085E-01
   7170.67  4.1497171E-01
   7171.00  4.1851947E-01
   7171.33  4.2189968E-01
   7171.67  4.2496032E-01
   7172.00  4.2747932E-01
