    FDMNES
    energy     <xanes>
   7097.00  4.3023551E-03
   7097.33  4.3838767E-03
   7097.67  4.4683450E-03
   7098.00  4.5559295E-03
   7098.33  4.6472631E-03
   7098.67  4.7421686E-03
   7099.00  4.8408722E-03
   7099.33  4.9441767E-03
   7099.67  5.0518972E-03
   7100.00  5.1643449E-03
   7100.33  5.2825677E-03
   7100.67  5.4063840E-03
   7101.00  5.5362386E-03
   7101.33  5.6735483E-03
   7101.67  5.8181614E-03
   7102.00  5.9707426E-03
   7102.33  6.1332935E-03
   7102.67  6.3057544E-03
   7103.00  6.4891740E-03
   7103.33  6.6865420E-03
   7103.67  6.8980377E-03
   7104.00  7.1254317E-03
   7104.33  7.3735186E-03
   7104.67  7.6430864E-03
   7105.00  7.9373920E-03
   7105.33  8.2648665E-03
   7105.67  8.6279263E-03
   7106.00  9.0332651E-03
   7106.33  9.4976361E-03
   7106.67  1.0028288E-02
   7107.00  1.0641195E-02
   7107.33  1.1375750E-02
   7107.67  1.2256183E-02
   7108.00  1.3329657E-02
   7108.33  1.4714530E-02
   7108.67  1.6513000E-02
   7109.00  1.8917596E-02
   7109.33  2.2449153E-02
   7109.67  2.7752871E-02
   7110.00  3.6110722E-02
   7110.33  5.1252149E-02
   7110.67  7.6693545E-02
   7111.00  1.0988174E-01
   7111.33  1.2760655E-01
   7111.67  1.1949820E-01
   7112.00  9.9352612E-02
   7112.33  8.5218965E-02
   7112.67  7.9672922E-02
   7113.00  8.1375655E-02
   7113.33  8.7586292E-02
   7113.67  9.1625154E-02
   7114.00  8.8124486E-02
   7114.33  7.7801526E-02
   7114.67  6.7326820E-02
   7115.00  5.8021509E-02
   7115.33  4.9341790E-02
   7115.67  4.2385198E-02
   7116.00  3.7700344E-02
   7116.33  3.4984480E-02
   7116.67  3.3409308E-02
   7117.00  3.2653495E-02
   7117.33  3.2587617E-02
   7117.67  3.3037445E-02
   7118.00  3.3973979E-02
   7118.33  3.5472633E-02
   7118.67  3.7529456E-02
   7119.00  4.0233652E-02
   7119.33  4.3846230E-02
   7119.67  4.8503994E-02
   7120.00  5.4490218E-02
   7120.33  6.2465490E-02
   7120.67  7.2744076E-02
   7121.00  8.5767557E-02
   7121.33  1.0214523E-01
   7121.67  1.2132913E-01
   7122.00  1.4338446E-01
   7122.33  1.6965427E-01
   7122.67  1.9937415E-01
   7123.00  2.2970251E-01
   7123.33  2.5814038E-01
   7123.67  2.8932795E-01
   7124.00  3.2712251E-01
   7124.33  3.7142133E-01
   7124.67  4.1920260E-01
   7125.00  4.6949771E-01
   7125.33  5.2249514E-01
   7125.67  5.8032234E-01
   7126.00  6.4737532E-01
   7126.33  7.3133241E-01
   7126.67  8.3254492E-01
   7127.00  9.4424828E-01
   7127.33  1.0404600E+00
   7127.67  1.0925540E+00
   7128.00  1.0954829E+00
   7128.33  1.0677913E+00
   7128.67  1.0332908E+00
   7129.00  9.9774292E-01
   7129.33  9.6153322E-01
   7129.67  9.2476927E-01
   7130.00  8.8790634E-01
   7130.33  8.5176643E-01
   7130.67  8.1776374E-01
   7131.00  7.8780484E-01
   7131.33  7.6464563E-01
   7131.67  7.4815643E-01
   7132.00  7.3722377E-01
   7132.33  7.2903591E-01
   7132.67  7.1955151E-01
   7133.00  7.0675146E-01
   7133.33  6.9044709E-01
   7133.67  6.7322388E-01
   7134.00  6.5727192E-01
   7134.33  6.4480914E-01
   7134.67  6.3620125E-01
   7135.00  6.3131152E-01
   7135.33  6.2965451E-01
   7135.67  6.2962372E-01
   7136.00  6.3016090E-01
   7136.33  6.3036965E-01
   7136.67  6.3000285E-01
   7137.00  6.2925604E-01
   7137.33  6.2871123E-01
   7137.67  6.2899179E-01
   7138.00  6.3052001E-01
   7138.33  6.3367885E-01
   7138.67  6.3814608E-01
   7139.00  6.4355231E-01
   7139.33  6.4927926E-01
   7139.67  6.5449707E-01
   7140.00  6.5851578E-01
   7140.33  6.6042641E-01
   7140.67  6.6005128E-01
   7141.00  6.5730265E-01
   7141.33  6.5208654E-01
   7141.67  6.4505836E-01
   7142.00  6.3661722E-01
   7142.33  6.2709838E-01
   7142.67  6.1700809E-01
   7143.00  6.0661338E-01
   7143.33  5.9616690E-01
   7143.67  5.8590945E-01
   7144.00  5.7603845E-01
   7144.33  5.6684734E-01
   7144.67  5.5846208E-01
   7145.00  5.5104321E-01
   7145.33  5.4489289E-01
   7145.67  5.3997061E-01
   7146.00  5.3626845E-01
   7146.33  5.3373687E-01
   7146.67  5.3183704E-01
   7147.00  5.3003038E-01
   7147.33  5.2744623E-01
   7147.67  5.2340139E-01
   7148.00  5.1743695E-01
   7148.33  5.0911737E-01
   7148.67  4.9892650E-01
   7149.00  4.8727774E-01
   7149.33  4.7461337E-01
   7149.67  4.6153277E-01
   7150.00  4.4834911E-01
   7150.33  4.3531912E-01
   7150.67  4.2255418E-01
   7151.00  4.1010486E-01
   7151.33  3.9802506E-01
   7151.67  3.8625526E-01
   7152.00  3.7476001E-01
   7152.33  3.6350885E-01
   7152.67  3.5241693E-01
   7153.00  3.4144976E-01
   7153.33  3.3061245E-01
   7153.67  3.1992287E-01
   7154.00  3.0944212E-01
   7154.33  2.9930930E-01
   7154.67  2.8960377E-01
   7155.00  2.8042960E-01
   7155.33  2.7198026E-01
   7155.67  2.6427203E-01
   7156.00  2.5737187E-01
   7156.33  2.5144464E-01
   7156.67  2.4641619E-01
   7157.00  2.4229845E-01
   7157.33  2.3919876E-01
   7157.67  2.3697843E-01
   7158.00  2.3560142E-01
   7158.33  2.3510842E-01
   7158.67  2.3533088E-01
   7159.00  2.3620421E-01
   7159.33  2.3772802E-01
   7159.67  2.3976914E-01
   7160.00  2.4228951E-01
   7160.33  2.4532002E-01
   7160.67  2.4879715E-01
   7161.00  2.5272799E-01
   7161.33  2.5719253E-01
   7161.67  2.6216216E-01
   7162.00  2.6766924E-01
   7162.33  2.7382550E-01
   7162.67  2.8057444E-01
   7163.00  2.8790188E-01
   7163.33  2.9587312E-01
   7163.67  3.0441614E-01
   7164.00  3.1351522E-01
   7164.33  3.2319496E-01
   7164.67  3.3332977E-01
   7165.00  3.4385277E-01
   7165.33  3.5471186E-01
   7165.67  3.6577228E-01
   7166.00  3.7694699E-01
   7166.33  3.8813732E-01
   7166.67  3.9924641E-01
   7167.00  4.1019953E-01
   7167.33  4.2089049E-01
   7167.67  4.3128130E-01
   7168.00  4.4132292E-01
   7168.33  4.5091887E-01
   7168.67  4.6007865E-01
   7169.00  4.6877043E-01
   7169.33  4.7689569E-01
   7169.67  4.8448165E-01
   7170.00  4.9149688E-01
   7170.33  4.9782885E-01
   7170.67  5.0351758E-01
   7171.00  5.0853344E-01
   7171.33  5.1275498E-01
   7171.67  5.1623443E-01
   7172.00  5.1894383E-01
