    FDMNES
    energy     <xanes>
   7097.00  4.6990075E-03
   7097.33  4.8104500E-03
   7097.67  4.9272167E-03
   7098.00  5.0496953E-03
   7098.33  5.1791655E-03
   7098.67  5.3154155E-03
   7099.00  5.4589862E-03
   7099.33  5.6115895E-03
   7099.67  5.7730256E-03
   7100.00  5.9440723E-03
   7100.33  6.1270886E-03
   7100.67  6.3219273E-03
   7101.00  6.5297465E-03
   7101.33  6.7539149E-03
   7101.67  6.9944257E-03
   7102.00  7.2530767E-03
   7102.33  7.5348883E-03
   7102.67  7.8401907E-03
   7103.00  8.1719187E-03
   7103.33  8.5379554E-03
   7103.67  8.9394250E-03
   7104.00  9.3814246E-03
   7104.33  9.8771655E-03
   7104.67  1.0429698E-02
   7105.00  1.1048595E-02
   7105.33  1.1757924E-02
   7105.67  1.2565736E-02
   7106.00  1.3491941E-02
   7106.33  1.4585502E-02
   7106.67  1.5868972E-02
   7107.00  1.7389908E-02
   7107.33  1.9264427E-02
   7107.67  2.1564816E-02
   7108.00  2.4429684E-02
   7108.33  2.8204329E-02
   7108.67  3.3182297E-02
   7109.00  3.9912601E-02
   7109.33  4.9865400E-02
   7109.67  6.4812876E-02
   7110.00  8.8249589E-02
   7110.33  1.3029766E-01
   7110.67  2.0104583E-01
   7111.00  2.9778564E-01
   7111.33  3.7473716E-01
   7111.67  4.0347862E-01
   7112.00  3.8579138E-01
   7112.33  3.3612415E-01
   7112.67  2.7945682E-01
   7113.00  2.2817851E-01
   7113.33  1.8955335E-01
   7113.67  1.6147128E-01
   7114.00  1.4144311E-01
   7114.33  1.2701684E-01
   7114.67  1.1526123E-01
   7115.00  1.0544135E-01
   7115.33  9.8146899E-02
   7115.67  9.3661259E-02
   7116.00  9.1929940E-02
   7116.33  9.2611378E-02
   7116.67  9.4807615E-02
   7117.00  9.8070999E-02
   7117.33  1.0205369E-01
   7117.67  1.0653353E-01
   7118.00  1.1168480E-01
   7118.33  1.1786612E-01
   7118.67  1.2483590E-01
   7119.00  1.3216685E-01
   7119.33  1.3912278E-01
   7119.67  1.4519156E-01
   7120.00  1.5057959E-01
   7120.33  1.5652231E-01
   7120.67  1.6420417E-01
   7121.00  1.7417474E-01
   7121.33  1.8654575E-01
   7121.67  1.9968595E-01
   7122.00  2.1181248E-01
   7122.33  2.2230531E-01
   7122.67  2.3320873E-01
   7123.00  2.4603078E-01
   7123.33  2.6132357E-01
   7123.67  2.7803389E-01
   7124.00  2.9550823E-01
   7124.33  3.1360370E-01
   7124.67  3.3246174E-01
   7125.00  3.5227386E-01
   7125.33  3.7300949E-01
   7125.67  3.9375534E-01
   7126.00  4.1322464E-01
   7126.33  4.2958828E-01
   7126.67  4.4256732E-01
   7127.00  4.5203947E-01
   7127.33  4.5696372E-01
   7127.67  4.5706083E-01
   7128.00  4.5285653E-01
   7128.33  4.4684752E-01
   7128.67  4.4196771E-01
   7129.00  4.3935557E-01
   7129.33  4.3949575E-01
   7129.67  4.4141487E-01
   7130.00  4.4391263E-01
   7130.33  4.4499934E-01
   7130.67  4.4330573E-01
   7131.00  4.3834410E-01
   7131.33  4.3029981E-01
   7131.67  4.2066325E-01
   7132.00  4.1041570E-01
   7132.33  4.0062681E-01
   7132.67  3.9224795E-01
   7133.00  3.8603329E-01
   7133.33  3.8266588E-01
   7133.67  3.8151458E-01
   7134.00  3.8205899E-01
   7134.33  3.8395182E-01
   7134.67  3.8676112E-01
   7135.00  3.9036851E-01
   7135.33  3.9480151E-01
   7135.67  3.9992776E-01
   7136.00  4.0571222E-01
   7136.33  4.1221613E-01
   7136.67  4.1939648E-01
   7137.00  4.2732213E-01
   7137.33  4.3617323E-01
   7137.67  4.4588633E-01
   7138.00  4.5646662E-01
   7138.33  4.6802120E-01
   7138.67  4.8045854E-01
   7139.00  4.9382271E-01
   7139.33  5.0833671E-01
   7139.67  5.2399686E-01
   7140.00  5.4089599E-01
   7140.33  5.5922835E-01
   7140.67  5.7872221E-01
   7141.00  5.9911244E-01
   7141.33  6.1991275E-01
   7141.67  6.4033882E-01
   7142.00  6.5967317E-01
   7142.33  6.7691037E-01
   7142.67  6.9175752E-01
   7143.00  7.0405522E-01
   7143.33  7.1365837E-01
   7143.67  7.2127107E-01
   7144.00  7.2731493E-01
   7144.33  7.3210764E-01
   7144.67  7.3614600E-01
   7145.00  7.3964833E-01
   7145.33  7.4273104E-01
   7145.67  7.4551749E-01
   7146.00  7.4801177E-01
   7146.33  7.5011666E-01
   7146.67  7.5178223E-01
   7147.00  7.5292606E-01
   7147.33  7.5342118E-01
   7147.67  7.5334872E-01
   7148.00  7.5275775E-01
   7148.33  7.5170764E-01
   7148.67  7.5041824E-01
   7149.00  7.4906318E-01
   7149.33  7.4786723E-01
   7149.67  7.4699694E-01
   7150.00  7.4657326E-01
   7150.33  7.4674279E-01
   7150.67  7.4744490E-01
   7151.00  7.4861994E-01
   7151.33  7.5016529E-01
   7151.67  7.5182314E-01
   7152.00  7.5336078E-01
   7152.33  7.5442188E-01
   7152.67  7.5475378E-01
   7153.00  7.5412267E-01
   7153.33  7.5217970E-01
   7153.67  7.4897098E-01
   7154.00  7.4450393E-01
   7154.33  7.3874437E-01
   7154.67  7.3202772E-01
   7155.00  7.2455471E-01
   7155.33  7.1649902E-01
   7155.67  7.0813741E-01
   7156.00  6.9961722E-01
   7156.33  6.9106401E-01
   7156.67  6.8256326E-01
   7157.00  6.7414800E-01
   7157.33  6.6583271E-01
   7157.67  6.5758599E-01
   7158.00  6.4938392E-01
   7158.33  6.4119898E-01
   7158.67  6.3300139E-01
   7159.00  6.2477331E-01
   7159.33  6.1649637E-01
   7159.67  6.0817175E-01
   7160.00  5.9980283E-01
   7160.33  5.9139721E-01
   7160.67  5.8297638E-01
   7161.00  5.7455949E-01
   7161.33  5.6618161E-01
   7161.67  5.5788015E-01
   7162.00  5.4970006E-01
   7162.33  5.4172371E-01
   7162.67  5.3399097E-01
   7163.00  5.2655231E-01
   7163.33  5.1949802E-01
   7163.67  5.1281625E-01
   7164.00  5.0651996E-01
   7164.33  5.0065861E-01
   7164.67  4.9517370E-01
   7165.00  4.9005050E-01
   7165.33  4.8530868E-01
   7165.67  4.8087809E-01
   7166.00  4.7673124E-01
   7166.33  4.7286251E-01
   7166.67  4.6920032E-01
   7167.00  4.6570777E-01
   7167.33  4.6235704E-01
   7167.67  4.5909004E-01
   7168.00  4.5587369E-01
   7168.33  4.5267803E-01
   7168.67  4.4947835E-01
   7169.00  4.4626536E-01
   7169.33  4.4304055E-01
   7169.67  4.3982380E-01
   7170.00  4.3664331E-01
   7170.33  4.3355398E-01
   7170.67  4.3060029E-01
   7171.00  4.2783497E-01
   7171.33  4.2535909E-01
   7171.67  4.2322465E-01
   7172.00  4.2151503E-01
