    FDMNES
    energy     <xanes>
   7097.00  4.8036445E-03
   7097.33  4.9126250E-03
   7097.67  5.0262339E-03
   7098.00  5.1447659E-03
   7098.33  5.2692610E-03
   7098.67  5.3994756E-03
   7099.00  5.5358062E-03
   7099.33  5.6795944E-03
   7099.67  5.8305860E-03
   7100.00  5.9893299E-03
   7100.33  6.1576020E-03
   7100.67  6.3351559E-03
   7101.00  6.5227767E-03
   7101.33  6.7228906E-03
   7101.67  6.9353016E-03
   7102.00  7.1611779E-03
   7102.33  7.4039654E-03
   7102.67  7.6636159E-03
   7103.00  7.9419531E-03
   7103.33  8.2441167E-03
   7103.67  8.5704330E-03
   7104.00  8.9239275E-03
   7104.33  9.3127589E-03
   7104.67  9.7381895E-03
   7105.00  1.0205644E-02
   7105.33  1.0729178E-02
   7105.67  1.1312503E-02
   7106.00  1.1966400E-02
   7106.33  1.2717924E-02
   7106.67  1.3577870E-02
   7107.00  1.4570926E-02
   7107.33  1.5758052E-02
   7107.67  1.7174208E-02
   7108.00  1.8888938E-02
   7108.33  2.1076264E-02
   7108.67  2.3878769E-02
   7109.00  2.7566943E-02
   7109.33  3.2867605E-02
   7109.67  4.0653324E-02
   7110.00  5.2655199E-02
   7110.33  7.3865623E-02
   7110.67  1.0872608E-01
   7111.00  1.5275791E-01
   7111.33  1.7656372E-01
   7111.67  1.8389741E-01
   7112.00  1.9005077E-01
   7112.33  1.8556320E-01
   7112.67  1.7445406E-01
   7113.00  1.7415343E-01
   7113.33  1.9888631E-01
   7113.67  2.3591247E-01
   7114.00  2.4984879E-01
   7114.33  2.1344723E-01
   7114.67  1.6878242E-01
   7115.00  1.3710813E-01
   7115.33  1.2088921E-01
   7115.67  1.1426620E-01
   7116.00  1.1490637E-01
   7116.33  1.2212147E-01
   7116.67  1.3435308E-01
   7117.00  1.5064434E-01
   7117.33  1.6965958E-01
   7117.67  1.9012243E-01
   7118.00  2.1233914E-01
   7118.33  2.3630886E-01
   7118.67  2.5990365E-01
   7119.00  2.8088411E-01
   7119.33  2.9657315E-01
   7119.67  3.0685090E-01
   7120.00  3.1303244E-01
   7120.33  3.1881809E-01
   7120.67  3.2783011E-01
   7121.00  3.4152342E-01
   7121.33  3.6056117E-01
   7121.67  3.8335345E-01
   7122.00  4.0867481E-01
   7122.33  4.3565102E-01
   7122.67  4.6362685E-01
   7123.00  4.9167605E-01
   7123.33  5.1722804E-01
   7123.67  5.3822019E-01
   7124.00  5.5381940E-01
   7124.33  5.6449181E-01
   7124.67  5.7313801E-01
   7125.00  5.8146524E-01
   7125.33  5.9003017E-01
   7125.67  5.9781997E-01
   7126.00  6.0366768E-01
   7126.33  6.0648670E-01
   7126.67  6.0644715E-01
   7127.00  6.0364541E-01
   7127.33  5.9831885E-01
   7127.67  5.9146433E-01
   7128.00  5.8344052E-01
   7128.33  5.7428213E-01
   7128.67  5.6450793E-01
   7129.00  5.5479332E-01
   7129.33  5.4613269E-01
   7129.67  5.3901855E-01
   7130.00  5.3366764E-01
   7130.33  5.3033428E-01
   7130.67  5.2870123E-01
   7131.00  5.2863258E-01
   7131.33  5.3006298E-01
   7131.67  5.3247324E-01
   7132.00  5.3545706E-01
   7132.33  5.3847920E-01
   7132.67  5.4104121E-01
   7133.00  5.4287250E-01
   7133.33  5.4386747E-01
   7133.67  5.4444047E-01
   7134.00  5.4499895E-01
   7134.33  5.4597291E-01
   7134.67  5.4744688E-01
   7135.00  5.4931826E-01
   7135.33  5.5131435E-01
   7135.67  5.5307351E-01
   7136.00  5.5433281E-01
   7136.33  5.5480377E-01
   7136.67  5.5450740E-01
   7137.00  5.5348487E-01
   7137.33  5.5179601E-01
   7137.67  5.4970626E-01
   7138.00  5.4739740E-01
   7138.33  5.4506211E-01
   7138.67  5.4286171E-01
   7139.00  5.4089968E-01
   7139.33  5.3927946E-01
   7139.67  5.3796829E-01
   7140.00  5.3693521E-01
   7140.33  5.3615256E-01
   7140.67  5.3553910E-01
   7141.00  5.3506540E-01
   7141.33  5.3474329E-01
   7141.67  5.3458754E-01
   7142.00  5.3465154E-01
   7142.33  5.3504983E-01
   7142.67  5.3582022E-01
   7143.00  5.3701203E-01
   7143.33  5.3871016E-01
   7143.67  5.4084903E-01
   7144.00  5.4339055E-01
   7144.33  5.4630299E-01
   7144.67  5.4945031E-01
   7145.00  5.5274077E-01
   7145.33  5.5606674E-01
   7145.67  5.5931228E-01
   7146.00  5.6238239E-01
   7146.33  5.6513203E-01
   7146.67  5.6748774E-01
   7147.00  5.6935582E-01
   7147.33  5.7055545E-01
   7147.67  5.7105921E-01
   7148.00  5.7078567E-01
   7148.33  5.6954553E-01
   7148.67  5.6738787E-01
   7149.00  5.6428933E-01
   7149.33  5.6014398E-01
   7149.67  5.5512138E-01
   7150.00  5.4929963E-01
   7150.33  5.4271496E-01
   7150.67  5.3559250E-01
   7151.00  5.2805586E-01
   7151.33  5.2020706E-01
   7151.67  5.1220528E-01
   7152.00  5.0413427E-01
   7152.33  4.9605544E-01
   7152.67  4.8800864E-01
   7153.00  4.8001886E-01
   7153.33  4.7211224E-01
   7153.67  4.6428790E-01
   7154.00  4.5655563E-01
   7154.33  4.4894992E-01
   7154.67  4.4148909E-01
   7155.00  4.3420922E-01
   7155.33  4.2718672E-01
   7155.67  4.2044432E-01
   7156.00  4.1402711E-01
   7156.33  4.0803370E-01
   7156.67  4.0246651E-01
   7157.00  3.9736629E-01
   7157.33  3.9284055E-01
   7157.67  3.8886282E-01
   7158.00  3.8545754E-01
   7158.33  3.8271221E-01
   7158.67  3.8054733E-01
   7159.00  3.7893810E-01
   7159.33  3.7789449E-01
   7159.67  3.7727920E-01
   7160.00  3.7701704E-01
   7160.33  3.7704841E-01
   7160.67  3.7725381E-01
   7161.00  3.7756736E-01
   7161.33  3.7792994E-01
   7161.67  3.7828715E-01
   7162.00  3.7860902E-01
   7162.33  3.7886525E-01
   7162.67  3.7905020E-01
   7163.00  3.7915777E-01
   7163.33  3.7917702E-01
   7163.67  3.7912759E-01
   7164.00  3.7902569E-01
   7164.33  3.7889216E-01
   7164.67  3.7875843E-01
   7165.00  3.7865006E-01
   7165.33  3.7860357E-01
   7165.67  3.7863946E-01
   7166.00  3.7877812E-01
   7166.33  3.7905398E-01
   7166.67  3.7946458E-01
   7167.00  3.8001600E-01
   7167.33  3.8072954E-01
   7167.67  3.8158776E-01
   7168.00  3.8258923E-01
   7168.33  3.8374767E-01
   7168.67  3.8504249E-01
   7169.00  3.8647194E-01
   7169.33  3.8805024E-01
   7169.67  3.8975686E-01
   7170.00  3.9158536E-01
   7170.33  3.9353545E-01
   7170.67  3.9556880E-01
   7171.00  3.9764986E-01
   7171.33  3.9970423E-01
   7171.67  4.0160574E-01
   7172.00  4.0318681E-01
