    FDMNES
    energy     <xanes>
   7097.00  5.0944622E-03
   7097.33  5.2147233E-03
   7097.67  5.3404467E-03
   7098.00  5.4720011E-03
   7098.33  5.6106484E-03
   7098.67  5.7561281E-03
   7099.00  5.9089406E-03
   7099.33  6.0707327E-03
   7099.67  6.2412350E-03
   7100.00  6.4211452E-03
   7100.33  6.6126657E-03
   7100.67  6.8155417E-03
   7101.00  7.0307742E-03
   7101.33  7.2613974E-03
   7101.67  7.5072215E-03
   7102.00  7.7697351E-03
   7102.33  8.0532676E-03
   7102.67  8.3578079E-03
   7103.00  8.6856645E-03
   7103.33  9.0432873E-03
   7103.67  9.4310990E-03
   7104.00  9.8528724E-03
   7104.33  1.0318746E-02
   7104.67  1.0830184E-02
   7105.00  1.1393772E-02
   7105.33  1.2026589E-02
   7105.67  1.2732695E-02
   7106.00  1.3524635E-02
   7106.33  1.4433966E-02
   7106.67  1.5471821E-02
   7107.00  1.6665148E-02
   7107.33  1.8080460E-02
   7107.67  1.9751230E-02
   7108.00  2.1746678E-02
   7108.33  2.4238397E-02
   7108.67  2.7350195E-02
   7109.00  3.1319782E-02
   7109.33  3.6770820E-02
   7109.67  4.4377341E-02
   7110.00  5.5463892E-02
   7110.33  7.3782223E-02
   7110.67  1.0276295E-01
   7111.00  1.4087498E-01
   7111.33  1.7369102E-01
   7111.67  2.0528953E-01
   7112.00  2.4687363E-01
   7112.33  2.9392271E-01
   7112.67  3.4182317E-01
   7113.00  3.9953649E-01
   7113.33  4.5773297E-01
   7113.67  4.7715968E-01
   7114.00  4.5553969E-01
   7114.33  4.1344086E-01
   7114.67  3.6091502E-01
   7115.00  3.1255297E-01
   7115.33  2.8676836E-01
   7115.67  2.7832222E-01
   7116.00  2.7113743E-01
   7116.33  2.5128408E-01
   7116.67  2.2734592E-01
   7117.00  2.0640795E-01
   7117.33  1.8972542E-01
   7117.67  1.7520257E-01
   7118.00  1.6232239E-01
   7118.33  1.5167784E-01
   7118.67  1.4312004E-01
   7119.00  1.3645714E-01
   7119.33  1.3166225E-01
   7119.67  1.2799291E-01
   7120.00  1.2462617E-01
   7120.33  1.2093439E-01
   7120.67  1.1766130E-01
   7121.00  1.1567230E-01
   7121.33  1.1559351E-01
   7121.67  1.1724539E-01
   7122.00  1.2058461E-01
   7122.33  1.2577879E-01
   7122.67  1.3272158E-01
   7123.00  1.4172697E-01
   7123.33  1.5374087E-01
   7123.67  1.6910856E-01
   7124.00  1.8826513E-01
   7124.33  2.1163991E-01
   7124.67  2.3757474E-01
   7125.00  2.6386459E-01
   7125.33  2.8693086E-01
   7125.67  3.0495425E-01
   7126.00  3.1771656E-01
   7126.33  3.2628629E-01
   7126.67  3.3440656E-01
   7127.00  3.4538900E-01
   7127.33  3.6207357E-01
   7127.67  3.8326728E-01
   7128.00  4.0721081E-01
   7128.33  4.3230711E-01
   7128.67  4.5799169E-01
   7129.00  4.8482364E-01
   7129.33  5.1401972E-01
   7129.67  5.4604516E-01
   7130.00  5.8137358E-01
   7130.33  6.2105986E-01
   7130.67  6.6525681E-01
   7131.00  7.1421640E-01
   7131.33  7.6688481E-01
   7131.67  8.1867191E-01
   7132.00  8.6545791E-01
   7132.33  9.0338844E-01
   7132.67  9.3232064E-01
   7133.00  9.5143589E-01
   7133.33  9.5816504E-01
   7133.67  9.5327319E-01
   7134.00  9.3756349E-01
   7134.33  9.1265379E-01
   7134.67  8.8286703E-01
   7135.00  8.5051083E-01
   7135.33  8.1724103E-01
   7135.67  7.8424489E-01
   7136.00  7.5214875E-01
   7136.33  7.2158313E-01
   7136.67  6.9261539E-01
   7137.00  6.6536459E-01
   7137.33  6.4021202E-01
   7137.67  6.1713385E-01
   7138.00  5.9634134E-01
   7138.33  5.7835555E-01
   7138.67  5.6295925E-01
   7139.00  5.5011138E-01
   7139.33  5.3992106E-01
   7139.67  5.3179260E-01
   7140.00  5.2542377E-01
   7140.33  5.2064210E-01
   7140.67  5.1695909E-01
   7141.00  5.1414978E-01
   7141.33  5.1209137E-01
   7141.67  5.1055442E-01
   7142.00  5.0945714E-01
   7142.33  5.0879155E-01
   7142.67  5.0848087E-01
   7143.00  5.0851002E-01
   7143.33  5.0890245E-01
   7143.67  5.0959692E-01
   7144.00  5.1057238E-01
   7144.33  5.1183522E-01
   7144.67  5.1332938E-01
   7145.00  5.1503641E-01
   7145.33  5.1696242E-01
   7145.67  5.1906774E-01
   7146.00  5.2134065E-01
   7146.33  5.2378764E-01
   7146.67  5.2637715E-01
   7147.00  5.2910034E-01
   7147.33  5.3196536E-01
   7147.67  5.3495033E-01
   7148.00  5.3805097E-01
   7148.33  5.4128179E-01
   7148.67  5.4463608E-01
   7149.00  5.4812470E-01
   7149.33  5.5178159E-01
   7149.67  5.5560290E-01
   7150.00  5.5959234E-01
   7150.33  5.6376452E-01
   7150.67  5.6808752E-01
   7151.00  5.7253694E-01
   7151.33  5.7705955E-01
   7151.67  5.8155134E-01
   7152.00  5.8591848E-01
   7152.33  5.9000777E-01
   7152.67  5.9371863E-01
   7153.00  5.9694142E-01
   7153.33  5.9949181E-01
   7153.67  6.0136714E-01
   7154.00  6.0253313E-01
   7154.33  6.0290057E-01
   7154.67  6.0259711E-01
   7155.00  6.0168060E-01
   7155.33  6.0016758E-01
   7155.67  5.9820988E-01
   7156.00  5.9587526E-01
   7156.33  5.9319591E-01
   7156.67  5.9026950E-01
   7157.00  5.8713387E-01
   7157.33  5.8380252E-01
   7157.67  5.8033092E-01
   7158.00  5.7674980E-01
   7158.33  5.7308986E-01
   7158.67  5.6940317E-01
   7159.00  5.6572838E-01
   7159.33  5.6211657E-01
   7159.67  5.5860125E-01
   7160.00  5.5521256E-01
   7160.33  5.5199697E-01
   7160.67  5.4895316E-01
   7161.00  5.4608968E-01
   7161.33  5.4342768E-01
   7161.67  5.4093255E-01
   7162.00  5.3858779E-01
   7162.33  5.3638369E-01
   7162.67  5.3427198E-01
   7163.00  5.3222021E-01
   7163.33  5.3018862E-01
   7163.67  5.2813075E-01
   7164.00  5.2600952E-01
   7164.33  5.2377149E-01
   7164.67  5.2139418E-01
   7165.00  5.1885381E-01
   7165.33  5.1610941E-01
   7165.67  5.1317590E-01
   7166.00  5.1005459E-01
   7166.33  5.0673115E-01
   7166.67  5.0324159E-01
   7167.00  4.9960067E-01
   7167.33  4.9580991E-01
   7167.67  4.9190397E-01
   7168.00  4.8789965E-01
   7168.33  4.8380970E-01
   7168.67  4.7966624E-01
   7169.00  4.7548657E-01
   7169.33  4.7128995E-01
   7169.67  4.6710385E-01
   7170.00  4.6295468E-01
   7170.33  4.5888877E-01
   7170.67  4.5494347E-01
   7171.00  4.5117154E-01
   7171.33  4.4769532E-01
   7171.67  4.4462609E-01
   7172.00  4.4213752E-01
