    FDMNES
    energy     <xanes>
   7097.00  5.0830524E-03
   7097.33  5.2030210E-03
   7097.67  5.3284036E-03
   7098.00  5.4595618E-03
   7098.33  5.5977397E-03
   7098.67  5.7426735E-03
   7099.00  5.8948524E-03
   7099.33  6.0558946E-03
   7099.67  6.2255251E-03
   7100.00  6.4044228E-03
   7100.33  6.5947433E-03
   7100.67  6.7962216E-03
   7101.00  7.0098270E-03
   7101.33  7.2385150E-03
   7101.67  7.4820765E-03
   7102.00  7.7419444E-03
   7102.33  8.0223122E-03
   7102.67  8.3231299E-03
   7103.00  8.6466051E-03
   7103.33  8.9989428E-03
   7103.67  9.3804851E-03
   7104.00  9.7948121E-03
   7104.33  1.0251600E-02
   7104.67  1.0752134E-02
   7105.00  1.1302611E-02
   7105.33  1.1919178E-02
   7105.67  1.2605478E-02
   7106.00  1.3373203E-02
   7106.33  1.4251885E-02
   7106.67  1.5251585E-02
   7107.00  1.6397195E-02
   7107.33  1.7750341E-02
   7107.67  1.9341434E-02
   7108.00  2.1234080E-02
   7108.33  2.3586399E-02
   7108.67  2.6512175E-02
   7109.00  3.0231309E-02
   7109.33  3.5324175E-02
   7109.67  4.2427832E-02
   7110.00  5.2802779E-02
   7110.33  7.0028563E-02
   7110.67  9.7155931E-02
   7111.00  1.3112294E-01
   7111.33  1.5241260E-01
   7111.67  1.6529565E-01
   7112.00  1.8875900E-01
   7112.33  2.3899400E-01
   7112.67  3.1700388E-01
   7113.00  4.2081875E-01
   7113.33  5.1948753E-01
   7113.67  5.4107586E-01
   7114.00  4.7884976E-01
   7114.33  3.9810305E-01
   7114.67  3.4354864E-01
   7115.00  3.1937399E-01
   7115.33  3.1935745E-01
   7115.67  3.2391763E-01
   7116.00  3.1756039E-01
   7116.33  2.9409932E-01
   7116.67  2.6558851E-01
   7117.00  2.4008458E-01
   7117.33  2.2039420E-01
   7117.67  2.0352825E-01
   7118.00  1.8797784E-01
   7118.33  1.7431013E-01
   7118.67  1.6284682E-01
   7119.00  1.5347582E-01
   7119.33  1.4622685E-01
   7119.67  1.4086754E-01
   7120.00  1.3735450E-01
   7120.33  1.3540079E-01
   7120.67  1.3386114E-01
   7121.00  1.3181225E-01
   7121.33  1.2883055E-01
   7121.67  1.2590424E-01
   7122.00  1.2411090E-01
   7122.33  1.2429878E-01
   7122.67  1.2618642E-01
   7123.00  1.2959712E-01
   7123.33  1.3470859E-01
   7123.67  1.4158432E-01
   7124.00  1.5062467E-01
   7124.33  1.6281919E-01
   7124.67  1.7855156E-01
   7125.00  1.9838815E-01
   7125.33  2.2325752E-01
   7125.67  2.5253675E-01
   7126.00  2.8580362E-01
   7126.33  3.2204305E-01
   7126.67  3.5766423E-01
   7127.00  3.8855632E-01
   7127.33  4.1101057E-01
   7127.67  4.2852461E-01
   7128.00  4.4594152E-01
   7128.33  4.6833230E-01
   7128.67  4.9639906E-01
   7129.00  5.2856425E-01
   7129.33  5.6160412E-01
   7129.67  5.9276964E-01
   7130.00  6.2140588E-01
   7130.33  6.4825807E-01
   7130.67  6.7532701E-01
   7131.00  7.0403651E-01
   7131.33  7.3535613E-01
   7131.67  7.6828501E-01
   7132.00  8.0125365E-01
   7132.33  8.3140928E-01
   7132.67  8.5616533E-01
   7133.00  8.7314736E-01
   7133.33  8.7933312E-01
   7133.67  8.7580843E-01
   7134.00  8.6360917E-01
   7134.33  8.4340683E-01
   7134.67  8.1754728E-01
   7135.00  7.8731886E-01
   7135.33  7.5403708E-01
   7135.67  7.1962522E-01
   7136.00  6.8519953E-01
   7136.33  6.5189068E-01
   7136.67  6.2037422E-01
   7137.00  5.9124783E-01
   7137.33  5.6551323E-01
   7137.67  5.4331793E-01
   7138.00  5.2498517E-01
   7138.33  5.1118374E-01
   7138.67  5.0132301E-01
   7139.00  4.9515329E-01
   7139.33  4.9266725E-01
   7139.67  4.9299483E-01
   7140.00  4.9575100E-01
   7140.33  5.0075760E-01
   7140.67  5.0734757E-01
   7141.00  5.1516554E-01
   7141.33  5.2390624E-01
   7141.67  5.3308064E-01
   7142.00  5.4238929E-01
   7142.33  5.5151784E-01
   7142.67  5.6026121E-01
   7143.00  5.6848375E-01
   7143.33  5.7601321E-01
   7143.67  5.8288801E-01
   7144.00  5.8910918E-01
   7144.33  5.9462633E-01
   7144.67  5.9956134E-01
   7145.00  6.0395704E-01
   7145.33  6.0780340E-01
   7145.67  6.1120663E-01
   7146.00  6.1418723E-01
   7146.33  6.1668481E-01
   7146.67  6.1873486E-01
   7147.00  6.2032391E-01
   7147.33  6.2138024E-01
   7147.67  6.2195293E-01
   7148.00  6.2203536E-01
   7148.33  6.2156156E-01
   7148.67  6.2059592E-01
   7149.00  6.1915107E-01
   7149.33  6.1719430E-01
   7149.67  6.1481077E-01
   7150.00  6.1203194E-01
   7150.33  6.0886400E-01
   7150.67  6.0541698E-01
   7151.00  6.0175766E-01
   7151.33  5.9795266E-01
   7151.67  5.9410666E-01
   7152.00  5.9029824E-01
   7152.33  5.8663405E-01
   7152.67  5.8318438E-01
   7153.00  5.8001301E-01
   7153.33  5.7721870E-01
   7153.67  5.7479909E-01
   7154.00  5.7277401E-01
   7154.33  5.7120025E-01
   7154.67  5.7002015E-01
   7155.00  5.6921945E-01
   7155.33  5.6882074E-01
   7155.67  5.6875481E-01
   7156.00  5.6900019E-01
   7156.33  5.6956664E-01
   7156.67  5.7038903E-01
   7157.00  5.7143629E-01
   7157.33  5.7268496E-01
   7157.67  5.7405410E-01
   7158.00  5.7547832E-01
   7158.33  5.7685665E-01
   7158.67  5.7808388E-01
   7159.00  5.7906007E-01
   7159.33  5.7962559E-01
   7159.67  5.7972502E-01
   7160.00  5.7928943E-01
   7160.33  5.7819207E-01
   7160.67  5.7648398E-01
   7161.00  5.7416808E-01
   7161.33  5.7120223E-01
   7161.67  5.6771505E-01
   7162.00  5.6376868E-01
   7162.33  5.5939493E-01
   7162.67  5.5472098E-01
   7163.00  5.4981255E-01
   7163.33  5.4471945E-01
   7163.67  5.3952408E-01
   7164.00  5.3427126E-01
   7164.33  5.2899859E-01
   7164.67  5.2373443E-01
   7165.00  5.1849463E-01
   7165.33  5.1329781E-01
   7165.67  5.0814815E-01
   7166.00  5.0304982E-01
   7166.33  4.9801024E-01
   7166.67  4.9302265E-01
   7167.00  4.8808766E-01
   7167.33  4.8321091E-01
   7167.67  4.7838523E-01
   7168.00  4.7361285E-01
   7168.33  4.6890858E-01
   7168.67  4.6427711E-01
   7169.00  4.5972942E-01
   7169.33  4.5529048E-01
   7169.67  4.5096759E-01
   7170.00  4.4678265E-01
   7170.33  4.4278575E-01
   7170.67  4.3899008E-01
   7171.00  4.3543297E-01
   7171.33  4.3221561E-01
   7171.67  4.2940618E-01
   7172.00  4.2713615E-01
