    FDMNES
    energy     <xanes>
   7097.00  4.9606919E-03
   7097.33  5.0728997E-03
   7097.67  5.1899733E-03
   7098.00  5.3122278E-03
   7098.33  5.4407650E-03
   7098.67  5.5753349E-03
   7099.00  5.7163610E-03
   7099.33  5.8652661E-03
   7099.67  6.0217867E-03
   7100.00  6.1865068E-03
   7100.33  6.3613071E-03
   7100.67  6.5459268E-03
   7101.00  6.7411936E-03
   7101.33  6.9496641E-03
   7101.67  7.1711166E-03
   7102.00  7.4067641E-03
   7102.33  7.6601999E-03
   7102.67  7.9313216E-03
   7103.00  8.2219797E-03
   7103.33  8.5374332E-03
   7103.67  8.8778784E-03
   7104.00  9.2462801E-03
   7104.33  9.6507290E-03
   7104.67  1.0092139E-02
   7105.00  1.0575557E-02
   7105.33  1.1114246E-02
   7105.67  1.1710874E-02
   7106.00  1.2374733E-02
   7106.33  1.3129441E-02
   7106.67  1.3982261E-02
   7107.00  1.4952195E-02
   7107.33  1.6086371E-02
   7107.67  1.7405580E-02
   7108.00  1.8954958E-02
   7108.33  2.0845606E-02
   7108.67  2.3146843E-02
   7109.00  2.5993858E-02
   7109.33  2.9729639E-02
   7109.67  3.4666296E-02
   7110.00  4.1403996E-02
   7110.33  5.1602897E-02
   7110.67  6.7168664E-02
   7111.00  9.0456563E-02
   7111.33  1.2316107E-01
   7111.67  1.6484887E-01
   7112.00  2.2004788E-01
   7112.33  2.8304598E-01
   7112.67  3.2351243E-01
   7113.00  3.4838414E-01
   7113.33  3.9353695E-01
   7113.67  4.1997962E-01
   7114.00  3.7005794E-01
   7114.33  2.7929016E-01
   7114.67  2.1615294E-01
   7115.00  1.8739540E-01
   7115.33  1.9083907E-01
   7115.67  2.2197370E-01
   7116.00  2.8140377E-01
   7116.33  3.5253990E-01
   7116.67  3.8273335E-01
   7117.00  3.5001350E-01
   7117.33  2.8766205E-01
   7117.67  2.3396054E-01
   7118.00  1.9595635E-01
   7118.33  1.7227144E-01
   7118.67  1.5625215E-01
   7119.00  1.4441669E-01
   7119.33  1.3512066E-01
   7119.67  1.2834407E-01
   7120.00  1.2486031E-01
   7120.33  1.2470306E-01
   7120.67  1.2571968E-01
   7121.00  1.2717393E-01
   7121.33  1.2974243E-01
   7121.67  1.3382816E-01
   7122.00  1.3955597E-01
   7122.33  1.4701341E-01
   7122.67  1.5577770E-01
   7123.00  1.6579188E-01
   7123.33  1.7725775E-01
   7123.67  1.8992469E-01
   7124.00  2.0370252E-01
   7124.33  2.1854782E-01
   7124.67  2.3374818E-01
   7125.00  2.4873765E-01
   7125.33  2.6429960E-01
   7125.67  2.8287407E-01
   7126.00  3.0621973E-01
   7126.33  3.3385797E-01
   7126.67  3.6166264E-01
   7127.00  3.8708717E-01
   7127.33  4.0978581E-01
   7127.67  4.3218547E-01
   7128.00  4.5629518E-01
   7128.33  4.8390819E-01
   7128.67  5.1479380E-01
   7129.00  5.4840783E-01
   7129.33  5.8372115E-01
   7129.67  6.1844489E-01
   7130.00  6.5073053E-01
   7130.33  6.7998403E-01
   7130.67  7.0825294E-01
   7131.00  7.3692873E-01
   7131.33  7.6636811E-01
   7131.67  7.9554743E-01
   7132.00  8.2305179E-01
   7132.33  8.4622231E-01
   7132.67  8.6347149E-01
   7133.00  8.7378134E-01
   7133.33  8.7596396E-01
   7133.67  8.7119974E-01
   7134.00  8.6014074E-01
   7134.33  8.4346560E-01
   7134.67  8.2339681E-01
   7135.00  8.0122780E-01
   7135.33  7.7797480E-01
   7135.67  7.5426104E-01
   7136.00  7.3007092E-01
   7136.33  7.0518531E-01
   7136.67  6.7974226E-01
   7137.00  6.5405276E-01
   7137.33  6.2875741E-01
   7137.67  6.0455602E-01
   7138.00  5.8215087E-01
   7138.33  5.6266760E-01
   7138.67  5.4642032E-01
   7139.00  5.3371046E-01
   7139.33  5.2498250E-01
   7139.67  5.1949423E-01
   7140.00  5.1687104E-01
   7140.33  5.1698516E-01
   7140.67  5.1918565E-01
   7141.00  5.2325480E-01
   7141.33  5.2920762E-01
   7141.67  5.3664217E-01
   7142.00  5.4533425E-01
   7142.33  5.5498681E-01
   7142.67  5.6488321E-01
   7143.00  5.7433718E-01
   7143.33  5.8226809E-01
   7143.67  5.8796099E-01
   7144.00  5.9083251E-01
   7144.33  5.9018054E-01
   7144.67  5.8653918E-01
   7145.00  5.8034153E-01
   7145.33  5.7208828E-01
   7145.67  5.6282690E-01
   7146.00  5.5323721E-01
   7146.33  5.4405866E-01
   7146.67  5.3579247E-01
   7147.00  5.2877483E-01
   7147.33  5.2342582E-01
   7147.67  5.1964192E-01
   7148.00  5.1740207E-01
   7148.33  5.1679033E-01
   7148.67  5.1744173E-01
   7149.00  5.1914611E-01
   7149.33  5.2174291E-01
   7149.67  5.2488223E-01
   7150.00  5.2836998E-01
   7150.33  5.3204488E-01
   7150.67  5.3576219E-01
   7151.00  5.3946037E-01
   7151.33  5.4311514E-01
   7151.67  5.4675359E-01
   7152.00  5.5040885E-01
   7152.33  5.5412530E-01
   7152.67  5.5792040E-01
   7153.00  5.6179685E-01
   7153.33  5.6574771E-01
   7153.67  5.6973934E-01
   7154.00  5.7374931E-01
   7154.33  5.7775611E-01
   7154.67  5.8174452E-01
   7155.00  5.8570282E-01
   7155.33  5.8960842E-01
   7155.67  5.9344098E-01
   7156.00  5.9716668E-01
   7156.33  6.0071102E-01
   7156.67  6.0402440E-01
   7157.00  6.0703688E-01
   7157.33  6.0961056E-01
   7157.67  6.1170083E-01
   7158.00  6.1322681E-01
   7158.33  6.1401811E-01
   7158.67  6.1408006E-01
   7159.00  6.1336074E-01
   7159.33  6.1171589E-01
   7159.67  6.0923012E-01
   7160.00  6.0590725E-01
   7160.33  6.0167341E-01
   7160.67  5.9668313E-01
   7161.00  5.9100096E-01
   7161.33  5.8464060E-01
   7161.67  5.7777881E-01
   7162.00  5.7050950E-01
   7162.33  5.6290937E-01
   7162.67  5.5513077E-01
   7163.00  5.4727220E-01
   7163.33  5.3944775E-01
   7163.67  5.3175361E-01
   7164.00  5.2426892E-01
   7164.33  5.1711749E-01
   7164.67  5.1034068E-01
   7165.00  5.0399761E-01
   7165.33  4.9820662E-01
   7165.67  4.9294923E-01
   7166.00  4.8824896E-01
   7166.33  4.8418389E-01
   7166.67  4.8066749E-01
   7167.00  4.7766757E-01
   7167.33  4.7518317E-01
   7167.67  4.7308019E-01
   7168.00  4.7128297E-01
   7168.33  4.6972481E-01
   7168.67  4.6828708E-01
   7169.00  4.6689780E-01
   7169.33  4.6548268E-01
   7169.67  4.6398108E-01
   7170.00  4.6235189E-01
   7170.33  4.6055376E-01
   7170.67  4.5860919E-01
   7171.00  4.5654628E-01
   7171.33  4.5443479E-01
   7171.67  4.5242679E-01
   7172.00  4.5071497E-01
