    FDMNES
    energy     <xanes>
   7097.00  5.0990543E-03
   7097.33  5.2230044E-03
   7097.67  5.3527073E-03
   7098.00  5.4885536E-03
   7098.33  5.6318761E-03
   7098.67  5.7824020E-03
   7099.00  5.9406606E-03
   7099.33  6.1083893E-03
   7099.67  6.2853042E-03
   7100.00  6.4721396E-03
   7100.33  6.6712146E-03
   7100.67  6.8822552E-03
   7101.00  7.1063092E-03
   7101.33  7.3465585E-03
   7101.67  7.6027869E-03
   7102.00  7.8765393E-03
   7102.33  8.1723268E-03
   7102.67  8.4900958E-03
   7103.00  8.8322148E-03
   7103.33  9.2053379E-03
   7103.67  9.6098076E-03
   7104.00  1.0049433E-02
   7104.33  1.0534519E-02
   7104.67  1.1066347E-02
   7105.00  1.1651417E-02
   7105.33  1.2306712E-02
   7105.67  1.3035792E-02
   7106.00  1.3850646E-02
   7106.33  1.4781634E-02
   7106.67  1.5838270E-02
   7107.00  1.7045109E-02
   7107.33  1.8462941E-02
   7107.67  2.0118884E-02
   7108.00  2.2071495E-02
   7108.33  2.4464995E-02
   7108.67  2.7390631E-02
   7109.00  3.1026357E-02
   7109.33  3.5826286E-02
   7109.67  4.2215529E-02
   7110.00  5.1017309E-02
   7110.33  6.4525829E-02
   7110.67  8.5266750E-02
   7111.00  1.1541797E-01
   7111.33  1.5371162E-01
   7111.67  2.0152775E-01
   7112.00  2.5912793E-01
   7112.33  3.1257832E-01
   7112.67  3.7448468E-01
   7113.00  4.5474548E-01
   7113.33  5.3734080E-01
   7113.67  6.0259834E-01
   7114.00  6.0626648E-01
   7114.33  5.0695383E-01
   7114.67  3.9046069E-01
   7115.00  3.0617730E-01
   7115.33  2.6397807E-01
   7115.67  2.5192031E-01
   7116.00  2.6740960E-01
   7116.33  3.1294198E-01
   7116.67  3.7007910E-01
   7117.00  4.0095421E-01
   7117.33  3.7450272E-01
   7117.67  3.3008808E-01
   7118.00  2.9043609E-01
   7118.33  2.5826674E-01
   7118.67  2.3066008E-01
   7119.00  2.0770593E-01
   7119.33  1.8978676E-01
   7119.67  1.7506886E-01
   7120.00  1.6189036E-01
   7120.33  1.4862365E-01
   7120.67  1.3545978E-01
   7121.00  1.2368484E-01
   7121.33  1.1425519E-01
   7121.67  1.0669401E-01
   7122.00  1.0096141E-01
   7122.33  9.7346462E-02
   7122.67  9.5223950E-02
   7123.00  9.3994344E-02
   7123.33  9.3299404E-02
   7123.67  9.3308490E-02
   7124.00  9.4424718E-02
   7124.33  9.6924258E-02
   7124.67  1.0043033E-01
   7125.00  1.0472777E-01
   7125.33  1.0976447E-01
   7125.67  1.1543605E-01
   7126.00  1.2178224E-01
   7126.33  1.2900587E-01
   7126.67  1.3720955E-01
   7127.00  1.4672097E-01
   7127.33  1.5856572E-01
   7127.67  1.7369704E-01
   7128.00  1.9297757E-01
   7128.33  2.1613642E-01
   7128.67  2.3894622E-01
   7129.00  2.5693217E-01
   7129.33  2.6758910E-01
   7129.67  2.7586824E-01
   7130.00  2.8694987E-01
   7130.33  3.0573645E-01
   7130.67  3.3220252E-01
   7131.00  3.6473962E-01
   7131.33  4.0032834E-01
   7131.67  4.3581625E-01
   7132.00  4.7103102E-01
   7132.33  5.0906620E-01
   7132.67  5.5366207E-01
   7133.00  6.0744027E-01
   7133.33  6.7230364E-01
   7133.67  7.4469246E-01
   7134.00  8.2051857E-01
   7134.33  8.9357079E-01
   7134.67  9.5945142E-01
   7135.00  1.0169538E+00
   7135.33  1.0655814E+00
   7135.67  1.1046969E+00
   7136.00  1.1309498E+00
   7136.33  1.1383481E+00
   7136.67  1.1260107E+00
   7137.00  1.0930956E+00
   7137.33  1.0404330E+00
   7137.67  9.7734148E-01
   7138.00  9.1084297E-01
   7138.33  8.4770344E-01
   7138.67  7.9110899E-01
   7139.00  7.4222168E-01
   7139.33  7.0195519E-01
   7139.67  6.6848575E-01
   7140.00  6.4081751E-01
   7140.33  6.1842666E-01
   7140.67  5.9988033E-01
   7141.00  5.8469525E-01
   7141.33  5.7288846E-01
   7141.67  5.6383934E-01
   7142.00  5.5734671E-01
   7142.33  5.5341127E-01
   7142.67  5.5140420E-01
   7143.00  5.5100379E-01
   7143.33  5.5200858E-01
   7143.67  5.5397084E-01
   7144.00  5.5671548E-01
   7144.33  5.6021162E-01
   7144.67  5.6434058E-01
   7145.00  5.6911390E-01
   7145.33  5.7464712E-01
   7145.67  5.8086780E-01
   7146.00  5.8773783E-01
   7146.33  5.9518755E-01
   7146.67  6.0291348E-01
   7147.00  6.1064974E-01
   7147.33  6.1803649E-01
   7147.67  6.2484439E-01
   7148.00  6.3091912E-01
   7148.33  6.3607041E-01
   7148.67  6.4038723E-01
   7149.00  6.4389488E-01
   7149.33  6.4655132E-01
   7149.67  6.4851386E-01
   7150.00  6.4983752E-01
   7150.33  6.5051159E-01
   7150.67  6.5066465E-01
   7151.00  6.5034123E-01
   7151.33  6.4954038E-01
   7151.67  6.4836657E-01
   7152.00  6.4685695E-01
   7152.33  6.4501267E-01
   7152.67  6.4290994E-01
   7153.00  6.4058356E-01
   7153.33  6.3804350E-01
   7153.67  6.3534284E-01
   7154.00  6.3250540E-01
   7154.33  6.2954221E-01
   7154.67  6.2648945E-01
   7155.00  6.2336388E-01
   7155.33  6.2017390E-01
   7155.67  6.1693678E-01
   7156.00  6.1365631E-01
   7156.33  6.1032308E-01
   7156.67  6.0692864E-01
   7157.00  6.0345141E-01
   7157.33  5.9983939E-01
   7157.67  5.9605768E-01
   7158.00  5.9205480E-01
   7158.33  5.8772821E-01
   7158.67  5.8304531E-01
   7159.00  5.7794987E-01
   7159.33  5.7232619E-01
   7159.67  5.6619213E-01
   7160.00  5.5953013E-01
   7160.33  5.5227717E-01
   7160.67  5.4452868E-01
   7161.00  5.3633370E-01
   7161.33  5.2773201E-01
   7161.67  5.1888329E-01
   7162.00  5.0990785E-01
   7162.33  5.0097589E-01
   7162.67  4.9227699E-01
   7163.00  4.8398647E-01
   7163.33  4.7637357E-01
   7163.67  4.6953626E-01
   7164.00  4.6360039E-01
   7164.33  4.5879867E-01
   7164.67  4.5505053E-01
   7165.00  4.5233686E-01
   7165.33  4.5067892E-01
   7165.67  4.4979220E-01
   7166.00  4.4949468E-01
   7166.33  4.4959257E-01
   7166.67  4.4979960E-01
   7167.00  4.4992346E-01
   7167.33  4.4974259E-01
   7167.67  4.4915374E-01
   7168.00  4.4808315E-01
   7168.33  4.4642916E-01
   7168.67  4.4426502E-01
   7169.00  4.4162611E-01
   7169.33  4.3852482E-01
   7169.67  4.3509341E-01
   7170.00  4.3141223E-01
   7170.33  4.2755939E-01
   7170.67  4.2365185E-01
   7171.00  4.1978260E-01
   7171.33  4.1610981E-01
   7171.67  4.1280892E-01
   7172.00  4.1010846E-01
