    FDMNES
    energy     <xanes>
   7097.00  5.7471223E-03
   7097.33  5.9048985E-03
   7097.67  6.0708524E-03
   7098.00  6.2455926E-03
   7098.33  6.4311042E-03
   7098.67  6.6270741E-03
   7099.00  6.8343470E-03
   7099.33  7.0555764E-03
   7099.67  7.2904596E-03
   7100.00  7.5402000E-03
   7100.33  7.8084396E-03
   7100.67  8.0949376E-03
   7101.00  8.4014625E-03
   7101.33  8.7331696E-03
   7101.67  9.0899915E-03
   7102.00  9.4746227E-03
   7102.33  9.8946336E-03
   7102.67  1.0350373E-02
   7103.00  1.0846127E-02
   7103.33  1.1393517E-02
   7103.67  1.1993850E-02
   7104.00  1.2654314E-02
   7104.33  1.3393742E-02
   7104.67  1.4215688E-02
   7105.00  1.5133012E-02
   7105.33  1.6178407E-02
   7105.67  1.7360935E-02
   7106.00  1.8705614E-02
   7106.33  2.0274483E-02
   7106.67  2.2091317E-02
   7107.00  2.4210517E-02
   7107.33  2.6764914E-02
   7107.67  2.9823105E-02
   7108.00  3.3523330E-02
   7108.33  3.8204010E-02
   7108.67  4.4101028E-02
   7109.00  5.1659064E-02
   7109.33  6.2010452E-02
   7109.67  7.6258625E-02
   7110.00  9.6504607E-02
   7110.33  1.2858766E-01
   7110.67  1.7938981E-01
   7111.00  2.5795864E-01
   7111.33  3.7926875E-01
   7111.67  5.5101939E-01
   7112.00  7.6155087E-01
   7112.33  9.1051780E-01
   7112.67  9.0797364E-01
   7113.00  7.7953439E-01
   7113.33  6.1795975E-01
   7113.67  4.8126443E-01
   7114.00  3.7726467E-01
   7114.33  3.0469173E-01
   7114.67  2.5289369E-01
   7115.00  2.1667421E-01
   7115.33  1.9273718E-01
   7115.67  1.7655657E-01
   7116.00  1.6638126E-01
   7116.33  1.6145125E-01
   7116.67  1.6024842E-01
   7117.00  1.6193856E-01
   7117.33  1.6530003E-01
   7117.67  1.6831954E-01
   7118.00  1.6978505E-01
   7118.33  1.6922226E-01
   7118.67  1.6741619E-01
   7119.00  1.6480425E-01
   7119.33  1.6151235E-01
   7119.67  1.5786440E-01
   7120.00  1.5438410E-01
   7120.33  1.5246603E-01
   7120.67  1.5296073E-01
   7121.00  1.5581886E-01
   7121.33  1.6033594E-01
   7121.67  1.6531290E-01
   7122.00  1.7036854E-01
   7122.33  1.7576896E-01
   7122.67  1.8198001E-01
   7123.00  1.8938823E-01
   7123.33  1.9840819E-01
   7123.67  2.0893094E-01
   7124.00  2.2068243E-01
   7124.33  2.3249951E-01
   7124.67  2.4264786E-01
   7125.00  2.5013957E-01
   7125.33  2.5502923E-01
   7125.67  2.5936460E-01
   7126.00  2.6495869E-01
   7126.33  2.7374746E-01
   7126.67  2.8607243E-01
   7127.00  3.0180547E-01
   7127.33  3.2021816E-01
   7127.67  3.3916319E-01
   7128.00  3.5709604E-01
   7128.33  3.7364064E-01
   7128.67  3.9051261E-01
   7129.00  4.0906461E-01
   7129.33  4.2963679E-01
   7129.67  4.5063568E-01
   7130.00  4.7081552E-01
   7130.33  4.8993126E-01
   7130.67  5.0937508E-01
   7131.00  5.3056497E-01
   7131.33  5.5515200E-01
   7131.67  5.8330035E-01
   7132.00  6.1475924E-01
   7132.33  6.4856718E-01
   7132.67  6.8226704E-01
   7133.00  7.1337540E-01
   7133.33  7.3810985E-01
   7133.67  7.5482524E-01
   7134.00  7.6277891E-01
   7134.33  7.6159386E-01
   7134.67  7.5362632E-01
   7135.00  7.3985635E-01
   7135.33  7.2034103E-01
   7135.67  6.9619134E-01
   7136.00  6.6795843E-01
   7136.33  6.3638247E-01
   7136.67  6.0348385E-01
   7137.00  5.7093359E-01
   7137.33  5.4094048E-01
   7137.67  5.1477790E-01
   7138.00  4.9326702E-01
   7138.33  4.7730817E-01
   7138.67  4.6599867E-01
   7139.00  4.5882646E-01
   7139.33  4.5548763E-01
   7139.67  4.5480121E-01
   7140.00  4.5617566E-01
   7140.33  4.5926888E-01
   7140.67  4.6358775E-01
   7141.00  4.6905087E-01
   7141.33  4.7585372E-01
   7141.67  4.8394257E-01
   7142.00  4.9335821E-01
   7142.33  5.0421188E-01
   7142.67  5.1619309E-01
   7143.00  5.2911550E-01
   7143.33  5.4282332E-01
   7143.67  5.5699419E-01
   7144.00  5.7145513E-01
   7144.33  5.8607807E-01
   7144.67  6.0076891E-01
   7145.00  6.1551193E-01
   7145.33  6.3032634E-01
   7145.67  6.4520199E-01
   7146.00  6.6009160E-01
   7146.33  6.7485197E-01
   7146.67  6.8929628E-01
   7147.00  7.0322027E-01
   7147.33  7.1630169E-01
   7147.67  7.2845592E-01
   7148.00  7.3958421E-01
   7148.33  7.4949986E-01
   7148.67  7.5834090E-01
   7149.00  7.6613900E-01
   7149.33  7.7283003E-01
   7149.67  7.7859777E-01
   7150.00  7.8348752E-01
   7150.33  7.8744189E-01
   7150.67  7.9060385E-01
   7151.00  7.9300000E-01
   7151.33  7.9455995E-01
   7151.67  7.9538960E-01
   7152.00  7.9549182E-01
   7152.33  7.9476779E-01
   7152.67  7.9328988E-01
   7153.00  7.9103094E-01
   7153.33  7.8784398E-01
   7153.67  7.8377843E-01
   7154.00  7.7878498E-01
   7154.33  7.7268665E-01
   7154.67  7.6556659E-01
   7155.00  7.5741139E-01
   7155.33  7.4810965E-01
   7155.67  7.3784510E-01
   7156.00  7.2669972E-01
   7156.33  7.1470995E-01
   7156.67  7.0213235E-01
   7157.00  6.8912419E-01
   7157.33  6.7584154E-01
   7157.67  6.6249067E-01
   7158.00  6.4920497E-01
   7158.33  6.3613699E-01
   7158.67  6.2335992E-01
   7159.00  6.1093256E-01
   7159.33  5.9894344E-01
   7159.67  5.8735775E-01
   7160.00  5.7617306E-01
   7160.33  5.6542480E-01
   7160.67  5.5504768E-01
   7161.00  5.4502685E-01
   7161.33  5.3538624E-01
   7161.67  5.2607396E-01
   7162.00  5.1709099E-01
   7162.33  5.0848520E-01
   7162.67  5.0022178E-01
   7163.00  4.9230480E-01
   7163.33  4.8477614E-01
   7163.67  4.7758445E-01
   7164.00  4.7071746E-01
   7164.33  4.6419268E-01
   7164.67  4.5794667E-01
   7165.00  4.5195557E-01
   7165.33  4.4621847E-01
   7165.67  4.4067912E-01
   7166.00  4.3531660E-01
   7166.33  4.3013017E-01
   7166.67  4.2508617E-01
   7167.00  4.2017859E-01
   7167.33  4.1541849E-01
   7167.67  4.1077913E-01
   7168.00  4.0625189E-01
   7168.33  4.0185039E-01
   7168.67  3.9756786E-01
   7169.00  3.9341152E-01
   7169.33  3.8940554E-01
   7169.67  3.8554064E-01
   7170.00  3.8182486E-01
   7170.33  3.7829063E-01
   7170.67  3.7493508E-01
   7171.00  3.7178170E-01
   7171.33  3.6891075E-01
   7171.67  3.6638291E-01
   7172.00  3.6431784E-01
