    FDMNES
    energy     <xanes>
   7097.00  4.7443134E-03
   7097.33  4.8508392E-03
   7097.67  4.9620180E-03
   7098.00  5.0781583E-03
   7098.33  5.2003268E-03
   7098.67  5.3282957E-03
   7099.00  5.4624845E-03
   7099.33  5.6042830E-03
   7099.67  5.7534575E-03
   7100.00  5.9105940E-03
   7100.33  6.0775518E-03
   7100.67  6.2541122E-03
   7101.00  6.4411205E-03
   7101.33  6.6411432E-03
   7101.67  6.8540241E-03
   7102.00  7.0810293E-03
   7102.33  7.3258386E-03
   7102.67  7.5884641E-03
   7103.00  7.8708907E-03
   7103.33  8.1786457E-03
   7103.67  8.5121523E-03
   7104.00  8.8747018E-03
   7104.33  9.2750969E-03
   7104.67  9.7147562E-03
   7105.00  1.0199542E-02
   7105.33  1.0744566E-02
   7105.67  1.1353776E-02
   7106.00  1.2038634E-02
   7106.33  1.2827827E-02
   7106.67  1.3732346E-02
   7107.00  1.4777663E-02
   7107.33  1.6026459E-02
   7107.67  1.7512600E-02
   7108.00  1.9304254E-02
   7108.33  2.1570495E-02
   7108.67  2.4440016E-02
   7109.00  2.8156784E-02
   7109.33  3.3362280E-02
   7109.67  4.0767637E-02
   7110.00  5.1766090E-02
   7110.33  7.0385592E-02
   7110.67  1.0125595E-01
   7111.00  1.4701753E-01
   7111.33  1.9506899E-01
   7111.67  2.2325372E-01
   7112.00  2.2842136E-01
   7112.33  2.2618048E-01
   7112.67  2.3658940E-01
   7113.00  2.6534958E-01
   7113.33  3.0032662E-01
   7113.67  3.1296345E-01
   7114.00  3.0719649E-01
   7114.33  3.0354668E-01
   7114.67  2.8438291E-01
   7115.00  2.4423959E-01
   7115.33  1.9970909E-01
   7115.67  1.6372708E-01
   7116.00  1.3684282E-01
   7116.33  1.1845954E-01
   7116.67  1.0657459E-01
   7117.00  1.0003563E-01
   7117.33  9.7987472E-02
   7117.67  9.8585918E-02
   7118.00  1.0067605E-01
   7118.33  1.0359211E-01
   7118.67  1.0758075E-01
   7119.00  1.1333237E-01
   7119.33  1.2152566E-01
   7119.67  1.3174530E-01
   7120.00  1.4378689E-01
   7120.33  1.5770354E-01
   7120.67  1.7258090E-01
   7121.00  1.8654049E-01
   7121.33  1.9619217E-01
   7121.67  2.0175946E-01
   7122.00  2.0612426E-01
   7122.33  2.1348530E-01
   7122.67  2.2523897E-01
   7123.00  2.4076853E-01
   7123.33  2.5753496E-01
   7123.67  2.7283318E-01
   7124.00  2.8713480E-01
   7124.33  3.0368560E-01
   7124.67  3.2314695E-01
   7125.00  3.4278662E-01
   7125.33  3.5831364E-01
   7125.67  3.6959837E-01
   7126.00  3.7775553E-01
   7126.33  3.8403499E-01
   7126.67  3.9045223E-01
   7127.00  3.9866110E-01
   7127.33  4.1056717E-01
   7127.67  4.2653356E-01
   7128.00  4.4654646E-01
   7128.33  4.7026683E-01
   7128.67  4.9610881E-01
   7129.00  5.2313706E-01
   7129.33  5.5079940E-01
   7129.67  5.7880812E-01
   7130.00  6.0673277E-01
   7130.33  6.3286263E-01
   7130.67  6.5503398E-01
   7131.00  6.7155494E-01
   7131.33  6.8141401E-01
   7131.67  6.8715487E-01
   7132.00  6.9132088E-01
   7132.33  6.9704508E-01
   7132.67  7.0607086E-01
   7133.00  7.1857708E-01
   7133.33  7.3307730E-01
   7133.67  7.4655052E-01
   7134.00  7.5715073E-01
   7134.33  7.6397037E-01
   7134.67  7.6820603E-01
   7135.00  7.7076010E-01
   7135.33  7.7237732E-01
   7135.67  7.7354288E-01
   7136.00  7.7405544E-01
   7136.33  7.7295508E-01
   7136.67  7.6942536E-01
   7137.00  7.6281269E-01
   7137.33  7.5253258E-01
   7137.67  7.3958539E-01
   7138.00  7.2499556E-01
   7138.33  7.1014553E-01
   7138.67  6.9622423E-01
   7139.00  6.8376341E-01
   7139.33  6.7299212E-01
   7139.67  6.6332796E-01
   7140.00  6.5430116E-01
   7140.33  6.4548152E-01
   7140.67  6.3664899E-01
   7141.00  6.2784852E-01
   7141.33  6.1930464E-01
   7141.67  6.1121644E-01
   7142.00  6.0374650E-01
   7142.33  5.9711685E-01
   7142.67  5.9131126E-01
   7143.00  5.8637689E-01
   7143.33  5.8246453E-01
   7143.67  5.7947053E-01
   7144.00  5.7737758E-01
   7144.33  5.7624497E-01
   7144.67  5.7590181E-01
   7145.00  5.7629000E-01
   7145.33  5.7742515E-01
   7145.67  5.7916071E-01
   7146.00  5.8144161E-01
   7146.33  5.8424281E-01
   7146.67  5.8737033E-01
   7147.00  5.9063121E-01
   7147.33  5.9364963E-01
   7147.67  5.9595698E-01
   7148.00  5.9702692E-01
   7148.33  5.9600106E-01
   7148.67  5.9264570E-01
   7149.00  5.8679611E-01
   7149.33  5.7829692E-01
   7149.67  5.6789920E-01
   7150.00  5.5614152E-01
   7150.33  5.4354802E-01
   7150.67  5.3071796E-01
   7151.00  5.1798808E-01
   7151.33  5.0568880E-01
   7151.67  4.9395333E-01
   7152.00  4.8287613E-01
   7152.33  4.7261224E-01
   7152.67  4.6310760E-01
   7153.00  4.5437384E-01
   7153.33  4.4650292E-01
   7153.67  4.3938629E-01
   7154.00  4.3301000E-01
   7154.33  4.2744425E-01
   7154.67  4.2257414E-01
   7155.00  4.1837172E-01
   7155.33  4.1486904E-01
   7155.67  4.1192444E-01
   7156.00  4.0946631E-01
   7156.33  4.0743971E-01
   7156.67  4.0568352E-01
   7157.00  4.0409838E-01
   7157.33  4.0257776E-01
   7157.67  4.0101997E-01
   7158.00  3.9936802E-01
   7158.33  3.9756587E-01
   7158.67  3.9562143E-01
   7159.00  3.9355084E-01
   7159.33  3.9138714E-01
   7159.67  3.8920900E-01
   7160.00  3.8708835E-01
   7160.33  3.8513162E-01
   7160.67  3.8340877E-01
   7161.00  3.8199140E-01
   7161.33  3.8099852E-01
   7161.67  3.8044205E-01
   7162.00  3.8036293E-01
   7162.33  3.8085785E-01
   7162.67  3.8187725E-01
   7163.00  3.8341798E-01
   7163.33  3.8552110E-01
   7163.67  3.8808367E-01
   7164.00  3.9105741E-01
   7164.33  3.9441682E-01
   7164.67  3.9804170E-01
   7165.00  4.0186197E-01
   7165.33  4.0581132E-01
   7165.67  4.0980089E-01
   7166.00  4.1377418E-01
   7166.33  4.1766683E-01
   7166.67  4.2144339E-01
   7167.00  4.2507427E-01
   7167.33  4.2851295E-01
   7167.67  4.3176371E-01
   7168.00  4.3481639E-01
   7168.33  4.3763573E-01
   7168.67  4.4023894E-01
   7169.00  4.4262002E-01
   7169.33  4.4474782E-01
   7169.67  4.4665247E-01
   7170.00  4.4833977E-01
   7170.33  4.4979556E-01
   7170.67  4.5106157E-01
   7171.00  4.5215330E-01
   7171.33  4.5306679E-01
   7171.67  4.5382841E-01
   7172.00  4.5443320E-01
