    FDMNES
    energy     <xanes>
   7097.00  4.6623656E-03
   7097.33  4.7724098E-03
   7097.67  4.8876427E-03
   7098.00  5.0084404E-03
   7098.33  5.1360477E-03
   7098.67  5.2702564E-03
   7099.00  5.4115921E-03
   7099.33  5.5617200E-03
   7099.67  5.7204452E-03
   7100.00  5.8885246E-03
   7100.33  6.0682556E-03
   7100.67  6.2594964E-03
   7101.00  6.4633774E-03
   7101.33  6.6831844E-03
   7101.67  6.9189178E-03
   7102.00  7.1723380E-03
   7102.33  7.4483545E-03
   7102.67  7.7473075E-03
   7103.00  8.0720821E-03
   7103.33  8.4304153E-03
   7103.67  8.8234467E-03
   7104.00  9.2562120E-03
   7104.33  9.7417385E-03
   7104.67  1.0283110E-02
   7105.00  1.0889839E-02
   7105.33  1.1585801E-02
   7105.67  1.2379148E-02
   7106.00  1.3289804E-02
   7106.33  1.4366717E-02
   7106.67  1.5632833E-02
   7107.00  1.7136182E-02
   7107.33  1.8994033E-02
   7107.67  2.1280602E-02
   7108.00  2.4137677E-02
   7108.33  2.7919175E-02
   7108.67  3.2931101E-02
   7109.00  3.9746152E-02
   7109.33  4.9906156E-02
   7109.67  6.5303228E-02
   7110.00  8.9681348E-02
   7110.33  1.3387517E-01
   7110.67  2.0796323E-01
   7111.00  3.0493931E-01
   7111.33  3.6688331E-01
   7111.67  3.7094626E-01
   7112.00  3.3965390E-01
   7112.33  3.0857965E-01
   7112.67  2.8555149E-01
   7113.00  2.6543798E-01
   7113.33  2.3108312E-01
   7113.67  1.8298346E-01
   7114.00  1.4008740E-01
   7114.33  1.1206303E-01
   7114.67  9.4331644E-02
   7115.00  8.2612756E-02
   7115.33  7.2652833E-02
   7115.67  6.3649362E-02
   7116.00  5.7067221E-02
   7116.33  5.3485376E-02
   7116.67  5.1745452E-02
   7117.00  5.1265622E-02
   7117.33  5.1827366E-02
   7117.67  5.3271461E-02
   7118.00  5.5684155E-02
   7118.33  5.9270796E-02
   7118.67  6.3855580E-02
   7119.00  6.9286364E-02
   7119.33  7.5277846E-02
   7119.67  8.1290105E-02
   7120.00  8.6986266E-02
   7120.33  9.2125043E-02
   7120.67  9.6816513E-02
   7121.00  1.0133949E-01
   7121.33  1.0637868E-01
   7121.67  1.1267579E-01
   7122.00  1.2090888E-01
   7122.33  1.3211387E-01
   7122.67  1.4657821E-01
   7123.00  1.6475972E-01
   7123.33  1.8756523E-01
   7123.67  2.1461179E-01
   7124.00  2.4567016E-01
   7124.33  2.8037491E-01
   7124.67  3.1712092E-01
   7125.00  3.5477538E-01
   7125.33  3.9160982E-01
   7125.67  4.2416993E-01
   7126.00  4.4719290E-01
   7126.33  4.5465734E-01
   7126.67  4.5067951E-01
   7127.00  4.4053139E-01
   7127.33  4.3061769E-01
   7127.67  4.2641349E-01
   7128.00  4.3064186E-01
   7128.33  4.4513887E-01
   7128.67  4.6787384E-01
   7129.00  4.9727649E-01
   7129.33  5.3156165E-01
   7129.67  5.6778493E-01
   7130.00  6.0451092E-01
   7130.33  6.4221879E-01
   7130.67  6.8271254E-01
   7131.00  7.2640691E-01
   7131.33  7.7030931E-01
   7131.67  8.0895033E-01
   7132.00  8.3850931E-01
   7132.33  8.5679845E-01
   7132.67  8.6697182E-01
   7133.00  8.7041218E-01
   7133.33  8.6602771E-01
   7133.67  8.5447864E-01
   7134.00  8.3770979E-01
   7134.33  8.1972060E-01
   7134.67  8.0412733E-01
   7135.00  7.9239903E-01
   7135.33  7.8531853E-01
   7135.67  7.8135683E-01
   7136.00  7.7866132E-01
   7136.33  7.7452068E-01
   7136.67  7.6792717E-01
   7137.00  7.5962200E-01
   7137.33  7.5099404E-01
   7137.67  7.4271291E-01
   7138.00  7.3466705E-01
   7138.33  7.2646417E-01
   7138.67  7.1785191E-01
   7139.00  7.0879421E-01
   7139.33  6.9942663E-01
   7139.67  6.9009888E-01
   7140.00  6.8112096E-01
   7140.33  6.7290654E-01
   7140.67  6.6561238E-01
   7141.00  6.5935470E-01
   7141.33  6.5429260E-01
   7141.67  6.5022479E-01
   7142.00  6.4703644E-01
   7142.33  6.4464116E-01
   7142.67  6.4276865E-01
   7143.00  6.4123015E-01
   7143.33  6.3978055E-01
   7143.67  6.3819872E-01
   7144.00  6.3638379E-01
   7144.33  6.3430935E-01
   7144.67  6.3213106E-01
   7145.00  6.3002749E-01
   7145.33  6.2826477E-01
   7145.67  6.2698174E-01
   7146.00  6.2623624E-01
   7146.33  6.2600118E-01
   7146.67  6.2596437E-01
   7147.00  6.2579323E-01
   7147.33  6.2496263E-01
   7147.67  6.2312256E-01
   7148.00  6.2000929E-01
   7148.33  6.1531556E-01
   7148.67  6.0927540E-01
   7149.00  6.0204542E-01
   7149.33  5.9374657E-01
   7149.67  5.8475165E-01
   7150.00  5.7526550E-01
   7150.33  5.6545180E-01
   7150.67  5.5549830E-01
   7151.00  5.4549515E-01
   7151.33  5.3551678E-01
   7151.67  5.2560508E-01
   7152.00  5.1577522E-01
   7152.33  5.0603380E-01
   7152.67  4.9635283E-01
   7153.00  4.8670793E-01
   7153.33  4.7706266E-01
   7153.67  4.6737594E-01
   7154.00  4.5760989E-01
   7154.33  4.4771078E-01
   7154.67  4.3767434E-01
   7155.00  4.2750404E-01
   7155.33  4.1721491E-01
   7155.67  4.0687461E-01
   7156.00  3.9654760E-01
   7156.33  3.8633239E-01
   7156.67  3.7630374E-01
   7157.00  3.6652740E-01
   7157.33  3.5709474E-01
   7157.67  3.4799107E-01
   7158.00  3.3921420E-01
   7158.33  3.3077897E-01
   7158.67  3.2261398E-01
   7159.00  3.1469431E-01
   7159.33  3.0703647E-01
   7159.67  2.9962545E-01
   7160.00  2.9249714E-01
   7160.33  2.8576057E-01
   7160.67  2.7945641E-01
   7161.00  2.7366315E-01
   7161.33  2.6854476E-01
   7161.67  2.6410770E-01
   7162.00  2.6041295E-01
   7162.33  2.5761433E-01
   7162.67  2.5564241E-01
   7163.00  2.5450903E-01
   7163.33  2.5431861E-01
   7163.67  2.5494680E-01
   7164.00  2.5636588E-01
   7164.33  2.5862414E-01
   7164.67  2.6157162E-01
   7165.00  2.6515209E-01
   7165.33  2.6936303E-01
   7165.67  2.7406523E-01
   7166.00  2.7920660E-01
   7166.33  2.8478275E-01
   7166.67  2.9070001E-01
   7167.00  2.9692384E-01
   7167.33  3.0345134E-01
   7167.67  3.1021441E-01
   7168.00  3.1718448E-01
   7168.33  3.2435092E-01
   7168.67  3.3165925E-01
   7169.00  3.3908069E-01
   7169.33  3.4659048E-01
   7169.67  3.5414075E-01
   7170.00  3.6169317E-01
   7170.33  3.6918524E-01
   7170.67  3.7654685E-01
   7171.00  3.8368251E-01
   7171.33  3.9036506E-01
   7171.67  3.9633692E-01
   7172.00  4.0120695E-01
