    FDMNES
    energy     <xanes>
   7097.00  5.7837841E-03
   7097.33  5.9430950E-03
   7097.67  6.1106799E-03
   7098.00  6.2871551E-03
   7098.33  6.4745298E-03
   7098.67  6.6724879E-03
   7099.00  6.8818845E-03
   7099.33  7.1054059E-03
   7099.67  7.3427460E-03
   7100.00  7.5951234E-03
   7100.33  7.8662245E-03
   7100.67  8.1558056E-03
   7101.00  8.4656567E-03
   7101.33  8.8009951E-03
   7101.67  9.1617517E-03
   7102.00  9.5506518E-03
   7102.33  9.9753541E-03
   7102.67  1.0436208E-02
   7103.00  1.0937544E-02
   7103.33  1.1491110E-02
   7103.67  1.2098218E-02
   7104.00  1.2766121E-02
   7104.33  1.3513835E-02
   7104.67  1.4344918E-02
   7105.00  1.5272323E-02
   7105.33  1.6328992E-02
   7105.67  1.7523977E-02
   7106.00  1.8882398E-02
   7106.33  2.0466562E-02
   7106.67  2.2300115E-02
   7107.00  2.4437406E-02
   7107.33  2.7011130E-02
   7107.67  3.0089041E-02
   7108.00  3.3808127E-02
   7108.33  3.8503405E-02
   7108.67  4.4405219E-02
   7109.00  5.1948271E-02
   7109.33  6.2235967E-02
   7109.67  7.6326000E-02
   7110.00  9.6227220E-02
   7110.33  1.2748581E-01
   7110.67  1.7649978E-01
   7111.00  2.5154843E-01
   7111.33  3.6785263E-01
   7111.67  5.4259192E-01
   7112.00  7.7921430E-01
   7112.33  9.7193745E-01
   7112.67  9.8036959E-01
   7113.00  8.2396058E-01
   7113.33  6.3531947E-01
   7113.67  4.8309285E-01
   7114.00  3.7125068E-01
   7114.33  2.9581585E-01
   7114.67  2.4339193E-01
   7115.00  2.0747473E-01
   7115.33  1.8404857E-01
   7115.67  1.6839663E-01
   7116.00  1.5891133E-01
   7116.33  1.5502420E-01
   7116.67  1.5504815E-01
   7117.00  1.5775479E-01
   7117.33  1.6132113E-01
   7117.67  1.6388991E-01
   7118.00  1.6470451E-01
   7118.33  1.6375607E-01
   7118.67  1.6213015E-01
   7119.00  1.6036097E-01
   7119.33  1.5797638E-01
   7119.67  1.5410617E-01
   7120.00  1.4880610E-01
   7120.33  1.4351830E-01
   7120.67  1.3980461E-01
   7121.00  1.3842017E-01
   7121.33  1.3998624E-01
   7121.67  1.4400878E-01
   7122.00  1.5015101E-01
   7122.33  1.5834242E-01
   7122.67  1.6829775E-01
   7123.00  1.8012847E-01
   7123.33  1.9430079E-01
   7123.67  2.1056197E-01
   7124.00  2.2846824E-01
   7124.33  2.4680693E-01
   7124.67  2.6350542E-01
   7125.00  2.7655543E-01
   7125.33  2.8376674E-01
   7125.67  2.8667831E-01
   7126.00  2.8794499E-01
   7126.33  2.9073778E-01
   7126.67  2.9647251E-01
   7127.00  3.0577920E-01
   7127.33  3.1965026E-01
   7127.67  3.3776311E-01
   7128.00  3.5981236E-01
   7128.33  3.8526612E-01
   7128.67  4.1221702E-01
   7129.00  4.3874271E-01
   7129.33  4.6216841E-01
   7129.67  4.8156170E-01
   7130.00  4.9708950E-01
   7130.33  5.0975144E-01
   7130.67  5.2185731E-01
   7131.00  5.3531679E-01
   7131.33  5.5260405E-01
   7131.67  5.7471365E-01
   7132.00  6.0206778E-01
   7132.33  6.3450527E-01
   7132.67  6.6922063E-01
   7133.00  7.0325582E-01
   7133.33  7.3245020E-01
   7133.67  7.5474912E-01
   7134.00  7.6897029E-01
   7134.33  7.7349704E-01
   7134.67  7.6946940E-01
   7135.00  7.5713175E-01
   7135.33  7.3585629E-01
   7135.67  7.0741651E-01
   7136.00  6.7307983E-01
   7136.33  6.3457909E-01
   7136.67  5.9508566E-01
   7137.00  5.5697582E-01
   7137.33  5.2305085E-01
   7137.67  4.9437891E-01
   7138.00  4.7158506E-01
   7138.33  4.5548563E-01
   7138.67  4.4492104E-01
   7139.00  4.3929971E-01
   7139.33  4.3831743E-01
   7139.67  4.4061174E-01
   7140.00  4.4549646E-01
   7140.33  4.5250128E-01
   7140.67  4.6081908E-01
   7141.00  4.7007912E-01
   7141.33  4.8006571E-01
   7141.67  4.9052687E-01
   7142.00  5.0139289E-01
   7142.33  5.1269594E-01
   7142.67  5.2442067E-01
   7143.00  5.3662497E-01
   7143.33  5.4947388E-01
   7143.67  5.6300051E-01
   7144.00  5.7728497E-01
   7144.33  5.9248683E-01
   7144.67  6.0849721E-01
   7145.00  6.2524276E-01
   7145.33  6.4262499E-01
   7145.67  6.6031988E-01
   7146.00  6.7805466E-01
   7146.33  6.9542744E-01
   7146.67  7.1209407E-01
   7147.00  7.2773313E-01
   7147.33  7.4185642E-01
   7147.67  7.5440135E-01
   7148.00  7.6524708E-01
   7148.33  7.7413195E-01
   7148.67  7.8133679E-01
   7149.00  7.8698604E-01
   7149.33  7.9111118E-01
   7149.67  7.9410195E-01
   7150.00  7.9612154E-01
   7150.33  7.9720673E-01
   7150.67  7.9754183E-01
   7151.00  7.9714789E-01
   7151.33  7.9590983E-01
   7151.67  7.9386875E-01
   7152.00  7.9097103E-01
   7152.33  7.8704993E-01
   7152.67  7.8219253E-01
   7153.00  7.7640522E-01
   7153.33  7.6962083E-01
   7153.67  7.6202935E-01
   7154.00  7.5372005E-01
   7154.33  7.4473425E-01
   7154.67  7.3526563E-01
   7155.00  7.2540971E-01
   7155.33  7.1523002E-01
   7155.67  7.0484864E-01
   7156.00  6.9432682E-01
   7156.33  6.8371006E-01
   7156.67  6.7305327E-01
   7157.00  6.6239024E-01
   7157.33  6.5176240E-01
   7157.67  6.4120356E-01
   7158.00  6.3074753E-01
   7158.33  6.2045387E-01
   7158.67  6.1034817E-01
   7159.00  6.0046788E-01
   7159.33  5.9088530E-01
   7159.67  5.8160086E-01
   7160.00  5.7263867E-01
   7160.33  5.6405856E-01
   7160.67  5.5582192E-01
   7161.00  5.4791943E-01
   7161.33  5.4035915E-01
   7161.67  5.3305676E-01
   7162.00  5.2596851E-01
   7162.33  5.1906763E-01
   7162.67  5.1228970E-01
   7163.00  5.0560116E-01
   7163.33  4.9897586E-01
   7163.67  4.9238190E-01
   7164.00  4.8580503E-01
   7164.33  4.7923679E-01
   7164.67  4.7267439E-01
   7165.00  4.6612191E-01
   7165.33  4.5959194E-01
   7165.67  4.5309841E-01
   7166.00  4.4666032E-01
   7166.33  4.4031357E-01
   7166.67  4.3407789E-01
   7167.00  4.2798152E-01
   7167.33  4.2207110E-01
   7167.67  4.1633695E-01
   7168.00  4.1078806E-01
   7168.33  4.0546632E-01
   7168.67  4.0036139E-01
   7169.00  3.9548161E-01
   7169.33  3.9085987E-01
   7169.67  3.8646836E-01
   7170.00  3.8230764E-01
   7170.33  3.7840894E-01
   7170.67  3.7475027E-01
   7171.00  3.7134755E-01
   7171.33  3.6827953E-01
   7171.67  3.6559541E-01
   7172.00  3.6341077E-01
