    FDMNES
    energy     <xanes>
   7097.00  4.7514803E-03
   7097.33  4.8551359E-03
   7097.67  4.9632372E-03
   7098.00  5.0760805E-03
   7098.33  5.1946881E-03
   7098.67  5.3188461E-03
   7099.00  5.4489608E-03
   7099.33  5.5863719E-03
   7099.67  5.7308659E-03
   7100.00  5.8830176E-03
   7100.33  6.0446357E-03
   7100.67  6.2155336E-03
   7101.00  6.3965546E-03
   7101.33  6.5902299E-03
   7101.67  6.7964591E-03
   7102.00  7.0165341E-03
   7102.33  7.2541561E-03
   7102.67  7.5094458E-03
   7103.00  7.7844889E-03
   7103.33  8.0849996E-03
   7103.67  8.4116356E-03
   7104.00  8.7679901E-03
   7104.33  9.1635088E-03
   7104.67  9.6001776E-03
   7105.00  1.0084716E-02
   7105.33  1.0634171E-02
   7105.67  1.1254031E-02
   7106.00  1.1958274E-02
   7106.33  1.2781472E-02
   7106.67  1.3739411E-02
   7107.00  1.4865706E-02
   7107.33  1.6242745E-02
   7107.67  1.7922270E-02
   7108.00  2.0003758E-02
   7108.33  2.2736111E-02
   7108.67  2.6335064E-02
   7109.00  3.1205385E-02
   7109.33  3.8439615E-02
   7109.67  4.9386757E-02
   7110.00  6.6720983E-02
   7110.33  9.8190655E-02
   7110.67  1.5092674E-01
   7111.00  2.1918721E-01
   7111.33  2.5871240E-01
   7111.67  2.5733987E-01
   7112.00  2.3477493E-01
   7112.33  2.0463797E-01
   7112.67  1.7706785E-01
   7113.00  1.5340778E-01
   7113.33  1.3374312E-01
   7113.67  1.1872773E-01
   7114.00  1.0513602E-01
   7114.33  9.3011216E-02
   7114.67  8.3006615E-02
   7115.00  7.4182873E-02
   7115.33  6.7991384E-02
   7115.67  6.4946246E-02
   7116.00  6.4793928E-02
   7116.33  6.7578411E-02
   7116.67  7.2797337E-02
   7117.00  8.0057262E-02
   7117.33  8.8862553E-02
   7117.67  9.8894537E-02
   7118.00  1.1073593E-01
   7118.33  1.2600900E-01
   7118.67  1.4514162E-01
   7119.00  1.6738085E-01
   7119.33  1.8934292E-01
   7119.67  2.0627807E-01
   7120.00  2.1584998E-01
   7120.33  2.1886186E-01
   7120.67  2.2016795E-01
   7121.00  2.2323811E-01
   7121.33  2.3155890E-01
   7121.67  2.4616415E-01
   7122.00  2.6754274E-01
   7122.33  2.9570671E-01
   7122.67  3.2720965E-01
   7123.00  3.5875535E-01
   7123.33  3.8695516E-01
   7123.67  4.0777872E-01
   7124.00  4.1645261E-01
   7124.33  4.1808625E-01
   7124.67  4.2549564E-01
   7125.00  4.4249198E-01
   7125.33  4.6848298E-01
   7125.67  4.9840274E-01
   7126.00  5.2862210E-01
   7126.33  5.5695079E-01
   7126.67  5.8415639E-01
   7127.00  6.1135020E-01
   7127.33  6.3979571E-01
   7127.67  6.6976489E-01
   7128.00  7.0050849E-01
   7128.33  7.2914696E-01
   7128.67  7.5174052E-01
   7129.00  7.6491179E-01
   7129.33  7.6592623E-01
   7129.67  7.5816539E-01
   7130.00  7.4476383E-01
   7130.33  7.2860954E-01
   7130.67  7.1234096E-01
   7131.00  6.9787926E-01
   7131.33  6.8798524E-01
   7131.67  6.8374327E-01
   7132.00  6.8549642E-01
   7132.33  6.9294699E-01
   7132.67  7.0335930E-01
   7133.00  7.1427877E-01
   7133.33  7.2227663E-01
   7133.67  7.2531669E-01
   7134.00  7.2280355E-01
   7134.33  7.1510932E-01
   7134.67  7.0438477E-01
   7135.00  6.9173624E-01
   7135.33  6.7794686E-01
   7135.67  6.6384559E-01
   7136.00  6.4996505E-01
   7136.33  6.3700592E-01
   7136.67  6.2546609E-01
   7137.00  6.1582674E-01
   7137.33  6.0879606E-01
   7137.67  6.0426498E-01
   7138.00  6.0218836E-01
   7138.33  6.0255882E-01
   7138.67  6.0460188E-01
   7139.00  6.0775589E-01
   7139.33  6.1131785E-01
   7139.67  6.1447250E-01
   7140.00  6.1662317E-01
   7140.33  6.1705471E-01
   7140.67  6.1567989E-01
   7141.00  6.1245576E-01
   7141.33  6.0727657E-01
   7141.67  6.0054799E-01
   7142.00  5.9243221E-01
   7142.33  5.8293088E-01
   7142.67  5.7232249E-01
   7143.00  5.6071217E-01
   7143.33  5.4814640E-01
   7143.67  5.3493915E-01
   7144.00  5.2131890E-01
   7144.33  5.0758792E-01
   7144.67  4.9410406E-01
   7145.00  4.8117022E-01
   7145.33  4.6923706E-01
   7145.67  4.5849901E-01
   7146.00  4.4917496E-01
   7146.33  4.4164809E-01
   7146.67  4.3580723E-01
   7147.00  4.3164444E-01
   7147.33  4.2924863E-01
   7147.67  4.2822018E-01
   7148.00  4.2832154E-01
   7148.33  4.2933337E-01
   7148.67  4.3084519E-01
   7149.00  4.3262625E-01
   7149.33  4.3444416E-01
   7149.67  4.3609374E-01
   7150.00  4.3743275E-01
   7150.33  4.3827072E-01
   7150.67  4.3855224E-01
   7151.00  4.3819756E-01
   7151.33  4.3704941E-01
   7151.67  4.3515308E-01
   7152.00  4.3249703E-01
   7152.33  4.2901366E-01
   7152.67  4.2485735E-01
   7153.00  4.2010513E-01
   7153.33  4.1480558E-01
   7153.67  4.0913981E-01
   7154.00  4.0321197E-01
   7154.33  3.9711830E-01
   7154.67  3.9097963E-01
   7155.00  3.8487502E-01
   7155.33  3.7890432E-01
   7155.67  3.7313020E-01
   7156.00  3.6761179E-01
   7156.33  3.6244636E-01
   7156.67  3.5763707E-01
   7157.00  3.5320509E-01
   7157.33  3.4920428E-01
   7157.67  3.4557536E-01
   7158.00  3.4229969E-01
   7158.33  3.3939200E-01
   7158.67  3.3678651E-01
   7159.00  3.3446724E-01
   7159.33  3.3245836E-01
   7159.67  3.3072392E-01
   7160.00  3.2926958E-01
   7160.33  3.2814682E-01
   7160.67  3.2733979E-01
   7161.00  3.2686717E-01
   7161.33  3.2679832E-01
   7161.67  3.2712048E-01
   7162.00  3.2786448E-01
   7162.33  3.2912082E-01
   7162.67  3.3086271E-01
   7163.00  3.3311295E-01
   7163.33  3.3595884E-01
   7163.67  3.3934686E-01
   7164.00  3.4327957E-01
   7164.33  3.4781767E-01
   7164.67  3.5287804E-01
   7165.00  3.5844055E-01
   7165.33  3.6453356E-01
   7165.67  3.7106048E-01
   7166.00  3.7798490E-01
   7166.33  3.8530548E-01
   7166.67  3.9293281E-01
   7167.00  4.0082796E-01
   7167.33  4.0897274E-01
   7167.67  4.1729176E-01
   7168.00  4.2574130E-01
   7168.33  4.3427491E-01
   7168.67  4.4282031E-01
   7169.00  4.5131678E-01
   7169.33  4.5967078E-01
   7169.67  4.6781432E-01
   7170.00  4.7567172E-01
   7170.33  4.8310560E-01
   7170.67  4.9007130E-01
   7171.00  4.9648629E-01
   7171.33  5.0215471E-01
   7171.67  5.0700151E-01
   7172.00  5.1084924E-01
