    FDMNES
    energy     <xanes>
   7097.00  4.0146945E-03
   7097.33  4.0925049E-03
   7097.67  4.1732451E-03
   7098.00  4.2570929E-03
   7098.33  4.3446939E-03
   7098.67  4.4358849E-03
   7099.00  4.5309069E-03
   7099.33  4.6305897E-03
   7099.67  4.7347663E-03
   7100.00  4.8437728E-03
   7100.33  4.9587087E-03
   7100.67  5.0794165E-03
   7101.00  5.2063832E-03
   7101.33  5.3411187E-03
   7101.67  5.4835070E-03
   7102.00  5.6342846E-03
   7102.33  5.7956188E-03
   7102.67  5.9675069E-03
   7103.00  6.1511233E-03
   7103.33  6.3497535E-03
   7103.67  6.5636762E-03
   7104.00  6.7948891E-03
   7104.33  7.0487255E-03
   7104.67  7.3261629E-03
   7105.00  7.6308854E-03
   7105.33  7.9723395E-03
   7105.67  8.3533321E-03
   7106.00  8.7814028E-03
   7106.33  9.2753096E-03
   7106.67  9.8431613E-03
   7107.00  1.0502700E-02
   7107.33  1.1297474E-02
   7107.67  1.2253654E-02
   7108.00  1.3422155E-02
   7108.33  1.4929861E-02
   7108.67  1.6882271E-02
   7109.00  1.9477299E-02
   7109.33  2.3242910E-02
   7109.67  2.8804941E-02
   7110.00  3.7395298E-02
   7110.33  5.2587851E-02
   7110.67  7.8151611E-02
   7111.00  1.1423287E-01
   7111.33  1.4550933E-01
   7111.67  1.5865195E-01
   7112.00  1.5701919E-01
   7112.33  1.4551869E-01
   7112.67  1.2721523E-01
   7113.00  1.0442160E-01
   7113.33  8.3421678E-02
   7113.67  6.8078773E-02
   7114.00  5.8461005E-02
   7114.33  5.2686082E-02
   7114.67  4.7471086E-02
   7115.00  4.2660378E-02
   7115.33  3.9595241E-02
   7115.67  3.8144834E-02
   7116.00  3.7929455E-02
   7116.33  3.8640833E-02
   7116.67  3.9843976E-02
   7117.00  4.1358100E-02
   7117.33  4.3234208E-02
   7117.67  4.5629842E-02
   7118.00  4.8716418E-02
   7118.33  5.2681845E-02
   7118.67  5.7385384E-02
   7119.00  6.2667510E-02
   7119.33  6.8149713E-02
   7119.67  7.3167396E-02
   7120.00  7.7182815E-02
   7120.33  7.9889462E-02
   7120.67  8.1938739E-02
   7121.00  8.4079608E-02
   7121.33  8.7303698E-02
   7121.67  9.2171145E-02
   7122.00  9.9103541E-02
   7122.33  1.0882034E-01
   7122.67  1.2150930E-01
   7123.00  1.3777256E-01
   7123.33  1.5905809E-01
   7123.67  1.8567210E-01
   7124.00  2.1778796E-01
   7124.33  2.5387596E-01
   7124.67  2.8775828E-01
   7125.00  3.1304067E-01
   7125.33  3.2563321E-01
   7125.67  3.3204467E-01
   7126.00  3.3802936E-01
   7126.33  3.4693348E-01
   7126.67  3.5864985E-01
   7127.00  3.7358631E-01
   7127.33  3.9422408E-01
   7127.67  4.2249368E-01
   7128.00  4.6034398E-01
   7128.33  5.1044679E-01
   7128.67  5.7118103E-01
   7129.00  6.4063046E-01
   7129.33  7.1474258E-01
   7129.67  7.8655555E-01
   7130.00  8.5057860E-01
   7130.33  9.0121016E-01
   7130.67  9.3923675E-01
   7131.00  9.6609134E-01
   7131.33  9.8295654E-01
   7131.67  9.9256647E-01
   7132.00  9.9556888E-01
   7132.33  9.9168991E-01
   7132.67  9.8264737E-01
   7133.00  9.6990096E-01
   7133.33  9.5550762E-01
   7133.67  9.4182547E-01
   7134.00  9.2995064E-01
   7134.33  9.1986749E-01
   7134.67  9.1021023E-01
   7135.00  9.0028548E-01
   7135.33  8.8997690E-01
   7135.67  8.7947095E-01
   7136.00  8.6869577E-01
   7136.33  8.5726443E-01
   7136.67  8.4489121E-01
   7137.00  8.3136767E-01
   7137.33  8.1646418E-01
   7137.67  8.0041150E-01
   7138.00  7.8336042E-01
   7138.33  7.6544552E-01
   7138.67  7.4702451E-01
   7139.00  7.2833451E-01
   7139.33  7.0965928E-01
   7139.67  6.9128076E-01
   7140.00  6.7343489E-01
   7140.33  6.5646129E-01
   7140.67  6.4046818E-01
   7141.00  6.2561076E-01
   7141.33  6.1220136E-01
   7141.67  6.0018899E-01
   7142.00  5.8963036E-01
   7142.33  5.8073971E-01
   7142.67  5.7331217E-01
   7143.00  5.6727302E-01
   7143.33  5.6264309E-01
   7143.67  5.5910236E-01
   7144.00  5.5650200E-01
   7144.33  5.5476538E-01
   7144.67  5.5362947E-01
   7145.00  5.5295351E-01
   7145.33  5.5260652E-01
   7145.67  5.5237628E-01
   7146.00  5.5210674E-01
   7146.33  5.5159111E-01
   7146.67  5.5069501E-01
   7147.00  5.4930723E-01
   7147.33  5.4727733E-01
   7147.67  5.4466246E-01
   7148.00  5.4148890E-01
   7148.33  5.3774688E-01
   7148.67  5.3356322E-01
   7149.00  5.2899317E-01
   7149.33  5.2405425E-01
   7149.67  5.1883528E-01
   7150.00  5.1336823E-01
   7150.33  5.0765451E-01
   7150.67  5.0174140E-01
   7151.00  4.9564143E-01
   7151.33  4.8934567E-01
   7151.67  4.8288877E-01
   7152.00  4.7628000E-01
   7152.33  4.6951500E-01
   7152.67  4.6263331E-01
   7153.00  4.5565574E-01
   7153.33  4.4859363E-01
   7153.67  4.4147127E-01
   7154.00  4.3429433E-01
   7154.33  4.2705082E-01
   7154.67  4.1973154E-01
   7155.00  4.1231501E-01
   7155.33  4.0475649E-01
   7155.67  3.9704516E-01
   7156.00  3.8916373E-01
   7156.33  3.8107823E-01
   7156.67  3.7281241E-01
   7157.00  3.6437747E-01
   7157.33  3.5577771E-01
   7157.67  3.4706232E-01
   7158.00  3.3826384E-01
   7158.33  3.2942295E-01
   7158.67  3.2060081E-01
   7159.00  3.1185784E-01
   7159.33  3.0330207E-01
   7159.67  2.9502127E-01
   7160.00  2.8712748E-01
   7160.33  2.7983825E-01
   7160.67  2.7325233E-01
   7161.00  2.6751688E-01
   7161.33  2.6292192E-01
   7161.67  2.5947750E-01
   7162.00  2.5726586E-01
   7162.33  2.5649057E-01
   7162.67  2.5698159E-01
   7163.00  2.5868736E-01
   7163.33  2.6165282E-01
   7163.67  2.6560848E-01
   7164.00  2.7041726E-01
   7164.33  2.7598891E-01
   7164.67  2.8205869E-01
   7165.00  2.8847694E-01
   7165.33  2.9510881E-01
   7165.67  3.0179684E-01
   7166.00  3.0845062E-01
   7166.33  3.1498312E-01
   7166.67  3.2136648E-01
   7167.00  3.2758556E-01
   7167.33  3.3362328E-01
   7167.67  3.3952139E-01
   7168.00  3.4530613E-01
   7168.33  3.5100047E-01
   7168.67  3.5664500E-01
   7169.00  3.6226186E-01
   7169.33  3.6786929E-01
   7169.67  3.7347789E-01
   7170.00  3.7908583E-01
   7170.33  3.8467390E-01
   7170.67  3.9020426E-01
   7171.00  3.9561347E-01
   7171.33  4.0073590E-01
   7171.67  4.0535583E-01
   7172.00  4.0915169E-01
