    FDMNES
    energy     <xanes>
   7097.00  4.0048175E-03
   7097.33  4.0814598E-03
   7097.67  4.1609576E-03
   7098.00  4.2434835E-03
   7098.33  4.3296651E-03
   7098.67  4.4193423E-03
   7099.00  4.5127486E-03
   7099.33  4.6106906E-03
   7099.67  4.7130041E-03
   7100.00  4.8200153E-03
   7100.33  4.9327921E-03
   7100.67  5.0511802E-03
   7101.00  5.1756522E-03
   7101.33  5.3076746E-03
   7101.67  5.4471344E-03
   7102.00  5.5947470E-03
   7102.33  5.7526190E-03
   7102.67  5.9207491E-03
   7103.00  6.1002806E-03
   7103.33  6.2944116E-03
   7103.67  6.5034188E-03
   7104.00  6.7292526E-03
   7104.33  6.9771170E-03
   7104.67  7.2479812E-03
   7105.00  7.5454563E-03
   7105.33  7.8787938E-03
   7105.67  8.2507833E-03
   7106.00  8.6688531E-03
   7106.33  9.1514728E-03
   7106.67  9.7067349E-03
   7107.00  1.0352241E-02
   7107.33  1.1131192E-02
   7107.67  1.2069877E-02
   7108.00  1.3219274E-02
   7108.33  1.4706570E-02
   7108.67  1.6638757E-02
   7109.00  1.9216485E-02
   7109.33  2.2976555E-02
   7109.67  2.8562073E-02
   7110.00  3.7241053E-02
   7110.33  5.2694775E-02
   7110.67  7.8713366E-02
   7111.00  1.1471894E-01
   7111.33  1.4351501E-01
   7111.67  1.5609099E-01
   7112.00  1.5332149E-01
   7112.33  1.3540286E-01
   7112.67  1.1177406E-01
   7113.00  8.8614873E-02
   7113.33  7.1058971E-02
   7113.67  5.9532567E-02
   7114.00  5.3083892E-02
   7114.33  4.9189701E-02
   7114.67  4.4918044E-02
   7115.00  4.0797158E-02
   7115.33  3.8280659E-02
   7115.67  3.7196268E-02
   7116.00  3.7181983E-02
   7116.33  3.7954925E-02
   7116.67  3.9167044E-02
   7117.00  4.0720909E-02
   7117.33  4.2735707E-02
   7117.67  4.5327769E-02
   7118.00  4.8604244E-02
   7118.33  5.2668036E-02
   7118.67  5.7314193E-02
   7119.00  6.2317333E-02
   7119.33  6.7241964E-02
   7119.67  7.1604338E-02
   7120.00  7.5155782E-02
   7120.33  7.7938105E-02
   7120.67  8.0526401E-02
   7121.00  8.3440331E-02
   7121.33  8.7352050E-02
   7121.67  9.2613140E-02
   7122.00  9.9556776E-02
   7122.33  1.0884488E-01
   7122.67  1.2075776E-01
   7123.00  1.3592740E-01
   7123.33  1.5576455E-01
   7123.67  1.8053767E-01
   7124.00  2.1019366E-01
   7124.33  2.4264943E-01
   7124.67  2.7184178E-01
   7125.00  2.9230284E-01
   7125.33  3.0162065E-01
   7125.67  3.0639651E-01
   7126.00  3.1167946E-01
   7126.33  3.2023730E-01
   7126.67  3.3187193E-01
   7127.00  3.4706054E-01
   7127.33  3.6821710E-01
   7127.67  3.9700205E-01
   7128.00  4.3512469E-01
   7128.33  4.8505151E-01
   7128.67  5.4549535E-01
   7129.00  6.1528350E-01
   7129.33  6.9184023E-01
   7129.67  7.6898757E-01
   7130.00  8.4136871E-01
   7130.33  9.0278501E-01
   7130.67  9.5232788E-01
   7131.00  9.9026414E-01
   7131.33  1.0165089E+00
   7131.67  1.0332167E+00
   7132.00  1.0406631E+00
   7132.33  1.0381959E+00
   7132.67  1.0281828E+00
   7133.00  1.0125147E+00
   7133.33  9.9364663E-01
   7133.67  9.7460449E-01
   7134.00  9.5669649E-01
   7134.33  9.3985732E-01
   7134.67  9.2289427E-01
   7135.00  9.0534088E-01
   7135.33  8.8743568E-01
   7135.67  8.6977502E-01
   7136.00  8.5268060E-01
   7136.33  8.3636256E-01
   7136.67  8.2069807E-01
   7137.00  8.0560875E-01
   7137.33  7.9104362E-01
   7137.67  7.7681523E-01
   7138.00  7.6279091E-01
   7138.33  7.4879315E-01
   7138.67  7.3462858E-01
   7139.00  7.2015174E-01
   7139.33  7.0520089E-01
   7139.67  6.8982853E-01
   7140.00  6.7414532E-01
   7140.33  6.5839231E-01
   7140.67  6.4291446E-01
   7141.00  6.2804374E-01
   7141.33  6.1429593E-01
   7141.67  6.0188595E-01
   7142.00  5.9102911E-01
   7142.33  5.8207449E-01
   7142.67  5.7482668E-01
   7143.00  5.6922241E-01
   7143.33  5.6529168E-01
   7143.67  5.6260781E-01
   7144.00  5.6092540E-01
   7144.33  5.6003992E-01
   7144.67  5.5958971E-01
   7145.00  5.5937080E-01
   7145.33  5.5919515E-01
   7145.67  5.5891614E-01
   7146.00  5.5845052E-01
   7146.33  5.5770814E-01
   7146.67  5.5669126E-01
   7147.00  5.5539177E-01
   7147.33  5.5377564E-01
   7147.67  5.5189020E-01
   7148.00  5.4975605E-01
   7148.33  5.4736911E-01
   7148.67  5.4477003E-01
   7149.00  5.4195787E-01
   7149.33  5.3889026E-01
   7149.67  5.3556963E-01
   7150.00  5.3196676E-01
   7150.33  5.2800063E-01
   7150.67  5.2366568E-01
   7151.00  5.1892397E-01
   7151.33  5.1368314E-01
   7151.67  5.0797105E-01
   7152.00  5.0177482E-01
   7152.33  4.9504383E-01
   7152.67  4.8787050E-01
   7153.00  4.8029790E-01
   7153.33  4.7234544E-01
   7153.67  4.6412358E-01
   7154.00  4.5569212E-01
   7154.33  4.4709880E-01
   7154.67  4.3841944E-01
   7155.00  4.2969614E-01
   7155.33  4.2096809E-01
   7155.67  4.1226746E-01
   7156.00  4.0361666E-01
   7156.33  3.9504235E-01
   7156.67  3.8654332E-01
   7157.00  3.7811663E-01
   7157.33  3.6975440E-01
   7157.67  3.6142375E-01
   7158.00  3.5309786E-01
   7158.33  3.4474341E-01
   7158.67  3.3634454E-01
   7159.00  3.2790207E-01
   7159.33  3.1944280E-01
   7159.67  3.1103387E-01
   7160.00  3.0276408E-01
   7160.33  2.9480865E-01
   7160.67  2.8730641E-01
   7161.00  2.8042465E-01
   7161.33  2.7446697E-01
   7161.67  2.6951823E-01
   7162.00  2.6570927E-01
   7162.33  2.6330029E-01
   7162.67  2.6218379E-01
   7163.00  2.6235736E-01
   7163.33  2.6392782E-01
   7163.67  2.6664415E-01
   7164.00  2.7039387E-01
   7164.33  2.7513202E-01
   7164.67  2.8057445E-01
   7165.00  2.8656345E-01
   7165.33  2.9297727E-01
   7165.67  2.9962604E-01
   7166.00  3.0640979E-01
   7166.33  3.1324489E-01
   7166.67  3.2006582E-01
   7167.00  3.2684292E-01
   7167.33  3.3355333E-01
   7167.67  3.4020246E-01
   7168.00  3.4679442E-01
   7168.33  3.5333099E-01
   7168.67  3.5982554E-01
   7169.00  3.6628285E-01
   7169.33  3.7270232E-01
   7169.67  3.7908598E-01
   7170.00  3.8542449E-01
   7170.33  3.9168580E-01
   7170.67  3.9783325E-01
   7171.00  4.0379890E-01
   7171.33  4.0940185E-01
   7171.67  4.1442440E-01
   7172.00  4.1853380E-01
