    FDMNES
    energy     <xanes>
   7097.00  4.9153070E-03
   7097.33  5.0317585E-03
   7097.67  5.1535795E-03
   7098.00  5.2811445E-03
   7098.33  5.4157160E-03
   7098.67  5.5570566E-03
   7099.00  5.7056825E-03
   7099.33  5.8632608E-03
   7099.67  6.0295563E-03
   7100.00  6.2053003E-03
   7100.33  6.3927567E-03
   7100.67  6.5917236E-03
   7101.00  6.8032716E-03
   7101.33  7.0305778E-03
   7101.67  7.2735423E-03
   7102.00  7.5337944E-03
   7102.33  7.8159712E-03
   7102.67  8.1202270E-03
   7103.00  8.4491581E-03
   7103.33  8.8098642E-03
   7103.67  9.2030980E-03
   7104.00  9.6332376E-03
   7104.33  1.0111813E-02
   7104.67  1.0641003E-02
   7105.00  1.1228729E-02
   7105.33  1.1895164E-02
   7105.67  1.2646067E-02
   7106.00  1.3497121E-02
   7106.33  1.4487235E-02
   7106.67  1.5632011E-02
   7107.00  1.6966506E-02
   7107.33  1.8576431E-02
   7107.67  2.0508643E-02
   7108.00  2.2856201E-02
   7108.33  2.5848312E-02
   7108.67  2.9656182E-02
   7109.00  3.4601578E-02
   7109.33  4.1518980E-02
   7109.67  5.1293160E-02
   7110.00  6.5632636E-02
   7110.33  8.9371978E-02
   7110.67  1.2789067E-01
   7111.00  1.8543119E-01
   7111.33  2.6136219E-01
   7111.67  3.4934608E-01
   7112.00  4.4222283E-01
   7112.33  4.9220290E-01
   7112.67  4.7375955E-01
   7113.00  3.9124974E-01
   7113.33  2.9154537E-01
   7113.67  2.2227618E-01
   7114.00  1.7861950E-01
   7114.33  1.4894265E-01
   7114.67  1.2603705E-01
   7115.00  1.0826333E-01
   7115.33  9.4984452E-02
   7115.67  8.5571954E-02
   7116.00  7.9938925E-02
   7116.33  7.7780720E-02
   7116.67  7.7296917E-02
   7117.00  7.6828810E-02
   7117.33  7.6295306E-02
   7117.67  7.7129469E-02
   7118.00  7.9814676E-02
   7118.33  8.4385531E-02
   7118.67  9.0034740E-02
   7119.00  9.6291924E-02
   7119.33  1.0351280E-01
   7119.67  1.1206041E-01
   7120.00  1.2185158E-01
   7120.33  1.3282593E-01
   7120.67  1.4517049E-01
   7121.00  1.5926057E-01
   7121.33  1.7543831E-01
   7121.67  1.9338270E-01
   7122.00  2.1289144E-01
   7122.33  2.3353447E-01
   7122.67  2.5429357E-01
   7123.00  2.7440731E-01
   7123.33  2.9336465E-01
   7123.67  3.1158343E-01
   7124.00  3.2930676E-01
   7124.33  3.4609037E-01
   7124.67  3.6225174E-01
   7125.00  3.7868849E-01
   7125.33  3.9557484E-01
   7125.67  4.1217658E-01
   7126.00  4.2823172E-01
   7126.33  4.4397978E-01
   7126.67  4.5978043E-01
   7127.00  4.7574039E-01
   7127.33  4.9185629E-01
   7127.67  5.0793851E-01
   7128.00  5.2395081E-01
   7128.33  5.4038491E-01
   7128.67  5.5770752E-01
   7129.00  5.7587065E-01
   7129.33  5.9408925E-01
   7129.67  6.1117397E-01
   7130.00  6.2613894E-01
   7130.33  6.3780263E-01
   7130.67  6.4633164E-01
   7131.00  6.5213119E-01
   7131.33  6.5593029E-01
   7131.67  6.5905044E-01
   7132.00  6.6245867E-01
   7132.33  6.6765051E-01
   7132.67  6.7557049E-01
   7133.00  6.8651401E-01
   7133.33  7.0027426E-01
   7133.67  7.1561785E-01
   7134.00  7.3177549E-01
   7134.33  7.4802729E-01
   7134.67  7.6383114E-01
   7135.00  7.7887644E-01
   7135.33  7.9278789E-01
   7135.67  8.0544381E-01
   7136.00  8.1651888E-01
   7136.33  8.2515161E-01
   7136.67  8.3085844E-01
   7137.00  8.3302230E-01
   7137.33  8.3071642E-01
   7137.67  8.2449442E-01
   7138.00  8.1480518E-01
   7138.33  8.0217215E-01
   7138.67  7.8791814E-01
   7139.00  7.7286155E-01
   7139.33  7.5776266E-01
   7139.67  7.4313930E-01
   7140.00  7.2929023E-01
   7140.33  7.1656817E-01
   7140.67  7.0494334E-01
   7141.00  6.9443886E-01
   7141.33  6.8519182E-01
   7141.67  6.7701228E-01
   7142.00  6.6982106E-01
   7142.33  6.6360058E-01
   7142.67  6.5809183E-01
   7143.00  6.5315310E-01
   7143.33  6.4866631E-01
   7143.67  6.4442398E-01
   7144.00  6.4031200E-01
   7144.33  6.3623825E-01
   7144.67  6.3215010E-01
   7145.00  6.2804552E-01
   7145.33  6.2396314E-01
   7145.67  6.1996279E-01
   7146.00  6.1610307E-01
   7146.33  6.1246676E-01
   7146.67  6.0906627E-01
   7147.00  6.0590852E-01
   7147.33  6.0299640E-01
   7147.67  6.0025120E-01
   7148.00  5.9761394E-01
   7148.33  5.9500860E-01
   7148.67  5.9234680E-01
   7149.00  5.8955631E-01
   7149.33  5.8653203E-01
   7149.67  5.8322952E-01
   7150.00  5.7959678E-01
   7150.33  5.7553469E-01
   7150.67  5.7104865E-01
   7151.00  5.6610860E-01
   7151.33  5.6062504E-01
   7151.67  5.5463813E-01
   7152.00  5.4813738E-01
   7152.33  5.4105217E-01
   7152.67  5.3345240E-01
   7153.00  5.2535380E-01
   7153.33  5.1673071E-01
   7153.67  5.0768990E-01
   7154.00  4.9828728E-01
   7154.33  4.8856960E-01
   7154.67  4.7866080E-01
   7155.00  4.6863848E-01
   7155.33  4.5858959E-01
   7155.67  4.4860251E-01
   7156.00  4.3874686E-01
   7156.33  4.2911590E-01
   7156.67  4.1973030E-01
   7157.00  4.1061788E-01
   7157.33  4.0184075E-01
   7157.67  3.9338387E-01
   7158.00  3.8526762E-01
   7158.33  3.7756175E-01
   7158.67  3.7024853E-01
   7159.00  3.6335782E-01
   7159.33  3.5698821E-01
   7159.67  3.5112625E-01
   7160.00  3.4580969E-01
   7160.33  3.4114782E-01
   7160.67  3.3709060E-01
   7161.00  3.3364471E-01
   7161.33  3.3087828E-01
   7161.67  3.2869403E-01
   7162.00  3.2706425E-01
   7162.33  3.2601417E-01
   7162.67  3.2543784E-01
   7163.00  3.2530017E-01
   7163.33  3.2561253E-01
   7163.67  3.2628951E-01
   7164.00  3.2730358E-01
   7164.33  3.2866453E-01
   7164.67  3.3030755E-01
   7165.00  3.3221116E-01
   7165.33  3.3438048E-01
   7165.67  3.3676253E-01
   7166.00  3.3933838E-01
   7166.33  3.4210916E-01
   7166.67  3.4503318E-01
   7167.00  3.4809304E-01
   7167.33  3.5128365E-01
   7167.67  3.5456894E-01
   7168.00  3.5792646E-01
   7168.33  3.6133795E-01
   7168.67  3.6477591E-01
   7169.00  3.6822111E-01
   7169.33  3.7164739E-01
   7169.67  3.7503105E-01
   7170.00  3.7834810E-01
   7170.33  3.8155566E-01
   7170.67  3.8463028E-01
   7171.00  3.8753418E-01
   7171.33  3.9017661E-01
   7171.67  3.9248655E-01
   7172.00  3.9434122E-01
