    FDMNES
    energy     <xanes>
   7097.00  4.3457614E-03
   7097.33  4.4345105E-03
   7097.67  4.5266012E-03
   7098.00  4.6222239E-03
   7098.33  4.7220933E-03
   7098.67  4.8260043E-03
   7099.00  4.9342081E-03
   7099.33  5.0476036E-03
   7099.67  5.1659720E-03
   7100.00  5.2896528E-03
   7100.33  5.4198054E-03
   7100.67  5.5562055E-03
   7101.00  5.6993279E-03
   7101.33  5.8507136E-03
   7101.67  6.0101548E-03
   7102.00  6.1783423E-03
   7102.33  6.3574050E-03
   7102.67  6.5472027E-03
   7103.00  6.7487927E-03
   7103.33  6.9652651E-03
   7103.67  7.1966702E-03
   7104.00  7.4447335E-03
   7104.33  7.7142406E-03
   7104.67  8.0057433E-03
   7105.00  8.3223009E-03
   7105.33  8.6719983E-03
   7105.67  9.0567414E-03
   7106.00  9.4825879E-03
   7106.33  9.9649311E-03
   7106.67  1.0509690E-02
   7107.00  1.1130825E-02
   7107.33  1.1863051E-02
   7107.67  1.2726317E-02
   7108.00  1.3760620E-02
   7108.33  1.5066590E-02
   7108.67  1.6728218E-02
   7109.00  1.8905279E-02
   7109.33  2.2029801E-02
   7109.67  2.6630475E-02
   7110.00  3.3758789E-02
   7110.33  4.6448035E-02
   7110.67  6.7297429E-02
   7111.00  9.3212253E-02
   7111.33  1.0699758E-01
   7111.67  1.0849858E-01
   7112.00  1.0268299E-01
   7112.33  9.1401532E-02
   7112.67  8.2388130E-02
   7113.00  7.7488082E-02
   7113.33  7.5515822E-02
   7113.67  7.5156751E-02
   7114.00  7.5376488E-02
   7114.33  7.3692567E-02
   7114.67  7.0138808E-02
   7115.00  6.7006019E-02
   7115.33  6.6757667E-02
   7115.67  6.9929981E-02
   7116.00  7.6952685E-02
   7116.33  8.9254157E-02
   7116.67  1.0777905E-01
   7117.00  1.3440113E-01
   7117.33  1.7258836E-01
   7117.67  2.2086709E-01
   7118.00  2.7341547E-01
   7118.33  3.1272553E-01
   7118.67  3.2537612E-01
   7119.00  3.1355827E-01
   7119.33  2.9208438E-01
   7119.67  2.7481394E-01
   7120.00  2.6563441E-01
   7120.33  2.6546171E-01
   7120.67  2.7217622E-01
   7121.00  2.8588869E-01
   7121.33  3.0919241E-01
   7121.67  3.4217007E-01
   7122.00  3.8328262E-01
   7122.33  4.2540186E-01
   7122.67  4.5626023E-01
   7123.00  4.6737977E-01
   7123.33  4.5743832E-01
   7123.67  4.4040612E-01
   7124.00  4.2584161E-01
   7124.33  4.1819264E-01
   7124.67  4.1664708E-01
   7125.00  4.2092854E-01
   7125.33  4.3136027E-01
   7125.67  4.4752088E-01
   7126.00  4.6966653E-01
   7126.33  4.9712037E-01
   7126.67  5.2555698E-01
   7127.00  5.5072162E-01
   7127.33  5.6838371E-01
   7127.67  5.7927342E-01
   7128.00  5.8497248E-01
   7128.33  5.8734822E-01
   7128.67  5.8920892E-01
   7129.00  5.9265035E-01
   7129.33  5.9977095E-01
   7129.67  6.1022694E-01
   7130.00  6.2244628E-01
   7130.33  6.3304273E-01
   7130.67  6.3950975E-01
   7131.00  6.4195955E-01
   7131.33  6.4309374E-01
   7131.67  6.4554357E-01
   7132.00  6.4936742E-01
   7132.33  6.5324145E-01
   7132.67  6.5642910E-01
   7133.00  6.5945768E-01
   7133.33  6.6384954E-01
   7133.67  6.7071140E-01
   7134.00  6.8052509E-01
   7134.33  6.9319314E-01
   7134.67  7.0701791E-01
   7135.00  7.2040885E-01
   7135.33  7.3126495E-01
   7135.67  7.3837339E-01
   7136.00  7.4084255E-01
   7136.33  7.3758284E-01
   7136.67  7.2942778E-01
   7137.00  7.1696768E-01
   7137.33  7.0079258E-01
   7137.67  6.8248858E-01
   7138.00  6.6304062E-01
   7138.33  6.4338163E-01
   7138.67  6.2420597E-01
   7139.00  6.0584858E-01
   7139.33  5.8858809E-01
   7139.67  5.7229615E-01
   7140.00  5.5690681E-01
   7140.33  5.4243492E-01
   7140.67  5.2871894E-01
   7141.00  5.1574198E-01
   7141.33  5.0361304E-01
   7141.67  4.9229099E-01
   7142.00  4.8184858E-01
   7142.33  4.7249955E-01
   7142.67  4.6419423E-01
   7143.00  4.5696678E-01
   7143.33  4.5095794E-01
   7143.67  4.4600137E-01
   7144.00  4.4204435E-01
   7144.33  4.3911537E-01
   7144.67  4.3699304E-01
   7145.00  4.3556666E-01
   7145.33  4.3474412E-01
   7145.67  4.3426404E-01
   7146.00  4.3394475E-01
   7146.33  4.3359574E-01
   7146.67  4.3311767E-01
   7147.00  4.3253015E-01
   7147.33  4.3199944E-01
   7147.67  4.3176963E-01
   7148.00  4.3207792E-01
   7148.33  4.3328198E-01
   7148.67  4.3549190E-01
   7149.00  4.3884825E-01
   7149.33  4.4361754E-01
   7149.67  4.4966850E-01
   7150.00  4.5694632E-01
   7150.33  4.6543061E-01
   7150.67  4.7474144E-01
   7151.00  4.8459900E-01
   7151.33  4.9460904E-01
   7151.67  5.0427315E-01
   7152.00  5.1315026E-01
   7152.33  5.2057404E-01
   7152.67  5.2626908E-01
   7153.00  5.2996042E-01
   7153.33  5.3120537E-01
   7153.67  5.3028293E-01
   7154.00  5.2732787E-01
   7154.33  5.2237910E-01
   7154.67  5.1597554E-01
   7155.00  5.0839791E-01
   7155.33  4.9985018E-01
   7155.67  4.9072189E-01
   7156.00  4.8122579E-01
   7156.33  4.7155576E-01
   7156.67  4.6191052E-01
   7157.00  4.5242208E-01
   7157.33  4.4325827E-01
   7157.67  4.3448870E-01
   7158.00  4.2618420E-01
   7158.33  4.1847281E-01
   7158.67  4.1133221E-01
   7159.00  4.0478921E-01
   7159.33  3.9894371E-01
   7159.67  3.9373511E-01
   7160.00  3.8917593E-01
   7160.33  3.8535573E-01
   7160.67  3.8218572E-01
   7161.00  3.7964692E-01
   7161.33  3.7777956E-01
   7161.67  3.7646489E-01
   7162.00  3.7565993E-01
   7162.33  3.7537060E-01
   7162.67  3.7548962E-01
   7163.00  3.7597749E-01
   7163.33  3.7683370E-01
   7163.67  3.7797780E-01
   7164.00  3.7937445E-01
   7164.33  3.8100387E-01
   7164.67  3.8278858E-01
   7165.00  3.8467976E-01
   7165.33  3.8662340E-01
   7165.67  3.8855435E-01
   7166.00  3.9042484E-01
   7166.33  3.9217345E-01
   7166.67  3.9377937E-01
   7167.00  3.9522593E-01
   7167.33  3.9648721E-01
   7167.67  3.9759042E-01
   7168.00  3.9854774E-01
   7168.33  3.9936148E-01
   7168.67  4.0006770E-01
   7169.00  4.0068414E-01
   7169.33  4.0122385E-01
   7169.67  4.0171903E-01
   7170.00  4.0219195E-01
   7170.33  4.0267080E-01
   7170.67  4.0318168E-01
   7171.00  4.0374216E-01
   7171.33  4.0436087E-01
   7171.67  4.0499302E-01
   7172.00  4.0555961E-01
