    FDMNES
    energy     <xanes>
   7097.00  4.7408526E-03
   7097.33  4.8494879E-03
   7097.67  4.9629644E-03
   7098.00  5.0816094E-03
   7098.33  5.2065433E-03
   7098.67  5.3375372E-03
   7099.00  5.4750382E-03
   7099.33  5.6205128E-03
   7099.67  5.7737284E-03
   7100.00  5.9353123E-03
   7100.33  6.1072359E-03
   7100.67  6.2892866E-03
   7101.00  6.4823728E-03
   7101.33  6.6892298E-03
   7101.67  6.9097174E-03
   7102.00  7.1452014E-03
   7102.33  7.3996239E-03
   7102.67  7.6730334E-03
   7103.00  7.9675785E-03
   7103.33  8.2892092E-03
   7103.67  8.6384277E-03
   7104.00  9.0188068E-03
   7104.33  9.4398599E-03
   7104.67  9.9031787E-03
   7105.00  1.0415135E-02
   7105.33  1.0992101E-02
   7105.67  1.1638413E-02
   7106.00  1.2366514E-02
   7106.33  1.3207479E-02
   7106.67  1.4173209E-02
   7107.00  1.5291213E-02
   7107.33  1.6629059E-02
   7107.67  1.8222876E-02
   7108.00  2.0145414E-02
   7108.33  2.2576608E-02
   7108.67  2.5650910E-02
   7109.00  2.9622971E-02
   7109.33  3.5158284E-02
   7109.67  4.2977735E-02
   7110.00  5.4487909E-02
   7110.33  7.3742275E-02
   7110.67  1.0554316E-01
   7111.00  1.5368225E-01
   7111.33  2.0716826E-01
   7111.67  2.3827796E-01
   7112.00  2.5246189E-01
   7112.33  2.9080330E-01
   7112.67  3.4711547E-01
   7113.00  3.7492566E-01
   7113.33  3.5637035E-01
   7113.67  3.2748271E-01
   7114.00  2.7299268E-01
   7114.33  2.0980500E-01
   7114.67  1.7103100E-01
   7115.00  1.5864499E-01
   7115.33  1.6349040E-01
   7115.67  1.7142317E-01
   7116.00  1.8641836E-01
   7116.33  2.0698911E-01
   7116.67  2.0787603E-01
   7117.00  1.8217205E-01
   7117.33  1.4981846E-01
   7117.67  1.2527074E-01
   7118.00  1.0950890E-01
   7118.33  1.0128612E-01
   7118.67  9.7576743E-02
   7119.00  9.6941382E-02
   7119.33  9.8335781E-02
   7119.67  1.0006757E-01
   7120.00  1.0130042E-01
   7120.33  1.0248502E-01
   7120.67  1.0469703E-01
   7121.00  1.0842139E-01
   7121.33  1.1366449E-01
   7121.67  1.1954583E-01
   7122.00  1.2539474E-01
   7122.33  1.3081926E-01
   7122.67  1.3605863E-01
   7123.00  1.4157845E-01
   7123.33  1.4831704E-01
   7123.67  1.5693763E-01
   7124.00  1.6785749E-01
   7124.33  1.8171220E-01
   7124.67  1.9858706E-01
   7125.00  2.1870680E-01
   7125.33  2.4183752E-01
   7125.67  2.6588591E-01
   7126.00  2.8885657E-01
   7126.33  3.0882667E-01
   7126.67  3.2624538E-01
   7127.00  3.4228811E-01
   7127.33  3.5857342E-01
   7127.67  3.7631013E-01
   7128.00  3.9626212E-01
   7128.33  4.1957278E-01
   7128.67  4.4666062E-01
   7129.00  4.7812071E-01
   7129.33  5.1471604E-01
   7129.67  5.5518534E-01
   7130.00  5.9860596E-01
   7130.33  6.4470845E-01
   7130.67  6.9327905E-01
   7131.00  7.4443012E-01
   7131.33  7.9814245E-01
   7131.67  8.5333077E-01
   7132.00  9.0903988E-01
   7132.33  9.6365349E-01
   7132.67  1.0150157E+00
   7133.00  1.0604554E+00
   7133.33  1.0954172E+00
   7133.67  1.1182168E+00
   7134.00  1.1272943E+00
   7134.33  1.1202588E+00
   7134.67  1.0996063E+00
   7135.00  1.0668679E+00
   7135.33  1.0234701E+00
   7135.67  9.7373258E-01
   7136.00  9.2041244E-01
   7136.33  8.6631374E-01
   7136.67  8.1380341E-01
   7137.00  7.6428809E-01
   7137.33  7.1934519E-01
   7137.67  6.7906246E-01
   7138.00  6.4367665E-01
   7138.33  6.1382972E-01
   7138.67  5.8869653E-01
   7139.00  5.6795172E-01
   7139.33  5.5159294E-01
   7139.67  5.3855947E-01
   7140.00  5.2831767E-01
   7140.33  5.2049687E-01
   7140.67  5.1420087E-01
   7141.00  5.0891911E-01
   7141.33  5.0416030E-01
   7141.67  4.9939689E-01
   7142.00  4.9434442E-01
   7142.33  4.8887214E-01
   7142.67  4.8331483E-01
   7143.00  4.7821824E-01
   7143.33  4.7454579E-01
   7143.67  4.7281026E-01
   7144.00  4.7325064E-01
   7144.33  4.7588195E-01
   7144.67  4.7977422E-01
   7145.00  4.8415321E-01
   7145.33  4.8812447E-01
   7145.67  4.9116791E-01
   7146.00  4.9310710E-01
   7146.33  4.9393600E-01
   7146.67  4.9412290E-01
   7147.00  4.9403984E-01
   7147.33  4.9412151E-01
   7147.67  4.9466531E-01
   7148.00  4.9583864E-01
   7148.33  4.9779065E-01
   7148.67  5.0037034E-01
   7149.00  5.0346375E-01
   7149.33  5.0696842E-01
   7149.67  5.1070636E-01
   7150.00  5.1459066E-01
   7150.33  5.1856353E-01
   7150.67  5.2257458E-01
   7151.00  5.2661057E-01
   7151.33  5.3068220E-01
   7151.67  5.3480162E-01
   7152.00  5.3898380E-01
   7152.33  5.4325349E-01
   7152.67  5.4761079E-01
   7153.00  5.5206031E-01
   7153.33  5.5661445E-01
   7153.67  5.6125409E-01
   7154.00  5.6596231E-01
   7154.33  5.7070733E-01
   7154.67  5.7542893E-01
   7155.00  5.8006260E-01
   7155.33  5.8449565E-01
   7155.67  5.8864973E-01
   7156.00  5.9243626E-01
   7156.33  5.9569911E-01
   7156.67  5.9841151E-01
   7157.00  6.0051566E-01
   7157.33  6.0188372E-01
   7157.67  6.0257538E-01
   7158.00  6.0258952E-01
   7158.33  6.0185925E-01
   7158.67  6.0049602E-01
   7159.00  5.9853042E-01
   7159.33  5.9592947E-01
   7159.67  5.9279926E-01
   7160.00  5.8916607E-01
   7160.33  5.8499455E-01
   7160.67  5.8036335E-01
   7161.00  5.7528528E-01
   7161.33  5.6971930E-01
   7161.67  5.6373507E-01
   7162.00  5.5734912E-01
   7162.33  5.5053807E-01
   7162.67  5.4338174E-01
   7163.00  5.3591711E-01
   7163.33  5.2816385E-01
   7163.67  5.2021396E-01
   7164.00  5.1212400E-01
   7164.33  5.0395246E-01
   7164.67  4.9577541E-01
   7165.00  4.8764798E-01
   7165.33  4.7964303E-01
   7165.67  4.7180146E-01
   7166.00  4.6416600E-01
   7166.33  4.5681158E-01
   7166.67  4.4974550E-01
   7167.00  4.4299692E-01
   7167.33  4.3663715E-01
   7167.67  4.3064643E-01
   7168.00  4.2504049E-01
   7168.33  4.1988146E-01
   7168.67  4.1512727E-01
   7169.00  4.1078025E-01
   7169.33  4.0689026E-01
   7169.67  4.0340009E-01
   7170.00  4.0029851E-01
   7170.33  3.9761782E-01
   7170.67  3.9529569E-01
   7171.00  3.9331714E-01
   7171.33  3.9170364E-01
   7171.67  3.9039476E-01
   7172.00  3.8937105E-01
