    FDMNES
    energy     <xanes>
   7097.00  4.8822104E-03
   7097.33  4.9942742E-03
   7097.67  5.1112851E-03
   7098.00  5.2335710E-03
   7098.33  5.3622656E-03
   7098.67  5.4971260E-03
   7099.00  5.6385971E-03
   7099.33  5.7881543E-03
   7099.67  5.9455469E-03
   7100.00  6.1113950E-03
   7100.33  6.2876688E-03
   7100.67  6.4741311E-03
   7101.00  6.6716737E-03
   7101.33  6.8830095E-03
   7101.67  7.1079636E-03
   7102.00  7.3478666E-03
   7102.33  7.6065971E-03
   7102.67  7.8841502E-03
   7103.00  8.1826044E-03
   7103.33  8.5077656E-03
   7103.67  8.8600483E-03
   7104.00  9.2428872E-03
   7104.33  9.6654939E-03
   7104.67  1.0129306E-02
   7105.00  1.0640423E-02
   7105.33  1.1214608E-02
   7105.67  1.1855911E-02
   7106.00  1.2576246E-02
   7106.33  1.3405480E-02
   7106.67  1.4355007E-02
   7107.00  1.5451359E-02
   7107.33  1.6759939E-02
   7107.67  1.8316288E-02
   7108.00  2.0192048E-02
   7108.33  2.2565434E-02
   7108.67  2.5574275E-02
   7109.00  2.9480480E-02
   7109.33  3.4977590E-02
   7109.67  4.2853264E-02
   7110.00  5.4658215E-02
   7110.33  7.4866188E-02
   7110.67  1.0818067E-01
   7111.00  1.5536266E-01
   7111.33  1.9974524E-01
   7111.67  2.1611808E-01
   7112.00  2.0914047E-01
   7112.33  2.1622665E-01
   7112.67  2.3696526E-01
   7113.00  2.6974029E-01
   7113.33  3.1665523E-01
   7113.67  3.3744542E-01
   7114.00  3.1557485E-01
   7114.33  2.7451524E-01
   7114.67  2.3001888E-01
   7115.00  1.9469202E-01
   7115.33  1.8533756E-01
   7115.67  1.9963459E-01
   7116.00  2.3049988E-01
   7116.33  2.5671125E-01
   7116.67  2.6814704E-01
   7117.00  2.7775984E-01
   7117.33  2.9312289E-01
   7117.67  2.9971626E-01
   7118.00  2.8775469E-01
   7118.33  2.6117988E-01
   7118.67  2.3222825E-01
   7119.00  2.0570698E-01
   7119.33  1.8540718E-01
   7119.67  1.7218267E-01
   7120.00  1.6313710E-01
   7120.33  1.5386123E-01
   7120.67  1.4455490E-01
   7121.00  1.3710548E-01
   7121.33  1.3274713E-01
   7121.67  1.3191649E-01
   7122.00  1.3541359E-01
   7122.33  1.4318993E-01
   7122.67  1.5333194E-01
   7123.00  1.6507432E-01
   7123.33  1.7893557E-01
   7123.67  1.9545008E-01
   7124.00  2.1492482E-01
   7124.33  2.3769371E-01
   7124.67  2.6325843E-01
   7125.00  2.9111698E-01
   7125.33  3.1959495E-01
   7125.67  3.4550106E-01
   7126.00  3.6606069E-01
   7126.33  3.7924580E-01
   7126.67  3.8746925E-01
   7127.00  3.9331839E-01
   7127.33  3.9968792E-01
   7127.67  4.0827851E-01
   7128.00  4.1987919E-01
   7128.33  4.3538778E-01
   7128.67  4.5362799E-01
   7129.00  4.7258184E-01
   7129.33  4.9016992E-01
   7129.67  5.0769987E-01
   7130.00  5.2772025E-01
   7130.33  5.5230101E-01
   7130.67  5.8038632E-01
   7131.00  6.1100307E-01
   7131.33  6.4351817E-01
   7131.67  6.7703585E-01
   7132.00  7.1093533E-01
   7132.33  7.4413163E-01
   7132.67  7.7472165E-01
   7133.00  7.9977414E-01
   7133.33  8.1423049E-01
   7133.67  8.1775525E-01
   7134.00  8.1276350E-01
   7134.33  8.0496748E-01
   7134.67  7.9998541E-01
   7135.00  7.9915105E-01
   7135.33  8.0085691E-01
   7135.67  8.0157747E-01
   7136.00  7.9906845E-01
   7136.33  7.9157942E-01
   7136.67  7.7956051E-01
   7137.00  7.6317782E-01
   7137.33  7.4229003E-01
   7137.67  7.1829671E-01
   7138.00  6.9250650E-01
   7138.33  6.6671992E-01
   7138.67  6.4252341E-01
   7139.00  6.2087471E-01
   7139.33  6.0282051E-01
   7139.67  5.8823973E-01
   7140.00  5.7716962E-01
   7140.33  5.6991865E-01
   7140.67  5.6584308E-01
   7141.00  5.6468498E-01
   7141.33  5.6634556E-01
   7141.67  5.6993067E-01
   7142.00  5.7476974E-01
   7142.33  5.7990359E-01
   7142.67  5.8415402E-01
   7143.00  5.8654963E-01
   7143.33  5.8585922E-01
   7143.67  5.8201902E-01
   7144.00  5.7514605E-01
   7144.33  5.6554352E-01
   7144.67  5.5441956E-01
   7145.00  5.4260139E-01
   7145.33  5.3096083E-01
   7145.67  5.2012236E-01
   7146.00  5.1045930E-01
   7146.33  5.0240190E-01
   7146.67  4.9586215E-01
   7147.00  4.9081176E-01
   7147.33  4.8730818E-01
   7147.67  4.8503484E-01
   7148.00  4.8387219E-01
   7148.33  4.8381177E-01
   7148.67  4.8461726E-01
   7149.00  4.8622202E-01
   7149.33  4.8868443E-01
   7149.67  4.9189348E-01
   7150.00  4.9583452E-01
   7150.33  5.0055775E-01
   7150.67  5.0590275E-01
   7151.00  5.1176965E-01
   7151.33  5.1804884E-01
   7151.67  5.2451713E-01
   7152.00  5.3102030E-01
   7152.33  5.3737692E-01
   7152.67  5.4347507E-01
   7153.00  5.4924332E-01
   7153.33  5.5459812E-01
   7153.67  5.5959087E-01
   7154.00  5.6425183E-01
   7154.33  5.6859814E-01
   7154.67  5.7272104E-01
   7155.00  5.7666329E-01
   7155.33  5.8044408E-01
   7155.67  5.8410145E-01
   7156.00  5.8763897E-01
   7156.33  5.9103136E-01
   7156.67  5.9427428E-01
   7157.00  5.9734406E-01
   7157.33  6.0018411E-01
   7157.67  6.0278792E-01
   7158.00  6.0512856E-01
   7158.33  6.0713955E-01
   7158.67  6.0882858E-01
   7159.00  6.1017117E-01
   7159.33  6.1109083E-01
   7159.67  6.1160103E-01
   7160.00  6.1166834E-01
   7160.33  6.1118559E-01
   7160.67  6.1015965E-01
   7161.00  6.0854018E-01
   7161.33  6.0618629E-01
   7161.67  6.0312339E-01
   7162.00  5.9930844E-01
   7162.33  5.9460610E-01
   7162.67  5.8910185E-01
   7163.00  5.8280902E-01
   7163.33  5.7568215E-01
   7163.67  5.6789250E-01
   7164.00  5.5952725E-01
   7164.33  5.5064827E-01
   7164.67  5.4144325E-01
   7165.00  5.3202437E-01
   7165.33  5.2250344E-01
   7165.67  5.1300485E-01
   7166.00  5.0361589E-01
   7166.33  4.9445211E-01
   7166.67  4.8557083E-01
   7167.00  4.7703803E-01
   7167.33  4.6897513E-01
   7167.67  4.6139093E-01
   7168.00  4.5433202E-01
   7168.33  4.4791390E-01
   7168.67  4.4209775E-01
   7169.00  4.3689975E-01
   7169.33  4.3239301E-01
   7169.67  4.2847800E-01
   7170.00  4.2512449E-01
   7170.33  4.2234987E-01
   7170.67  4.2003386E-01
   7171.00  4.1812543E-01
   7171.33  4.1661005E-01
   7171.67  4.1539226E-01
   7172.00  4.1443456E-01
