    FDMNES
    energy     <xanes>
   7097.00  5.3775311E-03
   7097.33  5.5123766E-03
   7097.67  5.6536477E-03
   7098.00  5.8017925E-03
   7098.33  5.9583200E-03
   7098.67  6.1229432E-03
   7099.00  6.2962746E-03
   7099.33  6.4802981E-03
   7099.67  6.6747210E-03
   7100.00  6.8804022E-03
   7100.33  7.1000157E-03
   7100.67  7.3332930E-03
   7101.00  7.5814744E-03
   7101.33  7.8482707E-03
   7101.67  8.1335038E-03
   7102.00  8.4390268E-03
   7102.33  8.7701729E-03
   7102.67  9.1269972E-03
   7103.00  9.5123853E-03
   7103.33  9.9343310E-03
   7103.67  1.0393443E-02
   7104.00  1.0894445E-02
   7104.33  1.1449955E-02
   7104.67  1.2061881E-02
   7105.00  1.2738457E-02
   7105.33  1.3500945E-02
   7105.67  1.4354421E-02
   7106.00  1.5314441E-02
   7106.33  1.6420021E-02
   7106.67  1.7684601E-02
   7107.00  1.9140915E-02
   7107.33  2.0869486E-02
   7107.67  2.2908842E-02
   7108.00  2.5339438E-02
   7108.33  2.8358942E-02
   7108.67  3.2098844E-02
   7109.00  3.6811635E-02
   7109.33  4.3142907E-02
   7109.67  5.1716707E-02
   7110.00  6.3736271E-02
   7110.33  8.2542598E-02
   7110.67  1.1162485E-01
   7111.00  1.5333252E-01
   7111.33  2.0656400E-01
   7111.67  2.7630499E-01
   7112.00  3.6681916E-01
   7112.33  4.6960849E-01
   7112.67  5.8102764E-01
   7113.00  6.8659710E-01
   7113.33  6.9380660E-01
   7113.67  5.9016027E-01
   7114.00  4.5716808E-01
   7114.33  3.5877139E-01
   7114.67  2.9394852E-01
   7115.00  2.5443945E-01
   7115.33  2.3509008E-01
   7115.67  2.2875004E-01
   7116.00  2.3045582E-01
   7116.33  2.3135807E-01
   7116.67  2.2459845E-01
   7117.00  2.0978777E-01
   7117.33  1.9035347E-01
   7117.67  1.7193357E-01
   7118.00  1.5728547E-01
   7118.33  1.4751510E-01
   7118.67  1.4120147E-01
   7119.00  1.3734540E-01
   7119.33  1.3494117E-01
   7119.67  1.3277651E-01
   7120.00  1.3037621E-01
   7120.33  1.2799098E-01
   7120.67  1.2643144E-01
   7121.00  1.2611783E-01
   7121.33  1.2669263E-01
   7121.67  1.2752627E-01
   7122.00  1.2881718E-01
   7122.33  1.3108045E-01
   7122.67  1.3436893E-01
   7123.00  1.3870570E-01
   7123.33  1.4426624E-01
   7123.67  1.5102621E-01
   7124.00  1.5915197E-01
   7124.33  1.6910771E-01
   7124.67  1.8097562E-01
   7125.00  1.9498222E-01
   7125.33  2.1166954E-01
   7125.67  2.3092981E-01
   7126.00  2.5263086E-01
   7126.33  2.7596879E-01
   7126.67  2.9902759E-01
   7127.00  3.2057631E-01
   7127.33  3.4054941E-01
   7127.67  3.6106517E-01
   7128.00  3.8420571E-01
   7128.33  4.1162479E-01
   7128.67  4.4271902E-01
   7129.00  4.7821914E-01
   7129.33  5.2147289E-01
   7129.67  5.7256970E-01
   7130.00  6.2925436E-01
   7130.33  6.8739510E-01
   7130.67  7.4438944E-01
   7131.00  8.0051705E-01
   7131.33  8.5742771E-01
   7131.67  9.1620046E-01
   7132.00  9.7649190E-01
   7132.33  1.0353770E+00
   7132.67  1.0877735E+00
   7133.00  1.1280505E+00
   7133.33  1.1477052E+00
   7133.67  1.1451770E+00
   7134.00  1.1203120E+00
   7134.33  1.0743851E+00
   7134.67  1.0158392E+00
   7135.00  9.5016440E-01
   7135.33  8.8234626E-01
   7135.67  8.1612846E-01
   7136.00  7.5332781E-01
   7136.33  6.9572063E-01
   7136.67  6.4338507E-01
   7137.00  5.9669201E-01
   7137.33  5.5674462E-01
   7137.67  5.2310340E-01
   7138.00  4.9596707E-01
   7138.33  4.7625131E-01
   7138.67  4.6304071E-01
   7139.00  4.5607438E-01
   7139.33  4.5550475E-01
   7139.67  4.5979150E-01
   7140.00  4.6804392E-01
   7140.33  4.7945171E-01
   7140.67  4.9248852E-01
   7141.00  5.0622914E-01
   7141.33  5.1976109E-01
   7141.67  5.3247091E-01
   7142.00  5.4401418E-01
   7142.33  5.5401135E-01
   7142.67  5.6256721E-01
   7143.00  5.6968319E-01
   7143.33  5.7520718E-01
   7143.67  5.7934490E-01
   7144.00  5.8212670E-01
   7144.33  5.8344634E-01
   7144.67  5.8353983E-01
   7145.00  5.8247986E-01
   7145.33  5.8025860E-01
   7145.67  5.7717343E-01
   7146.00  5.7339438E-01
   7146.33  5.6906943E-01
   7146.67  5.6446229E-01
   7147.00  5.5973249E-01
   7147.33  5.5504497E-01
   7147.67  5.5052619E-01
   7148.00  5.4626659E-01
   7148.33  5.4238978E-01
   7148.67  5.3891230E-01
   7149.00  5.3587235E-01
   7149.33  5.3337218E-01
   7149.67  5.3139067E-01
   7150.00  5.2994617E-01
   7150.33  5.2911870E-01
   7150.67  5.2884631E-01
   7151.00  5.2913199E-01
   7151.33  5.3004664E-01
   7151.67  5.3151756E-01
   7152.00  5.3353776E-01
   7152.33  5.3615942E-01
   7152.67  5.3929571E-01
   7153.00  5.4292672E-01
   7153.33  5.4708510E-01
   7153.67  5.5168194E-01
   7154.00  5.5668540E-01
   7154.33  5.6209305E-01
   7154.67  5.6779651E-01
   7155.00  5.7372428E-01
   7155.33  5.7978505E-01
   7155.67  5.8583367E-01
   7156.00  5.9174215E-01
   7156.33  5.9731302E-01
   7156.67  6.0242216E-01
   7157.00  6.0693784E-01
   7157.33  6.1063289E-01
   7157.67  6.1348871E-01
   7158.00  6.1543581E-01
   7158.33  6.1630320E-01
   7158.67  6.1619118E-01
   7159.00  6.1510632E-01
   7159.33  6.1296259E-01
   7159.67  6.0993029E-01
   7160.00  6.0606793E-01
   7160.33  6.0136309E-01
   7160.67  5.9600120E-01
   7161.00  5.9006304E-01
   7161.33  5.8357737E-01
   7161.67  5.7669189E-01
   7162.00  5.6947824E-01
   7162.33  5.6198087E-01
   7162.67  5.5429908E-01
   7163.00  5.4648387E-01
   7163.33  5.3857441E-01
   7163.67  5.3062182E-01
   7164.00  5.2265528E-01
   7164.33  5.1470429E-01
   7164.67  5.0679179E-01
   7165.00  4.9893893E-01
   7165.33  4.9118113E-01
   7165.67  4.8353495E-01
   7166.00  4.7602596E-01
   7166.33  4.6870505E-01
   7166.67  4.6158191E-01
   7167.00  4.5468393E-01
   7167.33  4.4807289E-01
   7167.67  4.4174357E-01
   7168.00  4.3571717E-01
   7168.33  4.3005677E-01
   7168.67  4.2473993E-01
   7169.00  4.1977758E-01
   7169.33  4.1522069E-01
   7169.67  4.1102459E-01
   7170.00  4.0718898E-01
   7170.33  4.0375706E-01
   7170.67  4.0068121E-01
   7171.00  3.9796030E-01
   7171.33  3.9564322E-01
   7171.67  3.9370231E-01
   7172.00  3.9216280E-01
