    FDMNES
    energy     <xanes>
   7097.00  4.6711826E-03
   7097.33  4.7709880E-03
   7097.67  4.8749021E-03
   7098.00  4.9831839E-03
   7098.33  5.0967529E-03
   7098.67  5.2153900E-03
   7099.00  5.3394442E-03
   7099.33  5.4701002E-03
   7099.67  5.6071299E-03
   7100.00  5.7510166E-03
   7100.33  5.9033276E-03
   7100.67  6.0638421E-03
   7101.00  6.2332518E-03
   7101.33  6.4136972E-03
   7101.67  6.6050028E-03
   7102.00  6.8081978E-03
   7102.33  7.0263224E-03
   7102.67  7.2593313E-03
   7103.00  7.5088319E-03
   7103.33  7.7793561E-03
   7103.67  8.0711873E-03
   7104.00  8.3869886E-03
   7104.33  8.7339441E-03
   7104.67  9.1131499E-03
   7105.00  9.5293637E-03
   7105.33  9.9949152E-03
   7105.67  1.0512999E-02
   7106.00  1.1092991E-02
   7106.33  1.1758420E-02
   7106.67  1.2518424E-02
   7107.00  1.3394117E-02
   7107.33  1.4437539E-02
   7107.67  1.5677443E-02
   7108.00  1.7171403E-02
   7108.33  1.9062522E-02
   7108.67  2.1462268E-02
   7109.00  2.4581464E-02
   7109.33  2.8976603E-02
   7109.67  3.5275695E-02
   7110.00  4.4709010E-02
   7110.33  6.0816084E-02
   7110.67  8.7410213E-02
   7111.00  1.2580971E-01
   7111.33  1.6694446E-01
   7111.67  1.9708043E-01
   7112.00  2.0694637E-01
   7112.33  2.0148454E-01
   7112.67  1.9612210E-01
   7113.00  1.9004435E-01
   7113.33  1.7488472E-01
   7113.67  1.5131397E-01
   7114.00  1.2909696E-01
   7114.33  1.1872292E-01
   7114.67  1.1682833E-01
   7115.00  1.1563123E-01
   7115.33  1.0965491E-01
   7115.67  1.0365300E-01
   7116.00  1.0194793E-01
   7116.33  1.0697013E-01
   7116.67  1.1799673E-01
   7117.00  1.3488102E-01
   7117.33  1.5808083E-01
   7117.67  1.8587782E-01
   7118.00  2.1543174E-01
   7118.33  2.3981797E-01
   7118.67  2.5415306E-01
   7119.00  2.5791097E-01
   7119.33  2.5373265E-01
   7119.67  2.4731670E-01
   7120.00  2.4180148E-01
   7120.33  2.3962201E-01
   7120.67  2.4141990E-01
   7121.00  2.4762972E-01
   7121.33  2.5892641E-01
   7121.67  2.7431099E-01
   7122.00  2.9283533E-01
   7122.33  3.1288675E-01
   7122.67  3.3217499E-01
   7123.00  3.4908993E-01
   7123.33  3.6183175E-01
   7123.67  3.7032675E-01
   7124.00  3.7531392E-01
   7124.33  3.7894934E-01
   7124.67  3.8340860E-01
   7125.00  3.8889248E-01
   7125.33  3.9462871E-01
   7125.67  4.0021818E-01
   7126.00  4.0583971E-01
   7126.33  4.1216843E-01
   7126.67  4.1998910E-01
   7127.00  4.2998093E-01
   7127.33  4.4265864E-01
   7127.67  4.5717278E-01
   7128.00  4.7286942E-01
   7128.33  4.8944923E-01
   7128.67  5.0667581E-01
   7129.00  5.2420869E-01
   7129.33  5.4135138E-01
   7129.67  5.5810583E-01
   7130.00  5.7539930E-01
   7130.33  5.9498086E-01
   7130.67  6.1743913E-01
   7131.00  6.4268372E-01
   7131.33  6.7028452E-01
   7131.67  6.9924163E-01
   7132.00  7.2909702E-01
   7132.33  7.5901131E-01
   7132.67  7.8740112E-01
   7133.00  8.1288541E-01
   7133.33  8.3429657E-01
   7133.67  8.5221193E-01
   7134.00  8.6626118E-01
   7134.33  8.7308390E-01
   7134.67  8.7001277E-01
   7135.00  8.5611151E-01
   7135.33  8.3241420E-01
   7135.67  8.0379394E-01
   7136.00  7.7342364E-01
   7136.33  7.4415821E-01
   7136.67  7.1740274E-01
   7137.00  6.9369358E-01
   7137.33  6.7345886E-01
   7137.67  6.5597573E-01
   7138.00  6.4077389E-01
   7138.33  6.2738767E-01
   7138.67  6.1492197E-01
   7139.00  6.0285351E-01
   7139.33  5.9074084E-01
   7139.67  5.7837510E-01
   7140.00  5.6573126E-01
   7140.33  5.5288251E-01
   7140.67  5.4003060E-01
   7141.00  5.2737729E-01
   7141.33  5.1522822E-01
   7141.67  5.0374292E-01
   7142.00  4.9307600E-01
   7142.33  4.8351726E-01
   7142.67  4.7511358E-01
   7143.00  4.6801054E-01
   7143.33  4.6253470E-01
   7143.67  4.5858809E-01
   7144.00  4.5616319E-01
   7144.33  4.5531915E-01
   7144.67  4.5566226E-01
   7145.00  4.5695583E-01
   7145.33  4.5899955E-01
   7145.67  4.6146321E-01
   7146.00  4.6418575E-01
   7146.33  4.6705884E-01
   7146.67  4.6999506E-01
   7147.00  4.7296207E-01
   7147.33  4.7593830E-01
   7147.67  4.7890441E-01
   7148.00  4.8184411E-01
   7148.33  4.8472473E-01
   7148.67  4.8751067E-01
   7149.00  4.9014704E-01
   7149.33  4.9252677E-01
   7149.67  4.9460377E-01
   7150.00  4.9631421E-01
   7150.33  4.9751603E-01
   7150.67  4.9817536E-01
   7151.00  4.9822208E-01
   7151.33  4.9750990E-01
   7151.67  4.9609528E-01
   7152.00  4.9398903E-01
   7152.33  4.9116001E-01
   7152.67  4.8776600E-01
   7153.00  4.8388733E-01
   7153.33  4.7957652E-01
   7153.67  4.7498224E-01
   7154.00  4.7018668E-01
   7154.33  4.6526156E-01
   7154.67  4.6029292E-01
   7155.00  4.5532913E-01
   7155.33  4.5041630E-01
   7155.67  4.4557388E-01
   7156.00  4.4081417E-01
   7156.33  4.3615691E-01
   7156.67  4.3159890E-01
   7157.00  4.2715273E-01
   7157.33  4.2286033E-01
   7157.67  4.1874278E-01
   7158.00  4.1484382E-01
   7158.33  4.1125824E-01
   7158.67  4.0801680E-01
   7159.00  4.0517632E-01
   7159.33  4.0285336E-01
   7159.67  4.0103443E-01
   7160.00  3.9973992E-01
   7160.33  3.9903744E-01
   7160.67  3.9883910E-01
   7161.00  3.9910643E-01
   7161.33  3.9982409E-01
   7161.67  4.0086709E-01
   7162.00  4.0217341E-01
   7162.33  4.0370152E-01
   7162.67  4.0537131E-01
   7163.00  4.0714697E-01
   7163.33  4.0901223E-01
   7163.67  4.1094661E-01
   7164.00  4.1295175E-01
   7164.33  4.1504971E-01
   7164.67  4.1724887E-01
   7165.00  4.1956749E-01
   7165.33  4.2204365E-01
   7165.67  4.2467635E-01
   7166.00  4.2747501E-01
   7166.33  4.3046656E-01
   7166.67  4.3362908E-01
   7167.00  4.3695734E-01
   7167.33  4.4045786E-01
   7167.67  4.4409070E-01
   7168.00  4.4783283E-01
   7168.33  4.5166340E-01
   7168.67  4.5553805E-01
   7169.00  4.5942437E-01
   7169.33  4.6327880E-01
   7169.67  4.6706249E-01
   7170.00  4.7073707E-01
   7170.33  4.7423658E-01
   7170.67  4.7753164E-01
   7171.00  4.8057655E-01
   7171.33  4.8326958E-01
   7171.67  4.8556734E-01
   7172.00  4.8738423E-01
