    FDMNES
    energy     <xanes>
   7097.00  4.5736999E-03
   7097.33  4.6782155E-03
   7097.67  4.7874083E-03
   7098.00  4.9015996E-03
   7098.33  5.0218811E-03
   7098.67  5.1480405E-03
   7099.00  5.2805203E-03
   7099.33  5.4207600E-03
   7099.67  5.5685494E-03
   7100.00  5.7245166E-03
   7100.33  5.8906150E-03
   7100.67  6.0666654E-03
   7101.00  6.2535906E-03
   7101.33  6.4541350E-03
   7101.67  6.6682136E-03
   7102.00  6.8972390E-03
   7102.33  7.1452320E-03
   7102.67  7.4123439E-03
   7103.00  7.7008471E-03
   7103.33  8.0169438E-03
   7103.67  8.3613509E-03
   7104.00  8.7379557E-03
   7104.33  9.1569626E-03
   7104.67  9.6204677E-03
   7105.00  1.0135659E-02
   7105.33  1.0720778E-02
   7105.67  1.1381501E-02
   7106.00  1.2132546E-02
   7106.33  1.3010336E-02
   7106.67  1.4030905E-02
   7107.00  1.5228908E-02
   7107.33  1.6689262E-02
   7107.67  1.8463500E-02
   7108.00  2.0651602E-02
   7108.33  2.3503153E-02
   7108.67  2.7228585E-02
   7109.00  3.2223780E-02
   7109.33  3.9552872E-02
   7109.67  5.0507287E-02
   7110.00  6.7646723E-02
   7110.33  9.8399087E-02
   7110.67  1.4982588E-01
   7111.00  2.1693043E-01
   7111.33  2.5180176E-01
   7111.67  2.4449405E-01
   7112.00  2.3533263E-01
   7112.33  2.5378485E-01
   7112.67  2.7562727E-01
   7113.00  2.7660523E-01
   7113.33  2.5757825E-01
   7113.67  2.3844445E-01
   7114.00  2.2451916E-01
   7114.33  2.0290797E-01
   7114.67  1.6885417E-01
   7115.00  1.3165166E-01
   7115.33  1.0239248E-01
   7115.67  8.2357122E-02
   7116.00  6.9674118E-02
   7116.33  6.1708241E-02
   7116.67  5.6069873E-02
   7117.00  5.2543124E-02
   7117.33  5.1167151E-02
   7117.67  5.1473839E-02
   7118.00  5.3418687E-02
   7118.33  5.7373184E-02
   7118.67  6.3481396E-02
   7119.00  7.2180855E-02
   7119.33  8.4219550E-02
   7119.67  9.8780927E-02
   7120.00  1.1412256E-01
   7120.33  1.2677293E-01
   7120.67  1.3526014E-01
   7121.00  1.4019648E-01
   7121.33  1.4275277E-01
   7121.67  1.4430523E-01
   7122.00  1.4609973E-01
   7122.33  1.5023046E-01
   7122.67  1.5799529E-01
   7123.00  1.7047789E-01
   7123.33  1.8979235E-01
   7123.67  2.1680075E-01
   7124.00  2.5281100E-01
   7124.33  2.9879819E-01
   7124.67  3.4886620E-01
   7125.00  3.9575468E-01
   7125.33  4.3266500E-01
   7125.67  4.5902268E-01
   7126.00  4.7581405E-01
   7126.33  4.9007764E-01
   7126.67  5.1194149E-01
   7127.00  5.4586407E-01
   7127.33  5.9314864E-01
   7127.67  6.4792487E-01
   7128.00  7.0226063E-01
   7128.33  7.4123551E-01
   7128.67  7.6034900E-01
   7129.00  7.6430825E-01
   7129.33  7.6046415E-01
   7129.67  7.5482040E-01
   7130.00  7.4907199E-01
   7130.33  7.4320454E-01
   7130.67  7.3670062E-01
   7131.00  7.2981394E-01
   7131.33  7.2408617E-01
   7131.67  7.2105971E-01
   7132.00  7.2117051E-01
   7132.33  7.2294943E-01
   7132.67  7.2330115E-01
   7133.00  7.2093550E-01
   7133.33  7.1668645E-01
   7133.67  7.1346754E-01
   7134.00  7.1402005E-01
   7134.33  7.2120178E-01
   7134.67  7.3345609E-01
   7135.00  7.4774957E-01
   7135.33  7.5957019E-01
   7135.67  7.6607047E-01
   7136.00  7.6593173E-01
   7136.33  7.5826179E-01
   7136.67  7.4523374E-01
   7137.00  7.2879452E-01
   7137.33  7.1145054E-01
   7137.67  6.9562414E-01
   7138.00  6.8266628E-01
   7138.33  6.7356627E-01
   7138.67  6.6739715E-01
   7139.00  6.6312690E-01
   7139.33  6.5930577E-01
   7139.67  6.5452813E-01
   7140.00  6.4806904E-01
   7140.33  6.3948720E-01
   7140.67  6.2937351E-01
   7141.00  6.1827259E-01
   7141.33  6.0681126E-01
   7141.67  5.9557328E-01
   7142.00  5.8487060E-01
   7142.33  5.7493936E-01
   7142.67  5.6558261E-01
   7143.00  5.5648510E-01
   7143.33  5.4699799E-01
   7143.67  5.3640287E-01
   7144.00  5.2409973E-01
   7144.33  5.0952180E-01
   7144.67  4.9330496E-01
   7145.00  4.7634782E-01
   7145.33  4.6010008E-01
   7145.67  4.4569811E-01
   7146.00  4.3377636E-01
   7146.33  4.2487242E-01
   7146.67  4.1841981E-01
   7147.00  4.1403358E-01
   7147.33  4.1140528E-01
   7147.67  4.0988791E-01
   7148.00  4.0918095E-01
   7148.33  4.0910841E-01
   7148.67  4.0946390E-01
   7149.00  4.1022632E-01
   7149.33  4.1150876E-01
   7149.67  4.1334878E-01
   7150.00  4.1583485E-01
   7150.33  4.1915624E-01
   7150.67  4.2327702E-01
   7151.00  4.2817575E-01
   7151.33  4.3384198E-01
   7151.67  4.4005728E-01
   7152.00  4.4666816E-01
   7152.33  4.5346535E-01
   7152.67  4.6014866E-01
   7153.00  4.6644706E-01
   7153.33  4.7193776E-01
   7153.67  4.7638972E-01
   7154.00  4.7956751E-01
   7154.33  4.8109364E-01
   7154.67  4.8106322E-01
   7155.00  4.7948072E-01
   7155.33  4.7623299E-01
   7155.67  4.7161313E-01
   7156.00  4.6572281E-01
   7156.33  4.5854555E-01
   7156.67  4.5037785E-01
   7157.00  4.4139131E-01
   7157.33  4.3176849E-01
   7157.67  4.2186826E-01
   7158.00  4.1192777E-01
   7158.33  4.0218039E-01
   7158.67  3.9271257E-01
   7159.00  3.8353068E-01
   7159.33  3.7460430E-01
   7159.67  3.6584183E-01
   7160.00  3.5723529E-01
   7160.33  3.4888908E-01
   7160.67  3.4093947E-01
   7161.00  3.3357901E-01
   7161.33  3.2715493E-01
   7161.67  3.2179078E-01
   7162.00  3.1765239E-01
   7162.33  3.1505644E-01
   7162.67  3.1392363E-01
   7163.00  3.1429326E-01
   7163.33  3.1635249E-01
   7163.67  3.1986875E-01
   7164.00  3.2477539E-01
   7164.33  3.3111625E-01
   7164.67  3.3856779E-01
   7165.00  3.4694556E-01
   7165.33  3.5606213E-01
   7165.67  3.6550711E-01
   7166.00  3.7495791E-01
   7166.33  3.8396028E-01
   7166.67  3.9216137E-01
   7167.00  3.9925001E-01
   7167.33  4.0476987E-01
   7167.67  4.0873426E-01
   7168.00  4.1112186E-01
   7168.33  4.1186783E-01
   7168.67  4.1140570E-01
   7169.00  4.1002884E-01
   7169.33  4.0806305E-01
   7169.67  4.0597353E-01
   7170.00  4.0407728E-01
   7170.33  4.0274257E-01
   7170.67  4.0211540E-01
   7171.00  4.0227523E-01
   7171.33  4.0325857E-01
   7171.67  4.0470978E-01
   7172.00  4.0621593E-01
