    FDMNES
    energy     <xanes>
   7097.00  4.5919765E-03
   7097.33  4.7030025E-03
   7097.67  4.8192911E-03
   7098.00  4.9412184E-03
   7098.33  5.0700364E-03
   7098.67  5.2055243E-03
   7099.00  5.3482024E-03
   7099.33  5.4997335E-03
   7099.67  5.6599017E-03
   7100.00  5.8294475E-03
   7100.33  6.0106412E-03
   7100.67  6.2033049E-03
   7101.00  6.4085272E-03
   7101.33  6.6295112E-03
   7101.67  6.8661889E-03
   7102.00  7.1202232E-03
   7102.33  7.3963143E-03
   7102.67  7.6946618E-03
   7103.00  8.0179257E-03
   7103.33  8.3733391E-03
   7103.67  8.7617289E-03
   7104.00  9.1875970E-03
   7104.33  9.6627494E-03
   7104.67  1.0189507E-02
   7105.00  1.0776046E-02
   7105.33  1.1443139E-02
   7105.67  1.2196863E-02
   7106.00  1.3053505E-02
   7106.33  1.4053395E-02
   7106.67  1.5213044E-02
   7107.00  1.6569183E-02
   7107.33  1.8211624E-02
   7107.67  2.0190558E-02
   7108.00  2.2605173E-02
   7108.33  2.5700580E-02
   7108.67  2.9665426E-02
   7109.00  3.4854775E-02
   7109.33  4.2199663E-02
   7109.67  5.2729954E-02
   7110.00  6.8453352E-02
   7110.33  9.5080932E-02
   7110.67  1.3839195E-01
   7111.00  1.9925692E-01
   7111.33  2.6520793E-01
   7111.67  3.3194988E-01
   7112.00  3.9503092E-01
   7112.33  4.3241339E-01
   7112.67  4.4312398E-01
   7113.00  4.3904228E-01
   7113.33  3.9576223E-01
   7113.67  3.1233166E-01
   7114.00  2.2734458E-01
   7114.33  1.6999443E-01
   7114.67  1.3448707E-01
   7115.00  1.1421645E-01
   7115.33  1.0498904E-01
   7115.67  1.0231919E-01
   7116.00  1.0421140E-01
   7116.33  1.0853391E-01
   7116.67  1.1281896E-01
   7117.00  1.1566271E-01
   7117.33  1.1504091E-01
   7117.67  1.0972981E-01
   7118.00  1.0032047E-01
   7118.33  9.0697814E-02
   7118.67  8.4077684E-02
   7119.00  8.1197582E-02
   7119.33  8.1768585E-02
   7119.67  8.3292231E-02
   7120.00  8.4225223E-02
   7120.33  8.4208980E-02
   7120.67  8.3784433E-02
   7121.00  8.3402359E-02
   7121.33  8.3770896E-02
   7121.67  8.5367915E-02
   7122.00  8.8317466E-02
   7122.33  9.2788733E-02
   7122.67  9.8675025E-02
   7123.00  1.0603174E-01
   7123.33  1.1492422E-01
   7123.67  1.2485173E-01
   7124.00  1.3562118E-01
   7124.33  1.4776569E-01
   7124.67  1.6206487E-01
   7125.00  1.7901469E-01
   7125.33  1.9799818E-01
   7125.67  2.1658267E-01
   7126.00  2.3320612E-01
   7126.33  2.4749285E-01
   7126.67  2.6103738E-01
   7127.00  2.7567018E-01
   7127.33  2.9385956E-01
   7127.67  3.1610379E-01
   7128.00  3.4220581E-01
   7128.33  3.7184604E-01
   7128.67  4.0304922E-01
   7129.00  4.3315434E-01
   7129.33  4.5821838E-01
   7129.67  4.7798995E-01
   7130.00  4.9538459E-01
   7130.33  5.1719771E-01
   7130.67  5.4809135E-01
   7131.00  5.8911184E-01
   7131.33  6.3899139E-01
   7131.67  6.9433013E-01
   7132.00  7.5539879E-01
   7132.33  8.2402910E-01
   7132.67  8.9545428E-01
   7133.00  9.6049862E-01
   7133.33  1.0052910E+00
   7133.67  1.0284762E+00
   7134.00  1.0347248E+00
   7134.33  1.0315818E+00
   7134.67  1.0261109E+00
   7135.00  1.0191603E+00
   7135.33  1.0068031E+00
   7135.67  9.8497276E-01
   7136.00  9.5130159E-01
   7136.33  9.0505025E-01
   7136.67  8.5134794E-01
   7137.00  7.9439247E-01
   7137.33  7.3853671E-01
   7137.67  6.8626625E-01
   7138.00  6.3865110E-01
   7138.33  5.9693938E-01
   7138.67  5.6089131E-01
   7139.00  5.3077131E-01
   7139.33  5.0732508E-01
   7139.67  4.8942940E-01
   7140.00  4.7656133E-01
   7140.33  4.6857363E-01
   7140.67  4.6416288E-01
   7141.00  4.6257302E-01
   7141.33  4.6308286E-01
   7141.67  4.6466951E-01
   7142.00  4.6701485E-01
   7142.33  4.7036313E-01
   7142.67  4.7507984E-01
   7143.00  4.8158260E-01
   7143.33  4.9035486E-01
   7143.67  5.0100188E-01
   7144.00  5.1314695E-01
   7144.33  5.2630171E-01
   7144.67  5.3970231E-01
   7145.00  5.5280204E-01
   7145.33  5.6490523E-01
   7145.67  5.7564840E-01
   7146.00  5.8476529E-01
   7146.33  5.9194574E-01
   7146.67  5.9753013E-01
   7147.00  6.0175505E-01
   7147.33  6.0486071E-01
   7147.67  6.0735899E-01
   7148.00  6.0955502E-01
   7148.33  6.1174792E-01
   7148.67  6.1415873E-01
   7149.00  6.1690444E-01
   7149.33  6.2009337E-01
   7149.67  6.2367408E-01
   7150.00  6.2761157E-01
   7150.33  6.3187739E-01
   7150.67  6.3635255E-01
   7151.00  6.4095534E-01
   7151.33  6.4558366E-01
   7151.67  6.5012386E-01
   7152.00  6.5448256E-01
   7152.33  6.5852780E-01
   7152.67  6.6221826E-01
   7153.00  6.6550811E-01
   7153.33  6.6831045E-01
   7153.67  6.7065480E-01
   7154.00  6.7250643E-01
   7154.33  6.7372391E-01
   7154.67  6.7426182E-01
   7155.00  6.7397672E-01
   7155.33  6.7253946E-01
   7155.67  6.6988393E-01
   7156.00  6.6589062E-01
   7156.33  6.6034235E-01
   7156.67  6.5348105E-01
   7157.00  6.4544697E-01
   7157.33  6.3635326E-01
   7157.67  6.2657684E-01
   7158.00  6.1632250E-01
   7158.33  6.0575020E-01
   7158.67  5.9504172E-01
   7159.00  5.8428245E-01
   7159.33  5.7353013E-01
   7159.67  5.6282487E-01
   7160.00  5.5220947E-01
   7160.33  5.4176791E-01
   7160.67  5.3155161E-01
   7161.00  5.2160900E-01
   7161.33  5.1199485E-01
   7161.67  5.0263517E-01
   7162.00  4.9345203E-01
   7162.33  4.8431930E-01
   7162.67  4.7508322E-01
   7163.00  4.6562968E-01
   7163.33  4.5583103E-01
   7163.67  4.4570431E-01
   7164.00  4.3529174E-01
   7164.33  4.2468283E-01
   7164.67  4.1405587E-01
   7165.00  4.0356016E-01
   7165.33  3.9340377E-01
   7165.67  3.8370397E-01
   7166.00  3.7457634E-01
   7166.33  3.6621697E-01
   7166.67  3.5861931E-01
   7167.00  3.5181836E-01
   7167.33  3.4592438E-01
   7167.67  3.4081846E-01
   7168.00  3.3646301E-01
   7168.33  3.3287996E-01
   7168.67  3.2990648E-01
   7169.00  3.2747258E-01
   7169.33  3.2555727E-01
   7169.67  3.2403382E-01
   7170.00  3.2285291E-01
   7170.33  3.2200464E-01
   7170.67  3.2141416E-01
   7171.00  3.2105215E-01
   7171.33  3.2090113E-01
   7171.67  3.2087107E-01
   7172.00  3.2087184E-01
