    FDMNES
    energy     <xanes>
   7097.00  4.8631180E-03
   7097.33  4.9711360E-03
   7097.67  5.0836225E-03
   7098.00  5.2008515E-03
   7098.33  5.3238093E-03
   7098.67  5.4522457E-03
   7099.00  5.5865246E-03
   7099.33  5.7279034E-03
   7099.67  5.8761144E-03
   7100.00  6.0316533E-03
   7100.33  6.1961594E-03
   7100.67  6.3693595E-03
   7101.00  6.5519475E-03
   7101.33  6.7461207E-03
   7101.67  6.9516274E-03
   7102.00  7.1694731E-03
   7102.33  7.4027020E-03
   7102.67  7.6511465E-03
   7103.00  7.9163241E-03
   7103.33  8.2026289E-03
   7103.67  8.5101187E-03
   7104.00  8.8412029E-03
   7104.33  9.2025573E-03
   7104.67  9.5947983E-03
   7105.00  1.0022002E-02
   7105.33  1.0494998E-02
   7105.67  1.1015799E-02
   7106.00  1.1591887E-02
   7106.33  1.2242424E-02
   7106.67  1.2973127E-02
   7107.00  1.3799328E-02
   7107.33  1.4759228E-02
   7107.67  1.5869620E-02
   7108.00  1.7167218E-02
   7108.33  1.8742675E-02
   7108.67  2.0653201E-02
   7109.00  2.3010484E-02
   7109.33  2.6098952E-02
   7109.67  3.0181963E-02
   7110.00  3.5767170E-02
   7110.33  4.4274012E-02
   7110.67  5.7437163E-02
   7111.00  7.7656078E-02
   7111.33  1.0553140E-01
   7111.67  1.3503346E-01
   7112.00  1.7162435E-01
   7112.33  2.2571210E-01
   7112.67  2.7864034E-01
   7113.00  3.0761232E-01
   7113.33  2.9850717E-01
   7113.67  2.6906636E-01
   7114.00  2.3707742E-01
   7114.33  2.0366188E-01
   7114.67  1.7390504E-01
   7115.00  1.5379860E-01
   7115.33  1.4334614E-01
   7115.67  1.3798831E-01
   7116.00  1.3579826E-01
   7116.33  1.3644986E-01
   7116.67  1.4004467E-01
   7117.00  1.4727990E-01
   7117.33  1.5961952E-01
   7117.67  1.7721232E-01
   7118.00  1.9985139E-01
   7118.33  2.2480995E-01
   7118.67  2.4611543E-01
   7119.00  2.6207181E-01
   7119.33  2.7830971E-01
   7119.67  2.9804884E-01
   7120.00  3.1829804E-01
   7120.33  3.3557707E-01
   7120.67  3.5151975E-01
   7121.00  3.6895530E-01
   7121.33  3.9060229E-01
   7121.67  4.1637786E-01
   7122.00  4.4544203E-01
   7122.33  4.7584148E-01
   7122.67  5.0420323E-01
   7123.00  5.2748520E-01
   7123.33  5.4258220E-01
   7123.67  5.5092621E-01
   7124.00  5.5486365E-01
   7124.33  5.5753674E-01
   7124.67  5.6114024E-01
   7125.00  5.6590241E-01
   7125.33  5.7088772E-01
   7125.67  5.7463854E-01
   7126.00  5.7608146E-01
   7126.33  5.7448247E-01
   7126.67  5.7115074E-01
   7127.00  5.6768503E-01
   7127.33  5.6577603E-01
   7127.67  5.6454145E-01
   7128.00  5.6122398E-01
   7128.33  5.5353930E-01
   7128.67  5.4492463E-01
   7129.00  5.3878849E-01
   7129.33  5.3675403E-01
   7129.67  5.3742939E-01
   7130.00  5.3981137E-01
   7130.33  5.4322815E-01
   7130.67  5.4703513E-01
   7131.00  5.5083070E-01
   7131.33  5.5404904E-01
   7131.67  5.5621341E-01
   7132.00  5.5695128E-01
   7132.33  5.5596564E-01
   7132.67  5.5378390E-01
   7133.00  5.5094321E-01
   7133.33  5.4812184E-01
   7133.67  5.4585486E-01
   7134.00  5.4442691E-01
   7134.33  5.4409081E-01
   7134.67  5.4467899E-01
   7135.00  5.4603974E-01
   7135.33  5.4795219E-01
   7135.67  5.4998109E-01
   7136.00  5.5176215E-01
   7136.33  5.5282182E-01
   7136.67  5.5301154E-01
   7137.00  5.5234951E-01
   7137.33  5.5100585E-01
   7137.67  5.4939202E-01
   7138.00  5.4774357E-01
   7138.33  5.4621426E-01
   7138.67  5.4480207E-01
   7139.00  5.4346216E-01
   7139.33  5.4214002E-01
   7139.67  5.4080466E-01
   7140.00  5.3945593E-01
   7140.33  5.3810701E-01
   7140.67  5.3676294E-01
   7141.00  5.3540644E-01
   7141.33  5.3397667E-01
   7141.67  5.3240085E-01
   7142.00  5.3060160E-01
   7142.33  5.2846954E-01
   7142.67  5.2602153E-01
   7143.00  5.2330380E-01
   7143.33  5.2042823E-01
   7143.67  5.1760808E-01
   7144.00  5.1505163E-01
   7144.33  5.1307049E-01
   7144.67  5.1180059E-01
   7145.00  5.1134262E-01
   7145.33  5.1181902E-01
   7145.67  5.1304309E-01
   7146.00  5.1488094E-01
   7146.33  5.1719058E-01
   7146.67  5.1972227E-01
   7147.00  5.2232840E-01
   7147.33  5.2486761E-01
   7147.67  5.2725027E-01
   7148.00  5.2940988E-01
   7148.33  5.3123242E-01
   7148.67  5.3266626E-01
   7149.00  5.3362302E-01
   7149.33  5.3392159E-01
   7149.67  5.3353652E-01
   7150.00  5.3240236E-01
   7150.33  5.3037391E-01
   7150.67  5.2753968E-01
   7151.00  5.2391639E-01
   7151.33  5.1945212E-01
   7151.67  5.1429504E-01
   7152.00  5.0849688E-01
   7152.33  5.0204713E-01
   7152.67  4.9508083E-01
   7153.00  4.8766326E-01
   7153.33  4.7984851E-01
   7153.67  4.7179555E-01
   7154.00  4.6360573E-01
   7154.33  4.5538914E-01
   7154.67  4.4725115E-01
   7155.00  4.3926804E-01
   7155.33  4.3154166E-01
   7155.67  4.2409934E-01
   7156.00  4.1697633E-01
   7156.33  4.1024623E-01
   7156.67  4.0388715E-01
   7157.00  3.9791354E-01
   7157.33  3.9238873E-01
   7157.67  3.8727527E-01
   7158.00  3.8258446E-01
   7158.33  3.7838539E-01
   7158.67  3.7463936E-01
   7159.00  3.7136056E-01
   7159.33  3.6862439E-01
   7159.67  3.6638179E-01
   7160.00  3.6463710E-01
   7160.33  3.6344793E-01
   7160.67  3.6273720E-01
   7161.00  3.6248282E-01
   7161.33  3.6270258E-01
   7161.67  3.6330165E-01
   7162.00  3.6424068E-01
   7162.33  3.6550859E-01
   7162.67  3.6702501E-01
   7163.00  3.6875899E-01
   7163.33  3.7070603E-01
   7163.67  3.7282214E-01
   7164.00  3.7509517E-01
   7164.33  3.7753421E-01
   7164.67  3.8011479E-01
   7165.00  3.8283318E-01
   7165.33  3.8570287E-01
   7165.67  3.8870318E-01
   7166.00  3.9182897E-01
   7166.33  3.9508681E-01
   7166.67  3.9845215E-01
   7167.00  4.0191520E-01
   7167.33  4.0547344E-01
   7167.67  4.0910133E-01
   7168.00  4.1278508E-01
   7168.33  4.1651286E-01
   7168.67  4.2026173E-01
   7169.00  4.2401483E-01
   7169.33  4.2774958E-01
   7169.67  4.3144662E-01
   7170.00  4.3508637E-01
   7170.33  4.3863353E-01
   7170.67  4.4206710E-01
   7171.00  4.4534909E-01
   7171.33  4.4838157E-01
   7171.67  4.5106896E-01
   7172.00  4.5325348E-01
