    FDMNES
    energy     <xanes>
   7097.00  5.3032268E-03
   7097.33  5.4329993E-03
   7097.67  5.5688066E-03
   7098.00  5.7110604E-03
   7098.33  5.8611621E-03
   7098.67  6.0188291E-03
   7099.00  6.1846207E-03
   7099.33  6.3603682E-03
   7099.67  6.5457791E-03
   7100.00  6.7416325E-03
   7100.33  6.9503797E-03
   7100.67  7.1717430E-03
   7101.00  7.4068388E-03
   7101.33  7.6590430E-03
   7101.67  7.9281470E-03
   7102.00  8.2158053E-03
   7102.33  8.5268271E-03
   7102.67  8.8611915E-03
   7103.00  9.2214508E-03
   7103.33  9.6147411E-03
   7103.67  1.0041494E-02
   7104.00  1.0505843E-02
   7104.33  1.1018923E-02
   7104.67  1.1582231E-02
   7105.00  1.2202883E-02
   7105.33  1.2899384E-02
   7105.67  1.3675822E-02
   7106.00  1.4545443E-02
   7106.33  1.5541655E-02
   7106.67  1.6675308E-02
   7107.00  1.7973773E-02
   7107.33  1.9504602E-02
   7107.67  2.1298596E-02
   7108.00  2.3421423E-02
   7108.33  2.6034372E-02
   7108.67  2.9240096E-02
   7109.00  3.3237331E-02
   7109.33  3.8530467E-02
   7109.67  4.5584309E-02
   7110.00  5.5290947E-02
   7110.33  7.0109118E-02
   7110.67  9.2750109E-02
   7111.00  1.2632021E-01
   7111.33  1.7549044E-01
   7111.67  2.4248029E-01
   7112.00  3.1904914E-01
   7112.33  3.8209725E-01
   7112.67  4.4037473E-01
   7113.00  5.1291355E-01
   7113.33  5.8037943E-01
   7113.67  5.8748080E-01
   7114.00  5.3469439E-01
   7114.33  4.6486321E-01
   7114.67  3.9955619E-01
   7115.00  3.4527070E-01
   7115.33  3.0768010E-01
   7115.67  2.8193342E-01
   7116.00  2.6214261E-01
   7116.33  2.4312210E-01
   7116.67  2.2429812E-01
   7117.00  2.0689512E-01
   7117.33  1.9154088E-01
   7117.67  1.7768552E-01
   7118.00  1.6545746E-01
   7118.33  1.5552218E-01
   7118.67  1.4757417E-01
   7119.00  1.4122049E-01
   7119.33  1.3608112E-01
   7119.67  1.3166128E-01
   7120.00  1.2790211E-01
   7120.33  1.2522675E-01
   7120.67  1.2391580E-01
   7121.00  1.2397625E-01
   7121.33  1.2521077E-01
   7121.67  1.2723433E-01
   7122.00  1.2996781E-01
   7122.33  1.3348449E-01
   7122.67  1.3776282E-01
   7123.00  1.4292706E-01
   7123.33  1.4932517E-01
   7123.67  1.5708542E-01
   7124.00  1.6646836E-01
   7124.33  1.7806487E-01
   7124.67  1.9205466E-01
   7125.00  2.0891087E-01
   7125.33  2.2972827E-01
   7125.67  2.5459736E-01
   7126.00  2.8351367E-01
   7126.33  3.1568175E-01
   7126.67  3.4786630E-01
   7127.00  3.7677866E-01
   7127.33  3.9915484E-01
   7127.67  4.1637419E-01
   7128.00  4.3132133E-01
   7128.33  4.4846507E-01
   7128.67  4.7091742E-01
   7129.00  5.0017990E-01
   7129.33  5.3738810E-01
   7129.67  5.8056933E-01
   7130.00  6.2806423E-01
   7130.33  6.7814359E-01
   7130.67  7.2913389E-01
   7131.00  7.8053191E-01
   7131.33  8.3220537E-01
   7131.67  8.8376155E-01
   7132.00  9.3430561E-01
   7132.33  9.8127277E-01
   7132.67  1.0211564E+00
   7133.00  1.0492020E+00
   7133.33  1.0576219E+00
   7133.67  1.0458820E+00
   7134.00  1.0154383E+00
   7134.33  9.6957997E-01
   7134.67  9.1589303E-01
   7135.00  8.5856727E-01
   7135.33  8.0098333E-01
   7135.67  7.4528827E-01
   7136.00  6.9262985E-01
   7136.33  6.4440647E-01
   7136.67  6.0079530E-01
   7137.00  5.6227190E-01
   7137.33  5.2996012E-01
   7137.67  5.0344106E-01
   7138.00  4.8278545E-01
   7138.33  4.6852132E-01
   7138.67  4.5943107E-01
   7139.00  4.5485369E-01
   7139.33  4.5432991E-01
   7139.67  4.5651643E-01
   7140.00  4.6077006E-01
   7140.33  4.6673358E-01
   7140.67  4.7387448E-01
   7141.00  4.8201712E-01
   7141.33  4.9113454E-01
   7141.67  5.0099720E-01
   7142.00  5.1148044E-01
   7142.33  5.2245599E-01
   7142.67  5.3364999E-01
   7143.00  5.4485735E-01
   7143.33  5.5580893E-01
   7143.67  5.6630393E-01
   7144.00  5.7616069E-01
   7144.33  5.8508469E-01
   7144.67  5.9301129E-01
   7145.00  5.9981463E-01
   7145.33  6.0521802E-01
   7145.67  6.0928901E-01
   7146.00  6.1198398E-01
   7146.33  6.1312291E-01
   7146.67  6.1292477E-01
   7147.00  6.1147773E-01
   7147.33  6.0879186E-01
   7147.67  6.0517968E-01
   7148.00  6.0080843E-01
   7148.33  5.9581490E-01
   7148.67  5.9047386E-01
   7149.00  5.8495312E-01
   7149.33  5.7943197E-01
   7149.67  5.7407226E-01
   7150.00  5.6899743E-01
   7150.33  5.6437514E-01
   7150.67  5.6024816E-01
   7151.00  5.5668218E-01
   7151.33  5.5381373E-01
   7151.67  5.5160349E-01
   7152.00  5.5006815E-01
   7152.33  5.4929446E-01
   7152.67  5.4918234E-01
   7153.00  5.4970562E-01
   7153.33  5.5089453E-01
   7153.67  5.5261954E-01
   7154.00  5.5482591E-01
   7154.33  5.5749615E-01
   7154.67  5.6050642E-01
   7155.00  5.6379343E-01
   7155.33  5.6730884E-01
   7155.67  5.7095443E-01
   7156.00  5.7466875E-01
   7156.33  5.7838152E-01
   7156.67  5.8202377E-01
   7157.00  5.8553643E-01
   7157.33  5.8882588E-01
   7157.67  5.9184756E-01
   7158.00  5.9454144E-01
   7158.33  5.9678724E-01
   7158.67  5.9856335E-01
   7159.00  5.9980971E-01
   7159.33  6.0038898E-01
   7159.67  6.0032310E-01
   7160.00  5.9957852E-01
   7160.33  5.9804442E-01
   7160.67  5.9580527E-01
   7161.00  5.9287476E-01
   7161.33  5.8920228E-01
   7161.67  5.8491983E-01
   7162.00  5.8008716E-01
   7162.33  5.7472516E-01
   7162.67  5.6897315E-01
   7163.00  5.6290258E-01
   7163.33  5.5656728E-01
   7163.67  5.5007292E-01
   7164.00  5.4347606E-01
   7164.33  5.3682407E-01
   7164.67  5.3016475E-01
   7165.00  5.2352501E-01
   7165.33  5.1693224E-01
   7165.67  5.1039642E-01
   7166.00  5.0392588E-01
   7166.33  4.9753443E-01
   7166.67  4.9121644E-01
   7167.00  4.8497511E-01
   7167.33  4.7882549E-01
   7167.67  4.7276537E-01
   7168.00  4.6680576E-01
   7168.33  4.6097848E-01
   7168.67  4.5528939E-01
   7169.00  4.4975938E-01
   7169.33  4.4443470E-01
   7169.67  4.3931568E-01
   7170.00  4.3442610E-01
   7170.33  4.2982888E-01
   7170.67  4.2552566E-01
   7171.00  4.2155261E-01
   7171.33  4.1801787E-01
   7171.67  4.1496987E-01
   7172.00  4.1252603E-01
