    FDMNES
    energy     <xanes>
   7097.00  5.1844980E-03
   7097.33  5.3122881E-03
   7097.67  5.4461090E-03
   7098.00  5.5863806E-03
   7098.33  5.7345179E-03
   7098.67  5.8902509E-03
   7099.00  6.0541540E-03
   7099.33  6.2280883E-03
   7099.67  6.4117800E-03
   7100.00  6.6060358E-03
   7100.33  6.8133671E-03
   7100.67  7.0335257E-03
   7101.00  7.2676797E-03
   7101.33  7.5193221E-03
   7101.67  7.7882954E-03
   7102.00  8.0763530E-03
   7102.33  8.3885320E-03
   7102.67  8.7249093E-03
   7103.00  9.0882329E-03
   7103.33  9.4860944E-03
   7103.67  9.9191301E-03
   7104.00  1.0391881E-02
   7104.33  1.0916436E-02
   7104.67  1.1494763E-02
   7105.00  1.2134889E-02
   7105.33  1.2857465E-02
   7105.67  1.3667782E-02
   7106.00  1.4581334E-02
   7106.33  1.5636871E-02
   7106.67  1.6848757E-02
   7107.00  1.8250736E-02
   7107.33  1.9925787E-02
   7107.67  2.1917002E-02
   7108.00  2.4312116E-02
   7108.33  2.7328115E-02
   7108.67  3.1123751E-02
   7109.00  3.6001382E-02
   7109.33  4.2750976E-02
   7109.67  5.2221027E-02
   7110.00  6.6071217E-02
   7110.33  8.9067118E-02
   7110.67  1.2657886E-01
   7111.00  1.8156010E-01
   7111.33  2.3882338E-01
   7111.67  2.7433388E-01
   7112.00  2.9579673E-01
   7112.33  3.3708981E-01
   7112.67  4.0554758E-01
   7113.00  4.8849509E-01
   7113.33  5.5360025E-01
   7113.67  5.7368603E-01
   7114.00  5.3683960E-01
   7114.33  4.5371404E-01
   7114.67  3.6618846E-01
   7115.00  2.9420113E-01
   7115.33  2.4484827E-01
   7115.67  2.1183019E-01
   7116.00  1.9071596E-01
   7116.33  1.7749549E-01
   7116.67  1.6719247E-01
   7117.00  1.5836291E-01
   7117.33  1.5187929E-01
   7117.67  1.4748728E-01
   7118.00  1.4395983E-01
   7118.33  1.3987776E-01
   7118.67  1.3506934E-01
   7119.00  1.3001293E-01
   7119.33  1.2575042E-01
   7119.67  1.2313086E-01
   7120.00  1.2240747E-01
   7120.33  1.2358178E-01
   7120.67  1.2616042E-01
   7121.00  1.2964502E-01
   7121.33  1.3378961E-01
   7121.67  1.3903949E-01
   7122.00  1.4585293E-01
   7122.33  1.5443219E-01
   7122.67  1.6407841E-01
   7123.00  1.7441559E-01
   7123.33  1.8579618E-01
   7123.67  1.9875063E-01
   7124.00  2.1358329E-01
   7124.33  2.3010286E-01
   7124.67  2.4670031E-01
   7125.00  2.6135880E-01
   7125.33  2.7124162E-01
   7125.67  2.7659020E-01
   7126.00  2.7950998E-01
   7126.33  2.8357253E-01
   7126.67  2.9089512E-01
   7127.00  3.0204407E-01
   7127.33  3.1732555E-01
   7127.67  3.3599327E-01
   7128.00  3.5794783E-01
   7128.33  3.8344351E-01
   7128.67  4.1143025E-01
   7129.00  4.4078298E-01
   7129.33  4.7032507E-01
   7129.67  5.0037180E-01
   7130.00  5.3254954E-01
   7130.33  5.6917131E-01
   7130.67  6.0994554E-01
   7131.00  6.5355331E-01
   7131.33  6.9763104E-01
   7131.67  7.4024612E-01
   7132.00  7.8139031E-01
   7132.33  8.2330589E-01
   7132.67  8.6855183E-01
   7133.00  9.1745642E-01
   7133.33  9.6637568E-01
   7133.67  1.0077395E+00
   7134.00  1.0335655E+00
   7134.33  1.0338535E+00
   7134.67  1.0108342E+00
   7135.00  9.6898883E-01
   7135.33  9.1384346E-01
   7135.67  8.5352478E-01
   7136.00  7.9302997E-01
   7136.33  7.3730492E-01
   7136.67  6.8829995E-01
   7137.00  6.4675507E-01
   7137.33  6.1339947E-01
   7137.67  5.8660561E-01
   7138.00  5.6565138E-01
   7138.33  5.5039055E-01
   7138.67  5.3953225E-01
   7139.00  5.3258809E-01
   7139.33  5.2943779E-01
   7139.67  5.2910550E-01
   7140.00  5.3110886E-01
   7140.33  5.3512045E-01
   7140.67  5.4039586E-01
   7141.00  5.4651480E-01
   7141.33  5.5305620E-01
   7141.67  5.5952494E-01
   7142.00  5.6557342E-01
   7142.33  5.7081315E-01
   7142.67  5.7522382E-01
   7143.00  5.7889070E-01
   7143.33  5.8203175E-01
   7143.67  5.8507824E-01
   7144.00  5.8833846E-01
   7144.33  5.9213069E-01
   7144.67  5.9649702E-01
   7145.00  6.0138931E-01
   7145.33  6.0665831E-01
   7145.67  6.1196908E-01
   7146.00  6.1703113E-01
   7146.33  6.2144845E-01
   7146.67  6.2503363E-01
   7147.00  6.2762911E-01
   7147.33  6.2899513E-01
   7147.67  6.2925460E-01
   7148.00  6.2846230E-01
   7148.33  6.2663224E-01
   7148.67  6.2405679E-01
   7149.00  6.2090061E-01
   7149.33  6.1730036E-01
   7149.67  6.1346986E-01
   7150.00  6.0952377E-01
   7150.33  6.0555825E-01
   7150.67  6.0163434E-01
   7151.00  5.9777158E-01
   7151.33  5.9397220E-01
   7151.67  5.9020583E-01
   7152.00  5.8644646E-01
   7152.33  5.8266371E-01
   7152.67  5.7884454E-01
   7153.00  5.7499013E-01
   7153.33  5.7111795E-01
   7153.67  5.6726757E-01
   7154.00  5.6348244E-01
   7154.33  5.5983463E-01
   7154.67  5.5636335E-01
   7155.00  5.5310668E-01
   7155.33  5.5012280E-01
   7155.67  5.4738835E-01
   7156.00  5.4489266E-01
   7156.33  5.4263176E-01
   7156.67  5.4053382E-01
   7157.00  5.3855057E-01
   7157.33  5.3662689E-01
   7157.67  5.3469467E-01
   7158.00  5.3270551E-01
   7158.33  5.3059867E-01
   7158.67  5.2835134E-01
   7159.00  5.2594335E-01
   7159.33  5.2334182E-01
   7159.67  5.2056830E-01
   7160.00  5.1762985E-01
   7160.33  5.1452078E-01
   7160.67  5.1127677E-01
   7161.00  5.0791236E-01
   7161.33  5.0442596E-01
   7161.67  5.0083825E-01
   7162.00  4.9715716E-01
   7162.33  4.9337862E-01
   7162.67  4.8951719E-01
   7163.00  4.8558044E-01
   7163.33  4.8157458E-01
   7163.67  4.7752382E-01
   7164.00  4.7344390E-01
   7164.33  4.6935150E-01
   7164.67  4.6526310E-01
   7165.00  4.6118871E-01
   7165.33  4.5713811E-01
   7165.67  4.5311013E-01
   7166.00  4.4910275E-01
   7166.33  4.4511292E-01
   7166.67  4.4113265E-01
   7167.00  4.3715878E-01
   7167.33  4.3319402E-01
   7167.67  4.2925008E-01
   7168.00  4.2534979E-01
   7168.33  4.2153861E-01
   7168.67  4.1784420E-01
   7169.00  4.1429926E-01
   7169.33  4.1096608E-01
   7169.67  4.0785856E-01
   7170.00  4.0500575E-01
   7170.33  4.0247127E-01
   7170.67  4.0024016E-01
   7171.00  3.9832283E-01
   7171.33  3.9676258E-01
   7171.67  3.9551308E-01
   7172.00  3.9455640E-01
