    FDMNES
    energy     <xanes>
   7097.00  5.2096898E-03
   7097.33  5.3335588E-03
   7097.67  5.4631387E-03
   7098.00  5.5988211E-03
   7098.33  5.7419361E-03
   7098.67  5.8922201E-03
   7099.00  6.0502075E-03
   7099.33  6.2176416E-03
   7099.67  6.3942532E-03
   7100.00  6.5807906E-03
   7100.33  6.7795979E-03
   7100.67  6.9904266E-03
   7101.00  7.2143569E-03
   7101.33  7.4546369E-03
   7101.67  7.7110976E-03
   7102.00  7.9853551E-03
   7102.33  8.2820753E-03
   7102.67  8.6012981E-03
   7103.00  8.9455478E-03
   7103.33  9.3218281E-03
   7103.67  9.7306800E-03
   7104.00  1.0176260E-02
   7104.33  1.0669672E-02
   7104.67  1.1212651E-02
   7105.00  1.1812514E-02
   7105.33  1.2488134E-02
   7105.67  1.3244221E-02
   7106.00  1.4094822E-02
   7106.33  1.5075131E-02
   7106.67  1.6197928E-02
   7107.00  1.7493569E-02
   7107.33  1.9036743E-02
   7107.67  2.0865480E-02
   7108.00  2.3057684E-02
   7108.33  2.5805678E-02
   7108.67  2.9246925E-02
   7109.00  3.3643396E-02
   7109.33  3.9674745E-02
   7109.67  4.8049374E-02
   7110.00  6.0144598E-02
   7110.33  7.9887782E-02
   7110.67  1.1181787E-01
   7111.00  1.5964958E-01
   7111.33  2.1770727E-01
   7111.67  2.7087819E-01
   7112.00  3.1244158E-01
   7112.33  3.3900351E-01
   7112.67  3.6900631E-01
   7113.00  4.1630036E-01
   7113.33  4.5639059E-01
   7113.67  4.6494295E-01
   7114.00  4.4474013E-01
   7114.33  3.9653624E-01
   7114.67  3.4142387E-01
   7115.00  2.9482374E-01
   7115.33  2.6345754E-01
   7115.67  2.4353975E-01
   7116.00  2.3187493E-01
   7116.33  2.2487446E-01
   7116.67  2.1716440E-01
   7117.00  2.0426599E-01
   7117.33  1.8457347E-01
   7117.67  1.6418128E-01
   7118.00  1.4731534E-01
   7118.33  1.3594452E-01
   7118.67  1.2890936E-01
   7119.00  1.2548886E-01
   7119.33  1.2501521E-01
   7119.67  1.2590895E-01
   7120.00  1.2714751E-01
   7120.33  1.2787696E-01
   7120.67  1.2783637E-01
   7121.00  1.2713546E-01
   7121.33  1.2626155E-01
   7121.67  1.2594736E-01
   7122.00  1.2679716E-01
   7122.33  1.2955180E-01
   7122.67  1.3427493E-01
   7123.00  1.4105566E-01
   7123.33  1.5016904E-01
   7123.67  1.6128289E-01
   7124.00  1.7428019E-01
   7124.33  1.8925337E-01
   7124.67  2.0583136E-01
   7125.00  2.2375276E-01
   7125.33  2.4280370E-01
   7125.67  2.6284341E-01
   7126.00  2.8421903E-01
   7126.33  3.0753232E-01
   7126.67  3.3200125E-01
   7127.00  3.5610408E-01
   7127.33  3.7806798E-01
   7127.67  3.9845531E-01
   7128.00  4.1887380E-01
   7128.33  4.4147395E-01
   7128.67  4.6700327E-01
   7129.00  4.9568560E-01
   7129.33  5.2809123E-01
   7129.67  5.6395330E-01
   7130.00  6.0312834E-01
   7130.33  6.4499294E-01
   7130.67  6.8736164E-01
   7131.00  7.2830789E-01
   7131.33  7.6608449E-01
   7131.67  8.0127431E-01
   7132.00  8.3485635E-01
   7132.33  8.6752116E-01
   7132.67  8.9918487E-01
   7133.00  9.2900567E-01
   7133.33  9.5503263E-01
   7133.67  9.7566729E-01
   7134.00  9.8894281E-01
   7134.33  9.9168736E-01
   7134.67  9.8416434E-01
   7135.00  9.6683326E-01
   7135.33  9.4043412E-01
   7135.67  9.0833277E-01
   7136.00  8.7251336E-01
   7136.33  8.3468627E-01
   7136.67  7.9655360E-01
   7137.00  7.5909632E-01
   7137.33  7.2343680E-01
   7137.67  6.9014125E-01
   7138.00  6.5976337E-01
   7138.33  6.3323052E-01
   7138.67  6.1041371E-01
   7139.00  5.9137726E-01
   7139.33  5.7641987E-01
   7139.67  5.6472853E-01
   7140.00  5.5588710E-01
   7140.33  5.4964326E-01
   7140.67  5.4517197E-01
   7141.00  5.4205778E-01
   7141.33  5.4000665E-01
   7141.67  5.3856562E-01
   7142.00  5.3750188E-01
   7142.33  5.3661489E-01
   7142.67  5.3570942E-01
   7143.00  5.3466442E-01
   7143.33  5.3333758E-01
   7143.67  5.3168018E-01
   7144.00  5.2964864E-01
   7144.33  5.2717280E-01
   7144.67  5.2431302E-01
   7145.00  5.2110237E-01
   7145.33  5.1756635E-01
   7145.67  5.1382030E-01
   7146.00  5.0993888E-01
   7146.33  5.0600175E-01
   7146.67  5.0209261E-01
   7147.00  4.9826774E-01
   7147.33  4.9459187E-01
   7147.67  4.9107056E-01
   7148.00  4.8770834E-01
   7148.33  4.8452970E-01
   7148.67  4.8152033E-01
   7149.00  4.7868871E-01
   7149.33  4.7608555E-01
   7149.67  4.7372481E-01
   7150.00  4.7164101E-01
   7150.33  4.6992052E-01
   7150.67  4.6857916E-01
   7151.00  4.6767192E-01
   7151.33  4.6732871E-01
   7151.67  4.6755018E-01
   7152.00  4.6838043E-01
   7152.33  4.6993011E-01
   7152.67  4.7212106E-01
   7153.00  4.7492892E-01
   7153.33  4.7836654E-01
   7153.67  4.8228065E-01
   7154.00  4.8658465E-01
   7154.33  4.9120511E-01
   7154.67  4.9599877E-01
   7155.00  5.0087790E-01
   7155.33  5.0574712E-01
   7155.67  5.1051988E-01
   7156.00  5.1512693E-01
   7156.33  5.1946747E-01
   7156.67  5.2350977E-01
   7157.00  5.2720849E-01
   7157.33  5.3047116E-01
   7157.67  5.3331250E-01
   7158.00  5.3571269E-01
   7158.33  5.3760426E-01
   7158.67  5.3904662E-01
   7159.00  5.4005348E-01
   7159.33  5.4060263E-01
   7159.67  5.4078531E-01
   7160.00  5.4064342E-01
   7160.33  5.4019984E-01
   7160.67  5.3954728E-01
   7161.00  5.3873191E-01
   7161.33  5.3778761E-01
   7161.67  5.3676893E-01
   7162.00  5.3570313E-01
   7162.33  5.3461020E-01
   7162.67  5.3349857E-01
   7163.00  5.3235808E-01
   7163.33  5.3117665E-01
   7163.67  5.2995382E-01
   7164.00  5.2868106E-01
   7164.33  5.2733477E-01
   7164.67  5.2590647E-01
   7165.00  5.2438324E-01
   7165.33  5.2273860E-01
   7165.67  5.2097720E-01
   7166.00  5.1909573E-01
   7166.33  5.1707995E-01
   7166.67  5.1495082E-01
   7167.00  5.1271813E-01
   7167.33  5.1038602E-01
   7167.67  5.0798354E-01
   7168.00  5.0552842E-01
   7168.33  5.0303954E-01
   7168.67  5.0054440E-01
   7169.00  4.9806499E-01
   7169.33  4.9563572E-01
   7169.67  4.9327571E-01
   7170.00  4.9100192E-01
   7170.33  4.8884658E-01
   7170.67  4.8681633E-01
   7171.00  4.8493086E-01
   7171.33  4.8324391E-01
   7171.67  4.8178507E-01
   7172.00  4.8061735E-01
