    FDMNES
    energy     <xanes>
   7097.00  5.3013715E-03
   7097.33  5.4309010E-03
   7097.67  5.5665233E-03
   7098.00  5.7086637E-03
   7098.33  5.8587545E-03
   7098.67  6.0165252E-03
   7099.00  6.1825599E-03
   7099.33  6.3587465E-03
   7099.67  6.5448137E-03
   7100.00  6.7415854E-03
   7100.33  6.9516175E-03
   7100.67  7.1746710E-03
   7101.00  7.4119459E-03
   7101.33  7.6670144E-03
   7101.67  7.9397428E-03
   7102.00  8.2319462E-03
   7102.33  8.5488125E-03
   7102.67  8.8904750E-03
   7103.00  9.2598085E-03
   7103.33  9.6647086E-03
   7103.67  1.0105946E-02
   7104.00  1.0588339E-02
   7104.33  1.1124631E-02
   7104.67  1.1717124E-02
   7105.00  1.2374493E-02
   7105.33  1.3118916E-02
   7105.67  1.3956579E-02
   7106.00  1.4904635E-02
   7106.33  1.6005759E-02
   7106.67  1.7276992E-02
   7107.00  1.8756875E-02
   7107.33  2.0539947E-02
   7107.67  2.2678627E-02
   7108.00  2.5277214E-02
   7108.33  2.8594205E-02
   7108.67  3.2829521E-02
   7109.00  3.8360731E-02
   7109.33  4.6182090E-02
   7109.67  5.7407173E-02
   7110.00  7.4216460E-02
   7110.33  1.0287643E-01
   7110.67  1.5009320E-01
   7111.00  2.1768855E-01
   7111.33  2.8575663E-01
   7111.67  3.3530244E-01
   7112.00  3.6879621E-01
   7112.33  3.9147837E-01
   7112.67  4.0153751E-01
   7113.00  3.9633507E-01
   7113.33  3.7506639E-01
   7113.67  3.4481116E-01
   7114.00  3.1280938E-01
   7114.33  2.8634724E-01
   7114.67  2.6755638E-01
   7115.00  2.5656002E-01
   7115.33  2.5253782E-01
   7115.67  2.5126248E-01
   7116.00  2.4872670E-01
   7116.33  2.4100218E-01
   7116.67  2.2898231E-01
   7117.00  2.1490688E-01
   7117.33  2.0119234E-01
   7117.67  1.8900219E-01
   7118.00  1.7865958E-01
   7118.33  1.7038499E-01
   7118.67  1.6377423E-01
   7119.00  1.5863490E-01
   7119.33  1.5490606E-01
   7119.67  1.5228907E-01
   7120.00  1.5078585E-01
   7120.33  1.5073217E-01
   7120.67  1.5221801E-01
   7121.00  1.5536045E-01
   7121.33  1.6030251E-01
   7121.67  1.6670596E-01
   7122.00  1.7449986E-01
   7122.33  1.8382682E-01
   7122.67  1.9447606E-01
   7123.00  2.0638180E-01
   7123.33  2.1961649E-01
   7123.67  2.3403034E-01
   7124.00  2.4973691E-01
   7124.33  2.6724594E-01
   7124.67  2.8685449E-01
   7125.00  3.0907756E-01
   7125.33  3.3477846E-01
   7125.67  3.6361207E-01
   7126.00  3.9506125E-01
   7126.33  4.2783296E-01
   7126.67  4.5971674E-01
   7127.00  4.8904090E-01
   7127.33  5.1424507E-01
   7127.67  5.3594235E-01
   7128.00  5.5506263E-01
   7128.33  5.7282630E-01
   7128.67  5.9056212E-01
   7129.00  6.0895469E-01
   7129.33  6.2848028E-01
   7129.67  6.4887942E-01
   7130.00  6.6969753E-01
   7130.33  6.9008604E-01
   7130.67  7.0918563E-01
   7131.00  7.2629708E-01
   7131.33  7.4055186E-01
   7131.67  7.5209733E-01
   7132.00  7.6109232E-01
   7132.33  7.6771492E-01
   7132.67  7.7277255E-01
   7133.00  7.7668642E-01
   7133.33  7.7965967E-01
   7133.67  7.8179877E-01
   7134.00  7.8282411E-01
   7134.33  7.8188104E-01
   7134.67  7.7830844E-01
   7135.00  7.7128726E-01
   7135.33  7.5947685E-01
   7135.67  7.4301294E-01
   7136.00  7.2204993E-01
   7136.33  6.9694393E-01
   7136.67  6.6953200E-01
   7137.00  6.4123563E-01
   7137.33  6.1379070E-01
   7137.67  5.8847796E-01
   7138.00  5.6614531E-01
   7138.33  5.4779695E-01
   7138.67  5.3313825E-01
   7139.00  5.2204024E-01
   7139.33  5.1456262E-01
   7139.67  5.0985970E-01
   7140.00  5.0753826E-01
   7140.33  5.0742056E-01
   7140.67  5.0890160E-01
   7141.00  5.1172439E-01
   7141.33  5.1577252E-01
   7141.67  5.2068315E-01
   7142.00  5.2625713E-01
   7142.33  5.3228116E-01
   7142.67  5.3839695E-01
   7143.00  5.4430116E-01
   7143.33  5.4953038E-01
   7143.67  5.5376345E-01
   7144.00  5.5668929E-01
   7144.33  5.5782992E-01
   7144.67  5.5723922E-01
   7145.00  5.5492280E-01
   7145.33  5.5083960E-01
   7145.67  5.4547065E-01
   7146.00  5.3912570E-01
   7146.33  5.3211775E-01
   7146.67  5.2488955E-01
   7147.00  5.1771875E-01
   7147.33  5.1091029E-01
   7147.67  5.0463146E-01
   7148.00  4.9902095E-01
   7148.33  4.9428218E-01
   7148.67  4.9038033E-01
   7149.00  4.8734665E-01
   7149.33  4.8530745E-01
   7149.67  4.8414835E-01
   7150.00  4.8385349E-01
   7150.33  4.8449988E-01
   7150.67  4.8594611E-01
   7151.00  4.8815091E-01
   7151.33  4.9113965E-01
   7151.67  4.9474802E-01
   7152.00  4.9889842E-01
   7152.33  5.0354524E-01
   7152.67  5.0852534E-01
   7153.00  5.1374405E-01
   7153.33  5.1910951E-01
   7153.67  5.2450336E-01
   7154.00  5.2984638E-01
   7154.33  5.3504349E-01
   7154.67  5.4004762E-01
   7155.00  5.4481690E-01
   7155.33  5.4928306E-01
   7155.67  5.5345837E-01
   7156.00  5.5733291E-01
   7156.33  5.6086501E-01
   7156.67  5.6409478E-01
   7157.00  5.6702641E-01
   7157.33  5.6962939E-01
   7157.67  5.7194591E-01
   7158.00  5.7397946E-01
   7158.33  5.7569665E-01
   7158.67  5.7713008E-01
   7159.00  5.7827355E-01
   7159.33  5.7907925E-01
   7159.67  5.7957218E-01
   7160.00  5.7974013E-01
   7160.33  5.7952592E-01
   7160.67  5.7895746E-01
   7161.00  5.7801816E-01
   7161.33  5.7662918E-01
   7161.67  5.7482139E-01
   7162.00  5.7258948E-01
   7162.33  5.6987796E-01
   7162.67  5.6674211E-01
   7163.00  5.6318862E-01
   7163.33  5.5918099E-01
   7163.67  5.5479131E-01
   7164.00  5.5004463E-01
   7164.33  5.4493564E-01
   7164.67  5.3954602E-01
   7165.00  5.3391716E-01
   7165.33  5.2807870E-01
   7165.67  5.2211019E-01
   7166.00  5.1606215E-01
   7166.33  5.0999145E-01
   7166.67  5.0395916E-01
   7167.00  4.9801812E-01
   7167.33  4.9224516E-01
   7167.67  4.8666674E-01
   7168.00  4.8131523E-01
   7168.33  4.7625488E-01
   7168.67  4.7147913E-01
   7169.00  4.6700520E-01
   7169.33  4.6288603E-01
   7169.67  4.5908900E-01
   7170.00  4.5561532E-01
   7170.33  4.5250282E-01
   7170.67  4.4970757E-01
   7171.00  4.4722762E-01
   7171.33  4.4510696E-01
   7171.67  4.4332499E-01
   7172.00  4.4191247E-01
