    FDMNES
    energy     <xanes>
   7097.00  4.0025571E-03
   7097.33  4.0785498E-03
   7097.67  4.1573495E-03
   7098.00  4.2391249E-03
   7098.33  4.3244915E-03
   7098.67  4.4132912E-03
   7099.00  4.5057521E-03
   7099.33  4.6026652E-03
   7099.67  4.7038686E-03
   7100.00  4.8096818E-03
   7100.33  4.9211523E-03
   7100.67  5.0381290E-03
   7101.00  5.1610759E-03
   7101.33  5.2914342E-03
   7101.67  5.4290954E-03
   7102.00  5.5747656E-03
   7102.33  5.7305215E-03
   7102.67  5.8963709E-03
   7103.00  6.0734500E-03
   7103.33  6.2649295E-03
   7103.67  6.4711084E-03
   7104.00  6.6939447E-03
   7104.33  6.9386461E-03
   7104.67  7.2062453E-03
   7105.00  7.5004203E-03
   7105.33  7.8305648E-03
   7105.67  8.1996748E-03
   7106.00  8.6154766E-03
   7106.33  9.0971427E-03
   7106.67  9.6535428E-03
   7107.00  1.0303551E-02
   7107.33  1.1093546E-02
   7107.67  1.2053354E-02
   7108.00  1.3240189E-02
   7108.33  1.4797890E-02
   7108.67  1.6854829E-02
   7109.00  1.9652464E-02
   7109.33  2.3849112E-02
   7109.67  3.0282900E-02
   7110.00  4.0623407E-02
   7110.33  5.9660733E-02
   7110.67  9.0876086E-02
   7111.00  1.2633342E-01
   7111.33  1.3658812E-01
   7111.67  1.3014947E-01
   7112.00  1.1949947E-01
   7112.33  1.0484307E-01
   7112.67  8.8650147E-02
   7113.00  7.4094144E-02
   7113.33  6.3420365E-02
   7113.67  5.6291916E-02
   7114.00  5.2219296E-02
   7114.33  4.8405697E-02
   7114.67  4.3411580E-02
   7115.00  3.9118675E-02
   7115.33  3.6785528E-02
   7115.67  3.5835183E-02
   7116.00  3.5729815E-02
   7116.33  3.6233615E-02
   7116.67  3.7372443E-02
   7117.00  3.9303178E-02
   7117.33  4.2230612E-02
   7117.67  4.6058773E-02
   7118.00  5.0738187E-02
   7118.33  5.6138360E-02
   7118.67  6.1733288E-02
   7119.00  6.7045297E-02
   7119.33  7.1582620E-02
   7119.67  7.5299363E-02
   7120.00  7.8314317E-02
   7120.33  8.0987729E-02
   7120.67  8.3919645E-02
   7121.00  8.7623742E-02
   7121.33  9.2873253E-02
   7121.67  1.0016358E-01
   7122.00  1.1019451E-01
   7122.33  1.2442273E-01
   7122.67  1.4337201E-01
   7123.00  1.6734272E-01
   7123.33  1.9455152E-01
   7123.67  2.1822267E-01
   7124.00  2.3283305E-01
   7124.33  2.3876645E-01
   7124.67  2.4450809E-01
   7125.00  2.5490780E-01
   7125.33  2.7198950E-01
   7125.67  2.9333528E-01
   7126.00  3.1720499E-01
   7126.33  3.4378442E-01
   7126.67  3.7474100E-01
   7127.00  4.1191179E-01
   7127.33  4.5699447E-01
   7127.67  5.0841210E-01
   7128.00  5.6471404E-01
   7128.33  6.2353259E-01
   7128.67  6.8078969E-01
   7129.00  7.3268821E-01
   7129.33  7.7427568E-01
   7129.67  8.0486792E-01
   7130.00  8.2479476E-01
   7130.33  8.3519333E-01
   7130.67  8.4060371E-01
   7131.00  8.4401091E-01
   7131.33  8.4737659E-01
   7131.67  8.5084758E-01
   7132.00  8.5419662E-01
   7132.33  8.5823900E-01
   7132.67  8.6460716E-01
   7133.00  8.7455950E-01
   7133.33  8.8869645E-01
   7133.67  9.0503474E-01
   7134.00  9.2154707E-01
   7134.33  9.3604057E-01
   7134.67  9.4759954E-01
   7135.00  9.5532345E-01
   7135.33  9.5724395E-01
   7135.67  9.5299319E-01
   7136.00  9.4243982E-01
   7136.33  9.2562378E-01
   7136.67  9.0455016E-01
   7137.00  8.8044702E-01
   7137.33  8.5435345E-01
   7137.67  8.2745606E-01
   7138.00  8.0036432E-01
   7138.33  7.7365381E-01
   7138.67  7.4770402E-01
   7139.00  7.2282433E-01
   7139.33  6.9949037E-01
   7139.67  6.7776100E-01
   7140.00  6.5776675E-01
   7140.33  6.3980629E-01
   7140.67  6.2365570E-01
   7141.00  6.0927759E-01
   7141.33  5.9681044E-01
   7141.67  5.8594275E-01
   7142.00  5.7657755E-01
   7142.33  5.6878394E-01
   7142.67  5.6230528E-01
   7143.00  5.5706474E-01
   7143.33  5.5307982E-01
   7143.67  5.5005927E-01
   7144.00  5.4784608E-01
   7144.33  5.4629469E-01
   7144.67  5.4507883E-01
   7145.00  5.4396929E-01
   7145.33  5.4269533E-01
   7145.67  5.4107404E-01
   7146.00  5.3899754E-01
   7146.33  5.3636651E-01
   7146.67  5.3329118E-01
   7147.00  5.2986256E-01
   7147.33  5.2618688E-01
   7147.67  5.2242731E-01
   7148.00  5.1868600E-01
   7148.33  5.1506829E-01
   7148.67  5.1162041E-01
   7149.00  5.0837226E-01
   7149.33  5.0536837E-01
   7149.67  5.0258853E-01
   7150.00  5.0003113E-01
   7150.33  4.9770908E-01
   7150.67  4.9557081E-01
   7151.00  4.9358361E-01
   7151.33  4.9170589E-01
   7151.67  4.8985326E-01
   7152.00  4.8794790E-01
   7152.33  4.8586388E-01
   7152.67  4.8350882E-01
   7153.00  4.8078623E-01
   7153.33  4.7753112E-01
   7153.67  4.7370724E-01
   7154.00  4.6924165E-01
   7154.33  4.6397170E-01
   7154.67  4.5792836E-01
   7155.00  4.5107545E-01
   7155.33  4.4328500E-01
   7155.67  4.3466004E-01
   7156.00  4.2521952E-01
   7156.33  4.1491399E-01
   7156.67  4.0391459E-01
   7157.00  3.9230846E-01
   7157.33  3.8016153E-01
   7157.67  3.6768824E-01
   7158.00  3.5504615E-01
   7158.33  3.4244595E-01
   7158.67  3.3010428E-01
   7159.00  3.1821621E-01
   7159.33  3.0708652E-01
   7159.67  2.9683035E-01
   7160.00  2.8759289E-01
   7160.33  2.7965116E-01
   7160.67  2.7295948E-01
   7161.00  2.6758211E-01
   7161.33  2.6374658E-01
   7161.67  2.6131525E-01
   7162.00  2.6029894E-01
   7162.33  2.6085979E-01
   7162.67  2.6276718E-01
   7163.00  2.6592786E-01
   7163.33  2.7033202E-01
   7163.67  2.7567613E-01
   7164.00  2.8180485E-01
   7164.33  2.8859712E-01
   7164.67  2.9578489E-01
   7165.00  3.0322068E-01
   7165.33  3.1077222E-01
   7165.67  3.1831055E-01
   7166.00  3.2576018E-01
   7166.33  3.3304172E-01
   7166.67  3.4013765E-01
   7167.00  3.4703137E-01
   7167.33  3.5369001E-01
   7167.67  3.6014501E-01
   7168.00  3.6640833E-01
   7168.33  3.7247860E-01
   7168.67  3.7840119E-01
   7169.00  3.8419792E-01
   7169.33  3.8988142E-01
   7169.67  3.9548591E-01
   7170.00  4.0102384E-01
   7170.33  4.0648948E-01
   7170.67  4.1187049E-01
   7171.00  4.1711906E-01
   7171.33  4.2208598E-01
   7171.67  4.2656910E-01
   7172.00  4.3025876E-01
