    FDMNES
    energy     <xanes>
   7097.00  4.5461671E-03
   7097.33  4.6429766E-03
   7097.67  4.7439712E-03
   7098.00  4.8494347E-03
   7098.33  4.9603379E-03
   7098.67  5.0764859E-03
   7099.00  5.1982692E-03
   7099.33  5.3269647E-03
   7099.67  5.4623789E-03
   7100.00  5.6050656E-03
   7100.33  5.7567538E-03
   7100.67  5.9172770E-03
   7101.00  6.0874476E-03
   7101.33  6.2696910E-03
   7101.67  6.4639232E-03
   7102.00  6.6713875E-03
   7102.33  6.8956326E-03
   7102.67  7.1367825E-03
   7103.00  7.3968375E-03
   7103.33  7.6812675E-03
   7103.67  7.9906953E-03
   7104.00  8.3285450E-03
   7104.33  8.7038136E-03
   7104.67  9.1183427E-03
   7105.00  9.5784685E-03
   7105.33  1.0100277E-02
   7105.67  1.0688772E-02
   7106.00  1.1356935E-02
   7106.33  1.2136884E-02
   7106.67  1.3042748E-02
   7107.00  1.4105058E-02
   7107.33  1.5398569E-02
   7107.67  1.6968452E-02
   7108.00  1.8902285E-02
   7108.33  2.1418214E-02
   7108.67  2.4698138E-02
   7109.00  2.9083318E-02
   7109.33  3.5485429E-02
   7109.67  4.4990443E-02
   7110.00  5.9738987E-02
   7110.33  8.5931081E-02
   7110.67  1.2984780E-01
   7111.00  1.9027681E-01
   7111.33  2.3797287E-01
   7111.67  2.5681263E-01
   7112.00  2.5920299E-01
   7112.33  2.4793603E-01
   7112.67  2.1820052E-01
   7113.00  1.8174320E-01
   7113.33  1.5162649E-01
   7113.67  1.2819760E-01
   7114.00  1.1192825E-01
   7114.33  1.0512812E-01
   7114.67  1.0528478E-01
   7115.00  1.0683275E-01
   7115.33  1.0364949E-01
   7115.67  9.8842616E-02
   7116.00  9.6316308E-02
   7116.33  9.8160696E-02
   7116.67  1.0295094E-01
   7117.00  1.0905265E-01
   7117.33  1.1499935E-01
   7117.67  1.2060939E-01
   7118.00  1.2616004E-01
   7118.33  1.3148827E-01
   7118.67  1.3580565E-01
   7119.00  1.3796972E-01
   7119.33  1.3664964E-01
   7119.67  1.3323919E-01
   7120.00  1.2982477E-01
   7120.33  1.2859107E-01
   7120.67  1.2992190E-01
   7121.00  1.3358164E-01
   7121.33  1.3925798E-01
   7121.67  1.4639700E-01
   7122.00  1.5504132E-01
   7122.33  1.6578627E-01
   7122.67  1.7888431E-01
   7123.00  1.9461648E-01
   7123.33  2.1315643E-01
   7123.67  2.3350451E-01
   7124.00  2.5499007E-01
   7124.33  2.7703648E-01
   7124.67  2.9855449E-01
   7125.00  3.1837343E-01
   7125.33  3.3507450E-01
   7125.67  3.4847037E-01
   7126.00  3.5870575E-01
   7126.33  3.6668413E-01
   7126.67  3.7444855E-01
   7127.00  3.8328503E-01
   7127.33  3.9389786E-01
   7127.67  4.0563313E-01
   7128.00  4.1788461E-01
   7128.33  4.3039839E-01
   7128.67  4.4374958E-01
   7129.00  4.5896970E-01
   7129.33  4.7718271E-01
   7129.67  4.9799214E-01
   7130.00  5.2097117E-01
   7130.33  5.4514094E-01
   7130.67  5.6814000E-01
   7131.00  5.8768785E-01
   7131.33  6.0172969E-01
   7131.67  6.1160403E-01
   7132.00  6.1915451E-01
   7132.33  6.2675280E-01
   7132.67  6.3616371E-01
   7133.00  6.4815507E-01
   7133.33  6.6304653E-01
   7133.67  6.7976864E-01
   7134.00  6.9742605E-01
   7134.33  7.1501089E-01
   7134.67  7.3149506E-01
   7135.00  7.4581240E-01
   7135.33  7.5623438E-01
   7135.67  7.6211547E-01
   7136.00  7.6285939E-01
   7136.33  7.5761036E-01
   7136.67  7.4739384E-01
   7137.00  7.3286193E-01
   7137.33  7.1459195E-01
   7137.67  6.9409968E-01
   7138.00  6.7233889E-01
   7138.33  6.5033846E-01
   7138.67  6.2905899E-01
   7139.00  6.0916613E-01
   7139.33  5.9150100E-01
   7139.67  5.7621169E-01
   7140.00  5.6348454E-01
   7140.33  5.5369460E-01
   7140.67  5.4641134E-01
   7141.00  5.4146210E-01
   7141.33  5.3886646E-01
   7141.67  5.3812811E-01
   7142.00  5.3907364E-01
   7142.33  5.4172292E-01
   7142.67  5.4573911E-01
   7143.00  5.5100343E-01
   7143.33  5.5751429E-01
   7143.67  5.6498069E-01
   7144.00  5.7325625E-01
   7144.33  5.8222771E-01
   7144.67  5.9160761E-01
   7145.00  6.0120538E-01
   7145.33  6.1079926E-01
   7145.67  6.2018451E-01
   7146.00  6.2920884E-01
   7146.33  6.3766696E-01
   7146.67  6.4551434E-01
   7147.00  6.5267659E-01
   7147.33  6.5895920E-01
   7147.67  6.6432500E-01
   7148.00  6.6863012E-01
   7148.33  6.7153060E-01
   7148.67  6.7299876E-01
   7149.00  6.7291126E-01
   7149.33  6.7099119E-01
   7149.67  6.6746208E-01
   7150.00  6.6241490E-01
   7150.33  6.5583865E-01
   7150.67  6.4806698E-01
   7151.00  6.3923730E-01
   7151.33  6.2941020E-01
   7151.67  6.1888073E-01
   7152.00  6.0781712E-01
   7152.33  5.9637702E-01
   7152.67  5.8478802E-01
   7153.00  5.7319146E-01
   7153.33  5.6174888E-01
   7153.67  5.5056366E-01
   7154.00  5.3971745E-01
   7154.33  5.2933153E-01
   7154.67  5.1940372E-01
   7155.00  5.0996483E-01
   7155.33  5.0110835E-01
   7155.67  4.9279785E-01
   7156.00  4.8506088E-01
   7156.33  4.7800851E-01
   7156.67  4.7159997E-01
   7157.00  4.6586297E-01
   7157.33  4.6090928E-01
   7157.67  4.5666478E-01
   7158.00  4.5312938E-01
   7158.33  4.5037622E-01
   7158.67  4.4829238E-01
   7159.00  4.4684676E-01
   7159.33  4.4606700E-01
   7159.67  4.4583269E-01
   7160.00  4.4610715E-01
   7160.33  4.4690439E-01
   7160.67  4.4812062E-01
   7161.00  4.4971383E-01
   7161.33  4.5166936E-01
   7161.67  4.5389961E-01
   7162.00  4.5637391E-01
   7162.33  4.5909082E-01
   7162.67  4.6200229E-01
   7163.00  4.6509537E-01
   7163.33  4.6838005E-01
   7163.67  4.7182403E-01
   7164.00  4.7541483E-01
   7164.33  4.7914650E-01
   7164.67  4.8297121E-01
   7165.00  4.8685266E-01
   7165.33  4.9074101E-01
   7165.67  4.9457891E-01
   7166.00  4.9831911E-01
   7166.33  5.0189869E-01
   7166.67  5.0529560E-01
   7167.00  5.0847957E-01
   7167.33  5.1139570E-01
   7167.67  5.1405924E-01
   7168.00  5.1646387E-01
   7168.33  5.1857288E-01
   7168.67  5.2041574E-01
   7169.00  5.2198746E-01
   7169.33  5.2324477E-01
   7169.67  5.2421217E-01
   7170.00  5.2487980E-01
   7170.33  5.2520013E-01
   7170.67  5.2521187E-01
   7171.00  5.2492996E-01
   7171.33  5.2437452E-01
   7171.67  5.2368916E-01
   7172.00  5.2303684E-01
