    FDMNES
    energy     <xanes>
   7097.00  4.5119726E-03
   7097.33  4.6112996E-03
   7097.67  4.7150346E-03
   7098.00  4.8234794E-03
   7098.33  4.9376610E-03
   7098.67  5.0573770E-03
   7099.00  5.1830421E-03
   7099.33  5.3160073E-03
   7099.67  5.4560707E-03
   7100.00  5.6038183E-03
   7100.33  5.7610783E-03
   7100.67  5.9276739E-03
   7101.00  6.1044621E-03
   7101.33  6.2940006E-03
   7101.67  6.4961938E-03
   7102.00  6.7123454E-03
   7102.33  6.9461824E-03
   7102.67  7.1978148E-03
   7103.00  7.4693242E-03
   7103.33  7.7664195E-03
   7103.67  8.0897037E-03
   7104.00  8.4427070E-03
   7104.33  8.8347385E-03
   7104.67  9.2676019E-03
   7105.00  9.7477577E-03
   7105.33  1.0291665E-02
   7105.67  1.0904230E-02
   7106.00  1.1598521E-02
   7106.33  1.2406971E-02
   7106.67  1.3343390E-02
   7107.00  1.4438121E-02
   7107.33  1.5765600E-02
   7107.67  1.7369851E-02
   7108.00  1.9337002E-02
   7108.33  2.1881860E-02
   7108.67  2.5182027E-02
   7109.00  2.9572388E-02
   7109.33  3.5950378E-02
   7109.67  4.5390377E-02
   7110.00  6.0016782E-02
   7110.33  8.5930697E-02
   7110.67  1.2850991E-01
   7111.00  1.8293383E-01
   7111.33  2.1925111E-01
   7111.67  2.3528192E-01
   7112.00  2.4005989E-01
   7112.33  2.3399091E-01
   7112.67  2.3324493E-01
   7113.00  2.4370877E-01
   7113.33  2.3906568E-01
   7113.67  2.1641683E-01
   7114.00  1.9899870E-01
   7114.33  1.9779266E-01
   7114.67  1.9749923E-01
   7115.00  1.8994877E-01
   7115.33  1.8009796E-01
   7115.67  1.6167696E-01
   7116.00  1.3415403E-01
   7116.33  1.1160681E-01
   7116.67  9.7884808E-02
   7117.00  9.1107617E-02
   7117.33  8.9677088E-02
   7117.67  9.1913775E-02
   7118.00  9.7466902E-02
   7118.33  1.0613462E-01
   7118.67  1.1576690E-01
   7119.00  1.2418126E-01
   7119.33  1.3060045E-01
   7119.67  1.3686810E-01
   7120.00  1.4410365E-01
   7120.33  1.5181829E-01
   7120.67  1.5883659E-01
   7121.00  1.6554244E-01
   7121.33  1.7319770E-01
   7121.67  1.8221447E-01
   7122.00  1.9238855E-01
   7122.33  2.0304277E-01
   7122.67  2.1348722E-01
   7123.00  2.2385537E-01
   7123.33  2.3534579E-01
   7123.67  2.4929611E-01
   7124.00  2.6653631E-01
   7124.33  2.8676858E-01
   7124.67  3.0680791E-01
   7125.00  3.2366321E-01
   7125.33  3.3465894E-01
   7125.67  3.4004141E-01
   7126.00  3.4067961E-01
   7126.33  3.3894610E-01
   7126.67  3.3832972E-01
   7127.00  3.4051948E-01
   7127.33  3.4566221E-01
   7127.67  3.5162426E-01
   7128.00  3.5679044E-01
   7128.33  3.6004791E-01
   7128.67  3.6174400E-01
   7129.00  3.6242633E-01
   7129.33  3.6279961E-01
   7129.67  3.6355737E-01
   7130.00  3.6517102E-01
   7130.33  3.6826132E-01
   7130.67  3.7298795E-01
   7131.00  3.7946169E-01
   7131.33  3.8781348E-01
   7131.67  3.9766321E-01
   7132.00  4.0895133E-01
   7132.33  4.2205503E-01
   7132.67  4.3720841E-01
   7133.00  4.5486867E-01
   7133.33  4.7573734E-01
   7133.67  4.9924847E-01
   7134.00  5.2457211E-01
   7134.33  5.5004001E-01
   7134.67  5.7365881E-01
   7135.00  5.9404020E-01
   7135.33  6.0978310E-01
   7135.67  6.2123093E-01
   7136.00  6.2858655E-01
   7136.33  6.3183366E-01
   7136.67  6.3200557E-01
   7137.00  6.2968013E-01
   7137.33  6.2536379E-01
   7137.67  6.1999645E-01
   7138.00  6.1413392E-01
   7138.33  6.0829688E-01
   7138.67  6.0283798E-01
   7139.00  5.9797668E-01
   7139.33  5.9402267E-01
   7139.67  5.9105458E-01
   7140.00  5.8921183E-01
   7140.33  5.8881822E-01
   7140.67  5.8990088E-01
   7141.00  5.9265166E-01
   7141.33  5.9754508E-01
   7141.67  6.0452821E-01
   7142.00  6.1364983E-01
   7142.33  6.2501142E-01
   7142.67  6.3795893E-01
   7143.00  6.5195722E-01
   7143.33  6.6629216E-01
   7143.67  6.8017547E-01
   7144.00  6.9306841E-01
   7144.33  7.0436016E-01
   7144.67  7.1400729E-01
   7145.00  7.2195077E-01
   7145.33  7.2798965E-01
   7145.67  7.3238957E-01
   7146.00  7.3522985E-01
   7146.33  7.3645547E-01
   7146.67  7.3639382E-01
   7147.00  7.3517632E-01
   7147.33  7.3281816E-01
   7147.67  7.2957050E-01
   7148.00  7.2552587E-01
   7148.33  7.2069060E-01
   7148.67  7.1523771E-01
   7149.00  7.0923749E-01
   7149.33  7.0271455E-01
   7149.67  6.9581300E-01
   7150.00  6.8860961E-01
   7150.33  6.8116918E-01
   7150.67  6.7360960E-01
   7151.00  6.6600847E-01
   7151.33  6.5845994E-01
   7151.67  6.5104366E-01
   7152.00  6.4382862E-01
   7152.33  6.3692105E-01
   7152.67  6.3034956E-01
   7153.00  6.2416106E-01
   7153.33  6.1844891E-01
   7153.67  6.1318027E-01
   7154.00  6.0835571E-01
   7154.33  6.0401148E-01
   7154.67  6.0006254E-01
   7155.00  5.9647458E-01
   7155.33  5.9324419E-01
   7155.67  5.9029037E-01
   7156.00  5.8758305E-01
   7156.33  5.8512330E-01
   7156.67  5.8286664E-01
   7157.00  5.8080460E-01
   7157.33  5.7895457E-01
   7157.67  5.7728756E-01
   7158.00  5.7579738E-01
   7158.33  5.7449384E-01
   7158.67  5.7334092E-01
   7159.00  5.7232259E-01
   7159.33  5.7143317E-01
   7159.67  5.7063574E-01
   7160.00  5.6990810E-01
   7160.33  5.6922999E-01
   7160.67  5.6856305E-01
   7161.00  5.6787103E-01
   7161.33  5.6710785E-01
   7161.67  5.6624045E-01
   7162.00  5.6522844E-01
   7162.33  5.6400028E-01
   7162.67  5.6252882E-01
   7163.00  5.6076809E-01
   7163.33  5.5862372E-01
   7163.67  5.5609043E-01
   7164.00  5.5313212E-01
   7164.33  5.4965916E-01
   7164.67  5.4571302E-01
   7165.00  5.4129879E-01
   7165.33  5.3639404E-01
   7165.67  5.3111499E-01
   7166.00  5.2553608E-01
   7166.33  5.1973848E-01
   7166.67  5.1386467E-01
   7167.00  5.0801932E-01
   7167.33  5.0233823E-01
   7167.67  4.9690972E-01
   7168.00  4.9181331E-01
   7168.33  4.8717543E-01
   7168.67  4.8299959E-01
   7169.00  4.7931613E-01
   7169.33  4.7620777E-01
   7169.67  4.7361377E-01
   7170.00  4.7152583E-01
   7170.33  4.6998305E-01
   7170.67  4.6888999E-01
   7171.00  4.6820398E-01
   7171.33  4.6789625E-01
   7171.67  4.6781620E-01
   7172.00  4.6783113E-01
