    FDMNES
    energy     <xanes>
   7097.00  4.5350782E-03
   7097.33  4.6233261E-03
   7097.67  4.7149058E-03
   7098.00  4.8100155E-03
   7098.33  4.9093819E-03
   7098.67  5.0128130E-03
   7099.00  5.1205741E-03
   7099.33  5.2335922E-03
   7099.67  5.3516668E-03
   7100.00  5.4751641E-03
   7100.33  5.6052995E-03
   7100.67  5.7418769E-03
   7101.00  5.8854191E-03
   7101.33  6.0375748E-03
   7101.67  6.1981816E-03
   7102.00  6.3680186E-03
   7102.33  6.5494164E-03
   7102.67  6.7423147E-03
   7103.00  6.9479345E-03
   7103.33  7.1697471E-03
   7103.67  7.4079529E-03
   7104.00  7.6645909E-03
   7104.33  7.9451826E-03
   7104.67  8.2505830E-03
   7105.00  8.5844789E-03
   7105.33  8.9564322E-03
   7105.67  9.3690123E-03
   7106.00  9.8296106E-03
   7106.33  1.0356763E-02
   7106.67  1.0957983E-02
   7107.00  1.1650306E-02
   7107.33  1.2475726E-02
   7107.67  1.3458480E-02
   7108.00  1.4646516E-02
   7108.33  1.6159455E-02
   7108.67  1.8094583E-02
   7109.00  2.0635562E-02
   7109.33  2.4272398E-02
   7109.67  2.9581808E-02
   7110.00  3.7700500E-02
   7110.33  5.1898863E-02
   7110.67  7.5323289E-02
   7111.00  1.0698666E-01
   7111.33  1.3366846E-01
   7111.67  1.4700079E-01
   7112.00  1.4908334E-01
   7112.33  1.4407301E-01
   7112.67  1.4161130E-01
   7113.00  1.4113651E-01
   7113.33  1.3827694E-01
   7113.67  1.2712567E-01
   7114.00  1.0503050E-01
   7114.33  8.4531425E-02
   7114.67  6.9219542E-02
   7115.00  5.7818516E-02
   7115.33  5.0579707E-02
   7115.67  4.6326315E-02
   7116.00  4.4125975E-02
   7116.33  4.3415739E-02
   7116.67  4.3649347E-02
   7117.00  4.4645842E-02
   7117.33  4.6321419E-02
   7117.67  4.8445692E-02
   7118.00  5.0938500E-02
   7118.33  5.3903548E-02
   7118.67  5.7409135E-02
   7119.00  6.1539598E-02
   7119.33  6.6551784E-02
   7119.67  7.2665617E-02
   7120.00  8.0261997E-02
   7120.33  9.0125455E-02
   7120.67  1.0266980E-01
   7121.00  1.1863713E-01
   7121.33  1.3973613E-01
   7121.67  1.6680518E-01
   7122.00  2.0104268E-01
   7122.33  2.4393425E-01
   7122.67  2.9236826E-01
   7123.00  3.4131888E-01
   7123.33  3.8351774E-01
   7123.67  4.1958033E-01
   7124.00  4.5564123E-01
   7124.33  5.0025575E-01
   7124.67  5.5376986E-01
   7125.00  6.1043005E-01
   7125.33  6.5958220E-01
   7125.67  6.9720777E-01
   7126.00  7.2111929E-01
   7126.33  7.2616106E-01
   7126.67  7.1710512E-01
   7127.00  7.0068516E-01
   7127.33  6.8974744E-01
   7127.67  6.9577180E-01
   7128.00  7.2276164E-01
   7128.33  7.7008910E-01
   7128.67  8.2832670E-01
   7129.00  8.8970960E-01
   7129.33  9.4374687E-01
   7129.67  9.8336321E-01
   7130.00  1.0045443E+00
   7130.33  1.0028038E+00
   7130.67  9.8214679E-01
   7131.00  9.4672048E-01
   7131.33  9.0123960E-01
   7131.67  8.5134298E-01
   7132.00  7.9966586E-01
   7132.33  7.4874826E-01
   7132.67  7.0067378E-01
   7133.00  6.5692550E-01
   7133.33  6.1928707E-01
   7133.67  5.8766722E-01
   7134.00  5.6244993E-01
   7134.33  5.4496732E-01
   7134.67  5.3433885E-01
   7135.00  5.2945479E-01
   7135.33  5.2849882E-01
   7135.67  5.2911272E-01
   7136.00  5.3033102E-01
   7136.33  5.3158643E-01
   7136.67  5.3269169E-01
   7137.00  5.3371657E-01
   7137.33  5.3497112E-01
   7137.67  5.3686488E-01
   7138.00  5.3980477E-01
   7138.33  5.4434309E-01
   7138.67  5.5046569E-01
   7139.00  5.5813758E-01
   7139.33  5.6734221E-01
   7139.67  5.7764548E-01
   7140.00  5.8880922E-01
   7140.33  6.0063819E-01
   7140.67  6.1278866E-01
   7141.00  6.2500912E-01
   7141.33  6.3692397E-01
   7141.67  6.4815283E-01
   7142.00  6.5827605E-01
   7142.33  6.6653727E-01
   7142.67  6.7257094E-01
   7143.00  6.7591921E-01
   7143.33  6.7577261E-01
   7143.67  6.7228286E-01
   7144.00  6.6541763E-01
   7144.33  6.5491481E-01
   7144.67  6.4146477E-01
   7145.00  6.2539118E-01
   7145.33  6.0685313E-01
   7145.67  5.8656889E-01
   7146.00  5.6491649E-01
   7146.33  5.4225240E-01
   7146.67  5.1918957E-01
   7147.00  4.9615753E-01
   7147.33  4.7367370E-01
   7147.67  4.5204867E-01
   7148.00  4.3151458E-01
   7148.33  4.1239162E-01
   7148.67  3.9458434E-01
   7149.00  3.7808119E-01
   7149.33  3.6297046E-01
   7149.67  3.4899779E-01
   7150.00  3.3606665E-01
   7150.33  3.2417968E-01
   7150.67  3.1311673E-01
   7151.00  3.0280074E-01
   7151.33  2.9324074E-01
   7151.67  2.8429417E-01
   7152.00  2.7592322E-01
   7152.33  2.6816439E-01
   7152.67  2.6093576E-01
   7153.00  2.5424200E-01
   7153.33  2.4817056E-01
   7153.67  2.4267689E-01
   7154.00  2.3777101E-01
   7154.33  2.3353407E-01
   7154.67  2.2990024E-01
   7155.00  2.2687457E-01
   7155.33  2.2453272E-01
   7155.67  2.2279151E-01
   7156.00  2.2164374E-01
   7156.33  2.2116417E-01
   7156.67  2.2129736E-01
   7157.00  2.2207693E-01
   7157.33  2.2364723E-01
   7157.67  2.2598720E-01
   7158.00  2.2915494E-01
   7158.33  2.3332306E-01
   7158.67  2.3842996E-01
   7159.00  2.4450700E-01
   7159.33  2.5170427E-01
   7159.67  2.5991056E-01
   7160.00  2.6912629E-01
   7160.33  2.7946453E-01
   7160.67  2.9077322E-01
   7161.00  3.0301036E-01
   7161.33  3.1620662E-01
   7161.67  3.3015420E-01
   7162.00  3.4474933E-01
   7162.33  3.5991987E-01
   7162.67  3.7545384E-01
   7163.00  3.9121437E-01
   7163.33  4.0703731E-01
   7163.67  4.2274991E-01
   7164.00  4.3821086E-01
   7164.33  4.5321906E-01
   7164.67  4.6771024E-01
   7165.00  4.8159656E-01
   7165.33  4.9469002E-01
   7165.67  5.0698189E-01
   7166.00  5.1839497E-01
   7166.33  5.2873629E-01
   7166.67  5.3807751E-01
   7167.00  5.4640479E-01
   7167.33  5.5361198E-01
   7167.67  5.5987627E-01
   7168.00  5.6526607E-01
   7168.33  5.6978411E-01
   7168.67  5.7363920E-01
   7169.00  5.7693091E-01
   7169.33  5.7971644E-01
   7169.67  5.8215554E-01
   7170.00  5.8432364E-01
   7170.33  5.8626295E-01
   7170.67  5.8804125E-01
   7171.00  5.8967333E-01
   7171.33  5.9113291E-01
   7171.67  5.9240877E-01
   7172.00  5.9346546E-01
