    FDMNES
    energy     <xanes>
   7097.00  4.3167222E-03
   7097.33  4.4082657E-03
   7097.67  4.5036922E-03
   7098.00  4.6032624E-03
   7098.33  4.7078727E-03
   7098.67  4.8173396E-03
   7099.00  4.9320215E-03
   7099.33  5.0530965E-03
   7099.67  5.1803822E-03
   7100.00  5.3143875E-03
   7100.33  5.4567065E-03
   7100.67  5.6071819E-03
   7101.00  5.7665613E-03
   7101.33  5.9370800E-03
   7101.67  6.1186578E-03
   7102.00  6.3124399E-03
   7102.33  6.5216976E-03
   7102.67  6.7465440E-03
   7103.00  6.9888235E-03
   7103.33  7.2535807E-03
   7103.67  7.5413914E-03
   7104.00  7.8554152E-03
   7104.33  8.2039536E-03
   7104.67  8.5887091E-03
   7105.00  9.0155300E-03
   7105.33  9.4992602E-03
   7105.67  1.0044517E-02
   7106.00  1.0663274E-02
   7106.33  1.1385148E-02
   7106.67  1.2223145E-02
   7107.00  1.3205376E-02
   7107.33  1.4400666E-02
   7107.67  1.5850505E-02
   7108.00  1.7635397E-02
   7108.33  1.9955932E-02
   7108.67  2.2979415E-02
   7109.00  2.7020274E-02
   7109.33  3.2920564E-02
   7109.67  4.1689779E-02
   7110.00  5.5320064E-02
   7110.33  7.9502638E-02
   7110.67  1.1901046E-01
   7111.00  1.6861084E-01
   7111.33  2.0325107E-01
   7111.67  2.2680529E-01
   7112.00  2.4476767E-01
   7112.33  2.5338884E-01
   7112.67  2.5247099E-01
   7113.00  2.2730700E-01
   7113.33  1.7814556E-01
   7113.67  1.3707532E-01
   7114.00  1.1228986E-01
   7114.33  1.0115690E-01
   7114.67  9.4560009E-02
   7115.00  8.5313998E-02
   7115.33  7.0914584E-02
   7115.67  5.7590352E-02
   7116.00  4.8850817E-02
   7116.33  4.4547276E-02
   7116.67  4.2515882E-02
   7117.00  4.1764133E-02
   7117.33  4.1721551E-02
   7117.67  4.2087668E-02
   7118.00  4.2826214E-02
   7118.33  4.3948468E-02
   7118.67  4.5410818E-02
   7119.00  4.7265630E-02
   7119.33  4.9664843E-02
   7119.67  5.2635048E-02
   7120.00  5.6261199E-02
   7120.33  6.0796944E-02
   7120.67  6.6350751E-02
   7121.00  7.3119981E-02
   7121.33  8.1505982E-02
   7121.67  9.1524425E-02
   7122.00  1.0332267E-01
   7122.33  1.1734040E-01
   7122.67  1.3359401E-01
   7123.00  1.5231827E-01
   7123.33  1.7397327E-01
   7123.67  1.9808932E-01
   7124.00  2.2427347E-01
   7124.33  2.5214372E-01
   7124.67  2.8107977E-01
   7125.00  3.1070642E-01
   7125.33  3.4052928E-01
   7125.67  3.6991126E-01
   7126.00  3.9788053E-01
   7126.33  4.2214318E-01
   7126.67  4.4026123E-01
   7127.00  4.4971871E-01
   7127.33  4.4956712E-01
   7127.67  4.4580440E-01
   7128.00  4.4411544E-01
   7128.33  4.5000582E-01
   7128.67  4.6478469E-01
   7129.00  4.8916242E-01
   7129.33  5.2398837E-01
   7129.67  5.6633466E-01
   7130.00  6.1388303E-01
   7130.33  6.6410417E-01
   7130.67  7.1418959E-01
   7131.00  7.6234256E-01
   7131.33  8.0651686E-01
   7131.67  8.4599304E-01
   7132.00  8.7982038E-01
   7132.33  9.0555459E-01
   7132.67  9.2199137E-01
   7133.00  9.2751511E-01
   7133.33  9.2046992E-01
   7133.67  9.0471966E-01
   7134.00  8.8440269E-01
   7134.33  8.6545593E-01
   7134.67  8.5220711E-01
   7135.00  8.4543876E-01
   7135.33  8.4222734E-01
   7135.67  8.3720752E-01
   7136.00  8.2779665E-01
   7136.33  8.1320656E-01
   7136.67  7.9546738E-01
   7137.00  7.7612251E-01
   7137.33  7.5669763E-01
   7137.67  7.3827004E-01
   7138.00  7.2139648E-01
   7138.33  7.0663472E-01
   7138.67  6.9383153E-01
   7139.00  6.8292791E-01
   7139.33  6.7397726E-01
   7139.67  6.6656154E-01
   7140.00  6.6050844E-01
   7140.33  6.5577228E-01
   7140.67  6.5202920E-01
   7141.00  6.4914347E-01
   7141.33  6.4707393E-01
   7141.67  6.4563563E-01
   7142.00  6.4478414E-01
   7142.33  6.4458591E-01
   7142.67  6.4500718E-01
   7143.00  6.4610710E-01
   7143.33  6.4805828E-01
   7143.67  6.5082311E-01
   7144.00  6.5440442E-01
   7144.33  6.5880671E-01
   7144.67  6.6372321E-01
   7145.00  6.6885313E-01
   7145.33  6.7370066E-01
   7145.67  6.7779998E-01
   7146.00  6.8078008E-01
   7146.33  6.8212484E-01
   7146.67  6.8180894E-01
   7147.00  6.7977097E-01
   7147.33  6.7585373E-01
   7147.67  6.7041362E-01
   7148.00  6.6362029E-01
   7148.33  6.5554511E-01
   7148.67  6.4653891E-01
   7149.00  6.3676677E-01
   7149.33  6.2632605E-01
   7149.67  6.1543858E-01
   7150.00  6.0421232E-01
   7150.33  5.9272624E-01
   7150.67  5.8109788E-01
   7151.00  5.6938460E-01
   7151.33  5.5763351E-01
   7151.67  5.4589050E-01
   7152.00  5.3417627E-01
   7152.33  5.2248886E-01
   7152.67  5.1079865E-01
   7153.00  4.9907380E-01
   7153.33  4.8725639E-01
   7153.67  4.7530168E-01
   7154.00  4.6316341E-01
   7154.33  4.5076932E-01
   7154.67  4.3811997E-01
   7155.00  4.2520301E-01
   7155.33  4.1199263E-01
   7155.67  3.9856171E-01
   7156.00  3.8497644E-01
   7156.33  3.7134571E-01
   7156.67  3.5782449E-01
   7157.00  3.4456402E-01
   7157.33  3.3181192E-01
   7157.67  3.1970655E-01
   7158.00  3.0840748E-01
   7158.33  2.9820061E-01
   7158.67  2.8909816E-01
   7159.00  2.8118753E-01
   7159.33  2.7469576E-01
   7159.67  2.6950203E-01
   7160.00  2.6561485E-01
   7160.33  2.6318213E-01
   7160.67  2.6200775E-01
   7161.00  2.6204881E-01
   7161.33  2.6338460E-01
   7161.67  2.6579221E-01
   7162.00  2.6919605E-01
   7162.33  2.7361667E-01
   7162.67  2.7884730E-01
   7163.00  2.8480499E-01
   7163.33  2.9145053E-01
   7163.67  2.9857840E-01
   7164.00  3.0608686E-01
   7164.33  3.1388984E-01
   7164.67  3.2184252E-01
   7165.00  3.2985285E-01
   7165.33  3.3780696E-01
   7165.67  3.4560503E-01
   7166.00  3.5316086E-01
   7166.33  3.6034355E-01
   7166.67  3.6712223E-01
   7167.00  3.7345225E-01
   7167.33  3.7924484E-01
   7167.67  3.8455475E-01
   7168.00  3.8939532E-01
   7168.33  3.9374490E-01
   7168.67  3.9770406E-01
   7169.00  4.0131846E-01
   7169.33  4.0460885E-01
   7169.67  4.0766771E-01
   7170.00  4.1053958E-01
   7170.33  4.1324943E-01
   7170.67  4.1584361E-01
   7171.00  4.1832925E-01
   7171.33  4.2066495E-01
   7171.67  4.2278097E-01
   7172.00  4.2454099E-01
