    FDMNES
    energy     <xanes>
   7097.00  4.5976386E-03
   7097.33  4.7037655E-03
   7097.67  4.8147817E-03
   7098.00  4.9310327E-03
   7098.33  5.0536762E-03
   7098.67  5.1825031E-03
   7099.00  5.3179925E-03
   7099.33  5.4616808E-03
   7099.67  5.6133654E-03
   7100.00  5.7737298E-03
   7100.33  5.9448739E-03
   7100.67  6.1266341E-03
   7101.00  6.3200202E-03
   7101.33  6.5280038E-03
   7101.67  6.7505322E-03
   7102.00  6.9891596E-03
   7102.33  7.2482713E-03
   7102.67  7.5280863E-03
   7103.00  7.8311183E-03
   7103.33  8.1641797E-03
   7103.67  8.5281338E-03
   7104.00  8.9273031E-03
   7104.33  9.3729726E-03
   7104.67  9.8675707E-03
   7105.00  1.0419129E-02
   7105.33  1.1047952E-02
   7105.67  1.1760525E-02
   7106.00  1.2573367E-02
   7106.33  1.3527260E-02
   7106.67  1.4640422E-02
   7107.00  1.5951899E-02
   7107.33  1.7557229E-02
   7107.67  1.9514820E-02
   7108.00  2.1937556E-02
   7108.33  2.5106976E-02
   7108.67  2.9260764E-02
   7109.00  3.4845148E-02
   7109.33  4.3057436E-02
   7109.67  5.5344986E-02
   7110.00  7.4571535E-02
   7110.33  1.0906232E-01
   7110.67  1.6709764E-01
   7111.00  2.4510455E-01
   7111.33  2.9409393E-01
   7111.67  2.9513546E-01
   7112.00  2.7626325E-01
   7112.33  2.6508230E-01
   7112.67  2.6721187E-01
   7113.00  2.7750659E-01
   7113.33  2.7761641E-01
   7113.67  2.5077482E-01
   7114.00  2.0567486E-01
   7114.33  1.6960693E-01
   7114.67  1.5055890E-01
   7115.00  1.4037662E-01
   7115.33  1.2569821E-01
   7115.67  1.0767887E-01
   7116.00  9.3494529E-02
   7116.33  8.6971581E-02
   7116.67  8.6102994E-02
   7117.00  8.9684338E-02
   7117.33  9.7318696E-02
   7117.67  1.0793044E-01
   7118.00  1.2011337E-01
   7118.33  1.3033549E-01
   7118.67  1.3709539E-01
   7119.00  1.4096480E-01
   7119.33  1.4112027E-01
   7119.67  1.3635600E-01
   7120.00  1.2693262E-01
   7120.33  1.1609864E-01
   7120.67  1.0760048E-01
   7121.00  1.0259754E-01
   7121.33  1.0132500E-01
   7121.67  1.0282524E-01
   7122.00  1.0677271E-01
   7122.33  1.1329273E-01
   7122.67  1.2209371E-01
   7123.00  1.3316442E-01
   7123.33  1.4655853E-01
   7123.67  1.6169451E-01
   7124.00  1.7840894E-01
   7124.33  1.9650562E-01
   7124.67  2.1494831E-01
   7125.00  2.3334208E-01
   7125.33  2.5219939E-01
   7125.67  2.7147983E-01
   7126.00  2.8989856E-01
   7126.33  3.0494790E-01
   7126.67  3.1658604E-01
   7127.00  3.2646895E-01
   7127.33  3.3762692E-01
   7127.67  3.5225710E-01
   7128.00  3.7123681E-01
   7128.33  3.9473655E-01
   7128.67  4.2119307E-01
   7129.00  4.4990879E-01
   7129.33  4.8082508E-01
   7129.67  5.1339898E-01
   7130.00  5.4703931E-01
   7130.33  5.8084148E-01
   7130.67  6.1407180E-01
   7131.00  6.4655425E-01
   7131.33  6.7840096E-01
   7131.67  7.0978023E-01
   7132.00  7.4042580E-01
   7132.33  7.6950831E-01
   7132.67  7.9642049E-01
   7133.00  8.2055286E-01
   7133.33  8.4097458E-01
   7133.67  8.5773209E-01
   7134.00  8.7031531E-01
   7134.33  8.7684811E-01
   7134.67  8.7667611E-01
   7135.00  8.6942594E-01
   7135.33  8.5492845E-01
   7135.67  8.3502918E-01
   7136.00  8.1059495E-01
   7136.33  7.8233655E-01
   7136.67  7.5203835E-01
   7137.00  7.2089662E-01
   7137.33  6.9017039E-01
   7137.67  6.6074411E-01
   7138.00  6.3319486E-01
   7138.33  6.0826557E-01
   7138.67  5.8594251E-01
   7139.00  5.6639392E-01
   7139.33  5.5018914E-01
   7139.67  5.3719183E-01
   7140.00  5.2759790E-01
   7140.33  5.2197784E-01
   7140.67  5.1986464E-01
   7141.00  5.2113987E-01
   7141.33  5.2601612E-01
   7141.67  5.3388377E-01
   7142.00  5.4454094E-01
   7142.33  5.5801850E-01
   7142.67  5.7363958E-01
   7143.00  5.9099969E-01
   7143.33  6.0964575E-01
   7143.67  6.2873835E-01
   7144.00  6.4764522E-01
   7144.33  6.6549141E-01
   7144.67  6.8163663E-01
   7145.00  6.9546221E-01
   7145.33  7.0597355E-01
   7145.67  7.1310507E-01
   7146.00  7.1673679E-01
   7146.33  7.1670914E-01
   7146.67  7.1402985E-01
   7147.00  7.0935675E-01
   7147.33  7.0327770E-01
   7147.67  6.9651917E-01
   7148.00  6.8937776E-01
   7148.33  6.8195619E-01
   7148.67  6.7426430E-01
   7149.00  6.6622057E-01
   7149.33  6.5765531E-01
   7149.67  6.4854059E-01
   7150.00  6.3884792E-01
   7150.33  6.2854841E-01
   7150.67  6.1784043E-01
   7151.00  6.0689445E-01
   7151.33  5.9592636E-01
   7151.67  5.8515062E-01
   7152.00  5.7471348E-01
   7152.33  5.6476640E-01
   7152.67  5.5528746E-01
   7153.00  5.4626865E-01
   7153.33  5.3772273E-01
   7153.67  5.2954307E-01
   7154.00  5.2168703E-01
   7154.33  5.1415640E-01
   7154.67  5.0690179E-01
   7155.00  4.9992723E-01
   7155.33  4.9328492E-01
   7155.67  4.8695786E-01
   7156.00  4.8096425E-01
   7156.33  4.7537004E-01
   7156.67  4.7015377E-01
   7157.00  4.6533727E-01
   7157.33  4.6100222E-01
   7157.67  4.5712539E-01
   7158.00  4.5373097E-01
   7158.33  4.5089683E-01
   7158.67  4.4855089E-01
   7159.00  4.4666024E-01
   7159.33  4.4519892E-01
   7159.67  4.4400507E-01
   7160.00  4.4295091E-01
   7160.33  4.4186056E-01
   7160.67  4.4056917E-01
   7161.00  4.3895995E-01
   7161.33  4.3690294E-01
   7161.67  4.3443862E-01
   7162.00  4.3161540E-01
   7162.33  4.2850806E-01
   7162.67  4.2528390E-01
   7163.00  4.2206390E-01
   7163.33  4.1899341E-01
   7163.67  4.1616103E-01
   7164.00  4.1363525E-01
   7164.33  4.1151637E-01
   7164.67  4.0979034E-01
   7165.00  4.0846814E-01
   7165.33  4.0759779E-01
   7165.67  4.0711453E-01
   7166.00  4.0699826E-01
   7166.33  4.0725877E-01
   7166.67  4.0781348E-01
   7167.00  4.0862104E-01
   7167.33  4.0964901E-01
   7167.67  4.1080380E-01
   7168.00  4.1201795E-01
   7168.33  4.1320703E-01
   7168.67  4.1429230E-01
   7169.00  4.1520756E-01
   7169.33  4.1585852E-01
   7169.67  4.1623089E-01
   7170.00  4.1630882E-01
   7170.33  4.1606535E-01
   7170.67  4.1557293E-01
   7171.00  4.1488343E-01
   7171.33  4.1406544E-01
   7171.67  4.1324375E-01
   7172.00  4.1253383E-01
