    FDMNES
    energy     <xanes>
   7097.00  4.6478223E-03
   7097.33  4.7478019E-03
   7097.67  4.8519611E-03
   7098.00  4.9605723E-03
   7098.33  5.0745868E-03
   7098.67  5.1937958E-03
   7099.00  5.3185718E-03
   7099.33  5.4501554E-03
   7099.67  5.5883361E-03
   7100.00  5.7336387E-03
   7100.33  5.8877298E-03
   7100.67  6.0504204E-03
   7101.00  6.2224773E-03
   7101.33  6.4062201E-03
   7101.67  6.6015340E-03
   7102.00  6.8095880E-03
   7102.33  7.0337549E-03
   7102.67  7.2741118E-03
   7103.00  7.5325366E-03
   7103.33  7.8142043E-03
   7103.67  8.1196605E-03
   7104.00  8.4521218E-03
   7104.33  8.8200828E-03
   7104.67  9.2252465E-03
   7105.00  9.6735861E-03
   7105.33  1.0180308E-02
   7105.67  1.0750152E-02
   7106.00  1.1395440E-02
   7106.33  1.2146707E-02
   7106.67  1.3017564E-02
   7107.00  1.4037333E-02
   7107.33  1.5277924E-02
   7107.67  1.6783671E-02
   7108.00  1.8640304E-02
   7108.33  2.1062200E-02
   7108.67  2.4232850E-02
   7109.00  2.8497312E-02
   7109.33  3.4786413E-02
   7109.67  4.4243745E-02
   7110.00  5.9133731E-02
   7110.33  8.5911539E-02
   7110.67  1.2947394E-01
   7111.00  1.8157034E-01
   7111.33  2.1313999E-01
   7111.67  2.2826472E-01
   7112.00  2.3149727E-01
   7112.33  2.2705121E-01
   7112.67  2.1128993E-01
   7113.00  1.7897231E-01
   7113.33  1.4589378E-01
   7113.67  1.2327107E-01
   7114.00  1.0655151E-01
   7114.33  8.8320525E-02
   7114.67  7.2943850E-02
   7115.00  6.2804836E-02
   7115.33  5.7019082E-02
   7115.67  5.3657721E-02
   7116.00  5.2040460E-02
   7116.33  5.1907913E-02
   7116.67  5.2856782E-02
   7117.00  5.4724255E-02
   7117.33  5.7370003E-02
   7117.67  6.0469239E-02
   7118.00  6.3946317E-02
   7118.33  6.8051136E-02
   7118.67  7.3063886E-02
   7119.00  7.9286840E-02
   7119.33  8.7241667E-02
   7119.67  9.7080498E-02
   7120.00  1.0911730E-01
   7120.33  1.2402025E-01
   7120.67  1.4171986E-01
   7121.00  1.6225789E-01
   7121.33  1.8568690E-01
   7121.67  2.1095332E-01
   7122.00  2.3697761E-01
   7122.33  2.6210451E-01
   7122.67  2.8551289E-01
   7123.00  3.0774038E-01
   7123.33  3.3101225E-01
   7123.67  3.5785934E-01
   7124.00  3.9010612E-01
   7124.33  4.2944769E-01
   7124.67  4.7455361E-01
   7125.00  5.2418879E-01
   7125.33  5.7671517E-01
   7125.67  6.2808384E-01
   7126.00  6.7353476E-01
   7126.33  7.0925655E-01
   7126.67  7.3888845E-01
   7127.00  7.6639818E-01
   7127.33  7.9526145E-01
   7127.67  8.2514248E-01
   7128.00  8.5252550E-01
   7128.33  8.7145976E-01
   7128.67  8.8117291E-01
   7129.00  8.8351210E-01
   7129.33  8.8149518E-01
   7129.67  8.7811116E-01
   7130.00  8.7418140E-01
   7130.33  8.6969231E-01
   7130.67  8.6442441E-01
   7131.00  8.5796364E-01
   7131.33  8.4935334E-01
   7131.67  8.3809922E-01
   7132.00  8.2383488E-01
   7132.33  8.0624789E-01
   7132.67  7.8623838E-01
   7133.00  7.6453031E-01
   7133.33  7.4214712E-01
   7133.67  7.2055516E-01
   7134.00  7.0102905E-01
   7134.33  6.8479406E-01
   7134.67  6.7098876E-01
   7135.00  6.5851337E-01
   7135.33  6.4649977E-01
   7135.67  6.3467314E-01
   7136.00  6.2312762E-01
   7136.33  6.1208574E-01
   7136.67  6.0163241E-01
   7137.00  5.9185123E-01
   7137.33  5.8288328E-01
   7137.67  5.7464949E-01
   7138.00  5.6714727E-01
   7138.33  5.6048752E-01
   7138.67  5.5465799E-01
   7139.00  5.4978814E-01
   7139.33  5.4619992E-01
   7139.67  5.4388173E-01
   7140.00  5.4284036E-01
   7140.33  5.4306476E-01
   7140.67  5.4412238E-01
   7141.00  5.4567831E-01
   7141.33  5.4731741E-01
   7141.67  5.4867914E-01
   7142.00  5.4957993E-01
   7142.33  5.4986767E-01
   7142.67  5.4962202E-01
   7143.00  5.4890143E-01
   7143.33  5.4776346E-01
   7143.67  5.4638508E-01
   7144.00  5.4489155E-01
   7144.33  5.4343030E-01
   7144.67  5.4210953E-01
   7145.00  5.4097383E-01
   7145.33  5.4001309E-01
   7145.67  5.3908997E-01
   7146.00  5.3805415E-01
   7146.33  5.3668358E-01
   7146.67  5.3487003E-01
   7147.00  5.3254398E-01
   7147.33  5.2962149E-01
   7147.67  5.2619503E-01
   7148.00  5.2229295E-01
   7148.33  5.1787875E-01
   7148.67  5.1301348E-01
   7149.00  5.0768142E-01
   7149.33  5.0177957E-01
   7149.67  4.9531634E-01
   7150.00  4.8823847E-01
   7150.33  4.8039795E-01
   7150.67  4.7182269E-01
   7151.00  4.6247644E-01
   7151.33  4.5224327E-01
   7151.67  4.4124144E-01
   7152.00  4.2952249E-01
   7152.33  4.1711255E-01
   7152.67  4.0422964E-01
   7153.00  3.9101542E-01
   7153.33  3.7764104E-01
   7153.67  3.6431907E-01
   7154.00  3.5121080E-01
   7154.33  3.3854246E-01
   7154.67  3.2642461E-01
   7155.00  3.1497335E-01
   7155.33  3.0438888E-01
   7155.67  2.9464945E-01
   7156.00  2.8579842E-01
   7156.33  2.7797664E-01
   7156.67  2.7107717E-01
   7157.00  2.6509920E-01
   7157.33  2.6015414E-01
   7157.67  2.5612582E-01
   7158.00  2.5301751E-01
   7158.33  2.5095680E-01
   7158.67  2.4984685E-01
   7159.00  2.4971037E-01
   7159.33  2.5070243E-01
   7159.67  2.5272436E-01
   7160.00  2.5579064E-01
   7160.33  2.6003062E-01
   7160.67  2.6528562E-01
   7161.00  2.7150570E-01
   7161.33  2.7871157E-01
   7161.67  2.8667518E-01
   7162.00  2.9527624E-01
   7162.33  3.0441736E-01
   7162.67  3.1386557E-01
   7163.00  3.2347972E-01
   7163.33  3.3311970E-01
   7163.67  3.4265086E-01
   7164.00  3.5196779E-01
   7164.33  3.6093261E-01
   7164.67  3.6950637E-01
   7165.00  3.7764403E-01
   7165.33  3.8526166E-01
   7165.67  3.9240682E-01
   7166.00  3.9907979E-01
   7166.33  4.0523315E-01
   7166.67  4.1094404E-01
   7167.00  4.1623495E-01
   7167.33  4.2109042E-01
   7167.67  4.2559806E-01
   7168.00  4.2979511E-01
   7168.33  4.3369423E-01
   7168.67  4.3737470E-01
   7169.00  4.4087464E-01
   7169.33  4.4421749E-01
   7169.67  4.4745554E-01
   7170.00  4.5061196E-01
   7170.33  4.5369565E-01
   7170.67  4.5671671E-01
   7171.00  4.5965908E-01
   7171.33  4.6245212E-01
   7171.67  4.6499054E-01
   7172.00  4.6710285E-01
