    FDMNES
    energy     <xanes>
   7097.00  4.2897935E-03
   7097.33  4.3809632E-03
   7097.67  4.4759793E-03
   7098.00  4.5750992E-03
   7098.33  4.6792097E-03
   7098.67  4.7881279E-03
   7099.00  4.9022084E-03
   7099.33  5.0226164E-03
   7099.67  5.1491713E-03
   7100.00  5.2823769E-03
   7100.33  5.4238115E-03
   7100.67  5.5733209E-03
   7101.00  5.7316473E-03
   7101.33  5.9010078E-03
   7101.67  6.0813286E-03
   7102.00  6.2737507E-03
   7102.33  6.4815294E-03
   7102.67  6.7047912E-03
   7103.00  6.9453843E-03
   7103.33  7.2083529E-03
   7103.67  7.4943055E-03
   7104.00  7.8064320E-03
   7104.33  8.1530929E-03
   7104.67  8.5360783E-03
   7105.00  8.9613529E-03
   7105.33  9.4440186E-03
   7105.67  9.9889548E-03
   7106.00  1.0608538E-02
   7106.33  1.1333334E-02
   7106.67  1.2177235E-02
   7107.00  1.3169827E-02
   7107.33  1.4383544E-02
   7107.67  1.5863464E-02
   7108.00  1.7696351E-02
   7108.33  2.0098970E-02
   7108.67  2.3257387E-02
   7109.00  2.7520788E-02
   7109.33  3.3829959E-02
   7109.67  4.3338768E-02
   7110.00  5.8332815E-02
   7110.33  8.5408151E-02
   7110.67  1.3042524E-01
   7111.00  1.8775854E-01
   7111.33  2.1999725E-01
   7111.67  2.2034518E-01
   7112.00  2.1350959E-01
   7112.33  2.1773638E-01
   7112.67  2.1446749E-01
   7113.00  1.8800018E-01
   7113.33  1.5044515E-01
   7113.67  1.2079404E-01
   7114.00  1.0184557E-01
   7114.33  9.3526319E-02
   7114.67  8.8868437E-02
   7115.00  7.9098793E-02
   7115.33  6.4357986E-02
   7115.67  5.2993195E-02
   7116.00  4.6062748E-02
   7116.33  4.2491373E-02
   7116.67  4.0739929E-02
   7117.00  4.0214732E-02
   7117.33  4.0565139E-02
   7117.67  4.1421841E-02
   7118.00  4.2704488E-02
   7118.33  4.4553849E-02
   7118.67  4.7074751E-02
   7119.00  5.0379943E-02
   7119.33  5.4537694E-02
   7119.67  5.9108667E-02
   7120.00  6.3510715E-02
   7120.33  6.7082132E-02
   7120.67  7.0132726E-02
   7121.00  7.3408048E-02
   7121.33  7.7896324E-02
   7121.67  8.4002543E-02
   7122.00  9.2004822E-02
   7122.33  1.0243494E-01
   7122.67  1.1535392E-01
   7123.00  1.3118284E-01
   7123.33  1.5106237E-01
   7123.67  1.7533575E-01
   7124.00  2.0450811E-01
   7124.33  2.3915044E-01
   7124.67  2.7775684E-01
   7125.00  3.1906161E-01
   7125.33  3.6175607E-01
   7125.67  4.0410887E-01
   7126.00  4.4305520E-01
   7126.33  4.7133903E-01
   7126.67  4.8627555E-01
   7127.00  4.9009145E-01
   7127.33  4.9013550E-01
   7127.67  4.9517627E-01
   7128.00  5.0936875E-01
   7128.33  5.3406785E-01
   7128.67  5.6564567E-01
   7129.00  6.0257217E-01
   7129.33  6.4586672E-01
   7129.67  6.9619754E-01
   7130.00  7.5382326E-01
   7130.33  8.1702562E-01
   7130.67  8.7989156E-01
   7131.00  9.3659267E-01
   7131.33  9.7962431E-01
   7131.67  1.0075193E+00
   7132.00  1.0205177E+00
   7132.33  1.0192179E+00
   7132.67  1.0077846E+00
   7133.00  9.8823111E-01
   7133.33  9.6223489E-01
   7133.67  9.3336547E-01
   7134.00  9.0453018E-01
   7134.33  8.7944929E-01
   7134.67  8.5922230E-01
   7135.00  8.4274295E-01
   7135.33  8.2735147E-01
   7135.67  8.1090408E-01
   7136.00  7.9293828E-01
   7136.33  7.7366666E-01
   7136.67  7.5385948E-01
   7137.00  7.3399469E-01
   7137.33  7.1454162E-01
   7137.67  6.9576375E-01
   7138.00  6.7786386E-01
   7138.33  6.6116136E-01
   7138.67  6.4566950E-01
   7139.00  6.3148613E-01
   7139.33  6.1886786E-01
   7139.67  6.0769159E-01
   7140.00  5.9797680E-01
   7140.33  5.8991758E-01
   7140.67  5.8334412E-01
   7141.00  5.7827005E-01
   7141.33  5.7488826E-01
   7141.67  5.7299173E-01
   7142.00  5.7253882E-01
   7142.33  5.7361893E-01
   7142.67  5.7595011E-01
   7143.00  5.7942113E-01
   7143.33  5.8400274E-01
   7143.67  5.8938402E-01
   7144.00  5.9538360E-01
   7144.33  6.0182085E-01
   7144.67  6.0840094E-01
   7145.00  6.1490129E-01
   7145.33  6.2101093E-01
   7145.67  6.2650500E-01
   7146.00  6.3116004E-01
   7146.33  6.3458948E-01
   7146.67  6.3671433E-01
   7147.00  6.3743046E-01
   7147.33  6.3652574E-01
   7147.67  6.3419375E-01
   7148.00  6.3046658E-01
   7148.33  6.2523233E-01
   7148.67  6.1872858E-01
   7149.00  6.1102423E-01
   7149.33  6.0206998E-01
   7149.67  5.9210908E-01
   7150.00  5.8124593E-01
   7150.33  5.6952144E-01
   7150.67  5.5717751E-01
   7151.00  5.4434125E-01
   7151.33  5.3111156E-01
   7151.67  5.1766123E-01
   7152.00  5.0408844E-01
   7152.33  4.9048780E-01
   7152.67  4.7694717E-01
   7153.00  4.6353354E-01
   7153.33  4.5034564E-01
   7153.67  4.3743039E-01
   7154.00  4.2484473E-01
   7154.33  4.1268515E-01
   7154.67  4.0093283E-01
   7155.00  3.8959957E-01
   7155.33  3.7873178E-01
   7155.67  3.6825356E-01
   7156.00  3.5813484E-01
   7156.33  3.4837656E-01
   7156.67  3.3890431E-01
   7157.00  3.2969985E-01
   7157.33  3.2079372E-01
   7157.67  3.1217330E-01
   7158.00  3.0387433E-01
   7158.33  2.9600279E-01
   7158.67  2.8858373E-01
   7159.00  2.8168699E-01
   7159.33  2.7547360E-01
   7159.67  2.6995300E-01
   7160.00  2.6519622E-01
   7160.33  2.6138653E-01
   7160.67  2.5849025E-01
   7161.00  2.5656158E-01
   7161.33  2.5577362E-01
   7161.67  2.5602024E-01
   7162.00  2.5730787E-01
   7162.33  2.5976073E-01
   7162.67  2.6321337E-01
   7163.00  2.6760651E-01
   7163.33  2.7294974E-01
   7163.67  2.7900783E-01
   7164.00  2.8565288E-01
   7164.33  2.9278405E-01
   7164.67  3.0018829E-01
   7165.00  3.0772989E-01
   7165.33  3.1525943E-01
   7165.67  3.2264880E-01
   7166.00  3.2980606E-01
   7166.33  3.3661062E-01
   7166.67  3.4304788E-01
   7167.00  3.4909241E-01
   7167.33  3.5468631E-01
   7167.67  3.5989096E-01
   7168.00  3.6472767E-01
   7168.33  3.6918926E-01
   7168.67  3.7335829E-01
   7169.00  3.7727214E-01
   7169.33  3.8094829E-01
   7169.67  3.8445397E-01
   7170.00  3.8781860E-01
   7170.33  3.9105260E-01
   7170.67  3.9418042E-01
   7171.00  3.9719219E-01
   7171.33  4.0001981E-01
   7171.67  4.0256845E-01
   7172.00  4.0467310E-01
