    FDMNES
    energy     <xanes>
   7097.00  4.5409629E-03
   7097.33  4.6381257E-03
   7097.67  4.7393683E-03
   7098.00  4.8449602E-03
   7098.33  4.9558360E-03
   7098.67  5.0717966E-03
   7099.00  5.1932120E-03
   7099.33  5.3213056E-03
   7099.67  5.4558793E-03
   7100.00  5.5974566E-03
   7100.33  5.7476887E-03
   7100.67  5.9064025E-03
   7101.00  6.0743666E-03
   7101.33  6.2538919E-03
   7101.67  6.4448847E-03
   7102.00  6.6485241E-03
   7102.33  6.8681893E-03
   7102.67  7.1039900E-03
   7103.00  7.3578308E-03
   7103.33  7.6349303E-03
   7103.67  7.9358893E-03
   7104.00  8.2639891E-03
   7104.33  8.6278545E-03
   7104.67  9.0292954E-03
   7105.00  9.4744403E-03
   7105.33  9.9788348E-03
   7105.67  1.0547455E-02
   7106.00  1.1193008E-02
   7106.33  1.1946905E-02
   7106.67  1.2823356E-02
   7107.00  1.3852700E-02
   7107.33  1.5109214E-02
   7107.67  1.6638915E-02
   7108.00  1.8530397E-02
   7108.33  2.1004643E-02
   7108.67  2.4249583E-02
   7109.00  2.8616951E-02
   7109.33  3.5048722E-02
   7109.67  4.4680769E-02
   7110.00  5.9759319E-02
   7110.33  8.6936018E-02
   7110.67  1.3416712E-01
   7111.00  2.0315724E-01
   7111.33  2.4715702E-01
   7111.67  2.3858525E-01
   7112.00  2.1080144E-01
   7112.33  1.9538274E-01
   7112.67  1.8885084E-01
   7113.00  1.7275737E-01
   7113.33  1.4392345E-01
   7113.67  1.2053712E-01
   7114.00  1.0733162E-01
   7114.33  9.7137194E-02
   7114.67  8.1653989E-02
   7115.00  6.5848844E-02
   7115.33  5.5804755E-02
   7115.67  4.9809302E-02
   7116.00  4.6407884E-02
   7116.33  4.4839124E-02
   7116.67  4.4426467E-02
   7117.00  4.4943023E-02
   7117.33  4.6268493E-02
   7117.67  4.8068121E-02
   7118.00  5.0131245E-02
   7118.33  5.2403611E-02
   7118.67  5.5036987E-02
   7119.00  5.8273166E-02
   7119.33  6.2468293E-02
   7119.67  6.7742184E-02
   7120.00  7.4327484E-02
   7120.33  8.2783072E-02
   7120.67  9.3337386E-02
   7121.00  1.0642291E-01
   7121.33  1.2297042E-01
   7121.67  1.4312569E-01
   7122.00  1.6723917E-01
   7122.33  1.9586410E-01
   7122.67  2.2777634E-01
   7123.00  2.6156451E-01
   7123.33  2.9521521E-01
   7123.67  3.2751556E-01
   7124.00  3.5849037E-01
   7124.33  3.8916355E-01
   7124.67  4.2122930E-01
   7125.00  4.5614216E-01
   7125.33  4.9560673E-01
   7125.67  5.3896048E-01
   7126.00  5.8356336E-01
   7126.33  6.2314589E-01
   7126.67  6.5491016E-01
   7127.00  6.8070289E-01
   7127.33  7.0513442E-01
   7127.67  7.3206505E-01
   7128.00  7.6214801E-01
   7128.33  7.9235769E-01
   7128.67  8.1819470E-01
   7129.00  8.3769024E-01
   7129.33  8.5105779E-01
   7129.67  8.6180276E-01
   7130.00  8.7230409E-01
   7130.33  8.8407354E-01
   7130.67  8.9641338E-01
   7131.00  9.0765211E-01
   7131.33  9.1484760E-01
   7131.67  9.1621879E-01
   7132.00  9.1059438E-01
   7132.33  8.9697104E-01
   7132.67  8.7741961E-01
   7133.00  8.5360279E-01
   7133.33  8.2735102E-01
   7133.67  8.0085902E-01
   7134.00  7.7568484E-01
   7134.33  7.5396069E-01
   7134.67  7.3618715E-01
   7135.00  7.2167249E-01
   7135.33  7.0878499E-01
   7135.67  6.9599676E-01
   7136.00  6.8292946E-01
   7136.33  6.6963024E-01
   7136.67  6.5635918E-01
   7137.00  6.4330328E-01
   7137.33  6.3066648E-01
   7137.67  6.1850503E-01
   7138.00  6.0688442E-01
   7138.33  5.9595347E-01
   7138.67  5.8571753E-01
   7139.00  5.7625640E-01
   7139.33  5.6777345E-01
   7139.67  5.6024312E-01
   7140.00  5.5371816E-01
   7140.33  5.4836179E-01
   7140.67  5.4404748E-01
   7141.00  5.4075640E-01
   7141.33  5.3856392E-01
   7141.67  5.3727857E-01
   7142.00  5.3684312E-01
   7142.33  5.3731334E-01
   7142.67  5.3853329E-01
   7143.00  5.4043450E-01
   7143.33  5.4299117E-01
   7143.67  5.4601114E-01
   7144.00  5.4937325E-01
   7144.33  5.5293368E-01
   7144.67  5.5647590E-01
   7145.00  5.5981057E-01
   7145.33  5.6264096E-01
   7145.67  5.6477485E-01
   7146.00  5.6600894E-01
   7146.33  5.6600237E-01
   7146.67  5.6475143E-01
   7147.00  5.6219888E-01
   7147.33  5.5819719E-01
   7147.67  5.5299893E-01
   7148.00  5.4672956E-01
   7148.33  5.3945443E-01
   7148.67  5.3148105E-01
   7149.00  5.2297747E-01
   7149.33  5.1407514E-01
   7149.67  5.0496099E-01
   7150.00  4.9572560E-01
   7150.33  4.8642758E-01
   7150.67  4.7709778E-01
   7151.00  4.6772700E-01
   7151.33  4.5826768E-01
   7151.67  4.4867500E-01
   7152.00  4.3889809E-01
   7152.33  4.2885694E-01
   7152.67  4.1855698E-01
   7153.00  4.0800273E-01
   7153.33  3.9720744E-01
   7153.67  3.8627822E-01
   7154.00  3.7530358E-01
   7154.33  3.6441279E-01
   7154.67  3.5372744E-01
   7155.00  3.4335997E-01
   7155.33  3.3348337E-01
   7155.67  3.2414126E-01
   7156.00  3.1540202E-01
   7156.33  3.0740834E-01
   7156.67  3.0011762E-01
   7157.00  2.9355295E-01
   7157.33  2.8782619E-01
   7157.67  2.8285955E-01
   7158.00  2.7866625E-01
   7158.33  2.7536002E-01
   7158.67  2.7285741E-01
   7159.00  2.7117328E-01
   7159.33  2.7043239E-01
   7159.67  2.7055098E-01
   7160.00  2.7154595E-01
   7160.33  2.7354385E-01
   7160.67  2.7643974E-01
   7161.00  2.8022906E-01
   7161.33  2.8500078E-01
   7161.67  2.9060652E-01
   7162.00  2.9699540E-01
   7162.33  3.0417414E-01
   7162.67  3.1194231E-01
   7163.00  3.2017740E-01
   7163.33  3.2877094E-01
   7163.67  3.3753172E-01
   7164.00  3.4632118E-01
   7164.33  3.5496394E-01
   7164.67  3.6333804E-01
   7165.00  3.7134509E-01
   7165.33  3.7885640E-01
   7165.67  3.8589009E-01
   7166.00  3.9243377E-01
   7166.33  3.9843043E-01
   7166.67  4.0395952E-01
   7167.00  4.0904511E-01
   7167.33  4.1367008E-01
   7167.67  4.1792296E-01
   7168.00  4.2183703E-01
   7168.33  4.2541437E-01
   7168.67  4.2873129E-01
   7169.00  4.3181943E-01
   7169.33  4.3468842E-01
   7169.67  4.3739233E-01
   7170.00  4.3995259E-01
   7170.33  4.4237300E-01
   7170.67  4.4467969E-01
   7171.00  4.4687068E-01
   7171.33  4.4890351E-01
   7171.67  4.5072665E-01
   7172.00  4.5223608E-01
