    FDMNES
    energy     <xanes>
   7097.00  4.2461873E-03
   7097.33  4.3361991E-03
   7097.67  4.4300006E-03
   7098.00  4.5278440E-03
   7098.33  4.6306010E-03
   7098.67  4.7380894E-03
   7099.00  4.8506559E-03
   7099.33  4.9694434E-03
   7099.67  5.0942705E-03
   7100.00  5.2256279E-03
   7100.33  5.3650591E-03
   7100.67  5.5124055E-03
   7101.00  5.6683869E-03
   7101.33  5.8351624E-03
   7101.67  6.0126455E-03
   7102.00  6.2019363E-03
   7102.33  6.4061865E-03
   7102.67  6.6254918E-03
   7103.00  6.8616196E-03
   7103.33  7.1194156E-03
   7103.67  7.3994117E-03
   7104.00  7.7046261E-03
   7104.33  8.0430060E-03
   7104.67  8.4161429E-03
   7105.00  8.8296019E-03
   7105.33  9.2975302E-03
   7105.67  9.8242500E-03
   7106.00  1.0421092E-02
   7106.33  1.1116109E-02
   7106.67  1.1921418E-02
   7107.00  1.2863396E-02
   7107.33  1.4006593E-02
   7107.67  1.5389228E-02
   7108.00  1.7085702E-02
   7108.33  1.9280794E-02
   7108.67  2.2124981E-02
   7109.00  2.5900311E-02
   7109.33  3.1354551E-02
   7109.67  3.9355184E-02
   7110.00  5.1604402E-02
   7110.33  7.3050672E-02
   7110.67  1.0931853E-01
   7111.00  1.6290689E-01
   7111.33  2.1538112E-01
   7111.67  2.3529314E-01
   7112.00  2.2340488E-01
   7112.33  2.1270375E-01
   7112.67  2.1718154E-01
   7113.00  2.2033241E-01
   7113.33  1.9839742E-01
   7113.67  1.6110136E-01
   7114.00  1.2595888E-01
   7114.33  1.0350067E-01
   7114.67  9.2004653E-02
   7115.00  8.6696142E-02
   7115.33  7.7637108E-02
   7115.67  6.3792700E-02
   7116.00  5.1576636E-02
   7116.33  4.4259455E-02
   7116.67  4.0003173E-02
   7117.00  3.7711879E-02
   7117.33  3.6772126E-02
   7117.67  3.6568989E-02
   7118.00  3.6821748E-02
   7118.33  3.7368235E-02
   7118.67  3.8154067E-02
   7119.00  3.9268670E-02
   7119.33  4.0908965E-02
   7119.67  4.3144455E-02
   7120.00  4.6091243E-02
   7120.33  5.0024415E-02
   7120.67  5.5013668E-02
   7121.00  6.1178405E-02
   7121.33  6.8691636E-02
   7121.67  7.7265909E-02
   7122.00  8.6723343E-02
   7122.33  9.7054167E-02
   7122.67  1.0826558E-01
   7123.00  1.2067745E-01
   7123.33  1.3526461E-01
   7123.67  1.5284915E-01
   7124.00  1.7445060E-01
   7124.33  2.0171699E-01
   7124.67  2.3437783E-01
   7125.00  2.7186755E-01
   7125.33  3.1311254E-01
   7125.67  3.5615243E-01
   7126.00  3.9992865E-01
   7126.33  4.4125564E-01
   7126.67  4.7362705E-01
   7127.00  4.9120634E-01
   7127.33  4.9267422E-01
   7127.67  4.8828718E-01
   7128.00  4.8675610E-01
   7128.33  4.9595309E-01
   7128.67  5.1586370E-01
   7129.00  5.4444767E-01
   7129.33  5.7992931E-01
   7129.67  6.2093228E-01
   7130.00  6.6817954E-01
   7130.33  7.2308966E-01
   7130.67  7.8348633E-01
   7131.00  8.4613010E-01
   7131.33  9.0493978E-01
   7131.67  9.5459103E-01
   7132.00  9.9186520E-01
   7132.33  1.0143320E+00
   7132.67  1.0251161E+00
   7133.00  1.0259085E+00
   7133.33  1.0170533E+00
   7133.67  1.0005831E+00
   7134.00  9.7767893E-01
   7134.33  9.5055013E-01
   7134.67  9.2349760E-01
   7135.00  8.9911852E-01
   7135.33  8.7787324E-01
   7135.67  8.5716548E-01
   7136.00  8.3527769E-01
   7136.33  8.1150409E-01
   7136.67  7.8668323E-01
   7137.00  7.6159493E-01
   7137.33  7.3706493E-01
   7137.67  7.1355373E-01
   7138.00  6.9135693E-01
   7138.33  6.7089998E-01
   7138.67  6.5215140E-01
   7139.00  6.3521541E-01
   7139.33  6.2041176E-01
   7139.67  6.0753868E-01
   7140.00  5.9658290E-01
   7140.33  5.8770745E-01
   7140.67  5.8058108E-01
   7141.00  5.7511689E-01
   7141.33  5.7142216E-01
   7141.67  5.6923047E-01
   7142.00  5.6849958E-01
   7142.33  5.6937626E-01
   7142.67  5.7165884E-01
   7143.00  5.7531991E-01
   7143.33  5.8045284E-01
   7143.67  5.8674087E-01
   7144.00  5.9394129E-01
   7144.33  6.0164274E-01
   7144.67  6.0916569E-01
   7145.00  6.1599341E-01
   7145.33  6.2167489E-01
   7145.67  6.2642777E-01
   7146.00  6.3051984E-01
   7146.33  6.3412106E-01
   7146.67  6.3723776E-01
   7147.00  6.3963896E-01
   7147.33  6.4088928E-01
   7147.67  6.4087712E-01
   7148.00  6.3946097E-01
   7148.33  6.3636625E-01
   7148.67  6.3176389E-01
   7149.00  6.2568393E-01
   7149.33  6.1802183E-01
   7149.67  6.0905710E-01
   7150.00  5.9890491E-01
   7150.33  5.8760265E-01
   7150.67  5.7547059E-01
   7151.00  5.6268526E-01
   7151.33  5.4939333E-01
   7151.67  5.3583888E-01
   7152.00  5.2216178E-01
   7152.33  5.0849583E-01
   7152.67  4.9494004E-01
   7153.00  4.8155928E-01
   7153.33  4.6844051E-01
   7153.67  4.5559964E-01
   7154.00  4.4306958E-01
   7154.33  4.3092833E-01
   7154.67  4.1915578E-01
   7155.00  4.0775760E-01
   7155.33  3.9677431E-01
   7155.67  3.8614013E-01
   7156.00  3.7582828E-01
   7156.33  3.6583649E-01
   7156.67  3.5609198E-01
   7157.00  3.4656948E-01
   7157.33  3.3727906E-01
   7157.67  3.2819979E-01
   7158.00  3.1935418E-01
   7158.33  3.1082231E-01
   7158.67  3.0263102E-01
   7159.00  2.9484299E-01
   7159.33  2.8759785E-01
   7159.67  2.8091747E-01
   7160.00  2.7487230E-01
   7160.33  2.6963119E-01
   7160.67  2.6518084E-01
   7161.00  2.6158391E-01
   7161.33  2.5902330E-01
   7161.67  2.5743850E-01
   7162.00  2.5685903E-01
   7162.33  2.5743502E-01
   7162.67  2.5905175E-01
   7163.00  2.6170180E-01
   7163.33  2.6546326E-01
   7163.67  2.7012985E-01
   7164.00  2.7560565E-01
   7164.33  2.8184386E-01
   7164.67  2.8861476E-01
   7165.00  2.9578524E-01
   7165.33  3.0322747E-01
   7165.67  3.1075921E-01
   7166.00  3.1826131E-01
   7166.33  3.2559589E-01
   7166.67  3.3268669E-01
   7167.00  3.3947285E-01
   7167.33  3.4586336E-01
   7167.67  3.5187801E-01
   7168.00  3.5751166E-01
   7168.33  3.6272721E-01
   7168.67  3.6759271E-01
   7169.00  3.7213314E-01
   7169.33  3.7634624E-01
   7169.67  3.8030443E-01
   7170.00  3.8403714E-01
   7170.33  3.8754815E-01
   7170.67  3.9087759E-01
   7171.00  3.9402181E-01
   7171.33  3.9691706E-01
   7171.67  3.9949329E-01
   7172.00  4.0160493E-01
