    FDMNES
    energy     <xanes>
   7097.00  5.3146074E-03
   7097.33  5.4445282E-03
   7097.67  5.5804855E-03
   7098.00  5.7228923E-03
   7098.33  5.8731523E-03
   7098.67  6.0309845E-03
   7099.00  6.1969510E-03
   7099.33  6.3728886E-03
   7099.67  6.5585086E-03
   7100.00  6.7545957E-03
   7100.33  6.9636142E-03
   7100.67  7.1852935E-03
   7101.00  7.4207626E-03
   7101.33  7.6734257E-03
   7101.67  7.9430893E-03
   7102.00  8.2314346E-03
   7102.33  8.5433329E-03
   7102.67  8.8787956E-03
   7103.00  9.2404347E-03
   7103.33  9.6355233E-03
   7103.67  1.0064567E-02
   7104.00  1.0531836E-02
   7104.33  1.1048779E-02
   7104.67  1.1617076E-02
   7105.00  1.2244170E-02
   7105.33  1.2949333E-02
   7105.67  1.3737134E-02
   7106.00  1.4621676E-02
   7106.33  1.5638388E-02
   7106.67  1.6799542E-02
   7107.00  1.8135005E-02
   7107.33  1.9718327E-02
   7107.67  2.1585140E-02
   7108.00  2.3809603E-02
   7108.33  2.6574036E-02
   7108.67  3.0001205E-02
   7109.00  3.4325840E-02
   7109.33  4.0146822E-02
   7109.67  4.8040989E-02
   7110.00  5.9114222E-02
   7110.33  7.6479854E-02
   7110.67  1.0415932E-01
   7111.00  1.4868749E-01
   7111.33  2.1985388E-01
   7111.67  2.9933590E-01
   7112.00  3.4539111E-01
   7112.33  3.5605331E-01
   7112.67  3.8978858E-01
   7113.00  4.5756256E-01
   7113.33  5.0962850E-01
   7113.67  4.9850066E-01
   7114.00  4.3812958E-01
   7114.33  3.7162023E-01
   7114.67  3.2249078E-01
   7115.00  2.9400548E-01
   7115.33  2.8676702E-01
   7115.67  2.9393530E-01
   7116.00  3.0648861E-01
   7116.33  3.0822686E-01
   7116.67  2.9420970E-01
   7117.00  2.6913320E-01
   7117.33  2.4091335E-01
   7117.67  2.1564911E-01
   7118.00  1.9512890E-01
   7118.33  1.7966342E-01
   7118.67  1.6756656E-01
   7119.00  1.5787807E-01
   7119.33  1.4997457E-01
   7119.67  1.4323368E-01
   7120.00  1.3759484E-01
   7120.33  1.3342572E-01
   7120.67  1.3105821E-01
   7121.00  1.3099233E-01
   7121.33  1.3350906E-01
   7121.67  1.3728905E-01
   7122.00  1.4115448E-01
   7122.33  1.4447955E-01
   7122.67  1.4773238E-01
   7123.00  1.5144320E-01
   7123.33  1.5619890E-01
   7123.67  1.6227015E-01
   7124.00  1.7001464E-01
   7124.33  1.8022481E-01
   7124.67  1.9329822E-01
   7125.00  2.0994958E-01
   7125.33  2.3170933E-01
   7125.67  2.5891947E-01
   7126.00  2.9192505E-01
   7126.33  3.3028529E-01
   7126.67  3.6972758E-01
   7127.00  4.0513090E-01
   7127.33  4.3028580E-01
   7127.67  4.4639757E-01
   7128.00  4.5759979E-01
   7128.33  4.6951929E-01
   7128.67  4.8560966E-01
   7129.00  5.0701608E-01
   7129.33  5.3445528E-01
   7129.67  5.6680372E-01
   7130.00  6.0353198E-01
   7130.33  6.4439784E-01
   7130.67  6.8788830E-01
   7131.00  7.3275977E-01
   7131.33  7.7732878E-01
   7131.67  8.2000304E-01
   7132.00  8.5965633E-01
   7132.33  8.9523568E-01
   7132.67  9.2769201E-01
   7133.00  9.5839539E-01
   7133.33  9.8986007E-01
   7133.67  1.0245057E+00
   7134.00  1.0632083E+00
   7134.33  1.1027489E+00
   7134.67  1.1321078E+00
   7135.00  1.1370279E+00
   7135.33  1.1009771E+00
   7135.67  1.0324826E+00
   7136.00  9.4560094E-01
   7136.33  8.5654306E-01
   7136.67  7.7491663E-01
   7137.00  7.0347031E-01
   7137.33  6.4351910E-01
   7137.67  5.9261753E-01
   7138.00  5.4965565E-01
   7138.33  5.1444965E-01
   7138.67  4.8540900E-01
   7139.00  4.6208370E-01
   7139.33  4.4468459E-01
   7139.67  4.3208938E-01
   7140.00  4.2384462E-01
   7140.33  4.1982348E-01
   7140.67  4.1892925E-01
   7141.00  4.2064667E-01
   7141.33  4.2471678E-01
   7141.67  4.3047938E-01
   7142.00  4.3769774E-01
   7142.33  4.4636497E-01
   7142.67  4.5623102E-01
   7143.00  4.6723982E-01
   7143.33  4.7941705E-01
   7143.67  4.9241627E-01
   7144.00  5.0591473E-01
   7144.33  5.1934963E-01
   7144.67  5.3199488E-01
   7145.00  5.4313529E-01
   7145.33  5.5169050E-01
   7145.67  5.5737459E-01
   7146.00  5.5998424E-01
   7146.33  5.5929511E-01
   7146.67  5.5615547E-01
   7147.00  5.5114106E-01
   7147.33  5.4482988E-01
   7147.67  5.3803893E-01
   7148.00  5.3123943E-01
   7148.33  5.2487766E-01
   7148.67  5.1916702E-01
   7149.00  5.1425127E-01
   7149.33  5.1033303E-01
   7149.67  5.0732911E-01
   7150.00  5.0523394E-01
   7150.33  5.0413347E-01
   7150.67  5.0388190E-01
   7151.00  5.0444400E-01
   7151.33  5.0586840E-01
   7151.67  5.0800315E-01
   7152.00  5.1079193E-01
   7152.33  5.1423038E-01
   7152.67  5.1815612E-01
   7153.00  5.2248225E-01
   7153.33  5.2713628E-01
   7153.67  5.3196848E-01
   7154.00  5.3688339E-01
   7154.33  5.4177681E-01
   7154.67  5.4656509E-01
   7155.00  5.5118985E-01
   7155.33  5.5557601E-01
   7155.67  5.5972105E-01
   7156.00  5.6361322E-01
   7156.33  5.6721916E-01
   7156.67  5.7057788E-01
   7157.00  5.7369922E-01
   7157.33  5.7656797E-01
   7157.67  5.7922374E-01
   7158.00  5.8167367E-01
   7158.33  5.8389659E-01
   7158.67  5.8591648E-01
   7159.00  5.8772727E-01
   7159.33  5.8928740E-01
   7159.67  5.9060518E-01
   7160.00  5.9165988E-01
   7160.33  5.9238668E-01
   7160.67  5.9279037E-01
   7161.00  5.9284195E-01
   7161.33  5.9245819E-01
   7161.67  5.9165307E-01
   7162.00  5.9039865E-01
   7162.33  5.8860578E-01
   7162.67  5.8631009E-01
   7163.00  5.8349577E-01
   7163.33  5.8008279E-01
   7163.67  5.7613196E-01
   7164.00  5.7164809E-01
   7164.33  5.6658015E-01
   7164.67  5.6101527E-01
   7165.00  5.5497956E-01
   7165.33  5.4845644E-01
   7165.67  5.4154604E-01
   7166.00  5.3429389E-01
   7166.33  5.2672226E-01
   7166.67  5.1892887E-01
   7167.00  5.1096984E-01
   7167.33  5.0289918E-01
   7167.67  4.9479658E-01
   7168.00  4.8672086E-01
   7168.33  4.7875181E-01
   7168.67  4.7094276E-01
   7169.00  4.6334601E-01
   7169.33  4.5605039E-01
   7169.67  4.4907208E-01
   7170.00  4.4245016E-01
   7170.33  4.3627681E-01
   7170.67  4.3054446E-01
   7171.00  4.2529187E-01
   7171.33  4.2064482E-01
   7171.67  4.1664423E-01
   7172.00  4.1343981E-01
