    FDMNES
    energy     <xanes>
   7097.00  5.1984961E-03
   7097.33  5.3207177E-03
   7097.67  5.4484149E-03
   7098.00  5.5819506E-03
   7098.33  5.7225796E-03
   7098.67  5.8700320E-03
   7099.00  6.0247992E-03
   7099.33  6.1885111E-03
   7099.67  6.3608872E-03
   7100.00  6.5426094E-03
   7100.33  6.7358489E-03
   7100.67  6.9403357E-03
   7101.00  7.1570456E-03
   7101.33  7.3889571E-03
   7101.67  7.6358604E-03
   7102.00  7.8992030E-03
   7102.33  8.1832202E-03
   7102.67  8.4878734E-03
   7103.00  8.8154061E-03
   7103.33  9.1721148E-03
   7103.67  9.5583864E-03
   7104.00  9.9778947E-03
   7104.33  1.0440543E-02
   7104.67  1.0947759E-02
   7105.00  1.1506000E-02
   7105.33  1.2132033E-02
   7105.67  1.2829945E-02
   7106.00  1.3612209E-02
   7106.33  1.4510222E-02
   7106.67  1.5535547E-02
   7107.00  1.6715686E-02
   7107.33  1.8118645E-02
   7107.67  1.9780720E-02
   7108.00  2.1775887E-02
   7108.33  2.4288873E-02
   7108.67  2.7463008E-02
   7109.00  3.1572955E-02
   7109.33  3.7353578E-02
   7109.67  4.5662933E-02
   7110.00  5.8201853E-02
   7110.33  7.9741945E-02
   7110.67  1.1327673E-01
   7111.00  1.5040913E-01
   7111.33  1.7060411E-01
   7111.67  1.9345254E-01
   7112.00  2.3383373E-01
   7112.33  2.8422947E-01
   7112.67  3.0091868E-01
   7113.00  2.8687374E-01
   7113.33  2.8727864E-01
   7113.67  3.0930310E-01
   7114.00  3.3094334E-01
   7114.33  3.3306601E-01
   7114.67  3.3107854E-01
   7115.00  3.3270890E-01
   7115.33  3.3302869E-01
   7115.67  3.3311279E-01
   7116.00  3.4003164E-01
   7116.33  3.5510468E-01
   7116.67  3.6639071E-01
   7117.00  3.6846695E-01
   7117.33  3.6358890E-01
   7117.67  3.5100228E-01
   7118.00  3.2792301E-01
   7118.33  2.9811254E-01
   7118.67  2.6968065E-01
   7119.00  2.4562463E-01
   7119.33  2.2594835E-01
   7119.67  2.0826019E-01
   7120.00  1.9183353E-01
   7120.33  1.7735176E-01
   7120.67  1.6535111E-01
   7121.00  1.5621547E-01
   7121.33  1.5046126E-01
   7121.67  1.4775012E-01
   7122.00  1.4820241E-01
   7122.33  1.5248338E-01
   7122.67  1.6039754E-01
   7123.00  1.7205313E-01
   7123.33  1.8793206E-01
   7123.67  2.0739768E-01
   7124.00  2.2999709E-01
   7124.33  2.5495266E-01
   7124.67  2.8051066E-01
   7125.00  3.0528453E-01
   7125.33  3.2762764E-01
   7125.67  3.4697728E-01
   7126.00  3.6323888E-01
   7126.33  3.7672918E-01
   7126.67  3.8888165E-01
   7127.00  4.0067888E-01
   7127.33  4.1265487E-01
   7127.67  4.2458628E-01
   7128.00  4.3659859E-01
   7128.33  4.4938729E-01
   7128.67  4.6272977E-01
   7129.00  4.7592559E-01
   7129.33  4.8893542E-01
   7129.67  5.0321751E-01
   7130.00  5.2023557E-01
   7130.33  5.4113373E-01
   7130.67  5.6479526E-01
   7131.00  5.8985395E-01
   7131.33  6.1446501E-01
   7131.67  6.3718783E-01
   7132.00  6.5718593E-01
   7132.33  6.7370029E-01
   7132.67  6.8743545E-01
   7133.00  6.9917695E-01
   7133.33  7.1012550E-01
   7133.67  7.2165504E-01
   7134.00  7.3455212E-01
   7134.33  7.4943349E-01
   7134.67  7.6599523E-01
   7135.00  7.8383166E-01
   7135.33  8.0189992E-01
   7135.67  8.1801702E-01
   7136.00  8.2926891E-01
   7136.33  8.3052492E-01
   7136.67  8.1984763E-01
   7137.00  7.9677510E-01
   7137.33  7.6254525E-01
   7137.67  7.2299267E-01
   7138.00  6.8228708E-01
   7138.33  6.4453910E-01
   7138.67  6.1162761E-01
   7139.00  5.8436898E-01
   7139.33  5.6354312E-01
   7139.67  5.4789196E-01
   7140.00  5.3670244E-01
   7140.33  5.2952645E-01
   7140.67  5.2510720E-01
   7141.00  5.2286721E-01
   7141.33  5.2246332E-01
   7141.67  5.2322899E-01
   7142.00  5.2478825E-01
   7142.33  5.2672697E-01
   7142.67  5.2851810E-01
   7143.00  5.2974721E-01
   7143.33  5.2987951E-01
   7143.67  5.2878914E-01
   7144.00  5.2645313E-01
   7144.33  5.2294747E-01
   7144.67  5.1877979E-01
   7145.00  5.1430967E-01
   7145.33  5.0994426E-01
   7145.67  5.0601018E-01
   7146.00  5.0272934E-01
   7146.33  5.0037879E-01
   7146.67  4.9895010E-01
   7147.00  4.9847699E-01
   7147.33  4.9907994E-01
   7147.67  5.0061283E-01
   7148.00  5.0303783E-01
   7148.33  5.0640007E-01
   7148.67  5.1052148E-01
   7149.00  5.1532929E-01
   7149.33  5.2080156E-01
   7149.67  5.2675645E-01
   7150.00  5.3309299E-01
   7150.33  5.3971992E-01
   7150.67  5.4647907E-01
   7151.00  5.5326453E-01
   7151.33  5.5995066E-01
   7151.67  5.6644571E-01
   7152.00  5.7267122E-01
   7152.33  5.7850643E-01
   7152.67  5.8393582E-01
   7153.00  5.8892401E-01
   7153.33  5.9338793E-01
   7153.67  5.9737499E-01
   7154.00  6.0088347E-01
   7154.33  6.0385954E-01
   7154.67  6.0637443E-01
   7155.00  6.0844169E-01
   7155.33  6.1002554E-01
   7155.67  6.1119936E-01
   7156.00  6.1198113E-01
   7156.33  6.1234679E-01
   7156.67  6.1236620E-01
   7157.00  6.1206133E-01
   7157.33  6.1142326E-01
   7157.67  6.1051993E-01
   7158.00  6.0937953E-01
   7158.33  6.0801041E-01
   7158.67  6.0647181E-01
   7159.00  6.0479217E-01
   7159.33  6.0298950E-01
   7159.67  6.0110724E-01
   7160.00  5.9916760E-01
   7160.33  5.9718642E-01
   7160.67  5.9518273E-01
   7161.00  5.9316309E-01
   7161.33  5.9112645E-01
   7161.67  5.8906860E-01
   7162.00  5.8697909E-01
   7162.33  5.8483329E-01
   7162.67  5.8261212E-01
   7163.00  5.8028885E-01
   7163.33  5.7781202E-01
   7163.67  5.7516396E-01
   7164.00  5.7232249E-01
   7164.33  5.6923874E-01
   7164.67  5.6591164E-01
   7165.00  5.6231951E-01
   7165.33  5.5840947E-01
   7165.67  5.5420756E-01
   7166.00  5.4971280E-01
   7166.33  5.4489742E-01
   7166.67  5.3981390E-01
   7167.00  5.3448159E-01
   7167.33  5.2889724E-01
   7167.67  5.2311765E-01
   7168.00  5.1717459E-01
   7168.33  5.1109359E-01
   7168.67  5.0493257E-01
   7169.00  4.9873064E-01
   7169.33  4.9253761E-01
   7169.67  4.8640433E-01
   7170.00  4.8037412E-01
   7170.33  4.7451865E-01
   7170.67  4.6888012E-01
   7171.00  4.6352611E-01
   7171.33  4.5862104E-01
   7171.67  4.5430463E-01
   7172.00  4.5081107E-01
