    FDMNES
    energy     <xanes>
   7097.00  5.3908369E-03
   7097.33  5.5274670E-03
   7097.67  5.6706473E-03
   7098.00  5.8208354E-03
   7098.33  5.9795703E-03
   7098.67  6.1465595E-03
   7099.00  6.3224279E-03
   7099.33  6.5091982E-03
   7099.67  6.7065716E-03
   7100.00  6.9154230E-03
   7100.33  7.1384770E-03
   7100.67  7.3754579E-03
   7101.00  7.6276270E-03
   7101.33  7.8987612E-03
   7101.67  8.1886732E-03
   7102.00  8.4992436E-03
   7102.33  8.8358908E-03
   7102.67  9.1986572E-03
   7103.00  9.5904626E-03
   7103.33  1.0019407E-02
   7103.67  1.0486077E-02
   7104.00  1.0995234E-02
   7104.33  1.1559613E-02
   7104.67  1.2181076E-02
   7105.00  1.2867873E-02
   7105.33  1.3641344E-02
   7105.67  1.4506434E-02
   7106.00  1.5478602E-02
   7106.33  1.6596685E-02
   7106.67  1.7873679E-02
   7107.00  1.9341730E-02
   7107.33  2.1079976E-02
   7107.67  2.3125171E-02
   7108.00  2.5554910E-02
   7108.33  2.8559587E-02
   7108.67  3.2261894E-02
   7109.00  3.6898627E-02
   7109.33  4.3072126E-02
   7109.67  5.1346137E-02
   7110.00  6.2804613E-02
   7110.33  8.0409794E-02
   7110.67  1.0696493E-01
   7111.00  1.4377418E-01
   7111.33  1.9151533E-01
   7111.67  2.6106545E-01
   7112.00  3.6757581E-01
   7112.33  5.1179874E-01
   7112.67  6.4209052E-01
   7113.00  7.1602911E-01
   7113.33  7.0352527E-01
   7113.67  6.1568134E-01
   7114.00  4.9326132E-01
   7114.33  3.9085106E-01
   7114.67  3.1909635E-01
   7115.00  2.7288559E-01
   7115.33  2.4765419E-01
   7115.67  2.3612380E-01
   7116.00  2.3331364E-01
   7116.33  2.3044088E-01
   7116.67  2.2198376E-01
   7117.00  2.1022942E-01
   7117.33  1.9935755E-01
   7117.67  1.8999689E-01
   7118.00  1.8123122E-01
   7118.33  1.7195142E-01
   7118.67  1.6197204E-01
   7119.00  1.5184027E-01
   7119.33  1.4257233E-01
   7119.67  1.3497935E-01
   7120.00  1.2959618E-01
   7120.33  1.2665023E-01
   7120.67  1.2529570E-01
   7121.00  1.2500716E-01
   7121.33  1.2542748E-01
   7121.67  1.2606215E-01
   7122.00  1.2664846E-01
   7122.33  1.2744985E-01
   7122.67  1.2913887E-01
   7123.00  1.3215804E-01
   7123.33  1.3683859E-01
   7123.67  1.4302976E-01
   7124.00  1.5086814E-01
   7124.33  1.6095300E-01
   7124.67  1.7350398E-01
   7125.00  1.8890460E-01
   7125.33  2.0782149E-01
   7125.67  2.2977904E-01
   7126.00  2.5435481E-01
   7126.33  2.8116820E-01
   7126.67  3.0951488E-01
   7127.00  3.3913558E-01
   7127.33  3.6979875E-01
   7127.67  4.0082728E-01
   7128.00  4.3135645E-01
   7128.33  4.5932696E-01
   7128.67  4.8346126E-01
   7129.00  5.0420465E-01
   7129.33  5.2409995E-01
   7129.67  5.4629736E-01
   7130.00  5.7273974E-01
   7130.33  6.0540315E-01
   7130.67  6.4386470E-01
   7131.00  6.8757449E-01
   7131.33  7.3565103E-01
   7131.67  7.8575684E-01
   7132.00  8.3612910E-01
   7132.33  8.8443490E-01
   7132.67  9.2865572E-01
   7133.00  9.6648189E-01
   7133.33  9.9351356E-01
   7133.67  1.0080280E+00
   7134.00  1.0087495E+00
   7134.33  9.9441572E-01
   7134.67  9.6834994E-01
   7135.00  9.3209991E-01
   7135.33  8.8634222E-01
   7135.67  8.3433573E-01
   7136.00  7.7865241E-01
   7136.33  7.2270967E-01
   7136.67  6.6968586E-01
   7137.00  6.2156977E-01
   7137.33  5.8049618E-01
   7137.67  5.4619099E-01
   7138.00  5.1864323E-01
   7138.33  4.9835042E-01
   7138.67  4.8403333E-01
   7139.00  4.7522725E-01
   7139.33  4.7198241E-01
   7139.67  4.7310732E-01
   7140.00  4.7811401E-01
   7140.33  4.8685778E-01
   7140.67  4.9836400E-01
   7141.00  5.1213884E-01
   7141.33  5.2778258E-01
   7141.67  5.4443746E-01
   7142.00  5.6151418E-01
   7142.33  5.7827421E-01
   7142.67  5.9407026E-01
   7143.00  6.0837523E-01
   7143.33  6.2045200E-01
   7143.67  6.3023895E-01
   7144.00  6.3763181E-01
   7144.33  6.4239356E-01
   7144.67  6.4502023E-01
   7145.00  6.4575973E-01
   7145.33  6.4473687E-01
   7145.67  6.4245898E-01
   7146.00  6.3916489E-01
   7146.33  6.3499426E-01
   7146.67  6.3023524E-01
   7147.00  6.2500737E-01
   7147.33  6.1935498E-01
   7147.67  6.1339275E-01
   7148.00  6.0717168E-01
   7148.33  6.0072299E-01
   7148.67  5.9413134E-01
   7149.00  5.8744833E-01
   7149.33  5.8073373E-01
   7149.67  5.7406412E-01
   7150.00  5.6751116E-01
   7150.33  5.6119307E-01
   7150.67  5.5518230E-01
   7151.00  5.4956392E-01
   7151.33  5.4448780E-01
   7151.67  5.3996746E-01
   7152.00  5.3605150E-01
   7152.33  5.3285902E-01
   7152.67  5.3033101E-01
   7153.00  5.2847399E-01
   7153.33  5.2736829E-01
   7153.67  5.2691835E-01
   7154.00  5.2710748E-01
   7154.33  5.2798571E-01
   7154.67  5.2944167E-01
   7155.00  5.3143690E-01
   7155.33  5.3397625E-01
   7155.67  5.3693532E-01
   7156.00  5.4025551E-01
   7156.33  5.4390405E-01
   7156.67  5.4777670E-01
   7157.00  5.5181776E-01
   7157.33  5.5597880E-01
   7157.67  5.6018618E-01
   7158.00  5.6438652E-01
   7158.33  5.6850293E-01
   7158.67  5.7246708E-01
   7159.00  5.7620099E-01
   7159.33  5.7955930E-01
   7159.67  5.8246990E-01
   7160.00  5.8482988E-01
   7160.33  5.8643142E-01
   7160.67  5.8723716E-01
   7161.00  5.8715698E-01
   7161.33  5.8599703E-01
   7161.67  5.8384053E-01
   7162.00  5.8068360E-01
   7162.33  5.7643146E-01
   7162.67  5.7126352E-01
   7163.00  5.6524942E-01
   7163.33  5.5839344E-01
   7163.67  5.5089892E-01
   7164.00  5.4286500E-01
   7164.33  5.3435360E-01
   7164.67  5.2552901E-01
   7165.00  5.1648248E-01
   7165.33  5.0729717E-01
   7165.67  4.9807915E-01
   7166.00  4.8890069E-01
   7166.33  4.7985015E-01
   7166.67  4.7097615E-01
   7167.00  4.6232579E-01
   7167.33  4.5398079E-01
   7167.67  4.4594794E-01
   7168.00  4.3825835E-01
   7168.33  4.3098936E-01
   7168.67  4.2411885E-01
   7169.00  4.1766460E-01
   7169.33  4.1169574E-01
   7169.67  4.0616764E-01
   7170.00  4.0108645E-01
   7170.33  3.9651405E-01
   7170.67  3.9239783E-01
   7171.00  3.8874248E-01
   7171.33  3.8561989E-01
   7171.67  3.8300203E-01
   7172.00  3.8093107E-01
