    FDMNES
    energy     <xanes>
   7097.00  3.8653049E-03
   7097.33  3.9408618E-03
   7097.67  4.0193854E-03
   7098.00  4.1010682E-03
   7098.33  4.1865845E-03
   7098.67  4.2757866E-03
   7099.00  4.3689399E-03
   7099.33  4.4669280E-03
   7099.67  4.5696059E-03
   7100.00  4.6773522E-03
   7100.33  4.7913629E-03
   7100.67  4.9115159E-03
   7101.00  5.0383724E-03
   7101.33  5.1736167E-03
   7101.67  5.3171937E-03
   7102.00  5.4699753E-03
   7102.33  5.6344487E-03
   7102.67  5.8107271E-03
   7103.00  6.0002418E-03
   7103.33  6.2068871E-03
   7103.67  6.4311836E-03
   7104.00  6.6756452E-03
   7104.33  6.9468303E-03
   7104.67  7.2462703E-03
   7105.00  7.5787730E-03
   7105.33  7.9564520E-03
   7105.67  8.3835310E-03
   7106.00  8.8702727E-03
   7106.33  9.4419344E-03
   7106.67  1.0110789E-02
   7107.00  1.0902250E-02
   7107.33  1.1878511E-02
   7107.67  1.3080594E-02
   7108.00  1.4586317E-02
   7108.33  1.6591046E-02
   7108.67  1.9270936E-02
   7109.00  2.2956035E-02
   7109.33  2.8545329E-02
   7109.67  3.7184294E-02
   7110.00  5.1150478E-02
   7110.33  7.6975124E-02
   7110.67  1.1953100E-01
   7111.00  1.6940537E-01
   7111.33  1.9321656E-01
   7111.67  1.8592671E-01
   7112.00  1.4815878E-01
   7112.33  1.1130524E-01
   7112.67  8.9412155E-02
   7113.00  7.7394505E-02
   7113.33  6.6370722E-02
   7113.67  5.4425734E-02
   7114.00  4.4881736E-02
   7114.33  3.9189900E-02
   7114.67  3.5331092E-02
   7115.00  3.2803373E-02
   7115.33  3.1454839E-02
   7115.67  3.0629264E-02
   7116.00  3.0727102E-02
   7116.33  3.1982176E-02
   7116.67  3.3427110E-02
   7117.00  3.4119793E-02
   7117.33  3.3754533E-02
   7117.67  3.3255138E-02
   7118.00  3.3230104E-02
   7118.33  3.3958119E-02
   7118.67  3.5214921E-02
   7119.00  3.6965574E-02
   7119.33  3.9604005E-02
   7119.67  4.3239237E-02
   7120.00  4.7639183E-02
   7120.33  5.2054957E-02
   7120.67  5.5682442E-02
   7121.00  5.8370429E-02
   7121.33  6.0610133E-02
   7121.67  6.3181720E-02
   7122.00  6.6566675E-02
   7122.33  7.1379941E-02
   7122.67  7.7906893E-02
   7123.00  8.6450882E-02
   7123.33  9.7404931E-02
   7123.67  1.1054211E-01
   7124.00  1.2597907E-01
   7124.33  1.4364170E-01
   7124.67  1.6254835E-01
   7125.00  1.8308725E-01
   7125.33  2.0653741E-01
   7125.67  2.3270341E-01
   7126.00  2.6229909E-01
   7126.33  2.9813846E-01
   7126.67  3.4014540E-01
   7127.00  3.8583693E-01
   7127.33  4.3043321E-01
   7127.67  4.7268357E-01
   7128.00  5.1399201E-01
   7128.33  5.5353973E-01
   7128.67  5.8951167E-01
   7129.00  6.2176440E-01
   7129.33  6.5018695E-01
   7129.67  6.7452413E-01
   7130.00  6.9407629E-01
   7130.33  7.0847220E-01
   7130.67  7.1902453E-01
   7131.00  7.2589666E-01
   7131.33  7.2900988E-01
   7131.67  7.3092388E-01
   7132.00  7.3488496E-01
   7132.33  7.4504855E-01
   7132.67  7.6206743E-01
   7133.00  7.8515555E-01
   7133.33  8.1245437E-01
   7133.67  8.4076759E-01
   7134.00  8.6801855E-01
   7134.33  8.9181476E-01
   7134.67  9.1092343E-01
   7135.00  9.2451515E-01
   7135.33  9.3201642E-01
   7135.67  9.3524391E-01
   7136.00  9.3545219E-01
   7136.33  9.3342823E-01
   7136.67  9.2967400E-01
   7137.00  9.2390233E-01
   7137.33  9.1522663E-01
   7137.67  9.0348057E-01
   7138.00  8.8845173E-01
   7138.33  8.6978459E-01
   7138.67  8.4823652E-01
   7139.00  8.2430944E-01
   7139.33  7.9853251E-01
   7139.67  7.7191127E-01
   7140.00  7.4511134E-01
   7140.33  7.1887834E-01
   7140.67  6.9369644E-01
   7141.00  6.6992236E-01
   7141.33  6.4805755E-01
   7141.67  6.2805588E-01
   7142.00  6.1000408E-01
   7142.33  5.9425187E-01
   7142.67  5.8064455E-01
   7143.00  5.6925196E-01
   7143.33  5.6035124E-01
   7143.67  5.5350467E-01
   7144.00  5.4842229E-01
   7144.33  5.4482521E-01
   7144.67  5.4212764E-01
   7145.00  5.4007553E-01
   7145.33  5.3858639E-01
   7145.67  5.3757246E-01
   7146.00  5.3705531E-01
   7146.33  5.3712450E-01
   7146.67  5.3771299E-01
   7147.00  5.3879474E-01
   7147.33  5.4037917E-01
   7147.67  5.4236465E-01
   7148.00  5.4470900E-01
   7148.33  5.4740831E-01
   7148.67  5.5039389E-01
   7149.00  5.5364630E-01
   7149.33  5.5718316E-01
   7149.67  5.6094074E-01
   7150.00  5.6487860E-01
   7150.33  5.6896032E-01
   7150.67  5.7311884E-01
   7151.00  5.7731408E-01
   7151.33  5.8149960E-01
   7151.67  5.8562887E-01
   7152.00  5.8965403E-01
   7152.33  5.9346960E-01
   7152.67  5.9695930E-01
   7153.00  5.9994776E-01
   7153.33  6.0210894E-01
   7153.67  6.0327585E-01
   7154.00  6.0321140E-01
   7154.33  6.0146113E-01
   7154.67  5.9798921E-01
   7155.00  5.9266470E-01
   7155.33  5.8519016E-01
   7155.67  5.7586012E-01
   7156.00  5.6481253E-01
   7156.33  5.5211459E-01
   7156.67  5.3827145E-01
   7157.00  5.2359121E-01
   7157.33  5.0838323E-01
   7157.67  4.9305232E-01
   7158.00  4.7785498E-01
   7158.33  4.6307563E-01
   7158.67  4.4883953E-01
   7159.00  4.3524626E-01
   7159.33  4.2245554E-01
   7159.67  4.1041379E-01
   7160.00  3.9913406E-01
   7160.33  3.8871613E-01
   7160.67  3.7906434E-01
   7161.00  3.7018039E-01
   7161.33  3.6216743E-01
   7161.67  3.5494010E-01
   7162.00  3.4851036E-01
   7162.33  3.4298892E-01
   7162.67  3.3827422E-01
   7163.00  3.3435976E-01
   7163.33  3.3132945E-01
   7163.67  3.2906060E-01
   7164.00  3.2752475E-01
   7164.33  3.2676867E-01
   7164.67  3.2666017E-01
   7165.00  3.2715591E-01
   7165.33  3.2826865E-01
   7165.67  3.2986840E-01
   7166.00  3.3189719E-01
   7166.33  3.3432265E-01
   7166.67  3.3701442E-01
   7167.00  3.3989357E-01
   7167.33  3.4287801E-01
   7167.67  3.4586392E-01
   7168.00  3.4877815E-01
   7168.33  3.5153122E-01
   7168.67  3.5408996E-01
   7169.00  3.5643193E-01
   7169.33  3.5853604E-01
   7169.67  3.6046560E-01
   7170.00  3.6227091E-01
   7170.33  3.6401219E-01
   7170.67  3.6575428E-01
   7171.00  3.6752322E-01
   7171.33  3.6930061E-01
   7171.67  3.7098332E-01
   7172.00  3.7240766E-01
