    FDMNES
    energy     <xanes>
   7097.00  5.0347011E-03
   7097.33  5.1571605E-03
   7097.67  5.2853389E-03
   7098.00  5.4196338E-03
   7098.33  5.5613865E-03
   7098.67  5.7103409E-03
   7099.00  5.8670421E-03
   7099.33  6.0332562E-03
   7099.67  6.2087255E-03
   7100.00  6.3942182E-03
   7100.33  6.5921224E-03
   7100.67  6.8022092E-03
   7101.00  7.0255961E-03
   7101.33  7.2656162E-03
   7101.67  7.5221366E-03
   7102.00  7.7968451E-03
   7102.33  8.0945747E-03
   7102.67  8.4154366E-03
   7103.00  8.7620999E-03
   7103.33  9.1419059E-03
   7103.67  9.5555507E-03
   7104.00  1.0007498E-02
   7104.33  1.0509572E-02
   7104.67  1.1063873E-02
   7105.00  1.1678423E-02
   7105.33  1.2373749E-02
   7105.67  1.3155521E-02
   7106.00  1.4039568E-02
   7106.33  1.5065314E-02
   7106.67  1.6248425E-02
   7107.00  1.7624459E-02
   7107.33  1.9280748E-02
   7107.67  2.1265785E-02
   7108.00  2.3676268E-02
   7108.33  2.6752460E-02
   7108.67  3.0682366E-02
   7109.00  3.5822351E-02
   7109.33  4.3118047E-02
   7109.67  5.3655114E-02
   7110.00  6.9575388E-02
   7110.33  9.7046882E-02
   7110.67  1.4207910E-01
   7111.00  2.0202961E-01
   7111.33  2.4204798E-01
   7111.67  2.5758531E-01
   7112.00  2.8036414E-01
   7112.33  3.3940749E-01
   7112.67  4.2934249E-01
   7113.00  5.1059967E-01
   7113.33  4.8646812E-01
   7113.67  3.8618879E-01
   7114.00  2.9049658E-01
   7114.33  2.3590249E-01
   7114.67  2.1186331E-01
   7115.00  2.1148650E-01
   7115.33  2.2801030E-01
   7115.67  2.4309899E-01
   7116.00  2.4157044E-01
   7116.33  2.1532768E-01
   7116.67  1.8102500E-01
   7117.00  1.5211813E-01
   7117.33  1.3397935E-01
   7117.67  1.2380494E-01
   7118.00  1.1977187E-01
   7118.33  1.2027051E-01
   7118.67  1.2241248E-01
   7119.00  1.2535893E-01
   7119.33  1.3016412E-01
   7119.67  1.3684261E-01
   7120.00  1.4447113E-01
   7120.33  1.5104906E-01
   7120.67  1.5485190E-01
   7121.00  1.5682256E-01
   7121.33  1.6066922E-01
   7121.67  1.6788384E-01
   7122.00  1.7921964E-01
   7122.33  1.9585604E-01
   7122.67  2.1651274E-01
   7123.00  2.3996015E-01
   7123.33  2.6504955E-01
   7123.67  2.9077188E-01
   7124.00  3.1659247E-01
   7124.33  3.4158014E-01
   7124.67  3.6452402E-01
   7125.00  3.8383518E-01
   7125.33  3.9716827E-01
   7125.67  4.0529920E-01
   7126.00  4.1025414E-01
   7126.33  4.1521089E-01
   7126.67  4.2242591E-01
   7127.00  4.3261607E-01
   7127.33  4.4557442E-01
   7127.67  4.5926873E-01
   7128.00  4.7181273E-01
   7128.33  4.8139617E-01
   7128.67  4.8830724E-01
   7129.00  4.9319485E-01
   7129.33  4.9664744E-01
   7129.67  4.9944596E-01
   7130.00  5.0222067E-01
   7130.33  5.0589644E-01
   7130.67  5.1098751E-01
   7131.00  5.1774807E-01
   7131.33  5.2639127E-01
   7131.67  5.3657045E-01
   7132.00  5.4824361E-01
   7132.33  5.6182056E-01
   7132.67  5.7754278E-01
   7133.00  5.9587766E-01
   7133.33  6.1762184E-01
   7133.67  6.4244008E-01
   7134.00  6.6988800E-01
   7134.33  6.9885877E-01
   7134.67  7.2698958E-01
   7135.00  7.5177947E-01
   7135.33  7.6935151E-01
   7135.67  7.7821921E-01
   7136.00  7.7773070E-01
   7136.33  7.6773491E-01
   7136.67  7.5140076E-01
   7137.00  7.3091281E-01
   7137.33  7.0853152E-01
   7137.67  6.8657800E-01
   7138.00  6.6644713E-01
   7138.33  6.4953354E-01
   7138.67  6.3584079E-01
   7139.00  6.2517987E-01
   7139.33  6.1721256E-01
   7139.67  6.1082257E-01
   7140.00  6.0539693E-01
   7140.33  6.0059064E-01
   7140.67  5.9629221E-01
   7141.00  5.9268719E-01
   7141.33  5.9021265E-01
   7141.67  5.8900595E-01
   7142.00  5.8918564E-01
   7142.33  5.9090714E-01
   7142.67  5.9383137E-01
   7143.00  5.9776209E-01
   7143.33  6.0257596E-01
   7143.67  6.0797315E-01
   7144.00  6.1379560E-01
   7144.33  6.1991132E-01
   7144.67  6.2614799E-01
   7145.00  6.3240715E-01
   7145.33  6.3858955E-01
   7145.67  6.4463354E-01
   7146.00  6.5048925E-01
   7146.33  6.5607254E-01
   7146.67  6.6135618E-01
   7147.00  6.6628279E-01
   7147.33  6.7071892E-01
   7147.67  6.7462827E-01
   7148.00  6.7792713E-01
   7148.33  6.8043034E-01
   7148.67  6.8213927E-01
   7149.00  6.8299353E-01
   7149.33  6.8283166E-01
   7149.67  6.8174496E-01
   7150.00  6.7973833E-01
   7150.33  6.7673142E-01
   7150.67  6.7288672E-01
   7151.00  6.6825781E-01
   7151.33  6.6282330E-01
   7151.67  6.5674290E-01
   7152.00  6.5007489E-01
   7152.33  6.4281854E-01
   7152.67  6.3510282E-01
   7153.00  6.2698539E-01
   7153.33  6.1850010E-01
   7153.67  6.0977363E-01
   7154.00  6.0088965E-01
   7154.33  5.9194966E-01
   7154.67  5.8307495E-01
   7155.00  5.7436585E-01
   7155.33  5.6597009E-01
   7155.67  5.5795634E-01
   7156.00  5.5040142E-01
   7156.33  5.4344105E-01
   7156.67  5.3705471E-01
   7157.00  5.3126209E-01
   7157.33  5.2613558E-01
   7157.67  5.2157351E-01
   7158.00  5.1753386E-01
   7158.33  5.1400777E-01
   7158.67  5.1086034E-01
   7159.00  5.0802005E-01
   7159.33  5.0542986E-01
   7159.67  5.0297903E-01
   7160.00  5.0059978E-01
   7160.33  4.9821858E-01
   7160.67  4.9577171E-01
   7161.00  4.9321400E-01
   7161.33  4.9048488E-01
   7161.67  4.8757358E-01
   7162.00  4.8446474E-01
   7162.33  4.8112585E-01
   7162.67  4.7758429E-01
   7163.00  4.7384653E-01
   7163.33  4.6990008E-01
   7163.67  4.6577973E-01
   7164.00  4.6149378E-01
   7164.33  4.5702972E-01
   7164.67  4.5241345E-01
   7165.00  4.4764969E-01
   7165.33  4.4272729E-01
   7165.67  4.3767436E-01
   7166.00  4.3250445E-01
   7166.33  4.2722834E-01
   7166.67  4.2189037E-01
   7167.00  4.1652767E-01
   7167.33  4.1119675E-01
   7167.67  4.0595678E-01
   7168.00  4.0086756E-01
   7168.33  3.9602889E-01
   7168.67  3.9148322E-01
   7169.00  3.8728892E-01
   7169.33  3.8355522E-01
   7169.67  3.8027094E-01
   7170.00  3.7745676E-01
   7170.33  3.7518280E-01
   7170.67  3.7338323E-01
   7171.00  3.7203760E-01
   7171.33  3.7114815E-01
   7171.67  3.7057607E-01
   7172.00  3.7020459E-01
