    FDMNES
    energy     <xanes>
   7097.00  4.7246505E-03
   7097.33  4.8330013E-03
   7097.67  4.9460321E-03
   7098.00  5.0640468E-03
   7098.33  5.1881075E-03
   7098.67  5.3179764E-03
   7099.00  5.4540647E-03
   7099.33  5.5977494E-03
   7099.67  5.7487844E-03
   7100.00  5.9077420E-03
   7100.33  6.0764548E-03
   7100.67  6.2546885E-03
   7101.00  6.4432652E-03
   7101.33  6.6447021E-03
   7101.67  6.8588221E-03
   7102.00  7.0868525E-03
   7102.33  7.3323859E-03
   7102.67  7.5954038E-03
   7103.00  7.8778255E-03
   7103.33  8.1850262E-03
   7103.67  8.5173794E-03
   7104.00  8.8780623E-03
   7104.33  9.2756071E-03
   7104.67  9.7113420E-03
   7105.00  1.0190919E-02
   7105.33  1.0728945E-02
   7105.67  1.1329175E-02
   7106.00  1.2002639E-02
   7106.33  1.2776983E-02
   7106.67  1.3662680E-02
   7107.00  1.4684146E-02
   7107.33  1.5901444E-02
   7107.67  1.7346611E-02
   7108.00  1.9084295E-02
   7108.33  2.1274464E-02
   7108.67  2.4036561E-02
   7109.00  2.7596837E-02
   7109.33  3.2546401E-02
   7109.67  3.9524597E-02
   7110.00  4.9776052E-02
   7110.33  6.6836046E-02
   7110.67  9.4394674E-02
   7111.00  1.3370374E-01
   7111.33  1.7845897E-01
   7111.67  2.2599178E-01
   7112.00  2.7228508E-01
   7112.33  3.1042483E-01
   7112.67  3.3941046E-01
   7113.00  3.2499657E-01
   7113.33  2.5449863E-01
   7113.67  1.8750094E-01
   7114.00  1.4235907E-01
   7114.33  1.1631959E-01
   7114.67  9.9652275E-02
   7115.00  8.9062790E-02
   7115.33  8.3973051E-02
   7115.67  8.2862782E-02
   7116.00  8.4930879E-02
   7116.33  8.9918813E-02
   7116.67  9.7522389E-02
   7117.00  1.0799564E-01
   7117.33  1.2188468E-01
   7117.67  1.3877551E-01
   7118.00  1.5842738E-01
   7118.33  1.8037079E-01
   7118.67  2.0286847E-01
   7119.00  2.2390692E-01
   7119.33  2.4000124E-01
   7119.67  2.4980511E-01
   7120.00  2.5492012E-01
   7120.33  2.6048637E-01
   7120.67  2.6966386E-01
   7121.00  2.8238647E-01
   7121.33  2.9895616E-01
   7121.67  3.2023498E-01
   7122.00  3.4761569E-01
   7122.33  3.8271261E-01
   7122.67  4.2369284E-01
   7123.00  4.6816061E-01
   7123.33  5.1179949E-01
   7123.67  5.4948690E-01
   7124.00  5.7746909E-01
   7124.33  5.9396075E-01
   7124.67  6.0391438E-01
   7125.00  6.1085754E-01
   7125.33  6.1626853E-01
   7125.67  6.1934189E-01
   7126.00  6.1821262E-01
   7126.33  6.1041060E-01
   7126.67  5.9728508E-01
   7127.00  5.8141854E-01
   7127.33  5.6633931E-01
   7127.67  5.5436684E-01
   7128.00  5.4662118E-01
   7128.33  5.4404697E-01
   7128.67  5.4536243E-01
   7129.00  5.4892509E-01
   7129.33  5.5160182E-01
   7129.67  5.5036528E-01
   7130.00  5.4401013E-01
   7130.33  5.3346800E-01
   7130.67  5.2249872E-01
   7131.00  5.1374475E-01
   7131.33  5.0933641E-01
   7131.67  5.0893803E-01
   7132.00  5.1192891E-01
   7132.33  5.1756214E-01
   7132.67  5.2458255E-01
   7133.00  5.3239020E-01
   7133.33  5.4042815E-01
   7133.67  5.4796310E-01
   7134.00  5.5437229E-01
   7134.33  5.5907204E-01
   7134.67  5.6238368E-01
   7135.00  5.6477074E-01
   7135.33  5.6694471E-01
   7135.67  5.6964659E-01
   7136.00  5.7333982E-01
   7136.33  5.7846181E-01
   7136.67  5.8484546E-01
   7137.00  5.9228605E-01
   7137.33  6.0046488E-01
   7137.67  6.0880955E-01
   7138.00  6.1688867E-01
   7138.33  6.2414305E-01
   7138.67  6.3025726E-01
   7139.00  6.3494099E-01
   7139.33  6.3772736E-01
   7139.67  6.3867105E-01
   7140.00  6.3775025E-01
   7140.33  6.3493345E-01
   7140.67  6.3081724E-01
   7141.00  6.2584607E-01
   7141.33  6.2054151E-01
   7141.67  6.1542928E-01
   7142.00  6.1079675E-01
   7142.33  6.0686884E-01
   7142.67  6.0355593E-01
   7143.00  6.0077489E-01
   7143.33  5.9844256E-01
   7143.67  5.9638240E-01
   7144.00  5.9452005E-01
   7144.33  5.9285132E-01
   7144.67  5.9140208E-01
   7145.00  5.9026517E-01
   7145.33  5.8964344E-01
   7145.67  5.8962938E-01
   7146.00  5.9032203E-01
   7146.33  5.9185882E-01
   7146.67  5.9408250E-01
   7147.00  5.9683951E-01
   7147.33  5.9986476E-01
   7147.67  6.0272656E-01
   7148.00  6.0502130E-01
   7148.33  6.0612399E-01
   7148.67  6.0570823E-01
   7149.00  6.0345296E-01
   7149.33  5.9885858E-01
   7149.67  5.9212195E-01
   7150.00  5.8332939E-01
   7150.33  5.7248764E-01
   7150.67  5.6015638E-01
   7151.00  5.4665939E-01
   7151.33  5.3228618E-01
   7151.67  5.1750835E-01
   7152.00  5.0262049E-01
   7152.33  4.8794285E-01
   7152.67  4.7367994E-01
   7153.00  4.5997543E-01
   7153.33  4.4703663E-01
   7153.67  4.3486020E-01
   7154.00  4.2348859E-01
   7154.33  4.1304705E-01
   7154.67  4.0343212E-01
   7155.00  3.9463190E-01
   7155.33  3.8672137E-01
   7155.67  3.7956943E-01
   7156.00  3.7314216E-01
   7156.33  3.6747765E-01
   7156.67  3.6243936E-01
   7157.00  3.5798140E-01
   7157.33  3.5411545E-01
   7157.67  3.5072147E-01
   7158.00  3.4775300E-01
   7158.33  3.4520299E-01
   7158.67  3.4297259E-01
   7159.00  3.4101834E-01
   7159.33  3.3932106E-01
   7159.67  3.3780919E-01
   7160.00  3.3645139E-01
   7160.33  3.3523496E-01
   7160.67  3.3412245E-01
   7161.00  3.3310088E-01
   7161.33  3.3217790E-01
   7161.67  3.3134901E-01
   7162.00  3.3062257E-01
   7162.33  3.3002255E-01
   7162.67  3.2954176E-01
   7163.00  3.2918190E-01
   7163.33  3.2895721E-01
   7163.67  3.2884824E-01
   7164.00  3.2884827E-01
   7164.33  3.2895995E-01
   7164.67  3.2916088E-01
   7165.00  3.2944458E-01
   7165.33  3.2981932E-01
   7165.67  3.3028138E-01
   7166.00  3.3084322E-01
   7166.33  3.3154183E-01
   7166.67  3.3238879E-01
   7167.00  3.3340858E-01
   7167.33  3.3465391E-01
   7167.67  3.3612349E-01
   7168.00  3.3783279E-01
   7168.33  3.3982442E-01
   7168.67  3.4207039E-01
   7169.00  3.4456769E-01
   7169.33  3.4733700E-01
   7169.67  3.5033197E-01
   7170.00  3.5353281E-01
   7170.33  3.5692911E-01
   7170.67  3.6045182E-01
   7171.00  3.6403932E-01
   7171.33  3.6756558E-01
   7171.67  3.7082255E-01
   7172.00  3.7352928E-01
