    FDMNES
    energy     <xanes>
   7097.00  4.9334067E-03
   7097.33  5.0526941E-03
   7097.67  5.1775498E-03
   7098.00  5.3083645E-03
   7098.33  5.4464508E-03
   7098.67  5.5915653E-03
   7099.00  5.7442467E-03
   7099.33  5.9062305E-03
   7099.67  6.0772758E-03
   7100.00  6.2581464E-03
   7100.33  6.4512013E-03
   7100.67  6.6562357E-03
   7101.00  6.8743684E-03
   7101.33  7.1089140E-03
   7101.67  7.3597759E-03
   7102.00  7.6286586E-03
   7102.33  7.9204072E-03
   7102.67  8.2351940E-03
   7103.00  8.5757406E-03
   7103.33  8.9494787E-03
   7103.67  9.3572177E-03
   7104.00  9.8035591E-03
   7104.33  1.0300607E-02
   7104.67  1.0850698E-02
   7105.00  1.1462194E-02
   7105.33  1.2156377E-02
   7105.67  1.2939449E-02
   7106.00  1.3828102E-02
   7106.33  1.4863723E-02
   7106.67  1.6063318E-02
   7107.00  1.7464716E-02
   7107.33  1.9160496E-02
   7107.67  2.1202834E-02
   7108.00  2.3694699E-02
   7108.33  2.6890883E-02
   7108.67  3.0989537E-02
   7109.00  3.6363443E-02
   7109.33  4.3992218E-02
   7109.67  5.4969698E-02
   7110.00  7.1433000E-02
   7110.33  9.9531659E-02
   7110.67  1.4605101E-01
   7111.00  2.1353752E-01
   7111.33  2.8099935E-01
   7111.67  3.3096905E-01
   7112.00  3.7897430E-01
   7112.33  4.3363383E-01
   7112.67  4.6196466E-01
   7113.00  4.2805909E-01
   7113.33  3.3634203E-01
   7113.67  2.4934052E-01
   7114.00  1.8840353E-01
   7114.33  1.5705078E-01
   7114.67  1.4734349E-01
   7115.00  1.5586624E-01
   7115.33  1.7289736E-01
   7115.67  1.7474516E-01
   7116.00  1.5362462E-01
   7116.33  1.2645498E-01
   7116.67  1.0683970E-01
   7117.00  9.5456318E-02
   7117.33  9.0615384E-02
   7117.67  8.9138573E-02
   7118.00  8.9365681E-02
   7118.33  9.0418309E-02
   7118.67  9.2276680E-02
   7119.00  9.4873464E-02
   7119.33  9.7546762E-02
   7119.67  9.9967760E-02
   7120.00  1.0254198E-01
   7120.33  1.0613836E-01
   7120.67  1.1136535E-01
   7121.00  1.1887420E-01
   7121.33  1.2978809E-01
   7121.67  1.4440626E-01
   7122.00  1.6311844E-01
   7122.33  1.8661555E-01
   7122.67  2.1432278E-01
   7123.00  2.4587967E-01
   7123.33  2.8023997E-01
   7123.67  3.1457058E-01
   7124.00  3.4650816E-01
   7124.33  3.7303548E-01
   7124.67  3.9190378E-01
   7125.00  4.0126390E-01
   7125.33  4.0173401E-01
   7125.67  3.9952425E-01
   7126.00  3.9944827E-01
   7126.33  4.0595726E-01
   7126.67  4.1916722E-01
   7127.00  4.3779473E-01
   7127.33  4.5993577E-01
   7127.67  4.8431184E-01
   7128.00  5.1181773E-01
   7128.33  5.4375582E-01
   7128.67  5.7816099E-01
   7129.00  6.1300547E-01
   7129.33  6.4822126E-01
   7129.67  6.8520783E-01
   7130.00  7.2343880E-01
   7130.33  7.5904940E-01
   7130.67  7.8784130E-01
   7131.00  8.0746082E-01
   7131.33  8.1674027E-01
   7131.67  8.1840236E-01
   7132.00  8.1371861E-01
   7132.33  8.0323949E-01
   7132.67  7.8952584E-01
   7133.00  7.7531946E-01
   7133.33  7.6457594E-01
   7133.67  7.5904655E-01
   7134.00  7.5856423E-01
   7134.33  7.6133594E-01
   7134.67  7.6397289E-01
   7135.00  7.6417028E-01
   7135.33  7.5964631E-01
   7135.67  7.5046957E-01
   7136.00  7.3754924E-01
   7136.33  7.2299579E-01
   7136.67  7.0949356E-01
   7137.00  6.9852498E-01
   7137.33  6.9108118E-01
   7137.67  6.8631535E-01
   7138.00  6.8333520E-01
   7138.33  6.8112681E-01
   7138.67  6.7883025E-01
   7139.00  6.7610010E-01
   7139.33  6.7263666E-01
   7139.67  6.6828825E-01
   7140.00  6.6278547E-01
   7140.33  6.5567838E-01
   7140.67  6.4713578E-01
   7141.00  6.3745621E-01
   7141.33  6.2724206E-01
   7141.67  6.1737734E-01
   7142.00  6.0852449E-01
   7142.33  6.0141671E-01
   7142.67  5.9603782E-01
   7143.00  5.9221635E-01
   7143.33  5.8950953E-01
   7143.67  5.8690375E-01
   7144.00  5.8349834E-01
   7144.33  5.7810996E-01
   7144.67  5.7040110E-01
   7145.00  5.6040522E-01
   7145.33  5.4856418E-01
   7145.67  5.3615996E-01
   7146.00  5.2421429E-01
   7146.33  5.1388871E-01
   7146.67  5.0555909E-01
   7147.00  4.9937805E-01
   7147.33  4.9548419E-01
   7147.67  4.9333543E-01
   7148.00  4.9263395E-01
   7148.33  4.9316322E-01
   7148.67  4.9445251E-01
   7149.00  4.9624842E-01
   7149.33  4.9834468E-01
   7149.67  5.0053465E-01
   7150.00  5.0272154E-01
   7150.33  5.0483459E-01
   7150.67  5.0685482E-01
   7151.00  5.0877002E-01
   7151.33  5.1054766E-01
   7151.67  5.1217542E-01
   7152.00  5.1362356E-01
   7152.33  5.1483341E-01
   7152.67  5.1581156E-01
   7153.00  5.1655483E-01
   7153.33  5.1704620E-01
   7153.67  5.1733296E-01
   7154.00  5.1743160E-01
   7154.33  5.1733420E-01
   7154.67  5.1706751E-01
   7155.00  5.1662668E-01
   7155.33  5.1597101E-01
   7155.67  5.1509593E-01
   7156.00  5.1396747E-01
   7156.33  5.1249641E-01
   7156.67  5.1065836E-01
   7157.00  5.0839354E-01
   7157.33  5.0556917E-01
   7157.67  5.0218557E-01
   7158.00  4.9820575E-01
   7158.33  4.9353905E-01
   7158.67  4.8828668E-01
   7159.00  4.8250405E-01
   7159.33  4.7623789E-01
   7159.67  4.6967177E-01
   7160.00  4.6292999E-01
   7160.33  4.5615463E-01
   7160.67  4.4948294E-01
   7161.00  4.4301057E-01
   7161.33  4.3685968E-01
   7161.67  4.3104984E-01
   7162.00  4.2559994E-01
   7162.33  4.2054665E-01
   7162.67  4.1582152E-01
   7163.00  4.1139719E-01
   7163.33  4.0727004E-01
   7163.67  4.0336801E-01
   7164.00  3.9965849E-01
   7164.33  3.9612699E-01
   7164.67  3.9272583E-01
   7165.00  3.8943905E-01
   7165.33  3.8627296E-01
   7165.67  3.8321932E-01
   7166.00  3.8029149E-01
   7166.33  3.7753199E-01
   7166.67  3.7495060E-01
   7167.00  3.7257113E-01
   7167.33  3.7044507E-01
   7167.67  3.6856129E-01
   7168.00  3.6692865E-01
   7168.33  3.6558240E-01
   7168.67  3.6448824E-01
   7169.00  3.6364150E-01
   7169.33  3.6306581E-01
   7169.67  3.6272412E-01
   7170.00  3.6260974E-01
   7170.33  3.6273959E-01
   7170.67  3.6307083E-01
   7171.00  3.6358108E-01
   7171.33  3.6423931E-01
   7171.67  3.6493804E-01
   7172.00  3.6555303E-01
