    FDMNES
    energy     <xanes>
   7097.00  4.3866400E-03
   7097.33  4.4808666E-03
   7097.67  4.5790665E-03
   7098.00  4.6815013E-03
   7098.33  4.7890791E-03
   7098.67  4.9016038E-03
   7099.00  5.0194325E-03
   7099.33  5.1437504E-03
   7099.67  5.2743593E-03
   7100.00  5.4117614E-03
   7100.33  5.5575481E-03
   7100.67  5.7115400E-03
   7101.00  5.8744682E-03
   7101.33  6.0485436E-03
   7101.67  6.2336521E-03
   7102.00  6.4309020E-03
   7102.33  6.6434946E-03
   7102.67  6.8714856E-03
   7103.00  7.1166395E-03
   7103.33  7.3838318E-03
   7103.67  7.6735289E-03
   7104.00  7.9887143E-03
   7104.33  8.3372968E-03
   7104.67  8.7207423E-03
   7105.00  9.1444902E-03
   7105.33  9.6224438E-03
   7105.67  1.0158634E-02
   7106.00  1.0763994E-02
   7106.33  1.1465693E-02
   7106.67  1.2275019E-02
   7107.00  1.3217034E-02
   7107.33  1.4353157E-02
   7107.67  1.5718643E-02
   7108.00  1.7382802E-02
   7108.33  1.9517483E-02
   7108.67  2.2258904E-02
   7109.00  2.5862885E-02
   7109.33  3.1003711E-02
   7109.67  3.8444801E-02
   7110.00  4.9678483E-02
   7110.33  6.9017851E-02
   7110.67  1.0137212E-01
   7111.00  1.4935917E-01
   7111.33  2.0069047E-01
   7111.67  2.3467002E-01
   7112.00  2.4933497E-01
   7112.33  2.4995951E-01
   7112.67  2.3976929E-01
   7113.00  2.1640409E-01
   7113.33  1.8020466E-01
   7113.67  1.4659132E-01
   7114.00  1.2210975E-01
   7114.33  1.0641181E-01
   7114.67  9.3116684E-02
   7115.00  8.0993740E-02
   7115.33  7.2358729E-02
   7115.67  6.6256825E-02
   7116.00  6.1891817E-02
   7116.33  5.9488651E-02
   7116.67  5.8796853E-02
   7117.00  5.9622186E-02
   7117.33  6.1946706E-02
   7117.67  6.5406033E-02
   7118.00  6.9684770E-02
   7118.33  7.4561626E-02
   7118.67  8.0221140E-02
   7119.00  8.7086450E-02
   7119.33  9.5657993E-02
   7119.67  1.0587356E-01
   7120.00  1.1780148E-01
   7120.33  1.3175826E-01
   7120.67  1.4761923E-01
   7121.00  1.6546230E-01
   7121.33  1.8561122E-01
   7121.67  2.0784055E-01
   7122.00  2.3209713E-01
   7122.33  2.5830089E-01
   7122.67  2.8559908E-01
   7123.00  3.1322218E-01
   7123.33  3.3997792E-01
   7123.67  3.6481955E-01
   7124.00  3.8717545E-01
   7124.33  4.0639746E-01
   7124.67  4.2231841E-01
   7125.00  4.3437143E-01
   7125.33  4.4150624E-01
   7125.67  4.4457527E-01
   7126.00  4.4454480E-01
   7126.33  4.4270107E-01
   7126.67  4.4075680E-01
   7127.00  4.3962345E-01
   7127.33  4.3990182E-01
   7127.67  4.4149096E-01
   7128.00  4.4432860E-01
   7128.33  4.4851863E-01
   7128.67  4.5393679E-01
   7129.00  4.6053404E-01
   7129.33  4.6813163E-01
   7129.67  4.7626006E-01
   7130.00  4.8476711E-01
   7130.33  4.9369895E-01
   7130.67  5.0309022E-01
   7131.00  5.1315997E-01
   7131.33  5.2476073E-01
   7131.67  5.3889504E-01
   7132.00  5.5667817E-01
   7132.33  5.7954532E-01
   7132.67  6.0684448E-01
   7133.00  6.3757171E-01
   7133.33  6.6993311E-01
   7133.67  7.0162236E-01
   7134.00  7.3116503E-01
   7134.33  7.5667544E-01
   7134.67  7.7708197E-01
   7135.00  7.9114500E-01
   7135.33  7.9721836E-01
   7135.67  7.9659135E-01
   7136.00  7.9048360E-01
   7136.33  7.8044930E-01
   7136.67  7.6896980E-01
   7137.00  7.5751302E-01
   7137.33  7.4742369E-01
   7137.67  7.3915573E-01
   7138.00  7.3282134E-01
   7138.33  7.2841910E-01
   7138.67  7.2525895E-01
   7139.00  7.2280692E-01
   7139.33  7.2039920E-01
   7139.67  7.1742219E-01
   7140.00  7.1348149E-01
   7140.33  7.0817910E-01
   7140.67  7.0166488E-01
   7141.00  6.9410597E-01
   7141.33  6.8573024E-01
   7141.67  6.7699348E-01
   7142.00  6.6818742E-01
   7142.33  6.5961026E-01
   7142.67  6.5142621E-01
   7143.00  6.4374185E-01
   7143.33  6.3671437E-01
   7143.67  6.3033925E-01
   7144.00  6.2466836E-01
   7144.33  6.1983240E-01
   7144.67  6.1576972E-01
   7145.00  6.1251780E-01
   7145.33  6.1023130E-01
   7145.67  6.0883950E-01
   7146.00  6.0835674E-01
   7146.33  6.0888686E-01
   7146.67  6.1027915E-01
   7147.00  6.1247667E-01
   7147.33  6.1547249E-01
   7147.67  6.1904564E-01
   7148.00  6.2304421E-01
   7148.33  6.2727025E-01
   7148.67  6.3142958E-01
   7149.00  6.3525080E-01
   7149.33  6.3829032E-01
   7149.67  6.4026886E-01
   7150.00  6.4089546E-01
   7150.33  6.3970526E-01
   7150.67  6.3677176E-01
   7151.00  6.3211184E-01
   7151.33  6.2569692E-01
   7151.67  6.1800794E-01
   7152.00  6.0934150E-01
   7152.33  5.9996962E-01
   7152.67  5.9027802E-01
   7153.00  5.8047227E-01
   7153.33  5.7072028E-01
   7153.67  5.6109975E-01
   7154.00  5.5163154E-01
   7154.33  5.4231823E-01
   7154.67  5.3311230E-01
   7155.00  5.2397800E-01
   7155.33  5.1486477E-01
   7155.67  5.0572455E-01
   7156.00  4.9653181E-01
   7156.33  4.8726460E-01
   7156.67  4.7793497E-01
   7157.00  4.6855990E-01
   7157.33  4.5917092E-01
   7157.67  4.4981386E-01
   7158.00  4.4053305E-01
   7158.33  4.3140076E-01
   7158.67  4.2245977E-01
   7159.00  4.1376344E-01
   7159.33  4.0541403E-01
   7159.67  3.9743671E-01
   7160.00  3.8988496E-01
   7160.33  3.8287828E-01
   7160.67  3.7640945E-01
   7161.00  3.7051797E-01
   7161.33  3.6531961E-01
   7161.67  3.6076746E-01
   7162.00  3.5687874E-01
   7162.33  3.5374822E-01
   7162.67  3.5128763E-01
   7163.00  3.4948049E-01
   7163.33  3.4838160E-01
   7163.67  3.4788342E-01
   7164.00  3.4795425E-01
   7164.33  3.4861443E-01
   7164.67  3.4974482E-01
   7165.00  3.5129328E-01
   7165.33  3.5323753E-01
   7165.67  3.5546312E-01
   7166.00  3.5790885E-01
   7166.33  3.6052519E-01
   7166.67  3.6323050E-01
   7167.00  3.6597778E-01
   7167.33  3.6872222E-01
   7167.67  3.7143046E-01
   7168.00  3.7408078E-01
   7168.33  3.7664639E-01
   7168.67  3.7912715E-01
   7169.00  3.8151959E-01
   7169.33  3.8381205E-01
   7169.67  3.8601612E-01
   7170.00  3.8813136E-01
   7170.33  3.9014353E-01
   7170.67  3.9205654E-01
   7171.00  3.9385706E-01
   7171.33  3.9549664E-01
   7171.67  3.9693333E-01
   7172.00  3.9808843E-01
