    FDMNES
    energy     <xanes>
   7097.00  4.2272998E-03
   7097.33  4.3151867E-03
   7097.67  4.4066168E-03
   7098.00  4.5018136E-03
   7098.33  4.6015711E-03
   7098.67  4.7057019E-03
   7099.00  4.8145089E-03
   7099.33  4.9290183E-03
   7099.67  5.0490372E-03
   7100.00  5.1749879E-03
   7100.33  5.3082339E-03
   7100.67  5.4485931E-03
   7101.00  5.5966745E-03
   7101.33  5.7543519E-03
   7101.67  5.9214899E-03
   7102.00  6.0990035E-03
   7102.33  6.2895752E-03
   7102.67  6.4931982E-03
   7103.00  6.7113161E-03
   7103.33  6.9479675E-03
   7103.67  7.2034638E-03
   7104.00  7.4802247E-03
   7104.33  7.7847278E-03
   7104.67  8.1180660E-03
   7105.00  8.4846158E-03
   7105.33  8.8956445E-03
   7105.67  9.3542611E-03
   7106.00  9.8692029E-03
   7106.33  1.0462288E-02
   7106.67  1.1142353E-02
   7107.00  1.1929337E-02
   7107.33  1.2872256E-02
   7107.67  1.3998970E-02
   7108.00  1.5364638E-02
   7108.33  1.7106385E-02
   7108.67  1.9333261E-02
   7109.00  2.2250978E-02
   7109.33  2.6404793E-02
   7109.67  3.2421625E-02
   7110.00  4.1531990E-02
   7110.33  5.7255907E-02
   7110.67  8.2977854E-02
   7111.00  1.1786633E-01
   7111.33  1.5075796E-01
   7111.67  1.7968762E-01
   7112.00  1.9964203E-01
   7112.33  2.0068886E-01
   7112.67  1.9063275E-01
   7113.00  1.7365946E-01
   7113.33  1.5627487E-01
   7113.67  1.4301119E-01
   7114.00  1.2720981E-01
   7114.33  1.0801613E-01
   7114.67  9.2672244E-02
   7115.00  8.1219001E-02
   7115.33  7.2274440E-02
   7115.67  6.5669305E-02
   7116.00  6.1643521E-02
   7116.33  6.0183888E-02
   7116.67  6.0541191E-02
   7117.00  6.2385069E-02
   7117.33  6.5466800E-02
   7117.67  6.9134764E-02
   7118.00  7.2936357E-02
   7118.33  7.6658630E-02
   7118.67  8.0575177E-02
   7119.00  8.5143031E-02
   7119.33  9.1031190E-02
   7119.67  9.8438528E-02
   7120.00  1.0751950E-01
   7120.33  1.1858117E-01
   7120.67  1.3143520E-01
   7121.00  1.4606893E-01
   7121.33  1.6266379E-01
   7121.67  1.8106665E-01
   7122.00  2.0157389E-01
   7122.33  2.2527476E-01
   7122.67  2.5269562E-01
   7123.00  2.8421863E-01
   7123.33  3.1966041E-01
   7123.67  3.5642918E-01
   7124.00  3.9188944E-01
   7124.33  4.2368419E-01
   7124.67  4.5221020E-01
   7125.00  4.7708681E-01
   7125.33  4.9450847E-01
   7125.67  5.0267354E-01
   7126.00  5.0369926E-01
   7126.33  5.0151538E-01
   7126.67  4.9809932E-01
   7127.00  4.9343556E-01
   7127.33  4.8743477E-01
   7127.67  4.8144825E-01
   7128.00  4.7756766E-01
   7128.33  4.7855644E-01
   7128.67  4.8430106E-01
   7129.00  4.9380014E-01
   7129.33  5.0505245E-01
   7129.67  5.1561383E-01
   7130.00  5.2476479E-01
   7130.33  5.3297050E-01
   7130.67  5.4144359E-01
   7131.00  5.5105246E-01
   7131.33  5.6271470E-01
   7131.67  5.7652270E-01
   7132.00  5.9249857E-01
   7132.33  6.1063343E-01
   7132.67  6.3005982E-01
   7133.00  6.4982868E-01
   7133.33  6.6849281E-01
   7133.67  6.8582465E-01
   7134.00  7.0262422E-01
   7134.33  7.1911987E-01
   7134.67  7.3417197E-01
   7135.00  7.4658606E-01
   7135.33  7.5498158E-01
   7135.67  7.5931135E-01
   7136.00  7.5946439E-01
   7136.33  7.5518761E-01
   7136.67  7.4753400E-01
   7137.00  7.3714688E-01
   7137.33  7.2461902E-01
   7137.67  7.1101381E-01
   7138.00  6.9697868E-01
   7138.33  6.8318094E-01
   7138.67  6.7009829E-01
   7139.00  6.5805738E-01
   7139.33  6.4747679E-01
   7139.67  6.3832136E-01
   7140.00  6.3063426E-01
   7140.33  6.2460879E-01
   7140.67  6.2003185E-01
   7141.00  6.1685157E-01
   7141.33  6.1514350E-01
   7141.67  6.1463462E-01
   7142.00  6.1522157E-01
   7142.33  6.1690350E-01
   7142.67  6.1944292E-01
   7143.00  6.2274630E-01
   7143.33  6.2678376E-01
   7143.67  6.3134336E-01
   7144.00  6.3628331E-01
   7144.33  6.4141076E-01
   7144.67  6.4643680E-01
   7145.00  6.5109822E-01
   7145.33  6.5499209E-01
   7145.67  6.5791308E-01
   7146.00  6.5966487E-01
   7146.33  6.5994358E-01
   7146.67  6.5886916E-01
   7147.00  6.5646610E-01
   7147.33  6.5265739E-01
   7147.67  6.4771680E-01
   7148.00  6.4176885E-01
   7148.33  6.3486687E-01
   7148.67  6.2728042E-01
   7149.00  6.1914973E-01
   7149.33  6.1059241E-01
   7149.67  6.0181667E-01
   7150.00  5.9295352E-01
   7150.33  5.8415208E-01
   7150.67  5.7553108E-01
   7151.00  5.6718708E-01
   7151.33  5.5926136E-01
   7151.67  5.5178207E-01
   7152.00  5.4479974E-01
   7152.33  5.3842066E-01
   7152.67  5.3259451E-01
   7153.00  5.2731843E-01
   7153.33  5.2263575E-01
   7153.67  5.1844023E-01
   7154.00  5.1468612E-01
   7154.33  5.1135786E-01
   7154.67  5.0833805E-01
   7155.00  5.0556196E-01
   7155.33  5.0297372E-01
   7155.67  5.0047774E-01
   7156.00  4.9801247E-01
   7156.33  4.9550521E-01
   7156.67  4.9289768E-01
   7157.00  4.9014039E-01
   7157.33  4.8715546E-01
   7157.67  4.8392096E-01
   7158.00  4.8040024E-01
   7158.33  4.7651459E-01
   7158.67  4.7227334E-01
   7159.00  4.6765755E-01
   7159.33  4.6260868E-01
   7159.67  4.5718063E-01
   7160.00  4.5139331E-01
   7160.33  4.4524743E-01
   7160.67  4.3884204E-01
   7161.00  4.3224158E-01
   7161.33  4.2551726E-01
   7161.67  4.1877204E-01
   7162.00  4.1208014E-01
   7162.33  4.0553506E-01
   7162.67  3.9919048E-01
   7163.00  3.9310122E-01
   7163.33  3.8736194E-01
   7163.67  3.8198125E-01
   7164.00  3.7699362E-01
   7164.33  3.7248579E-01
   7164.67  3.6843102E-01
   7165.00  3.6484609E-01
   7165.33  3.6180373E-01
   7165.67  3.5924935E-01
   7166.00  3.5718224E-01
   7166.33  3.5565466E-01
   7166.67  3.5459317E-01
   7167.00  3.5398246E-01
   7167.33  3.5385350E-01
   7167.67  3.5412533E-01
   7168.00  3.5477175E-01
   7168.33  3.5580273E-01
   7168.67  3.5714084E-01
   7169.00  3.5875489E-01
   7169.33  3.6063713E-01
   7169.67  3.6271929E-01
   7170.00  3.6496718E-01
   7170.33  3.6735365E-01
   7170.67  3.6981414E-01
   7171.00  3.7229549E-01
   7171.33  3.7470023E-01
   7171.67  3.7689070E-01
   7172.00  3.7868369E-01
