    FDMNES
    energy     <xanes>
   7097.00  4.2759824E-03
   7097.33  4.3614208E-03
   7097.67  4.4501801E-03
   7098.00  4.5424626E-03
   7098.33  4.6390007E-03
   7098.67  4.7396092E-03
   7099.00  4.8445599E-03
   7099.33  4.9547912E-03
   7099.67  5.0701099E-03
   7100.00  5.1908920E-03
   7100.33  5.3183724E-03
   7100.67  5.4523630E-03
   7101.00  5.5934010E-03
   7101.33  5.7431668E-03
   7101.67  5.9015067E-03
   7102.00  6.0692209E-03
   7102.33  6.2486893E-03
   7102.67  6.4398613E-03
   7103.00  6.6439890E-03
   7103.33  6.8646182E-03
   7103.67  7.1019614E-03
   7104.00  7.3581029E-03
   7104.33  7.6386774E-03
   7104.67  7.9445562E-03
   7105.00  8.2794949E-03
   7105.33  8.6532315E-03
   7105.67  9.0683656E-03
   7106.00  9.5324056E-03
   7106.33  1.0064191E-02
   7106.67  1.0671330E-02
   7107.00  1.1371127E-02
   7107.33  1.2206282E-02
   7107.67  1.3201511E-02
   7108.00  1.4405789E-02
   7108.33  1.5941586E-02
   7108.67  1.7909565E-02
   7109.00  2.0500207E-02
   7109.33  2.4224338E-02
   7109.67  2.9692778E-02
   7110.00  3.8114337E-02
   7110.33  5.2977309E-02
   7110.67  7.7542813E-02
   7111.00  1.0989045E-01
   7111.33  1.3318718E-01
   7111.67  1.3980897E-01
   7112.00  1.3282668E-01
   7112.33  1.2571370E-01
   7112.67  1.2501968E-01
   7113.00  1.2410162E-01
   7113.33  1.2141037E-01
   7113.67  1.1961556E-01
   7114.00  1.1198339E-01
   7114.33  1.0045459E-01
   7114.67  9.3717232E-02
   7115.00  9.3386170E-02
   7115.33  1.0010637E-01
   7115.67  1.1309369E-01
   7116.00  1.3205150E-01
   7116.33  1.5508787E-01
   7116.67  1.7479162E-01
   7117.00  1.8196451E-01
   7117.33  1.6929587E-01
   7117.67  1.4691191E-01
   7118.00  1.2464030E-01
   7118.33  1.0873723E-01
   7118.67  9.8888214E-02
   7119.00  9.4160434E-02
   7119.33  9.4098855E-02
   7119.67  9.7631195E-02
   7120.00  1.0453377E-01
   7120.33  1.1504728E-01
   7120.67  1.2849535E-01
   7121.00  1.4441707E-01
   7121.33  1.6234029E-01
   7121.67  1.8151631E-01
   7122.00  2.0153889E-01
   7122.33  2.2139432E-01
   7122.67  2.3992341E-01
   7123.00  2.5702796E-01
   7123.33  2.7393261E-01
   7123.67  2.9157860E-01
   7124.00  3.0905443E-01
   7124.33  3.2369092E-01
   7124.67  3.3452829E-01
   7125.00  3.4279203E-01
   7125.33  3.5155425E-01
   7125.67  3.6286219E-01
   7126.00  3.7726602E-01
   7126.33  3.9458512E-01
   7126.67  4.1274217E-01
   7127.00  4.3032347E-01
   7127.33  4.4697688E-01
   7127.67  4.6340722E-01
   7128.00  4.8088375E-01
   7128.33  5.0230895E-01
   7128.67  5.2805200E-01
   7129.00  5.5501802E-01
   7129.33  5.7685442E-01
   7129.67  5.9168099E-01
   7130.00  6.0050578E-01
   7130.33  6.0469543E-01
   7130.67  6.0626660E-01
   7131.00  6.0598397E-01
   7131.33  6.0358838E-01
   7131.67  5.9905898E-01
   7132.00  5.9332729E-01
   7132.33  5.8933202E-01
   7132.67  5.8952681E-01
   7133.00  5.9475471E-01
   7133.33  6.0524313E-01
   7133.67  6.1959906E-01
   7134.00  6.3671403E-01
   7134.33  6.5512476E-01
   7134.67  6.7396222E-01
   7135.00  6.9348699E-01
   7135.33  7.1387570E-01
   7135.67  7.3371815E-01
   7136.00  7.5107065E-01
   7136.33  7.6361914E-01
   7136.67  7.7150997E-01
   7137.00  7.7531923E-01
   7137.33  7.7560982E-01
   7137.67  7.7346353E-01
   7138.00  7.6914933E-01
   7138.33  7.6250745E-01
   7138.67  7.5390562E-01
   7139.00  7.4357426E-01
   7139.33  7.3180401E-01
   7139.67  7.1932336E-01
   7140.00  7.0662847E-01
   7140.33  6.9425804E-01
   7140.67  6.8255267E-01
   7141.00  6.7172838E-01
   7141.33  6.6205484E-01
   7141.67  6.5344712E-01
   7142.00  6.4587195E-01
   7142.33  6.3935226E-01
   7142.67  6.3365127E-01
   7143.00  6.2865797E-01
   7143.33  6.2430861E-01
   7143.67  6.2039576E-01
   7144.00  6.1680798E-01
   7144.33  6.1345423E-01
   7144.67  6.1021249E-01
   7145.00  6.0702163E-01
   7145.33  6.0383758E-01
   7145.67  6.0064130E-01
   7146.00  5.9743409E-01
   7146.33  5.9422998E-01
   7146.67  5.9104699E-01
   7147.00  5.8789801E-01
   7147.33  5.8479636E-01
   7147.67  5.8173501E-01
   7148.00  5.7870205E-01
   7148.33  5.7567460E-01
   7148.67  5.7262425E-01
   7149.00  5.6952751E-01
   7149.33  5.6634605E-01
   7149.67  5.6305062E-01
   7150.00  5.5959609E-01
   7150.33  5.5590581E-01
   7150.67  5.5197173E-01
   7151.00  5.4777526E-01
   7151.33  5.4327286E-01
   7151.67  5.3850530E-01
   7152.00  5.3349343E-01
   7152.33  5.2825508E-01
   7152.67  5.2287885E-01
   7153.00  5.1743373E-01
   7153.33  5.1201648E-01
   7153.67  5.0672892E-01
   7154.00  5.0166428E-01
   7154.33  4.9695866E-01
   7154.67  4.9264710E-01
   7155.00  4.8877119E-01
   7155.33  4.8539744E-01
   7155.67  4.8243804E-01
   7156.00  4.7983483E-01
   7156.33  4.7752446E-01
   7156.67  4.7536039E-01
   7157.00  4.7324252E-01
   7157.33  4.7105774E-01
   7157.67  4.6873155E-01
   7158.00  4.6621899E-01
   7158.33  4.6347425E-01
   7158.67  4.6053757E-01
   7159.00  4.5744566E-01
   7159.33  4.5425169E-01
   7159.67  4.5104812E-01
   7160.00  4.4791255E-01
   7160.33  4.4495937E-01
   7160.67  4.4226235E-01
   7161.00  4.3989805E-01
   7161.33  4.3799650E-01
   7161.67  4.3656700E-01
   7162.00  4.3564715E-01
   7162.33  4.3533631E-01
   7162.67  4.3557758E-01
   7163.00  4.3636019E-01
   7163.33  4.3771251E-01
   7163.67  4.3951058E-01
   7164.00  4.4167798E-01
   7164.33  4.4413894E-01
   7164.67  4.4674655E-01
   7165.00  4.4939989E-01
   7165.33  4.5197565E-01
   7165.67  4.5437924E-01
   7166.00  4.5653695E-01
   7166.33  4.5834758E-01
   7166.67  4.5981424E-01
   7167.00  4.6092706E-01
   7167.33  4.6165184E-01
   7167.67  4.6205812E-01
   7168.00  4.6217892E-01
   7168.33  4.6203028E-01
   7168.67  4.6169103E-01
   7169.00  4.6120217E-01
   7169.33  4.6059553E-01
   7169.67  4.5992594E-01
   7170.00  4.5922670E-01
   7170.33  4.5853233E-01
   7170.67  4.5787156E-01
   7171.00  4.5726694E-01
   7171.33  4.5675174E-01
   7171.67  4.5633451E-01
   7172.00  4.5602337E-01
