    FDMNES
    energy     <xanes>
   7097.00  5.2041975E-03
   7097.33  5.3240357E-03
   7097.67  5.4491517E-03
   7098.00  5.5798890E-03
   7098.33  5.7174452E-03
   7098.67  5.8615504E-03
   7099.00  6.0126657E-03
   7099.33  6.1723367E-03
   7099.67  6.3402779E-03
   7100.00  6.5171229E-03
   7100.33  6.7049128E-03
   7100.67  6.9033620E-03
   7101.00  7.1133656E-03
   7101.33  7.3376918E-03
   7101.67  7.5760914E-03
   7102.00  7.8298699E-03
   7102.33  8.1029029E-03
   7102.67  8.3950585E-03
   7103.00  8.7083147E-03
   7103.33  9.0483112E-03
   7103.67  9.4152130E-03
   7104.00  9.8121599E-03
   7104.33  1.0247759E-02
   7104.67  1.0722885E-02
   7105.00  1.1242822E-02
   7105.33  1.1821520E-02
   7105.67  1.2461580E-02
   7106.00  1.3172585E-02
   7106.33  1.3978996E-02
   7106.67  1.4887883E-02
   7107.00  1.5918459E-02
   7107.33  1.7118532E-02
   7107.67  1.8508090E-02
   7108.00  2.0131605E-02
   7108.33  2.2098590E-02
   7108.67  2.4474097E-02
   7109.00  2.7386489E-02
   7109.33  3.1159394E-02
   7109.67  3.6072653E-02
   7110.00  4.2663182E-02
   7110.33  5.2409355E-02
   7110.67  6.7130754E-02
   7111.00  8.9933180E-02
   7111.33  1.2643185E-01
   7111.67  1.7282316E-01
   7112.00  2.1396189E-01
   7112.33  2.5180661E-01
   7112.67  3.0179648E-01
   7113.00  3.4383729E-01
   7113.33  3.5993014E-01
   7113.67  3.8807075E-01
   7114.00  4.5133149E-01
   7114.33  5.1402884E-01
   7114.67  5.1628490E-01
   7115.00  4.7151951E-01
   7115.33  4.0865094E-01
   7115.67  3.4669616E-01
   7116.00  2.9700496E-01
   7116.33  2.6569131E-01
   7116.67  2.4902932E-01
   7117.00  2.4454346E-01
   7117.33  2.5056889E-01
   7117.67  2.6134133E-01
   7118.00  2.6628873E-01
   7118.33  2.5210174E-01
   7118.67  2.2729039E-01
   7119.00  2.0246633E-01
   7119.33  1.8349601E-01
   7119.67  1.6967015E-01
   7120.00  1.5997426E-01
   7120.33  1.5366092E-01
   7120.67  1.4931744E-01
   7121.00  1.4621265E-01
   7121.33  1.4436096E-01
   7121.67  1.4406886E-01
   7122.00  1.4489991E-01
   7122.33  1.4539585E-01
   7122.67  1.4512494E-01
   7123.00  1.4480794E-01
   7123.33  1.4575198E-01
   7123.67  1.4867990E-01
   7124.00  1.5401083E-01
   7124.33  1.6231151E-01
   7124.67  1.7334760E-01
   7125.00  1.8715866E-01
   7125.33  2.0414729E-01
   7125.67  2.2404798E-01
   7126.00  2.4708089E-01
   7126.33  2.7419593E-01
   7126.67  3.0517799E-01
   7127.00  3.3933709E-01
   7127.33  3.7455921E-01
   7127.67  4.0757157E-01
   7128.00  4.3587505E-01
   7128.33  4.5686146E-01
   7128.67  4.7135438E-01
   7129.00  4.8105534E-01
   7129.33  4.8904839E-01
   7129.67  4.9888578E-01
   7130.00  5.1271482E-01
   7130.33  5.3275834E-01
   7130.67  5.5906772E-01
   7131.00  5.9166264E-01
   7131.33  6.3042380E-01
   7131.67  6.7285753E-01
   7132.00  7.1668206E-01
   7132.33  7.5867902E-01
   7132.67  7.9635723E-01
   7133.00  8.2802706E-01
   7133.33  8.5155729E-01
   7133.67  8.6752245E-01
   7134.00  8.7662930E-01
   7134.33  8.7970667E-01
   7134.67  8.7881529E-01
   7135.00  8.7503266E-01
   7135.33  8.6922455E-01
   7135.67  8.6215639E-01
   7136.00  8.5367001E-01
   7136.33  8.4269710E-01
   7136.67  8.2843881E-01
   7137.00  8.1014589E-01
   7137.33  7.8706930E-01
   7137.67  7.6045254E-01
   7138.00  7.3156090E-01
   7138.33  7.0219967E-01
   7138.67  6.7423523E-01
   7139.00  6.4891914E-01
   7139.33  6.2766413E-01
   7139.67  6.1046445E-01
   7140.00  5.9737580E-01
   7140.33  5.8870265E-01
   7140.67  5.8361958E-01
   7141.00  5.8178912E-01
   7141.33  5.8313644E-01
   7141.67  5.8684564E-01
   7142.00  5.9251066E-01
   7142.33  5.9981709E-01
   7142.67  6.0801979E-01
   7143.00  6.1656010E-01
   7143.33  6.2465152E-01
   7143.67  6.3156205E-01
   7144.00  6.3665254E-01
   7144.33  6.3901623E-01
   7144.67  6.3860324E-01
   7145.00  6.3535748E-01
   7145.33  6.2916643E-01
   7145.67  6.2080465E-01
   7146.00  6.1076155E-01
   7146.33  5.9949616E-01
   7146.67  5.8768644E-01
   7147.00  5.7571745E-01
   7147.33  5.6395217E-01
   7147.67  5.5260234E-01
   7148.00  5.4180220E-01
   7148.33  5.3173014E-01
   7148.67  5.2235980E-01
   7149.00  5.1371919E-01
   7149.33  5.0592605E-01
   7149.67  4.9890966E-01
   7150.00  4.9269378E-01
   7150.33  4.8741392E-01
   7150.67  4.8299927E-01
   7151.00  4.7947657E-01
   7151.33  4.7698589E-01
   7151.67  4.7542894E-01
   7152.00  4.7480448E-01
   7152.33  4.7520016E-01
   7152.67  4.7645097E-01
   7153.00  4.7849442E-01
   7153.33  4.8132813E-01
   7153.67  4.8475668E-01
   7154.00  4.8867647E-01
   7154.33  4.9300313E-01
   7154.67  4.9755385E-01
   7155.00  5.0220500E-01
   7155.33  5.0680672E-01
   7155.67  5.1122567E-01
   7156.00  5.1535085E-01
   7156.33  5.1901764E-01
   7156.67  5.2218775E-01
   7157.00  5.2481044E-01
   7157.33  5.2679262E-01
   7157.67  5.2822723E-01
   7158.00  5.2916697E-01
   7158.33  5.2965659E-01
   7158.67  5.2986499E-01
   7159.00  5.2990283E-01
   7159.33  5.2989199E-01
   7159.67  5.2995288E-01
   7160.00  5.3016856E-01
   7160.33  5.3064284E-01
   7160.67  5.3139800E-01
   7161.00  5.3245947E-01
   7161.33  5.3387707E-01
   7161.67  5.3560257E-01
   7162.00  5.3761352E-01
   7162.33  5.3989607E-01
   7162.67  5.4236447E-01
   7163.00  5.4496515E-01
   7163.33  5.4763707E-01
   7163.67  5.5029896E-01
   7164.00  5.5288671E-01
   7164.33  5.5530346E-01
   7164.67  5.5748292E-01
   7165.00  5.5935624E-01
   7165.33  5.6080775E-01
   7165.67  5.6182162E-01
   7166.00  5.6234894E-01
   7166.33  5.6227298E-01
   7166.67  5.6162114E-01
   7167.00  5.6036992E-01
   7167.33  5.5842976E-01
   7167.67  5.5588059E-01
   7168.00  5.5273879E-01
   7168.33  5.4897028E-01
   7168.67  5.4469761E-01
   7169.00  5.3997803E-01
   7169.33  5.3484562E-01
   7169.67  5.2944739E-01
   7170.00  5.2388195E-01
   7170.33  5.1825606E-01
   7170.67  5.1269401E-01
   7171.00  5.0730919E-01
   7171.33  5.0231027E-01
   7171.67  4.9789301E-01
   7172.00  4.9433111E-01
