    FDMNES
    energy     <xanes>
   7097.00  5.2011017E-03
   7097.33  5.3203876E-03
   7097.67  5.4449583E-03
   7098.00  5.5751611E-03
   7098.33  5.7122014E-03
   7098.67  5.8558141E-03
   7099.00  6.0064674E-03
   7099.33  6.1657223E-03
   7099.67  6.3333005E-03
   7100.00  6.5098486E-03
   7100.33  6.6974365E-03
   7100.67  6.8957908E-03
   7101.00  7.1058302E-03
   7101.33  7.3303773E-03
   7101.67  7.5692047E-03
   7102.00  7.8236625E-03
   7102.33  8.0977305E-03
   7102.67  8.3913192E-03
   7103.00  8.7064940E-03
   7103.33  9.0491008E-03
   7103.67  9.4193937E-03
   7104.00  9.8206941E-03
   7104.33  1.0262036E-02
   7104.67  1.0744501E-02
   7105.00  1.1273777E-02
   7105.33  1.1864763E-02
   7105.67  1.2520588E-02
   7106.00  1.3251820E-02
   7106.33  1.4085263E-02
   7106.67  1.5029503E-02
   7107.00  1.6106513E-02
   7107.33  1.7370766E-02
   7107.67  1.8847479E-02
   7108.00  2.0590522E-02
   7108.33  2.2733083E-02
   7108.67  2.5363817E-02
   7109.00  2.8654789E-02
   7109.33  3.3050329E-02
   7109.67  3.8992939E-02
   7110.00  4.7344267E-02
   7110.33  6.0511916E-02
   7110.67  8.0872270E-02
   7111.00  1.0929127E-01
   7111.33  1.4390518E-01
   7111.67  1.8521213E-01
   7112.00  2.3055993E-01
   7112.33  2.7750726E-01
   7112.67  3.1987512E-01
   7113.00  3.4278415E-01
   7113.33  3.5245834E-01
   7113.67  3.7484309E-01
   7114.00  4.0842546E-01
   7114.33  4.2146945E-01
   7114.67  4.0686242E-01
   7115.00  3.7926823E-01
   7115.33  3.4781522E-01
   7115.67  3.1679790E-01
   7116.00  2.9076116E-01
   7116.33  2.7431096E-01
   7116.67  2.6605591E-01
   7117.00  2.6277732E-01
   7117.33  2.5956742E-01
   7117.67  2.5509178E-01
   7118.00  2.5088857E-01
   7118.33  2.4695815E-01
   7118.67  2.4202498E-01
   7119.00  2.3518381E-01
   7119.33  2.2485842E-01
   7119.67  2.1233407E-01
   7120.00  1.9991766E-01
   7120.33  1.8966948E-01
   7120.67  1.8148670E-01
   7121.00  1.7463915E-01
   7121.33  1.6828118E-01
   7121.67  1.6243414E-01
   7122.00  1.5773836E-01
   7122.33  1.5430094E-01
   7122.67  1.5178211E-01
   7123.00  1.5093567E-01
   7123.33  1.5316011E-01
   7123.67  1.5845925E-01
   7124.00  1.6669848E-01
   7124.33  1.7792082E-01
   7124.67  1.9157214E-01
   7125.00  2.0762006E-01
   7125.33  2.2655251E-01
   7125.67  2.4827920E-01
   7126.00  2.7286159E-01
   7126.33  3.0027819E-01
   7126.67  3.2920606E-01
   7127.00  3.5826794E-01
   7127.33  3.8528793E-01
   7127.67  4.0863171E-01
   7128.00  4.2735371E-01
   7128.33  4.4108439E-01
   7128.67  4.5206563E-01
   7129.00  4.6244112E-01
   7129.33  4.7473629E-01
   7129.67  4.9016046E-01
   7130.00  5.0905585E-01
   7130.33  5.3147016E-01
   7130.67  5.5635995E-01
   7131.00  5.8322910E-01
   7131.33  6.1182963E-01
   7131.67  6.4141948E-01
   7132.00  6.7126514E-01
   7132.33  7.0016768E-01
   7132.67  7.2705277E-01
   7133.00  7.5094541E-01
   7133.33  7.7039242E-01
   7133.67  7.8530216E-01
   7134.00  7.9562207E-01
   7134.33  8.0125228E-01
   7134.67  8.0312720E-01
   7135.00  8.0135931E-01
   7135.33  7.9584399E-01
   7135.67  7.8769478E-01
   7136.00  7.7751339E-01
   7136.33  7.6547831E-01
   7136.67  7.5183663E-01
   7137.00  7.3648578E-01
   7137.33  7.1912412E-01
   7137.67  7.0010872E-01
   7138.00  6.7979212E-01
   7138.33  6.5876584E-01
   7138.67  6.3796087E-01
   7139.00  6.1814979E-01
   7139.33  6.0039197E-01
   7139.67  5.8513385E-01
   7140.00  5.7279645E-01
   7140.33  5.6408142E-01
   7140.67  5.5868773E-01
   7141.00  5.5656851E-01
   7141.33  5.5796392E-01
   7141.67  5.6227508E-01
   7142.00  5.6928562E-01
   7142.33  5.7897802E-01
   7142.67  5.9061818E-01
   7143.00  6.0367446E-01
   7143.33  6.1733282E-01
   7143.67  6.3032830E-01
   7144.00  6.4143088E-01
   7144.33  6.4876626E-01
   7144.67  6.5162439E-01
   7145.00  6.4956968E-01
   7145.33  6.4227414E-01
   7145.67  6.3125737E-01
   7146.00  6.1761278E-01
   7146.33  6.0245178E-01
   7146.67  5.8700196E-01
   7147.00  5.7192531E-01
   7147.33  5.5783370E-01
   7147.67  5.4488403E-01
   7148.00  5.3315361E-01
   7148.33  5.2277924E-01
   7148.67  5.1356192E-01
   7149.00  5.0545618E-01
   7149.33  4.9854820E-01
   7149.67  4.9267558E-01
   7150.00  4.8782468E-01
   7150.33  4.8410522E-01
   7150.67  4.8137143E-01
   7151.00  4.7960286E-01
   7151.33  4.7888087E-01
   7151.67  4.7903645E-01
   7152.00  4.8000942E-01
   7152.33  4.8180280E-01
   7152.67  4.8421851E-01
   7153.00  4.8715158E-01
   7153.33  4.9051628E-01
   7153.67  4.9412354E-01
   7154.00  4.9785075E-01
   7154.33  5.0155638E-01
   7154.67  5.0511353E-01
   7155.00  5.0842436E-01
   7155.33  5.1135387E-01
   7155.67  5.1387802E-01
   7156.00  5.1596187E-01
   7156.33  5.1753610E-01
   7156.67  5.1867400E-01
   7157.00  5.1941034E-01
   7157.33  5.1976410E-01
   7157.67  5.1985462E-01
   7158.00  5.1975396E-01
   7158.33  5.1953413E-01
   7158.67  5.1928970E-01
   7159.00  5.1908390E-01
   7159.33  5.1899271E-01
   7159.67  5.1905438E-01
   7160.00  5.1930316E-01
   7160.33  5.1979657E-01
   7160.67  5.2052807E-01
   7161.00  5.2150658E-01
   7161.33  5.2276873E-01
   7161.67  5.2428868E-01
   7162.00  5.2607031E-01
   7162.33  5.2814913E-01
   7162.67  5.3049219E-01
   7163.00  5.3309496E-01
   7163.33  5.3596936E-01
   7163.67  5.3905822E-01
   7164.00  5.4233977E-01
   7164.33  5.4580199E-01
   7164.67  5.4937757E-01
   7165.00  5.5301333E-01
   7165.33  5.5663362E-01
   7165.67  5.6015488E-01
   7166.00  5.6349608E-01
   7166.33  5.6652226E-01
   7166.67  5.6916680E-01
   7167.00  5.7134428E-01
   7167.33  5.7289264E-01
   7167.67  5.7380528E-01
   7168.00  5.7403422E-01
   7168.33  5.7345835E-01
   7168.67  5.7216281E-01
   7169.00  5.7016294E-01
   7169.33  5.6742024E-01
   7169.67  5.6408872E-01
   7170.00  5.6024887E-01
   7170.33  5.5596551E-01
   7170.67  5.5142413E-01
   7171.00  5.4676439E-01
   7171.33  5.4220648E-01
   7171.67  5.3804235E-01
   7172.00  5.3462472E-01
