    FDMNES
    energy     <xanes>
   7097.00  5.0283394E-03
   7097.33  5.1440577E-03
   7097.67  5.2649197E-03
   7098.00  5.3912676E-03
   7098.33  5.5242815E-03
   7098.67  5.6637093E-03
   7099.00  5.8100144E-03
   7099.33  5.9647319E-03
   7099.67  6.1276003E-03
   7100.00  6.2992638E-03
   7100.33  6.4817690E-03
   7100.67  6.6748658E-03
   7101.00  6.8794764E-03
   7101.33  7.0984113E-03
   7101.67  7.3314778E-03
   7102.00  7.5800438E-03
   7102.33  7.8481074E-03
   7102.67  8.1356352E-03
   7103.00  8.4447442E-03
   7103.33  8.7813715E-03
   7103.67  9.1458738E-03
   7104.00  9.5417015E-03
   7104.33  9.9781542E-03
   7104.67  1.0456524E-02
   7105.00  1.0982810E-02
   7105.33  1.1572606E-02
   7105.67  1.2229518E-02
   7106.00  1.2964897E-02
   7106.33  1.3807334E-02
   7106.67  1.4766629E-02
   7107.00  1.5866826E-02
   7107.33  1.7167222E-02
   7107.67  1.8696483E-02
   7108.00  2.0514421E-02
   7108.33  2.2768238E-02
   7108.67  2.5557300E-02
   7109.00  2.9071763E-02
   7109.33  3.3797488E-02
   7109.67  4.0205053E-02
   7110.00  4.9197331E-02
   7110.33  6.3309693E-02
   7110.67  8.5693192E-02
   7111.00  1.2095060E-01
   7111.33  1.7648028E-01
   7111.67  2.4382218E-01
   7112.00  2.8940120E-01
   7112.33  3.1057390E-01
   7112.67  3.2206273E-01
   7113.00  3.3777286E-01
   7113.33  3.7798275E-01
   7113.67  3.8858049E-01
   7114.00  3.3097434E-01
   7114.33  2.4963750E-01
   7114.67  1.9673057E-01
   7115.00  1.7649834E-01
   7115.33  1.8733371E-01
   7115.67  2.2094900E-01
   7116.00  2.6152043E-01
   7116.33  2.8319795E-01
   7116.67  2.9408204E-01
   7117.00  2.9801067E-01
   7117.33  2.9842198E-01
   7117.67  2.9982855E-01
   7118.00  2.9001562E-01
   7118.33  2.6236796E-01
   7118.67  2.3231918E-01
   7119.00  2.0648032E-01
   7119.33  1.8746381E-01
   7119.67  1.7379264E-01
   7120.00  1.6413639E-01
   7120.33  1.5786564E-01
   7120.67  1.5370522E-01
   7121.00  1.5090168E-01
   7121.33  1.4932067E-01
   7121.67  1.4879568E-01
   7122.00  1.4854827E-01
   7122.33  1.4755245E-01
   7122.67  1.4636801E-01
   7123.00  1.4615535E-01
   7123.33  1.4830926E-01
   7123.67  1.5310591E-01
   7124.00  1.6067862E-01
   7124.33  1.7135960E-01
   7124.67  1.8463246E-01
   7125.00  2.0019534E-01
   7125.33  2.1775487E-01
   7125.67  2.3655460E-01
   7126.00  2.5641245E-01
   7126.33  2.7776893E-01
   7126.67  3.0075303E-01
   7127.00  3.2518046E-01
   7127.33  3.5028499E-01
   7127.67  3.7454527E-01
   7128.00  3.9637881E-01
   7128.33  4.1366389E-01
   7128.67  4.2649851E-01
   7129.00  4.3606349E-01
   7129.33  4.4529346E-01
   7129.67  4.5767033E-01
   7130.00  4.7548814E-01
   7130.33  5.0125118E-01
   7130.67  5.3484298E-01
   7131.00  5.7626508E-01
   7131.33  6.2556398E-01
   7131.67  6.7996835E-01
   7132.00  7.3670085E-01
   7132.33  7.9076492E-01
   7132.67  8.3736842E-01
   7133.00  8.7348919E-01
   7133.33  8.9641210E-01
   7133.67  9.0816010E-01
   7134.00  9.1077731E-01
   7134.33  9.0732352E-01
   7134.67  9.0143945E-01
   7135.00  8.9439088E-01
   7135.33  8.8661082E-01
   7135.67  8.7795876E-01
   7136.00  8.6772890E-01
   7136.33  8.5432510E-01
   7136.67  8.3681456E-01
   7137.00  8.1453703E-01
   7137.33  7.8718332E-01
   7137.67  7.5676925E-01
   7138.00  7.2518099E-01
   7138.33  6.9485385E-01
   7138.67  6.6747799E-01
   7139.00  6.4402361E-01
   7139.33  6.2546914E-01
   7139.67  6.1113142E-01
   7140.00  6.0061707E-01
   7140.33  5.9375518E-01
   7140.67  5.8959261E-01
   7141.00  5.8775403E-01
   7141.33  5.8814831E-01
   7141.67  5.9023281E-01
   7142.00  5.9376802E-01
   7142.33  5.9857309E-01
   7142.67  6.0405370E-01
   7143.00  6.0966755E-01
   7143.33  6.1451576E-01
   7143.67  6.1775534E-01
   7144.00  6.1862595E-01
   7144.33  6.1610288E-01
   7144.67  6.1034285E-01
   7145.00  6.0155254E-01
   7145.33  5.9006711E-01
   7145.67  5.7707686E-01
   7146.00  5.6340154E-01
   7146.33  5.4994567E-01
   7146.67  5.3740441E-01
   7147.00  5.2624270E-01
   7147.33  5.1704274E-01
   7147.67  5.0977220E-01
   7148.00  5.0445876E-01
   7148.33  5.0122858E-01
   7148.67  4.9962923E-01
   7149.00  4.9941335E-01
   7149.33  5.0040409E-01
   7149.67  5.0217555E-01
   7150.00  5.0451350E-01
   7150.33  5.0727153E-01
   7150.67  5.1027051E-01
   7151.00  5.1343607E-01
   7151.33  5.1672638E-01
   7151.67  5.2008975E-01
   7152.00  5.2349615E-01
   7152.33  5.2690626E-01
   7152.67  5.3027380E-01
   7153.00  5.3355607E-01
   7153.33  5.3668709E-01
   7153.67  5.3964341E-01
   7154.00  5.4240126E-01
   7154.33  5.4491913E-01
   7154.67  5.4722149E-01
   7155.00  5.4931517E-01
   7155.33  5.5119199E-01
   7155.67  5.5289697E-01
   7156.00  5.5444978E-01
   7156.33  5.5585909E-01
   7156.67  5.5716845E-01
   7157.00  5.5840508E-01
   7157.33  5.5960109E-01
   7157.67  5.6080253E-01
   7158.00  5.6204739E-01
   7158.33  5.6339038E-01
   7158.67  5.6485890E-01
   7159.00  5.6647722E-01
   7159.33  5.6828111E-01
   7159.67  5.7024873E-01
   7160.00  5.7236495E-01
   7160.33  5.7461032E-01
   7160.67  5.7692015E-01
   7161.00  5.7923947E-01
   7161.33  5.8148508E-01
   7161.67  5.8358145E-01
   7162.00  5.8545227E-01
   7162.33  5.8696584E-01
   7162.67  5.8807155E-01
   7163.00  5.8869983E-01
   7163.33  5.8871412E-01
   7163.67  5.8813112E-01
   7164.00  5.8692284E-01
   7164.33  5.8499558E-01
   7164.67  5.8243237E-01
   7165.00  5.7924695E-01
   7165.33  5.7539075E-01
   7165.67  5.7097247E-01
   7166.00  5.6602570E-01
   7166.33  5.6053301E-01
   7166.67  5.5460360E-01
   7167.00  5.4828345E-01
   7167.33  5.4158972E-01
   7167.67  5.3462989E-01
   7168.00  5.2746651E-01
   7168.33  5.2016055E-01
   7168.67  5.1280712E-01
   7169.00  5.0547494E-01
   7169.33  4.9825988E-01
   7169.67  4.9124241E-01
   7170.00  4.8449543E-01
   7170.33  4.7812802E-01
   7170.67  4.7216018E-01
   7171.00  4.6664949E-01
   7171.33  4.6175111E-01
   7171.67  4.5753578E-01
   7172.00  4.5417321E-01
