    FDMNES
    energy     <xanes>
   7097.00  5.2532867E-03
   7097.33  5.3756386E-03
   7097.67  5.5034818E-03
   7098.00  5.6371835E-03
   7098.33  5.7780069E-03
   7098.67  5.9256856E-03
   7099.00  6.0807176E-03
   7099.33  6.2447476E-03
   7099.67  6.4175000E-03
   7100.00  6.5996673E-03
   7100.33  6.7934454E-03
   7100.67  6.9985713E-03
   7101.00  7.2160377E-03
   7101.33  7.4488635E-03
   7101.67  7.6968484E-03
   7102.00  7.9614661E-03
   7102.33  8.2470161E-03
   7102.67  8.5534714E-03
   7103.00  8.8831143E-03
   7103.33  9.2423366E-03
   7103.67  9.6315347E-03
   7104.00  1.0054432E-02
   7104.33  1.0521051E-02
   7104.67  1.1032804E-02
   7105.00  1.1596174E-02
   7105.33  1.2227993E-02
   7105.67  1.2932191E-02
   7106.00  1.3721062E-02
   7106.33  1.4625556E-02
   7106.67  1.5656397E-02
   7107.00  1.6839767E-02
   7107.33  1.8240270E-02
   7107.67  1.9889664E-02
   7108.00  2.1853988E-02
   7108.33  2.4296340E-02
   7108.67  2.7330218E-02
   7109.00  3.1173264E-02
   7109.33  3.6388796E-02
   7109.67  4.3553282E-02
   7110.00  5.3788122E-02
   7110.33  7.0282033E-02
   7110.67  9.6680193E-02
   7111.00  1.3577360E-01
   7111.33  1.8187990E-01
   7111.67  2.2662579E-01
   7112.00  2.7035593E-01
   7112.33  3.0829653E-01
   7112.67  3.4222125E-01
   7113.00  3.8666590E-01
   7113.33  4.3180325E-01
   7113.67  4.4448263E-01
   7114.00  4.3307131E-01
   7114.33  3.9935717E-01
   7114.67  3.4793150E-01
   7115.00  2.9600595E-01
   7115.33  2.5806558E-01
   7115.67  2.3390642E-01
   7116.00  2.2127324E-01
   7116.33  2.1763824E-01
   7116.67  2.1649026E-01
   7117.00  2.1088060E-01
   7117.33  1.9598678E-01
   7117.67  1.7851423E-01
   7118.00  1.6420348E-01
   7118.33  1.5584721E-01
   7118.67  1.5199897E-01
   7119.00  1.5142524E-01
   7119.33  1.5277093E-01
   7119.67  1.5396368E-01
   7120.00  1.5367669E-01
   7120.33  1.5173645E-01
   7120.67  1.4960485E-01
   7121.00  1.4833392E-01
   7121.33  1.4910470E-01
   7121.67  1.5274834E-01
   7122.00  1.6002794E-01
   7122.33  1.7184989E-01
   7122.67  1.8793399E-01
   7123.00  2.0837727E-01
   7123.33  2.3272469E-01
   7123.67  2.5738296E-01
   7124.00  2.7800969E-01
   7124.33  2.8955389E-01
   7124.67  2.9330196E-01
   7125.00  2.9263518E-01
   7125.33  2.9208196E-01
   7125.67  2.9476053E-01
   7126.00  3.0214366E-01
   7126.33  3.1581933E-01
   7126.67  3.3550637E-01
   7127.00  3.6126059E-01
   7127.33  3.9331494E-01
   7127.67  4.2973906E-01
   7128.00  4.6921057E-01
   7128.33  5.1086653E-01
   7128.67  5.5404379E-01
   7129.00  5.9840883E-01
   7129.33  6.4235889E-01
   7129.67  6.8268730E-01
   7130.00  7.1639095E-01
   7130.33  7.4085755E-01
   7130.67  7.5852356E-01
   7131.00  7.7231060E-01
   7131.33  7.8561703E-01
   7131.67  8.0056309E-01
   7132.00  8.1759075E-01
   7132.33  8.3630075E-01
   7132.67  8.5529133E-01
   7133.00  8.7331497E-01
   7133.33  8.8851013E-01
   7133.67  8.9962387E-01
   7134.00  9.0547275E-01
   7134.33  9.0452304E-01
   7134.67  8.9760202E-01
   7135.00  8.8515171E-01
   7135.33  8.6695900E-01
   7135.67  8.4391937E-01
   7136.00  8.1633570E-01
   7136.33  7.8437641E-01
   7136.67  7.4957309E-01
   7137.00  7.1313287E-01
   7137.33  6.7671527E-01
   7137.67  6.4204280E-01
   7138.00  6.1046088E-01
   7138.33  5.8369930E-01
   7138.67  5.6187204E-01
   7139.00  5.4508108E-01
   7139.33  5.3359968E-01
   7139.67  5.2623276E-01
   7140.00  5.2238122E-01
   7140.33  5.2174555E-01
   7140.67  5.2342941E-01
   7141.00  5.2707783E-01
   7141.33  5.3258157E-01
   7141.67  5.3947222E-01
   7142.00  5.4751698E-01
   7142.33  5.5647625E-01
   7142.67  5.6578078E-01
   7143.00  5.7490721E-01
   7143.33  5.8300925E-01
   7143.67  5.8942013E-01
   7144.00  5.9353937E-01
   7144.33  5.9454828E-01
   7144.67  5.9266886E-01
   7145.00  5.8808911E-01
   7145.33  5.8101920E-01
   7145.67  5.7237811E-01
   7146.00  5.6273488E-01
   7146.33  5.5263029E-01
   7146.67  5.4258492E-01
   7147.00  5.3289604E-01
   7147.33  5.2387555E-01
   7147.67  5.1559432E-01
   7148.00  5.0812262E-01
   7148.33  5.0160386E-01
   7148.67  4.9593882E-01
   7149.00  4.9111918E-01
   7149.33  4.8722988E-01
   7149.67  4.8414319E-01
   7150.00  4.8183555E-01
   7150.33  4.8037008E-01
   7150.67  4.7961967E-01
   7151.00  4.7955464E-01
   7151.33  4.8022020E-01
   7151.67  4.8149599E-01
   7152.00  4.8334420E-01
   7152.33  4.8577884E-01
   7152.67  4.8867288E-01
   7153.00  4.9196108E-01
   7153.33  4.9558640E-01
   7153.67  4.9939436E-01
   7154.00  5.0326634E-01
   7154.33  5.0703495E-01
   7154.67  5.1054639E-01
   7155.00  5.1366417E-01
   7155.33  5.1618871E-01
   7155.67  5.1809735E-01
   7156.00  5.1935827E-01
   7156.33  5.1990563E-01
   7156.67  5.1987519E-01
   7157.00  5.1933719E-01
   7157.33  5.1833103E-01
   7157.67  5.1699787E-01
   7158.00  5.1540709E-01
   7158.33  5.1360681E-01
   7158.67  5.1168345E-01
   7159.00  5.0968721E-01
   7159.33  5.0767177E-01
   7159.67  5.0569344E-01
   7160.00  5.0380064E-01
   7160.33  5.0207214E-01
   7160.67  5.0055234E-01
   7161.00  4.9929471E-01
   7161.33  4.9839883E-01
   7161.67  4.9787706E-01
   7162.00  4.9776604E-01
   7162.33  4.9815117E-01
   7162.67  4.9899185E-01
   7163.00  5.0028654E-01
   7163.33  5.0207083E-01
   7163.67  5.0424672E-01
   7164.00  5.0675185E-01
   7164.33  5.0953108E-01
   7164.67  5.1246212E-01
   7165.00  5.1545798E-01
   7165.33  5.1840642E-01
   7165.67  5.2120413E-01
   7166.00  5.2376015E-01
   7166.33  5.2593298E-01
   7166.67  5.2767917E-01
   7167.00  5.2893900E-01
   7167.33  5.2959464E-01
   7167.67  5.2968367E-01
   7168.00  5.2919819E-01
   7168.33  5.2807917E-01
   7168.67  5.2642881E-01
   7169.00  5.2428800E-01
   7169.33  5.2166276E-01
   7169.67  5.1867769E-01
   7170.00  5.1540105E-01
   7170.33  5.1189381E-01
   7170.67  5.0827753E-01
   7171.00  5.0464738E-01
   7171.33  5.0116067E-01
   7171.67  4.9800919E-01
   7172.00  4.9543597E-01
