    FDMNES
    energy     <xanes>
   7097.00  4.9224338E-03
   7097.33  5.0341884E-03
   7097.67  5.1509298E-03
   7098.00  5.2729953E-03
   7098.33  5.4015395E-03
   7098.67  5.5363270E-03
   7099.00  5.6778188E-03
   7099.33  5.8275263E-03
   7099.67  5.9852109E-03
   7100.00  6.1515197E-03
   7100.33  6.3284859E-03
   7100.67  6.5158924E-03
   7101.00  6.7146774E-03
   7101.33  6.9276654E-03
   7101.67  7.1547162E-03
   7102.00  7.3972442E-03
   7102.33  7.6593275E-03
   7102.67  7.9410278E-03
   7103.00  8.2445786E-03
   7103.33  8.5761556E-03
   7103.67  8.9363089E-03
   7104.00  9.3287748E-03
   7104.33  9.7634830E-03
   7104.67  1.0242168E-02
   7105.00  1.0771556E-02
   7105.33  1.1368894E-02
   7105.67  1.2038947E-02
   7106.00  1.2795041E-02
   7106.33  1.3670408E-02
   7106.67  1.4678353E-02
   7107.00  1.5849017E-02
   7107.33  1.7256461E-02
   7107.67  1.8942253E-02
   7108.00  2.0989033E-02
   7108.33  2.3602250E-02
   7108.67  2.6944015E-02
   7109.00  3.1320949E-02
   7109.33  3.7546340E-02
   7109.67  4.6554739E-02
   7110.00  6.0184773E-02
   7110.33  8.3715746E-02
   7110.67  1.2232306E-01
   7111.00  1.7485407E-01
   7111.33  2.2076807E-01
   7111.67  2.5221845E-01
   7112.00  2.7018896E-01
   7112.33  2.7376109E-01
   7112.67  2.7539815E-01
   7113.00  2.8304232E-01
   7113.33  2.9045057E-01
   7113.67  2.8035233E-01
   7114.00  2.5021414E-01
   7114.33  2.1898209E-01
   7114.67  2.0440302E-01
   7115.00  2.1203246E-01
   7115.33  2.4036737E-01
   7115.67  2.6362019E-01
   7116.00  2.5592725E-01
   7116.33  2.1912948E-01
   7116.67  1.8302056E-01
   7117.00  1.5813063E-01
   7117.33  1.4470900E-01
   7117.67  1.3723467E-01
   7118.00  1.3370474E-01
   7118.33  1.3370728E-01
   7118.67  1.3517256E-01
   7119.00  1.3638049E-01
   7119.33  1.3714138E-01
   7119.67  1.3717406E-01
   7120.00  1.3601706E-01
   7120.33  1.3546331E-01
   7120.67  1.3731765E-01
   7121.00  1.4187966E-01
   7121.33  1.4904131E-01
   7121.67  1.5798076E-01
   7122.00  1.6837657E-01
   7122.33  1.8042114E-01
   7122.67  1.9418252E-01
   7123.00  2.0967693E-01
   7123.33  2.2720424E-01
   7123.67  2.4696061E-01
   7124.00  2.6828602E-01
   7124.33  2.8847822E-01
   7124.67  3.0670659E-01
   7125.00  3.2379042E-01
   7125.33  3.3846842E-01
   7125.67  3.4895792E-01
   7126.00  3.5575531E-01
   7126.33  3.6174928E-01
   7126.67  3.7031276E-01
   7127.00  3.8292962E-01
   7127.33  3.9932000E-01
   7127.67  4.1778433E-01
   7128.00  4.3868668E-01
   7128.33  4.6418415E-01
   7128.67  4.9460912E-01
   7129.00  5.2910740E-01
   7129.33  5.6563141E-01
   7129.67  6.0180745E-01
   7130.00  6.3648534E-01
   7130.33  6.6807862E-01
   7130.67  6.9529438E-01
   7131.00  7.1727275E-01
   7131.33  7.3430045E-01
   7131.67  7.4947885E-01
   7132.00  7.6546402E-01
   7132.33  7.8495779E-01
   7132.67  8.0824267E-01
   7133.00  8.3448442E-01
   7133.33  8.6143572E-01
   7133.67  8.8504785E-01
   7134.00  9.0046780E-01
   7134.33  9.0037000E-01
   7134.67  8.8402931E-01
   7135.00  8.5310020E-01
   7135.33  8.1147750E-01
   7135.67  7.6615514E-01
   7136.00  7.2105481E-01
   7136.33  6.7941672E-01
   7136.67  6.4228987E-01
   7137.00  6.1020874E-01
   7137.33  5.8400643E-01
   7137.67  5.6291749E-01
   7138.00  5.4665387E-01
   7138.33  5.3515522E-01
   7138.67  5.2699005E-01
   7139.00  5.2116792E-01
   7139.33  5.1661847E-01
   7139.67  5.1222904E-01
   7140.00  5.0752814E-01
   7140.33  5.0232216E-01
   7140.67  4.9680588E-01
   7141.00  4.9117168E-01
   7141.33  4.8562831E-01
   7141.67  4.8030859E-01
   7142.00  4.7530818E-01
   7142.33  4.7078867E-01
   7142.67  4.6680746E-01
   7143.00  4.6345179E-01
   7143.33  4.6088429E-01
   7143.67  4.5904460E-01
   7144.00  4.5792288E-01
   7144.33  4.5757605E-01
   7144.67  4.5788658E-01
   7145.00  4.5883369E-01
   7145.33  4.6048035E-01
   7145.67  4.6274090E-01
   7146.00  4.6560185E-01
   7146.33  4.6909702E-01
   7146.67  4.7309781E-01
   7147.00  4.7754994E-01
   7147.33  4.8245778E-01
   7147.67  4.8775989E-01
   7148.00  4.9347252E-01
   7148.33  4.9965702E-01
   7148.67  5.0623449E-01
   7149.00  5.1317610E-01
   7149.33  5.2049111E-01
   7149.67  5.2810723E-01
   7150.00  5.3599885E-01
   7150.33  5.4415822E-01
   7150.67  5.5250042E-01
   7151.00  5.6095689E-01
   7151.33  5.6941828E-01
   7151.67  5.7773722E-01
   7152.00  5.8575538E-01
   7152.33  5.9318378E-01
   7152.67  5.9982557E-01
   7153.00  6.0543725E-01
   7153.33  6.0958580E-01
   7153.67  6.1222239E-01
   7154.00  6.1323546E-01
   7154.33  6.1238821E-01
   7154.67  6.0997853E-01
   7155.00  6.0617768E-01
   7155.33  6.0112801E-01
   7155.67  5.9529568E-01
   7156.00  5.8896467E-01
   7156.33  5.8240972E-01
   7156.67  5.7589926E-01
   7157.00  5.6959100E-01
   7157.33  5.6364795E-01
   7157.67  5.5809277E-01
   7158.00  5.5294160E-01
   7158.33  5.4822914E-01
   7158.67  5.4387037E-01
   7159.00  5.3982681E-01
   7159.33  5.3608614E-01
   7159.67  5.3257054E-01
   7160.00  5.2924490E-01
   7160.33  5.2609367E-01
   7160.67  5.2306717E-01
   7161.00  5.2014245E-01
   7161.33  5.1730842E-01
   7161.67  5.1454295E-01
   7162.00  5.1184580E-01
   7162.33  5.0924084E-01
   7162.67  5.0674687E-01
   7163.00  5.0440009E-01
   7163.33  5.0227543E-01
   7163.67  5.0039819E-01
   7164.00  4.9880430E-01
   7164.33  4.9756226E-01
   7164.67  4.9664796E-01
   7165.00  4.9606263E-01
   7165.33  4.9583850E-01
   7165.67  4.9592120E-01
   7166.00  4.9629186E-01
   7166.33  4.9695021E-01
   7166.67  4.9782472E-01
   7167.00  4.9887757E-01
   7167.33  5.0007402E-01
   7167.67  5.0133921E-01
   7168.00  5.0261671E-01
   7168.33  5.0382731E-01
   7168.67  5.0490130E-01
   7169.00  5.0577058E-01
   7169.33  5.0632427E-01
   7169.67  5.0653266E-01
   7170.00  5.0635464E-01
   7170.33  5.0571450E-01
   7170.67  5.0467244E-01
   7171.00  5.0327125E-01
   7171.33  5.0158723E-01
   7171.67  4.9985218E-01
   7172.00  4.9832305E-01
