    FDMNES
    energy     <xanes>
   7097.00  5.1396699E-03
   7097.33  5.2675754E-03
   7097.67  5.4015816E-03
   7098.00  5.5421200E-03
   7098.33  5.6906336E-03
   7098.67  5.8468595E-03
   7099.00  6.0113917E-03
   7099.33  6.1861393E-03
   7099.67  6.3708412E-03
   7100.00  6.5663389E-03
   7100.33  6.7752273E-03
   7100.67  6.9972825E-03
   7101.00  7.2337348E-03
   7101.33  7.4882267E-03
   7101.67  7.7606490E-03
   7102.00  8.0528705E-03
   7102.33  8.3702046E-03
   7102.67  8.7128275E-03
   7103.00  9.0837105E-03
   7103.33  9.4909767E-03
   7103.67  9.9354759E-03
   7104.00  1.0422203E-02
   7104.33  1.0964322E-02
   7104.67  1.1564287E-02
   7105.00  1.2231108E-02
   7105.33  1.2987753E-02
   7105.67  1.3840709E-02
   7106.00  1.4807771E-02
   7106.33  1.5933124E-02
   7106.67  1.7234386E-02
   7107.00  1.8751304E-02
   7107.33  2.0581185E-02
   7107.67  2.2777301E-02
   7108.00  2.5445711E-02
   7108.33  2.8848392E-02
   7108.67  3.3183655E-02
   7109.00  3.8825745E-02
   7109.33  4.6753891E-02
   7109.67  5.8038515E-02
   7110.00  7.4764892E-02
   7110.33  1.0283154E-01
   7110.67  1.4794826E-01
   7111.00  2.0991102E-01
   7111.33  2.7502794E-01
   7111.67  3.5038015E-01
   7112.00  4.4672565E-01
   7112.33  5.2645589E-01
   7112.67  5.3861460E-01
   7113.00  5.0951917E-01
   7113.33  4.5264826E-01
   7113.67  3.6060550E-01
   7114.00  2.6457597E-01
   7114.33  1.9747979E-01
   7114.67  1.5345087E-01
   7115.00  1.2505971E-01
   7115.33  1.0856883E-01
   7115.67  9.9480935E-02
   7116.00  9.5243219E-02
   7116.33  9.3247856E-02
   7116.67  9.2698652E-02
   7117.00  9.4676183E-02
   7117.33  9.9633778E-02
   7117.67  1.0462465E-01
   7118.00  1.0627072E-01
   7118.33  1.0377916E-01
   7118.67  1.0136037E-01
   7119.00  1.0169577E-01
   7119.33  1.0613951E-01
   7119.67  1.1375138E-01
   7120.00  1.2407365E-01
   7120.33  1.3753074E-01
   7120.67  1.5438850E-01
   7121.00  1.7554467E-01
   7121.33  2.0295566E-01
   7121.67  2.3688047E-01
   7122.00  2.7691781E-01
   7122.33  3.2049943E-01
   7122.67  3.6425855E-01
   7123.00  4.0807970E-01
   7123.33  4.5384916E-01
   7123.67  5.0253738E-01
   7124.00  5.5258335E-01
   7124.33  5.9732828E-01
   7124.67  6.2896361E-01
   7125.00  6.4217323E-01
   7125.33  6.3411494E-01
   7125.67  6.1260051E-01
   7126.00  5.8459946E-01
   7126.33  5.5741530E-01
   7126.67  5.3534121E-01
   7127.00  5.2004658E-01
   7127.33  5.1274099E-01
   7127.67  5.1120091E-01
   7128.00  5.1263089E-01
   7128.33  5.1204236E-01
   7128.67  5.0551645E-01
   7129.00  4.9261907E-01
   7129.33  4.7724740E-01
   7129.67  4.6546419E-01
   7130.00  4.6020515E-01
   7130.33  4.6223976E-01
   7130.67  4.6807527E-01
   7131.00  4.7486953E-01
   7131.33  4.8063787E-01
   7131.67  4.8558886E-01
   7132.00  4.9034217E-01
   7132.33  4.9518196E-01
   7132.67  5.0041727E-01
   7133.00  5.0703315E-01
   7133.33  5.1652170E-01
   7133.67  5.2851820E-01
   7134.00  5.4176003E-01
   7134.33  5.5345253E-01
   7134.67  5.6097680E-01
   7135.00  5.6330650E-01
   7135.33  5.6126043E-01
   7135.67  5.5804478E-01
   7136.00  5.5565280E-01
   7136.33  5.5564161E-01
   7136.67  5.5824005E-01
   7137.00  5.6352217E-01
   7137.33  5.7158455E-01
   7137.67  5.8157023E-01
   7138.00  5.9274368E-01
   7138.33  6.0404240E-01
   7138.67  6.1437632E-01
   7139.00  6.2308144E-01
   7139.33  6.2964598E-01
   7139.67  6.3449088E-01
   7140.00  6.3794339E-01
   7140.33  6.4025228E-01
   7140.67  6.4183901E-01
   7141.00  6.4292160E-01
   7141.33  6.4376407E-01
   7141.67  6.4473859E-01
   7142.00  6.4613375E-01
   7142.33  6.4828269E-01
   7142.67  6.5124388E-01
   7143.00  6.5509655E-01
   7143.33  6.6004425E-01
   7143.67  6.6601003E-01
   7144.00  6.7294207E-01
   7144.33  6.8068124E-01
   7144.67  6.8863866E-01
   7145.00  6.9619898E-01
   7145.33  7.0236020E-01
   7145.67  7.0644249E-01
   7146.00  7.0787196E-01
   7146.33  7.0589710E-01
   7146.67  7.0089542E-01
   7147.00  6.9314005E-01
   7147.33  6.8290986E-01
   7147.67  6.7116799E-01
   7148.00  6.5851233E-01
   7148.33  6.4555283E-01
   7148.67  6.3287211E-01
   7149.00  6.2083782E-01
   7149.33  6.0984611E-01
   7149.67  5.9988697E-01
   7150.00  5.9091302E-01
   7150.33  5.8283466E-01
   7150.67  5.7527491E-01
   7151.00  5.6796795E-01
   7151.33  5.6061054E-01
   7151.67  5.5296675E-01
   7152.00  5.4489812E-01
   7152.33  5.3626883E-01
   7152.67  5.2715292E-01
   7153.00  5.1761263E-01
   7153.33  5.0771820E-01
   7153.67  4.9763719E-01
   7154.00  4.8748026E-01
   7154.33  4.7736769E-01
   7154.67  4.6738661E-01
   7155.00  4.5759532E-01
   7155.33  4.4806912E-01
   7155.67  4.3880989E-01
   7156.00  4.2984280E-01
   7156.33  4.2124527E-01
   7156.67  4.1302637E-01
   7157.00  4.0524080E-01
   7157.33  3.9802233E-01
   7157.67  3.9137517E-01
   7158.00  3.8534716E-01
   7158.33  3.8005815E-01
   7158.67  3.7544053E-01
   7159.00  3.7148796E-01
   7159.33  3.6825319E-01
   7159.67  3.6561233E-01
   7160.00  3.6351712E-01
   7160.33  3.6196051E-01
   7160.67  3.6080635E-01
   7161.00  3.5998421E-01
   7161.33  3.5944073E-01
   7161.67  3.5906330E-01
   7162.00  3.5878819E-01
   7162.33  3.5855974E-01
   7162.67  3.5833193E-01
   7163.00  3.5808803E-01
   7163.33  3.5782731E-01
   7163.67  3.5756877E-01
   7164.00  3.5733538E-01
   7164.33  3.5717313E-01
   7164.67  3.5711686E-01
   7165.00  3.5719995E-01
   7165.33  3.5747564E-01
   7165.67  3.5794573E-01
   7166.00  3.5862299E-01
   7166.33  3.5954178E-01
   7166.67  3.6067592E-01
   7167.00  3.6202185E-01
   7167.33  3.6359826E-01
   7167.67  3.6537117E-01
   7168.00  3.6733296E-01
   7168.33  3.6949695E-01
   7168.67  3.7182961E-01
   7169.00  3.7431828E-01
   7169.33  3.7696186E-01
   7169.67  3.7972103E-01
   7170.00  3.8257314E-01
   7170.33  3.8549405E-01
   7170.67  3.8843578E-01
   7171.00  3.9135122E-01
   7171.33  3.9414145E-01
   7171.67  3.9667227E-01
   7172.00  3.9875197E-01
