    FDMNES
    energy     <xanes>
   7097.00  5.7025982E-03
   7097.33  5.8550413E-03
   7097.67  6.0151781E-03
   7098.00  6.1835685E-03
   7098.33  6.3620586E-03
   7098.67  6.5503358E-03
   7099.00  6.7491729E-03
   7099.33  6.9610223E-03
   7099.67  7.1855750E-03
   7100.00  7.4239248E-03
   7100.33  7.6794154E-03
   7100.67  7.9517840E-03
   7101.00  8.2426272E-03
   7101.33  8.5566429E-03
   7101.67  8.8937090E-03
   7102.00  9.2562395E-03
   7102.33  9.6510762E-03
   7102.67  1.0078442E-02
   7103.00  1.0542145E-02
   7103.33  1.1052588E-02
   7103.67  1.1610797E-02
   7104.00  1.2223092E-02
   7104.33  1.2906156E-02
   7104.67  1.3662886E-02
   7105.00  1.4504463E-02
   7105.33  1.5459477E-02
   7105.67  1.6535389E-02
   7106.00  1.7753646E-02
   7106.33  1.9167655E-02
   7106.67  2.0796909E-02
   7107.00  2.2687201E-02
   7107.33  2.4950564E-02
   7107.67  2.7642400E-02
   7108.00  3.0876143E-02
   7108.33  3.4929034E-02
   7108.67  3.9986036E-02
   7109.00  4.6397764E-02
   7109.33  5.5048938E-02
   7109.67  6.6758386E-02
   7110.00  8.3074540E-02
   7110.33  1.0825714E-01
   7110.67  1.4753226E-01
   7111.00  2.0956377E-01
   7111.33  3.1295479E-01
   7111.67  4.6328662E-01
   7112.00  6.3984912E-01
   7112.33  7.8233942E-01
   7112.67  8.3330948E-01
   7113.00  7.7050689E-01
   7113.33  6.4721789E-01
   7113.67  5.1628511E-01
   7114.00  4.0713339E-01
   7114.33  3.3534682E-01
   7114.67  2.8812519E-01
   7115.00  2.5337872E-01
   7115.33  2.2035622E-01
   7115.67  1.9062347E-01
   7116.00  1.6997029E-01
   7116.33  1.6160422E-01
   7116.67  1.5948659E-01
   7117.00  1.5668704E-01
   7117.33  1.5255776E-01
   7117.67  1.5226899E-01
   7118.00  1.5567746E-01
   7118.33  1.6054149E-01
   7118.67  1.6615216E-01
   7119.00  1.7235192E-01
   7119.33  1.7882509E-01
   7119.67  1.8536716E-01
   7120.00  1.9192341E-01
   7120.33  1.9862100E-01
   7120.67  2.0565983E-01
   7121.00  2.1232180E-01
   7121.33  2.1764098E-01
   7121.67  2.2265983E-01
   7122.00  2.2802952E-01
   7122.33  2.3386436E-01
   7122.67  2.4050785E-01
   7123.00  2.4892105E-01
   7123.33  2.6069454E-01
   7123.67  2.7601226E-01
   7124.00  2.9439432E-01
   7124.33  3.1400661E-01
   7124.67  3.3181062E-01
   7125.00  3.4548347E-01
   7125.33  3.5291912E-01
   7125.67  3.5526763E-01
   7126.00  3.5393796E-01
   7126.33  3.5047568E-01
   7126.67  3.4657316E-01
   7127.00  3.4320784E-01
   7127.33  3.4145589E-01
   7127.67  3.4185841E-01
   7128.00  3.4495234E-01
   7128.33  3.5165296E-01
   7128.67  3.6183412E-01
   7129.00  3.7549873E-01
   7129.33  3.9280411E-01
   7129.67  4.1299966E-01
   7130.00  4.3588278E-01
   7130.33  4.6170673E-01
   7130.67  4.8984550E-01
   7131.00  5.1925426E-01
   7131.33  5.4737059E-01
   7131.67  5.7166673E-01
   7132.00  5.9099129E-01
   7132.33  6.0531242E-01
   7132.67  6.1667079E-01
   7133.00  6.2608977E-01
   7133.33  6.3379164E-01
   7133.67  6.3968710E-01
   7134.00  6.4323622E-01
   7134.33  6.4336296E-01
   7134.67  6.3996829E-01
   7135.00  6.3302375E-01
   7135.33  6.2261283E-01
   7135.67  6.0990760E-01
   7136.00  5.9560634E-01
   7136.33  5.8032991E-01
   7136.67  5.6490924E-01
   7137.00  5.5005167E-01
   7137.33  5.3685231E-01
   7137.67  5.2597217E-01
   7138.00  5.1790773E-01
   7138.33  5.1319121E-01
   7138.67  5.1120841E-01
   7139.00  5.1158639E-01
   7139.33  5.1413207E-01
   7139.67  5.1826574E-01
   7140.00  5.2377910E-01
   7140.33  5.3065851E-01
   7140.67  5.3862083E-01
   7141.00  5.4755867E-01
   7141.33  5.5747002E-01
   7141.67  5.6816506E-01
   7142.00  5.7959305E-01
   7142.33  5.9177446E-01
   7142.67  6.0451812E-01
   7143.00  6.1767316E-01
   7143.33  6.3101647E-01
   7143.67  6.4423490E-01
   7144.00  6.5707214E-01
   7144.33  6.6919044E-01
   7144.67  6.8048731E-01
   7145.00  6.9087665E-01
   7145.33  7.0022299E-01
   7145.67  7.0869423E-01
   7146.00  7.1637290E-01
   7146.33  7.2328933E-01
   7146.67  7.2963787E-01
   7147.00  7.3549202E-01
   7147.33  7.4084576E-01
   7147.67  7.4575807E-01
   7148.00  7.5019361E-01
   7148.33  7.5400251E-01
   7148.67  7.5714352E-01
   7149.00  7.5950929E-01
   7149.33  7.6086477E-01
   7149.67  7.6121640E-01
   7150.00  7.6049563E-01
   7150.33  7.5852068E-01
   7150.67  7.5542353E-01
   7151.00  7.5120768E-01
   7151.33  7.4575288E-01
   7151.67  7.3923437E-01
   7152.00  7.3170516E-01
   7152.33  7.2314344E-01
   7152.67  7.1379744E-01
   7153.00  7.0381556E-01
   7153.33  6.9334820E-01
   7153.67  6.8267385E-01
   7154.00  6.7198788E-01
   7154.33  6.6152804E-01
   7154.67  6.5145254E-01
   7155.00  6.4188947E-01
   7155.33  6.3302789E-01
   7155.67  6.2486021E-01
   7156.00  6.1741669E-01
   7156.33  6.1079151E-01
   7156.67  6.0486638E-01
   7157.00  5.9959629E-01
   7157.33  5.9497893E-01
   7157.67  5.9084698E-01
   7158.00  5.8710614E-01
   7158.33  5.8366775E-01
   7158.67  5.8036632E-01
   7159.00  5.7708530E-01
   7159.33  5.7367380E-01
   7159.67  5.7002000E-01
   7160.00  5.6603758E-01
   7160.33  5.6160197E-01
   7160.67  5.5671761E-01
   7161.00  5.5136888E-01
   7161.33  5.4550748E-01
   7161.67  5.3922988E-01
   7162.00  5.3259193E-01
   7162.33  5.2564085E-01
   7162.67  5.1850436E-01
   7163.00  5.1126620E-01
   7163.33  5.0402196E-01
   7163.67  4.9686261E-01
   7164.00  4.8985812E-01
   7164.33  4.8310604E-01
   7164.67  4.7663170E-01
   7165.00  4.7046659E-01
   7165.33  4.6467268E-01
   7165.67  4.5921313E-01
   7166.00  4.5407897E-01
   7166.33  4.4928380E-01
   7166.67  4.4475381E-01
   7167.00  4.4045008E-01
   7167.33  4.3634315E-01
   7167.67  4.3235674E-01
   7168.00  4.2844311E-01
   7168.33  4.2455577E-01
   7168.67  4.2065817E-01
   7169.00  4.1673544E-01
   7169.33  4.1278056E-01
   7169.67  4.0880707E-01
   7170.00  4.0483359E-01
   7170.33  4.0089749E-01
   7170.67  3.9704176E-01
   7171.00  3.9332143E-01
   7171.33  3.8985804E-01
   7171.67  3.8677323E-01
   7172.00  3.8424932E-01
