    FDMNES
    energy     <xanes>
   7097.00  4.6942350E-03
   7097.33  4.8056234E-03
   7097.67  4.9221791E-03
   7098.00  5.0442637E-03
   7098.33  5.1730937E-03
   7098.67  5.3084419E-03
   7099.00  5.4508068E-03
   7099.33  5.6017956E-03
   7099.67  5.7611837E-03
   7100.00  5.9296773E-03
   7100.33  6.1094611E-03
   7100.67  6.3003435E-03
   7101.00  6.5033600E-03
   7101.33  6.7215804E-03
   7101.67  6.9549151E-03
   7102.00  7.2049442E-03
   7102.33  7.4761595E-03
   7102.67  7.7687272E-03
   7103.00  8.0851783E-03
   7103.33  8.4324225E-03
   7103.67  8.8112377E-03
   7104.00  9.2259310E-03
   7104.33  9.6878218E-03
   7104.67  1.0199179E-02
   7105.00  1.0767919E-02
   7105.33  1.1414165E-02
   7105.67  1.2144053E-02
   7106.00  1.2973694E-02
   7106.33  1.3943019E-02
   7106.67  1.5069350E-02
   7107.00  1.6390427E-02
   7107.33  1.7998813E-02
   7107.67  1.9950226E-02
   7108.00  2.2353195E-02
   7108.33  2.5478872E-02
   7108.67  2.9555370E-02
   7109.00  3.5012653E-02
   7109.33  4.3007812E-02
   7109.67  5.4947663E-02
   7110.00  7.3623150E-02
   7110.33  1.0712283E-01
   7110.67  1.6294419E-01
   7111.00  2.3478356E-01
   7111.33  2.7150911E-01
   7111.67  2.6836957E-01
   7112.00  2.5986144E-01
   7112.33  2.5937477E-01
   7112.67  2.5441268E-01
   7113.00  2.3922208E-01
   7113.33  2.2976238E-01
   7113.67  2.3924445E-01
   7114.00  2.6653444E-01
   7114.33  2.9559236E-01
   7114.67  3.1084370E-01
   7115.00  3.1107326E-01
   7115.33  2.9529158E-01
   7115.67  2.5978836E-01
   7116.00  2.1042978E-01
   7116.33  1.6646128E-01
   7116.67  1.3532004E-01
   7117.00  1.1597170E-01
   7117.33  1.0667481E-01
   7117.67  1.0385024E-01
   7118.00  1.0536617E-01
   7118.33  1.0902278E-01
   7118.67  1.1341850E-01
   7119.00  1.1861134E-01
   7119.33  1.2500767E-01
   7119.67  1.3276293E-01
   7120.00  1.4185564E-01
   7120.33  1.5180986E-01
   7120.67  1.6190446E-01
   7121.00  1.7184015E-01
   7121.33  1.8111835E-01
   7121.67  1.8863588E-01
   7122.00  1.9343571E-01
   7122.33  1.9609038E-01
   7122.67  1.9897734E-01
   7123.00  2.0332545E-01
   7123.33  2.0940415E-01
   7123.67  2.1597483E-01
   7124.00  2.2171391E-01
   7124.33  2.2547840E-01
   7124.67  2.2808379E-01
   7125.00  2.3090291E-01
   7125.33  2.3581817E-01
   7125.67  2.4363442E-01
   7126.00  2.5433240E-01
   7126.33  2.6693551E-01
   7126.67  2.7993136E-01
   7127.00  2.9354675E-01
   7127.33  3.0978739E-01
   7127.67  3.2974308E-01
   7128.00  3.5357008E-01
   7128.33  3.8076350E-01
   7128.67  4.0935120E-01
   7129.00  4.3768213E-01
   7129.33  4.6374354E-01
   7129.67  4.8697664E-01
   7130.00  5.0761054E-01
   7130.33  5.2613043E-01
   7130.67  5.4341212E-01
   7131.00  5.5980347E-01
   7131.33  5.7537617E-01
   7131.67  5.9015912E-01
   7132.00  6.0388375E-01
   7132.33  6.1594632E-01
   7132.67  6.2651346E-01
   7133.00  6.3606878E-01
   7133.33  6.4531351E-01
   7133.67  6.5461624E-01
   7134.00  6.6366228E-01
   7134.33  6.7126517E-01
   7134.67  6.7686633E-01
   7135.00  6.8135169E-01
   7135.33  6.8732211E-01
   7135.67  6.9666565E-01
   7136.00  7.1013075E-01
   7136.33  7.2805738E-01
   7136.67  7.4877896E-01
   7137.00  7.7021544E-01
   7137.33  7.8792154E-01
   7137.67  7.9765254E-01
   7138.00  7.9752641E-01
   7138.33  7.8909485E-01
   7138.67  7.7801797E-01
   7139.00  7.6700337E-01
   7139.33  7.5724108E-01
   7139.67  7.4876772E-01
   7140.00  7.4171748E-01
   7140.33  7.3645218E-01
   7140.67  7.3273243E-01
   7141.00  7.3025402E-01
   7141.33  7.2841543E-01
   7141.67  7.2620991E-01
   7142.00  7.2272512E-01
   7142.33  7.1664946E-01
   7142.67  7.0750250E-01
   7143.00  6.9498261E-01
   7143.33  6.7883696E-01
   7143.67  6.6009703E-01
   7144.00  6.3952886E-01
   7144.33  6.1795218E-01
   7144.67  5.9634364E-01
   7145.00  5.7536506E-01
   7145.33  5.5584294E-01
   7145.67  5.3816758E-01
   7146.00  5.2272737E-01
   7146.33  5.1019475E-01
   7146.67  5.0046619E-01
   7147.00  4.9361832E-01
   7147.33  4.8997173E-01
   7147.67  4.8900832E-01
   7148.00  4.9050217E-01
   7148.33  4.9436637E-01
   7148.67  4.9990609E-01
   7149.00  5.0672126E-01
   7149.33  5.1444304E-01
   7149.67  5.2250696E-01
   7150.00  5.3053025E-01
   7150.33  5.3805181E-01
   7150.67  5.4479626E-01
   7151.00  5.5056172E-01
   7151.33  5.5508452E-01
   7151.67  5.5848827E-01
   7152.00  5.6084047E-01
   7152.33  5.6217514E-01
   7152.67  5.6277247E-01
   7153.00  5.6275134E-01
   7153.33  5.6213353E-01
   7153.67  5.6102099E-01
   7154.00  5.5941478E-01
   7154.33  5.5724050E-01
   7154.67  5.5455842E-01
   7155.00  5.5138470E-01
   7155.33  5.4770749E-01
   7155.67  5.4364762E-01
   7156.00  5.3926751E-01
   7156.33  5.3460285E-01
   7156.67  5.2973716E-01
   7157.00  5.2469900E-01
   7157.33  5.1948254E-01
   7157.67  5.1410363E-01
   7158.00  5.0854797E-01
   7158.33  5.0276618E-01
   7158.67  4.9675788E-01
   7159.00  4.9050641E-01
   7159.33  4.8397767E-01
   7159.67  4.7722540E-01
   7160.00  4.7029035E-01
   7160.33  4.6323298E-01
   7160.67  4.5616969E-01
   7161.00  4.4920803E-01
   7161.33  4.4251579E-01
   7161.67  4.3619821E-01
   7162.00  4.3035282E-01
   7162.33  4.2512951E-01
   7162.67  4.2049919E-01
   7163.00  4.1646108E-01
   7163.33  4.1304231E-01
   7163.67  4.1009792E-01
   7164.00  4.0754493E-01
   7164.33  4.0531298E-01
   7164.67  4.0326310E-01
   7165.00  4.0131808E-01
   7165.33  3.9941196E-01
   7165.67  3.9749386E-01
   7166.00  3.9554293E-01
   7166.33  3.9355133E-01
   7166.67  3.9154005E-01
   7167.00  3.8953599E-01
   7167.33  3.8758724E-01
   7167.67  3.8573733E-01
   7168.00  3.8403250E-01
   7168.33  3.8255202E-01
   7168.67  3.8132206E-01
   7169.00  3.8038116E-01
   7169.33  3.7980645E-01
   7169.67  3.7958311E-01
   7170.00  3.7972341E-01
   7170.33  3.8027308E-01
   7170.67  3.8116710E-01
   7171.00  3.8236613E-01
   7171.33  3.8380726E-01
   7171.67  3.8529229E-01
   7172.00  3.8659286E-01
