    FDMNES
    energy     <xanes>
   7097.00  4.7228012E-03
   7097.33  4.8324416E-03
   7097.67  4.9470601E-03
   7098.00  5.0669976E-03
   7098.33  5.1934132E-03
   7098.67  5.3260774E-03
   7099.00  5.4654568E-03
   7099.33  5.6130731E-03
   7099.67  5.7686943E-03
   7100.00  5.9329769E-03
   7100.33  6.1079729E-03
   7100.67  6.2934737E-03
   7101.00  6.4904328E-03
   7101.33  6.7017075E-03
   7101.67  6.9271698E-03
   7102.00  7.1682590E-03
   7102.33  7.4291101E-03
   7102.67  7.7098035E-03
   7103.00  8.0126147E-03
   7103.33  8.3438197E-03
   7103.67  8.7040003E-03
   7104.00  9.0969682E-03
   7104.33  9.5328343E-03
   7104.67  1.0013397E-02
   7105.00  1.0545526E-02
   7105.33  1.1146823E-02
   7105.67  1.1822198E-02
   7106.00  1.2585296E-02
   7106.33  1.3470117E-02
   7106.67  1.4490391E-02
   7107.00  1.5677097E-02
   7107.33  1.7106367E-02
   7107.67  1.8821346E-02
   7108.00  2.0907657E-02
   7108.33  2.3578528E-02
   7108.67  2.7004507E-02
   7109.00  3.1508518E-02
   7109.33  3.7951554E-02
   7109.67  4.7340760E-02
   7110.00  6.1664997E-02
   7110.33  8.6633159E-02
   7110.67  1.2749169E-01
   7111.00  1.8105721E-01
   7111.33  2.1970878E-01
   7111.67  2.3533326E-01
   7112.00  2.4975938E-01
   7112.33  2.7508701E-01
   7112.67  2.8972744E-01
   7113.00  2.8702672E-01
   7113.33  2.6870328E-01
   7113.67  2.5448326E-01
   7114.00  2.5375487E-01
   7114.33  2.7988865E-01
   7114.67  3.2402999E-01
   7115.00  3.5681761E-01
   7115.33  3.4672521E-01
   7115.67  2.9478315E-01
   7116.00  2.2543853E-01
   7116.33  1.7077508E-01
   7116.67  1.3461506E-01
   7117.00  1.1277239E-01
   7117.33  1.0175249E-01
   7117.67  9.7434718E-02
   7118.00  9.7997635E-02
   7118.33  1.0156470E-01
   7118.67  1.0611375E-01
   7119.00  1.1114353E-01
   7119.33  1.1647349E-01
   7119.67  1.2177325E-01
   7120.00  1.2728368E-01
   7120.33  1.3408264E-01
   7120.67  1.4259884E-01
   7121.00  1.5267267E-01
   7121.33  1.6355881E-01
   7121.67  1.7366808E-01
   7122.00  1.8150295E-01
   7122.33  1.8605904E-01
   7122.67  1.8910334E-01
   7123.00  1.9270774E-01
   7123.33  1.9864679E-01
   7123.67  2.0654431E-01
   7124.00  2.1566682E-01
   7124.33  2.2550915E-01
   7124.67  2.3580359E-01
   7125.00  2.4638745E-01
   7125.33  2.5702077E-01
   7125.67  2.6782174E-01
   7126.00  2.7950894E-01
   7126.33  2.9364299E-01
   7126.67  3.1128672E-01
   7127.00  3.3340492E-01
   7127.33  3.6060235E-01
   7127.67  3.9021745E-01
   7128.00  4.1942516E-01
   7128.33  4.4588660E-01
   7128.67  4.7042951E-01
   7129.00  4.9465136E-01
   7129.33  5.1953283E-01
   7129.67  5.4281933E-01
   7130.00  5.6059534E-01
   7130.33  5.6869343E-01
   7130.67  5.6958914E-01
   7131.00  5.6706828E-01
   7131.33  5.6549178E-01
   7131.67  5.6685803E-01
   7132.00  5.7112576E-01
   7132.33  5.7748076E-01
   7132.67  5.8460511E-01
   7133.00  5.9162351E-01
   7133.33  5.9747926E-01
   7133.67  6.0204597E-01
   7134.00  6.0591149E-01
   7134.33  6.1033257E-01
   7134.67  6.1651499E-01
   7135.00  6.2563687E-01
   7135.33  6.3978521E-01
   7135.67  6.5975999E-01
   7136.00  6.8616642E-01
   7136.33  7.1913283E-01
   7136.67  7.5496775E-01
   7137.00  7.8820472E-01
   7137.33  8.0705970E-01
   7137.67  8.0338304E-01
   7138.00  7.7717456E-01
   7138.33  7.4049811E-01
   7138.67  7.0996312E-01
   7139.00  6.9153779E-01
   7139.33  6.8623653E-01
   7139.67  6.8954775E-01
   7140.00  6.9907898E-01
   7140.33  7.1320067E-01
   7140.67  7.2952968E-01
   7141.00  7.4635695E-01
   7141.33  7.6129373E-01
   7141.67  7.7243997E-01
   7142.00  7.7838267E-01
   7142.33  7.7751534E-01
   7142.67  7.7067073E-01
   7143.00  7.5851496E-01
   7143.33  7.4173172E-01
   7143.67  7.2218200E-01
   7144.00  7.0096136E-01
   7144.33  6.7909734E-01
   7144.67  6.5749972E-01
   7145.00  6.3667555E-01
   7145.33  6.1717863E-01
   7145.67  5.9914312E-01
   7146.00  5.8274317E-01
   7146.33  5.6834409E-01
   7146.67  5.5580032E-01
   7147.00  5.4511909E-01
   7147.33  5.3647235E-01
   7147.67  5.2953047E-01
   7148.00  5.2418077E-01
   7148.33  5.2045698E-01
   7148.67  5.1801803E-01
   7149.00  5.1670495E-01
   7149.33  5.1641404E-01
   7149.67  5.1679244E-01
   7150.00  5.1762309E-01
   7150.33  5.1867069E-01
   7150.67  5.1966015E-01
   7151.00  5.2039216E-01
   7151.33  5.2060643E-01
   7151.67  5.2020581E-01
   7152.00  5.1909610E-01
   7152.33  5.1710733E-01
   7152.67  5.1431348E-01
   7153.00  5.1073806E-01
   7153.33  5.0635956E-01
   7153.67  5.0136920E-01
   7154.00  4.9587731E-01
   7154.33  4.8998995E-01
   7154.67  4.8391778E-01
   7155.00  4.7781018E-01
   7155.33  4.7185245E-01
   7155.67  4.6617508E-01
   7156.00  4.6087534E-01
   7156.33  4.5607895E-01
   7156.67  4.5175166E-01
   7157.00  4.4787812E-01
   7157.33  4.4446151E-01
   7157.67  4.4138435E-01
   7158.00  4.3858424E-01
   7158.33  4.3601926E-01
   7158.67  4.3361003E-01
   7159.00  4.3132820E-01
   7159.33  4.2917726E-01
   7159.67  4.2715276E-01
   7160.00  4.2527377E-01
   7160.33  4.2358084E-01
   7160.67  4.2206434E-01
   7161.00  4.2072203E-01
   7161.33  4.1955127E-01
   7161.67  4.1849130E-01
   7162.00  4.1749557E-01
   7162.33  4.1650822E-01
   7162.67  4.1547719E-01
   7163.00  4.1436830E-01
   7163.33  4.1314480E-01
   7163.67  4.1181317E-01
   7164.00  4.1038177E-01
   7164.33  4.0886863E-01
   7164.67  4.0732484E-01
   7165.00  4.0579333E-01
   7165.33  4.0433400E-01
   7165.67  4.0298821E-01
   7166.00  4.0179454E-01
   7166.33  4.0081643E-01
   7166.67  4.0006303E-01
   7167.00  3.9955774E-01
   7167.33  3.9935769E-01
   7167.67  3.9944970E-01
   7168.00  3.9985041E-01
   7168.33  4.0061852E-01
   7168.67  4.0172820E-01
   7169.00  4.0318888E-01
   7169.33  4.0505105E-01
   7169.67  4.0726781E-01
   7170.00  4.0982688E-01
   7170.33  4.1273424E-01
   7170.67  4.1589252E-01
   7171.00  4.1922284E-01
   7171.33  4.2258263E-01
   7171.67  4.2572436E-01
   7172.00  4.2834487E-01
