    FDMNES
    energy     <xanes>
   7097.00  4.2052738E-03
   7097.33  4.2830166E-03
   7097.67  4.3636018E-03
   7098.00  4.4471996E-03
   7098.33  4.5344322E-03
   7098.67  4.6251384E-03
   7099.00  4.7195486E-03
   7099.33  4.8184618E-03
   7099.67  4.9217134E-03
   7100.00  5.0296258E-03
   7100.33  5.1432570E-03
   7100.67  5.2624537E-03
   7101.00  5.3876843E-03
   7101.33  5.5204049E-03
   7101.67  5.6605060E-03
   7102.00  5.8087015E-03
   7102.33  5.9670915E-03
   7102.67  6.1356859E-03
   7103.00  6.3156364E-03
   7103.33  6.5101549E-03
   7103.67  6.7195520E-03
   7104.00  6.9458190E-03
   7104.33  7.1942483E-03
   7104.67  7.4659104E-03
   7105.00  7.7645657E-03
   7105.33  8.0998097E-03
   7105.67  8.4747619E-03
   7106.00  8.8973831E-03
   7106.33  9.3874202E-03
   7106.67  9.9541897E-03
   7107.00  1.0617375E-02
   7107.33  1.1425389E-02
   7107.67  1.2410048E-02
   7108.00  1.3632192E-02
   7108.33  1.5245407E-02
   7108.67  1.7390302E-02
   7109.00  2.0332124E-02
   7109.33  2.4801112E-02
   7109.67  3.1753095E-02
   7110.00  4.3100752E-02
   7110.33  6.4258745E-02
   7110.67  9.7936567E-02
   7111.00  1.2975819E-01
   7111.33  1.2507486E-01
   7111.67  1.0938332E-01
   7112.00  1.0085652E-01
   7112.33  1.0423957E-01
   7112.67  1.0928350E-01
   7113.00  9.9710478E-02
   7113.33  7.8308857E-02
   7113.67  6.1733158E-02
   7114.00  5.2066909E-02
   7114.33  4.7126251E-02
   7114.67  4.2273141E-02
   7115.00  3.6709519E-02
   7115.33  3.2532568E-02
   7115.67  2.9940721E-02
   7116.00  2.8485320E-02
   7116.33  2.7841361E-02
   7116.67  2.7691567E-02
   7117.00  2.7935147E-02
   7117.33  2.8551901E-02
   7117.67  2.9472257E-02
   7118.00  3.0696873E-02
   7118.33  3.2311965E-02
   7118.67  3.4378927E-02
   7119.00  3.7051316E-02
   7119.33  4.0717413E-02
   7119.67  4.5665554E-02
   7120.00  5.2252826E-02
   7120.33  6.0575596E-02
   7120.67  6.9060443E-02
   7121.00  7.6470325E-02
   7121.33  8.3650465E-02
   7121.67  9.2820252E-02
   7122.00  1.0552666E-01
   7122.33  1.2383987E-01
   7122.67  1.4855288E-01
   7123.00  1.8070489E-01
   7123.33  2.2077417E-01
   7123.67  2.6305618E-01
   7124.00  2.9973174E-01
   7124.33  3.2350645E-01
   7124.67  3.3925131E-01
   7125.00  3.5311685E-01
   7125.33  3.7078575E-01
   7125.67  3.9497848E-01
   7126.00  4.2702099E-01
   7126.33  4.6274999E-01
   7126.67  4.9200857E-01
   7127.00  5.1620206E-01
   7127.33  5.4651436E-01
   7127.67  5.8726939E-01
   7128.00  6.4002473E-01
   7128.33  7.0712236E-01
   7128.67  7.8379265E-01
   7129.00  8.6344672E-01
   7129.33  9.3567741E-01
   7129.67  9.9211842E-01
   7130.00  1.0255964E+00
   7130.33  1.0262279E+00
   7130.67  9.9747907E-01
   7131.00  9.4618367E-01
   7131.33  8.8404785E-01
   7131.67  8.2415541E-01
   7132.00  7.7308700E-01
   7132.33  7.3587986E-01
   7132.67  7.1121240E-01
   7133.00  6.9750872E-01
   7133.33  6.9255139E-01
   7133.67  6.9165197E-01
   7134.00  6.9246835E-01
   7134.33  6.9476017E-01
   7134.67  6.9952129E-01
   7135.00  7.0709261E-01
   7135.33  7.1694062E-01
   7135.67  7.2818278E-01
   7136.00  7.4091869E-01
   7136.33  7.5570060E-01
   7136.67  7.7218815E-01
   7137.00  7.8964978E-01
   7137.33  8.0632320E-01
   7137.67  8.1990471E-01
   7138.00  8.2816238E-01
   7138.33  8.2819298E-01
   7138.67  8.2044625E-01
   7139.00  8.0599280E-01
   7139.33  7.8669343E-01
   7139.67  7.6568648E-01
   7140.00  7.4472025E-01
   7140.33  7.2517473E-01
   7140.67  7.0736468E-01
   7141.00  6.9129896E-01
   7141.33  6.7692784E-01
   7141.67  6.6371504E-01
   7142.00  6.5136034E-01
   7142.33  6.3964638E-01
   7142.67  6.2830152E-01
   7143.00  6.1721709E-01
   7143.33  6.0634355E-01
   7143.67  5.9561841E-01
   7144.00  5.8501668E-01
   7144.33  5.7451404E-01
   7144.67  5.6405527E-01
   7145.00  5.5360255E-01
   7145.33  5.4312381E-01
   7145.67  5.3262579E-01
   7146.00  5.2214626E-01
   7146.33  5.1177921E-01
   7146.67  5.0162250E-01
   7147.00  4.9178112E-01
   7147.33  4.8242675E-01
   7147.67  4.7360243E-01
   7148.00  4.6536505E-01
   7148.33  4.5781856E-01
   7148.67  4.5086641E-01
   7149.00  4.4444814E-01
   7149.33  4.3848356E-01
   7149.67  4.3275071E-01
   7150.00  4.2709462E-01
   7150.33  4.2133586E-01
   7150.67  4.1535671E-01
   7151.00  4.0909357E-01
   7151.33  4.0249308E-01
   7151.67  3.9562470E-01
   7152.00  3.8853993E-01
   7152.33  3.8128978E-01
   7152.67  3.7395475E-01
   7153.00  3.6657872E-01
   7153.33  3.5920763E-01
   7153.67  3.5188947E-01
   7154.00  3.4467133E-01
   7154.33  3.3762648E-01
   7154.67  3.3077600E-01
   7155.00  3.2413450E-01
   7155.33  3.1771117E-01
   7155.67  3.1143559E-01
   7156.00  3.0525487E-01
   7156.33  2.9911668E-01
   7156.67  2.9298582E-01
   7157.00  2.8686947E-01
   7157.33  2.8082565E-01
   7157.67  2.7493289E-01
   7158.00  2.6928212E-01
   7158.33  2.6402258E-01
   7158.67  2.5919850E-01
   7159.00  2.5486201E-01
   7159.33  2.5110986E-01
   7159.67  2.4788416E-01
   7160.00  2.4518015E-01
   7160.33  2.4305428E-01
   7160.67  2.4144220E-01
   7161.00  2.4035981E-01
   7161.33  2.3992458E-01
   7161.67  2.4013719E-01
   7162.00  2.4107488E-01
   7162.33  2.4292875E-01
   7162.67  2.4568508E-01
   7163.00  2.4944429E-01
   7163.33  2.5447065E-01
   7163.67  2.6073305E-01
   7164.00  2.6831069E-01
   7164.33  2.7745014E-01
   7164.67  2.8802653E-01
   7165.00  3.0005892E-01
   7165.33  3.1372152E-01
   7165.67  3.2879014E-01
   7166.00  3.4519457E-01
   7166.33  3.6296192E-01
   7166.67  3.8176436E-01
   7167.00  4.0140430E-01
   7167.33  4.2166438E-01
   7167.67  4.4212476E-01
   7168.00  4.6242945E-01
   7168.33  4.8203785E-01
   7168.67  5.0054530E-01
   7169.00  5.1755346E-01
   7169.33  5.3241833E-01
   7169.67  5.4507577E-01
   7170.00  5.5537744E-01
   7170.33  5.6300429E-01
   7170.67  5.6839636E-01
   7171.00  5.7179857E-01
   7171.33  5.7342940E-01
   7171.67  5.7404038E-01
   7172.00  5.7420578E-01
