    FDMNES
    energy     <xanes>
   7097.00  5.2129138E-03
   7097.33  5.3362223E-03
   7097.67  5.4651059E-03
   7098.00  5.5999376E-03
   7098.33  5.7419998E-03
   7098.67  5.8910216E-03
   7099.00  6.0475081E-03
   7099.33  6.2131279E-03
   7099.67  6.3875997E-03
   7100.00  6.5716245E-03
   7100.33  6.7674276E-03
   7100.67  6.9747383E-03
   7101.00  7.1945594E-03
   7101.33  7.4299445E-03
   7101.67  7.6806830E-03
   7102.00  7.9482592E-03
   7102.33  8.2370116E-03
   7102.67  8.5468975E-03
   7103.00  8.8802077E-03
   7103.33  9.2433718E-03
   7103.67  9.6367596E-03
   7104.00  1.0064092E-02
   7104.33  1.0535414E-02
   7104.67  1.1052083E-02
   7105.00  1.1620550E-02
   7105.33  1.2257599E-02
   7105.67  1.2967048E-02
   7106.00  1.3761063E-02
   7106.33  1.4670339E-02
   7106.67  1.5705313E-02
   7107.00  1.6891768E-02
   7107.33  1.8293408E-02
   7107.67  1.9941181E-02
   7108.00  2.1899845E-02
   7108.33  2.4329489E-02
   7108.67  2.7340976E-02
   7109.00  3.1147548E-02
   7109.33  3.6301955E-02
   7109.67  4.3370986E-02
   7110.00  5.3458542E-02
   7110.33  6.9685112E-02
   7110.67  9.5386687E-02
   7111.00  1.3248613E-01
   7111.33  1.7736759E-01
   7111.67  2.2381941E-01
   7112.00  2.6741016E-01
   7112.33  3.0685270E-01
   7112.67  3.3012213E-01
   7113.00  3.3488795E-01
   7113.33  3.4704216E-01
   7113.67  3.8722860E-01
   7114.00  4.5441081E-01
   7114.33  5.0734859E-01
   7114.67  4.9742292E-01
   7115.00  4.3303242E-01
   7115.33  3.5994205E-01
   7115.67  3.0371029E-01
   7116.00  2.6652041E-01
   7116.33  2.4551115E-01
   7116.67  2.3135404E-01
   7117.00  2.1637407E-01
   7117.33  1.9562099E-01
   7117.67  1.7480288E-01
   7118.00  1.5955895E-01
   7118.33  1.5322502E-01
   7118.67  1.5397566E-01
   7119.00  1.5932672E-01
   7119.33  1.6529954E-01
   7119.67  1.6923987E-01
   7120.00  1.7077887E-01
   7120.33  1.7007000E-01
   7120.67  1.6819612E-01
   7121.00  1.6597835E-01
   7121.33  1.6369560E-01
   7121.67  1.6109326E-01
   7122.00  1.5834622E-01
   7122.33  1.5653914E-01
   7122.67  1.5657881E-01
   7123.00  1.5895250E-01
   7123.33  1.6434692E-01
   7123.67  1.7279546E-01
   7124.00  1.8452636E-01
   7124.33  1.9982721E-01
   7124.67  2.1780300E-01
   7125.00  2.3797951E-01
   7125.33  2.6038930E-01
   7125.67  2.8513663E-01
   7126.00  3.1287751E-01
   7126.33  3.4476478E-01
   7126.67  3.8016227E-01
   7127.00  4.1767143E-01
   7127.33  4.5429029E-01
   7127.67  4.8738014E-01
   7128.00  5.1626573E-01
   7128.33  5.4168222E-01
   7128.67  5.6587686E-01
   7129.00  5.9043852E-01
   7129.33  6.1676742E-01
   7129.67  6.4472301E-01
   7130.00  6.7347968E-01
   7130.33  7.0087874E-01
   7130.67  7.2442379E-01
   7131.00  7.4236874E-01
   7131.33  7.5377193E-01
   7131.67  7.6094481E-01
   7132.00  7.6569109E-01
   7132.33  7.6941590E-01
   7132.67  7.7284158E-01
   7133.00  7.7601333E-01
   7133.33  7.7879016E-01
   7133.67  7.8111795E-01
   7134.00  7.8283429E-01
   7134.33  7.8337595E-01
   7134.67  7.8216276E-01
   7135.00  7.7844868E-01
   7135.33  7.7093154E-01
   7135.67  7.5932556E-01
   7136.00  7.4332274E-01
   7136.33  7.2255380E-01
   7136.67  6.9834723E-01
   7137.00  6.7185070E-01
   7137.33  6.4463071E-01
   7137.67  6.1843592E-01
   7138.00  5.9450122E-01
   7138.33  5.7425037E-01
   7138.67  5.5775124E-01
   7139.00  5.4502696E-01
   7139.33  5.3624454E-01
   7139.67  5.3056830E-01
   7140.00  5.2768089E-01
   7140.33  5.2762087E-01
   7140.67  5.2988762E-01
   7141.00  5.3435125E-01
   7141.33  5.4109730E-01
   7141.67  5.4965048E-01
   7142.00  5.5976211E-01
   7142.33  5.7121158E-01
   7142.67  5.8338203E-01
   7143.00  5.9578145E-01
   7143.33  6.0766903E-01
   7143.67  6.1830785E-01
   7144.00  6.2697128E-01
   7144.33  6.3253441E-01
   7144.67  6.3477746E-01
   7145.00  6.3348065E-01
   7145.33  6.2830989E-01
   7145.67  6.2013920E-01
   7146.00  6.0955834E-01
   7146.33  5.9719048E-01
   7146.67  5.8408336E-01
   7147.00  5.7090425E-01
   7147.33  5.5835542E-01
   7147.67  5.4680367E-01
   7148.00  5.3646493E-01
   7148.33  5.2759438E-01
   7148.67  5.1999381E-01
   7149.00  5.1356996E-01
   7149.33  5.0830933E-01
   7149.67  5.0393663E-01
   7150.00  5.0033926E-01
   7150.33  4.9749398E-01
   7150.67  4.9524297E-01
   7151.00  4.9354505E-01
   7151.33  4.9243454E-01
   7151.67  4.9183165E-01
   7152.00  4.9173298E-01
   7152.33  4.9219954E-01
   7152.67  4.9316418E-01
   7153.00  4.9461903E-01
   7153.33  4.9660803E-01
   7153.67  4.9904711E-01
   7154.00  5.0190535E-01
   7154.33  5.0518054E-01
   7154.67  5.0876365E-01
   7155.00  5.1258979E-01
   7155.33  5.1659341E-01
   7155.67  5.2066500E-01
   7156.00  5.2472961E-01
   7156.33  5.2869866E-01
   7156.67  5.3252103E-01
   7157.00  5.3615995E-01
   7157.33  5.3956732E-01
   7157.67  5.4276616E-01
   7158.00  5.4576542E-01
   7158.33  5.4855791E-01
   7158.67  5.5118119E-01
   7159.00  5.5364303E-01
   7159.33  5.5592358E-01
   7159.67  5.5803198E-01
   7160.00  5.5994772E-01
   7160.33  5.6160393E-01
   7160.67  5.6298728E-01
   7161.00  5.6406241E-01
   7161.33  5.6474416E-01
   7161.67  5.6503586E-01
   7162.00  5.6490603E-01
   7162.33  5.6426808E-01
   7162.67  5.6315886E-01
   7163.00  5.6157234E-01
   7163.33  5.5945568E-01
   7163.67  5.5688247E-01
   7164.00  5.5387102E-01
   7164.33  5.5041186E-01
   7164.67  5.4660786E-01
   7165.00  5.4250724E-01
   7165.33  5.3813679E-01
   7165.67  5.3358131E-01
   7166.00  5.2888419E-01
   7166.33  5.2407921E-01
   7166.67  5.1921915E-01
   7167.00  5.1433408E-01
   7167.33  5.0945348E-01
   7167.67  5.0460203E-01
   7168.00  4.9979966E-01
   7168.33  4.9507636E-01
   7168.67  4.9044357E-01
   7169.00  4.8592096E-01
   7169.33  4.8154861E-01
   7169.67  4.7732770E-01
   7170.00  4.7327377E-01
   7170.33  4.6943258E-01
   7170.67  4.6580837E-01
   7171.00  4.6243341E-01
   7171.33  4.5940264E-01
   7171.67  4.5677314E-01
   7172.00  4.5466144E-01
