    FDMNES
    energy     <xanes>
   7097.00  3.9975019E-03
   7097.33  4.0780848E-03
   7097.67  4.1618521E-03
   7098.00  4.2490065E-03
   7098.33  4.3402652E-03
   7098.67  4.4354635E-03
   7099.00  4.5348783E-03
   7099.33  4.6394422E-03
   7099.67  4.7489892E-03
   7100.00  4.8639103E-03
   7100.33  4.9854551E-03
   7100.67  5.1134747E-03
   7101.00  5.2485405E-03
   7101.33  5.3923905E-03
   7101.67  5.5449322E-03
   7102.00  5.7070388E-03
   7102.33  5.8812369E-03
   7102.67  6.0675801E-03
   7103.00  6.2674748E-03
   7103.33  6.4848004E-03
   7103.67  6.7199664E-03
   7104.00  6.9753875E-03
   7104.33  7.2574409E-03
   7104.67  7.5674134E-03
   7105.00  7.9097983E-03
   7105.33  8.2960309E-03
   7105.67  8.7296932E-03
   7106.00  9.2200670E-03
   7106.33  9.7901422E-03
   7106.67  1.0450187E-02
   7107.00  1.1222287E-02
   7107.33  1.2160568E-02
   7107.67  1.3298367E-02
   7108.00  1.4700095E-02
   7108.33  1.6526670E-02
   7108.67  1.8915302E-02
   7109.00  2.2123803E-02
   7109.33  2.6846420E-02
   7109.67  3.3931848E-02
   7110.00  4.5059475E-02
   7110.33  6.5029863E-02
   7110.67  9.7657341E-02
   7111.00  1.3719537E-01
   7111.33  1.5993497E-01
   7111.67  1.7340403E-01
   7112.00  1.8610178E-01
   7112.33  1.8960108E-01
   7112.67  1.7298962E-01
   7113.00  1.3834720E-01
   7113.33  1.0543606E-01
   7113.67  8.2354233E-02
   7114.00  6.8148234E-02
   7114.33  5.9741331E-02
   7114.67  5.2771173E-02
   7115.00  4.6138031E-02
   7115.33  4.0552460E-02
   7115.67  3.6891443E-02
   7116.00  3.4943373E-02
   7116.33  3.4278788E-02
   7116.67  3.4368826E-02
   7117.00  3.5033644E-02
   7117.33  3.6247764E-02
   7117.67  3.7960163E-02
   7118.00  4.0228573E-02
   7118.33  4.3195287E-02
   7118.67  4.6757393E-02
   7119.00  5.0770437E-02
   7119.33  5.4942672E-02
   7119.67  5.8853142E-02
   7120.00  6.2161540E-02
   7120.33  6.4579215E-02
   7120.67  6.6445977E-02
   7121.00  6.8232872E-02
   7121.33  7.0508139E-02
   7121.67  7.3524289E-02
   7122.00  7.7443971E-02
   7122.33  8.2650485E-02
   7122.67  8.9403211E-02
   7123.00  9.8184795E-02
   7123.33  1.1002945E-01
   7123.67  1.2543088E-01
   7124.00  1.4522327E-01
   7124.33  1.7115130E-01
   7124.67  2.0339527E-01
   7125.00  2.4187125E-01
   7125.33  2.8468047E-01
   7125.67  3.2618344E-01
   7126.00  3.6173104E-01
   7126.33  3.8784721E-01
   7126.67  4.0624747E-01
   7127.00  4.1869764E-01
   7127.33  4.2804738E-01
   7127.67  4.4043064E-01
   7128.00  4.6140573E-01
   7128.33  4.9450749E-01
   7128.67  5.3658245E-01
   7129.00  5.8584591E-01
   7129.33  6.4261416E-01
   7129.67  7.0660193E-01
   7130.00  7.7785296E-01
   7130.33  8.5536752E-01
   7130.67  9.3443893E-01
   7131.00  1.0101025E+00
   7131.33  1.0746906E+00
   7131.67  1.1237274E+00
   7132.00  1.1538377E+00
   7132.33  1.1609169E+00
   7132.67  1.1486388E+00
   7133.00  1.1199329E+00
   7133.33  1.0787777E+00
   7133.67  1.0330686E+00
   7134.00  9.8782703E-01
   7134.33  9.4657645E-01
   7134.67  9.0858313E-01
   7135.00  8.7254457E-01
   7135.33  8.3790170E-01
   7135.67  8.0479820E-01
   7136.00  7.7373696E-01
   7136.33  7.4545832E-01
   7136.67  7.1984115E-01
   7137.00  6.9690266E-01
   7137.33  6.7689376E-01
   7137.67  6.5936847E-01
   7138.00  6.4421176E-01
   7138.33  6.3155618E-01
   7138.67  6.2096106E-01
   7139.00  6.1227058E-01
   7139.33  6.0549538E-01
   7139.67  6.0020298E-01
   7140.00  5.9620304E-01
   7140.33  5.9342325E-01
   7140.67  5.9154507E-01
   7141.00  5.9043653E-01
   7141.33  5.9005557E-01
   7141.67  5.9022776E-01
   7142.00  5.9088833E-01
   7142.33  5.9201881E-01
   7142.67  5.9349328E-01
   7143.00  5.9525097E-01
   7143.33  5.9724155E-01
   7143.67  5.9934940E-01
   7144.00  6.0150539E-01
   7144.33  6.0365371E-01
   7144.67  6.0577270E-01
   7145.00  6.0786638E-01
   7145.33  6.0995465E-01
   7145.67  6.1205259E-01
   7146.00  6.1414199E-01
   7146.33  6.1615477E-01
   7146.67  6.1802840E-01
   7147.00  6.1969659E-01
   7147.33  6.2102769E-01
   7147.67  6.2195242E-01
   7148.00  6.2237717E-01
   7148.33  6.2212134E-01
   7148.67  6.2116569E-01
   7149.00  6.1944184E-01
   7149.33  6.1678806E-01
   7149.67  6.1327648E-01
   7150.00  6.0890144E-01
   7150.33  6.0356905E-01
   7150.67  5.9741438E-01
   7151.00  5.9047219E-01
   7151.33  5.8269677E-01
   7151.67  5.7422376E-01
   7152.00  5.6508447E-01
   7152.33  5.5523094E-01
   7152.67  5.4477134E-01
   7153.00  5.3373121E-01
   7153.33  5.2207520E-01
   7153.67  5.0991192E-01
   7154.00  4.9728092E-01
   7154.33  4.8418266E-01
   7154.67  4.7073483E-01
   7155.00  4.5700365E-01
   7155.33  4.4304809E-01
   7155.67  4.2898398E-01
   7156.00  4.1489547E-01
   7156.33  4.0089534E-01
   7156.67  3.8707932E-01
   7157.00  3.7353753E-01
   7157.33  3.6041761E-01
   7157.67  3.4776691E-01
   7158.00  3.3565952E-01
   7158.33  3.2424807E-01
   7158.67  3.1351876E-01
   7159.00  3.0351809E-01
   7159.33  2.9438838E-01
   7159.67  2.8607126E-01
   7160.00  2.7859574E-01
   7160.33  2.7210123E-01
   7160.67  2.6650757E-01
   7161.00  2.6183797E-01
   7161.33  2.5823953E-01
   7161.67  2.5562662E-01
   7162.00  2.5402759E-01
   7162.33  2.5358995E-01
   7162.67  2.5418139E-01
   7163.00  2.5578134E-01
   7163.33  2.5844517E-01
   7163.67  2.6195512E-01
   7164.00  2.6619738E-01
   7164.33  2.7107838E-01
   7164.67  2.7634690E-01
   7165.00  2.8184842E-01
   7165.33  2.8742345E-01
   7165.67  2.9292143E-01
   7166.00  2.9824684E-01
   7166.33  3.0329091E-01
   7166.67  3.0803991E-01
   7167.00  3.1248026E-01
   7167.33  3.1658480E-01
   7167.67  3.2041902E-01
   7168.00  3.2401523E-01
   7168.33  3.2739128E-01
   7168.67  3.3061483E-01
   7169.00  3.3372091E-01
   7169.33  3.3673605E-01
   7169.67  3.3970099E-01
   7170.00  3.4263565E-01
   7170.33  3.4555127E-01
   7170.67  3.4844809E-01
   7171.00  3.5130579E-01
   7171.33  3.5404986E-01
   7171.67  3.5655738E-01
   7172.00  3.5863813E-01
