    FDMNES
    energy     <xanes>
   7097.00  4.6929851E-03
   7097.33  4.8032123E-03
   7097.67  4.9184965E-03
   7098.00  5.0391930E-03
   7098.33  5.1664960E-03
   7098.67  5.3001869E-03
   7099.00  5.4407585E-03
   7099.33  5.5897952E-03
   7099.67  5.7470855E-03
   7100.00  5.9133335E-03
   7100.33  6.0907051E-03
   7100.67  6.2790307E-03
   7101.00  6.4793525E-03
   7101.33  6.6947389E-03
   7101.67  6.9251386E-03
   7102.00  7.1721607E-03
   7102.33  7.4403424E-03
   7102.67  7.7299219E-03
   7103.00  8.0435118E-03
   7103.33  8.3881831E-03
   7103.67  8.7648604E-03
   7104.00  9.1780568E-03
   7104.33  9.6395356E-03
   7104.67  1.0151889E-02
   7105.00  1.0723545E-02
   7105.33  1.1375771E-02
   7105.67  1.2115478E-02
   7106.00  1.2960077E-02
   7106.33  1.3952476E-02
   7106.67  1.5112032E-02
   7107.00  1.6479969E-02
   7107.33  1.8156985E-02
   7107.67  2.0204673E-02
   7108.00  2.2741665E-02
   7108.33  2.6062927E-02
   7108.67  3.0414809E-02
   7109.00  3.6257849E-02
   7109.33  4.4818515E-02
   7109.67  5.7547307E-02
   7110.00  7.7293059E-02
   7110.33  1.1229288E-01
   7110.67  1.7113791E-01
   7111.00  2.5447322E-01
   7111.33  3.3588584E-01
   7111.67  3.8317524E-01
   7112.00  3.7118264E-01
   7112.33  3.1533332E-01
   7112.67  2.4949071E-01
   7113.00  1.9690204E-01
   7113.33  1.6409507E-01
   7113.67  1.4004031E-01
   7114.00  1.2515963E-01
   7114.33  1.2222627E-01
   7114.67  1.2586535E-01
   7115.00  1.2675830E-01
   7115.33  1.1433578E-01
   7115.67  9.5436276E-02
   7116.00  7.8589034E-02
   7116.33  6.7836591E-02
   7116.67  6.1561178E-02
   7117.00  5.8622394E-02
   7117.33  5.8458570E-02
   7117.67  6.0295545E-02
   7118.00  6.4002259E-02
   7118.33  7.0022154E-02
   7118.67  7.8321313E-02
   7119.00  8.8129660E-02
   7119.33  9.6215981E-02
   7119.67  1.0056217E-01
   7120.00  1.0224570E-01
   7120.33  1.0281120E-01
   7120.67  1.0368921E-01
   7121.00  1.0634253E-01
   7121.33  1.1255293E-01
   7121.67  1.2262241E-01
   7122.00  1.3686882E-01
   7122.33  1.5608857E-01
   7122.67  1.7987644E-01
   7123.00  2.0844375E-01
   7123.33  2.4245395E-01
   7123.67  2.8020399E-01
   7124.00  3.2047446E-01
   7124.33  3.6462097E-01
   7124.67  4.1352757E-01
   7125.00  4.6492575E-01
   7125.33  5.1365100E-01
   7125.67  5.5829283E-01
   7126.00  6.0087845E-01
   7126.33  6.4297915E-01
   7126.67  6.8166351E-01
   7127.00  7.1145949E-01
   7127.33  7.2540503E-01
   7127.67  7.2551092E-01
   7128.00  7.1635781E-01
   7128.33  7.0515529E-01
   7128.67  6.9861032E-01
   7129.00  6.9972863E-01
   7129.33  7.0971590E-01
   7129.67  7.2551350E-01
   7130.00  7.4450625E-01
   7130.33  7.6298770E-01
   7130.67  7.7687383E-01
   7131.00  7.8278693E-01
   7131.33  7.7703514E-01
   7131.67  7.6178368E-01
   7132.00  7.4076262E-01
   7132.33  7.1987878E-01
   7132.67  7.0381905E-01
   7133.00  6.9449793E-01
   7133.33  6.9275490E-01
   7133.67  6.9629256E-01
   7134.00  7.0341346E-01
   7134.33  7.1227276E-01
   7134.67  7.2072470E-01
   7135.00  7.2731154E-01
   7135.33  7.3037235E-01
   7135.67  7.2959908E-01
   7136.00  7.2507243E-01
   7136.33  7.1747208E-01
   7136.67  7.0867161E-01
   7137.00  6.9977869E-01
   7137.33  6.9144111E-01
   7137.67  6.8342039E-01
   7138.00  6.7517415E-01
   7138.33  6.6584269E-01
   7138.67  6.5499038E-01
   7139.00  6.4244713E-01
   7139.33  6.2827269E-01
   7139.67  6.1327645E-01
   7140.00  5.9814001E-01
   7140.33  5.8367650E-01
   7140.67  5.7038778E-01
   7141.00  5.5861419E-01
   7141.33  5.4869617E-01
   7141.67  5.4041124E-01
   7142.00  5.3374325E-01
   7142.33  5.2891037E-01
   7142.67  5.2573516E-01
   7143.00  5.2420821E-01
   7143.33  5.2441814E-01
   7143.67  5.2593426E-01
   7144.00  5.2845192E-01
   7144.33  5.3161742E-01
   7144.67  5.3492172E-01
   7145.00  5.3802378E-01
   7145.33  5.4054486E-01
   7145.67  5.4233422E-01
   7146.00  5.4324542E-01
   7146.33  5.4299885E-01
   7146.67  5.4161180E-01
   7147.00  5.3904772E-01
   7147.33  5.3522682E-01
   7147.67  5.3047961E-01
   7148.00  5.2507258E-01
   7148.33  5.1937114E-01
   7148.67  5.1383882E-01
   7149.00  5.0880977E-01
   7149.33  5.0466072E-01
   7149.67  5.0141888E-01
   7150.00  4.9906934E-01
   7150.33  4.9756728E-01
   7150.67  4.9659469E-01
   7151.00  4.9594022E-01
   7151.33  4.9539021E-01
   7151.67  4.9475636E-01
   7152.00  4.9393441E-01
   7152.33  4.9282362E-01
   7152.67  4.9143335E-01
   7153.00  4.8976910E-01
   7153.33  4.8782260E-01
   7153.67  4.8565455E-01
   7154.00  4.8328573E-01
   7154.33  4.8069937E-01
   7154.67  4.7790631E-01
   7155.00  4.7488125E-01
   7155.33  4.7153729E-01
   7155.67  4.6784045E-01
   7156.00  4.6372065E-01
   7156.33  4.5901962E-01
   7156.67  4.5369950E-01
   7157.00  4.4767002E-01
   7157.33  4.4072896E-01
   7157.67  4.3289443E-01
   7158.00  4.2412260E-01
   7158.33  4.1429440E-01
   7158.67  4.0359407E-01
   7159.00  3.9213809E-01
   7159.33  3.8005624E-01
   7159.67  3.6767043E-01
   7160.00  3.5521911E-01
   7160.33  3.4299942E-01
   7160.67  3.3122395E-01
   7161.00  3.2006153E-01
   7161.33  3.0976065E-01
   7161.67  3.0033540E-01
   7162.00  2.9185289E-01
   7162.33  2.8449250E-01
   7162.67  2.7816503E-01
   7163.00  2.7288790E-01
   7163.33  2.6879793E-01
   7163.67  2.6575373E-01
   7164.00  2.6373524E-01
   7164.33  2.6282791E-01
   7164.67  2.6285290E-01
   7165.00  2.6375126E-01
   7165.33  2.6554693E-01
   7165.67  2.6806256E-01
   7166.00  2.7123336E-01
   7166.33  2.7506171E-01
   7166.67  2.7940985E-01
   7167.00  2.8422676E-01
   7167.33  2.8950892E-01
   7167.67  2.9515182E-01
   7168.00  3.0111028E-01
   7168.33  3.0736351E-01
   7168.67  3.1382330E-01
   7169.00  3.2044020E-01
   7169.33  3.2716665E-01
   7169.67  3.3392743E-01
   7170.00  3.4066475E-01
   7170.33  3.4729487E-01
   7170.67  3.5374856E-01
   7171.00  3.5993934E-01
   7171.33  3.6567013E-01
   7171.67  3.7074655E-01
   7172.00  3.7485858E-01
