    FDMNES
    energy     <xanes>
   7097.00  4.5312834E-03
   7097.33  4.6300325E-03
   7097.67  4.7329196E-03
   7098.00  4.8402112E-03
   7098.33  4.9528433E-03
   7098.67  5.0706036E-03
   7099.00  5.1938535E-03
   7099.33  5.3238070E-03
   7099.67  5.4602458E-03
   7100.00  5.6036750E-03
   7100.33  5.7557126E-03
   7100.67  5.9161541E-03
   7101.00  6.0857290E-03
   7101.33  6.2666673E-03
   7101.67  6.4588223E-03
   7102.00  6.6632911E-03
   7102.33  6.8832756E-03
   7102.67  7.1187856E-03
   7103.00  7.3715556E-03
   7103.33  7.6464207E-03
   7103.67  7.9437790E-03
   7104.00  8.2665458E-03
   7104.33  8.6225050E-03
   7104.67  9.0130139E-03
   7105.00  9.4433697E-03
   7105.33  9.9271863E-03
   7105.67  1.0468318E-02
   7106.00  1.1077427E-02
   7106.33  1.1781115E-02
   7106.67  1.2590437E-02
   7107.00  1.3530073E-02
   7107.33  1.4660726E-02
   7107.67  1.6017932E-02
   7108.00  1.7671605E-02
   7108.33  1.9796235E-02
   7108.67  2.2535366E-02
   7109.00  2.6159827E-02
   7109.33  3.1394230E-02
   7109.67  3.9100931E-02
   7110.00  5.0985500E-02
   7110.33  7.2015174E-02
   7110.67  1.0737567E-01
   7111.00  1.5636716E-01
   7111.33  1.9135997E-01
   7111.67  1.9087854E-01
   7112.00  1.6992074E-01
   7112.33  1.6212917E-01
   7112.67  1.7937523E-01
   7113.00  2.1808633E-01
   7113.33  2.4658886E-01
   7113.67  2.3188945E-01
   7114.00  1.8529664E-01
   7114.33  1.3996093E-01
   7114.67  1.0813732E-01
   7115.00  8.8034722E-02
   7115.33  7.6773757E-02
   7115.67  7.0891138E-02
   7116.00  6.9326286E-02
   7116.33  7.2113454E-02
   7116.67  7.8800548E-02
   7117.00  8.9469916E-02
   7117.33  1.0410662E-01
   7117.67  1.2066874E-01
   7118.00  1.3710692E-01
   7118.33  1.5142154E-01
   7118.67  1.6380437E-01
   7119.00  1.7521118E-01
   7119.33  1.8687162E-01
   7119.67  1.9943171E-01
   7120.00  2.1307414E-01
   7120.33  2.2826862E-01
   7120.67  2.4545335E-01
   7121.00  2.6475318E-01
   7121.33  2.8475782E-01
   7121.67  3.0199180E-01
   7122.00  3.1306767E-01
   7122.33  3.1517761E-01
   7122.67  3.1204864E-01
   7123.00  3.0848149E-01
   7123.33  3.0923845E-01
   7123.67  3.1534014E-01
   7124.00  3.2694526E-01
   7124.33  3.4422642E-01
   7124.67  3.6441460E-01
   7125.00  3.8390428E-01
   7125.33  3.9835000E-01
   7125.67  4.0730520E-01
   7126.00  4.1139541E-01
   7126.33  4.1099737E-01
   7126.67  4.0791878E-01
   7127.00  4.0535525E-01
   7127.33  4.1020113E-01
   7127.67  4.2596226E-01
   7128.00  4.5290278E-01
   7128.33  4.8960974E-01
   7128.67  5.3139800E-01
   7129.00  5.7553389E-01
   7129.33  6.2014933E-01
   7129.67  6.6447380E-01
   7130.00  7.0818084E-01
   7130.33  7.5002133E-01
   7130.67  7.8763272E-01
   7131.00  8.1749897E-01
   7131.33  8.3375349E-01
   7131.67  8.3545381E-01
   7132.00  8.2328231E-01
   7132.33  8.0035569E-01
   7132.67  7.7469761E-01
   7133.00  7.5207191E-01
   7133.33  7.3734512E-01
   7133.67  7.2987299E-01
   7134.00  7.2780775E-01
   7134.33  7.2865342E-01
   7134.67  7.2946152E-01
   7135.00  7.2830925E-01
   7135.33  7.2313788E-01
   7135.67  7.1384185E-01
   7136.00  7.0083029E-01
   7136.33  6.8495938E-01
   7136.67  6.6803823E-01
   7137.00  6.5130580E-01
   7137.33  6.3610187E-01
   7137.67  6.2304438E-01
   7138.00  6.1251588E-01
   7138.33  6.0502416E-01
   7138.67  6.0017980E-01
   7139.00  5.9780280E-01
   7139.33  5.9781350E-01
   7139.67  5.9946618E-01
   7140.00  6.0225765E-01
   7140.33  6.0562157E-01
   7140.67  6.0889992E-01
   7141.00  6.1167350E-01
   7141.33  6.1354371E-01
   7141.67  6.1451913E-01
   7142.00  6.1464055E-01
   7142.33  6.1393170E-01
   7142.67  6.1260553E-01
   7143.00  6.1073245E-01
   7143.33  6.0827704E-01
   7143.67  6.0528819E-01
   7144.00  6.0173770E-01
   7144.33  5.9753586E-01
   7144.67  5.9278612E-01
   7145.00  5.8757097E-01
   7145.33  5.8201624E-01
   7145.67  5.7637627E-01
   7146.00  5.7085083E-01
   7146.33  5.6569178E-01
   7146.67  5.6101455E-01
   7147.00  5.5689362E-01
   7147.33  5.5341472E-01
   7147.67  5.5045348E-01
   7148.00  5.4792055E-01
   7148.33  5.4571171E-01
   7148.67  5.4363484E-01
   7149.00  5.4155930E-01
   7149.33  5.3933216E-01
   7149.67  5.3685088E-01
   7150.00  5.3402476E-01
   7150.33  5.3070748E-01
   7150.67  5.2687769E-01
   7151.00  5.2248189E-01
   7151.33  5.1739165E-01
   7151.67  5.1164258E-01
   7152.00  5.0520585E-01
   7152.33  4.9796841E-01
   7152.67  4.9000695E-01
   7153.00  4.8132204E-01
   7153.33  4.7184344E-01
   7153.67  4.6170291E-01
   7154.00  4.5096426E-01
   7154.33  4.3967119E-01
   7154.67  4.2802099E-01
   7155.00  4.1614965E-01
   7155.33  4.0422432E-01
   7155.67  3.9243229E-01
   7156.00  3.8092975E-01
   7156.33  3.6995018E-01
   7156.67  3.5959849E-01
   7157.00  3.5000352E-01
   7157.33  3.4141534E-01
   7157.67  3.3384064E-01
   7158.00  3.2735701E-01
   7158.33  3.2216518E-01
   7158.67  3.1814156E-01
   7159.00  3.1527294E-01
   7159.33  3.1364825E-01
   7159.67  3.1304818E-01
   7160.00  3.1338463E-01
   7160.33  3.1464752E-01
   7160.67  3.1662175E-01
   7161.00  3.1921858E-01
   7161.33  3.2240983E-01
   7161.67  3.2604923E-01
   7162.00  3.3007620E-01
   7162.33  3.3445455E-01
   7162.67  3.3907031E-01
   7163.00  3.4386034E-01
   7163.33  3.4876051E-01
   7163.67  3.5368073E-01
   7164.00  3.5855499E-01
   7164.33  3.6329523E-01
   7164.67  3.6784988E-01
   7165.00  3.7216885E-01
   7165.33  3.7616850E-01
   7165.67  3.7984853E-01
   7166.00  3.8318899E-01
   7166.33  3.8613631E-01
   7166.67  3.8874026E-01
   7167.00  3.9101965E-01
   7167.33  3.9297470E-01
   7167.67  3.9468941E-01
   7168.00  3.9621125E-01
   7168.33  3.9758236E-01
   7168.67  3.9887768E-01
   7169.00  4.0014325E-01
   7169.33  4.0142724E-01
   7169.67  4.0276337E-01
   7170.00  4.0417290E-01
   7170.33  4.0567912E-01
   7170.67  4.0726814E-01
   7171.00  4.0892070E-01
   7171.33  4.1058554E-01
   7171.67  4.1215430E-01
   7172.00  4.1348152E-01
