    FDMNES
    energy     <xanes>
   7097.00  4.9875589E-03
   7097.33  5.1053265E-03
   7097.67  5.2285307E-03
   7098.00  5.3575505E-03
   7098.33  5.4936636E-03
   7098.67  5.6366291E-03
   7099.00  5.7869687E-03
   7099.33  5.9463689E-03
   7099.67  6.1145904E-03
   7100.00  6.2923720E-03
   7100.33  6.4820025E-03
   7100.67  6.6832757E-03
   7101.00  6.8972728E-03
   7101.33  7.1272042E-03
   7101.67  7.3729667E-03
   7102.00  7.6362056E-03
   7102.33  7.9216066E-03
   7102.67  8.2293246E-03
   7103.00  8.5619847E-03
   7103.33  8.9267676E-03
   7103.67  9.3244428E-03
   7104.00  9.7594511E-03
   7104.33  1.0243488E-02
   7104.67  1.0778806E-02
   7105.00  1.1373498E-02
   7105.33  1.2048164E-02
   7105.67  1.2808859E-02
   7106.00  1.3671825E-02
   7106.33  1.4677365E-02
   7106.67  1.5842312E-02
   7107.00  1.7203931E-02
   7107.33  1.8853561E-02
   7107.67  2.0844023E-02
   7108.00  2.3279159E-02
   7108.33  2.6417211E-02
   7108.67  3.0466465E-02
   7109.00  3.5819642E-02
   7109.33  4.3521954E-02
   7109.67  5.4794225E-02
   7110.00  7.2041661E-02
   7110.33  1.0217953E-01
   7110.67  1.5183568E-01
   7111.00  2.1839272E-01
   7111.33  2.7172689E-01
   7111.67  3.0339640E-01
   7112.00  3.2068416E-01
   7112.33  3.2173013E-01
   7112.67  3.1058088E-01
   7113.00  3.0774543E-01
   7113.33  3.2955345E-01
   7113.67  3.5068229E-01
   7114.00  3.4173451E-01
   7114.33  2.9665995E-01
   7114.67  2.4649093E-01
   7115.00  2.0636881E-01
   7115.33  1.8068785E-01
   7115.67  1.6474371E-01
   7116.00  1.5469781E-01
   7116.33  1.4587125E-01
   7116.67  1.3540385E-01
   7117.00  1.2424197E-01
   7117.33  1.1510779E-01
   7117.67  1.0889112E-01
   7118.00  1.0542129E-01
   7118.33  1.0430586E-01
   7118.67  1.0456235E-01
   7119.00  1.0565196E-01
   7119.33  1.0721734E-01
   7119.67  1.0919757E-01
   7120.00  1.1185267E-01
   7120.33  1.1530634E-01
   7120.67  1.1896739E-01
   7121.00  1.2258401E-01
   7121.33  1.2658717E-01
   7121.67  1.3156248E-01
   7122.00  1.3792252E-01
   7122.33  1.4621114E-01
   7122.67  1.5632363E-01
   7123.00  1.6822214E-01
   7123.33  1.8224748E-01
   7123.67  1.9837515E-01
   7124.00  2.1660526E-01
   7124.33  2.3683633E-01
   7124.67  2.5810513E-01
   7125.00  2.7923869E-01
   7125.33  2.9848223E-01
   7125.67  3.1609321E-01
   7126.00  3.3389584E-01
   7126.33  3.5465171E-01
   7126.67  3.7935918E-01
   7127.00  4.0810994E-01
   7127.33  4.4032062E-01
   7127.67  4.7335432E-01
   7128.00  5.0436180E-01
   7128.33  5.2981423E-01
   7128.67  5.5040833E-01
   7129.00  5.6932622E-01
   7129.33  5.9195081E-01
   7129.67  6.2068477E-01
   7130.00  6.5507892E-01
   7130.33  6.9251877E-01
   7130.67  7.2913763E-01
   7131.00  7.6306176E-01
   7131.33  7.9387617E-01
   7131.67  8.2331240E-01
   7132.00  8.5260489E-01
   7132.33  8.8232650E-01
   7132.67  9.1153791E-01
   7133.00  9.3853541E-01
   7133.33  9.6071422E-01
   7133.67  9.7725601E-01
   7134.00  9.8729520E-01
   7134.33  9.8805682E-01
   7134.67  9.7779295E-01
   7135.00  9.5475257E-01
   7135.33  9.1885499E-01
   7135.67  8.7639964E-01
   7136.00  8.3213413E-01
   7136.33  7.9039439E-01
   7136.67  7.5304020E-01
   7137.00  7.2075784E-01
   7137.33  6.9413823E-01
   7137.67  6.7197245E-01
   7138.00  6.5352519E-01
   7138.33  6.3816688E-01
   7138.67  6.2458958E-01
   7139.00  6.1204983E-01
   7139.33  5.9986695E-01
   7139.67  5.8748606E-01
   7140.00  5.7466845E-01
   7140.33  5.6134071E-01
   7140.67  5.4782095E-01
   7141.00  5.3451681E-01
   7141.33  5.2211844E-01
   7141.67  5.1111929E-01
   7142.00  5.0196052E-01
   7142.33  4.9531284E-01
   7142.67  4.9113712E-01
   7143.00  4.8949520E-01
   7143.33  4.9054366E-01
   7143.67  4.9357451E-01
   7144.00  4.9804038E-01
   7144.33  5.0325673E-01
   7144.67  5.0838027E-01
   7145.00  5.1286891E-01
   7145.33  5.1615350E-01
   7145.67  5.1815876E-01
   7146.00  5.1886820E-01
   7146.33  5.1825852E-01
   7146.67  5.1670351E-01
   7147.00  5.1444603E-01
   7147.33  5.1173236E-01
   7147.67  5.0888952E-01
   7148.00  5.0611967E-01
   7148.33  5.0364154E-01
   7148.67  5.0155531E-01
   7149.00  4.9993337E-01
   7149.33  4.9888343E-01
   7149.67  4.9835195E-01
   7150.00  4.9832810E-01
   7150.33  4.9884492E-01
   7150.67  4.9980561E-01
   7151.00  5.0117459E-01
   7151.33  5.0295454E-01
   7151.67  5.0505746E-01
   7152.00  5.0744872E-01
   7152.33  5.1012119E-01
   7152.67  5.1300678E-01
   7153.00  5.1607408E-01
   7153.33  5.1930294E-01
   7153.67  5.2263249E-01
   7154.00  5.2601985E-01
   7154.33  5.2941100E-01
   7154.67  5.3274962E-01
   7155.00  5.3598757E-01
   7155.33  5.3904933E-01
   7155.67  5.4189767E-01
   7156.00  5.4448163E-01
   7156.33  5.4669683E-01
   7156.67  5.4851582E-01
   7157.00  5.4987648E-01
   7157.33  5.5063887E-01
   7157.67  5.5079979E-01
   7158.00  5.5030713E-01
   7158.33  5.4902761E-01
   7158.67  5.4702416E-01
   7159.00  5.4429559E-01
   7159.33  5.4077639E-01
   7159.67  5.3660062E-01
   7160.00  5.3182481E-01
   7160.33  5.2646652E-01
   7160.67  5.2068734E-01
   7161.00  5.1457866E-01
   7161.33  5.0822506E-01
   7161.67  5.0176837E-01
   7162.00  4.9530774E-01
   7162.33  4.8896892E-01
   7162.67  4.8283593E-01
   7163.00  4.7697758E-01
   7163.33  4.7150882E-01
   7163.67  4.6644578E-01
   7164.00  4.6182449E-01
   7164.33  4.5772612E-01
   7164.67  4.5409786E-01
   7165.00  4.5093126E-01
   7165.33  4.4825661E-01
   7165.67  4.4598214E-01
   7166.00  4.4406854E-01
   7166.33  4.4250143E-01
   7166.67  4.4118505E-01
   7167.00  4.4007026E-01
   7167.33  4.3912023E-01
   7167.67  4.3826704E-01
   7168.00  4.3747479E-01
   7168.33  4.3671532E-01
   7168.67  4.3596335E-01
   7169.00  4.3520830E-01
   7169.33  4.3445215E-01
   7169.67  4.3370840E-01
   7170.00  4.3299396E-01
   7170.33  4.3233955E-01
   7170.67  4.3176372E-01
   7171.00  4.3128526E-01
   7171.33  4.3093008E-01
   7171.67  4.3067786E-01
   7172.00  4.3050266E-01
