    FDMNES
    energy     <xanes>
   7097.00  5.2698335E-03
   7097.33  5.4036214E-03
   7097.67  5.5438945E-03
   7098.00  5.6911107E-03
   7098.33  5.8468028E-03
   7098.67  6.0106883E-03
   7099.00  6.1833948E-03
   7099.33  6.3669422E-03
   7099.67  6.5610441E-03
   7100.00  6.7665815E-03
   7100.33  6.9862838E-03
   7100.67  7.2198912E-03
   7101.00  7.4686774E-03
   7101.33  7.7364386E-03
   7101.67  8.0230092E-03
   7102.00  8.3302939E-03
   7102.33  8.6637577E-03
   7102.67  9.0234755E-03
   7103.00  9.4124137E-03
   7103.33  9.8387713E-03
   7103.67  1.0303189E-02
   7104.00  1.0810518E-02
   7104.33  1.1373698E-02
   7104.67  1.1994689E-02
   7105.00  1.2681924E-02
   7105.33  1.3457160E-02
   7105.67  1.4325544E-02
   7106.00  1.5302916E-02
   7106.33  1.6428994E-02
   7106.67  1.7717209E-02
   7107.00  1.9200536E-02
   7107.33  2.0960006E-02
   7107.67  2.3033314E-02
   7108.00  2.5499754E-02
   7108.33  2.8553400E-02
   7108.67  3.2317850E-02
   7109.00  3.7030781E-02
   7109.33  4.3291686E-02
   7109.67  5.1641872E-02
   7110.00  6.3111998E-02
   7110.33  8.0514449E-02
   7110.67  1.0694128E-01
   7111.00  1.4626418E-01
   7111.33  2.0550602E-01
   7111.67  2.9146735E-01
   7112.00  4.0566847E-01
   7112.33  5.3627286E-01
   7112.67  6.5541037E-01
   7113.00  7.2620700E-01
   7113.33  6.8515870E-01
   7113.67  5.7523692E-01
   7114.00  4.5763347E-01
   7114.33  3.6510191E-01
   7114.67  2.9883401E-01
   7115.00  2.5517511E-01
   7115.33  2.3083226E-01
   7115.67  2.1953129E-01
   7116.00  2.1881542E-01
   7116.33  2.2684524E-01
   7116.67  2.3674198E-01
   7117.00  2.3993711E-01
   7117.33  2.2826762E-01
   7117.67  2.0817420E-01
   7118.00  1.8724195E-01
   7118.33  1.6984717E-01
   7118.67  1.5534362E-01
   7119.00  1.4299620E-01
   7119.33  1.3286079E-01
   7119.67  1.2478656E-01
   7120.00  1.1868218E-01
   7120.33  1.1453759E-01
   7120.67  1.1200998E-01
   7121.00  1.1096979E-01
   7121.33  1.1094299E-01
   7121.67  1.1080377E-01
   7122.00  1.1005956E-01
   7122.33  1.0907644E-01
   7122.67  1.0839236E-01
   7123.00  1.0836355E-01
   7123.33  1.0974079E-01
   7123.67  1.1291510E-01
   7124.00  1.1815265E-01
   7124.33  1.2589111E-01
   7124.67  1.3592919E-01
   7125.00  1.4818115E-01
   7125.33  1.6258914E-01
   7125.67  1.7903277E-01
   7126.00  1.9835447E-01
   7126.33  2.2233875E-01
   7126.67  2.5130432E-01
   7127.00  2.8520714E-01
   7127.33  3.2253360E-01
   7127.67  3.5788302E-01
   7128.00  3.8574164E-01
   7128.33  4.0289889E-01
   7128.67  4.1440923E-01
   7129.00  4.2314685E-01
   7129.33  4.2914905E-01
   7129.67  4.3331269E-01
   7130.00  4.3782006E-01
   7130.33  4.4585998E-01
   7130.67  4.5838562E-01
   7131.00  4.7539395E-01
   7131.33  4.9688560E-01
   7131.67  5.2218337E-01
   7132.00  5.5177465E-01
   7132.33  5.8757729E-01
   7132.67  6.3017661E-01
   7133.00  6.7979365E-01
   7133.33  7.3473416E-01
   7133.67  7.8832293E-01
   7134.00  8.3347005E-01
   7134.33  8.6259938E-01
   7134.67  8.7786578E-01
   7135.00  8.8311940E-01
   7135.33  8.8170648E-01
   7135.67  8.7592488E-01
   7136.00  8.6592522E-01
   7136.33  8.5157835E-01
   7136.67  8.3417196E-01
   7137.00  8.1440310E-01
   7137.33  7.9260982E-01
   7137.67  7.6936107E-01
   7138.00  7.4486746E-01
   7138.33  7.1917947E-01
   7138.67  6.9255478E-01
   7139.00  6.6513404E-01
   7139.33  6.3732079E-01
   7139.67  6.1016185E-01
   7140.00  5.8496276E-01
   7140.33  5.6388536E-01
   7140.67  5.4791005E-01
   7141.00  5.3781075E-01
   7141.33  5.3465463E-01
   7141.67  5.3738463E-01
   7142.00  5.4537834E-01
   7142.33  5.5811899E-01
   7142.67  5.7384107E-01
   7143.00  5.9146173E-01
   7143.33  6.0995943E-01
   7143.67  6.2839464E-01
   7144.00  6.4629202E-01
   7144.33  6.6321505E-01
   7144.67  6.7906797E-01
   7145.00  6.9368059E-01
   7145.33  7.0659470E-01
   7145.67  7.1762742E-01
   7146.00  7.2640309E-01
   7146.33  7.3216571E-01
   7146.67  7.3495750E-01
   7147.00  7.3470690E-01
   7147.33  7.3121998E-01
   7147.67  7.2525970E-01
   7148.00  7.1729729E-01
   7148.33  7.0775936E-01
   7148.67  6.9740087E-01
   7149.00  6.8665341E-01
   7149.33  6.7592669E-01
   7149.67  6.6551930E-01
   7150.00  6.5558764E-01
   7150.33  6.4628176E-01
   7150.67  6.3755951E-01
   7151.00  6.2942409E-01
   7151.33  6.2193154E-01
   7151.67  6.1497835E-01
   7152.00  6.0852661E-01
   7152.33  6.0257860E-01
   7152.67  5.9701743E-01
   7153.00  5.9178706E-01
   7153.33  5.8685191E-01
   7153.67  5.8211029E-01
   7154.00  5.7750530E-01
   7154.33  5.7298606E-01
   7154.67  5.6849262E-01
   7155.00  5.6399247E-01
   7155.33  5.5945754E-01
   7155.67  5.5488236E-01
   7156.00  5.5027261E-01
   7156.33  5.4565087E-01
   7156.67  5.4104938E-01
   7157.00  5.3649621E-01
   7157.33  5.3203823E-01
   7157.67  5.2770383E-01
   7158.00  5.2352655E-01
   7158.33  5.1956689E-01
   7158.67  5.1583290E-01
   7159.00  5.1234753E-01
   7159.33  5.0916273E-01
   7159.67  5.0625308E-01
   7160.00  5.0361600E-01
   7160.33  5.0127043E-01
   7160.67  4.9916110E-01
   7161.00  4.9726162E-01
   7161.33  4.9555560E-01
   7161.67  4.9397626E-01
   7162.00  4.9248138E-01
   7162.33  4.9102906E-01
   7162.67  4.8957252E-01
   7163.00  4.8807963E-01
   7163.33  4.8650935E-01
   7163.67  4.8484187E-01
   7164.00  4.8305269E-01
   7164.33  4.8109530E-01
   7164.67  4.7896362E-01
   7165.00  4.7663458E-01
   7165.33  4.7404556E-01
   7165.67  4.7118293E-01
   7166.00  4.6800581E-01
   7166.33  4.6442289E-01
   7166.67  4.6044385E-01
   7167.00  4.5605516E-01
   7167.33  4.5122152E-01
   7167.67  4.4604664E-01
   7168.00  4.4060810E-01
   7168.33  4.3499985E-01
   7168.67  4.2936501E-01
   7169.00  4.2381291E-01
   7169.33  4.1848596E-01
   7169.67  4.1344906E-01
   7170.00  4.0875553E-01
   7170.33  4.0449405E-01
   7170.67  4.0064002E-01
   7171.00  3.9720543E-01
   7171.33  3.9426034E-01
   7171.67  3.9178570E-01
   7172.00  3.8983237E-01
