    FDMNES
    energy     <xanes>
   7097.00  4.8878439E-03
   7097.33  4.9988016E-03
   7097.67  5.1145246E-03
   7098.00  5.2353164E-03
   7098.33  5.3622477E-03
   7098.67  5.4950665E-03
   7099.00  5.6341792E-03
   7099.33  5.7809622E-03
   7099.67  5.9351490E-03
   7100.00  6.0972972E-03
   7100.33  6.2692190E-03
   7100.67  6.4506474E-03
   7101.00  6.6423708E-03
   7101.33  6.8468425E-03
   7101.67  7.0638301E-03
   7102.00  7.2944868E-03
   7102.33  7.5422499E-03
   7102.67  7.8069997E-03
   7103.00  8.0904960E-03
   7103.33  8.3977630E-03
   7103.67  8.7289727E-03
   7104.00  9.0869562E-03
   7104.33  9.4794618E-03
   7104.67  9.9073822E-03
   7105.00  1.0375590E-02
   7105.33  1.0896901E-02
   7105.67  1.1474034E-02
   7106.00  1.2116161E-02
   7106.33  1.2846581E-02
   7106.67  1.3673045E-02
   7107.00  1.4615075E-02
   7107.33  1.5721152E-02
   7107.67  1.7014976E-02
   7108.00  1.8546363E-02
   7108.33  2.0439036E-02
   7108.67  2.2780771E-02
   7109.00  2.5740597E-02
   7109.33  2.9759929E-02
   7109.67  3.5305351E-02
   7110.00  4.3289788E-02
   7110.33  5.6323796E-02
   7110.67  7.7311838E-02
   7111.00  1.0791747E-01
   7111.33  1.4237731E-01
   7111.67  1.7355764E-01
   7112.00  2.0079343E-01
   7112.33  2.1887099E-01
   7112.67  2.1978076E-01
   7113.00  2.0957554E-01
   7113.33  2.0584590E-01
   7113.67  2.1411634E-01
   7114.00  2.3261490E-01
   7114.33  2.5556333E-01
   7114.67  2.7462058E-01
   7115.00  2.8783014E-01
   7115.33  2.9986668E-01
   7115.67  3.1421474E-01
   7116.00  3.2945826E-01
   7116.33  3.4155824E-01
   7116.67  3.4779382E-01
   7117.00  3.4784587E-01
   7117.33  3.4306650E-01
   7117.67  3.3629475E-01
   7118.00  3.2995196E-01
   7118.33  3.2683850E-01
   7118.67  3.2544568E-01
   7119.00  3.2118215E-01
   7119.33  3.0819017E-01
   7119.67  2.8904081E-01
   7120.00  2.6866628E-01
   7120.33  2.5189103E-01
   7120.67  2.3980239E-01
   7121.00  2.3198608E-01
   7121.33  2.2785044E-01
   7121.67  2.2605328E-01
   7122.00  2.2593204E-01
   7122.33  2.2718618E-01
   7122.67  2.2955934E-01
   7123.00  2.3308113E-01
   7123.33  2.3798794E-01
   7123.67  2.4422383E-01
   7124.00  2.5166346E-01
   7124.33  2.5958930E-01
   7124.67  2.6668415E-01
   7125.00  2.7200066E-01
   7125.33  2.7552408E-01
   7125.67  2.7955857E-01
   7126.00  2.8606442E-01
   7126.33  2.9678477E-01
   7126.67  3.1154537E-01
   7127.00  3.3000074E-01
   7127.33  3.5167231E-01
   7127.67  3.7520118E-01
   7128.00  3.9976739E-01
   7128.33  4.2467715E-01
   7128.67  4.4943532E-01
   7129.00  4.7369244E-01
   7129.33  4.9712629E-01
   7129.67  5.2060145E-01
   7130.00  5.4531980E-01
   7130.33  5.7185457E-01
   7130.67  5.9877974E-01
   7131.00  6.2446010E-01
   7131.33  6.4681752E-01
   7131.67  6.6498912E-01
   7132.00  6.7825356E-01
   7132.33  6.8558054E-01
   7132.67  6.8800018E-01
   7133.00  6.8641476E-01
   7133.33  6.8172092E-01
   7133.67  6.7509279E-01
   7134.00  6.6672430E-01
   7134.33  6.5627210E-01
   7134.67  6.4394337E-01
   7135.00  6.2999851E-01
   7135.33  6.1488186E-01
   7135.67  5.9930739E-01
   7136.00  5.8360409E-01
   7136.33  5.6808262E-01
   7136.67  5.5316503E-01
   7137.00  5.3932803E-01
   7137.33  5.2717601E-01
   7137.67  5.1677011E-01
   7138.00  5.0833694E-01
   7138.33  5.0250887E-01
   7138.67  4.9929615E-01
   7139.00  4.9877744E-01
   7139.33  5.0102334E-01
   7139.67  5.0513509E-01
   7140.00  5.1042197E-01
   7140.33  5.1611535E-01
   7140.67  5.2153714E-01
   7141.00  5.2635880E-01
   7141.33  5.3031825E-01
   7141.67  5.3348281E-01
   7142.00  5.3586972E-01
   7142.33  5.3741444E-01
   7142.67  5.3823931E-01
   7143.00  5.3837059E-01
   7143.33  5.3778314E-01
   7143.67  5.3665640E-01
   7144.00  5.3511272E-01
   7144.33  5.3329980E-01
   7144.67  5.3145032E-01
   7145.00  5.2974730E-01
   7145.33  5.2844742E-01
   7145.67  5.2770685E-01
   7146.00  5.2768434E-01
   7146.33  5.2865585E-01
   7146.67  5.3065242E-01
   7147.00  5.3377433E-01
   7147.33  5.3826314E-01
   7147.67  5.4402270E-01
   7148.00  5.5106902E-01
   7148.33  5.5953151E-01
   7148.67  5.6915400E-01
   7149.00  5.7978552E-01
   7149.33  5.9128092E-01
   7149.67  6.0323624E-01
   7150.00  6.1533550E-01
   7150.33  6.2715055E-01
   7150.67  6.3834520E-01
   7151.00  6.4865714E-01
   7151.33  6.5770794E-01
   7151.67  6.6547820E-01
   7152.00  6.7189851E-01
   7152.33  6.7679366E-01
   7152.67  6.8039315E-01
   7153.00  6.8278444E-01
   7153.33  6.8395591E-01
   7153.67  6.8417194E-01
   7154.00  6.8353550E-01
   7154.33  6.8205653E-01
   7154.67  6.7991215E-01
   7155.00  6.7715847E-01
   7155.33  6.7377514E-01
   7155.67  6.6986890E-01
   7156.00  6.6546435E-01
   7156.33  6.6052630E-01
   7156.67  6.5513713E-01
   7157.00  6.4931932E-01
   7157.33  6.4305598E-01
   7157.67  6.3643826E-01
   7158.00  6.2950907E-01
   7158.33  6.2229195E-01
   7158.67  6.1487779E-01
   7159.00  6.0731938E-01
   7159.33  5.9967014E-01
   7159.67  5.9200089E-01
   7160.00  5.8435642E-01
   7160.33  5.7678808E-01
   7160.67  5.6932598E-01
   7161.00  5.6199385E-01
   7161.33  5.5482205E-01
   7161.67  5.4779935E-01
   7162.00  5.4093113E-01
   7162.33  5.3424271E-01
   7162.67  5.2771798E-01
   7163.00  5.2136095E-01
   7163.33  5.1519920E-01
   7163.67  5.0921795E-01
   7164.00  5.0342173E-01
   7164.33  4.9783638E-01
   7164.67  4.9244052E-01
   7165.00  4.8723573E-01
   7165.33  4.8224670E-01
   7165.67  4.7745065E-01
   7166.00  4.7285065E-01
   7166.33  4.6847711E-01
   7166.67  4.6431061E-01
   7167.00  4.6035595E-01
   7167.33  4.5664489E-01
   7167.67  4.5315279E-01
   7168.00  4.4987969E-01
   7168.33  4.4685084E-01
   7168.67  4.4403250E-01
   7169.00  4.4141619E-01
   7169.33  4.3901437E-01
   7169.67  4.3679055E-01
   7170.00  4.3473294E-01
   7170.33  4.3284750E-01
   7170.67  4.3110539E-01
   7171.00  4.2950369E-01
   7171.33  4.2806908E-01
   7171.67  4.2681296E-01
   7172.00  4.2578228E-01
