    FDMNES
    energy     <xanes>
   7097.00  4.9016862E-03
   7097.33  5.0163324E-03
   7097.67  5.1361430E-03
   7098.00  5.2614680E-03
   7098.33  5.3935035E-03
   7098.67  5.5320067E-03
   7099.00  5.6774551E-03
   7099.33  5.8314153E-03
   7099.67  5.9936398E-03
   7100.00  6.1647990E-03
   7100.33  6.3469987E-03
   7100.67  6.5400126E-03
   7101.00  6.7448111E-03
   7101.33  6.9643157E-03
   7101.67  7.1983769E-03
   7102.00  7.4484531E-03
   7102.33  7.7187533E-03
   7102.67  8.0093280E-03
   7103.00  8.3224696E-03
   7103.33  8.6645266E-03
   7103.67  9.0360292E-03
   7104.00  9.4407830E-03
   7104.33  9.8889241E-03
   7104.67  1.0382129E-02
   7105.00  1.0927162E-02
   7105.33  1.1541415E-02
   7105.67  1.2229425E-02
   7106.00  1.3004321E-02
   7106.33  1.3898897E-02
   7106.67  1.4925456E-02
   7107.00  1.6112664E-02
   7107.33  1.7530855E-02
   7107.67  1.9216520E-02
   7108.00  2.1243583E-02
   7108.33  2.3793960E-02
   7108.67  2.6997681E-02
   7109.00  3.1100745E-02
   7109.33  3.6736526E-02
   7109.67  4.4550282E-02
   7110.00  5.5783196E-02
   7110.33  7.3922580E-02
   7110.67  1.0291044E-01
   7111.00  1.4648223E-01
   7111.33  2.0689900E-01
   7111.67  2.8574099E-01
   7112.00  3.8300711E-01
   7112.33  4.4861178E-01
   7112.67  4.1633514E-01
   7113.00  3.2282304E-01
   7113.33  2.4744631E-01
   7113.67  2.0762819E-01
   7114.00  2.0024341E-01
   7114.33  2.2340356E-01
   7114.67  2.5276183E-01
   7115.00  2.4984417E-01
   7115.33  2.0439877E-01
   7115.67  1.5844503E-01
   7116.00  1.2609949E-01
   7116.33  1.0771148E-01
   7116.67  9.7808189E-02
   7117.00  9.4137143E-02
   7117.33  9.5252750E-02
   7117.67  9.8561492E-02
   7118.00  1.0278784E-01
   7118.33  1.0703488E-01
   7118.67  1.1174940E-01
   7119.00  1.1829830E-01
   7119.33  1.2680831E-01
   7119.67  1.3661773E-01
   7120.00  1.4754123E-01
   7120.33  1.5777237E-01
   7120.67  1.6574022E-01
   7121.00  1.7310183E-01
   7121.33  1.8352523E-01
   7121.67  1.9845935E-01
   7122.00  2.1847490E-01
   7122.33  2.4496198E-01
   7122.67  2.7816095E-01
   7123.00  3.1853313E-01
   7123.33  3.6573961E-01
   7123.67  4.1494353E-01
   7124.00  4.5981964E-01
   7124.33  4.9066802E-01
   7124.67  5.0564439E-01
   7125.00  5.0738332E-01
   7125.33  5.0091845E-01
   7125.67  4.9245497E-01
   7126.00  4.8500599E-01
   7126.33  4.8075507E-01
   7126.67  4.7995507E-01
   7127.00  4.8262663E-01
   7127.33  4.8888910E-01
   7127.67  4.9770974E-01
   7128.00  5.0816687E-01
   7128.33  5.1882169E-01
   7128.67  5.2825563E-01
   7129.00  5.3582732E-01
   7129.33  5.4161397E-01
   7129.67  5.4697326E-01
   7130.00  5.5301917E-01
   7130.33  5.6077043E-01
   7130.67  5.7026771E-01
   7131.00  5.8139158E-01
   7131.33  5.9392582E-01
   7131.67  6.0704682E-01
   7132.00  6.1987012E-01
   7132.33  6.3080286E-01
   7132.67  6.3852800E-01
   7133.00  6.4194330E-01
   7133.33  6.3981106E-01
   7133.67  6.3315018E-01
   7134.00  6.2314817E-01
   7134.33  6.1162687E-01
   7134.67  6.0077136E-01
   7135.00  5.9192620E-01
   7135.33  5.8638948E-01
   7135.67  5.8406827E-01
   7136.00  5.8475578E-01
   7136.33  5.8812441E-01
   7136.67  5.9303170E-01
   7137.00  5.9877518E-01
   7137.33  6.0481258E-01
   7137.67  6.1087650E-01
   7138.00  6.1698557E-01
   7138.33  6.2330335E-01
   7138.67  6.2992392E-01
   7139.00  6.3684687E-01
   7139.33  6.4396104E-01
   7139.67  6.5100183E-01
   7140.00  6.5771491E-01
   7140.33  6.6373910E-01
   7140.67  6.6891909E-01
   7141.00  6.7309241E-01
   7141.33  6.7592787E-01
   7141.67  6.7738689E-01
   7142.00  6.7734083E-01
   7142.33  6.7557077E-01
   7142.67  6.7243911E-01
   7143.00  6.6824854E-01
   7143.33  6.6338476E-01
   7143.67  6.5839520E-01
   7144.00  6.5362780E-01
   7144.33  6.4944301E-01
   7144.67  6.4594265E-01
   7145.00  6.4317238E-01
   7145.33  6.4117576E-01
   7145.67  6.3975088E-01
   7146.00  6.3877081E-01
   7146.33  6.3813193E-01
   7146.67  6.3768592E-01
   7147.00  6.3736758E-01
   7147.33  6.3713975E-01
   7147.67  6.3696284E-01
   7148.00  6.3681325E-01
   7148.33  6.3665040E-01
   7148.67  6.3641537E-01
   7149.00  6.3603694E-01
   7149.33  6.3538062E-01
   7149.67  6.3435734E-01
   7150.00  6.3285780E-01
   7150.33  6.3068303E-01
   7150.67  6.2780085E-01
   7151.00  6.2414200E-01
   7151.33  6.1955866E-01
   7151.67  6.1415418E-01
   7152.00  6.0796772E-01
   7152.33  6.0100038E-01
   7152.67  5.9346685E-01
   7153.00  5.8550214E-01
   7153.33  5.7724881E-01
   7153.67  5.6891997E-01
   7154.00  5.6066547E-01
   7154.33  5.5266586E-01
   7154.67  5.4500953E-01
   7155.00  5.3776442E-01
   7155.33  5.3102797E-01
   7155.67  5.2474433E-01
   7156.00  5.1888596E-01
   7156.33  5.1344085E-01
   7156.67  5.0828525E-01
   7157.00  5.0334289E-01
   7157.33  4.9853534E-01
   7157.67  4.9375542E-01
   7158.00  4.8892875E-01
   7158.33  4.8395905E-01
   7158.67  4.7878924E-01
   7159.00  4.7337023E-01
   7159.33  4.6762491E-01
   7159.67  4.6156088E-01
   7160.00  4.5516550E-01
   7160.33  4.4840090E-01
   7160.67  4.4133393E-01
   7161.00  4.3400626E-01
   7161.33  4.2646357E-01
   7161.67  4.1881983E-01
   7162.00  4.1116697E-01
   7162.33  4.0363806E-01
   7162.67  3.9634334E-01
   7163.00  3.8938571E-01
   7163.33  3.8292966E-01
   7163.67  3.7701145E-01
   7164.00  3.7169484E-01
   7164.33  3.6711797E-01
   7164.67  3.6323501E-01
   7165.00  3.6006205E-01
   7165.33  3.5769088E-01
   7165.67  3.5602076E-01
   7166.00  3.5503190E-01
   7166.33  3.5477143E-01
   7166.67  3.5511509E-01
   7167.00  3.5602233E-01
   7167.33  3.5750155E-01
   7167.67  3.5941794E-01
   7168.00  3.6170528E-01
   7168.33  3.6432438E-01
   7168.67  3.6716282E-01
   7169.00  3.7015784E-01
   7169.33  3.7325328E-01
   7169.67  3.7637959E-01
   7170.00  3.7949480E-01
   7170.33  3.8255266E-01
   7170.67  3.8552600E-01
   7171.00  3.8838413E-01
   7171.33  3.9104971E-01
   7171.67  3.9343168E-01
   7172.00  3.9536987E-01
