    FDMNES
    energy     <xanes>
   7097.00  5.3681443E-03
   7097.33  5.5068324E-03
   7097.67  5.6522583E-03
   7098.00  5.8048955E-03
   7098.33  5.9663326E-03
   7098.67  6.1362725E-03
   7099.00  6.3153627E-03
   7099.33  6.5056927E-03
   7099.67  6.7069594E-03
   7100.00  6.9200694E-03
   7100.33  7.1478395E-03
   7100.67  7.3899903E-03
   7101.00  7.6478284E-03
   7101.33  7.9252603E-03
   7101.67  8.2220970E-03
   7102.00  8.5402852E-03
   7102.33  8.8854289E-03
   7102.67  9.2575735E-03
   7103.00  9.6597376E-03
   7103.33  1.0100292E-02
   7103.67  1.0579839E-02
   7104.00  1.1103288E-02
   7104.33  1.1683785E-02
   7104.67  1.2323225E-02
   7105.00  1.3030099E-02
   7105.33  1.3826378E-02
   7105.67  1.4717093E-02
   7106.00  1.5718099E-02
   7106.33  1.6869258E-02
   7106.67  1.8183771E-02
   7107.00  1.9694497E-02
   7107.33  2.1482386E-02
   7107.67  2.3584771E-02
   7108.00  2.6080784E-02
   7108.33  2.9164762E-02
   7108.67  3.2961724E-02
   7109.00  3.7713518E-02
   7109.33  4.4036343E-02
   7109.67  5.2509515E-02
   7110.00  6.4250589E-02
   7110.33  8.2350499E-02
   7110.67  1.1004661E-01
   7111.00  1.4997086E-01
   7111.33  2.0270082E-01
   7111.67  2.6613082E-01
   7112.00  3.4059613E-01
   7112.33  4.4110793E-01
   7112.67  5.6676607E-01
   7113.00  6.8634840E-01
   7113.33  7.7224437E-01
   7113.67  7.7698543E-01
   7114.00  6.8586606E-01
   7114.33  5.9520949E-01
   7114.67  5.2312802E-01
   7115.00  4.2574434E-01
   7115.33  3.1909063E-01
   7115.67  2.3873499E-01
   7116.00  1.8558134E-01
   7116.33  1.5338364E-01
   7116.67  1.3288782E-01
   7117.00  1.2000344E-01
   7117.33  1.1156166E-01
   7117.67  1.0515318E-01
   7118.00  1.0043785E-01
   7118.33  9.7820815E-02
   7118.67  9.7261935E-02
   7119.00  9.8452031E-02
   7119.33  1.0078802E-01
   7119.67  1.0330930E-01
   7120.00  1.0587008E-01
   7120.33  1.0862019E-01
   7120.67  1.1120998E-01
   7121.00  1.1356344E-01
   7121.33  1.1575477E-01
   7121.67  1.1811419E-01
   7122.00  1.2160077E-01
   7122.33  1.2757709E-01
   7122.67  1.3594254E-01
   7123.00  1.4623150E-01
   7123.33  1.5816804E-01
   7123.67  1.7174597E-01
   7124.00  1.8731979E-01
   7124.33  2.0542840E-01
   7124.67  2.2582688E-01
   7125.00  2.4830945E-01
   7125.33  2.7243519E-01
   7125.67  2.9703707E-01
   7126.00  3.2119436E-01
   7126.33  3.4394926E-01
   7126.67  3.6533709E-01
   7127.00  3.8595706E-01
   7127.33  4.0687894E-01
   7127.67  4.2847105E-01
   7128.00  4.5004657E-01
   7128.33  4.6982387E-01
   7128.67  4.8668709E-01
   7129.00  5.0026238E-01
   7129.33  5.1046591E-01
   7129.67  5.1831145E-01
   7130.00  5.2444520E-01
   7130.33  5.2967277E-01
   7130.67  5.3522742E-01
   7131.00  5.4221397E-01
   7131.33  5.5224351E-01
   7131.67  5.6601142E-01
   7132.00  5.8397393E-01
   7132.33  6.0623772E-01
   7132.67  6.3081550E-01
   7133.00  6.5595593E-01
   7133.33  6.8002042E-01
   7133.67  7.0256761E-01
   7134.00  7.2337502E-01
   7134.33  7.4130442E-01
   7134.67  7.5517289E-01
   7135.00  7.6359660E-01
   7135.33  7.6467206E-01
   7135.67  7.5900278E-01
   7136.00  7.4706493E-01
   7136.33  7.2939754E-01
   7136.67  7.0835519E-01
   7137.00  6.8568377E-01
   7137.33  6.6344614E-01
   7137.67  6.4321871E-01
   7138.00  6.2590248E-01
   7138.33  6.1236867E-01
   7138.67  6.0215188E-01
   7139.00  5.9497728E-01
   7139.33  5.9067951E-01
   7139.67  5.8834169E-01
   7140.00  5.8744966E-01
   7140.33  5.8769611E-01
   7140.67  5.8881855E-01
   7141.00  5.9090332E-01
   7141.33  5.9424892E-01
   7141.67  5.9875143E-01
   7142.00  6.0425655E-01
   7142.33  6.1041657E-01
   7142.67  6.1655150E-01
   7143.00  6.2214329E-01
   7143.33  6.2673466E-01
   7143.67  6.3051428E-01
   7144.00  6.3381935E-01
   7144.33  6.3711612E-01
   7144.67  6.4072906E-01
   7145.00  6.4473954E-01
   7145.33  6.4909380E-01
   7145.67  6.5355723E-01
   7146.00  6.5793407E-01
   7146.33  6.6197058E-01
   7146.67  6.6553174E-01
   7147.00  6.6851762E-01
   7147.33  6.7079632E-01
   7147.67  6.7245755E-01
   7148.00  6.7355557E-01
   7148.33  6.7414071E-01
   7148.67  6.7440186E-01
   7149.00  6.7445161E-01
   7149.33  6.7438796E-01
   7149.67  6.7429645E-01
   7150.00  6.7420495E-01
   7150.33  6.7410699E-01
   7150.67  6.7396731E-01
   7151.00  6.7374701E-01
   7151.33  6.7337778E-01
   7151.67  6.7281680E-01
   7152.00  6.7202139E-01
   7152.33  6.7092721E-01
   7152.67  6.6955866E-01
   7153.00  6.6792583E-01
   7153.33  6.6602747E-01
   7153.67  6.6393171E-01
   7154.00  6.6167391E-01
   7154.33  6.5927515E-01
   7154.67  6.5677602E-01
   7155.00  6.5418419E-01
   7155.33  6.5147701E-01
   7155.67  6.4863584E-01
   7156.00  6.4561627E-01
   7156.33  6.4231759E-01
   7156.67  6.3868823E-01
   7157.00  6.3465380E-01
   7157.33  6.3007166E-01
   7157.67  6.2493780E-01
   7158.00  6.1921929E-01
   7158.33  6.1283730E-01
   7158.67  6.0589815E-01
   7159.00  5.9845727E-01
   7159.33  5.9054666E-01
   7159.67  5.8230841E-01
   7160.00  5.7381756E-01
   7160.33  5.6513242E-01
   7160.67  5.5633590E-01
   7161.00  5.4746180E-01
   7161.33  5.3852750E-01
   7161.67  5.2955594E-01
   7162.00  5.2055904E-01
   7162.33  5.1154732E-01
   7162.67  5.0253803E-01
   7163.00  4.9355052E-01
   7163.33  4.8462095E-01
   7163.67  4.7577967E-01
   7164.00  4.6706212E-01
   7164.33  4.5853100E-01
   7164.67  4.5020473E-01
   7165.00  4.4211117E-01
   7165.33  4.3430435E-01
   7165.67  4.2676478E-01
   7166.00  4.1949642E-01
   7166.33  4.1253060E-01
   7166.67  4.0582853E-01
   7167.00  3.9938661E-01
   7167.33  3.9323538E-01
   7167.67  3.8734615E-01
   7168.00  3.8172806E-01
   7168.33  3.7643250E-01
   7168.67  3.7144205E-01
   7169.00  3.6677391E-01
   7169.33  3.6248681E-01
   7169.67  3.5854527E-01
   7170.00  3.5495314E-01
   7170.33  3.5175005E-01
   7170.67  3.4887956E-01
   7171.00  3.4633314E-01
   7171.33  3.4414840E-01
   7171.67  3.4229859E-01
   7172.00  3.4081193E-01
