    FDMNES
    energy     <xanes>
   7097.00  4.3002424E-03
   7097.33  4.3879663E-03
   7097.67  4.4791652E-03
   7098.00  4.5740545E-03
   7098.33  4.6734064E-03
   7098.67  4.7770319E-03
   7099.00  4.8852216E-03
   7099.33  4.9989693E-03
   7099.67  5.1180790E-03
   7100.00  5.2429544E-03
   7100.33  5.3749096E-03
   7100.67  5.5137569E-03
   7101.00  5.6600756E-03
   7101.33  5.8156631E-03
   7101.67  5.9803728E-03
   7102.00  6.1550717E-03
   7102.33  6.3423200E-03
   7102.67  6.5420883E-03
   7103.00  6.7557397E-03
   7103.33  6.9871099E-03
   7103.67  7.2364636E-03
   7104.00  7.5060787E-03
   7104.33  7.8020810E-03
   7104.67  8.1254637E-03
   7105.00  8.4803394E-03
   7105.33  8.8773308E-03
   7105.67  9.3193237E-03
   7106.00  9.8145318E-03
   7106.33  1.0383511E-02
   7106.67  1.1034571E-02
   7107.00  1.1786535E-02
   7107.33  1.2685762E-02
   7107.67  1.3758825E-02
   7108.00  1.5058383E-02
   7108.33  1.6715775E-02
   7108.67  1.8837364E-02
   7109.00  2.1624351E-02
   7109.33  2.5614322E-02
   7109.67  3.1441711E-02
   7110.00  4.0358855E-02
   7110.33  5.5940549E-02
   7110.67  8.1220244E-02
   7111.00  1.1314572E-01
   7111.33  1.3660687E-01
   7111.67  1.5475628E-01
   7112.00  1.6818632E-01
   7112.33  1.6815991E-01
   7112.67  1.6714804E-01
   7113.00  1.7354154E-01
   7113.33  1.7585144E-01
   7113.67  1.6146138E-01
   7114.00  1.3651722E-01
   7114.33  1.1397682E-01
   7114.67  9.6164052E-02
   7115.00  8.1688078E-02
   7115.33  7.1323939E-02
   7115.67  6.4470177E-02
   7116.00  6.0364160E-02
   7116.33  5.8449170E-02
   7116.67  5.7971866E-02
   7117.00  5.8701833E-02
   7117.33  6.0682540E-02
   7117.67  6.3777074E-02
   7118.00  6.7997385E-02
   7118.33  7.3457620E-02
   7118.67  7.9935028E-02
   7119.00  8.7286419E-02
   7119.33  9.5330248E-02
   7119.67  1.0379763E-01
   7120.00  1.1277923E-01
   7120.33  1.2282857E-01
   7120.67  1.3436790E-01
   7121.00  1.4768276E-01
   7121.33  1.6343780E-01
   7121.67  1.8235144E-01
   7122.00  2.0567310E-01
   7122.33  2.3543170E-01
   7122.67  2.7130669E-01
   7123.00  3.1228649E-01
   7123.33  3.5502722E-01
   7123.67  3.9281632E-01
   7124.00  4.1949075E-01
   7124.33  4.3084785E-01
   7124.67  4.3356885E-01
   7125.00  4.3460342E-01
   7125.33  4.4018342E-01
   7125.67  4.5146780E-01
   7126.00  4.6783083E-01
   7126.33  4.8824803E-01
   7126.67  5.1059140E-01
   7127.00  5.3351235E-01
   7127.33  5.5594961E-01
   7127.67  5.7778241E-01
   7128.00  5.9900170E-01
   7128.33  6.1852677E-01
   7128.67  6.3516468E-01
   7129.00  6.4823170E-01
   7129.33  6.5684018E-01
   7129.67  6.6110236E-01
   7130.00  6.6112146E-01
   7130.33  6.5797012E-01
   7130.67  6.5396069E-01
   7131.00  6.4977610E-01
   7131.33  6.4515511E-01
   7131.67  6.4014148E-01
   7132.00  6.3529994E-01
   7132.33  6.3138311E-01
   7132.67  6.2825205E-01
   7133.00  6.2583416E-01
   7133.33  6.2568949E-01
   7133.67  6.3058148E-01
   7134.00  6.4305440E-01
   7134.33  6.6444306E-01
   7134.67  6.9013924E-01
   7135.00  7.1528858E-01
   7135.33  7.3467212E-01
   7135.67  7.4737838E-01
   7136.00  7.5436610E-01
   7136.33  7.5758873E-01
   7136.67  7.5970878E-01
   7137.00  7.6200094E-01
   7137.33  7.6544527E-01
   7137.67  7.7024629E-01
   7138.00  7.7619915E-01
   7138.33  7.8244954E-01
   7138.67  7.8750956E-01
   7139.00  7.8989192E-01
   7139.33  7.8736587E-01
   7139.67  7.7920997E-01
   7140.00  7.6492963E-01
   7140.33  7.4406798E-01
   7140.67  7.1848108E-01
   7141.00  6.8960868E-01
   7141.33  6.5913239E-01
   7141.67  6.2890537E-01
   7142.00  6.0001167E-01
   7142.33  5.7353839E-01
   7142.67  5.4963039E-01
   7143.00  5.2839348E-01
   7143.33  5.1007764E-01
   7143.67  4.9415557E-01
   7144.00  4.8040337E-01
   7144.33  4.6877937E-01
   7144.67  4.5877945E-01
   7145.00  4.5019653E-01
   7145.33  4.4297347E-01
   7145.67  4.3679019E-01
   7146.00  4.3153368E-01
   7146.33  4.2721053E-01
   7146.67  4.2365319E-01
   7147.00  4.2082882E-01
   7147.33  4.1880787E-01
   7147.67  4.1749602E-01
   7148.00  4.1689128E-01
   7148.33  4.1706497E-01
   7148.67  4.1788168E-01
   7149.00  4.1926550E-01
   7149.33  4.2115271E-01
   7149.67  4.2334252E-01
   7150.00  4.2570100E-01
   7150.33  4.2807762E-01
   7150.67  4.3033543E-01
   7151.00  4.3238888E-01
   7151.33  4.3416446E-01
   7151.67  4.3571313E-01
   7152.00  4.3708631E-01
   7152.33  4.3834931E-01
   7152.67  4.3958970E-01
   7153.00  4.4085209E-01
   7153.33  4.4215156E-01
   7153.67  4.4343860E-01
   7154.00  4.4462475E-01
   7154.33  4.4551889E-01
   7154.67  4.4594652E-01
   7155.00  4.4570744E-01
   7155.33  4.4445640E-01
   7155.67  4.4210683E-01
   7156.00  4.3854149E-01
   7156.33  4.3355439E-01
   7156.67  4.2736672E-01
   7157.00  4.2012198E-01
   7157.33  4.1197534E-01
   7157.67  4.0335015E-01
   7158.00  3.9455106E-01
   7158.33  3.8595241E-01
   7158.67  3.7784984E-01
   7159.00  3.7046920E-01
   7159.33  3.6412168E-01
   7159.67  3.5881901E-01
   7160.00  3.5462161E-01
   7160.33  3.5169801E-01
   7160.67  3.4990254E-01
   7161.00  3.4921806E-01
   7161.33  3.4975510E-01
   7161.67  3.5135031E-01
   7162.00  3.5397477E-01
   7162.33  3.5770585E-01
   7162.67  3.6235469E-01
   7163.00  3.6784512E-01
   7163.33  3.7415926E-01
   7163.67  3.8107872E-01
   7164.00  3.8848593E-01
   7164.33  3.9628582E-01
   7164.67  4.0430222E-01
   7165.00  4.1243125E-01
   7165.33  4.2056922E-01
   7165.67  4.2863007E-01
   7166.00  4.3655581E-01
   7166.33  4.4426888E-01
   7166.67  4.5174189E-01
   7167.00  4.5892480E-01
   7167.33  4.6570271E-01
   7167.67  4.7203009E-01
   7168.00  4.7780602E-01
   7168.33  4.8279546E-01
   7168.67  4.8691152E-01
   7169.00  4.8999689E-01
   7169.33  4.9173649E-01
   7169.67  4.9216789E-01
   7170.00  4.9126507E-01
   7170.33  4.8894597E-01
   7170.67  4.8556711E-01
   7171.00  4.8139669E-01
   7171.33  4.7681088E-01
   7171.67  4.7240658E-01
   7172.00  4.6873864E-01
