    FDMNES
    energy     <xanes>
   7097.00  5.2846033E-03
   7097.33  5.4164255E-03
   7097.67  5.5544331E-03
   7098.00  5.6990486E-03
   7098.33  5.8517087E-03
   7098.67  6.0121234E-03
   7099.00  6.1808656E-03
   7099.33  6.3598108E-03
   7099.67  6.5486575E-03
   7100.00  6.7482015E-03
   7100.33  6.9609496E-03
   7100.67  7.1866120E-03
   7101.00  7.4263252E-03
   7101.33  7.6835326E-03
   7101.67  7.9580080E-03
   7102.00  8.2514279E-03
   7102.33  8.5686784E-03
   7102.67  8.9097097E-03
   7103.00  9.2770913E-03
   7103.33  9.6780313E-03
   7103.67  1.0112906E-02
   7104.00  1.0585839E-02
   7104.33  1.1107983E-02
   7104.67  1.1680710E-02
   7105.00  1.2311029E-02
   7105.33  1.3017248E-02
   7105.67  1.3803124E-02
   7106.00  1.4681471E-02
   7106.33  1.5684747E-02
   7106.67  1.6822784E-02
   7107.00  1.8121388E-02
   7107.33  1.9644407E-02
   7107.67  2.1418997E-02
   7108.00  2.3504723E-02
   7108.33  2.6047689E-02
   7108.67  2.9134420E-02
   7109.00  3.2935012E-02
   7109.33  3.7877238E-02
   7109.67  4.4328177E-02
   7110.00  5.2991811E-02
   7110.33  6.5769073E-02
   7110.67  8.4564733E-02
   7111.00  1.1129717E-01
   7111.33  1.4921087E-01
   7111.67  2.0268394E-01
   7112.00  2.7620764E-01
   7112.33  3.7383820E-01
   7112.67  4.8419693E-01
   7113.00  6.0416482E-01
   7113.33  7.1384156E-01
   7113.67  7.4615347E-01
   7114.00  6.7275573E-01
   7114.33  5.3853970E-01
   7114.67  4.1898293E-01
   7115.00  3.3253734E-01
   7115.33  2.7767688E-01
   7115.67  2.4216454E-01
   7116.00  2.2092068E-01
   7116.33  2.1165266E-01
   7116.67  2.0936616E-01
   7117.00  2.0923758E-01
   7117.33  2.0568122E-01
   7117.67  1.9879001E-01
   7118.00  1.9056258E-01
   7118.33  1.8198997E-01
   7118.67  1.7295633E-01
   7119.00  1.6325600E-01
   7119.33  1.5293285E-01
   7119.67  1.4268531E-01
   7120.00  1.3363721E-01
   7120.33  1.2746238E-01
   7120.67  1.2404236E-01
   7121.00  1.2276468E-01
   7121.33  1.2302579E-01
   7121.67  1.2407006E-01
   7122.00  1.2540189E-01
   7122.33  1.2656722E-01
   7122.67  1.2779849E-01
   7123.00  1.2984752E-01
   7123.33  1.3371633E-01
   7123.67  1.3951488E-01
   7124.00  1.4736885E-01
   7124.33  1.5787712E-01
   7124.67  1.7128787E-01
   7125.00  1.8815716E-01
   7125.33  2.0928215E-01
   7125.67  2.3339175E-01
   7126.00  2.5864673E-01
   7126.33  2.8265455E-01
   7126.67  3.0478346E-01
   7127.00  3.2548095E-01
   7127.33  3.4564338E-01
   7127.67  3.6626223E-01
   7128.00  3.8770613E-01
   7128.33  4.0982361E-01
   7128.67  4.3212859E-01
   7129.00  4.5474631E-01
   7129.33  4.7874194E-01
   7129.67  5.0496151E-01
   7130.00  5.3388047E-01
   7130.33  5.6615036E-01
   7130.67  6.0192348E-01
   7131.00  6.4209551E-01
   7131.33  6.8859074E-01
   7131.67  7.4121956E-01
   7132.00  7.9912921E-01
   7132.33  8.5973316E-01
   7132.67  9.1803983E-01
   7133.00  9.6903765E-01
   7133.33  1.0051275E+00
   7133.67  1.0239690E+00
   7134.00  1.0253562E+00
   7134.33  1.0108973E+00
   7134.67  9.8687681E-01
   7135.00  9.5584897E-01
   7135.33  9.1771687E-01
   7135.67  8.7284614E-01
   7136.00  8.2155814E-01
   7136.33  7.6549978E-01
   7136.67  7.0878665E-01
   7137.00  6.5458776E-01
   7137.33  6.0638791E-01
   7137.67  5.6511688E-01
   7138.00  5.3132074E-01
   7138.33  5.0593633E-01
   7138.67  4.8762647E-01
   7139.00  4.7586098E-01
   7139.33  4.7062885E-01
   7139.67  4.7041862E-01
   7140.00  4.7455592E-01
   7140.33  4.8272604E-01
   7140.67  4.9375904E-01
   7141.00  5.0707232E-01
   7141.33  5.2222592E-01
   7141.67  5.3839181E-01
   7142.00  5.5503993E-01
   7142.33  5.7153922E-01
   7142.67  5.8731045E-01
   7143.00  6.0188346E-01
   7143.33  6.1459457E-01
   7143.67  6.2533251E-01
   7144.00  6.3395448E-01
   7144.33  6.4017956E-01
   7144.67  6.4439754E-01
   7145.00  6.4679330E-01
   7145.33  6.4743928E-01
   7145.67  6.4680867E-01
   7146.00  6.4511329E-01
   7146.33  6.4244026E-01
   7146.67  6.3905128E-01
   7147.00  6.3505083E-01
   7147.33  6.3046907E-01
   7147.67  6.2544231E-01
   7148.00  6.2001948E-01
   7148.33  6.1420585E-01
   7148.67  6.0809156E-01
   7149.00  6.0172156E-01
   7149.33  5.9513630E-01
   7149.67  5.8843427E-01
   7150.00  5.8168799E-01
   7150.33  5.7500028E-01
   7150.67  5.6847144E-01
   7151.00  5.6219775E-01
   7151.33  5.5633681E-01
   7151.67  5.5094659E-01
   7152.00  5.4610289E-01
   7152.33  5.4195160E-01
   7152.67  5.3846360E-01
   7153.00  5.3566353E-01
   7153.33  5.3365071E-01
   7153.67  5.3233536E-01
   7154.00  5.3170678E-01
   7154.33  5.3182794E-01
   7154.67  5.3258942E-01
   7155.00  5.3396552E-01
   7155.33  5.3599451E-01
   7155.67  5.3856326E-01
   7156.00  5.4163054E-01
   7156.33  5.4519471E-01
   7156.67  5.4913255E-01
   7157.00  5.5337603E-01
   7157.33  5.5786198E-01
   7157.67  5.6246263E-01
   7158.00  5.6708421E-01
   7158.33  5.7159942E-01
   7158.67  5.7590027E-01
   7159.00  5.7988291E-01
   7159.33  5.8337390E-01
   7159.67  5.8631462E-01
   7160.00  5.8861546E-01
   7160.33  5.9009450E-01
   7160.67  5.9076875E-01
   7161.00  5.9058438E-01
   7161.33  5.8938221E-01
   7161.67  5.8725215E-01
   7162.00  5.8419433E-01
   7162.33  5.8012014E-01
   7162.67  5.7518719E-01
   7163.00  5.6944707E-01
   7163.33  5.6288045E-01
   7163.67  5.5566165E-01
   7164.00  5.4786629E-01
   7164.33  5.3952364E-01
   7164.67  5.3078415E-01
   7165.00  5.2172369E-01
   7165.33  5.1239890E-01
   7165.67  5.0292121E-01
   7166.00  4.9335823E-01
   7166.33  4.8378350E-01
   7166.67  4.7426689E-01
   7167.00  4.6486173E-01
   7167.33  4.5564648E-01
   7167.67  4.4665320E-01
   7168.00  4.3792452E-01
   7168.33  4.2954899E-01
   7168.67  4.2153546E-01
   7169.00  4.1391944E-01
   7169.33  4.0679093E-01
   7169.67  4.0012755E-01
   7170.00  3.9395332E-01
   7170.33  3.8835800E-01
   7170.67  3.8330085E-01
   7171.00  3.7880211E-01
   7171.33  3.7496418E-01
   7171.67  3.7175909E-01
   7172.00  3.6923778E-01
