    FDMNES
    energy     <xanes>
   7097.00  5.0937712E-03
   7097.33  5.2205300E-03
   7097.67  5.3534031E-03
   7098.00  5.4928286E-03
   7098.33  5.6402630E-03
   7098.67  5.7954509E-03
   7099.00  5.9589979E-03
   7099.33  6.1328379E-03
   7099.67  6.3167205E-03
   7100.00  6.5115068E-03
   7100.33  6.7198360E-03
   7100.67  6.9415009E-03
   7101.00  7.1777662E-03
   7101.33  7.4323540E-03
   7101.67  7.7051837E-03
   7102.00  7.9981861E-03
   7102.33  8.3168220E-03
   7102.67  8.6613217E-03
   7103.00  9.0347756E-03
   7103.33  9.4455905E-03
   7103.67  9.8947321E-03
   7104.00  1.0387441E-02
   7104.33  1.0937465E-02
   7104.67  1.1547536E-02
   7105.00  1.2227219E-02
   7105.33  1.3000802E-02
   7105.67  1.3875522E-02
   7106.00  1.4870586E-02
   7106.33  1.6033559E-02
   7106.67  1.7384366E-02
   7107.00  1.8966934E-02
   7107.33  2.0888736E-02
   7107.67  2.3211447E-02
   7108.00  2.6056106E-02
   7108.33  2.9722424E-02
   7108.67  3.4446795E-02
   7109.00  4.0672462E-02
   7109.33  4.9563696E-02
   7109.67  6.2424146E-02
   7110.00  8.1796656E-02
   7110.33  1.1511545E-01
   7110.67  1.7213220E-01
   7111.00  2.6393892E-01
   7111.33  3.7680440E-01
   7111.67  4.3124890E-01
   7112.00  3.9093352E-01
   7112.33  3.2357878E-01
   7112.67  2.9019319E-01
   7113.00  2.9358204E-01
   7113.33  3.1977095E-01
   7113.67  3.4044182E-01
   7114.00  3.4017994E-01
   7114.33  3.1933314E-01
   7114.67  2.9529286E-01
   7115.00  2.7901365E-01
   7115.33  2.7552222E-01
   7115.67  2.7651689E-01
   7116.00  2.7217908E-01
   7116.33  2.5635036E-01
   7116.67  2.3457477E-01
   7117.00  2.1201116E-01
   7117.33  1.9235613E-01
   7117.67  1.7606683E-01
   7118.00  1.6278044E-01
   7118.33  1.5204551E-01
   7118.67  1.4298487E-01
   7119.00  1.3534659E-01
   7119.33  1.2922096E-01
   7119.67  1.2440147E-01
   7120.00  1.2079658E-01
   7120.33  1.1840704E-01
   7120.67  1.1707764E-01
   7121.00  1.1691327E-01
   7121.33  1.1812660E-01
   7121.67  1.2040673E-01
   7122.00  1.2354675E-01
   7122.33  1.2751583E-01
   7122.67  1.3226639E-01
   7123.00  1.3790515E-01
   7123.33  1.4466838E-01
   7123.67  1.5246909E-01
   7124.00  1.6129585E-01
   7124.33  1.7130030E-01
   7124.67  1.8250896E-01
   7125.00  1.9519085E-01
   7125.33  2.0991959E-01
   7125.67  2.2659063E-01
   7126.00  2.4489659E-01
   7126.33  2.6397966E-01
   7126.67  2.8271348E-01
   7127.00  3.0093597E-01
   7127.33  3.1975786E-01
   7127.67  3.4062680E-01
   7128.00  3.6396906E-01
   7128.33  3.8820374E-01
   7128.67  4.1068614E-01
   7129.00  4.3150117E-01
   7129.33  4.5389008E-01
   7129.67  4.8083039E-01
   7130.00  5.1350319E-01
   7130.33  5.5185839E-01
   7130.67  5.9289543E-01
   7131.00  6.3415863E-01
   7131.33  6.7354046E-01
   7131.67  7.1144052E-01
   7132.00  7.4960804E-01
   7132.33  7.9063222E-01
   7132.67  8.3422595E-01
   7133.00  8.7759324E-01
   7133.33  9.1517507E-01
   7133.67  9.4344531E-01
   7134.00  9.5996888E-01
   7134.33  9.6113582E-01
   7134.67  9.4798026E-01
   7135.00  9.2134314E-01
   7135.33  8.8246673E-01
   7135.67  8.3631922E-01
   7136.00  7.8608824E-01
   7136.33  7.3492526E-01
   7136.67  6.8549842E-01
   7137.00  6.3947837E-01
   7137.33  5.9889719E-01
   7137.67  5.6410302E-01
   7138.00  5.3556681E-01
   7138.33  5.1424750E-01
   7138.67  4.9910612E-01
   7139.00  4.8967166E-01
   7139.33  4.8578838E-01
   7139.67  4.8594185E-01
   7140.00  4.8935200E-01
   7140.33  4.9548194E-01
   7140.67  5.0331274E-01
   7141.00  5.1234024E-01
   7141.33  5.2219113E-01
   7141.67  5.3242210E-01
   7142.00  5.4280411E-01
   7142.33  5.5313022E-01
   7142.67  5.6326098E-01
   7143.00  5.7310633E-01
   7143.33  5.8255077E-01
   7143.67  5.9159706E-01
   7144.00  6.0022713E-01
   7144.33  6.0838321E-01
   7144.67  6.1612447E-01
   7145.00  6.2346210E-01
   7145.33  6.3036588E-01
   7145.67  6.3690521E-01
   7146.00  6.4309895E-01
   7146.33  6.4892736E-01
   7146.67  6.5444696E-01
   7147.00  6.5966408E-01
   7147.33  6.6454015E-01
   7147.67  6.6910548E-01
   7148.00  6.7334660E-01
   7148.33  6.7719431E-01
   7148.67  6.8065618E-01
   7149.00  6.8369453E-01
   7149.33  6.8620019E-01
   7149.67  6.8817320E-01
   7150.00  6.8955862E-01
   7150.33  6.9021360E-01
   7150.67  6.9016402E-01
   7151.00  6.8937062E-01
   7151.33  6.8770277E-01
   7151.67  6.8523601E-01
   7152.00  6.8196235E-01
   7152.33  6.7779720E-01
   7152.67  6.7287710E-01
   7153.00  6.6724603E-01
   7153.33  6.6088566E-01
   7153.67  6.5395207E-01
   7154.00  6.4652081E-01
   7154.33  6.3863539E-01
   7154.67  6.3043936E-01
   7155.00  6.2201518E-01
   7155.33  6.1344330E-01
   7155.67  6.0483288E-01
   7156.00  5.9625922E-01
   7156.33  5.8781978E-01
   7156.67  5.7957669E-01
   7157.00  5.7159128E-01
   7157.33  5.6397049E-01
   7157.67  5.5673777E-01
   7158.00  5.4994205E-01
   7158.33  5.4368895E-01
   7158.67  5.3795187E-01
   7159.00  5.3274957E-01
   7159.33  5.2815717E-01
   7159.67  5.2409649E-01
   7160.00  5.2054309E-01
   7160.33  5.1750650E-01
   7160.67  5.1486198E-01
   7161.00  5.1253927E-01
   7161.33  5.1047479E-01
   7161.67  5.0854183E-01
   7162.00  5.0665595E-01
   7162.33  5.0471646E-01
   7162.67  5.0264620E-01
   7163.00  5.0038702E-01
   7163.33  4.9785681E-01
   7163.67  4.9505108E-01
   7164.00  4.9195414E-01
   7164.33  4.8852511E-01
   7164.67  4.8480931E-01
   7165.00  4.8082161E-01
   7165.33  4.7655471E-01
   7165.67  4.7206810E-01
   7166.00  4.6738789E-01
   7166.33  4.6252440E-01
   7166.67  4.5752735E-01
   7167.00  4.5241964E-01
   7167.33  4.4721463E-01
   7167.67  4.4194527E-01
   7168.00  4.3662715E-01
   7168.33  4.3127621E-01
   7168.67  4.2592569E-01
   7169.00  4.2060103E-01
   7169.33  4.1533452E-01
   7169.67  4.1014843E-01
   7170.00  4.0507251E-01
   7170.33  4.0016789E-01
   7170.67  3.9546810E-01
   7171.00  3.9103063E-01
   7171.33  3.8699401E-01
   7171.67  3.8346189E-01
   7172.00  3.8060999E-01
