    FDMNES
    energy     <xanes>
   7097.00  4.4087230E-03
   7097.33  4.5011466E-03
   7097.67  4.5974187E-03
   7098.00  4.6977876E-03
   7098.33  4.8031237E-03
   7098.67  4.9132290E-03
   7099.00  5.0284393E-03
   7099.33  5.1498816E-03
   7099.67  5.2773512E-03
   7100.00  5.4113144E-03
   7100.33  5.5532695E-03
   7100.67  5.7030205E-03
   7101.00  5.8612367E-03
   7101.33  6.0299725E-03
   7101.67  6.2090768E-03
   7102.00  6.3995467E-03
   7102.33  6.6043082E-03
   7102.67  6.8233357E-03
   7103.00  7.0581844E-03
   7103.33  7.3132200E-03
   7103.67  7.5887278E-03
   7104.00  7.8872745E-03
   7104.33  8.2157671E-03
   7104.67  8.5752507E-03
   7105.00  8.9702767E-03
   7105.33  9.4126345E-03
   7105.67  9.9053079E-03
   7106.00  1.0457171E-02
   7106.33  1.1090504E-02
   7106.67  1.1813732E-02
   7107.00  1.2646574E-02
   7107.33  1.3637676E-02
   7107.67  1.4813330E-02
   7108.00  1.6226667E-02
   7108.33  1.8009926E-02
   7108.67  2.0265214E-02
   7109.00  2.3186938E-02
   7109.33  2.7290883E-02
   7109.67  3.3165645E-02
   7110.00  4.1972189E-02
   7110.33  5.7039003E-02
   7110.67  8.1526821E-02
   7111.00  1.1422446E-01
   7111.33  1.4015283E-01
   7111.67  1.5280831E-01
   7112.00  1.6251630E-01
   7112.33  1.8122179E-01
   7112.67  2.0054156E-01
   7113.00  2.1545185E-01
   7113.33  2.4108122E-01
   7113.67  2.7569248E-01
   7114.00  2.8467856E-01
   7114.33  2.4482850E-01
   7114.67  1.9982072E-01
   7115.00  1.6658845E-01
   7115.33  1.3922155E-01
   7115.67  1.1563829E-01
   7116.00  1.0045402E-01
   7116.33  9.5773591E-02
   7116.67  9.8633293E-02
   7117.00  1.0669601E-01
   7117.33  1.1566898E-01
   7117.67  1.2116452E-01
   7118.00  1.2265606E-01
   7118.33  1.2270383E-01
   7118.67  1.2410515E-01
   7119.00  1.2764177E-01
   7119.33  1.3332271E-01
   7119.67  1.4038660E-01
   7120.00  1.4851886E-01
   7120.33  1.5768081E-01
   7120.67  1.6769857E-01
   7121.00  1.7844629E-01
   7121.33  1.8962182E-01
   7121.67  2.0066955E-01
   7122.00  2.1131270E-01
   7122.33  2.2171614E-01
   7122.67  2.3211194E-01
   7123.00  2.4187612E-01
   7123.33  2.4939069E-01
   7123.67  2.5463896E-01
   7124.00  2.5859822E-01
   7124.33  2.6235576E-01
   7124.67  2.6624773E-01
   7125.00  2.7024965E-01
   7125.33  2.7468591E-01
   7125.67  2.7993510E-01
   7126.00  2.8608979E-01
   7126.33  2.9297178E-01
   7126.67  3.0003201E-01
   7127.00  3.0695067E-01
   7127.33  3.1372673E-01
   7127.67  3.2062996E-01
   7128.00  3.2774965E-01
   7128.33  3.3498756E-01
   7128.67  3.4227890E-01
   7129.00  3.4987305E-01
   7129.33  3.5856608E-01
   7129.67  3.6908085E-01
   7130.00  3.8205178E-01
   7130.33  3.9829956E-01
   7130.67  4.1755750E-01
   7131.00  4.3971178E-01
   7131.33  4.6497556E-01
   7131.67  4.9298551E-01
   7132.00  5.2355176E-01
   7132.33  5.5594831E-01
   7132.67  5.8820392E-01
   7133.00  6.1857565E-01
   7133.33  6.4528244E-01
   7133.67  6.6861098E-01
   7134.00  6.8908450E-01
   7134.33  7.0665343E-01
   7134.67  7.2116819E-01
   7135.00  7.3204283E-01
   7135.33  7.3845739E-01
   7135.67  7.4105152E-01
   7136.00  7.4016150E-01
   7136.33  7.3591922E-01
   7136.67  7.2928620E-01
   7137.00  7.2082660E-01
   7137.33  7.1107383E-01
   7137.67  7.0080480E-01
   7138.00  6.9050945E-01
   7138.33  6.8076978E-01
   7138.67  6.7198615E-01
   7139.00  6.6447974E-01
   7139.33  6.5867051E-01
   7139.67  6.5439464E-01
   7140.00  6.5148572E-01
   7140.33  6.4967733E-01
   7140.67  6.4834024E-01
   7141.00  6.4703894E-01
   7141.33  6.4530208E-01
   7141.67  6.4289032E-01
   7142.00  6.3968048E-01
   7142.33  6.3557569E-01
   7142.67  6.3085084E-01
   7143.00  6.2579806E-01
   7143.33  6.2088616E-01
   7143.67  6.1657533E-01
   7144.00  6.1320607E-01
   7144.33  6.1116901E-01
   7144.67  6.1037255E-01
   7145.00  6.1074221E-01
   7145.33  6.1223409E-01
   7145.67  6.1453048E-01
   7146.00  6.1748096E-01
   7146.33  6.2100429E-01
   7146.67  6.2491444E-01
   7147.00  6.2911094E-01
   7147.33  6.3348727E-01
   7147.67  6.3787901E-01
   7148.00  6.4215144E-01
   7148.33  6.4610734E-01
   7148.67  6.4963608E-01
   7149.00  6.5263056E-01
   7149.33  6.5489867E-01
   7149.67  6.5642025E-01
   7150.00  6.5711455E-01
   7150.33  6.5677336E-01
   7150.67  6.5541690E-01
   7151.00  6.5296668E-01
   7151.33  6.4920205E-01
   7151.67  6.4423689E-01
   7152.00  6.3809390E-01
   7152.33  6.3073358E-01
   7152.67  6.2246356E-01
   7153.00  6.1348441E-01
   7153.33  6.0401235E-01
   7153.67  5.9438213E-01
   7154.00  5.8481601E-01
   7154.33  5.7556140E-01
   7154.67  5.6673334E-01
   7155.00  5.5840923E-01
   7155.33  5.5069351E-01
   7155.67  5.4351111E-01
   7156.00  5.3683380E-01
   7156.33  5.3067628E-01
   7156.67  5.2494036E-01
   7157.00  5.1960112E-01
   7157.33  5.1469274E-01
   7157.67  5.1016865E-01
   7158.00  5.0603648E-01
   7158.33  5.0235128E-01
   7158.67  4.9905065E-01
   7159.00  4.9610957E-01
   7159.33  4.9352494E-01
   7159.67  4.9119964E-01
   7160.00  4.8907893E-01
   7160.33  4.8711851E-01
   7160.67  4.8524743E-01
   7161.00  4.8343784E-01
   7161.33  4.8169149E-01
   7161.67  4.8001722E-01
   7162.00  4.7843840E-01
   7162.33  4.7700141E-01
   7162.67  4.7571825E-01
   7163.00  4.7460711E-01
   7163.33  4.7370404E-01
   7163.67  4.7298975E-01
   7164.00  4.7246100E-01
   7164.33  4.7212963E-01
   7164.67  4.7195881E-01
   7165.00  4.7193380E-01
   7165.33  4.7205316E-01
   7165.67  4.7228422E-01
   7166.00  4.7261348E-01
   7166.33  4.7303665E-01
   7166.67  4.7352963E-01
   7167.00  4.7408109E-01
   7167.33  4.7468323E-01
   7167.67  4.7531673E-01
   7168.00  4.7597045E-01
   7168.33  4.7663369E-01
   7168.67  4.7729396E-01
   7169.00  4.7794068E-01
   7169.33  4.7855787E-01
   7169.67  4.7913637E-01
   7170.00  4.7966563E-01
   7170.33  4.8012599E-01
   7170.67  4.8051407E-01
   7171.00  4.8082217E-01
   7171.33  4.8103612E-01
   7171.67  4.8117342E-01
   7172.00  4.8125246E-01
