    FDMNES
    energy     <xanes>
   7097.00  4.5260298E-03
   7097.33  4.6218761E-03
   7097.67  4.7216240E-03
   7098.00  4.8255163E-03
   7098.33  4.9344215E-03
   7098.67  5.0481272E-03
   7099.00  5.1669597E-03
   7099.33  5.2920334E-03
   7099.67  5.4231259E-03
   7100.00  5.5606866E-03
   7100.33  5.7061831E-03
   7100.67  5.8593965E-03
   7101.00  6.0209659E-03
   7101.33  6.1928845E-03
   7101.67  6.3749687E-03
   7102.00  6.5681631E-03
   7102.33  6.7752779E-03
   7102.67  6.9962381E-03
   7103.00  7.2325053E-03
   7103.33  7.4882318E-03
   7103.67  7.7636206E-03
   7104.00  8.0610678E-03
   7104.33  8.3870844E-03
   7104.67  8.7425644E-03
   7105.00  9.1317383E-03
   7105.33  9.5656396E-03
   7105.67  1.0046949E-02
   7106.00  1.0583901E-02
   7106.33  1.1197267E-02
   7106.67  1.1894795E-02
   7107.00  1.2694831E-02
   7107.33  1.3642764E-02
   7107.67  1.4763170E-02
   7108.00  1.6105852E-02
   7108.33  1.7795034E-02
   7108.67  1.9927457E-02
   7109.00  2.2687382E-02
   7109.33  2.6564622E-02
   7109.67  3.2122034E-02
   7110.00  4.0470185E-02
   7110.33  5.4805244E-02
   7110.67  7.8273592E-02
   7111.00  1.1015917E-01
   7111.33  1.3727983E-01
   7111.67  1.5341329E-01
   7112.00  1.5864230E-01
   7112.33  1.5481218E-01
   7112.67  1.4994280E-01
   7113.00  1.4657055E-01
   7113.33  1.5111876E-01
   7113.67  1.7055328E-01
   7114.00  2.0849772E-01
   7114.33  2.5232423E-01
   7114.67  2.6802427E-01
   7115.00  2.4319778E-01
   7115.33  1.9861941E-01
   7115.67  1.6134533E-01
   7116.00  1.3540969E-01
   7116.33  1.2166075E-01
   7116.67  1.1818202E-01
   7117.00  1.2398190E-01
   7117.33  1.3725510E-01
   7117.67  1.5201180E-01
   7118.00  1.6377272E-01
   7118.33  1.7003963E-01
   7118.67  1.7282836E-01
   7119.00  1.7410053E-01
   7119.33  1.7528376E-01
   7119.67  1.7712754E-01
   7120.00  1.8055068E-01
   7120.33  1.8728181E-01
   7120.67  1.9747218E-01
   7121.00  2.1019283E-01
   7121.33  2.2317898E-01
   7121.67  2.3444296E-01
   7122.00  2.4364897E-01
   7122.33  2.5180676E-01
   7122.67  2.6069088E-01
   7123.00  2.7105697E-01
   7123.33  2.8270785E-01
   7123.67  2.9444912E-01
   7124.00  3.0553626E-01
   7124.33  3.1592416E-01
   7124.67  3.2641587E-01
   7125.00  3.3729934E-01
   7125.33  3.4777845E-01
   7125.67  3.5697989E-01
   7126.00  3.6497386E-01
   7126.33  3.7215445E-01
   7126.67  3.7879282E-01
   7127.00  3.8533544E-01
   7127.33  3.9347559E-01
   7127.67  4.0458771E-01
   7128.00  4.1879797E-01
   7128.33  4.3503082E-01
   7128.67  4.5167593E-01
   7129.00  4.6853849E-01
   7129.33  4.8662003E-01
   7129.67  5.0698794E-01
   7130.00  5.3053594E-01
   7130.33  5.5856070E-01
   7130.67  5.9100246E-01
   7131.00  6.2761246E-01
   7131.33  6.6712402E-01
   7131.67  7.0637012E-01
   7132.00  7.4292935E-01
   7132.33  7.7494727E-01
   7132.67  8.0329583E-01
   7133.00  8.2860506E-01
   7133.33  8.5000275E-01
   7133.67  8.6594415E-01
   7134.00  8.7433896E-01
   7134.33  8.7234347E-01
   7134.67  8.6114194E-01
   7135.00  8.4262672E-01
   7135.33  8.1993858E-01
   7135.67  7.9671387E-01
   7136.00  7.7445576E-01
   7136.33  7.5389381E-01
   7136.67  7.3467577E-01
   7137.00  7.1646376E-01
   7137.33  6.9896801E-01
   7137.67  6.8191329E-01
   7138.00  6.6532493E-01
   7138.33  6.4953312E-01
   7138.67  6.3484306E-01
   7139.00  6.2162146E-01
   7139.33  6.1041982E-01
   7139.67  6.0110744E-01
   7140.00  5.9352283E-01
   7140.33  5.8738509E-01
   7140.67  5.8194511E-01
   7141.00  5.7671029E-01
   7141.33  5.7122166E-01
   7141.67  5.6529954E-01
   7142.00  5.5893983E-01
   7142.33  5.5225228E-01
   7142.67  5.4553071E-01
   7143.00  5.3904263E-01
   7143.33  5.3317617E-01
   7143.67  5.2815353E-01
   7144.00  5.2418186E-01
   7144.33  5.2158988E-01
   7144.67  5.2031241E-01
   7145.00  5.2034897E-01
   7145.33  5.2179205E-01
   7145.67  5.2438506E-01
   7146.00  5.2802736E-01
   7146.33  5.3269982E-01
   7146.67  5.3812410E-01
   7147.00  5.4412667E-01
   7147.33  5.5051048E-01
   7147.67  5.5697423E-01
   7148.00  5.6330641E-01
   7148.33  5.6925832E-01
   7148.67  5.7471965E-01
   7149.00  5.7959901E-01
   7149.33  5.8374512E-01
   7149.67  5.8719828E-01
   7150.00  5.8993065E-01
   7150.33  5.9178790E-01
   7150.67  5.9275665E-01
   7151.00  5.9270193E-01
   7151.33  5.9129683E-01
   7151.67  5.8853682E-01
   7152.00  5.8434280E-01
   7152.33  5.7853523E-01
   7152.67  5.7140268E-01
   7153.00  5.6312368E-01
   7153.33  5.5386140E-01
   7153.67  5.4401267E-01
   7154.00  5.3381224E-01
   7154.33  5.2348922E-01
   7154.67  5.1325565E-01
   7155.00  5.0324279E-01
   7155.33  4.9359985E-01
   7155.67  4.8435197E-01
   7156.00  4.7552924E-01
   7156.33  4.6719501E-01
   7156.67  4.5928272E-01
   7157.00  4.5177076E-01
   7157.33  4.4467018E-01
   7157.67  4.3789725E-01
   7158.00  4.3142158E-01
   7158.33  4.2524300E-01
   7158.67  4.1930059E-01
   7159.00  4.1357667E-01
   7159.33  4.0808787E-01
   7159.67  4.0281870E-01
   7160.00  3.9779609E-01
   7160.33  3.9310408E-01
   7160.67  3.8876937E-01
   7161.00  3.8485512E-01
   7161.33  3.8149714E-01
   7161.67  3.7870455E-01
   7162.00  3.7653228E-01
   7162.33  3.7511348E-01
   7162.67  3.7439293E-01
   7163.00  3.7437688E-01
   7163.33  3.7513639E-01
   7163.67  3.7654562E-01
   7164.00  3.7855209E-01
   7164.33  3.8114058E-01
   7164.67  3.8415015E-01
   7165.00  3.8748975E-01
   7165.33  3.9107958E-01
   7165.67  3.9479176E-01
   7166.00  3.9855250E-01
   7166.33  4.0229241E-01
   7166.67  4.0596860E-01
   7167.00  4.0955872E-01
   7167.33  4.1304001E-01
   7167.67  4.1642404E-01
   7168.00  4.1971248E-01
   7168.33  4.2289332E-01
   7168.67  4.2597597E-01
   7169.00  4.2895577E-01
   7169.33  4.3180947E-01
   7169.67  4.3453597E-01
   7170.00  4.3711612E-01
   7170.33  4.3949763E-01
   7170.67  4.4166457E-01
   7171.00  4.4358037E-01
   7171.33  4.4516753E-01
   7171.67  4.4643449E-01
   7172.00  4.4738109E-01
