    FDMNES
    energy     <xanes>
   7097.00  4.6189928E-03
   7097.33  4.7177877E-03
   7097.67  4.8206069E-03
   7098.00  4.9276999E-03
   7098.33  5.0399603E-03
   7098.67  5.1571680E-03
   7099.00  5.2796577E-03
   7099.33  5.4085759E-03
   7099.67  5.5436917E-03
   7100.00  5.6854665E-03
   7100.33  5.8354100E-03
   7100.67  5.9932954E-03
   7101.00  6.1597800E-03
   7101.33  6.3369151E-03
   7101.67  6.5245127E-03
   7102.00  6.7235468E-03
   7102.33  6.9369152E-03
   7102.67  7.1645477E-03
   7103.00  7.4079592E-03
   7103.33  7.6714477E-03
   7103.67  7.9552457E-03
   7104.00  8.2618558E-03
   7104.33  8.5980623E-03
   7104.67  8.9648555E-03
   7105.00  9.3667018E-03
   7105.33  9.8152166E-03
   7105.67  1.0313368E-02
   7106.00  1.0869978E-02
   7106.33  1.1507236E-02
   7106.67  1.2233786E-02
   7107.00  1.3069648E-02
   7107.33  1.4064267E-02
   7107.67  1.5245398E-02
   7108.00  1.6668574E-02
   7108.33  1.8472422E-02
   7108.67  2.0767920E-02
   7109.00  2.3765547E-02
   7109.33  2.8026935E-02
   7109.67  3.4209872E-02
   7110.00  4.3613399E-02
   7110.33  5.9977044E-02
   7110.67  8.6856522E-02
   7111.00  1.2260257E-01
   7111.33  1.4905438E-01
   7111.67  1.6021900E-01
   7112.00  1.6849711E-01
   7112.33  1.8346845E-01
   7112.67  1.9482745E-01
   7113.00  1.8904939E-01
   7113.33  1.7078570E-01
   7113.67  1.5006895E-01
   7114.00  1.2677897E-01
   7114.33  1.0580900E-01
   7114.67  9.0202399E-02
   7115.00  8.0403103E-02
   7115.33  7.6291091E-02
   7115.67  7.6273804E-02
   7116.00  7.9916526E-02
   7116.33  8.7639820E-02
   7116.67  9.9160794E-02
   7117.00  1.1446259E-01
   7117.33  1.3370020E-01
   7117.67  1.5666207E-01
   7118.00  1.8491350E-01
   7118.33  2.2335055E-01
   7118.67  2.7424347E-01
   7119.00  3.3608895E-01
   7119.33  3.9755934E-01
   7119.67  4.4021673E-01
   7120.00  4.5379869E-01
   7120.33  4.4162595E-01
   7120.67  4.2158033E-01
   7121.00  4.0133518E-01
   7121.33  3.8292846E-01
   7121.67  3.6594690E-01
   7122.00  3.5130034E-01
   7122.33  3.4196941E-01
   7122.67  3.3922634E-01
   7123.00  3.4203613E-01
   7123.33  3.4494879E-01
   7123.67  3.4355561E-01
   7124.00  3.4127510E-01
   7124.33  3.4604872E-01
   7124.67  3.5864956E-01
   7125.00  3.7609441E-01
   7125.33  3.9417643E-01
   7125.67  4.1000435E-01
   7126.00  4.2300285E-01
   7126.33  4.3413094E-01
   7126.67  4.4498509E-01
   7127.00  4.5606310E-01
   7127.33  4.6733596E-01
   7127.67  4.7874948E-01
   7128.00  4.9063138E-01
   7128.33  5.0355710E-01
   7128.67  5.1728234E-01
   7129.00  5.3105210E-01
   7129.33  5.4372668E-01
   7129.67  5.5506335E-01
   7130.00  5.6530774E-01
   7130.33  5.7478398E-01
   7130.67  5.8389382E-01
   7131.00  5.9289791E-01
   7131.33  6.0205019E-01
   7131.67  6.1134829E-01
   7132.00  6.2064613E-01
   7132.33  6.2967301E-01
   7132.67  6.3803220E-01
   7133.00  6.4492200E-01
   7133.33  6.4827317E-01
   7133.67  6.4673764E-01
   7134.00  6.4011882E-01
   7134.33  6.2979442E-01
   7134.67  6.1860935E-01
   7135.00  6.0806772E-01
   7135.33  5.9913821E-01
   7135.67  5.9164862E-01
   7136.00  5.8527714E-01
   7136.33  5.7961960E-01
   7136.67  5.7415012E-01
   7137.00  5.6858082E-01
   7137.33  5.6269586E-01
   7137.67  5.5653836E-01
   7138.00  5.5026079E-01
   7138.33  5.4419354E-01
   7138.67  5.3869380E-01
   7139.00  5.3409243E-01
   7139.33  5.3088161E-01
   7139.67  5.2915173E-01
   7140.00  5.2900817E-01
   7140.33  5.3060463E-01
   7140.67  5.3350596E-01
   7141.00  5.3736248E-01
   7141.33  5.4175302E-01
   7141.67  5.4620138E-01
   7142.00  5.5050419E-01
   7142.33  5.5462122E-01
   7142.67  5.5871941E-01
   7143.00  5.6296817E-01
   7143.33  5.6759338E-01
   7143.67  5.7269843E-01
   7144.00  5.7835447E-01
   7144.33  5.8463481E-01
   7144.67  5.9137892E-01
   7145.00  5.9843028E-01
   7145.33  6.0553186E-01
   7145.67  6.1235560E-01
   7146.00  6.1860688E-01
   7146.33  6.2384945E-01
   7146.67  6.2792528E-01
   7147.00  6.3066159E-01
   7147.33  6.3174592E-01
   7147.67  6.3130453E-01
   7148.00  6.2933936E-01
   7148.33  6.2571790E-01
   7148.67  6.2072167E-01
   7149.00  6.1446933E-01
   7149.33  6.0700654E-01
   7149.67  5.9869738E-01
   7150.00  5.8977332E-01
   7150.33  5.8047825E-01
   7150.67  5.7113842E-01
   7151.00  5.6198626E-01
   7151.33  5.5331385E-01
   7151.67  5.4525652E-01
   7152.00  5.3792701E-01
   7152.33  5.3149205E-01
   7152.67  5.2585074E-01
   7153.00  5.2094956E-01
   7153.33  5.1674782E-01
   7153.67  5.1300226E-01
   7154.00  5.0954560E-01
   7154.33  5.0617298E-01
   7154.67  5.0264902E-01
   7155.00  4.9878015E-01
   7155.33  4.9428439E-01
   7155.67  4.8904904E-01
   7156.00  4.8295545E-01
   7156.33  4.7581016E-01
   7156.67  4.6774038E-01
   7157.00  4.5883512E-01
   7157.33  4.4920849E-01
   7157.67  4.3921691E-01
   7158.00  4.2914058E-01
   7158.33  4.1935078E-01
   7158.67  4.1013219E-01
   7159.00  4.0171491E-01
   7159.33  3.9442742E-01
   7159.67  3.8827512E-01
   7160.00  3.8332149E-01
   7160.33  3.7974867E-01
   7160.67  3.7738245E-01
   7161.00  3.7617090E-01
   7161.33  3.7615760E-01
   7161.67  3.7709500E-01
   7162.00  3.7887198E-01
   7162.33  3.8143738E-01
   7162.67  3.8456061E-01
   7163.00  3.8812065E-01
   7163.33  3.9202029E-01
   7163.67  3.9609535E-01
   7164.00  4.0024520E-01
   7164.33  4.0436040E-01
   7164.67  4.0835468E-01
   7165.00  4.1216541E-01
   7165.33  4.1570811E-01
   7165.67  4.1897639E-01
   7166.00  4.2195563E-01
   7166.33  4.2461409E-01
   7166.67  4.2701105E-01
   7167.00  4.2917878E-01
   7167.33  4.3114179E-01
   7167.67  4.3297479E-01
   7168.00  4.3472187E-01
   7168.33  4.3642480E-01
   7168.67  4.3812512E-01
   7169.00  4.3984344E-01
   7169.33  4.4159260E-01
   7169.67  4.4336194E-01
   7170.00  4.4513279E-01
   7170.33  4.4686852E-01
   7170.67  4.4853288E-01
   7171.00  4.5008881E-01
   7171.33  4.5147290E-01
   7171.67  4.5265563E-01
   7172.00  4.5359082E-01
