    FDMNES
    energy     <xanes>
   7097.00  4.5527115E-03
   7097.33  4.6458772E-03
   7097.67  4.7426834E-03
   7098.00  4.8433475E-03
   7098.33  4.9486638E-03
   7098.67  5.0584221E-03
   7099.00  5.1729113E-03
   7099.33  5.2931416E-03
   7099.67  5.4188898E-03
   7100.00  5.5505507E-03
   7100.33  5.6894410E-03
   7100.67  5.8353360E-03
   7101.00  5.9887926E-03
   7101.33  6.1515803E-03
   7101.67  6.3234998E-03
   7102.00  6.5053679E-03
   7102.33  6.6996552E-03
   7102.67  6.9062497E-03
   7103.00  7.1264090E-03
   7103.33  7.3637531E-03
   7103.67  7.6184042E-03
   7104.00  7.8924201E-03
   7104.33  8.1914464E-03
   7104.67  8.5162033E-03
   7105.00  8.8703347E-03
   7105.33  9.2634025E-03
   7105.67  9.6977078E-03
   7106.00  1.0180412E-02
   7106.33  1.0729639E-02
   7106.67  1.1352277E-02
   7107.00  1.2064571E-02
   7107.33  1.2906802E-02
   7107.67  1.3901490E-02
   7108.00  1.5093970E-02
   7108.33  1.6597755E-02
   7108.67  1.8504416E-02
   7109.00  2.0988042E-02
   7109.33  2.4514895E-02
   7109.67  2.9636982E-02
   7110.00  3.7446647E-02
   7110.33  5.1093681E-02
   7110.67  7.3545479E-02
   7111.00  1.0323054E-01
   7111.33  1.2537802E-01
   7111.67  1.3475625E-01
   7112.00  1.3471928E-01
   7112.33  1.3016676E-01
   7112.67  1.2408024E-01
   7113.00  1.1613504E-01
   7113.33  1.0630735E-01
   7113.67  9.6824137E-02
   7114.00  8.9621693E-02
   7114.33  8.5865627E-02
   7114.67  8.5278606E-02
   7115.00  8.8230222E-02
   7115.33  9.6166410E-02
   7115.67  1.0988859E-01
   7116.00  1.3080344E-01
   7116.33  1.6121572E-01
   7116.67  1.9913036E-01
   7117.00  2.3982917E-01
   7117.33  2.7180866E-01
   7117.67  2.8609477E-01
   7118.00  2.8164999E-01
   7118.33  2.6583523E-01
   7118.67  2.4935772E-01
   7119.00  2.3670526E-01
   7119.33  2.3160916E-01
   7119.67  2.3423070E-01
   7120.00  2.4389390E-01
   7120.33  2.6059574E-01
   7120.67  2.8428083E-01
   7121.00  3.1489647E-01
   7121.33  3.4786548E-01
   7121.67  3.7457374E-01
   7122.00  3.9100114E-01
   7122.33  3.9699521E-01
   7122.67  3.9755024E-01
   7123.00  3.9763072E-01
   7123.33  4.0192342E-01
   7123.67  4.0787150E-01
   7124.00  4.1089211E-01
   7124.33  4.0782167E-01
   7124.67  4.0167942E-01
   7125.00  3.9546056E-01
   7125.33  3.9090348E-01
   7125.67  3.8790939E-01
   7126.00  3.8600525E-01
   7126.33  3.8393145E-01
   7126.67  3.8048377E-01
   7127.00  3.7574334E-01
   7127.33  3.7173883E-01
   7127.67  3.7124724E-01
   7128.00  3.7620154E-01
   7128.33  3.8839493E-01
   7128.67  4.0663976E-01
   7129.00  4.2948958E-01
   7129.33  4.5454655E-01
   7129.67  4.7889083E-01
   7130.00  5.0090990E-01
   7130.33  5.1974872E-01
   7130.67  5.3692370E-01
   7131.00  5.5428013E-01
   7131.33  5.7432190E-01
   7131.67  5.9801959E-01
   7132.00  6.2492945E-01
   7132.33  6.5245680E-01
   7132.67  6.7629360E-01
   7133.00  6.9273252E-01
   7133.33  6.9794595E-01
   7133.67  6.9370004E-01
   7134.00  6.8265328E-01
   7134.33  6.6865597E-01
   7134.67  6.5557298E-01
   7135.00  6.4508847E-01
   7135.33  6.3819542E-01
   7135.67  6.3436429E-01
   7136.00  6.3338366E-01
   7136.33  6.3545774E-01
   7136.67  6.4012153E-01
   7137.00  6.4706503E-01
   7137.33  6.5583747E-01
   7137.67  6.6556841E-01
   7138.00  6.7586674E-01
   7138.33  6.8627948E-01
   7138.67  6.9590412E-01
   7139.00  7.0356813E-01
   7139.33  7.0742502E-01
   7139.67  7.0704146E-01
   7140.00  7.0238673E-01
   7140.33  6.9357231E-01
   7140.67  6.8187505E-01
   7141.00  6.6798657E-01
   7141.33  6.5249262E-01
   7141.67  6.3628800E-01
   7142.00  6.1990601E-01
   7142.33  6.0386902E-01
   7142.67  5.8845912E-01
   7143.00  5.7383873E-01
   7143.33  5.6023427E-01
   7143.67  5.4761914E-01
   7144.00  5.3605628E-01
   7144.33  5.2573437E-01
   7144.67  5.1653220E-01
   7145.00  5.0841693E-01
   7145.33  5.0140129E-01
   7145.67  4.9518836E-01
   7146.00  4.8960045E-01
   7146.33  4.8448659E-01
   7146.67  4.7962934E-01
   7147.00  4.7493958E-01
   7147.33  4.7040217E-01
   7147.67  4.6605178E-01
   7148.00  4.6199896E-01
   7148.33  4.5848490E-01
   7148.67  4.5565084E-01
   7149.00  4.5366189E-01
   7149.33  4.5278692E-01
   7149.67  4.5294779E-01
   7150.00  4.5406793E-01
   7150.33  4.5598637E-01
   7150.67  4.5820756E-01
   7151.00  4.6031094E-01
   7151.33  4.6176137E-01
   7151.67  4.6231593E-01
   7152.00  4.6187716E-01
   7152.33  4.6040936E-01
   7152.67  4.5823798E-01
   7153.00  4.5558263E-01
   7153.33  4.5266177E-01
   7153.67  4.4971786E-01
   7154.00  4.4689907E-01
   7154.33  4.4437339E-01
   7154.67  4.4221073E-01
   7155.00  4.4047776E-01
   7155.33  4.3928916E-01
   7155.67  4.3861151E-01
   7156.00  4.3844643E-01
   7156.33  4.3883322E-01
   7156.67  4.3966690E-01
   7157.00  4.4089925E-01
   7157.33  4.4251123E-01
   7157.67  4.4440195E-01
   7158.00  4.4652971E-01
   7158.33  4.4888627E-01
   7158.67  4.5143100E-01
   7159.00  4.5416605E-01
   7159.33  4.5712777E-01
   7159.67  4.6029545E-01
   7160.00  4.6365339E-01
   7160.33  4.6716500E-01
   7160.67  4.7071975E-01
   7161.00  4.7420746E-01
   7161.33  4.7744747E-01
   7161.67  4.8030392E-01
   7162.00  4.8264752E-01
   7162.33  4.8428876E-01
   7162.67  4.8525136E-01
   7163.00  4.8553828E-01
   7163.33  4.8513125E-01
   7163.67  4.8421602E-01
   7164.00  4.8291334E-01
   7164.33  4.8135048E-01
   7164.67  4.7971311E-01
   7165.00  4.7812411E-01
   7165.33  4.7672549E-01
   7165.67  4.7559080E-01
   7166.00  4.7478026E-01
   7166.33  4.7438694E-01
   7166.67  4.7438924E-01
   7167.00  4.7479402E-01
   7167.33  4.7564476E-01
   7167.67  4.7687261E-01
   7168.00  4.7845177E-01
   7168.33  4.8038159E-01
   7168.67  4.8257536E-01
   7169.00  4.8498791E-01
   7169.33  4.8758434E-01
   7169.67  4.9028736E-01
   7170.00  4.9304727E-01
   7170.33  4.9580477E-01
   7170.67  4.9849832E-01
   7171.00  5.0107041E-01
   7171.33  5.0341800E-01
   7171.67  5.0546271E-01
   7172.00  5.0709453E-01
