    FDMNES
    energy     <xanes>
   7097.00  3.9661530E-03
   7097.33  4.0405127E-03
   7097.67  4.1175736E-03
   7098.00  4.1974940E-03
   7098.33  4.2808590E-03
   7098.67  4.3675103E-03
   7099.00  4.4576600E-03
   7099.33  4.5520537E-03
   7099.67  4.6505265E-03
   7100.00  4.7533716E-03
   7100.33  4.8615659E-03
   7100.67  4.9749490E-03
   7101.00  5.0939404E-03
   7101.33  5.2198656E-03
   7101.67  5.3525929E-03
   7102.00  5.4927491E-03
   7102.33  5.6422108E-03
   7102.67  5.8009313E-03
   7103.00  5.9698968E-03
   7103.33  6.1519090E-03
   7103.67  6.3471378E-03
   7104.00  6.5572373E-03
   7104.33  6.7866805E-03
   7104.67  7.0361803E-03
   7105.00  7.3087431E-03
   7105.33  7.6121537E-03
   7105.67  7.9485503E-03
   7106.00  8.3239973E-03
   7106.33  8.7536826E-03
   7106.67  9.2438704E-03
   7107.00  9.8086403E-03
   7107.33  1.0482676E-02
   7107.67  1.1286271E-02
   7108.00  1.2259381E-02
   7108.33  1.3501713E-02
   7108.67  1.5095116E-02
   7109.00  1.7193799E-02
   7109.33  2.0209287E-02
   7109.67  2.4627611E-02
   7110.00  3.1406945E-02
   7110.33  4.3331090E-02
   7110.67  6.3355946E-02
   7111.00  9.1607475E-02
   7111.33  1.1582317E-01
   7111.67  1.2509279E-01
   7112.00  1.2028522E-01
   7112.33  1.0782873E-01
   7112.67  9.2153102E-02
   7113.00  7.8093179E-02
   7113.33  7.1826994E-02
   7113.67  7.4729361E-02
   7114.00  8.7283938E-02
   7114.33  1.0608298E-01
   7114.67  1.2076686E-01
   7115.00  1.1115245E-01
   7115.33  8.1724786E-02
   7115.67  6.0402787E-02
   7116.00  4.8608598E-02
   7116.33  4.2920813E-02
   7116.67  4.0017006E-02
   7117.00  3.8769964E-02
   7117.33  3.8517088E-02
   7117.67  3.8592784E-02
   7118.00  3.8806744E-02
   7118.33  3.9295991E-02
   7118.67  4.0215457E-02
   7119.00  4.1693088E-02
   7119.33  4.3959091E-02
   7119.67  4.7097920E-02
   7120.00  5.1302437E-02
   7120.33  5.7044907E-02
   7120.67  6.4506112E-02
   7121.00  7.3924782E-02
   7121.33  8.5523915E-02
   7121.67  9.8507492E-02
   7122.00  1.1217351E-01
   7122.33  1.2623676E-01
   7122.67  1.4095851E-01
   7123.00  1.5624499E-01
   7123.33  1.7070350E-01
   7123.67  1.8332845E-01
   7124.00  1.9511150E-01
   7124.33  2.0933729E-01
   7124.67  2.2824112E-01
   7125.00  2.5257851E-01
   7125.33  2.8274854E-01
   7125.67  3.1714033E-01
   7126.00  3.5431620E-01
   7126.33  3.9136455E-01
   7126.67  4.2468517E-01
   7127.00  4.5228322E-01
   7127.33  4.7410612E-01
   7127.67  4.9445338E-01
   7128.00  5.1744962E-01
   7128.33  5.4690054E-01
   7128.67  5.8220000E-01
   7129.00  6.2135230E-01
   7129.33  6.6008858E-01
   7129.67  6.9322579E-01
   7130.00  7.1722290E-01
   7130.33  7.3002182E-01
   7130.67  7.3564693E-01
   7131.00  7.3795999E-01
   7131.33  7.4165423E-01
   7131.67  7.4969554E-01
   7132.00  7.6294267E-01
   7132.33  7.8130046E-01
   7132.67  8.0270184E-01
   7133.00  8.2567630E-01
   7133.33  8.4847283E-01
   7133.67  8.6948514E-01
   7134.00  8.8767588E-01
   7134.33  9.0232246E-01
   7134.67  9.1416323E-01
   7135.00  9.2291087E-01
   7135.33  9.2588083E-01
   7135.67  9.2098477E-01
   7136.00  9.0713461E-01
   7136.33  8.8461596E-01
   7136.67  8.5754056E-01
   7137.00  8.2886573E-01
   7137.33  8.0134477E-01
   7137.67  7.7628192E-01
   7138.00  7.5411525E-01
   7138.33  7.3513842E-01
   7138.67  7.1863498E-01
   7139.00  7.0422876E-01
   7139.33  6.9173814E-01
   7139.67  6.8066340E-01
   7140.00  6.7085673E-01
   7140.33  6.6239024E-01
   7140.67  6.5510773E-01
   7141.00  6.4903005E-01
   7141.33  6.4433566E-01
   7141.67  6.4087197E-01
   7142.00  6.3860964E-01
   7142.33  6.3761817E-01
   7142.67  6.3764340E-01
   7143.00  6.3855179E-01
   7143.33  6.4022521E-01
   7143.67  6.4232088E-01
   7144.00  6.4457272E-01
   7144.33  6.4659792E-01
   7144.67  6.4803355E-01
   7145.00  6.4855340E-01
   7145.33  6.4768567E-01
   7145.67  6.4539799E-01
   7146.00  6.4167893E-01
   7146.33  6.3652895E-01
   7146.67  6.3039183E-01
   7147.00  6.2355580E-01
   7147.33  6.1628738E-01
   7147.67  6.0886813E-01
   7148.00  6.0141800E-01
   7148.33  5.9400706E-01
   7148.67  5.8663320E-01
   7149.00  5.7927173E-01
   7149.33  5.7189116E-01
   7149.67  5.6447683E-01
   7150.00  5.5702556E-01
   7150.33  5.4953170E-01
   7150.67  5.4199293E-01
   7151.00  5.3439096E-01
   7151.33  5.2667148E-01
   7151.67  5.1879128E-01
   7152.00  5.1070183E-01
   7152.33  5.0232064E-01
   7152.67  4.9363970E-01
   7153.00  4.8463985E-01
   7153.33  4.7528007E-01
   7153.67  4.6561406E-01
   7154.00  4.5566539E-01
   7154.33  4.4544559E-01
   7154.67  4.3503802E-01
   7155.00  4.2449551E-01
   7155.33  4.1387614E-01
   7155.67  4.0325956E-01
   7156.00  3.9271069E-01
   7156.33  3.8232577E-01
   7156.67  3.7216552E-01
   7157.00  3.6229768E-01
   7157.33  3.5284539E-01
   7157.67  3.4383713E-01
   7158.00  3.3533527E-01
   7158.33  3.2747564E-01
   7158.67  3.2023662E-01
   7159.00  3.1364753E-01
   7159.33  3.0780942E-01
   7159.67  3.0264024E-01
   7160.00  2.9813102E-01
   7160.33  2.9434659E-01
   7160.67  2.9119197E-01
   7161.00  2.8865907E-01
   7161.33  2.8682767E-01
   7161.67  2.8563603E-01
   7162.00  2.8510495E-01
   7162.33  2.8534681E-01
   7162.67  2.8630286E-01
   7163.00  2.8799192E-01
   7163.33  2.9051454E-01
   7163.67  2.9376554E-01
   7164.00  2.9771457E-01
   7164.33  3.0238237E-01
   7164.67  3.0760637E-01
   7165.00  3.1330063E-01
   7165.33  3.1939940E-01
   7165.67  3.2574365E-01
   7166.00  3.3224058E-01
   7166.33  3.3880428E-01
   7166.67  3.4535536E-01
   7167.00  3.5184937E-01
   7167.33  3.5824149E-01
   7167.67  3.6452871E-01
   7168.00  3.7071161E-01
   7168.33  3.7678906E-01
   7168.67  3.8278807E-01
   7169.00  3.8872166E-01
   7169.33  3.9459503E-01
   7169.67  4.0041928E-01
   7170.00  4.0618894E-01
   7170.33  4.1187400E-01
   7170.67  4.1744187E-01
   7171.00  4.2283064E-01
   7171.33  4.2787766E-01
   7171.67  4.3239437E-01
   7172.00  4.3608838E-01
