    FDMNES
    energy     <xanes>
   7097.00  4.3175330E-03
   7097.33  4.4063567E-03
   7097.67  4.4986703E-03
   7098.00  4.5946879E-03
   7098.33  4.6951809E-03
   7098.67  4.7999561E-03
   7099.00  4.9093016E-03
   7099.33  5.0242074E-03
   7099.67  5.1444730E-03
   7100.00  5.2704969E-03
   7100.33  5.4035855E-03
   7100.67  5.5435445E-03
   7101.00  5.6909455E-03
   7101.33  5.8475693E-03
   7101.67  6.0132611E-03
   7102.00  6.1888737E-03
   7102.33  6.3769365E-03
   7102.67  6.5774070E-03
   7103.00  6.7916230E-03
   7103.33  7.0233623E-03
   7103.67  7.2728660E-03
   7104.00  7.5423635E-03
   7104.33  7.8378672E-03
   7104.67  8.1603207E-03
   7105.00  8.5137354E-03
   7105.33  8.9084932E-03
   7105.67  9.3473563E-03
   7106.00  9.8382959E-03
   7106.33  1.0401286E-02
   7106.67  1.1044258E-02
   7107.00  1.1785332E-02
   7107.33  1.2669129E-02
   7107.67  1.3720746E-02
   7108.00  1.4990122E-02
   7108.33  1.6601445E-02
   7108.67  1.8652844E-02
   7109.00  2.1329589E-02
   7109.33  2.5121969E-02
   7109.67  3.0590044E-02
   7110.00  3.8833728E-02
   7110.33  5.3044396E-02
   7110.67  7.6806413E-02
   7111.00  1.1141229E-01
   7111.33  1.4402727E-01
   7111.67  1.5914349E-01
   7112.00  1.6080030E-01
   7112.33  1.6223109E-01
   7112.67  1.6903430E-01
   7113.00  1.8254261E-01
   7113.33  1.8508863E-01
   7113.67  1.6238818E-01
   7114.00  1.2916588E-01
   7114.33  1.0257129E-01
   7114.67  8.4964782E-02
   7115.00  7.3137269E-02
   7115.33  6.3779870E-02
   7115.67  5.6810275E-02
   7116.00  5.2616004E-02
   7116.33  5.1002579E-02
   7116.67  5.1128398E-02
   7117.00  5.2666618E-02
   7117.33  5.5394302E-02
   7117.67  5.8631361E-02
   7118.00  6.1749102E-02
   7118.33  6.4305141E-02
   7118.67  6.6870084E-02
   7119.00  7.0207267E-02
   7119.33  7.5133266E-02
   7119.67  8.1832036E-02
   7120.00  9.0538408E-02
   7120.33  1.0185301E-01
   7120.67  1.1590023E-01
   7121.00  1.3314509E-01
   7121.33  1.5473802E-01
   7121.67  1.8087162E-01
   7122.00  2.1187335E-01
   7122.33  2.4790271E-01
   7122.67  2.8670877E-01
   7123.00  3.2596034E-01
   7123.33  3.6301597E-01
   7123.67  3.9732599E-01
   7124.00  4.2920568E-01
   7124.33  4.5864094E-01
   7124.67  4.8561502E-01
   7125.00  5.0937972E-01
   7125.33  5.2699836E-01
   7125.67  5.3618419E-01
   7126.00  5.3664153E-01
   7126.33  5.3241547E-01
   7126.67  5.3167407E-01
   7127.00  5.4025697E-01
   7127.33  5.6239377E-01
   7127.67  5.9376074E-01
   7128.00  6.2911092E-01
   7128.33  6.6290525E-01
   7128.67  6.9269607E-01
   7129.00  7.1759088E-01
   7129.33  7.3629402E-01
   7129.67  7.4939827E-01
   7130.00  7.5764455E-01
   7130.33  7.6252876E-01
   7130.67  7.6654683E-01
   7131.00  7.7088000E-01
   7131.33  7.7582256E-01
   7131.67  7.8068940E-01
   7132.00  7.8481448E-01
   7132.33  7.8752580E-01
   7132.67  7.8879756E-01
   7133.00  7.8862803E-01
   7133.33  7.8682063E-01
   7133.67  7.8331508E-01
   7134.00  7.7770414E-01
   7134.33  7.6936917E-01
   7134.67  7.5880872E-01
   7135.00  7.4651576E-01
   7135.33  7.3307973E-01
   7135.67  7.1933989E-01
   7136.00  7.0581354E-01
   7136.33  6.9303172E-01
   7136.67  6.8118886E-01
   7137.00  6.7039153E-01
   7137.33  6.6075248E-01
   7137.67  6.5199111E-01
   7138.00  6.4388653E-01
   7138.33  6.3616437E-01
   7138.67  6.2848701E-01
   7139.00  6.2069991E-01
   7139.33  6.1279806E-01
   7139.67  6.0501239E-01
   7140.00  5.9764694E-01
   7140.33  5.9118274E-01
   7140.67  5.8581984E-01
   7141.00  5.8169553E-01
   7141.33  5.7897178E-01
   7141.67  5.7737624E-01
   7142.00  5.7676003E-01
   7142.33  5.7702651E-01
   7142.67  5.7788027E-01
   7143.00  5.7916226E-01
   7143.33  5.8074546E-01
   7143.67  5.8247610E-01
   7144.00  5.8428513E-01
   7144.33  5.8613795E-01
   7144.67  5.8803406E-01
   7145.00  5.8999871E-01
   7145.33  5.9206813E-01
   7145.67  5.9421514E-01
   7146.00  5.9637360E-01
   7146.33  5.9838276E-01
   7146.67  6.0006000E-01
   7147.00  6.0121613E-01
   7147.33  6.0155549E-01
   7147.67  6.0100931E-01
   7148.00  5.9948076E-01
   7148.33  5.9678403E-01
   7148.67  5.9305972E-01
   7149.00  5.8834861E-01
   7149.33  5.8259986E-01
   7149.67  5.7600268E-01
   7150.00  5.6862542E-01
   7150.33  5.6046467E-01
   7150.67  5.5169536E-01
   7151.00  5.4239583E-01
   7151.33  5.3260210E-01
   7151.67  5.2245910E-01
   7152.00  5.1204292E-01
   7152.33  5.0141571E-01
   7152.67  4.9068124E-01
   7153.00  4.7989415E-01
   7153.33  4.6909652E-01
   7153.67  4.5831452E-01
   7154.00  4.4755564E-01
   7154.33  4.3681493E-01
   7154.67  4.2607080E-01
   7155.00  4.1530091E-01
   7155.33  4.0447093E-01
   7155.67  3.9356709E-01
   7156.00  3.8258524E-01
   7156.33  3.7153572E-01
   7156.67  3.6047439E-01
   7157.00  3.4946840E-01
   7157.33  3.3864222E-01
   7157.67  3.2810154E-01
   7158.00  3.1796296E-01
   7158.33  3.0842805E-01
   7158.67  2.9955347E-01
   7159.00  2.9143215E-01
   7159.33  2.8425932E-01
   7159.67  2.7799769E-01
   7160.00  2.7268757E-01
   7160.33  2.6847955E-01
   7160.67  2.6526248E-01
   7161.00  2.6303450E-01
   7161.33  2.6190397E-01
   7161.67  2.6172607E-01
   7162.00  2.6247492E-01
   7162.33  2.6421931E-01
   7162.67  2.6679658E-01
   7163.00  2.7016289E-01
   7163.33  2.7435189E-01
   7163.67  2.7919429E-01
   7164.00  2.8460880E-01
   7164.33  2.9054499E-01
   7164.67  2.9682100E-01
   7165.00  3.0333280E-01
   7165.33  3.0997672E-01
   7165.67  3.1662415E-01
   7166.00  3.2318648E-01
   7166.33  3.2955656E-01
   7166.67  3.3569296E-01
   7167.00  3.4156160E-01
   7167.33  3.4710987E-01
   7167.67  3.5237786E-01
   7168.00  3.5738363E-01
   7168.33  3.6213149E-01
   7168.67  3.6669028E-01
   7169.00  3.7109582E-01
   7169.33  3.7537327E-01
   7169.67  3.7956942E-01
   7170.00  3.8370362E-01
   7170.33  3.8777867E-01
   7170.67  3.9179088E-01
   7171.00  3.9570776E-01
   7171.33  3.9942211E-01
   7171.67  4.0278357E-01
   7172.00  4.0555786E-01
