    FDMNES
    energy     <xanes>
   7097.00  4.3073210E-03
   7097.33  4.3943845E-03
   7097.67  4.4847851E-03
   7098.00  4.5787231E-03
   7098.33  4.6769286E-03
   7098.67  4.7792117E-03
   7099.00  4.8858407E-03
   7099.33  4.9977495E-03
   7099.67  5.1147404E-03
   7100.00  5.2371847E-03
   7100.33  5.3663106E-03
   7100.67  5.5019262E-03
   7101.00  5.6445644E-03
   7101.33  5.7958967E-03
   7101.67  5.9557692E-03
   7102.00  6.1249797E-03
   7102.33  6.3059029E-03
   7102.67  6.4984959E-03
   7103.00  6.7040174E-03
   7103.33  6.9260268E-03
   7103.67  7.1647640E-03
   7104.00  7.4223482E-03
   7104.33  7.7044893E-03
   7104.67  8.0121378E-03
   7105.00  8.3491649E-03
   7105.33  8.7255671E-03
   7105.67  9.1441660E-03
   7106.00  9.6128190E-03
   7106.33  1.0151167E-02
   7106.67  1.0767463E-02
   7107.00  1.1480073E-02
   7107.33  1.2334184E-02
   7107.67  1.3356546E-02
   7108.00  1.4599561E-02
   7108.33  1.6193891E-02
   7108.67  1.8247301E-02
   7109.00  2.0962303E-02
   7109.33  2.4878627E-02
   7109.67  3.0632566E-02
   7110.00  3.9475105E-02
   7110.33  5.5018367E-02
   7110.67  8.0959651E-02
   7111.00  1.1720695E-01
   7111.33  1.5149499E-01
   7111.67  1.7549790E-01
   7112.00  1.7967667E-01
   7112.33  1.5166913E-01
   7112.67  1.1551559E-01
   7113.00  8.8659418E-02
   7113.33  7.4227695E-02
   7113.67  6.5371530E-02
   7114.00  5.8810064E-02
   7114.33  5.3801942E-02
   7114.67  4.9922882E-02
   7115.00  4.7227220E-02
   7115.33  4.6088776E-02
   7115.67  4.6285546E-02
   7116.00  4.7712810E-02
   7116.33  5.0470457E-02
   7116.67  5.4411875E-02
   7117.00  5.9447423E-02
   7117.33  6.5225298E-02
   7117.67  7.0975518E-02
   7118.00  7.6363073E-02
   7118.33  8.1397380E-02
   7118.67  8.6379820E-02
   7119.00  9.1900603E-02
   7119.33  9.9207191E-02
   7119.67  1.0897522E-01
   7120.00  1.2169615E-01
   7120.33  1.3829688E-01
   7120.67  1.5898113E-01
   7121.00  1.8444113E-01
   7121.33  2.1578680E-01
   7121.67  2.5123601E-01
   7122.00  2.8811273E-01
   7122.33  3.2231371E-01
   7122.67  3.5178736E-01
   7123.00  3.7684085E-01
   7123.33  3.9981702E-01
   7123.67  4.2403520E-01
   7124.00  4.5152024E-01
   7124.33  4.8442738E-01
   7124.67  5.2301088E-01
   7125.00  5.6723527E-01
   7125.33  6.1571173E-01
   7125.67  6.6318263E-01
   7126.00  7.0359232E-01
   7126.33  7.2888856E-01
   7126.67  7.3849914E-01
   7127.00  7.3429358E-01
   7127.33  7.1954304E-01
   7127.67  6.9971296E-01
   7128.00  6.7767404E-01
   7128.33  6.5781986E-01
   7128.67  6.4487229E-01
   7129.00  6.4108744E-01
   7129.33  6.4678592E-01
   7129.67  6.5842688E-01
   7130.00  6.7364063E-01
   7130.33  6.8993868E-01
   7130.67  7.0504393E-01
   7131.00  7.1788330E-01
   7131.33  7.2822679E-01
   7131.67  7.3740875E-01
   7132.00  7.4638721E-01
   7132.33  7.5602457E-01
   7132.67  7.6700115E-01
   7133.00  7.7977901E-01
   7133.33  7.9327883E-01
   7133.67  8.0281049E-01
   7134.00  8.0293340E-01
   7134.33  7.8999159E-01
   7134.67  7.6956207E-01
   7135.00  7.4588125E-01
   7135.33  7.2109530E-01
   7135.67  6.9622074E-01
   7136.00  6.7224746E-01
   7136.33  6.5087135E-01
   7136.67  6.3290460E-01
   7137.00  6.1879459E-01
   7137.33  6.0899013E-01
   7137.67  6.0256594E-01
   7138.00  5.9894833E-01
   7138.33  5.9763611E-01
   7138.67  5.9762504E-01
   7139.00  5.9833208E-01
   7139.33  5.9918479E-01
   7139.67  5.9970396E-01
   7140.00  5.9959966E-01
   7140.33  5.9850407E-01
   7140.67  5.9636131E-01
   7141.00  5.9311874E-01
   7141.33  5.8869378E-01
   7141.67  5.8338227E-01
   7142.00  5.7740485E-01
   7142.33  5.7103343E-01
   7142.67  5.6464014E-01
   7143.00  5.5847397E-01
   7143.33  5.5279857E-01
   7143.67  5.4765664E-01
   7144.00  5.4303927E-01
   7144.33  5.3889625E-01
   7144.67  5.3500315E-01
   7145.00  5.3118947E-01
   7145.33  5.2725975E-01
   7145.67  5.2308913E-01
   7146.00  5.1859750E-01
   7146.33  5.1368939E-01
   7146.67  5.0840753E-01
   7147.00  5.0277903E-01
   7147.33  4.9682263E-01
   7147.67  4.9064351E-01
   7148.00  4.8430340E-01
   7148.33  4.7785767E-01
   7148.67  4.7137499E-01
   7149.00  4.6489552E-01
   7149.33  4.5846103E-01
   7149.67  4.5208923E-01
   7150.00  4.4578942E-01
   7150.33  4.3957333E-01
   7150.67  4.3342808E-01
   7151.00  4.2734836E-01
   7151.33  4.2133471E-01
   7151.67  4.1537522E-01
   7152.00  4.0947070E-01
   7152.33  4.0363673E-01
   7152.67  3.9788140E-01
   7153.00  3.9222592E-01
   7153.33  3.8672024E-01
   7153.67  3.8138843E-01
   7154.00  3.7626775E-01
   7154.33  3.7142888E-01
   7154.67  3.6686851E-01
   7155.00  3.6259624E-01
   7155.33  3.5863815E-01
   7155.67  3.5493098E-01
   7156.00  3.5143817E-01
   7156.33  3.4813186E-01
   7156.67  3.4494894E-01
   7157.00  3.4186717E-01
   7157.33  3.3889156E-01
   7157.67  3.3602614E-01
   7158.00  3.3330765E-01
   7158.33  3.3081977E-01
   7158.67  3.2859076E-01
   7159.00  3.2666143E-01
   7159.33  3.2511204E-01
   7159.67  3.2391649E-01
   7160.00  3.2306947E-01
   7160.33  3.2258862E-01
   7160.67  3.2239869E-01
   7161.00  3.2246415E-01
   7161.33  3.2277100E-01
   7161.67  3.2325867E-01
   7162.00  3.2390527E-01
   7162.33  3.2470963E-01
   7162.67  3.2564030E-01
   7163.00  3.2669504E-01
   7163.33  3.2790037E-01
   7163.67  3.2925695E-01
   7164.00  3.3078460E-01
   7164.33  3.3253597E-01
   7164.67  3.3451693E-01
   7165.00  3.3675422E-01
   7165.33  3.3931300E-01
   7165.67  3.4218253E-01
   7166.00  3.4537868E-01
   7166.33  3.4895382E-01
   7166.67  3.5286536E-01
   7167.00  3.5710339E-01
   7167.33  3.6168350E-01
   7167.67  3.6653470E-01
   7168.00  3.7162117E-01
   7168.33  3.7691421E-01
   7168.67  3.8233093E-01
   7169.00  3.8781949E-01
   7169.33  3.9332005E-01
   7169.67  3.9876732E-01
   7170.00  4.0410446E-01
   7170.33  4.0924228E-01
   7170.67  4.1413410E-01
   7171.00  4.1871568E-01
   7171.33  4.2284317E-01
   7171.67  4.2642582E-01
   7172.00  4.2929484E-01
