    FDMNES
    energy     <xanes>
   7097.00  4.3665038E-03
   7097.33  4.4552032E-03
   7097.67  4.5474426E-03
   7098.00  4.6434438E-03
   7098.33  4.7439970E-03
   7098.67  4.8489126E-03
   7099.00  4.9584903E-03
   7099.33  5.0737494E-03
   7099.67  5.1944939E-03
   7100.00  5.3211406E-03
   7100.33  5.4550410E-03
   7100.67  5.5960082E-03
   7101.00  5.7446423E-03
   7101.33  5.9027958E-03
   7101.67  6.0703267E-03
   7102.00  6.2481344E-03
   7102.33  6.4388653E-03
   7102.67  6.6425025E-03
   7103.00  6.8604641E-03
   7103.33  7.0967288E-03
   7103.67  7.3515928E-03
   7104.00  7.6274362E-03
   7104.33  7.9306419E-03
   7104.67  8.2622873E-03
   7105.00  8.6266963E-03
   7105.33  9.0350139E-03
   7105.67  9.4903660E-03
   7106.00  1.0001476E-02
   7106.33  1.0590146E-02
   7106.67  1.1265466E-02
   7107.00  1.2047748E-02
   7107.33  1.2987033E-02
   7107.67  1.4112929E-02
   7108.00  1.5483647E-02
   7108.33  1.7244827E-02
   7108.67  1.9518098E-02
   7109.00  2.2533118E-02
   7109.33  2.6907118E-02
   7109.67  3.3385921E-02
   7110.00  4.3449056E-02
   7110.33  6.1427899E-02
   7110.67  9.1890038E-02
   7111.00  1.3394641E-01
   7111.33  1.5973782E-01
   7111.67  1.5162401E-01
   7112.00  1.3037472E-01
   7112.33  1.1673876E-01
   7112.67  1.1164582E-01
   7113.00  1.1439801E-01
   7113.33  1.2678438E-01
   7113.67  1.4888888E-01
   7114.00  1.7892600E-01
   7114.33  2.0540160E-01
   7114.67  2.0796527E-01
   7115.00  1.8200688E-01
   7115.33  1.4595033E-01
   7115.67  1.1655399E-01
   7116.00  9.6575670E-02
   7116.33  8.5368942E-02
   7116.67  7.9684604E-02
   7117.00  7.8030472E-02
   7117.33  7.9549110E-02
   7117.67  8.3030713E-02
   7118.00  8.7898077E-02
   7118.33  9.3712637E-02
   7118.67  9.9915747E-02
   7119.00  1.0618137E-01
   7119.33  1.1227344E-01
   7119.67  1.1831838E-01
   7120.00  1.2478611E-01
   7120.33  1.3281220E-01
   7120.67  1.4306365E-01
   7121.00  1.5561129E-01
   7121.33  1.7023285E-01
   7121.67  1.8632917E-01
   7122.00  2.0384558E-01
   7122.33  2.2295760E-01
   7122.67  2.4281652E-01
   7123.00  2.6187263E-01
   7123.33  2.7755652E-01
   7123.67  2.8952571E-01
   7124.00  2.9845536E-01
   7124.33  3.0379682E-01
   7124.67  3.0496530E-01
   7125.00  3.0360770E-01
   7125.33  3.0468981E-01
   7125.67  3.1056974E-01
   7126.00  3.2037260E-01
   7126.33  3.3280947E-01
   7126.67  3.4821650E-01
   7127.00  3.6774704E-01
   7127.33  3.9182629E-01
   7127.67  4.1861963E-01
   7128.00  4.4680524E-01
   7128.33  4.7514275E-01
   7128.67  5.0279968E-01
   7129.00  5.2957984E-01
   7129.33  5.5598974E-01
   7129.67  5.8317876E-01
   7130.00  6.1183415E-01
   7130.33  6.4176318E-01
   7130.67  6.7135380E-01
   7131.00  6.9900605E-01
   7131.33  7.2249904E-01
   7131.67  7.4087741E-01
   7132.00  7.5351705E-01
   7132.33  7.6021476E-01
   7132.67  7.6328920E-01
   7133.00  7.6445978E-01
   7133.33  7.6505971E-01
   7133.67  7.6557004E-01
   7134.00  7.6584877E-01
   7134.33  7.6568267E-01
   7134.67  7.6531985E-01
   7135.00  7.6521381E-01
   7135.33  7.6611765E-01
   7135.67  7.6847173E-01
   7136.00  7.7257390E-01
   7136.33  7.7869761E-01
   7136.67  7.8624780E-01
   7137.00  7.9451992E-01
   7137.33  8.0222249E-01
   7137.67  8.0795024E-01
   7138.00  8.1049013E-01
   7138.33  8.0824793E-01
   7138.67  8.0127718E-01
   7139.00  7.8968370E-01
   7139.33  7.7360571E-01
   7139.67  7.5454465E-01
   7140.00  7.3348564E-01
   7140.33  7.1143518E-01
   7140.67  6.8946263E-01
   7141.00  6.6821324E-01
   7141.33  6.4837652E-01
   7141.67  6.3011555E-01
   7142.00  6.1356600E-01
   7142.33  5.9898147E-01
   7142.67  5.8608670E-01
   7143.00  5.7478625E-01
   7143.33  5.6511874E-01
   7143.67  5.5674096E-01
   7144.00  5.4950312E-01
   7144.33  5.4334790E-01
   7144.67  5.3799050E-01
   7145.00  5.3330522E-01
   7145.33  5.2923278E-01
   7145.67  5.2560137E-01
   7146.00  5.2234384E-01
   7146.33  5.1944650E-01
   7146.67  5.1683290E-01
   7147.00  5.1448088E-01
   7147.33  5.1239940E-01
   7147.67  5.1053369E-01
   7148.00  5.0885835E-01
   7148.33  5.0735437E-01
   7148.67  5.0593874E-01
   7149.00  5.0454481E-01
   7149.33  5.0309659E-01
   7149.67  5.0153907E-01
   7150.00  4.9983117E-01
   7150.33  4.9792515E-01
   7150.67  4.9584689E-01
   7151.00  4.9362218E-01
   7151.33  4.9128500E-01
   7151.67  4.8889574E-01
   7152.00  4.8648196E-01
   7152.33  4.8404541E-01
   7152.67  4.8156244E-01
   7153.00  4.7899117E-01
   7153.33  4.7625001E-01
   7153.67  4.7329143E-01
   7154.00  4.7006409E-01
   7154.33  4.6648205E-01
   7154.67  4.6255555E-01
   7155.00  4.5827252E-01
   7155.33  4.5358431E-01
   7155.67  4.4853773E-01
   7156.00  4.4313350E-01
   7156.33  4.3732086E-01
   7156.67  4.3113237E-01
   7157.00  4.2455506E-01
   7157.33  4.1753302E-01
   7157.67  4.1013450E-01
   7158.00  4.0240754E-01
   7158.33  3.9442372E-01
   7158.67  3.8635760E-01
   7159.00  3.7836337E-01
   7159.33  3.7067205E-01
   7159.67  3.6345058E-01
   7160.00  3.5686357E-01
   7160.33  3.5118794E-01
   7160.67  3.4647927E-01
   7161.00  3.4285585E-01
   7161.33  3.4058695E-01
   7161.67  3.3962251E-01
   7162.00  3.4003428E-01
   7162.33  3.4206449E-01
   7162.67  3.4556719E-01
   7163.00  3.5054286E-01
   7163.33  3.5712992E-01
   7163.67  3.6505495E-01
   7164.00  3.7418670E-01
   7164.33  3.8443049E-01
   7164.67  3.9537106E-01
   7165.00  4.0670269E-01
   7165.33  4.1801704E-01
   7165.67  4.2888195E-01
   7166.00  4.3893202E-01
   7166.33  4.4764386E-01
   7166.67  4.5489137E-01
   7167.00  4.6054881E-01
   7167.33  4.6442073E-01
   7167.67  4.6686726E-01
   7168.00  4.6813475E-01
   7168.33  4.6849452E-01
   7168.67  4.6845689E-01
   7169.00  4.6835849E-01
   7169.33  4.6856307E-01
   7169.67  4.6926739E-01
   7170.00  4.7057705E-01
   7170.33  4.7258697E-01
   7170.67  4.7513543E-01
   7171.00  4.7808336E-01
   7171.33  4.8122139E-01
   7171.67  4.8421568E-01
   7172.00  4.8673848E-01
