    FDMNES
    energy     <xanes>
   7097.00  4.3641989E-03
   7097.33  4.4543127E-03
   7097.67  4.5481105E-03
   7098.00  4.6458286E-03
   7098.33  4.7482992E-03
   7098.67  4.8553324E-03
   7099.00  4.9672497E-03
   7099.33  5.0851305E-03
   7099.67  5.2087808E-03
   7100.00  5.3386500E-03
   7100.33  5.4761787E-03
   7100.67  5.6211863E-03
   7101.00  5.7743236E-03
   7101.33  5.9375788E-03
   7101.67  6.1108251E-03
   7102.00  6.2950440E-03
   7102.33  6.4930959E-03
   7102.67  6.7049980E-03
   7103.00  6.9323064E-03
   7103.33  7.1793518E-03
   7103.67  7.4465064E-03
   7104.00  7.7363941E-03
   7104.33  8.0560082E-03
   7104.67  8.4065965E-03
   7105.00  8.7929425E-03
   7105.33  9.2273194E-03
   7105.67  9.7132543E-03
   7106.00  1.0260407E-02
   7106.33  1.0892847E-02
   7106.67  1.1620678E-02
   7107.00  1.2466326E-02
   7107.33  1.3484919E-02
   7107.67  1.4708917E-02
   7108.00  1.6202017E-02
   7108.33  1.8123145E-02
   7108.67  2.0603398E-02
   7109.00  2.3889880E-02
   7109.33  2.8643645E-02
   7109.67  3.5651600E-02
   7110.00  4.6466412E-02
   7110.33  6.5551484E-02
   7110.67  9.7056797E-02
   7111.00  1.3898679E-01
   7111.33  1.7461955E-01
   7111.67  1.9390361E-01
   7112.00  1.8758282E-01
   7112.33  1.6232532E-01
   7112.67  1.3996484E-01
   7113.00  1.2518839E-01
   7113.33  1.1998899E-01
   7113.67  1.2447992E-01
   7114.00  1.4087567E-01
   7114.33  1.7026020E-01
   7114.67  1.9713019E-01
   7115.00  2.0194934E-01
   7115.33  1.7658319E-01
   7115.67  1.4239068E-01
   7116.00  1.1296183E-01
   7116.33  9.3874226E-02
   7116.67  8.2424848E-02
   7117.00  7.6504955E-02
   7117.33  7.4392338E-02
   7117.67  7.3964268E-02
   7118.00  7.4298773E-02
   7118.33  7.5229850E-02
   7118.67  7.6965849E-02
   7119.00  7.9683212E-02
   7119.33  8.3502993E-02
   7119.67  8.8147709E-02
   7120.00  9.3462346E-02
   7120.33  9.9649535E-02
   7120.67  1.0738298E-01
   7121.00  1.1764504E-01
   7121.33  1.3153265E-01
   7121.67  1.4883151E-01
   7122.00  1.6974669E-01
   7122.33  1.9500249E-01
   7122.67  2.2375930E-01
   7123.00  2.5466240E-01
   7123.33  2.8478759E-01
   7123.67  3.1075356E-01
   7124.00  3.2965856E-01
   7124.33  3.3892645E-01
   7124.67  3.4271028E-01
   7125.00  3.4571504E-01
   7125.33  3.5078559E-01
   7125.67  3.5616698E-01
   7126.00  3.5978202E-01
   7126.33  3.6082072E-01
   7126.67  3.6137486E-01
   7127.00  3.6286484E-01
   7127.33  3.6524467E-01
   7127.67  3.6970127E-01
   7128.00  3.7915462E-01
   7128.33  3.9671285E-01
   7128.67  4.2214314E-01
   7129.00  4.5578057E-01
   7129.33  4.9865680E-01
   7129.67  5.4826223E-01
   7130.00  6.0156097E-01
   7130.33  6.5342999E-01
   7130.67  6.9916483E-01
   7131.00  7.3551499E-01
   7131.33  7.5815791E-01
   7131.67  7.6708763E-01
   7132.00  7.6283143E-01
   7132.33  7.4757607E-01
   7132.67  7.2822005E-01
   7133.00  7.0992327E-01
   7133.33  6.9782421E-01
   7133.67  6.9335354E-01
   7134.00  6.9678912E-01
   7134.33  7.0803023E-01
   7134.67  7.2419644E-01
   7135.00  7.4308413E-01
   7135.33  7.6220249E-01
   7135.67  7.7978716E-01
   7136.00  7.9538703E-01
   7136.33  8.0935359E-01
   7136.67  8.2276896E-01
   7137.00  8.3607007E-01
   7137.33  8.4892067E-01
   7137.67  8.6019582E-01
   7138.00  8.6837415E-01
   7138.33  8.7093596E-01
   7138.67  8.6708010E-01
   7139.00  8.5634317E-01
   7139.33  8.3840182E-01
   7139.67  8.1539388E-01
   7140.00  7.8881422E-01
   7140.33  7.6017724E-01
   7140.67  7.3118642E-01
   7141.00  7.0280585E-01
   7141.33  6.7599238E-01
   7141.67  6.5105309E-01
   7142.00  6.2821711E-01
   7142.33  6.0786795E-01
   7142.67  5.8971521E-01
   7143.00  5.7368075E-01
   7143.33  5.5985460E-01
   7143.67  5.4779262E-01
   7144.00  5.3730700E-01
   7144.33  5.2833331E-01
   7144.67  5.2046196E-01
   7145.00  5.1348520E-01
   7145.33  5.0725896E-01
   7145.67  5.0151392E-01
   7146.00  4.9614602E-01
   7146.33  4.9115675E-01
   7146.67  4.8654261E-01
   7147.00  4.8236972E-01
   7147.33  4.7877382E-01
   7147.67  4.7572613E-01
   7148.00  4.7322429E-01
   7148.33  4.7131008E-01
   7148.67  4.6988638E-01
   7149.00  4.6891711E-01
   7149.33  4.6839929E-01
   7149.67  4.6823082E-01
   7150.00  4.6835958E-01
   7150.33  4.6873267E-01
   7150.67  4.6922953E-01
   7151.00  4.6977333E-01
   7151.33  4.7029380E-01
   7151.67  4.7075854E-01
   7152.00  4.7115930E-01
   7152.33  4.7148278E-01
   7152.67  4.7170924E-01
   7153.00  4.7178002E-01
   7153.33  4.7155580E-01
   7153.67  4.7093147E-01
   7154.00  4.6977971E-01
   7154.33  4.6788426E-01
   7154.67  4.6522189E-01
   7155.00  4.6172774E-01
   7155.33  4.5725351E-01
   7155.67  4.5191043E-01
   7156.00  4.4573212E-01
   7156.33  4.3869192E-01
   7156.67  4.3097848E-01
   7157.00  4.2268404E-01
   7157.33  4.1386575E-01
   7157.67  4.0470301E-01
   7158.00  3.9530489E-01
   7158.33  3.8579269E-01
   7158.67  3.7632295E-01
   7159.00  3.6702745E-01
   7159.33  3.5810926E-01
   7159.67  3.4969388E-01
   7160.00  3.4192649E-01
   7160.33  3.3507149E-01
   7160.67  3.2917451E-01
   7161.00  3.2434549E-01
   7161.33  3.2084195E-01
   7161.67  3.1860401E-01
   7162.00  3.1769250E-01
   7162.33  3.1834009E-01
   7162.67  3.2042027E-01
   7163.00  3.2396253E-01
   7163.33  3.2917018E-01
   7163.67  3.3584632E-01
   7164.00  3.4394396E-01
   7164.33  3.5352286E-01
   7164.67  3.6425277E-01
   7165.00  3.7593695E-01
   7165.33  3.8836398E-01
   7165.67  4.0109494E-01
   7166.00  4.1378796E-01
   7166.33  4.2597313E-01
   7166.67  4.3731057E-01
   7167.00  4.4750201E-01
   7167.33  4.5610505E-01
   7167.67  4.6314486E-01
   7168.00  4.6859674E-01
   7168.33  4.7237212E-01
   7168.67  4.7487761E-01
   7169.00  4.7637667E-01
   7169.33  4.7714047E-01
   7169.67  4.7760364E-01
   7170.00  4.7803256E-01
   7170.33  4.7868861E-01
   7170.67  4.7968301E-01
   7171.00  4.8104530E-01
   7171.33  4.8273903E-01
   7171.67  4.8452757E-01
   7172.00  4.8614582E-01
