    FDMNES
    energy     <xanes>
   7097.00  5.1979290E-03
   7097.33  5.3196328E-03
   7097.67  5.4468651E-03
   7098.00  5.5800005E-03
   7098.33  5.7203186E-03
   7098.67  5.8675578E-03
   7099.00  6.0222275E-03
   7099.33  6.1860000E-03
   7099.67  6.3586063E-03
   7100.00  6.5407578E-03
   7100.33  6.7346955E-03
   7100.67  6.9401676E-03
   7101.00  7.1581981E-03
   7101.33  7.3918819E-03
   7101.67  7.6410386E-03
   7102.00  7.9071963E-03
   7102.33  8.1947863E-03
   7102.67  8.5038205E-03
   7103.00  8.8366802E-03
   7103.33  9.1999967E-03
   7103.67  9.5942489E-03
   7104.00  1.0023352E-02
   7104.33  1.0497795E-02
   7104.67  1.1019178E-02
   7105.00  1.1594393E-02
   7105.33  1.2241255E-02
   7105.67  1.2964185E-02
   7106.00  1.3776452E-02
   7106.33  1.4711350E-02
   7106.67  1.5781060E-02
   7107.00  1.7014495E-02
   7107.33  1.8482913E-02
   7107.67  2.0223324E-02
   7108.00  2.2311339E-02
   7108.33  2.4934454E-02
   7108.67  2.8231330E-02
   7109.00  3.2466710E-02
   7109.33  3.8336156E-02
   7109.67  4.6601229E-02
   7110.00  5.8756551E-02
   7110.33  7.9067766E-02
   7110.67  1.1180204E-01
   7111.00  1.5694201E-01
   7111.33  1.9980165E-01
   7111.67  2.3409787E-01
   7112.00  2.6695873E-01
   7112.33  3.0196272E-01
   7112.67  3.2819672E-01
   7113.00  3.4487299E-01
   7113.33  3.7264930E-01
   7113.67  4.1063973E-01
   7114.00  4.3700867E-01
   7114.33  4.2445100E-01
   7114.67  3.8445161E-01
   7115.00  3.3888204E-01
   7115.33  3.0453347E-01
   7115.67  2.8259068E-01
   7116.00  2.7004406E-01
   7116.33  2.6089056E-01
   7116.67  2.4793881E-01
   7117.00  2.2802502E-01
   7117.33  2.0252180E-01
   7117.67  1.7814386E-01
   7118.00  1.5859854E-01
   7118.33  1.4524797E-01
   7118.67  1.3620464E-01
   7119.00  1.3030323E-01
   7119.33  1.2681454E-01
   7119.67  1.2479260E-01
   7120.00  1.2375316E-01
   7120.33  1.2332385E-01
   7120.67  1.2322125E-01
   7121.00  1.2334546E-01
   7121.33  1.2369711E-01
   7121.67  1.2457316E-01
   7122.00  1.2651800E-01
   7122.33  1.3030749E-01
   7122.67  1.3582700E-01
   7123.00  1.4283859E-01
   7123.33  1.5149291E-01
   7123.67  1.6199098E-01
   7124.00  1.7479060E-01
   7124.33  1.9093000E-01
   7124.67  2.1089325E-01
   7125.00  2.3542553E-01
   7125.33  2.6549486E-01
   7125.67  2.9944472E-01
   7126.00  3.3511937E-01
   7126.33  3.6998937E-01
   7126.67  4.0309081E-01
   7127.00  4.3383119E-01
   7127.33  4.6036530E-01
   7127.67  4.8201363E-01
   7128.00  4.9908082E-01
   7128.33  5.1283506E-01
   7128.67  5.2543450E-01
   7129.00  5.3812892E-01
   7129.33  5.5244730E-01
   7129.67  5.6921715E-01
   7130.00  5.8864300E-01
   7130.33  6.1046596E-01
   7130.67  6.3351374E-01
   7131.00  6.5703609E-01
   7131.33  6.8046793E-01
   7131.67  7.0381208E-01
   7132.00  7.2751913E-01
   7132.33  7.5252623E-01
   7132.67  7.7924690E-01
   7133.00  8.0754222E-01
   7133.33  8.3639677E-01
   7133.67  8.6406645E-01
   7134.00  8.8908781E-01
   7134.33  9.0919639E-01
   7134.67  9.2282358E-01
   7135.00  9.2805775E-01
   7135.33  9.2234240E-01
   7135.67  9.0710473E-01
   7136.00  8.8356510E-01
   7136.33  8.5301657E-01
   7136.67  8.1853554E-01
   7137.00  7.8199877E-01
   7137.33  7.4527008E-01
   7137.67  7.0988805E-01
   7138.00  6.7689426E-01
   7138.33  6.4765230E-01
   7138.67  6.2238977E-01
   7139.00  6.0138051E-01
   7139.33  5.8511860E-01
   7139.67  5.7270935E-01
   7140.00  5.6365462E-01
   7140.33  5.5761572E-01
   7140.67  5.5360123E-01
   7141.00  5.5111830E-01
   7141.33  5.4981359E-01
   7141.67  5.4914888E-01
   7142.00  5.4881523E-01
   7142.33  5.4848035E-01
   7142.67  5.4783628E-01
   7143.00  5.4664332E-01
   7143.33  5.4456848E-01
   7143.67  5.4154086E-01
   7144.00  5.3748237E-01
   7144.33  5.3226073E-01
   7144.67  5.2609631E-01
   7145.00  5.1913408E-01
   7145.33  5.1153059E-01
   7145.67  5.0362370E-01
   7146.00  4.9565326E-01
   7146.33  4.8791673E-01
   7146.67  4.8063471E-01
   7147.00  4.7398517E-01
   7147.33  4.6820735E-01
   7147.67  4.6327872E-01
   7148.00  4.5923434E-01
   7148.33  4.5620871E-01
   7148.67  4.5409091E-01
   7149.00  4.5286947E-01
   7149.33  4.5262881E-01
   7149.67  4.5322736E-01
   7150.00  4.5462976E-01
   7150.33  4.5688155E-01
   7150.67  4.5983531E-01
   7151.00  4.6344164E-01
   7151.33  4.6771082E-01
   7151.67  4.7249576E-01
   7152.00  4.7772495E-01
   7152.33  4.8336067E-01
   7152.67  4.8927566E-01
   7153.00  4.9539886E-01
   7153.33  5.0166491E-01
   7153.67  5.0798003E-01
   7154.00  5.1428061E-01
   7154.33  5.2048745E-01
   7154.67  5.2654911E-01
   7155.00  5.3241767E-01
   7155.33  5.3800716E-01
   7155.67  5.4329394E-01
   7156.00  5.4823323E-01
   7156.33  5.5272573E-01
   7156.67  5.5677324E-01
   7157.00  5.6033594E-01
   7157.33  5.6330372E-01
   7157.67  5.6570263E-01
   7158.00  5.6750285E-01
   7158.33  5.6859936E-01
   7158.67  5.6905494E-01
   7159.00  5.6886821E-01
   7159.33  5.6797627E-01
   7159.67  5.6649386E-01
   7160.00  5.6446956E-01
   7160.33  5.6192114E-01
   7160.67  5.5900117E-01
   7161.00  5.5580167E-01
   7161.33  5.5241567E-01
   7161.67  5.4897754E-01
   7162.00  5.4557942E-01
   7162.33  5.4233317E-01
   7162.67  5.3929335E-01
   7163.00  5.3649829E-01
   7163.33  5.3401308E-01
   7163.67  5.3181830E-01
   7164.00  5.2991125E-01
   7164.33  5.2830734E-01
   7164.67  5.2694253E-01
   7165.00  5.2578385E-01
   7165.33  5.2480905E-01
   7165.67  5.2395354E-01
   7166.00  5.2317936E-01
   7166.33  5.2244820E-01
   7166.67  5.2171526E-01
   7167.00  5.2094896E-01
   7167.33  5.2010725E-01
   7167.67  5.1916960E-01
   7168.00  5.1811609E-01
   7168.33  5.1691464E-01
   7168.67  5.1557806E-01
   7169.00  5.1410920E-01
   7169.33  5.1249659E-01
   7169.67  5.1076777E-01
   7170.00  5.0893960E-01
   7170.33  5.0702950E-01
   7170.67  5.0508169E-01
   7171.00  5.0313634E-01
   7171.33  5.0126913E-01
   7171.67  4.9957701E-01
   7172.00  4.9818687E-01
