    FDMNES
    energy     <xanes>
   7097.00  4.5275171E-03
   7097.33  4.6253649E-03
   7097.67  4.7272642E-03
   7098.00  4.8334730E-03
   7098.33  4.9449029E-03
   7098.67  5.0613420E-03
   7099.00  5.1831398E-03
   7099.33  5.3114754E-03
   7099.67  5.4461310E-03
   7100.00  5.5875933E-03
   7100.33  5.7374308E-03
   7100.67  5.8954377E-03
   7101.00  6.0623165E-03
   7101.33  6.2402240E-03
   7101.67  6.4290091E-03
   7102.00  6.6297273E-03
   7102.33  6.8454701E-03
   7102.67  7.0762359E-03
   7103.00  7.3236934E-03
   7103.33  7.5925047E-03
   7103.67  7.8830425E-03
   7104.00  8.1981121E-03
   7104.33  8.5452160E-03
   7104.67  8.9256537E-03
   7105.00  9.3445300E-03
   7105.33  9.8149730E-03
   7105.67  1.0340705E-02
   7106.00  1.0932022E-02
   7106.33  1.1614624E-02
   7106.67  1.2399238E-02
   7107.00  1.3309777E-02
   7107.33  1.4405076E-02
   7107.67  1.5719772E-02
   7108.00  1.7321929E-02
   7108.33  1.9381574E-02
   7108.67  2.2039529E-02
   7109.00  2.5561657E-02
   7109.33  3.0661286E-02
   7109.67  3.8194775E-02
   7110.00  4.9854644E-02
   7110.33  7.0470488E-02
   7110.67  1.0398783E-01
   7111.00  1.4572251E-01
   7111.33  1.7654155E-01
   7111.67  1.9720766E-01
   7112.00  1.9968239E-01
   7112.33  1.8801634E-01
   7112.67  1.8206266E-01
   7113.00  1.7947767E-01
   7113.33  1.6770664E-01
   7113.67  1.4990992E-01
   7114.00  1.3185236E-01
   7114.33  1.1654112E-01
   7114.67  1.0455996E-01
   7115.00  9.6504913E-02
   7115.33  9.2672396E-02
   7115.67  9.1880014E-02
   7116.00  9.3302320E-02
   7116.33  9.5995238E-02
   7116.67  9.9193305E-02
   7117.00  1.0282066E-01
   7117.33  1.0704829E-01
   7117.67  1.1191274E-01
   7118.00  1.1733472E-01
   7118.33  1.2338944E-01
   7118.67  1.3049985E-01
   7119.00  1.3930268E-01
   7119.33  1.5071163E-01
   7119.67  1.6487110E-01
   7120.00  1.8210112E-01
   7120.33  2.0332332E-01
   7120.67  2.2854024E-01
   7121.00  2.5740690E-01
   7121.33  2.8750705E-01
   7121.67  3.1417713E-01
   7122.00  3.3543709E-01
   7122.33  3.5352719E-01
   7122.67  3.7082566E-01
   7123.00  3.8617912E-01
   7123.33  3.9793450E-01
   7123.67  4.0729922E-01
   7124.00  4.1570743E-01
   7124.33  4.2391746E-01
   7124.67  4.3152799E-01
   7125.00  4.3876595E-01
   7125.33  4.4816053E-01
   7125.67  4.6236906E-01
   7126.00  4.8248374E-01
   7126.33  5.0683801E-01
   7126.67  5.2928552E-01
   7127.00  5.4519251E-01
   7127.33  5.5316798E-01
   7127.67  5.5767821E-01
   7128.00  5.6180381E-01
   7128.33  5.6785014E-01
   7128.67  5.7638718E-01
   7129.00  5.8741345E-01
   7129.33  6.0087889E-01
   7129.67  6.1627907E-01
   7130.00  6.3367525E-01
   7130.33  6.5376776E-01
   7130.67  6.7642506E-01
   7131.00  7.0035125E-01
   7131.33  7.2156818E-01
   7131.67  7.3711463E-01
   7132.00  7.4624544E-01
   7132.33  7.4910639E-01
   7132.67  7.4789144E-01
   7133.00  7.4386908E-01
   7133.33  7.3808158E-01
   7133.67  7.3169397E-01
   7134.00  7.2533064E-01
   7134.33  7.1953710E-01
   7134.67  7.1447314E-01
   7135.00  7.1015074E-01
   7135.33  7.0653295E-01
   7135.67  7.0340555E-01
   7136.00  7.0072414E-01
   7136.33  6.9864213E-01
   7136.67  6.9731136E-01
   7137.00  6.9696435E-01
   7137.33  6.9796278E-01
   7137.67  7.0016309E-01
   7138.00  7.0328067E-01
   7138.33  7.0654871E-01
   7138.67  7.0860241E-01
   7139.00  7.0786999E-01
   7139.33  7.0186709E-01
   7139.67  6.8993588E-01
   7140.00  6.7207605E-01
   7140.33  6.4914221E-01
   7140.67  6.2415553E-01
   7141.00  5.9939135E-01
   7141.33  5.7730712E-01
   7141.67  5.5891869E-01
   7142.00  5.4467893E-01
   7142.33  5.3500428E-01
   7142.67  5.2883288E-01
   7143.00  5.2547839E-01
   7143.33  5.2429743E-01
   7143.67  5.2418990E-01
   7144.00  5.2451157E-01
   7144.33  5.2465211E-01
   7144.67  5.2423942E-01
   7145.00  5.2309316E-01
   7145.33  5.2104647E-01
   7145.67  5.1822621E-01
   7146.00  5.1468604E-01
   7146.33  5.1040991E-01
   7146.67  5.0553396E-01
   7147.00  5.0009022E-01
   7147.33  4.9404649E-01
   7147.67  4.8752359E-01
   7148.00  4.8058944E-01
   7148.33  4.7331078E-01
   7148.67  4.6585526E-01
   7149.00  4.5834494E-01
   7149.33  4.5093123E-01
   7149.67  4.4372841E-01
   7150.00  4.3682317E-01
   7150.33  4.3033596E-01
   7150.67  4.2426975E-01
   7151.00  4.1865356E-01
   7151.33  4.1357014E-01
   7151.67  4.0897395E-01
   7152.00  4.0486495E-01
   7152.33  4.0127836E-01
   7152.67  3.9810092E-01
   7153.00  3.9525490E-01
   7153.33  3.9262560E-01
   7153.67  3.9000212E-01
   7154.00  3.8723389E-01
   7154.33  3.8416177E-01
   7154.67  3.8076493E-01
   7155.00  3.7707003E-01
   7155.33  3.7316889E-01
   7155.67  3.6924699E-01
   7156.00  3.6543652E-01
   7156.33  3.6187202E-01
   7156.67  3.5857300E-01
   7157.00  3.5554191E-01
   7157.33  3.5279060E-01
   7157.67  3.5026502E-01
   7158.00  3.4795218E-01
   7158.33  3.4587377E-01
   7158.67  3.4400938E-01
   7159.00  3.4236812E-01
   7159.33  3.4099033E-01
   7159.67  3.3985647E-01
   7160.00  3.3897270E-01
   7160.33  3.3837468E-01
   7160.67  3.3803065E-01
   7161.00  3.3793512E-01
   7161.33  3.3810558E-01
   7161.67  3.3849741E-01
   7162.00  3.3909483E-01
   7162.33  3.3989892E-01
   7162.67  3.4086345E-01
   7163.00  3.4197124E-01
   7163.33  3.4322075E-01
   7163.67  3.4458026E-01
   7164.00  3.4604116E-01
   7164.33  3.4761378E-01
   7164.67  3.4929137E-01
   7165.00  3.5108411E-01
   7165.33  3.5302500E-01
   7165.67  3.5511678E-01
   7166.00  3.5737622E-01
   7166.33  3.5984471E-01
   7166.67  3.6251413E-01
   7167.00  3.6539381E-01
   7167.33  3.6851648E-01
   7167.67  3.7185508E-01
   7168.00  3.7540528E-01
   7168.33  3.7918304E-01
   7168.67  3.8315029E-01
   7169.00  3.8729435E-01
   7169.33  3.9161955E-01
   7169.67  3.9608820E-01
   7170.00  4.0068182E-01
   7170.33  4.0538265E-01
   7170.67  4.1013193E-01
   7171.00  4.1486406E-01
   7171.33  4.1942685E-01
   7171.67  4.2359294E-01
   7172.00  4.2703927E-01
