    FDMNES
    energy     <xanes>
   7097.00  4.2527732E-03
   7097.33  4.3337140E-03
   7097.67  4.4175534E-03
   7098.00  4.5044532E-03
   7098.33  4.5950281E-03
   7098.67  4.6890968E-03
   7099.00  4.7868730E-03
   7099.33  4.8891291E-03
   7099.67  4.9956729E-03
   7100.00  5.1067944E-03
   7100.33  5.2234899E-03
   7100.67  5.3455642E-03
   7101.00  5.4734251E-03
   7101.33  5.6083994E-03
   7101.67  5.7503094E-03
   7102.00  5.8997526E-03
   7102.33  6.0585686E-03
   7102.67  6.2266446E-03
   7103.00  6.4049021E-03
   7103.33  6.5960259E-03
   7103.67  6.8000798E-03
   7104.00  7.0185790E-03
   7104.33  7.2557086E-03
   7104.67  7.5119865E-03
   7105.00  7.7901145E-03
   7105.33  8.0972016E-03
   7105.67  8.4349690E-03
   7106.00  8.8087664E-03
   7106.33  9.2321357E-03
   7106.67  9.7102794E-03
   7107.00  1.0255396E-02
   7107.33  1.0897696E-02
   7107.67  1.1654133E-02
   7108.00  1.2558684E-02
   7108.33  1.3696204E-02
   7108.67  1.5134585E-02
   7109.00  1.7002407E-02
   7109.33  1.9641975E-02
   7109.67  2.3451537E-02
   7110.00  2.9215016E-02
   7110.33  3.9182308E-02
   7110.67  5.5508658E-02
   7111.00  7.7423803E-02
   7111.33  9.5927758E-02
   7111.67  1.1079207E-01
   7112.00  1.2710858E-01
   7112.33  1.3249698E-01
   7112.67  1.1463748E-01
   7113.00  8.7728822E-02
   7113.33  6.8667066E-02
   7113.67  5.7079819E-02
   7114.00  4.9148204E-02
   7114.33  4.3316404E-02
   7114.67  3.9911189E-02
   7115.00  3.8676608E-02
   7115.33  3.9285186E-02
   7115.67  4.1178814E-02
   7116.00  4.4186915E-02
   7116.33  4.8358090E-02
   7116.67  5.3576476E-02
   7117.00  5.9891984E-02
   7117.33  6.7503871E-02
   7117.67  7.6251736E-02
   7118.00  8.5992152E-02
   7118.33  9.6451874E-02
   7118.67  1.0709682E-01
   7119.00  1.1752322E-01
   7119.33  1.2710443E-01
   7119.67  1.3552156E-01
   7120.00  1.4293242E-01
   7120.33  1.5055250E-01
   7120.67  1.6035770E-01
   7121.00  1.7400046E-01
   7121.33  1.9336243E-01
   7121.67  2.1846907E-01
   7122.00  2.4967761E-01
   7122.33  2.8749795E-01
   7122.67  3.2879492E-01
   7123.00  3.6889742E-01
   7123.33  3.9958152E-01
   7123.67  4.1843786E-01
   7124.00  4.2900391E-01
   7124.33  4.3783162E-01
   7124.67  4.4782523E-01
   7125.00  4.5955847E-01
   7125.33  4.7642754E-01
   7125.67  5.0077759E-01
   7126.00  5.3239982E-01
   7126.33  5.6919601E-01
   7126.67  6.0870793E-01
   7127.00  6.5108564E-01
   7127.33  6.9658384E-01
   7127.67  7.4100240E-01
   7128.00  7.7863847E-01
   7128.33  8.0164673E-01
   7128.67  8.0847189E-01
   7129.00  8.0065050E-01
   7129.33  7.8287978E-01
   7129.67  7.6184849E-01
   7130.00  7.4008480E-01
   7130.33  7.1932461E-01
   7130.67  7.0132142E-01
   7131.00  6.8776352E-01
   7131.33  6.8082832E-01
   7131.67  6.8017547E-01
   7132.00  6.8455942E-01
   7132.33  6.9146886E-01
   7132.67  6.9925339E-01
   7133.00  7.0915691E-01
   7133.33  7.2362683E-01
   7133.67  7.4124583E-01
   7134.00  7.5884585E-01
   7134.33  7.7200131E-01
   7134.67  7.7908169E-01
   7135.00  7.8006566E-01
   7135.33  7.7571086E-01
   7135.67  7.6840415E-01
   7136.00  7.5944110E-01
   7136.33  7.4969303E-01
   7136.67  7.3965955E-01
   7137.00  7.2940369E-01
   7137.33  7.1883888E-01
   7137.67  7.0795652E-01
   7138.00  6.9676857E-01
   7138.33  6.8534630E-01
   7138.67  6.7386303E-01
   7139.00  6.6243304E-01
   7139.33  6.5115044E-01
   7139.67  6.4001072E-01
   7140.00  6.2898436E-01
   7140.33  6.1802189E-01
   7140.67  6.0706246E-01
   7141.00  5.9607524E-01
   7141.33  5.8503869E-01
   7141.67  5.7396405E-01
   7142.00  5.6287214E-01
   7142.33  5.5180237E-01
   7142.67  5.4079778E-01
   7143.00  5.2990086E-01
   7143.33  5.1918070E-01
   7143.67  5.0866573E-01
   7144.00  4.9839497E-01
   7144.33  4.8844557E-01
   7144.67  4.7882269E-01
   7145.00  4.6956442E-01
   7145.33  4.6077153E-01
   7145.67  4.5244694E-01
   7146.00  4.4464111E-01
   7146.33  4.3748473E-01
   7146.67  4.3095762E-01
   7147.00  4.2509227E-01
   7147.33  4.1998610E-01
   7147.67  4.1553152E-01
   7148.00  4.1167894E-01
   7148.33  4.0840173E-01
   7148.67  4.0550325E-01
   7149.00  4.0283831E-01
   7149.33  4.0022394E-01
   7149.67  3.9745394E-01
   7150.00  3.9437267E-01
   7150.33  3.9080820E-01
   7150.67  3.8677945E-01
   7151.00  3.8232712E-01
   7151.33  3.7754083E-01
   7151.67  3.7264384E-01
   7152.00  3.6781352E-01
   7152.33  3.6327308E-01
   7152.67  3.5913306E-01
   7153.00  3.5546012E-01
   7153.33  3.5231878E-01
   7153.67  3.4958929E-01
   7154.00  3.4718251E-01
   7154.33  3.4498974E-01
   7154.67  3.4285239E-01
   7155.00  3.4067179E-01
   7155.33  3.3834248E-01
   7155.67  3.3581799E-01
   7156.00  3.3306126E-01
   7156.33  3.3000865E-01
   7156.67  3.2667288E-01
   7157.00  3.2304671E-01
   7157.33  3.1910195E-01
   7157.67  3.1490616E-01
   7158.00  3.1051470E-01
   7158.33  3.0602118E-01
   7158.67  3.0158725E-01
   7159.00  2.9737346E-01
   7159.33  2.9364579E-01
   7159.67  2.9057109E-01
   7160.00  2.8833174E-01
   7160.33  2.8724799E-01
   7160.67  2.8735557E-01
   7161.00  2.8877180E-01
   7161.33  2.9178708E-01
   7161.67  2.9631254E-01
   7162.00  3.0240429E-01
   7162.33  3.1030894E-01
   7162.67  3.1984729E-01
   7163.00  3.3101557E-01
   7163.33  3.4397494E-01
   7163.67  3.5844661E-01
   7164.00  3.7432257E-01
   7164.33  3.9157780E-01
   7164.67  4.0981840E-01
   7165.00  4.2878165E-01
   7165.33  4.4813376E-01
   7165.67  4.6738904E-01
   7166.00  4.8613147E-01
   7166.33  5.0372927E-01
   7166.67  5.1981080E-01
   7167.00  5.3397853E-01
   7167.33  5.4555249E-01
   7167.67  5.5454024E-01
   7168.00  5.6081007E-01
   7168.33  5.6400945E-01
   7168.67  5.6462210E-01
   7169.00  5.6288242E-01
   7169.33  5.5892270E-01
   7169.67  5.5344722E-01
   7170.00  5.4688114E-01
   7170.33  5.3965063E-01
   7170.67  5.3230671E-01
   7171.00  5.2522591E-01
   7171.33  5.1888494E-01
   7171.67  5.1355502E-01
   7172.00  5.0949237E-01
