    FDMNES
    energy     <xanes>
   7097.00  4.5727995E-03
   7097.33  4.6706179E-03
   7097.67  4.7725084E-03
   7098.00  4.8787342E-03
   7098.33  4.9902182E-03
   7098.67  5.1067530E-03
   7099.00  5.2286966E-03
   7099.33  5.3572477E-03
   7099.67  5.4921946E-03
   7100.00  5.6340386E-03
   7100.33  5.7843810E-03
   7100.67  5.9430258E-03
   7101.00  6.1106988E-03
   7101.33  6.2896132E-03
   7101.67  6.4796331E-03
   7102.00  6.6818538E-03
   7102.33  6.8994620E-03
   7102.67  7.1324824E-03
   7103.00  7.3826516E-03
   7103.33  7.6547961E-03
   7103.67  7.9493350E-03
   7104.00  8.2691931E-03
   7104.33  8.6221603E-03
   7104.67  9.0096227E-03
   7105.00  9.4368987E-03
   7105.33  9.9176287E-03
   7105.67  1.0455696E-02
   7106.00  1.1061783E-02
   7106.33  1.1762501E-02
   7106.67  1.2568852E-02
   7107.00  1.3505394E-02
   7107.33  1.4632427E-02
   7107.67  1.5984762E-02
   7108.00  1.7630953E-02
   7108.33  1.9741512E-02
   7108.67  2.2453756E-02
   7109.00  2.6026366E-02
   7109.33  3.1146523E-02
   7109.67  3.8612381E-02
   7110.00  4.9993871E-02
   7110.33  6.9821069E-02
   7110.67  1.0272445E-01
   7111.00  1.4830562E-01
   7111.33  1.8639983E-01
   7111.67  2.0616106E-01
   7112.00  2.2008732E-01
   7112.33  2.3953988E-01
   7112.67  2.4941960E-01
   7113.00  2.2831482E-01
   7113.33  1.8649045E-01
   7113.67  1.5013802E-01
   7114.00  1.2233442E-01
   7114.33  1.0128939E-01
   7114.67  8.6669053E-02
   7115.00  7.7952024E-02
   7115.33  7.3431887E-02
   7115.67  7.0776896E-02
   7116.00  6.9407965E-02
   7116.33  6.9814900E-02
   7116.67  7.2086954E-02
   7117.00  7.6172425E-02
   7117.33  8.2059458E-02
   7117.67  8.9281845E-02
   7118.00  9.7635869E-02
   7118.33  1.0726310E-01
   7118.67  1.1832063E-01
   7119.00  1.3097307E-01
   7119.33  1.4498092E-01
   7119.67  1.5926867E-01
   7120.00  1.7307728E-01
   7120.33  1.8589501E-01
   7120.67  1.9793851E-01
   7121.00  2.0949375E-01
   7121.33  2.2080140E-01
   7121.67  2.3199743E-01
   7122.00  2.4337615E-01
   7122.33  2.5618997E-01
   7122.67  2.7180658E-01
   7123.00  2.9116114E-01
   7123.33  3.1496217E-01
   7123.67  3.4190763E-01
   7124.00  3.7046343E-01
   7124.33  3.9872507E-01
   7124.67  4.2657446E-01
   7125.00  4.5458431E-01
   7125.33  4.8115055E-01
   7125.67  5.0393589E-01
   7126.00  5.2175673E-01
   7126.33  5.3325500E-01
   7126.67  5.3896668E-01
   7127.00  5.3968821E-01
   7127.33  5.3765403E-01
   7127.67  5.3654384E-01
   7128.00  5.3820868E-01
   7128.33  5.4302840E-01
   7128.67  5.4929940E-01
   7129.00  5.5566947E-01
   7129.33  5.6109437E-01
   7129.67  5.6578388E-01
   7130.00  5.7033693E-01
   7130.33  5.7543974E-01
   7130.67  5.8137519E-01
   7131.00  5.8838411E-01
   7131.33  5.9710471E-01
   7131.67  6.0800708E-01
   7132.00  6.2168295E-01
   7132.33  6.3897731E-01
   7132.67  6.5943010E-01
   7133.00  6.8250891E-01
   7133.33  7.0732427E-01
   7133.67  7.3229202E-01
   7134.00  7.5591602E-01
   7134.33  7.7553982E-01
   7134.67  7.9002673E-01
   7135.00  7.9960426E-01
   7135.33  8.0514937E-01
   7135.67  8.0812984E-01
   7136.00  8.0893414E-01
   7136.33  8.0753315E-01
   7136.67  8.0436925E-01
   7137.00  7.9964056E-01
   7137.33  7.9341544E-01
   7137.67  7.8605989E-01
   7138.00  7.7769926E-01
   7138.33  7.6831168E-01
   7138.67  7.5806545E-01
   7139.00  7.4700018E-01
   7139.33  7.3508686E-01
   7139.67  7.2252595E-01
   7140.00  7.0944812E-01
   7140.33  6.9600544E-01
   7140.67  6.8246100E-01
   7141.00  6.6901620E-01
   7141.33  6.5594108E-01
   7141.67  6.4338896E-01
   7142.00  6.3145725E-01
   7142.33  6.2025212E-01
   7142.67  6.0967877E-01
   7143.00  5.9971327E-01
   7143.33  5.9038571E-01
   7143.67  5.8157584E-01
   7144.00  5.7324148E-01
   7144.33  5.6539694E-01
   7144.67  5.5796790E-01
   7145.00  5.5095948E-01
   7145.33  5.4446122E-01
   7145.67  5.3847386E-01
   7146.00  5.3305911E-01
   7146.33  5.2837263E-01
   7146.67  5.2440493E-01
   7147.00  5.2120742E-01
   7147.33  5.1890545E-01
   7147.67  5.1738941E-01
   7148.00  5.1662739E-01
   7148.33  5.1664176E-01
   7148.67  5.1725094E-01
   7149.00  5.1834364E-01
   7149.33  5.1979455E-01
   7149.67  5.2138114E-01
   7150.00  5.2293843E-01
   7150.33  5.2423322E-01
   7150.67  5.2509042E-01
   7151.00  5.2534627E-01
   7151.33  5.2473974E-01
   7151.67  5.2324132E-01
   7152.00  5.2078399E-01
   7152.33  5.1722526E-01
   7152.67  5.1273547E-01
   7153.00  5.0740427E-01
   7153.33  5.0129178E-01
   7153.67  4.9465983E-01
   7154.00  4.8766641E-01
   7154.33  4.8046485E-01
   7154.67  4.7323352E-01
   7155.00  4.6608289E-01
   7155.33  4.5913591E-01
   7155.67  4.5244243E-01
   7156.00  4.4604667E-01
   7156.33  4.4002404E-01
   7156.67  4.3434934E-01
   7157.00  4.2902568E-01
   7157.33  4.2409114E-01
   7157.67  4.1949094E-01
   7158.00  4.1521188E-01
   7158.33  4.1127345E-01
   7158.67  4.0761859E-01
   7159.00  4.0423262E-01
   7159.33  4.0113464E-01
   7159.67  3.9828683E-01
   7160.00  3.9569230E-01
   7160.33  3.9339961E-01
   7160.67  3.9140280E-01
   7161.00  3.8973455E-01
   7161.33  3.8848499E-01
   7161.67  3.8765062E-01
   7162.00  3.8726247E-01
   7162.33  3.8740294E-01
   7162.67  3.8802107E-01
   7163.00  3.8910711E-01
   7163.33  3.9067737E-01
   7163.67  3.9262279E-01
   7164.00  3.9489116E-01
   7164.33  3.9745123E-01
   7164.67  4.0020360E-01
   7165.00  4.0309057E-01
   7165.33  4.0605701E-01
   7165.67  4.0903552E-01
   7166.00  4.1198072E-01
   7166.33  4.1483654E-01
   7166.67  4.1757523E-01
   7167.00  4.2017162E-01
   7167.33  4.2258462E-01
   7167.67  4.2482240E-01
   7168.00  4.2688045E-01
   7168.33  4.2873729E-01
   7168.67  4.3042096E-01
   7169.00  4.3193857E-01
   7169.33  4.3327980E-01
   7169.67  4.3447312E-01
   7170.00  4.3552540E-01
   7170.33  4.3642731E-01
   7170.67  4.3720228E-01
   7171.00  4.3785617E-01
   7171.33  4.3838225E-01
   7171.67  4.3880244E-01
   7172.00  4.3912414E-01
