    FDMNES
    energy     <xanes>
   7097.00  4.3873414E-03
   7097.33  4.4832371E-03
   7097.67  4.5832299E-03
   7098.00  4.6875920E-03
   7098.33  4.7972639E-03
   7098.67  4.9120469E-03
   7099.00  5.0323136E-03
   7099.33  5.1592943E-03
   7099.67  5.2927890E-03
   7100.00  5.4333229E-03
   7100.33  5.5825523E-03
   7100.67  5.7402984E-03
   7101.00  5.9073276E-03
   7101.33  6.0859475E-03
   7101.67  6.2760510E-03
   7102.00  6.4788029E-03
   7102.33  6.6975557E-03
   7102.67  6.9323860E-03
   7103.00  7.1851551E-03
   7103.33  7.4609888E-03
   7103.67  7.7604081E-03
   7104.00  8.0865740E-03
   7104.33  8.4478424E-03
   7104.67  8.8458189E-03
   7105.00  9.2863013E-03
   7105.33  9.7840750E-03
   7105.67  1.0343548E-02
   7106.00  1.0976473E-02
   7106.33  1.1712014E-02
   7106.67  1.2562599E-02
   7107.00  1.3555513E-02
   7107.33  1.4757637E-02
   7107.67  1.6208385E-02
   7108.00  1.7984783E-02
   7108.33  2.0278469E-02
   7108.67  2.3246067E-02
   7109.00  2.7181993E-02
   7109.33  3.2870011E-02
   7109.67  4.1230027E-02
   7110.00  5.4074490E-02
   7110.33  7.6672063E-02
   7110.67  1.1463753E-01
   7111.00  1.6761938E-01
   7111.33  2.0720596E-01
   7111.67  2.2253900E-01
   7112.00  2.3087612E-01
   7112.33  2.4692876E-01
   7112.67  2.5817661E-01
   7113.00  2.3860371E-01
   7113.33  1.9447170E-01
   7113.67  1.5613501E-01
   7114.00  1.2821627E-01
   7114.33  1.0684789E-01
   7114.67  8.9532130E-02
   7115.00  7.7415085E-02
   7115.33  7.0138031E-02
   7115.67  6.5528693E-02
   7116.00  6.2906546E-02
   7116.33  6.2234228E-02
   7116.67  6.3113100E-02
   7117.00  6.5354480E-02
   7117.33  6.8851303E-02
   7117.67  7.3196670E-02
   7118.00  7.8229901E-02
   7118.33  8.4133258E-02
   7118.67  9.1202510E-02
   7119.00  9.9829437E-02
   7119.33  1.1052730E-01
   7119.67  1.2309703E-01
   7120.00  1.3741007E-01
   7120.33  1.5339012E-01
   7120.67  1.7049293E-01
   7121.00  1.8831427E-01
   7121.33  2.0627373E-01
   7121.67  2.2377876E-01
   7122.00  2.4067465E-01
   7122.33  2.5749048E-01
   7122.67  2.7505103E-01
   7123.00  2.9348873E-01
   7123.33  3.1209745E-01
   7123.67  3.2996414E-01
   7124.00  3.4685358E-01
   7124.33  3.6308830E-01
   7124.67  3.7912388E-01
   7125.00  3.9456870E-01
   7125.33  4.0834908E-01
   7125.67  4.2104808E-01
   7126.00  4.3394337E-01
   7126.33  4.4773412E-01
   7126.67  4.6131671E-01
   7127.00  4.7302849E-01
   7127.33  4.8048760E-01
   7127.67  4.8382816E-01
   7128.00  4.8447307E-01
   7128.33  4.8429182E-01
   7128.67  4.8408842E-01
   7129.00  4.8357811E-01
   7129.33  4.8226954E-01
   7129.67  4.8056357E-01
   7130.00  4.7939223E-01
   7130.33  4.8022278E-01
   7130.67  4.8354379E-01
   7131.00  4.8943128E-01
   7131.33  4.9800875E-01
   7131.67  5.0885880E-01
   7132.00  5.2201429E-01
   7132.33  5.3800279E-01
   7132.67  5.5696573E-01
   7133.00  5.7950808E-01
   7133.33  6.0700008E-01
   7133.67  6.3947948E-01
   7134.00  6.7683854E-01
   7134.33  7.1795810E-01
   7134.67  7.5898264E-01
   7135.00  7.9621580E-01
   7135.33  8.2539867E-01
   7135.67  8.4593744E-01
   7136.00  8.5784351E-01
   7136.33  8.6110192E-01
   7136.67  8.5813860E-01
   7137.00  8.5033868E-01
   7137.33  8.3882363E-01
   7137.67  8.2531626E-01
   7138.00  8.1070942E-01
   7138.33  7.9571221E-01
   7138.67  7.8081521E-01
   7139.00  7.6620960E-01
   7139.33  7.5204308E-01
   7139.67  7.3831523E-01
   7140.00  7.2507337E-01
   7140.33  7.1247116E-01
   7140.67  7.0053575E-01
   7141.00  6.8933845E-01
   7141.33  6.7901596E-01
   7141.67  6.6945618E-01
   7142.00  6.6061207E-01
   7142.33  6.5248880E-01
   7142.67  6.4493195E-01
   7143.00  6.3789090E-01
   7143.33  6.3138679E-01
   7143.67  6.2534150E-01
   7144.00  6.1974981E-01
   7144.33  6.1466535E-01
   7144.67  6.1002609E-01
   7145.00  6.0582003E-01
   7145.33  6.0205845E-01
   7145.67  5.9862008E-01
   7146.00  5.9543321E-01
   7146.33  5.9243799E-01
   7146.67  5.8953904E-01
   7147.00  5.8668474E-01
   7147.33  5.8383842E-01
   7147.67  5.8098535E-01
   7148.00  5.7813198E-01
   7148.33  5.7531877E-01
   7148.67  5.7261036E-01
   7149.00  5.7008244E-01
   7149.33  5.6786321E-01
   7149.67  5.6600836E-01
   7150.00  5.6458855E-01
   7150.33  5.6373274E-01
   7150.67  5.6341980E-01
   7151.00  5.6366262E-01
   7151.33  5.6451440E-01
   7151.67  5.6585909E-01
   7152.00  5.6762750E-01
   7152.33  5.6974601E-01
   7152.67  5.7202763E-01
   7153.00  5.7431414E-01
   7153.33  5.7636003E-01
   7153.67  5.7794779E-01
   7154.00  5.7885913E-01
   7154.33  5.7873103E-01
   7154.67  5.7745824E-01
   7155.00  5.7488535E-01
   7155.33  5.7071668E-01
   7155.67  5.6509645E-01
   7156.00  5.5805710E-01
   7156.33  5.4952421E-01
   7156.67  5.3979631E-01
   7157.00  5.2900807E-01
   7157.33  5.1721804E-01
   7157.67  5.0471472E-01
   7158.00  4.9165378E-01
   7158.33  4.7817378E-01
   7158.67  4.6451256E-01
   7159.00  4.5083971E-01
   7159.33  4.3738000E-01
   7159.67  4.2431073E-01
   7160.00  4.1180001E-01
   7160.33  4.0012299E-01
   7160.67  3.8934660E-01
   7161.00  3.7958279E-01
   7161.33  3.7106290E-01
   7161.67  3.6369798E-01
   7162.00  3.5749766E-01
   7162.33  3.5257172E-01
   7162.67  3.4870344E-01
   7163.00  3.4581221E-01
   7163.33  3.4390460E-01
   7163.67  3.4276242E-01
   7164.00  3.4229052E-01
   7164.33  3.4245028E-01
   7164.67  3.4306770E-01
   7165.00  3.4405907E-01
   7165.33  3.4536928E-01
   7165.67  3.4687989E-01
   7166.00  3.4852613E-01
   7166.33  3.5024948E-01
   7166.67  3.5198361E-01
   7167.00  3.5368688E-01
   7167.33  3.5531249E-01
   7167.67  3.5684224E-01
   7168.00  3.5826182E-01
   7168.33  3.5954966E-01
   7168.67  3.6072338E-01
   7169.00  3.6179241E-01
   7169.33  3.6276298E-01
   7169.67  3.6366696E-01
   7170.00  3.6452303E-01
   7170.33  3.6534763E-01
   7170.67  3.6615917E-01
   7171.00  3.6696281E-01
   7171.33  3.6774609E-01
   7171.67  3.6847107E-01
   7172.00  3.6907324E-01
