    FDMNES
    energy     <xanes>
   7097.00  5.5879472E-03
   7097.33  5.7355969E-03
   7097.67  5.8906093E-03
   7098.00  6.0535139E-03
   7098.33  6.2260662E-03
   7098.67  6.4079577E-03
   7099.00  6.5999158E-03
   7099.33  6.8042635E-03
   7099.67  7.0206908E-03
   7100.00  7.2502225E-03
   7100.33  7.4960099E-03
   7100.67  7.7577786E-03
   7101.00  8.0370145E-03
   7101.33  8.3381191E-03
   7101.67  8.6609338E-03
   7102.00  9.0076882E-03
   7102.33  9.3847437E-03
   7102.67  9.7922327E-03
   7103.00  1.0233638E-02
   7103.33  1.0718539E-02
   7103.67  1.1247747E-02
   7104.00  1.1826973E-02
   7104.33  1.2471388E-02
   7104.67  1.3183375E-02
   7105.00  1.3972876E-02
   7105.33  1.4865480E-02
   7105.67  1.5867342E-02
   7106.00  1.6997152E-02
   7106.33  1.8301691E-02
   7106.67  1.9796864E-02
   7107.00  2.1521512E-02
   7107.33  2.3570950E-02
   7107.67  2.5989330E-02
   7108.00  2.8869423E-02
   7108.33  3.2437765E-02
   7108.67  3.6836433E-02
   7109.00  4.2338280E-02
   7109.33  4.9626947E-02
   7109.67  5.9300095E-02
   7110.00  7.2486973E-02
   7110.33  9.2231194E-02
   7110.67  1.2188339E-01
   7111.00  1.6634050E-01
   7111.33  2.3777654E-01
   7111.67  3.5158608E-01
   7112.00  5.1460493E-01
   7112.33  6.7227856E-01
   7112.67  7.8652238E-01
   7113.00  8.6036585E-01
   7113.33  8.2045964E-01
   7113.67  6.9177148E-01
   7114.00  5.4056741E-01
   7114.33  4.2162523E-01
   7114.67  3.3778641E-01
   7115.00  2.8067790E-01
   7115.33  2.4306089E-01
   7115.67  2.1660641E-01
   7116.00  1.9820087E-01
   7116.33  1.8643256E-01
   7116.67  1.7908071E-01
   7117.00  1.7492600E-01
   7117.33  1.7220060E-01
   7117.67  1.6854946E-01
   7118.00  1.6305014E-01
   7118.33  1.5622160E-01
   7118.67  1.4967098E-01
   7119.00  1.4431697E-01
   7119.33  1.4051424E-01
   7119.67  1.3765441E-01
   7120.00  1.3533419E-01
   7120.33  1.3327180E-01
   7120.67  1.3114191E-01
   7121.00  1.2874164E-01
   7121.33  1.2615831E-01
   7121.67  1.2386470E-01
   7122.00  1.2227995E-01
   7122.33  1.2172871E-01
   7122.67  1.2212098E-01
   7123.00  1.2350205E-01
   7123.33  1.2592612E-01
   7123.67  1.2911650E-01
   7124.00  1.3295310E-01
   7124.33  1.3741603E-01
   7124.67  1.4241641E-01
   7125.00  1.4803154E-01
   7125.33  1.5459153E-01
   7125.67  1.6229432E-01
   7126.00  1.7140648E-01
   7126.33  1.8263187E-01
   7126.67  1.9659366E-01
   7127.00  2.1427125E-01
   7127.33  2.3750298E-01
   7127.67  2.6688432E-01
   7128.00  3.0327699E-01
   7128.33  3.4775173E-01
   7128.67  3.9778546E-01
   7129.00  4.5045457E-01
   7129.33  5.0156507E-01
   7129.67  5.4866032E-01
   7130.00  5.9143937E-01
   7130.33  6.3092433E-01
   7130.67  6.6953067E-01
   7131.00  7.0872373E-01
   7131.33  7.4942765E-01
   7131.67  7.9086966E-01
   7132.00  8.3151537E-01
   7132.33  8.6846724E-01
   7132.67  8.9953601E-01
   7133.00  9.2284769E-01
   7133.33  9.3582400E-01
   7133.67  9.3909816E-01
   7134.00  9.3288995E-01
   7134.33  9.1695148E-01
   7134.67  8.9355007E-01
   7135.00  8.6378679E-01
   7135.33  8.2833748E-01
   7135.67  7.8930789E-01
   7136.00  7.4820830E-01
   7136.33  7.0693729E-01
   7136.67  6.6730193E-01
   7137.00  6.3058848E-01
   7137.33  5.9848303E-01
   7137.67  5.7122498E-01
   7138.00  5.4898418E-01
   7138.33  5.3184684E-01
   7138.67  5.1819495E-01
   7139.00  5.0702110E-01
   7139.33  4.9766860E-01
   7139.67  4.8960291E-01
   7140.00  4.8290090E-01
   7140.33  4.7809523E-01
   7140.67  4.7536786E-01
   7141.00  4.7501259E-01
   7141.33  4.7759661E-01
   7141.67  4.8289918E-01
   7142.00  4.9088474E-01
   7142.33  5.0166520E-01
   7142.67  5.1457246E-01
   7143.00  5.2919739E-01
   7143.33  5.4513714E-01
   7143.67  5.6167216E-01
   7144.00  5.7832868E-01
   7144.33  5.9456474E-01
   7144.67  6.1001450E-01
   7145.00  6.2439667E-01
   7145.33  6.3730366E-01
   7145.67  6.4873868E-01
   7146.00  6.5862179E-01
   7146.33  6.6671872E-01
   7146.67  6.7324258E-01
   7147.00  6.7823943E-01
   7147.33  6.8161829E-01
   7147.67  6.8368139E-01
   7148.00  6.8455222E-01
   7148.33  6.8424663E-01
   7148.67  6.8304200E-01
   7149.00  6.8107351E-01
   7149.33  6.7843808E-01
   7149.67  6.7537009E-01
   7150.00  6.7198969E-01
   7150.33  6.6839721E-01
   7150.67  6.6472219E-01
   7151.00  6.6103956E-01
   7151.33  6.5742477E-01
   7151.67  6.5391848E-01
   7152.00  6.5054810E-01
   7152.33  6.4735105E-01
   7152.67  6.4431449E-01
   7153.00  6.4143698E-01
   7153.33  6.3872962E-01
   7153.67  6.3616185E-01
   7154.00  6.3372257E-01
   7154.33  6.3141371E-01
   7154.67  6.2921125E-01
   7155.00  6.2711041E-01
   7155.33  6.2512155E-01
   7155.67  6.2323310E-01
   7156.00  6.2144585E-01
   7156.33  6.1976655E-01
   7156.67  6.1816621E-01
   7157.00  6.1661951E-01
   7157.33  6.1508492E-01
   7157.67  6.1350449E-01
   7158.00  6.1182126E-01
   7158.33  6.0994258E-01
   7158.67  6.0782040E-01
   7159.00  6.0540183E-01
   7159.33  6.0259494E-01
   7159.67  5.9941084E-01
   7160.00  5.9583737E-01
   7160.33  5.9183014E-01
   7160.67  5.8745780E-01
   7161.00  5.8274503E-01
   7161.33  5.7768539E-01
   7161.67  5.7235694E-01
   7162.00  5.6680086E-01
   7162.33  5.6104304E-01
   7162.67  5.5514940E-01
   7163.00  5.4915180E-01
   7163.33  5.4307031E-01
   7163.67  5.3693588E-01
   7164.00  5.3076127E-01
   7164.33  5.2455043E-01
   7164.67  5.1830892E-01
   7165.00  5.1203394E-01
   7165.33  5.0571267E-01
   7165.67  4.9933936E-01
   7166.00  4.9290346E-01
   7166.33  4.8638378E-01
   7166.67  4.7978108E-01
   7167.00  4.7308924E-01
   7167.33  4.6628993E-01
   7167.67  4.5939360E-01
   7168.00  4.5240426E-01
   7168.33  4.4532210E-01
   7168.67  4.3817476E-01
   7169.00  4.3098527E-01
   7169.33  4.2379043E-01
   7169.67  4.1663524E-01
   7170.00  4.0956599E-01
   7170.33  4.0266626E-01
   7170.67  3.9599672E-01
   7171.00  3.8964524E-01
   7171.33  3.8381573E-01
   7171.67  3.7868233E-01
   7172.00  3.7452330E-01
