    FDMNES
    energy     <xanes>
   7097.00  5.3903814E-03
   7097.33  5.5265416E-03
   7097.67  5.6692476E-03
   7098.00  5.8189591E-03
   7098.33  5.9772189E-03
   7098.67  6.1437388E-03
   7099.00  6.3191485E-03
   7099.33  6.5054795E-03
   7099.67  6.7024393E-03
   7100.00  6.9109121E-03
   7100.33  7.1336412E-03
   7100.67  7.3703613E-03
   7101.00  7.6223507E-03
   7101.33  7.8934246E-03
   7101.67  8.1834133E-03
   7102.00  8.4942308E-03
   7102.33  8.8313711E-03
   7102.67  9.1949105E-03
   7103.00  9.5878348E-03
   7103.33  1.0018397E-02
   7103.67  1.0487252E-02
   7104.00  1.0999299E-02
   7104.33  1.1567593E-02
   7104.67  1.2194150E-02
   7105.00  1.2887522E-02
   7105.33  1.3669753E-02
   7105.67  1.4546173E-02
   7106.00  1.5532958E-02
   7106.33  1.6670636E-02
   7106.67  1.7973250E-02
   7107.00  1.9474853E-02
   7107.33  2.1259124E-02
   7107.67  2.3366100E-02
   7108.00  2.5879222E-02
   7108.33  2.9003114E-02
   7108.67  3.2872666E-02
   7109.00  3.7746232E-02
   7109.33  4.4280311E-02
   7109.67  5.3093628E-02
   7110.00  6.5371167E-02
   7110.33  8.4408201E-02
   7110.67  1.1409630E-01
   7111.00  1.5950275E-01
   7111.33  2.2528794E-01
   7111.67  3.0432105E-01
   7112.00  3.9171069E-01
   7112.33  5.0001396E-01
   7112.67  6.1215335E-01
   7113.00  6.7915109E-01
   7113.33  6.6067111E-01
   7113.67  5.8317882E-01
   7114.00  4.8139409E-01
   7114.33  3.8930779E-01
   7114.67  3.1839097E-01
   7115.00  2.6815491E-01
   7115.33  2.3630658E-01
   7115.67  2.1693590E-01
   7116.00  2.0739563E-01
   7116.33  2.0470612E-01
   7116.67  2.0257876E-01
   7117.00  1.9689929E-01
   7117.33  1.8622463E-01
   7117.67  1.7333650E-01
   7118.00  1.6050524E-01
   7118.33  1.4940283E-01
   7118.67  1.4018213E-01
   7119.00  1.3278823E-01
   7119.33  1.2734383E-01
   7119.67  1.2354484E-01
   7120.00  1.2122524E-01
   7120.33  1.2027476E-01
   7120.67  1.2038970E-01
   7121.00  1.2155564E-01
   7121.33  1.2383853E-01
   7121.67  1.2696316E-01
   7122.00  1.3080215E-01
   7122.33  1.3533504E-01
   7122.67  1.4044140E-01
   7123.00  1.4615122E-01
   7123.33  1.5275689E-01
   7123.67  1.6057412E-01
   7124.00  1.7007673E-01
   7124.33  1.8197697E-01
   7124.67  1.9601599E-01
   7125.00  2.1178274E-01
   7125.33  2.2883399E-01
   7125.67  2.4672607E-01
   7126.00  2.6536823E-01
   7126.33  2.8450654E-01
   7126.67  3.0362223E-01
   7127.00  3.2262770E-01
   7127.33  3.4193053E-01
   7127.67  3.6189753E-01
   7128.00  3.8265687E-01
   7128.33  4.0455686E-01
   7128.67  4.2806920E-01
   7129.00  4.5390258E-01
   7129.33  4.8338242E-01
   7129.67  5.1731374E-01
   7130.00  5.5703192E-01
   7130.33  6.0512178E-01
   7130.67  6.6198858E-01
   7131.00  7.2816858E-01
   7131.33  8.0416000E-01
   7131.67  8.8625316E-01
   7132.00  9.6999759E-01
   7132.33  1.0469024E+00
   7132.67  1.1090391E+00
   7133.00  1.1504006E+00
   7133.33  1.1638849E+00
   7133.67  1.1514647E+00
   7134.00  1.1146093E+00
   7134.33  1.0560368E+00
   7134.67  9.8584442E-01
   7135.00  9.1066339E-01
   7135.33  8.3651632E-01
   7135.67  7.6683057E-01
   7136.00  7.0315654E-01
   7136.33  6.4710983E-01
   7136.67  5.9804500E-01
   7137.00  5.5594502E-01
   7137.33  5.2155115E-01
   7137.67  4.9381843E-01
   7138.00  4.7251305E-01
   7138.33  4.5800343E-01
   7138.67  4.4901146E-01
   7139.00  4.4498481E-01
   7139.33  4.4571104E-01
   7139.67  4.4986236E-01
   7140.00  4.5674834E-01
   7140.33  4.6585307E-01
   7140.67  4.7625065E-01
   7141.00  4.8744374E-01
   7141.33  4.9900082E-01
   7141.67  5.1051909E-01
   7142.00  5.2176244E-01
   7142.33  5.3246386E-01
   7142.67  5.4253141E-01
   7143.00  5.5186677E-01
   7143.33  5.6028344E-01
   7143.67  5.6782662E-01
   7144.00  5.7446655E-01
   7144.33  5.8007272E-01
   7144.67  5.8475910E-01
   7145.00  5.8853173E-01
   7145.33  5.9128824E-01
   7145.67  5.9315303E-01
   7146.00  5.9413725E-01
   7146.33  5.9415333E-01
   7146.67  5.9334506E-01
   7147.00  5.9176039E-01
   7147.33  5.8938286E-01
   7147.67  5.8639327E-01
   7148.00  5.8289387E-01
   7148.33  5.7898263E-01
   7148.67  5.7486877E-01
   7149.00  5.7069626E-01
   7149.33  5.6663719E-01
   7149.67  5.6282359E-01
   7150.00  5.5936240E-01
   7150.33  5.5640957E-01
   7150.67  5.5397819E-01
   7151.00  5.5210329E-01
   7151.33  5.5086769E-01
   7151.67  5.5018211E-01
   7152.00  5.5000893E-01
   7152.33  5.5033762E-01
   7152.67  5.5102748E-01
   7153.00  5.5199638E-01
   7153.33  5.5316895E-01
   7153.67  5.5443242E-01
   7154.00  5.5572328E-01
   7154.33  5.5698712E-01
   7154.67  5.5820292E-01
   7155.00  5.5937135E-01
   7155.33  5.6050951E-01
   7155.67  5.6165489E-01
   7156.00  5.6284151E-01
   7156.33  5.6411733E-01
   7156.67  5.6550230E-01
   7157.00  5.6701183E-01
   7157.33  5.6866614E-01
   7157.67  5.7043780E-01
   7158.00  5.7230508E-01
   7158.33  5.7423681E-01
   7158.67  5.7617592E-01
   7159.00  5.7807360E-01
   7159.33  5.7985168E-01
   7159.67  5.8144581E-01
   7160.00  5.8277812E-01
   7160.33  5.8371468E-01
   7160.67  5.8421893E-01
   7161.00  5.8422465E-01
   7161.33  5.8359247E-01
   7161.67  5.8233601E-01
   7162.00  5.8041567E-01
   7162.33  5.7771130E-01
   7162.67  5.7429345E-01
   7163.00  5.7016264E-01
   7163.33  5.6525027E-01
   7163.67  5.5968026E-01
   7164.00  5.5349871E-01
   7164.33  5.4670582E-01
   7164.67  5.3944959E-01
   7165.00  5.3180522E-01
   7165.33  5.2382757E-01
   7165.67  5.1564624E-01
   7166.00  5.0733846E-01
   7166.33  4.9898379E-01
   7166.67  4.9066362E-01
   7167.00  4.8243488E-01
   7167.33  4.7437463E-01
   7167.67  4.6652182E-01
   7168.00  4.5892744E-01
   7168.33  4.5167449E-01
   7168.67  4.4475611E-01
   7169.00  4.3819631E-01
   7169.33  4.3206823E-01
   7169.67  4.2634576E-01
   7170.00  4.2104608E-01
   7170.33  4.1624280E-01
   7170.67  4.1189808E-01
   7171.00  4.0802717E-01
   7171.33  4.0471565E-01
   7171.67  4.0194203E-01
   7172.00  3.9975508E-01
