    FDMNES
    energy     <xanes>
   7097.00  4.9165152E-03
   7097.33  5.0353486E-03
   7097.67  5.1597244E-03
   7098.00  5.2900315E-03
   7098.33  5.4275769E-03
   7098.67  5.5721187E-03
   7099.00  5.7241934E-03
   7099.33  5.8855297E-03
   7099.67  6.0558888E-03
   7100.00  6.2360322E-03
   7100.33  6.4283111E-03
   7100.67  6.6325234E-03
   7101.00  6.8497861E-03
   7101.33  7.0834054E-03
   7101.67  7.3332895E-03
   7102.00  7.6011423E-03
   7102.33  7.8918028E-03
   7102.67  8.2054520E-03
   7103.00  8.5448155E-03
   7103.33  8.9173284E-03
   7103.67  9.3238182E-03
   7104.00  9.7689039E-03
   7104.33  1.0264723E-02
   7104.67  1.0813656E-02
   7105.00  1.1424121E-02
   7105.33  1.2117524E-02
   7105.67  1.2900185E-02
   7106.00  1.3788976E-02
   7106.33  1.4825701E-02
   7106.67  1.6027728E-02
   7107.00  1.7433495E-02
   7107.33  1.9137042E-02
   7107.67  2.1191924E-02
   7108.00  2.3703504E-02
   7108.33  2.6932709E-02
   7108.67  3.1084538E-02
   7109.00  3.6544480E-02
   7109.33  4.4328153E-02
   7109.67  5.5581459E-02
   7110.00  7.2545575E-02
   7110.33  1.0164764E-01
   7110.67  1.4959277E-01
   7111.00  2.1735774E-01
   7111.33  2.8357189E-01
   7111.67  3.3671937E-01
   7112.00  3.9005526E-01
   7112.33  4.3797104E-01
   7112.67  4.5120542E-01
   7113.00  4.0292655E-01
   7113.33  3.0735209E-01
   7113.67  2.2694510E-01
   7114.00  1.7539580E-01
   7114.33  1.5089198E-01
   7114.67  1.4533333E-01
   7115.00  1.5567905E-01
   7115.33  1.7025594E-01
   7115.67  1.6546252E-01
   7116.00  1.4063546E-01
   7116.33  1.1527853E-01
   7116.67  9.7823305E-02
   7117.00  8.7726217E-02
   7117.33  8.3606274E-02
   7117.67  8.2887425E-02
   7118.00  8.4086317E-02
   7118.33  8.6320714E-02
   7118.67  8.9691108E-02
   7119.00  9.4474219E-02
   7119.33  1.0008693E-01
   7119.67  1.0515082E-01
   7120.00  1.0897479E-01
   7120.33  1.1238529E-01
   7120.67  1.1763685E-01
   7121.00  1.2615848E-01
   7121.33  1.3869294E-01
   7121.67  1.5441741E-01
   7122.00  1.7339781E-01
   7122.33  1.9645270E-01
   7122.67  2.2253643E-01
   7123.00  2.5005521E-01
   7123.33  2.7812116E-01
   7123.67  3.0768530E-01
   7124.00  3.3860595E-01
   7124.33  3.6779358E-01
   7124.67  3.9152567E-01
   7125.00  4.0751162E-01
   7125.33  4.1550811E-01
   7125.67  4.2011549E-01
   7126.00  4.2521861E-01
   7126.33  4.3503438E-01
   7126.67  4.5085113E-01
   7127.00  4.7262436E-01
   7127.33  4.9960726E-01
   7127.67  5.2962317E-01
   7128.00  5.6163285E-01
   7128.33  5.9408539E-01
   7128.67  6.2439556E-01
   7129.00  6.5161776E-01
   7129.33  6.7878098E-01
   7129.67  7.0956794E-01
   7130.00  7.4280762E-01
   7130.33  7.7225496E-01
   7130.67  7.9293433E-01
   7131.00  8.0306520E-01
   7131.33  8.0193695E-01
   7131.67  7.9277184E-01
   7132.00  7.7822619E-01
   7132.33  7.6187549E-01
   7132.67  7.4711617E-01
   7133.00  7.3563440E-01
   7133.33  7.2884756E-01
   7133.67  7.2629092E-01
   7134.00  7.2740390E-01
   7134.33  7.3101748E-01
   7134.67  7.3489990E-01
   7135.00  7.3772337E-01
   7135.33  7.3891725E-01
   7135.67  7.3917736E-01
   7136.00  7.3895947E-01
   7136.33  7.3833880E-01
   7136.67  7.3711341E-01
   7137.00  7.3495359E-01
   7137.33  7.3139929E-01
   7137.67  7.2658958E-01
   7138.00  7.2079509E-01
   7138.33  7.1439882E-01
   7138.67  7.0775609E-01
   7139.00  7.0084661E-01
   7139.33  6.9325136E-01
   7139.67  6.8443605E-01
   7140.00  6.7378507E-01
   7140.33  6.6051078E-01
   7140.67  6.4510950E-01
   7141.00  6.2850106E-01
   7141.33  6.1242878E-01
   7141.67  5.9855110E-01
   7142.00  5.8788726E-01
   7142.33  5.8125085E-01
   7142.67  5.7769496E-01
   7143.00  5.7625506E-01
   7143.33  5.7552222E-01
   7143.67  5.7384915E-01
   7144.00  5.7009269E-01
   7144.33  5.6310562E-01
   7144.67  5.5323933E-01
   7145.00  5.4109380E-01
   7145.33  5.2770069E-01
   7145.67  5.1448716E-01
   7146.00  5.0236080E-01
   7146.33  4.9224932E-01
   7146.67  4.8424871E-01
   7147.00  4.7839456E-01
   7147.33  4.7478581E-01
   7147.67  4.7291294E-01
   7148.00  4.7252905E-01
   7148.33  4.7350314E-01
   7148.67  4.7541704E-01
   7149.00  4.7805735E-01
   7149.33  4.8126215E-01
   7149.67  4.8476665E-01
   7150.00  4.8840769E-01
   7150.33  4.9199011E-01
   7150.67  4.9533022E-01
   7151.00  4.9827531E-01
   7151.33  5.0063298E-01
   7151.67  5.0244866E-01
   7152.00  5.0381912E-01
   7152.33  5.0494631E-01
   7152.67  5.0613645E-01
   7153.00  5.0759231E-01
   7153.33  5.0948214E-01
   7153.67  5.1172229E-01
   7154.00  5.1416972E-01
   7154.33  5.1657078E-01
   7154.67  5.1866138E-01
   7155.00  5.2024342E-01
   7155.33  5.2108221E-01
   7155.67  5.2120626E-01
   7156.00  5.2063389E-01
   7156.33  5.1934814E-01
   7156.67  5.1749802E-01
   7157.00  5.1512771E-01
   7157.33  5.1219583E-01
   7157.67  5.0875373E-01
   7158.00  5.0477393E-01
   7158.33  5.0014589E-01
   7158.67  4.9491389E-01
   7159.00  4.8907551E-01
   7159.33  4.8259180E-01
   7159.67  4.7561113E-01
   7160.00  4.6823108E-01
   7160.33  4.6055918E-01
   7160.67  4.5278366E-01
   7161.00  4.4503803E-01
   7161.33  4.3748355E-01
   7161.67  4.3021063E-01
   7162.00  4.2328691E-01
   7162.33  4.1680374E-01
   7162.67  4.1072070E-01
   7163.00  4.0502563E-01
   7163.33  3.9973387E-01
   7163.67  3.9476224E-01
   7164.00  3.9007723E-01
   7164.33  3.8567760E-01
   7164.67  3.8150878E-01
   7165.00  3.7756085E-01
   7165.33  3.7386036E-01
   7165.67  3.7038829E-01
   7166.00  3.6715841E-01
   7166.33  3.6422493E-01
   7166.67  3.6157821E-01
   7167.00  3.5923706E-01
   7167.33  3.5726020E-01
   7167.67  3.5561995E-01
   7168.00  3.5432162E-01
   7168.33  3.5340633E-01
   7168.67  3.5282279E-01
   7169.00  3.5255911E-01
   7169.33  3.5263513E-01
   7169.67  3.5299156E-01
   7170.00  3.5360701E-01
   7170.33  3.5448147E-01
   7170.67  3.5555071E-01
   7171.00  3.5677420E-01
   7171.33  3.5809037E-01
   7171.67  3.5936569E-01
   7172.00  3.6044127E-01
