    FDMNES
    energy     <xanes>
   7097.00  5.1124102E-03
   7097.33  5.2309544E-03
   7097.67  5.3547391E-03
   7098.00  5.4841076E-03
   7098.33  5.6202531E-03
   7098.67  5.7629114E-03
   7099.00  5.9125451E-03
   7099.33  6.0706990E-03
   7099.67  6.2370960E-03
   7100.00  6.4123755E-03
   7100.33  6.5985861E-03
   7100.67  6.7954564E-03
   7101.00  7.0038962E-03
   7101.33  7.2267010E-03
   7101.67  7.4636479E-03
   7102.00  7.7160768E-03
   7102.33  7.9879368E-03
   7102.67  8.2791481E-03
   7103.00  8.5917699E-03
   7103.33  8.9316217E-03
   7103.67  9.2989834E-03
   7104.00  9.6971879E-03
   7104.33  1.0135281E-02
   7104.67  1.0614416E-02
   7105.00  1.1140358E-02
   7105.33  1.1728169E-02
   7105.67  1.2381195E-02
   7106.00  1.3110313E-02
   7106.33  1.3943040E-02
   7106.67  1.4888691E-02
   7107.00  1.5970411E-02
   7107.33  1.7245497E-02
   7107.67  1.8742005E-02
   7108.00  2.0518643E-02
   7108.33  2.2720866E-02
   7108.67  2.5450957E-02
   7109.00  2.8905561E-02
   7109.33  3.3596263E-02
   7109.67  4.0056348E-02
   7110.00  4.9327321E-02
   7110.33  6.4393586E-02
   7110.67  8.8746045E-02
   7111.00  1.2510893E-01
   7111.33  1.6703567E-01
   7111.67  2.0234211E-01
   7112.00  2.2809272E-01
   7112.33  2.4733681E-01
   7112.67  2.6795579E-01
   7113.00  2.8756053E-01
   7113.33  3.0933895E-01
   7113.67  3.3595710E-01
   7114.00  3.5494231E-01
   7114.33  3.5122739E-01
   7114.67  3.3624257E-01
   7115.00  3.2289396E-01
   7115.33  3.1582598E-01
   7115.67  3.1289878E-01
   7116.00  3.1550018E-01
   7116.33  3.2573386E-01
   7116.67  3.3911280E-01
   7117.00  3.5047124E-01
   7117.33  3.5156251E-01
   7117.67  3.3570933E-01
   7118.00  3.0431354E-01
   7118.33  2.6811719E-01
   7118.67  2.3610580E-01
   7119.00  2.1001516E-01
   7119.33  1.8971083E-01
   7119.67  1.7376662E-01
   7120.00  1.6191475E-01
   7120.33  1.5410133E-01
   7120.67  1.4909911E-01
   7121.00  1.4637596E-01
   7121.33  1.4609020E-01
   7121.67  1.4852036E-01
   7122.00  1.5454408E-01
   7122.33  1.6560780E-01
   7122.67  1.8150896E-01
   7123.00  2.0203134E-01
   7123.33  2.2627159E-01
   7123.67  2.5103543E-01
   7124.00  2.7348731E-01
   7124.33  2.9117402E-01
   7124.67  3.0488863E-01
   7125.00  3.1566255E-01
   7125.33  3.2425352E-01
   7125.67  3.3186161E-01
   7126.00  3.3983895E-01
   7126.33  3.5082841E-01
   7126.67  3.6688346E-01
   7127.00  3.8931766E-01
   7127.33  4.1883031E-01
   7127.67  4.5230369E-01
   7128.00  4.8564557E-01
   7128.33  5.1154451E-01
   7128.67  5.2653958E-01
   7129.00  5.3256113E-01
   7129.33  5.3611755E-01
   7129.67  5.4249004E-01
   7130.00  5.5263376E-01
   7130.33  5.6602340E-01
   7130.67  5.8100908E-01
   7131.00  5.9653203E-01
   7131.33  6.1154642E-01
   7131.67  6.2586776E-01
   7132.00  6.4002422E-01
   7132.33  6.5490255E-01
   7132.67  6.7054710E-01
   7133.00  6.8638939E-01
   7133.33  7.0150319E-01
   7133.67  7.1557735E-01
   7134.00  7.2878546E-01
   7134.33  7.4154755E-01
   7134.67  7.5400486E-01
   7135.00  7.6537651E-01
   7135.33  7.7304499E-01
   7135.67  7.7432246E-01
   7136.00  7.6683143E-01
   7136.33  7.4831622E-01
   7136.67  7.2149611E-01
   7137.00  6.8918960E-01
   7137.33  6.5489705E-01
   7137.67  6.2190311E-01
   7138.00  5.9197204E-01
   7138.33  5.6679156E-01
   7138.67  5.4629019E-01
   7139.00  5.3046712E-01
   7139.33  5.1954400E-01
   7139.67  5.1242518E-01
   7140.00  5.0854686E-01
   7140.33  5.0756017E-01
   7140.67  5.0852396E-01
   7141.00  5.1097616E-01
   7141.33  5.1459480E-01
   7141.67  5.1887348E-01
   7142.00  5.2353033E-01
   7142.33  5.2827992E-01
   7142.67  5.3284531E-01
   7143.00  5.3702196E-01
   7143.33  5.4053181E-01
   7143.67  5.4329054E-01
   7144.00  5.4520531E-01
   7144.33  5.4611193E-01
   7144.67  5.4613216E-01
   7145.00  5.4532228E-01
   7145.33  5.4370955E-01
   7145.67  5.4154544E-01
   7146.00  5.3899631E-01
   7146.33  5.3625253E-01
   7146.67  5.3355170E-01
   7147.00  5.3107037E-01
   7147.33  5.2904123E-01
   7147.67  5.2755307E-01
   7148.00  5.2668428E-01
   7148.33  5.2659257E-01
   7148.67  5.2726614E-01
   7149.00  5.2877626E-01
   7149.33  5.3132544E-01
   7149.67  5.3487434E-01
   7150.00  5.3945859E-01
   7150.33  5.4517983E-01
   7150.67  5.5179215E-01
   7151.00  5.5910240E-01
   7151.33  5.6682724E-01
   7151.67  5.7451315E-01
   7152.00  5.8179451E-01
   7152.33  5.8819459E-01
   7152.67  5.9353993E-01
   7153.00  5.9770850E-01
   7153.33  6.0053813E-01
   7153.67  6.0227625E-01
   7154.00  6.0306666E-01
   7154.33  6.0301611E-01
   7154.67  6.0242233E-01
   7155.00  6.0144593E-01
   7155.33  6.0021787E-01
   7155.67  5.9889241E-01
   7156.00  5.9755308E-01
   7156.33  5.9627714E-01
   7156.67  5.9510216E-01
   7157.00  5.9405013E-01
   7157.33  5.9314923E-01
   7157.67  5.9238244E-01
   7158.00  5.9174259E-01
   7158.33  5.9122855E-01
   7158.67  5.9080539E-01
   7159.00  5.9045234E-01
   7159.33  5.9014922E-01
   7159.67  5.8986283E-01
   7160.00  5.8956714E-01
   7160.33  5.8922347E-01
   7160.67  5.8880103E-01
   7161.00  5.8826641E-01
   7161.33  5.8755955E-01
   7161.67  5.8665795E-01
   7162.00  5.8552571E-01
   7162.33  5.8409033E-01
   7162.67  5.8235748E-01
   7163.00  5.8031868E-01
   7163.33  5.7793810E-01
   7163.67  5.7526275E-01
   7164.00  5.7230825E-01
   7164.33  5.6906853E-01
   7164.67  5.6560348E-01
   7165.00  5.6193723E-01
   7165.33  5.5807327E-01
   7165.67  5.5405316E-01
   7166.00  5.4988824E-01
   7166.33  5.4556951E-01
   7166.67  5.4111689E-01
   7167.00  5.3652856E-01
   7167.33  5.3178466E-01
   7167.67  5.2690242E-01
   7168.00  5.2188410E-01
   7168.33  5.1671576E-01
   7168.67  5.1141484E-01
   7169.00  5.0598586E-01
   7169.33  5.0042646E-01
   7169.67  4.9477177E-01
   7170.00  4.8904865E-01
   7170.33  4.8330037E-01
   7170.67  4.7759969E-01
   7171.00  4.7203499E-01
   7171.33  4.6680021E-01
   7171.67  4.6211527E-01
   7172.00  4.5829039E-01
