    FDMNES
    energy     <xanes>
   7097.00  5.1742202E-03
   7097.33  5.2951384E-03
   7097.67  5.4214781E-03
   7098.00  5.5535993E-03
   7098.33  5.6927447E-03
   7098.67  5.8386476E-03
   7099.00  5.9917945E-03
   7099.33  6.1537997E-03
   7099.67  6.3243848E-03
   7100.00  6.5042242E-03
   7100.33  6.6954659E-03
   7100.67  6.8978401E-03
   7101.00  7.1123094E-03
   7101.33  7.3418149E-03
   7101.67  7.5861415E-03
   7102.00  7.8467110E-03
   7102.33  8.1276916E-03
   7102.67  8.4290251E-03
   7103.00  8.7529003E-03
   7103.33  9.1054789E-03
   7103.67  9.4870894E-03
   7104.00  9.9012798E-03
   7104.33  1.0357649E-02
   7104.67  1.0857457E-02
   7105.00  1.1406839E-02
   7105.33  1.2021794E-02
   7105.67  1.2705899E-02
   7106.00  1.3470704E-02
   7106.33  1.4345390E-02
   7106.67  1.5339787E-02
   7107.00  1.6478327E-02
   7107.33  1.7821440E-02
   7107.67  1.9398346E-02
   7108.00  2.1270366E-02
   7108.33  2.3589192E-02
   7108.67  2.6459790E-02
   7109.00  3.0084349E-02
   7109.33  3.4987589E-02
   7109.67  4.1709296E-02
   7110.00  5.1302398E-02
   7110.33  6.6744813E-02
   7110.67  9.1168453E-02
   7111.00  1.2598107E-01
   7111.33  1.6580638E-01
   7111.67  2.0669377E-01
   7112.00  2.4868767E-01
   7112.33  2.8911698E-01
   7112.67  3.2711163E-01
   7113.00  3.6084984E-01
   7113.33  3.8113332E-01
   7113.67  3.9036426E-01
   7114.00  3.9052017E-01
   7114.33  3.7327363E-01
   7114.67  3.4740677E-01
   7115.00  3.2324927E-01
   7115.33  3.0498368E-01
   7115.67  2.9279095E-01
   7116.00  2.8853157E-01
   7116.33  2.9431255E-01
   7116.67  3.0597728E-01
   7117.00  3.1795975E-01
   7117.33  3.2386777E-01
   7117.67  3.1922129E-01
   7118.00  2.9982121E-01
   7118.33  2.6823212E-01
   7118.67  2.3591943E-01
   7119.00  2.0790118E-01
   7119.33  1.8550223E-01
   7119.67  1.6743788E-01
   7120.00  1.5365389E-01
   7120.33  1.4450078E-01
   7120.67  1.3818995E-01
   7121.00  1.3329838E-01
   7121.33  1.2944619E-01
   7121.67  1.2706503E-01
   7122.00  1.2667735E-01
   7122.33  1.2874955E-01
   7122.67  1.3288717E-01
   7123.00  1.3899460E-01
   7123.33  1.4732714E-01
   7123.67  1.5774389E-01
   7124.00  1.7036047E-01
   7124.33  1.8576570E-01
   7124.67  2.0452474E-01
   7125.00  2.2785894E-01
   7125.33  2.5752213E-01
   7125.67  2.9250077E-01
   7126.00  3.3113441E-01
   7126.33  3.7030749E-01
   7126.67  4.0595413E-01
   7127.00  4.3441934E-01
   7127.33  4.5171805E-01
   7127.67  4.5954786E-01
   7128.00  4.6054458E-01
   7128.33  4.5847134E-01
   7128.67  4.5762126E-01
   7129.00  4.6065210E-01
   7129.33  4.7032877E-01
   7129.67  4.8662455E-01
   7130.00  5.0893120E-01
   7130.33  5.3598842E-01
   7130.67  5.6503848E-01
   7131.00  5.9439847E-01
   7131.33  6.2285043E-01
   7131.67  6.5054562E-01
   7132.00  6.7835875E-01
   7132.33  7.0803034E-01
   7132.67  7.4080628E-01
   7133.00  7.7741861E-01
   7133.33  8.1812777E-01
   7133.67  8.6059758E-01
   7134.00  9.0142625E-01
   7134.33  9.3379679E-01
   7134.67  9.5247081E-01
   7135.00  9.5406860E-01
   7135.33  9.3639079E-01
   7135.67  9.0515451E-01
   7136.00  8.6486205E-01
   7136.33  8.2015169E-01
   7136.67  7.7543087E-01
   7137.00  7.3286935E-01
   7137.33  6.9432788E-01
   7137.67  6.6000484E-01
   7138.00  6.3011187E-01
   7138.33  6.0522564E-01
   7138.67  5.8463334E-01
   7139.00  5.6807495E-01
   7139.33  5.5556142E-01
   7139.67  5.4609360E-01
   7140.00  5.3915337E-01
   7140.33  5.3438138E-01
   7140.67  5.3099856E-01
   7141.00  5.2862743E-01
   7141.33  5.2702798E-01
   7141.67  5.2589553E-01
   7142.00  5.2508678E-01
   7142.33  5.2445307E-01
   7142.67  5.2378339E-01
   7143.00  5.2289304E-01
   7143.33  5.2151204E-01
   7143.67  5.1952670E-01
   7144.00  5.1686847E-01
   7144.33  5.1348833E-01
   7144.67  5.0960684E-01
   7145.00  5.0540381E-01
   7145.33  5.0110466E-01
   7145.67  4.9694614E-01
   7146.00  4.9309286E-01
   7146.33  4.8974622E-01
   7146.67  4.8694301E-01
   7147.00  4.8472533E-01
   7147.33  4.8318164E-01
   7147.67  4.8222370E-01
   7148.00  4.8182813E-01
   7148.33  4.8203070E-01
   7148.67  4.8273908E-01
   7149.00  4.8393691E-01
   7149.33  4.8567049E-01
   7149.67  4.8788089E-01
   7150.00  4.9057649E-01
   7150.33  4.9382306E-01
   7150.67  4.9754818E-01
   7151.00  5.0172562E-01
   7151.33  5.0635404E-01
   7151.67  5.1131003E-01
   7152.00  5.1651688E-01
   7152.33  5.2189621E-01
   7152.67  5.2733107E-01
   7153.00  5.3274326E-01
   7153.33  5.3804109E-01
   7153.67  5.4317383E-01
   7154.00  5.4809920E-01
   7154.33  5.5275070E-01
   7154.67  5.5713520E-01
   7155.00  5.6124036E-01
   7155.33  5.6502202E-01
   7155.67  5.6851143E-01
   7156.00  5.7170565E-01
   7156.33  5.7456424E-01
   7156.67  5.7712099E-01
   7157.00  5.7937283E-01
   7157.33  5.8127898E-01
   7157.67  5.8287787E-01
   7158.00  5.8417167E-01
   7158.33  5.8512703E-01
   7158.67  5.8578946E-01
   7159.00  5.8616973E-01
   7159.33  5.8624826E-01
   7159.67  5.8607255E-01
   7160.00  5.8565420E-01
   7160.33  5.8497461E-01
   7160.67  5.8406824E-01
   7161.00  5.8293736E-01
   7161.33  5.8155311E-01
   7161.67  5.7993891E-01
   7162.00  5.7809118E-01
   7162.33  5.7597880E-01
   7162.67  5.7363537E-01
   7163.00  5.7107145E-01
   7163.33  5.6827878E-01
   7163.67  5.6530452E-01
   7164.00  5.6217134E-01
   7164.33  5.5889311E-01
   7164.67  5.5551697E-01
   7165.00  5.5206800E-01
   7165.33  5.4856657E-01
   7165.67  5.4504090E-01
   7166.00  5.4150549E-01
   7166.33  5.3796991E-01
   7166.67  5.3443848E-01
   7167.00  5.3091192E-01
   7167.33  5.2738285E-01
   7167.67  5.2383872E-01
   7168.00  5.2026851E-01
   7168.33  5.1665801E-01
   7168.67  5.1300905E-01
   7169.00  5.0932619E-01
   7169.33  5.0561655E-01
   7169.67  5.0190123E-01
   7170.00  4.9820386E-01
   7170.33  4.9456740E-01
   7170.67  4.9103105E-01
   7171.00  4.8764561E-01
   7171.33  4.8452310E-01
   7171.67  4.8176501E-01
   7172.00  4.7952892E-01
