    FDMNES
    energy     <xanes>
   7097.00  4.5842920E-03
   7097.33  4.6767405E-03
   7097.67  4.7727440E-03
   7098.00  4.8725144E-03
   7098.33  4.9768270E-03
   7098.67  5.0854767E-03
   7099.00  5.1987462E-03
   7099.33  5.3176237E-03
   7099.67  5.4418937E-03
   7100.00  5.5719452E-03
   7100.33  5.7090711E-03
   7100.67  5.8530588E-03
   7101.00  6.0044614E-03
   7101.33  6.1650279E-03
   7101.67  6.3345782E-03
   7102.00  6.5139328E-03
   7102.33  6.7055551E-03
   7102.67  6.9093672E-03
   7103.00  7.1266491E-03
   7103.33  7.3610528E-03
   7103.67  7.6127647E-03
   7104.00  7.8839111E-03
   7104.33  8.1802701E-03
   7104.67  8.5026933E-03
   7105.00  8.8550036E-03
   7105.33  9.2471448E-03
   7105.67  9.6817091E-03
   7106.00  1.0166308E-02
   7106.33  1.0720071E-02
   7106.67  1.1350572E-02
   7107.00  1.2075192E-02
   7107.33  1.2936773E-02
   7107.67  1.3959496E-02
   7108.00  1.5191442E-02
   7108.33  1.6752137E-02
   7108.67  1.8735973E-02
   7109.00  2.1320656E-02
   7109.33  2.4974503E-02
   7109.67  3.0225939E-02
   7110.00  3.8106554E-02
   7110.33  5.1603146E-02
   7110.67  7.4277363E-02
   7111.00  1.0916138E-01
   7111.33  1.5257428E-01
   7111.67  1.8044738E-01
   7112.00  1.7511865E-01
   7112.33  1.5415733E-01
   7112.67  1.3283845E-01
   7113.00  1.1338820E-01
   7113.33  9.8833091E-02
   7113.67  8.7243462E-02
   7114.00  7.7536308E-02
   7114.33  6.8699411E-02
   7114.67  6.0642083E-02
   7115.00  5.4770875E-02
   7115.33  5.2319317E-02
   7115.67  5.2544416E-02
   7116.00  5.5037120E-02
   7116.33  5.9759604E-02
   7116.67  6.6156134E-02
   7117.00  7.3744741E-02
   7117.33  8.1912472E-02
   7117.67  9.0246562E-02
   7118.00  9.8793135E-02
   7118.33  1.0787566E-01
   7118.67  1.1800375E-01
   7119.00  1.2985314E-01
   7119.33  1.4425686E-01
   7119.67  1.6130546E-01
   7120.00  1.8157424E-01
   7120.33  2.0648883E-01
   7120.67  2.3603120E-01
   7121.00  2.6977256E-01
   7121.33  3.0642336E-01
   7121.67  3.4329455E-01
   7122.00  3.7846959E-01
   7122.33  4.1054362E-01
   7122.67  4.4029751E-01
   7123.00  4.6881802E-01
   7123.33  4.9717673E-01
   7123.67  5.2556025E-01
   7124.00  5.5336503E-01
   7124.33  5.7925537E-01
   7124.67  6.0189986E-01
   7125.00  6.1991058E-01
   7125.33  6.3252749E-01
   7125.67  6.4164053E-01
   7126.00  6.4852544E-01
   7126.33  6.5415328E-01
   7126.67  6.5886417E-01
   7127.00  6.6199314E-01
   7127.33  6.6260742E-01
   7127.67  6.6191826E-01
   7128.00  6.6223715E-01
   7128.33  6.6735225E-01
   7128.67  6.7901789E-01
   7129.00  6.9790053E-01
   7129.33  7.2382761E-01
   7129.67  7.5230461E-01
   7130.00  7.7760651E-01
   7130.33  7.9113837E-01
   7130.67  7.9039376E-01
   7131.00  7.7648774E-01
   7131.33  7.5299855E-01
   7131.67  7.2596414E-01
   7132.00  6.9840308E-01
   7132.33  6.7246917E-01
   7132.67  6.4878345E-01
   7133.00  6.2742983E-01
   7133.33  6.0844146E-01
   7133.67  5.9154928E-01
   7134.00  5.7743455E-01
   7134.33  5.6800270E-01
   7134.67  5.6347384E-01
   7135.00  5.6357707E-01
   7135.33  5.6789719E-01
   7135.67  5.7475159E-01
   7136.00  5.8301583E-01
   7136.33  5.9159270E-01
   7136.67  5.9966801E-01
   7137.00  6.0685419E-01
   7137.33  6.1279142E-01
   7137.67  6.1753432E-01
   7138.00  6.2106054E-01
   7138.33  6.2322312E-01
   7138.67  6.2420411E-01
   7139.00  6.2404293E-01
   7139.33  6.2266959E-01
   7139.67  6.2031317E-01
   7140.00  6.1707329E-01
   7140.33  6.1298383E-01
   7140.67  6.0828094E-01
   7141.00  6.0310484E-01
   7141.33  5.9761362E-01
   7141.67  5.9205950E-01
   7142.00  5.8662331E-01
   7142.33  5.8148995E-01
   7142.67  5.7665151E-01
   7143.00  5.7199482E-01
   7143.33  5.6721303E-01
   7143.67  5.6190162E-01
   7144.00  5.5567883E-01
   7144.33  5.4803293E-01
   7144.67  5.3896032E-01
   7145.00  5.2848915E-01
   7145.33  5.1665682E-01
   7145.67  5.0391709E-01
   7146.00  4.9057387E-01
   7146.33  4.7695281E-01
   7146.67  4.6341022E-01
   7147.00  4.5018711E-01
   7147.33  4.3758313E-01
   7147.67  4.2570293E-01
   7148.00  4.1465114E-01
   7148.33  4.0461822E-01
   7148.67  3.9552442E-01
   7149.00  3.8736714E-01
   7149.33  3.8022543E-01
   7149.67  3.7392741E-01
   7150.00  3.6840814E-01
   7150.33  3.6366643E-01
   7150.67  3.5951976E-01
   7151.00  3.5588290E-01
   7151.33  3.5271076E-01
   7151.67  3.4986091E-01
   7152.00  3.4726258E-01
   7152.33  3.4486957E-01
   7152.67  3.4260641E-01
   7153.00  3.4044053E-01
   7153.33  3.3835662E-01
   7153.67  3.3633146E-01
   7154.00  3.3435792E-01
   7154.33  3.3244196E-01
   7154.67  3.3058870E-01
   7155.00  3.2881739E-01
   7155.33  3.2717300E-01
   7155.67  3.2567971E-01
   7156.00  3.2437338E-01
   7156.33  3.2332436E-01
   7156.67  3.2254377E-01
   7157.00  3.2206300E-01
   7157.33  3.2195709E-01
   7157.67  3.2221381E-01
   7158.00  3.2285530E-01
   7158.33  3.2396119E-01
   7158.67  3.2551068E-01
   7159.00  3.2753092E-01
   7159.33  3.3011486E-01
   7159.67  3.3322497E-01
   7160.00  3.3687780E-01
   7160.33  3.4115719E-01
   7160.67  3.4600027E-01
   7161.00  3.5140489E-01
   7161.33  3.5742601E-01
   7161.67  3.6396611E-01
   7162.00  3.7098350E-01
   7162.33  3.7846155E-01
   7162.67  3.8627482E-01
   7163.00  3.9435626E-01
   7163.33  4.0264035E-01
   7163.67  4.1101168E-01
   7164.00  4.1938885E-01
   7164.33  4.2765560E-01
   7164.67  4.3573038E-01
   7165.00  4.4354514E-01
   7165.33  4.5098674E-01
   7165.67  4.5803533E-01
   7166.00  4.6465042E-01
   7166.33  4.7074624E-01
   7166.67  4.7637559E-01
   7167.00  4.8155293E-01
   7167.33  4.8626352E-01
   7167.67  4.9061272E-01
   7168.00  4.9465321E-01
   7168.33  4.9841691E-01
   7168.67  5.0199252E-01
   7169.00  5.0542169E-01
   7169.33  5.0872671E-01
   7169.67  5.1194267E-01
   7170.00  5.1507608E-01
   7170.33  5.1811060E-01
   7170.67  5.2103732E-01
   7171.00  5.2382543E-01
   7171.33  5.2639205E-01
   7171.67  5.2866389E-01
   7172.00  5.3052110E-01
