    FDMNES
    energy     <xanes>
   7097.00  4.7940364E-03
   7097.33  4.9063488E-03
   7097.67  5.0239308E-03
   7098.00  5.1471628E-03
   7098.33  5.2773059E-03
   7098.67  5.4141465E-03
   7099.00  5.5582154E-03
   7099.33  5.7111981E-03
   7099.67  5.8728935E-03
   7100.00  6.0440656E-03
   7100.33  6.2270367E-03
   7100.67  6.4216586E-03
   7101.00  6.6290710E-03
   7101.33  6.8525922E-03
   7101.67  7.0922158E-03
   7102.00  7.3497153E-03
   7102.33  7.6300436E-03
   7102.67  7.9335349E-03
   7103.00  8.2630940E-03
   7103.33  8.6265186E-03
   7103.67  9.0249454E-03
   7104.00  9.4634413E-03
   7104.33  9.9551243E-03
   7104.67  1.0503083E-02
   7105.00  1.1116882E-02
   7105.33  1.1820537E-02
   7105.67  1.2622217E-02
   7106.00  1.3541927E-02
   7106.33  1.4628815E-02
   7106.67  1.5905809E-02
   7107.00  1.7420956E-02
   7107.33  1.9291483E-02
   7107.67  2.1590919E-02
   7108.00  2.4459735E-02
   7108.33  2.8247400E-02
   7108.67  3.3250815E-02
   7109.00  4.0023199E-02
   7109.33  5.0038986E-02
   7109.67  6.5054476E-02
   7110.00  8.8522916E-02
   7110.33  1.3062732E-01
   7110.67  2.0400568E-01
   7111.00  3.1704279E-01
   7111.33  4.2496422E-01
   7111.67  4.4244306E-01
   7112.00  3.6240611E-01
   7112.33  2.5826848E-01
   7112.67  1.8587448E-01
   7113.00  1.4356109E-01
   7113.33  1.2298460E-01
   7113.67  1.1626149E-01
   7114.00  1.2148288E-01
   7114.33  1.3830353E-01
   7114.67  1.6362376E-01
   7115.00  1.9112655E-01
   7115.33  2.0070489E-01
   7115.67  1.7474366E-01
   7116.00  1.3074605E-01
   7116.33  9.8208967E-02
   7116.67  7.8153245E-02
   7117.00  6.6449313E-02
   7117.33  6.0229091E-02
   7117.67  5.6971749E-02
   7118.00  5.5731826E-02
   7118.33  5.6046328E-02
   7118.67  5.7148761E-02
   7119.00  5.8610904E-02
   7119.33  6.0573618E-02
   7119.67  6.3286388E-02
   7120.00  6.6935809E-02
   7120.33  7.1908530E-02
   7120.67  7.8401055E-02
   7121.00  8.6768620E-02
   7121.33  9.7561015E-02
   7121.67  1.1018195E-01
   7122.00  1.2351152E-01
   7122.33  1.3557152E-01
   7122.67  1.4590553E-01
   7123.00  1.5601782E-01
   7123.33  1.6911252E-01
   7123.67  1.8677126E-01
   7124.00  2.0943333E-01
   7124.33  2.3804479E-01
   7124.67  2.7195014E-01
   7125.00  3.0963411E-01
   7125.33  3.4668387E-01
   7125.67  3.7764940E-01
   7126.00  4.0005470E-01
   7126.33  4.1660669E-01
   7126.67  4.3626809E-01
   7127.00  4.6480446E-01
   7127.33  5.0465735E-01
   7127.67  5.5144894E-01
   7128.00  6.0093063E-01
   7128.33  6.4693754E-01
   7128.67  6.8439980E-01
   7129.00  7.1067799E-01
   7129.33  7.2574804E-01
   7129.67  7.3562918E-01
   7130.00  7.4399419E-01
   7130.33  7.5185759E-01
   7130.67  7.5794777E-01
   7131.00  7.6085542E-01
   7131.33  7.5978169E-01
   7131.67  7.5698356E-01
   7132.00  7.5541659E-01
   7132.33  7.5948617E-01
   7132.67  7.7129072E-01
   7133.00  7.9162351E-01
   7133.33  8.2027273E-01
   7133.67  8.5309997E-01
   7134.00  8.8609382E-01
   7134.33  9.1334139E-01
   7134.67  9.3073371E-01
   7135.00  9.3568044E-01
   7135.33  9.2634416E-01
   7135.67  9.0697001E-01
   7136.00  8.8107777E-01
   7136.33  8.5222785E-01
   7136.67  8.2345973E-01
   7137.00  7.9607044E-01
   7137.33  7.7096046E-01
   7137.67  7.4798007E-01
   7138.00  7.2700658E-01
   7138.33  7.0802009E-01
   7138.67  6.9053320E-01
   7139.00  6.7432847E-01
   7139.33  6.5931410E-01
   7139.67  6.4517721E-01
   7140.00  6.3180424E-01
   7140.33  6.1919706E-01
   7140.67  6.0723773E-01
   7141.00  5.9593225E-01
   7141.33  5.8540032E-01
   7141.67  5.7560539E-01
   7142.00  5.6659194E-01
   7142.33  5.5850469E-01
   7142.67  5.5127020E-01
   7143.00  5.4490717E-01
   7143.33  5.3953957E-01
   7143.67  5.3505811E-01
   7144.00  5.3145134E-01
   7144.33  5.2879146E-01
   7144.67  5.2691348E-01
   7145.00  5.2574038E-01
   7145.33  5.2522110E-01
   7145.67  5.2512382E-01
   7146.00  5.2528908E-01
   7146.33  5.2552522E-01
   7146.67  5.2562910E-01
   7147.00  5.2545231E-01
   7147.33  5.2480718E-01
   7147.67  5.2366084E-01
   7148.00  5.2198296E-01
   7148.33  5.1971218E-01
   7148.67  5.1695266E-01
   7149.00  5.1376124E-01
   7149.33  5.1017208E-01
   7149.67  5.0630656E-01
   7150.00  5.0222426E-01
   7150.33  4.9796415E-01
   7150.67  4.9359388E-01
   7151.00  4.8914986E-01
   7151.33  4.8467243E-01
   7151.67  4.8021701E-01
   7152.00  4.7583451E-01
   7152.33  4.7159960E-01
   7152.67  4.6753512E-01
   7153.00  4.6364165E-01
   7153.33  4.5986594E-01
   7153.67  4.5603142E-01
   7154.00  4.5192874E-01
   7154.33  4.4721060E-01
   7154.67  4.4167705E-01
   7155.00  4.3516582E-01
   7155.33  4.2749309E-01
   7155.67  4.1887713E-01
   7156.00  4.0948458E-01
   7156.33  3.9950171E-01
   7156.67  3.8926015E-01
   7157.00  3.7897191E-01
   7157.33  3.6886751E-01
   7157.67  3.5908668E-01
   7158.00  3.4972999E-01
   7158.33  3.4094786E-01
   7158.67  3.3274265E-01
   7159.00  3.2516042E-01
   7159.33  3.1832917E-01
   7159.67  3.1220246E-01
   7160.00  3.0680710E-01
   7160.33  3.0226218E-01
   7160.67  2.9848838E-01
   7161.00  2.9548991E-01
   7161.33  2.9335402E-01
   7161.67  2.9196125E-01
   7162.00  2.9128347E-01
   7162.33  2.9136944E-01
   7162.67  2.9209990E-01
   7163.00  2.9344863E-01
   7163.33  2.9545950E-01
   7163.67  2.9802737E-01
   7164.00  3.0112823E-01
   7164.33  3.0480080E-01
   7164.67  3.0895507E-01
   7165.00  3.1356562E-01
   7165.33  3.1865254E-01
   7165.67  3.2412832E-01
   7166.00  3.2996267E-01
   7166.33  3.3616074E-01
   7166.67  3.4264696E-01
   7167.00  3.4939143E-01
   7167.33  3.5638837E-01
   7167.67  3.6357409E-01
   7168.00  3.7091495E-01
   7168.33  3.7838513E-01
   7168.67  3.8592919E-01
   7169.00  3.9351023E-01
   7169.33  4.0108170E-01
   7169.67  4.0859438E-01
   7170.00  4.1599955E-01
   7170.33  4.2321038E-01
   7170.67  4.3016881E-01
   7171.00  4.3678649E-01
   7171.33  4.4285397E-01
   7171.67  4.4819060E-01
   7172.00  4.5250100E-01
