    FDMNES
    energy     <xanes>
   7097.00  5.0987437E-03
   7097.33  5.2209747E-03
   7097.67  5.3488866E-03
   7098.00  5.4828734E-03
   7098.33  5.6242661E-03
   7098.67  5.7728089E-03
   7099.00  5.9290417E-03
   7099.33  6.0947158E-03
   7099.67  6.2695736E-03
   7100.00  6.4543752E-03
   7100.33  6.6514869E-03
   7100.67  6.8606786E-03
   7101.00  7.0830550E-03
   7101.33  7.3219154E-03
   7101.67  7.5771226E-03
   7102.00  7.8503430E-03
   7102.33  8.1463538E-03
   7102.67  8.4652550E-03
   7103.00  8.8096763E-03
   7103.33  9.1868607E-03
   7103.67  9.5974743E-03
   7104.00  1.0045903E-02
   7104.33  1.0543777E-02
   7104.67  1.1093118E-02
   7105.00  1.1701770E-02
   7105.33  1.2389832E-02
   7105.67  1.3162735E-02
   7106.00  1.4035841E-02
   7106.33  1.5047440E-02
   7106.67  1.6212372E-02
   7107.00  1.7564684E-02
   7107.33  1.9187912E-02
   7107.67  2.1127000E-02
   7108.00  2.3472137E-02
   7108.33  2.6446214E-02
   7108.67  3.0216009E-02
   7109.00  3.5096810E-02
   7109.33  4.1911349E-02
   7109.67  5.1547369E-02
   7110.00  6.5731816E-02
   7110.33  8.9404934E-02
   7110.67  1.2819690E-01
   7111.00  1.8623379E-01
   7111.33  2.5776760E-01
   7111.67  3.2324765E-01
   7112.00  3.5955827E-01
   7112.33  3.6251188E-01
   7112.67  3.5923598E-01
   7113.00  3.5987520E-01
   7113.33  3.6587497E-01
   7113.67  3.6735263E-01
   7114.00  3.5118373E-01
   7114.33  3.1299310E-01
   7114.67  2.7342337E-01
   7115.00  2.4601676E-01
   7115.33  2.3610683E-01
   7115.67  2.3478261E-01
   7116.00  2.3063044E-01
   7116.33  2.1455007E-01
   7116.67  1.9373089E-01
   7117.00  1.7508424E-01
   7117.33  1.6155140E-01
   7117.67  1.5140789E-01
   7118.00  1.4343757E-01
   7118.33  1.3717966E-01
   7118.67  1.3247421E-01
   7119.00  1.2942764E-01
   7119.33  1.2764096E-01
   7119.67  1.2625668E-01
   7120.00  1.2552374E-01
   7120.33  1.2633767E-01
   7120.67  1.2866938E-01
   7121.00  1.3210999E-01
   7121.33  1.3609282E-01
   7121.67  1.4068518E-01
   7122.00  1.4709122E-01
   7122.33  1.5723723E-01
   7122.67  1.7061056E-01
   7123.00  1.8555636E-01
   7123.33  2.0045338E-01
   7123.67  2.1613796E-01
   7124.00  2.3380549E-01
   7124.33  2.5300681E-01
   7124.67  2.7112854E-01
   7125.00  2.8701855E-01
   7125.33  3.0192408E-01
   7125.67  3.1796368E-01
   7126.00  3.3588642E-01
   7126.33  3.5605548E-01
   7126.67  3.7852901E-01
   7127.00  4.0396473E-01
   7127.33  4.3353035E-01
   7127.67  4.6672620E-01
   7128.00  5.0239954E-01
   7128.33  5.3764315E-01
   7128.67  5.6905169E-01
   7129.00  5.9505704E-01
   7129.33  6.1634495E-01
   7129.67  6.3616849E-01
   7130.00  6.5577439E-01
   7130.33  6.7418180E-01
   7130.67  6.8974432E-01
   7131.00  7.0208600E-01
   7131.33  7.1278703E-01
   7131.67  7.2495392E-01
   7132.00  7.4056419E-01
   7132.33  7.6065936E-01
   7132.67  7.8324526E-01
   7133.00  8.0594035E-01
   7133.33  8.2536898E-01
   7133.67  8.3943728E-01
   7134.00  8.4653343E-01
   7134.33  8.4374237E-01
   7134.67  8.3052083E-01
   7135.00  8.0669401E-01
   7135.33  7.7358161E-01
   7135.67  7.3633034E-01
   7136.00  6.9832937E-01
   7136.33  6.6256699E-01
   7136.67  6.3025805E-01
   7137.00  6.0203445E-01
   7137.33  5.7893587E-01
   7137.67  5.6075002E-01
   7138.00  5.4759892E-01
   7138.33  5.3976041E-01
   7138.67  5.3572367E-01
   7139.00  5.3432587E-01
   7139.33  5.3429927E-01
   7139.67  5.3439987E-01
   7140.00  5.3411638E-01
   7140.33  5.3324056E-01
   7140.67  5.3200822E-01
   7141.00  5.3066661E-01
   7141.33  5.2951539E-01
   7141.67  5.2872982E-01
   7142.00  5.2839747E-01
   7142.33  5.2861526E-01
   7142.67  5.2931375E-01
   7143.00  5.3045995E-01
   7143.33  5.3204148E-01
   7143.67  5.3393486E-01
   7144.00  5.3607316E-01
   7144.33  5.3840687E-01
   7144.67  5.4085743E-01
   7145.00  5.4339071E-01
   7145.33  5.4599326E-01
   7145.67  5.4865460E-01
   7146.00  5.5138359E-01
   7146.33  5.5420889E-01
   7146.67  5.5713886E-01
   7147.00  5.6018503E-01
   7147.33  5.6336483E-01
   7147.67  5.6665316E-01
   7148.00  5.7002715E-01
   7148.33  5.7342905E-01
   7148.67  5.7675906E-01
   7149.00  5.7991781E-01
   7149.33  5.8275034E-01
   7149.67  5.8518442E-01
   7150.00  5.8713872E-01
   7150.33  5.8846921E-01
   7150.67  5.8920248E-01
   7151.00  5.8933297E-01
   7151.33  5.8882034E-01
   7151.67  5.8780224E-01
   7152.00  5.8635750E-01
   7152.33  5.8456113E-01
   7152.67  5.8257914E-01
   7153.00  5.8052037E-01
   7153.33  5.7850730E-01
   7153.67  5.7663367E-01
   7154.00  5.7496343E-01
   7154.33  5.7357258E-01
   7154.67  5.7243996E-01
   7155.00  5.7154426E-01
   7155.33  5.7084730E-01
   7155.67  5.7023135E-01
   7156.00  5.6959090E-01
   7156.33  5.6876318E-01
   7156.67  5.6761907E-01
   7157.00  5.6603544E-01
   7157.33  5.6381960E-01
   7157.67  5.6095529E-01
   7158.00  5.5740391E-01
   7158.33  5.5307586E-01
   7158.67  5.4809180E-01
   7159.00  5.4250343E-01
   7159.33  5.3632201E-01
   7159.67  5.2970396E-01
   7160.00  5.2273672E-01
   7160.33  5.1550876E-01
   7160.67  5.0818942E-01
   7161.00  5.0091519E-01
   7161.33  4.9387473E-01
   7161.67  4.8719178E-01
   7162.00  4.8097458E-01
   7162.33  4.7537922E-01
   7162.67  4.7037510E-01
   7163.00  4.6596147E-01
   7163.33  4.6218000E-01
   7163.67  4.5891488E-01
   7164.00  4.5612095E-01
   7164.33  4.5379665E-01
   7164.67  4.5183795E-01
   7165.00  4.5020185E-01
   7165.33  4.4887464E-01
   7165.67  4.4777691E-01
   7166.00  4.4687231E-01
   7166.33  4.4614104E-01
   7166.67  4.4552984E-01
   7167.00  4.4501466E-01
   7167.33  4.4458450E-01
   7167.67  4.4421323E-01
   7168.00  4.4388582E-01
   7168.33  4.4358993E-01
   7168.67  4.4330838E-01
   7169.00  4.4303064E-01
   7169.33  4.4274558E-01
   7169.67  4.4244654E-01
   7170.00  4.4213014E-01
   7170.33  4.4179457E-01
   7170.67  4.4144774E-01
   7171.00  4.4109968E-01
   7171.33  4.4076940E-01
   7171.67  4.4047528E-01
   7172.00  4.4023305E-01
