    FDMNES
    energy     <xanes>
   7097.00  5.1062636E-03
   7097.33  5.2264103E-03
   7097.67  5.3520439E-03
   7098.00  5.4835390E-03
   7098.33  5.6221710E-03
   7098.67  5.7676848E-03
   7099.00  5.9205917E-03
   7099.33  6.0825630E-03
   7099.67  6.2533389E-03
   7100.00  6.4336361E-03
   7100.33  6.6257027E-03
   7100.67  6.8293003E-03
   7101.00  7.0454660E-03
   7101.33  7.2773181E-03
   7101.67  7.5246988E-03
   7102.00  7.7891647E-03
   7102.33  8.0752064E-03
   7102.67  8.3828767E-03
   7103.00  8.7146194E-03
   7103.33  9.0772032E-03
   7103.67  9.4711894E-03
   7104.00  9.9006327E-03
   7104.33  1.0376337E-02
   7104.67  1.0900089E-02
   7105.00  1.1479105E-02
   7105.33  1.2131953E-02
   7105.67  1.2863517E-02
   7106.00  1.3687889E-02
   7106.33  1.4640298E-02
   7106.67  1.5734247E-02
   7107.00  1.7000996E-02
   7107.33  1.8517443E-02
   7107.67  2.0325117E-02
   7108.00  2.2507666E-02
   7108.33  2.5272766E-02
   7108.67  2.8779212E-02
   7109.00  3.3328814E-02
   7109.33  3.9718970E-02
   7109.67  4.8847023E-02
   7110.00  6.2477298E-02
   7110.33  8.5646481E-02
   7110.67  1.2313507E-01
   7111.00  1.7353576E-01
   7111.33  2.1828833E-01
   7111.67  2.5084781E-01
   7112.00  2.7750370E-01
   7112.33  3.0518412E-01
   7112.67  3.3425568E-01
   7113.00  3.6415005E-01
   7113.33  3.8796250E-01
   7113.67  3.9532750E-01
   7114.00  3.8141714E-01
   7114.33  3.4705947E-01
   7114.67  3.1146278E-01
   7115.00  2.8825580E-01
   7115.33  2.7838983E-01
   7115.67  2.6466087E-01
   7116.00  2.3715295E-01
   7116.33  2.0328680E-01
   7116.67  1.7529790E-01
   7117.00  1.5591040E-01
   7117.33  1.4497246E-01
   7117.67  1.3921555E-01
   7118.00  1.3608966E-01
   7118.33  1.3299592E-01
   7118.67  1.2957398E-01
   7119.00  1.2699892E-01
   7119.33  1.2626040E-01
   7119.67  1.2661685E-01
   7120.00  1.2778084E-01
   7120.33  1.3034462E-01
   7120.67  1.3473409E-01
   7121.00  1.4123035E-01
   7121.33  1.4998456E-01
   7121.67  1.6006133E-01
   7122.00  1.7084728E-01
   7122.33  1.8284426E-01
   7122.67  1.9737230E-01
   7123.00  2.1517802E-01
   7123.33  2.3597297E-01
   7123.67  2.5709101E-01
   7124.00  2.7520035E-01
   7124.33  2.8670456E-01
   7124.67  2.9319727E-01
   7125.00  2.9742375E-01
   7125.33  3.0267335E-01
   7125.67  3.1100452E-01
   7126.00  3.2333475E-01
   7126.33  3.4050688E-01
   7126.67  3.6218010E-01
   7127.00  3.8866851E-01
   7127.33  4.2085718E-01
   7127.67  4.5776058E-01
   7128.00  4.9821995E-01
   7128.33  5.3994011E-01
   7128.67  5.7947572E-01
   7129.00  6.1383438E-01
   7129.33  6.3938795E-01
   7129.67  6.5661477E-01
   7130.00  6.6735944E-01
   7130.33  6.7523395E-01
   7130.67  6.8447961E-01
   7131.00  6.9725757E-01
   7131.33  7.1471087E-01
   7131.67  7.3518779E-01
   7132.00  7.5694979E-01
   7132.33  7.7786406E-01
   7132.67  7.9641087E-01
   7133.00  8.1142554E-01
   7133.33  8.2084032E-01
   7133.67  8.2375395E-01
   7134.00  8.1915475E-01
   7134.33  8.0564908E-01
   7134.67  7.8475326E-01
   7135.00  7.5768781E-01
   7135.33  7.2632264E-01
   7135.67  6.9400093E-01
   7136.00  6.6287921E-01
   7136.33  6.3491459E-01
   7136.67  6.1047185E-01
   7137.00  5.8975142E-01
   7137.33  5.7327956E-01
   7137.67  5.6056951E-01
   7138.00  5.5152544E-01
   7138.33  5.4622494E-01
   7138.67  5.4356313E-01
   7139.00  5.4268905E-01
   7139.33  5.4259007E-01
   7139.67  5.4225100E-01
   7140.00  5.4117952E-01
   7140.33  5.3909090E-01
   7140.67  5.3627148E-01
   7141.00  5.3302971E-01
   7141.33  5.2976881E-01
   7141.67  5.2683120E-01
   7142.00  5.2442070E-01
   7142.33  5.2278175E-01
   7142.67  5.2192510E-01
   7143.00  5.2189246E-01
   7143.33  5.2279278E-01
   7143.67  5.2448302E-01
   7144.00  5.2689533E-01
   7144.33  5.2999127E-01
   7144.67  5.3355070E-01
   7145.00  5.3743549E-01
   7145.33  5.4150172E-01
   7145.67  5.4557534E-01
   7146.00  5.4954201E-01
   7146.33  5.5327239E-01
   7146.67  5.5672800E-01
   7147.00  5.5988487E-01
   7147.33  5.6271076E-01
   7147.67  5.6527030E-01
   7148.00  5.6759185E-01
   7148.33  5.6967707E-01
   7148.67  5.7157088E-01
   7149.00  5.7327759E-01
   7149.33  5.7476772E-01
   7149.67  5.7605779E-01
   7150.00  5.7714839E-01
   7150.33  5.7803375E-01
   7150.67  5.7877422E-01
   7151.00  5.7941732E-01
   7151.33  5.8002756E-01
   7151.67  5.8067687E-01
   7152.00  5.8141568E-01
   7152.33  5.8230473E-01
   7152.67  5.8334943E-01
   7153.00  5.8454761E-01
   7153.33  5.8588521E-01
   7153.67  5.8728656E-01
   7154.00  5.8867556E-01
   7154.33  5.8992237E-01
   7154.67  5.9090731E-01
   7155.00  5.9150299E-01
   7155.33  5.9148903E-01
   7155.67  5.9078673E-01
   7156.00  5.8928320E-01
   7156.33  5.8675549E-01
   7156.67  5.8323988E-01
   7157.00  5.7870157E-01
   7157.33  5.7301782E-01
   7157.67  5.6637782E-01
   7158.00  5.5888528E-01
   7158.33  5.5062772E-01
   7158.67  5.4190088E-01
   7159.00  5.3289892E-01
   7159.33  5.2383451E-01
   7159.67  5.1490851E-01
   7160.00  5.0625783E-01
   7160.33  4.9805118E-01
   7160.67  4.9032189E-01
   7161.00  4.8311728E-01
   7161.33  4.7653457E-01
   7161.67  4.7051675E-01
   7162.00  4.6506903E-01
   7162.33  4.6025946E-01
   7162.67  4.5600654E-01
   7163.00  4.5229798E-01
   7163.33  4.4918437E-01
   7163.67  4.4658459E-01
   7164.00  4.4448744E-01
   7164.33  4.4294301E-01
   7164.67  4.4187824E-01
   7165.00  4.4128169E-01
   7165.33  4.4119308E-01
   7165.67  4.4153277E-01
   7166.00  4.4227409E-01
   7166.33  4.4342371E-01
   7166.67  4.4489226E-01
   7167.00  4.4663684E-01
   7167.33  4.4861999E-01
   7167.67  4.5074390E-01
   7168.00  4.5294776E-01
   7168.33  4.5516453E-01
   7168.67  4.5732953E-01
   7169.00  4.5939559E-01
   7169.33  4.6130069E-01
   7169.67  4.6303144E-01
   7170.00  4.6457098E-01
   7170.33  4.6588549E-01
   7170.67  4.6700179E-01
   7171.00  4.6792836E-01
   7171.33  4.6865859E-01
   7171.67  4.6923079E-01
   7172.00  4.6965729E-01
