    FDMNES
    energy     <xanes>
   7097.00  5.0885549E-03
   7097.33  5.2080669E-03
   7097.67  5.3330134E-03
   7098.00  5.4637638E-03
   7098.33  5.6015780E-03
   7098.67  5.7462007E-03
   7099.00  5.8981352E-03
   7099.33  6.0590302E-03
   7099.67  6.2286244E-03
   7100.00  6.4076223E-03
   7100.33  6.5982376E-03
   7100.67  6.8002285E-03
   7101.00  7.0146117E-03
   7101.33  7.2444521E-03
   7101.67  7.4895836E-03
   7102.00  7.7515287E-03
   7102.33  8.0346901E-03
   7102.67  8.3391023E-03
   7103.00  8.6671485E-03
   7103.33  9.0254455E-03
   7103.67  9.4145125E-03
   7104.00  9.8382902E-03
   7104.33  1.0307301E-02
   7104.67  1.0823232E-02
   7105.00  1.1393066E-02
   7105.33  1.2034802E-02
   7105.67  1.2753067E-02
   7106.00  1.3561421E-02
   7106.33  1.4493802E-02
   7106.67  1.5562976E-02
   7107.00  1.6798784E-02
   7107.33  1.8274677E-02
   7107.67  2.0029644E-02
   7108.00  2.2142665E-02
   7108.33  2.4809619E-02
   7108.67  2.8177807E-02
   7109.00  3.2527568E-02
   7109.33  3.8596815E-02
   7109.67  4.7202754E-02
   7110.00  5.9949186E-02
   7110.33  8.1414600E-02
   7110.67  1.1612749E-01
   7111.00  1.6384410E-01
   7111.33  2.0899802E-01
   7111.67  2.4387790E-01
   7112.00  2.7466489E-01
   7112.33  3.0344525E-01
   7112.67  3.3045672E-01
   7113.00  3.6005653E-01
   7113.33  3.8728280E-01
   7113.67  4.0064070E-01
   7114.00  3.9190911E-01
   7114.33  3.5710732E-01
   7114.67  3.1684107E-01
   7115.00  2.8836774E-01
   7115.33  2.7495088E-01
   7115.67  2.5929379E-01
   7116.00  2.3212660E-01
   7116.33  2.0070032E-01
   7116.67  1.7534268E-01
   7117.00  1.5805998E-01
   7117.33  1.4841808E-01
   7117.67  1.4323971E-01
   7118.00  1.4007204E-01
   7118.33  1.3648881E-01
   7118.67  1.3237149E-01
   7119.00  1.2906057E-01
   7119.33  1.2823979E-01
   7119.67  1.2981472E-01
   7120.00  1.3317171E-01
   7120.33  1.3769514E-01
   7120.67  1.4324640E-01
   7121.00  1.5000003E-01
   7121.33  1.5743200E-01
   7121.67  1.6456132E-01
   7122.00  1.7150191E-01
   7122.33  1.7953033E-01
   7122.67  1.8970126E-01
   7123.00  2.0236359E-01
   7123.33  2.1767297E-01
   7123.67  2.3511965E-01
   7124.00  2.5426770E-01
   7124.33  2.7419195E-01
   7124.67  2.9353919E-01
   7125.00  3.1126324E-01
   7125.33  3.2646051E-01
   7125.67  3.4023236E-01
   7126.00  3.5437744E-01
   7126.33  3.7133616E-01
   7126.67  3.9204575E-01
   7127.00  4.1697325E-01
   7127.33  4.4710312E-01
   7127.67  4.8176579E-01
   7128.00  5.1942364E-01
   7128.33  5.5615415E-01
   7128.67  5.8794442E-01
   7129.00  6.1300375E-01
   7129.33  6.3100877E-01
   7129.67  6.4468616E-01
   7130.00  6.5590483E-01
   7130.33  6.6651063E-01
   7130.67  6.7810337E-01
   7131.00  6.9174184E-01
   7131.33  7.0873675E-01
   7131.67  7.2903208E-01
   7132.00  7.5203076E-01
   7132.33  7.7587810E-01
   7132.67  7.9746466E-01
   7133.00  8.1400684E-01
   7133.33  8.2224038E-01
   7133.67  8.2254140E-01
   7134.00  8.1568905E-01
   7134.33  8.0205340E-01
   7134.67  7.8275907E-01
   7135.00  7.5782842E-01
   7135.33  7.2754546E-01
   7135.67  6.9469614E-01
   7136.00  6.6161476E-01
   7136.33  6.3087153E-01
   7136.67  6.0367887E-01
   7137.00  5.8069143E-01
   7137.33  5.6273036E-01
   7137.67  5.4908598E-01
   7138.00  5.3931563E-01
   7138.33  5.3293304E-01
   7138.67  5.2847720E-01
   7139.00  5.2505924E-01
   7139.33  5.2197770E-01
   7139.67  5.1886414E-01
   7140.00  5.1570120E-01
   7140.33  5.1265499E-01
   7140.67  5.0993762E-01
   7141.00  5.0774369E-01
   7141.33  5.0634681E-01
   7141.67  5.0577690E-01
   7142.00  5.0609360E-01
   7142.33  5.0744472E-01
   7142.67  5.0971091E-01
   7143.00  5.1286011E-01
   7143.33  5.1692466E-01
   7143.67  5.2169584E-01
   7144.00  5.2704656E-01
   7144.33  5.3283004E-01
   7144.67  5.3875478E-01
   7145.00  5.4458520E-01
   7145.33  5.4999931E-01
   7145.67  5.5480615E-01
   7146.00  5.5886263E-01
   7146.33  5.6199001E-01
   7146.67  5.6431173E-01
   7147.00  5.6590356E-01
   7147.33  5.6681446E-01
   7147.67  5.6725186E-01
   7148.00  5.6731802E-01
   7148.33  5.6708671E-01
   7148.67  5.6669145E-01
   7149.00  5.6621378E-01
   7149.33  5.6574620E-01
   7149.67  5.6538494E-01
   7150.00  5.6522033E-01
   7150.33  5.6539680E-01
   7150.67  5.6597445E-01
   7151.00  5.6702342E-01
   7151.33  5.6866847E-01
   7151.67  5.7087048E-01
   7152.00  5.7362398E-01
   7152.33  5.7694916E-01
   7152.67  5.8069786E-01
   7153.00  5.8476610E-01
   7153.33  5.8902033E-01
   7153.67  5.9325416E-01
   7154.00  5.9728762E-01
   7154.33  6.0084141E-01
   7154.67  6.0373444E-01
   7155.00  6.0576753E-01
   7155.33  6.0659016E-01
   7155.67  6.0615611E-01
   7156.00  6.0435351E-01
   7156.33  6.0093864E-01
   7156.67  5.9610708E-01
   7157.00  5.8993965E-01
   7157.33  5.8245755E-01
   7157.67  5.7403973E-01
   7158.00  5.6491728E-01
   7158.33  5.5531480E-01
   7158.67  5.4555374E-01
   7159.00  5.3584516E-01
   7159.33  5.2643340E-01
   7159.67  5.1745439E-01
   7160.00  5.0901887E-01
   7160.33  5.0129663E-01
   7160.67  4.9426013E-01
   7161.00  4.8792352E-01
   7161.33  4.8235155E-01
   7161.67  4.7741386E-01
   7162.00  4.7306361E-01
   7162.33  4.6930431E-01
   7162.67  4.6600583E-01
   7163.00  4.6311686E-01
   7163.33  4.6063104E-01
   7163.67  4.5846518E-01
   7164.00  4.5659837E-01
   7164.33  4.5505366E-01
   7164.67  4.5379141E-01
   7165.00  4.5281262E-01
   7165.33  4.5215435E-01
   7165.67  4.5177807E-01
   7166.00  4.5167594E-01
   7166.33  4.5186380E-01
   7166.67  4.5228524E-01
   7167.00  4.5291240E-01
   7167.33  4.5372263E-01
   7167.67  4.5464855E-01
   7168.00  4.5565008E-01
   7168.33  4.5668521E-01
   7168.67  4.5770814E-01
   7169.00  4.5868817E-01
   7169.33  4.5958890E-01
   7169.67  4.6040115E-01
   7170.00  4.6111692E-01
   7170.33  4.6172315E-01
   7170.67  4.6223894E-01
   7171.00  4.6267417E-01
   7171.33  4.6303231E-01
   7171.67  4.6332769E-01
   7172.00  4.6355578E-01
