    FDMNES
    energy     <xanes>
   7097.00  5.0912240E-03
   7097.33  5.2119823E-03
   7097.67  5.3382546E-03
   7098.00  5.4704145E-03
   7098.33  5.6097392E-03
   7098.67  5.7559678E-03
   7099.00  5.9096089E-03
   7099.33  6.0723309E-03
   7099.67  6.2438655E-03
   7100.00  6.4249225E-03
   7100.33  6.6177370E-03
   7100.67  6.8220575E-03
   7101.00  7.0389047E-03
   7101.33  7.2713641E-03
   7101.67  7.5192543E-03
   7102.00  7.7840969E-03
   7102.33  8.0703069E-03
   7102.67  8.3778919E-03
   7103.00  8.7092207E-03
   7103.33  9.0708934E-03
   7103.67  9.4633777E-03
   7104.00  9.8905626E-03
   7104.33  1.0362873E-02
   7104.67  1.0881883E-02
   7105.00  1.1454425E-02
   7105.33  1.2098175E-02
   7105.67  1.2817484E-02
   7106.00  1.3625481E-02
   7106.33  1.4555130E-02
   7106.67  1.5618412E-02
   7107.00  1.6843867E-02
   7107.33  1.8301864E-02
   7107.67  2.0028764E-02
   7108.00  2.2099005E-02
   7108.33  2.4697194E-02
   7108.67  2.7959360E-02
   7109.00  3.2145470E-02
   7109.33  3.7938448E-02
   7109.67  4.6084560E-02
   7110.00  5.8046912E-02
   7110.33  7.7964386E-02
   7110.67  1.0964449E-01
   7111.00  1.5214175E-01
   7111.33  1.9644846E-01
   7111.67  2.4224940E-01
   7112.00  2.7802481E-01
   7112.33  2.8987954E-01
   7112.67  2.9970488E-01
   7113.00  3.2576667E-01
   7113.33  3.6204603E-01
   7113.67  3.9499543E-01
   7114.00  4.2895280E-01
   7114.33  4.5128872E-01
   7114.67  4.3972054E-01
   7115.00  3.9528027E-01
   7115.33  3.3734872E-01
   7115.67  2.9174528E-01
   7116.00  2.6606584E-01
   7116.33  2.5643306E-01
   7116.67  2.4706534E-01
   7117.00  2.2881414E-01
   7117.33  2.0323860E-01
   7117.67  1.7957035E-01
   7118.00  1.6175158E-01
   7118.33  1.5087444E-01
   7118.67  1.4451847E-01
   7119.00  1.4082111E-01
   7119.33  1.3779784E-01
   7119.67  1.3453805E-01
   7120.00  1.3159623E-01
   7120.33  1.2981257E-01
   7120.67  1.2919619E-01
   7121.00  1.2972163E-01
   7121.33  1.3148074E-01
   7121.67  1.3414215E-01
   7122.00  1.3737200E-01
   7122.33  1.4055512E-01
   7122.67  1.4337401E-01
   7123.00  1.4647641E-01
   7123.33  1.5147025E-01
   7123.67  1.5920424E-01
   7124.00  1.7019897E-01
   7124.33  1.8513169E-01
   7124.67  2.0313153E-01
   7125.00  2.2314747E-01
   7125.33  2.4353916E-01
   7125.67  2.6289426E-01
   7126.00  2.8102988E-01
   7126.33  2.9925103E-01
   7126.67  3.1975872E-01
   7127.00  3.4400473E-01
   7127.33  3.7238048E-01
   7127.67  4.0300008E-01
   7128.00  4.3509113E-01
   7128.33  4.6914900E-01
   7128.67  5.0519280E-01
   7129.00  5.4197924E-01
   7129.33  5.7593267E-01
   7129.67  6.0466991E-01
   7130.00  6.2811543E-01
   7130.33  6.4774778E-01
   7130.67  6.6586320E-01
   7131.00  6.8308978E-01
   7131.33  6.9936257E-01
   7131.67  7.1503712E-01
   7132.00  7.3087874E-01
   7132.33  7.4835238E-01
   7132.67  7.6832525E-01
   7133.00  7.9102978E-01
   7133.33  8.1587190E-01
   7133.67  8.4046649E-01
   7134.00  8.6195090E-01
   7134.33  8.7553092E-01
   7134.67  8.7888723E-01
   7135.00  8.7082663E-01
   7135.33  8.5056873E-01
   7135.67  8.2148297E-01
   7136.00  7.8600678E-01
   7136.33  7.4697907E-01
   7136.67  7.0780621E-01
   7137.00  6.7049192E-01
   7137.33  6.3704681E-01
   7137.67  6.0800213E-01
   7138.00  5.8385336E-01
   7138.33  5.6552032E-01
   7138.67  5.5224462E-01
   7139.00  5.4352097E-01
   7139.33  5.3868148E-01
   7139.67  5.3588443E-01
   7140.00  5.3402750E-01
   7140.33  5.3232440E-01
   7140.67  5.3054279E-01
   7141.00  5.2883771E-01
   7141.33  5.2759620E-01
   7141.67  5.2707501E-01
   7142.00  5.2743299E-01
   7142.33  5.2881924E-01
   7142.67  5.3100900E-01
   7143.00  5.3382247E-01
   7143.33  5.3704722E-01
   7143.67  5.4038350E-01
   7144.00  5.4365612E-01
   7144.33  5.4671612E-01
   7144.67  5.4955012E-01
   7145.00  5.5218221E-01
   7145.33  5.5465866E-01
   7145.67  5.5706854E-01
   7146.00  5.5946345E-01
   7146.33  5.6188707E-01
   7146.67  5.6435585E-01
   7147.00  5.6687155E-01
   7147.33  5.6942325E-01
   7147.67  5.7198109E-01
   7148.00  5.7451966E-01
   7148.33  5.7699720E-01
   7148.67  5.7938357E-01
   7149.00  5.8164416E-01
   7149.33  5.8370597E-01
   7149.67  5.8552775E-01
   7150.00  5.8705000E-01
   7150.33  5.8815767E-01
   7150.67  5.8883843E-01
   7151.00  5.8905857E-01
   7151.33  5.8873231E-01
   7151.67  5.8791920E-01
   7152.00  5.8664625E-01
   7152.33  5.8493140E-01
   7152.67  5.8292666E-01
   7153.00  5.8074396E-01
   7153.33  5.7852764E-01
   7153.67  5.7643481E-01
   7154.00  5.7458751E-01
   7154.33  5.7314615E-01
   7154.67  5.7214050E-01
   7155.00  5.7159597E-01
   7155.33  5.7154834E-01
   7155.67  5.7187241E-01
   7156.00  5.7247460E-01
   7156.33  5.7323802E-01
   7156.67  5.7399848E-01
   7157.00  5.7463394E-01
   7157.33  5.7498771E-01
   7157.67  5.7499294E-01
   7158.00  5.7459057E-01
   7158.33  5.7368383E-01
   7158.67  5.7231269E-01
   7159.00  5.7047697E-01
   7159.33  5.6812797E-01
   7159.67  5.6533456E-01
   7160.00  5.6210699E-01
   7160.33  5.5840291E-01
   7160.67  5.5428536E-01
   7161.00  5.4976479E-01
   7161.33  5.4481201E-01
   7161.67  5.3950115E-01
   7162.00  5.3386003E-01
   7162.33  5.2789912E-01
   7162.67  5.2171327E-01
   7163.00  5.1535788E-01
   7163.33  5.0889602E-01
   7163.67  5.0243249E-01
   7164.00  4.9605339E-01
   7164.33  4.8987952E-01
   7164.67  4.8397724E-01
   7165.00  4.7841303E-01
   7165.33  4.7329845E-01
   7165.67  4.6862578E-01
   7166.00  4.6441638E-01
   7166.33  4.6073703E-01
   7166.67  4.5751933E-01
   7167.00  4.5474342E-01
   7167.33  4.5242606E-01
   7167.67  4.5047218E-01
   7168.00  4.4883829E-01
   7168.33  4.4750548E-01
   7168.67  4.4638904E-01
   7169.00  4.4544507E-01
   7169.33  4.4463898E-01
   7169.67  4.4391061E-01
   7170.00  4.4322762E-01
   7170.33  4.4256222E-01
   7170.67  4.4189213E-01
   7171.00  4.4120901E-01
   7171.33  4.4051791E-01
   7171.67  4.3985288E-01
   7172.00  4.3926939E-01
