    FDMNES
    energy     <xanes>
   7097.00  5.1170602E-03
   7097.33  5.2390742E-03
   7097.67  5.3667315E-03
   7098.00  5.5004220E-03
   7098.33  5.6414650E-03
   7098.67  5.7896046E-03
   7099.00  5.9453744E-03
   7099.33  6.1105092E-03
   7099.67  6.2847501E-03
   7100.00  6.4688484E-03
   7100.33  6.6651455E-03
   7100.67  6.8734095E-03
   7101.00  7.0947311E-03
   7101.33  7.3323726E-03
   7101.67  7.5861929E-03
   7102.00  7.8578370E-03
   7102.33  8.1520256E-03
   7102.67  8.4688521E-03
   7103.00  8.8109127E-03
   7103.33  9.1853636E-03
   7103.67  9.5928603E-03
   7104.00  1.0037737E-02
   7104.33  1.0531495E-02
   7104.67  1.1076142E-02
   7105.00  1.1679452E-02
   7105.33  1.2361348E-02
   7105.67  1.3127276E-02
   7106.00  1.3992547E-02
   7106.33  1.4995341E-02
   7106.67  1.6150722E-02
   7107.00  1.7493030E-02
   7107.33  1.9106628E-02
   7107.67  2.1038155E-02
   7108.00  2.3380765E-02
   7108.33  2.6365898E-02
   7108.67  3.0173977E-02
   7109.00  3.5147093E-02
   7109.33  4.2192133E-02
   7109.67  5.2345950E-02
   7110.00  6.7649983E-02
   7110.33  9.3934351E-02
   7110.67  1.3653602E-01
   7111.00  1.9246617E-01
   7111.33  2.3707518E-01
   7111.67  2.7029841E-01
   7112.00  3.0567870E-01
   7112.33  3.3982346E-01
   7112.67  3.6182318E-01
   7113.00  3.7419021E-01
   7113.33  3.8398158E-01
   7113.67  3.8434925E-01
   7114.00  3.6350512E-01
   7114.33  3.2182974E-01
   7114.67  2.8206778E-01
   7115.00  2.5663649E-01
   7115.33  2.4827646E-01
   7115.67  2.4524588E-01
   7116.00  2.3628985E-01
   7116.33  2.1637422E-01
   7116.67  1.9398793E-01
   7117.00  1.7504653E-01
   7117.33  1.6178885E-01
   7117.67  1.5219829E-01
   7118.00  1.4486646E-01
   7118.33  1.3887880E-01
   7118.67  1.3384412E-01
   7119.00  1.3010924E-01
   7119.33  1.2803976E-01
   7119.67  1.2725646E-01
   7120.00  1.2780368E-01
   7120.33  1.3004622E-01
   7120.67  1.3365002E-01
   7121.00  1.3810351E-01
   7121.33  1.4269813E-01
   7121.67  1.4757237E-01
   7122.00  1.5401095E-01
   7122.33  1.6398730E-01
   7122.67  1.7702707E-01
   7123.00  1.9129548E-01
   7123.33  2.0502117E-01
   7123.67  2.1936072E-01
   7124.00  2.3582984E-01
   7124.33  2.5469466E-01
   7124.67  2.7405273E-01
   7125.00  2.9263154E-01
   7125.33  3.1041744E-01
   7125.67  3.2839666E-01
   7126.00  3.4680101E-01
   7126.33  3.6602872E-01
   7126.67  3.8760355E-01
   7127.00  4.1343958E-01
   7127.33  4.4511046E-01
   7127.67  4.8013221E-01
   7128.00  5.1513054E-01
   7128.33  5.4638567E-01
   7128.67  5.7391521E-01
   7129.00  5.9935830E-01
   7129.33  6.2489225E-01
   7129.67  6.5108029E-01
   7130.00  6.7653913E-01
   7130.33  6.9791578E-01
   7130.67  7.1349692E-01
   7131.00  7.2339199E-01
   7131.33  7.2982216E-01
   7131.67  7.3697432E-01
   7132.00  7.4755187E-01
   7132.33  7.6359217E-01
   7132.67  7.8374955E-01
   7133.00  8.0562966E-01
   7133.33  8.2440139E-01
   7133.67  8.3545483E-01
   7134.00  8.3584788E-01
   7134.33  8.2359262E-01
   7134.67  8.0190632E-01
   7135.00  7.7307893E-01
   7135.33  7.3940858E-01
   7135.67  7.0410245E-01
   7136.00  6.6902290E-01
   7136.33  6.3600423E-01
   7136.67  6.0598039E-01
   7137.00  5.7971809E-01
   7137.33  5.5842296E-01
   7137.67  5.4185872E-01
   7138.00  5.2992643E-01
   7138.33  5.2250346E-01
   7138.67  5.1802038E-01
   7139.00  5.1545675E-01
   7139.33  5.1398640E-01
   7139.67  5.1297367E-01
   7140.00  5.1226871E-01
   7140.33  5.1189776E-01
   7140.67  5.1184756E-01
   7141.00  5.1211657E-01
   7141.33  5.1271521E-01
   7141.67  5.1358858E-01
   7142.00  5.1475989E-01
   7142.33  5.1636085E-01
   7142.67  5.1846730E-01
   7143.00  5.2118823E-01
   7143.33  5.2471038E-01
   7143.67  5.2898758E-01
   7144.00  5.3400238E-01
   7144.33  5.3974775E-01
   7144.67  5.4598325E-01
   7145.00  5.5252474E-01
   7145.33  5.5913379E-01
   7145.67  5.6555719E-01
   7146.00  5.7161172E-01
   7146.33  5.7707254E-01
   7146.67  5.8190833E-01
   7147.00  5.8607295E-01
   7147.33  5.8944645E-01
   7147.67  5.9209519E-01
   7148.00  5.9400426E-01
   7148.33  5.9505934E-01
   7148.67  5.9535208E-01
   7149.00  5.9490401E-01
   7149.33  5.9368447E-01
   7149.67  5.9186723E-01
   7150.00  5.8955396E-01
   7150.33  5.8684304E-01
   7150.67  5.8393657E-01
   7151.00  5.8097303E-01
   7151.33  5.7811964E-01
   7151.67  5.7550385E-01
   7152.00  5.7322842E-01
   7152.33  5.7144408E-01
   7152.67  5.7016216E-01
   7153.00  5.6941290E-01
   7153.33  5.6926706E-01
   7153.67  5.6962522E-01
   7154.00  5.7042902E-01
   7154.33  5.7161717E-01
   7154.67  5.7300642E-01
   7155.00  5.7445079E-01
   7155.33  5.7574252E-01
   7155.67  5.7670022E-01
   7156.00  5.7716168E-01
   7156.33  5.7688190E-01
   7156.67  5.7582470E-01
   7157.00  5.7393214E-01
   7157.33  5.7108538E-01
   7157.67  5.6743280E-01
   7158.00  5.6304563E-01
   7158.33  5.5795261E-01
   7158.67  5.5234952E-01
   7159.00  5.4633571E-01
   7159.33  5.3998038E-01
   7159.67  5.3341822E-01
   7160.00  5.2672580E-01
   7160.33  5.1997964E-01
   7160.67  5.1326655E-01
   7161.00  5.0665740E-01
   7161.33  5.0025299E-01
   7161.67  4.9410538E-01
   7162.00  4.8827785E-01
   7162.33  4.8287971E-01
   7162.67  4.7790638E-01
   7163.00  4.7337998E-01
   7163.33  4.6936715E-01
   7163.67  4.6580524E-01
   7164.00  4.6268049E-01
   7164.33  4.6002264E-01
   7164.67  4.5775335E-01
   7165.00  4.5584816E-01
   7165.33  4.5431989E-01
   7165.67  4.5309673E-01
   7166.00  4.5215139E-01
   7166.33  4.5148020E-01
   7166.67  4.5101692E-01
   7167.00  4.5073304E-01
   7167.33  4.5061391E-01
   7167.67  4.5060383E-01
   7168.00  4.5067136E-01
   7168.33  4.5078913E-01
   7168.67  4.5092316E-01
   7169.00  4.5105367E-01
   7169.33  4.5116137E-01
   7169.67  4.5123907E-01
   7170.00  4.5128360E-01
   7170.33  4.5129245E-01
   7170.67  4.5127571E-01
   7171.00  4.5124123E-01
   7171.33  4.5119793E-01
   7171.67  4.5115427E-01
   7172.00  4.5111209E-01
