    FDMNES
    energy     <xanes>
   7097.00  4.9316903E-03
   7097.33  5.0479175E-03
   7097.67  5.1694163E-03
   7098.00  5.2965426E-03
   7098.33  5.4305147E-03
   7098.67  5.5710815E-03
   7099.00  5.7187268E-03
   7099.33  5.8750407E-03
   7099.67  6.0397642E-03
   7100.00  6.2135716E-03
   7100.33  6.3985910E-03
   7100.67  6.5945776E-03
   7101.00  6.8024998E-03
   7101.33  7.0252905E-03
   7101.67  7.2627691E-03
   7102.00  7.5163761E-03
   7102.33  7.7902991E-03
   7102.67  8.0845312E-03
   7103.00  8.4013079E-03
   7103.33  8.7468712E-03
   7103.67  9.1216358E-03
   7104.00  9.5292562E-03
   7104.33  9.9795489E-03
   7104.67  1.0473937E-02
   7105.00  1.1018801E-02
   7105.33  1.1630677E-02
   7105.67  1.2313497E-02
   7106.00  1.3079401E-02
   7106.33  1.3958921E-02
   7106.67  1.4962791E-02
   7107.00  1.6117020E-02
   7107.33  1.7485767E-02
   7107.67  1.9101092E-02
   7108.00  2.1029369E-02
   7108.33  2.3434892E-02
   7108.67  2.6434795E-02
   7109.00  3.0253900E-02
   7109.33  3.5479675E-02
   7109.67  4.2736889E-02
   7110.00  5.3248935E-02
   7110.33  7.0456412E-02
   7110.67  9.7440374E-02
   7111.00  1.3304742E-01
   7111.33  1.6752774E-01
   7111.67  2.0456084E-01
   7112.00  2.5390658E-01
   7112.33  3.2188690E-01
   7112.67  3.8663647E-01
   7113.00  3.9864243E-01
   7113.33  3.6613367E-01
   7113.67  3.5095979E-01
   7114.00  3.6606182E-01
   7114.33  4.0361292E-01
   7114.67  4.2535342E-01
   7115.00  4.0085664E-01
   7115.33  3.3493658E-01
   7115.67  2.7161688E-01
   7116.00  2.2909626E-01
   7116.33  2.1091288E-01
   7116.67  2.0295897E-01
   7117.00  1.9036808E-01
   7117.33  1.6712426E-01
   7117.67  1.4497756E-01
   7118.00  1.2969573E-01
   7118.33  1.2226853E-01
   7118.67  1.2006867E-01
   7119.00  1.2166392E-01
   7119.33  1.2493915E-01
   7119.67  1.2614126E-01
   7120.00  1.2285499E-01
   7120.33  1.1612567E-01
   7120.67  1.1033884E-01
   7121.00  1.0727761E-01
   7121.33  1.0740923E-01
   7121.67  1.0993546E-01
   7122.00  1.1449861E-01
   7122.33  1.2101880E-01
   7122.67  1.2907540E-01
   7123.00  1.3852460E-01
   7123.33  1.4960707E-01
   7123.67  1.6250863E-01
   7124.00  1.7749835E-01
   7124.33  1.9469412E-01
   7124.67  2.1339995E-01
   7125.00  2.3350202E-01
   7125.33  2.5560547E-01
   7125.67  2.7976126E-01
   7126.00  3.0554975E-01
   7126.33  3.3114640E-01
   7126.67  3.5355390E-01
   7127.00  3.7099638E-01
   7127.33  3.8435542E-01
   7127.67  3.9791376E-01
   7128.00  4.1451259E-01
   7128.33  4.3571262E-01
   7128.67  4.5961988E-01
   7129.00  4.8428189E-01
   7129.33  5.0828348E-01
   7129.67  5.3204539E-01
   7130.00  5.5668740E-01
   7130.33  5.8374356E-01
   7130.67  6.1313289E-01
   7131.00  6.4343253E-01
   7131.33  6.7098256E-01
   7131.67  6.9267319E-01
   7132.00  7.0737812E-01
   7132.33  7.1583279E-01
   7132.67  7.2150698E-01
   7133.00  7.2632255E-01
   7133.33  7.3142973E-01
   7133.67  7.3718427E-01
   7134.00  7.4375864E-01
   7134.33  7.5134543E-01
   7134.67  7.5964254E-01
   7135.00  7.6821711E-01
   7135.33  7.7605757E-01
   7135.67  7.8186209E-01
   7136.00  7.8429654E-01
   7136.33  7.8161470E-01
   7136.67  7.7417988E-01
   7137.00  7.6273079E-01
   7137.33  7.4855945E-01
   7137.67  7.3382495E-01
   7138.00  7.1999112E-01
   7138.33  7.0858898E-01
   7138.67  6.9984077E-01
   7139.00  6.9335522E-01
   7139.33  6.8783179E-01
   7139.67  6.8123906E-01
   7140.00  6.7226727E-01
   7140.33  6.6030563E-01
   7140.67  6.4684891E-01
   7141.00  6.3347219E-01
   7141.33  6.2202233E-01
   7141.67  6.1325929E-01
   7142.00  6.0745023E-01
   7142.33  6.0473516E-01
   7142.67  6.0421117E-01
   7143.00  6.0525048E-01
   7143.33  6.0716960E-01
   7143.67  6.0913968E-01
   7144.00  6.1064228E-01
   7144.33  6.1114403E-01
   7144.67  6.1054751E-01
   7145.00  6.0882928E-01
   7145.33  6.0597342E-01
   7145.67  6.0231248E-01
   7146.00  5.9806190E-01
   7146.33  5.9344218E-01
   7146.67  5.8874372E-01
   7147.00  5.8415994E-01
   7147.33  5.7992488E-01
   7147.67  5.7615858E-01
   7148.00  5.7295955E-01
   7148.33  5.7045847E-01
   7148.67  5.6858049E-01
   7149.00  5.6731176E-01
   7149.33  5.6668254E-01
   7149.67  5.6654986E-01
   7150.00  5.6683444E-01
   7150.33  5.6747132E-01
   7150.67  5.6830943E-01
   7151.00  5.6925361E-01
   7151.33  5.7021096E-01
   7151.67  5.7110415E-01
   7152.00  5.7187342E-01
   7152.33  5.7243578E-01
   7152.67  5.7276726E-01
   7153.00  5.7283763E-01
   7153.33  5.7258602E-01
   7153.67  5.7203562E-01
   7154.00  5.7118979E-01
   7154.33  5.7003381E-01
   7154.67  5.6863612E-01
   7155.00  5.6703490E-01
   7155.33  5.6526180E-01
   7155.67  5.6338656E-01
   7156.00  5.6144595E-01
   7156.33  5.5946329E-01
   7156.67  5.5745014E-01
   7157.00  5.5539327E-01
   7157.33  5.5324469E-01
   7157.67  5.5095664E-01
   7158.00  5.4846878E-01
   7158.33  5.4567158E-01
   7158.67  5.4252721E-01
   7159.00  5.3898175E-01
   7159.33  5.3493088E-01
   7159.67  5.3040374E-01
   7160.00  5.2539707E-01
   7160.33  5.1987460E-01
   7160.67  5.1394176E-01
   7161.00  5.0765986E-01
   7161.33  5.0108650E-01
   7161.67  4.9435634E-01
   7162.00  4.8756067E-01
   7162.33  4.8081109E-01
   7162.67  4.7419993E-01
   7163.00  4.6779544E-01
   7163.33  4.6168803E-01
   7163.67  4.5589022E-01
   7164.00  4.5043467E-01
   7164.33  4.4539398E-01
   7164.67  4.4073755E-01
   7165.00  4.3647210E-01
   7165.33  4.3264607E-01
   7165.67  4.2920177E-01
   7166.00  4.2612632E-01
   7166.33  4.2344242E-01
   7166.67  4.2107965E-01
   7167.00  4.1901139E-01
   7167.33  4.1723654E-01
   7167.67  4.1568708E-01
   7168.00  4.1433436E-01
   7168.33  4.1317277E-01
   7168.67  4.1215448E-01
   7169.00  4.1125728E-01
   7169.33  4.1047296E-01
   7169.67  4.0977324E-01
   7170.00  4.0914812E-01
   7170.33  4.0859716E-01
   7170.67  4.0810533E-01
   7171.00  4.0766761E-01
   7171.33  4.0728575E-01
   7171.67  4.0695248E-01
   7172.00  4.0667046E-01
