    FDMNES
    energy     <xanes>
   7097.00  4.1147550E-03
   7097.33  4.1984236E-03
   7097.67  4.2854494E-03
   7098.00  4.3760478E-03
   7098.33  4.4709775E-03
   7098.67  4.5700666E-03
   7099.00  4.6736092E-03
   7099.33  4.7825925E-03
   7099.67  4.8968427E-03
   7100.00  5.0167742E-03
   7100.33  5.1437093E-03
   7100.67  5.2774911E-03
   7101.00  5.4187238E-03
   7101.33  5.5692437E-03
   7101.67  5.7289508E-03
   7102.00  5.8987644E-03
   7102.33  6.0813473E-03
   7102.67  6.2767467E-03
   7103.00  6.4864354E-03
   7103.33  6.7144835E-03
   7103.67  6.9612969E-03
   7104.00  7.2293859E-03
   7104.33  7.5253969E-03
   7104.67  7.8506147E-03
   7105.00  8.2096668E-03
   7105.33  8.6143588E-03
   7105.67  9.0682562E-03
   7106.00  9.5808005E-03
   7106.33  1.0175418E-02
   7106.67  1.0862237E-02
   7107.00  1.1663358E-02
   7107.33  1.2632951E-02
   7107.67  1.3803387E-02
   7108.00  1.5237694E-02
   7108.33  1.7092850E-02
   7108.67  1.9498830E-02
   7109.00  2.2699843E-02
   7109.33  2.7348130E-02
   7109.67  3.4218467E-02
   7110.00  4.4838032E-02
   7110.33  6.3604443E-02
   7110.67  9.4691253E-02
   7111.00  1.3603662E-01
   7111.33  1.6768427E-01
   7111.67  1.8624956E-01
   7112.00  1.9448737E-01
   7112.33  1.8869258E-01
   7112.67  1.8519327E-01
   7113.00  1.7952393E-01
   7113.33  1.5278637E-01
   7113.67  1.1893311E-01
   7114.00  9.1403608E-02
   7114.33  7.4397394E-02
   7114.67  6.4289071E-02
   7115.00  5.7976022E-02
   7115.33  5.2552194E-02
   7115.67  4.7747233E-02
   7116.00  4.4165384E-02
   7116.33  4.1970205E-02
   7116.67  4.0676883E-02
   7117.00  4.0080898E-02
   7117.33  4.0198732E-02
   7117.67  4.0986878E-02
   7118.00  4.2489222E-02
   7118.33  4.4857437E-02
   7118.67  4.8114025E-02
   7119.00  5.2473265E-02
   7119.33  5.8497039E-02
   7119.67  6.6349809E-02
   7120.00  7.5983305E-02
   7120.33  8.6275104E-02
   7120.67  9.4388408E-02
   7121.00  9.8065777E-02
   7121.33  9.7276292E-02
   7121.67  9.5703969E-02
   7122.00  9.5683808E-02
   7122.33  9.8773399E-02
   7122.67  1.0500891E-01
   7123.00  1.1465947E-01
   7123.33  1.2876943E-01
   7123.67  1.4763211E-01
   7124.00  1.7200234E-01
   7124.33  2.0328230E-01
   7124.67  2.4022515E-01
   7125.00  2.8073730E-01
   7125.33  3.2064009E-01
   7125.67  3.5609853E-01
   7126.00  3.8522353E-01
   7126.33  4.0554240E-01
   7126.67  4.1613174E-01
   7127.00  4.1835185E-01
   7127.33  4.2211993E-01
   7127.67  4.3689624E-01
   7128.00  4.6235006E-01
   7128.33  4.9119458E-01
   7128.67  5.1608640E-01
   7129.00  5.3666298E-01
   7129.33  5.5919528E-01
   7129.67  5.9166904E-01
   7130.00  6.3894549E-01
   7130.33  7.0301047E-01
   7130.67  7.7516249E-01
   7131.00  8.4512267E-01
   7131.33  8.9831131E-01
   7131.67  9.2977085E-01
   7132.00  9.4147828E-01
   7132.33  9.4023407E-01
   7132.67  9.3562475E-01
   7133.00  9.3167628E-01
   7133.33  9.2999623E-01
   7133.67  9.2964241E-01
   7134.00  9.2973543E-01
   7134.33  9.3004630E-01
   7134.67  9.3119636E-01
   7135.00  9.3382035E-01
   7135.33  9.3760852E-01
   7135.67  9.4008296E-01
   7136.00  9.3868722E-01
   7136.33  9.3097965E-01
   7136.67  9.1755117E-01
   7137.00  8.9902421E-01
   7137.33  8.7594859E-01
   7137.67  8.5007289E-01
   7138.00  8.2252406E-01
   7138.33  7.9448337E-01
   7138.67  7.6702322E-01
   7139.00  7.4078905E-01
   7139.33  7.1648646E-01
   7139.67  6.9416091E-01
   7140.00  6.7390154E-01
   7140.33  6.5596732E-01
   7140.67  6.4003428E-01
   7141.00  6.2601789E-01
   7141.33  6.1402734E-01
   7141.67  6.0372610E-01
   7142.00  5.9503423E-01
   7142.33  5.8803417E-01
   7142.67  5.8242641E-01
   7143.00  5.7812133E-01
   7143.33  5.7516677E-01
   7143.67  5.7330492E-01
   7144.00  5.7243231E-01
   7144.33  5.7251569E-01
   7144.67  5.7328931E-01
   7145.00  5.7460543E-01
   7145.33  5.7633510E-01
   7145.67  5.7826419E-01
   7146.00  5.8025834E-01
   7146.33  5.8216308E-01
   7146.67  5.8385444E-01
   7147.00  5.8522399E-01
   7147.33  5.8609669E-01
   7147.67  5.8641756E-01
   7148.00  5.8610625E-01
   7148.33  5.8500120E-01
   7148.67  5.8313165E-01
   7149.00  5.8046269E-01
   7149.33  5.7688332E-01
   7149.67  5.7250854E-01
   7150.00  5.6735475E-01
   7150.33  5.6135183E-01
   7150.67  5.5462965E-01
   7151.00  5.4722707E-01
   7151.33  5.3911820E-01
   7151.67  5.3044031E-01
   7152.00  5.2124701E-01
   7152.33  5.1154385E-01
   7152.67  5.0144559E-01
   7153.00  4.9099426E-01
   7153.33  4.8018954E-01
   7153.67  4.6910325E-01
   7154.00  4.5775970E-01
   7154.33  4.4615678E-01
   7154.67  4.3435431E-01
   7155.00  4.2238785E-01
   7155.33  4.1029772E-01
   7155.67  3.9816490E-01
   7156.00  3.8605415E-01
   7156.33  3.7405058E-01
   7156.67  3.6220202E-01
   7157.00  3.5054238E-01
   7157.33  3.3911503E-01
   7157.67  3.2789710E-01
   7158.00  3.1688816E-01
   7158.33  3.0611901E-01
   7158.67  2.9558600E-01
   7159.00  2.8533533E-01
   7159.33  2.7550655E-01
   7159.67  2.6619035E-01
   7160.00  2.5753739E-01
   7160.33  2.4985684E-01
   7160.67  2.4325120E-01
   7161.00  2.3789149E-01
   7161.33  2.3412150E-01
   7161.67  2.3187711E-01
   7162.00  2.3120278E-01
   7162.33  2.3229430E-01
   7162.67  2.3489610E-01
   7163.00  2.3891837E-01
   7163.33  2.4438533E-01
   7163.67  2.5096617E-01
   7164.00  2.5849110E-01
   7164.33  2.6683405E-01
   7164.67  2.7567506E-01
   7165.00  2.8481517E-01
   7165.33  2.9404086E-01
   7165.67  3.0314086E-01
   7166.00  3.1196796E-01
   7166.33  3.2033937E-01
   7166.67  3.2821894E-01
   7167.00  3.3556670E-01
   7167.33  3.4230826E-01
   7167.67  3.4854077E-01
   7168.00  3.5431045E-01
   7168.33  3.5963493E-01
   7168.67  3.6463408E-01
   7169.00  3.6936386E-01
   7169.33  3.7385262E-01
   7169.67  3.7816792E-01
   7170.00  3.8233172E-01
   7170.33  3.8633599E-01
   7170.67  3.9018921E-01
   7171.00  3.9386448E-01
   7171.33  3.9726521E-01
   7171.67  4.0029027E-01
   7172.00  4.0276343E-01
