    FDMNES
    energy     <xanes>
   7097.00  5.1719436E-03
   7097.33  5.2968227E-03
   7097.67  5.4274511E-03
   7098.00  5.5642203E-03
   7098.33  5.7084640E-03
   7098.67  5.8599125E-03
   7099.00  6.0190982E-03
   7099.33  6.1877650E-03
   7099.67  6.3656354E-03
   7100.00  6.5534528E-03
   7100.33  6.7535549E-03
   7100.67  6.9656816E-03
   7101.00  7.1909017E-03
   7101.33  7.4324437E-03
   7101.67  7.6901199E-03
   7102.00  7.9655229E-03
   7102.33  8.2632710E-03
   7102.67  8.5833721E-03
   7103.00  8.9283015E-03
   7103.33  9.3049562E-03
   7103.67  9.7138158E-03
   7104.00  1.0158933E-02
   7104.33  1.0651173E-02
   7104.67  1.1192139E-02
   7105.00  1.1788913E-02
   7105.33  1.2459819E-02
   7105.67  1.3209242E-02
   7106.00  1.4050645E-02
   7106.33  1.5017840E-02
   7106.67  1.6122680E-02
   7107.00  1.7393856E-02
   7107.33  1.8902024E-02
   7107.67  2.0681946E-02
   7108.00  2.2805642E-02
   7108.33  2.5450449E-02
   7108.67  2.8738175E-02
   7109.00  3.2901448E-02
   7109.33  3.8537011E-02
   7109.67  4.6235139E-02
   7110.00  5.7132828E-02
   7110.33  7.4453884E-02
   7110.67  1.0231382E-01
   7111.00  1.4665089E-01
   7111.33  2.1235091E-01
   7111.67  2.7938268E-01
   7112.00  3.2243059E-01
   7112.33  3.4311979E-01
   7112.67  3.6044670E-01
   7113.00  3.8292850E-01
   7113.33  4.1936419E-01
   7113.67  4.5044798E-01
   7114.00  4.5205733E-01
   7114.33  4.0045154E-01
   7114.67  3.3451039E-01
   7115.00  2.9087128E-01
   7115.33  2.8242184E-01
   7115.67  2.9122992E-01
   7116.00  2.9716449E-01
   7116.33  2.8329608E-01
   7116.67  2.5671259E-01
   7117.00  2.2870641E-01
   7117.33  2.0726150E-01
   7117.67  1.9202761E-01
   7118.00  1.8147241E-01
   7118.33  1.7423118E-01
   7118.67  1.6845355E-01
   7119.00  1.6301913E-01
   7119.33  1.5694334E-01
   7119.67  1.5004719E-01
   7120.00  1.4265995E-01
   7120.33  1.3581768E-01
   7120.67  1.3094910E-01
   7121.00  1.2891780E-01
   7121.33  1.2997415E-01
   7121.67  1.3303720E-01
   7122.00  1.3725619E-01
   7122.33  1.4171011E-01
   7122.67  1.4601816E-01
   7123.00  1.5043479E-01
   7123.33  1.5570118E-01
   7123.67  1.6249857E-01
   7124.00  1.7143815E-01
   7124.33  1.8329257E-01
   7124.67  1.9777293E-01
   7125.00  2.1486434E-01
   7125.33  2.3603509E-01
   7125.67  2.6250318E-01
   7126.00  2.9413312E-01
   7126.33  3.2708917E-01
   7126.67  3.5428637E-01
   7127.00  3.7213865E-01
   7127.33  3.8274188E-01
   7127.67  3.9318387E-01
   7128.00  4.0728430E-01
   7128.33  4.2756791E-01
   7128.67  4.5337834E-01
   7129.00  4.8399120E-01
   7129.33  5.1867092E-01
   7129.67  5.5610832E-01
   7130.00  5.9628451E-01
   7130.33  6.4023686E-01
   7130.67  6.8834671E-01
   7131.00  7.4104029E-01
   7131.33  7.9893074E-01
   7131.67  8.6101792E-01
   7132.00  9.2648380E-01
   7132.33  9.9411664E-01
   7132.67  1.0618642E+00
   7133.00  1.1268697E+00
   7133.33  1.1791955E+00
   7133.67  1.2050843E+00
   7134.00  1.1928376E+00
   7134.33  1.1375648E+00
   7134.67  1.0578836E+00
   7135.00  9.6767242E-01
   7135.33  8.7817593E-01
   7135.67  7.9503012E-01
   7136.00  7.2031940E-01
   7136.33  6.5579565E-01
   7136.67  6.0003705E-01
   7137.00  5.5256545E-01
   7137.33  5.1374238E-01
   7137.67  4.8204856E-01
   7138.00  4.5703990E-01
   7138.33  4.3891764E-01
   7138.67  4.2622405E-01
   7139.00  4.1824209E-01
   7139.33  4.1450697E-01
   7139.67  4.1360689E-01
   7140.00  4.1482900E-01
   7140.33  4.1771980E-01
   7140.67  4.2168600E-01
   7141.00  4.2653792E-01
   7141.33  4.3227573E-01
   7141.67  4.3876151E-01
   7142.00  4.4595921E-01
   7142.33  4.5386269E-01
   7142.67  4.6223897E-01
   7143.00  4.7089140E-01
   7143.33  4.7951832E-01
   7143.67  4.8776846E-01
   7144.00  4.9532093E-01
   7144.33  5.0169531E-01
   7144.67  5.0675112E-01
   7145.00  5.1035648E-01
   7145.33  5.1232394E-01
   7145.67  5.1299266E-01
   7146.00  5.1260854E-01
   7146.33  5.1146622E-01
   7146.67  5.1008547E-01
   7147.00  5.0883393E-01
   7147.33  5.0816021E-01
   7147.67  5.0833204E-01
   7148.00  5.0959199E-01
   7148.33  5.1235320E-01
   7148.67  5.1663820E-01
   7149.00  5.2255949E-01
   7149.33  5.3040544E-01
   7149.67  5.3995842E-01
   7150.00  5.5112922E-01
   7150.33  5.6384582E-01
   7150.67  5.7753144E-01
   7151.00  5.9173848E-01
   7151.33  6.0585653E-01
   7151.67  6.1927203E-01
   7152.00  6.3149615E-01
   7152.33  6.4188152E-01
   7152.67  6.5037230E-01
   7153.00  6.5690029E-01
   7153.33  6.6130895E-01
   7153.67  6.6403668E-01
   7154.00  6.6531446E-01
   7154.33  6.6528846E-01
   7154.67  6.6438353E-01
   7155.00  6.6281284E-01
   7155.33  6.6072507E-01
   7155.67  6.5833558E-01
   7156.00  6.5574361E-01
   7156.33  6.5301292E-01
   7156.67  6.5020644E-01
   7157.00  6.4734569E-01
   7157.33  6.4443480E-01
   7157.67  6.4147834E-01
   7158.00  6.3847065E-01
   7158.33  6.3539469E-01
   7158.67  6.3224726E-01
   7159.00  6.2901939E-01
   7159.33  6.2569009E-01
   7159.67  6.2226218E-01
   7160.00  6.1872898E-01
   7160.33  6.1506854E-01
   7160.67  6.1128346E-01
   7161.00  6.0736036E-01
   7161.33  6.0326164E-01
   7161.67  5.9898749E-01
   7162.00  5.9452110E-01
   7162.33  5.8981557E-01
   7162.67  5.8487921E-01
   7163.00  5.7970043E-01
   7163.33  5.7423925E-01
   7163.67  5.6852419E-01
   7164.00  5.6255833E-01
   7164.33  5.5631873E-01
   7164.67  5.4984638E-01
   7165.00  5.4315298E-01
   7165.33  5.3622746E-01
   7165.67  5.2911200E-01
   7166.00  5.2182201E-01
   7166.33  5.1435518E-01
   7166.67  5.0675132E-01
   7167.00  4.9903173E-01
   7167.33  4.9121388E-01
   7167.67  4.8334138E-01
   7168.00  4.7544704E-01
   7168.33  4.6757772E-01
   7168.67  4.5978064E-01
   7169.00  4.5210180E-01
   7169.33  4.4461854E-01
   7169.67  4.3736890E-01
   7170.00  4.3040454E-01
   7170.33  4.2382469E-01
   7170.67  4.1764642E-01
   7171.00  4.1193046E-01
   7171.33  4.0684058E-01
   7171.67  4.0245390E-01
   7172.00  3.9894420E-01
