    FDMNES
    energy     <xanes>
   7097.00  5.3144077E-03
   7097.33  5.4474581E-03
   7097.67  5.5869283E-03
   7098.00  5.7332767E-03
   7098.33  5.8880296E-03
   7098.67  6.0509165E-03
   7099.00  6.2225700E-03
   7099.33  6.4050140E-03
   7099.67  6.5979818E-03
   7100.00  6.8023711E-03
   7100.33  7.0209397E-03
   7100.67  7.2534632E-03
   7101.00  7.5012573E-03
   7101.33  7.7682032E-03
   7101.67  8.0542032E-03
   7102.00  8.3612607E-03
   7102.33  8.6950541E-03
   7102.67  9.0557992E-03
   7103.00  9.4466909E-03
   7103.33  9.8764397E-03
   7103.67  1.0346002E-02
   7104.00  1.0860770E-02
   7104.33  1.1434921E-02
   7104.67  1.2071183E-02
   7105.00  1.2779336E-02
   7105.33  1.3584267E-02
   7105.67  1.4493196E-02
   7106.00  1.5525603E-02
   7106.33  1.6729802E-02
   7106.67  1.8125567E-02
   7107.00  1.9756990E-02
   7107.33  2.1732018E-02
   7107.67  2.4111419E-02
   7108.00  2.7015284E-02
   7108.33  3.0741044E-02
   7108.67  3.5520653E-02
   7109.00  4.1791082E-02
   7109.33  5.0703192E-02
   7109.67  6.3550881E-02
   7110.00  8.2867077E-02
   7110.33  1.1593912E-01
   7110.67  1.7058200E-01
   7111.00  2.4840687E-01
   7111.33  3.2188221E-01
   7111.67  3.7866881E-01
   7112.00  4.3926996E-01
   7112.33  4.8119253E-01
   7112.67  4.9124095E-01
   7113.00  4.7313394E-01
   7113.33  3.9749371E-01
   7113.67  3.0742304E-01
   7114.00  2.4174872E-01
   7114.33  2.1280313E-01
   7114.67  2.1284043E-01
   7115.00  2.3882820E-01
   7115.33  2.7687327E-01
   7115.67  2.9260621E-01
   7116.00  2.7476686E-01
   7116.33  2.4217880E-01
   7116.67  2.1421220E-01
   7117.00  1.9406919E-01
   7117.33  1.8057535E-01
   7117.67  1.7053119E-01
   7118.00  1.6250628E-01
   7118.33  1.5557847E-01
   7118.67  1.4944851E-01
   7119.00  1.4435664E-01
   7119.33  1.4038883E-01
   7119.67  1.3708355E-01
   7120.00  1.3422714E-01
   7120.33  1.3186109E-01
   7120.67  1.3041658E-01
   7121.00  1.3043598E-01
   7121.33  1.3230822E-01
   7121.67  1.3563523E-01
   7122.00  1.4025040E-01
   7122.33  1.4631472E-01
   7122.67  1.5392467E-01
   7123.00  1.6345766E-01
   7123.33  1.7566113E-01
   7123.67  1.9063886E-01
   7124.00  2.0887856E-01
   7124.33  2.3163805E-01
   7124.67  2.5862972E-01
   7125.00  2.8871812E-01
   7125.33  3.1845137E-01
   7125.67  3.4316271E-01
   7126.00  3.5999684E-01
   7126.33  3.6857462E-01
   7126.67  3.7377630E-01
   7127.00  3.7942098E-01
   7127.33  3.8903647E-01
   7127.67  4.0380480E-01
   7128.00  4.2415938E-01
   7128.33  4.5023055E-01
   7128.67  4.8044553E-01
   7129.00  5.1416190E-01
   7129.33  5.5095515E-01
   7129.67  5.8948707E-01
   7130.00  6.2920333E-01
   7130.33  6.7044264E-01
   7130.67  7.1366990E-01
   7131.00  7.5926153E-01
   7131.33  8.0761585E-01
   7131.67  8.5848421E-01
   7132.00  9.1182613E-01
   7132.33  9.6642227E-01
   7132.67  1.0177953E+00
   7133.00  1.0594480E+00
   7133.33  1.0801538E+00
   7133.67  1.0765146E+00
   7134.00  1.0491278E+00
   7134.33  1.0013701E+00
   7134.67  9.4240693E-01
   7135.00  8.7748587E-01
   7135.33  8.1151361E-01
   7135.67  7.4842997E-01
   7136.00  6.9040698E-01
   7136.33  6.3947217E-01
   7136.67  5.9508152E-01
   7137.00  5.5702840E-01
   7137.33  5.2561946E-01
   7137.67  4.9959456E-01
   7138.00  4.7843840E-01
   7138.33  4.6196423E-01
   7138.67  4.4885657E-01
   7139.00  4.3844213E-01
   7139.33  4.3033910E-01
   7139.67  4.2391816E-01
   7140.00  4.1909097E-01
   7140.33  4.1616684E-01
   7140.67  4.1512952E-01
   7141.00  4.1612843E-01
   7141.33  4.1948558E-01
   7141.67  4.2481620E-01
   7142.00  4.3185511E-01
   7142.33  4.4027234E-01
   7142.67  4.4928257E-01
   7143.00  4.5828344E-01
   7143.33  4.6652554E-01
   7143.67  4.7359105E-01
   7144.00  4.7925751E-01
   7144.33  4.8336882E-01
   7144.67  4.8636944E-01
   7145.00  4.8862616E-01
   7145.33  4.9059625E-01
   7145.67  4.9278085E-01
   7146.00  4.9553050E-01
   7146.33  4.9925501E-01
   7146.67  5.0400119E-01
   7147.00  5.0980541E-01
   7147.33  5.1673514E-01
   7147.67  5.2450507E-01
   7148.00  5.3290703E-01
   7148.33  5.4168300E-01
   7148.67  5.5047537E-01
   7149.00  5.5905250E-01
   7149.33  5.6719725E-01
   7149.67  5.7489888E-01
   7150.00  5.8217578E-01
   7150.33  5.8906612E-01
   7150.67  5.9572838E-01
   7151.00  6.0226161E-01
   7151.33  6.0874685E-01
   7151.67  6.1522379E-01
   7152.00  6.2167366E-01
   7152.33  6.2801117E-01
   7152.67  6.3413492E-01
   7153.00  6.3992832E-01
   7153.33  6.4519172E-01
   7153.67  6.4985199E-01
   7154.00  6.5381113E-01
   7154.33  6.5688107E-01
   7154.67  6.5910253E-01
   7155.00  6.6045196E-01
   7155.33  6.6082319E-01
   7155.67  6.6035644E-01
   7156.00  6.5909818E-01
   7156.33  6.5702931E-01
   7156.67  6.5432190E-01
   7157.00  6.5104958E-01
   7157.33  6.4723763E-01
   7157.67  6.4303050E-01
   7158.00  6.3849953E-01
   7158.33  6.3369227E-01
   7158.67  6.2871112E-01
   7159.00  6.2361252E-01
   7159.33  6.1844779E-01
   7159.67  6.1327345E-01
   7160.00  6.0812163E-01
   7160.33  6.0302043E-01
   7160.67  5.9797064E-01
   7161.00  5.9296518E-01
   7161.33  5.8798414E-01
   7161.67  5.8299165E-01
   7162.00  5.7795595E-01
   7162.33  5.7282958E-01
   7162.67  5.6758698E-01
   7163.00  5.6220131E-01
   7163.33  5.5662572E-01
   7163.67  5.5086266E-01
   7164.00  5.4490317E-01
   7164.33  5.3872063E-01
   7164.67  5.3234714E-01
   7165.00  5.2579816E-01
   7165.33  5.1908670E-01
   7165.67  5.1227402E-01
   7166.00  5.0540431E-01
   7166.33  4.9853115E-01
   7166.67  4.9170553E-01
   7167.00  4.8496523E-01
   7167.33  4.7835978E-01
   7167.67  4.7189834E-01
   7168.00  4.6559492E-01
   7168.33  4.5947911E-01
   7168.67  4.5353212E-01
   7169.00  4.4775466E-01
   7169.33  4.4217389E-01
   7169.67  4.3677998E-01
   7170.00  4.3158890E-01
   7170.33  4.2665583E-01
   7170.67  4.2198908E-01
   7171.00  4.1763256E-01
   7171.33  4.1371128E-01
   7171.67  4.1030223E-01
   7172.00  4.0755574E-01
