    FDMNES
    energy     <xanes>
   7097.00  5.1403606E-03
   7097.33  5.2642251E-03
   7097.67  5.3938029E-03
   7098.00  5.5294833E-03
   7098.33  5.6725921E-03
   7098.67  5.8228615E-03
   7099.00  5.9808207E-03
   7099.33  6.1482033E-03
   7099.67  6.3247336E-03
   7100.00  6.5111505E-03
   7100.33  6.7097780E-03
   7100.67  6.9203576E-03
   7101.00  7.1439521E-03
   7101.33  7.3837710E-03
   7101.67  7.6396289E-03
   7102.00  7.9131101E-03
   7102.33  8.2088084E-03
   7102.67  8.5267353E-03
   7103.00  8.8693573E-03
   7103.33  9.2435438E-03
   7103.67  9.6497856E-03
   7104.00  1.0092133E-02
   7104.33  1.0581440E-02
   7104.67  1.1119352E-02
   7105.00  1.1712988E-02
   7105.33  1.2380762E-02
   7105.67  1.3127220E-02
   7106.00  1.3966054E-02
   7106.33  1.4931634E-02
   7106.67  1.6036484E-02
   7107.00  1.7310396E-02
   7107.33  1.8826799E-02
   7107.67  2.0623661E-02
   7108.00  2.2778607E-02
   7108.33  2.5483875E-02
   7108.67  2.8880211E-02
   7109.00  3.3235678E-02
   7109.33  3.9249780E-02
   7109.67  4.7670456E-02
   7110.00  5.9959165E-02
   7110.33  8.0382478E-02
   7110.67  1.1467700E-01
   7111.00  1.7004666E-01
   7111.33  2.3454006E-01
   7111.67  2.5623123E-01
   7112.00  2.4433820E-01
   7112.33  2.5422387E-01
   7112.67  2.9761583E-01
   7113.00  3.5093923E-01
   7113.33  3.8044380E-01
   7113.67  3.8979972E-01
   7114.00  3.8907051E-01
   7114.33  4.0876248E-01
   7114.67  4.5315973E-01
   7115.00  4.6819086E-01
   7115.33  4.0730008E-01
   7115.67  3.3313290E-01
   7116.00  2.8206775E-01
   7116.33  2.6625461E-01
   7116.67  2.7741113E-01
   7117.00  3.0119911E-01
   7117.33  3.0630100E-01
   7117.67  2.8409835E-01
   7118.00  2.4939106E-01
   7118.33  2.1957191E-01
   7118.67  1.9834724E-01
   7119.00  1.8424362E-01
   7119.33  1.7533997E-01
   7119.67  1.6939342E-01
   7120.00  1.6520835E-01
   7120.33  1.6141721E-01
   7120.67  1.5683087E-01
   7121.00  1.5068607E-01
   7121.33  1.4289020E-01
   7121.67  1.3549646E-01
   7122.00  1.3037731E-01
   7122.33  1.2877773E-01
   7122.67  1.3004745E-01
   7123.00  1.3348257E-01
   7123.33  1.3798152E-01
   7123.67  1.4240721E-01
   7124.00  1.4658783E-01
   7124.33  1.5096380E-01
   7124.67  1.5605035E-01
   7125.00  1.6220545E-01
   7125.33  1.6989881E-01
   7125.67  1.7926710E-01
   7126.00  1.9072160E-01
   7126.33  2.0527385E-01
   7126.67  2.2319830E-01
   7127.00  2.4467391E-01
   7127.33  2.6941557E-01
   7127.67  2.9525180E-01
   7128.00  3.2021150E-01
   7128.33  3.4272371E-01
   7128.67  3.6364912E-01
   7129.00  3.8448102E-01
   7129.33  4.0704734E-01
   7129.67  4.3199645E-01
   7130.00  4.5947034E-01
   7130.33  4.8935446E-01
   7130.67  5.2067543E-01
   7131.00  5.5331490E-01
   7131.33  5.8861105E-01
   7131.67  6.2792441E-01
   7132.00  6.7231305E-01
   7132.33  7.2297253E-01
   7132.67  7.7890993E-01
   7133.00  8.3910203E-01
   7133.33  9.0163893E-01
   7133.67  9.6369654E-01
   7134.00  1.0237621E+00
   7134.33  1.0807059E+00
   7134.67  1.1323375E+00
   7135.00  1.1717319E+00
   7135.33  1.1823022E+00
   7135.67  1.1570949E+00
   7136.00  1.0979047E+00
   7136.33  1.0150517E+00
   7136.67  9.2591952E-01
   7137.00  8.3921048E-01
   7137.33  7.6091885E-01
   7137.67  6.9170770E-01
   7138.00  6.3163716E-01
   7138.33  5.8132960E-01
   7138.67  5.3911180E-01
   7139.00  5.0450936E-01
   7139.33  4.7792770E-01
   7139.67  4.5799967E-01
   7140.00  4.4424737E-01
   7140.33  4.3665209E-01
   7140.67  4.3366603E-01
   7141.00  4.3445669E-01
   7141.33  4.3836693E-01
   7141.67  4.4409043E-01
   7142.00  4.5088855E-01
   7142.33  4.5807960E-01
   7142.67  4.6506719E-01
   7143.00  4.7153485E-01
   7143.33  4.7722868E-01
   7143.67  4.8227287E-01
   7144.00  4.8682750E-01
   7144.33  4.9112174E-01
   7144.67  4.9542443E-01
   7145.00  4.9985251E-01
   7145.33  5.0439934E-01
   7145.67  5.0888472E-01
   7146.00  5.1308505E-01
   7146.33  5.1661751E-01
   7146.67  5.1925225E-01
   7147.00  5.2078166E-01
   7147.33  5.2093997E-01
   7147.67  5.1994479E-01
   7148.00  5.1797261E-01
   7148.33  5.1526189E-01
   7148.67  5.1231271E-01
   7149.00  5.0952440E-01
   7149.33  5.0744338E-01
   7149.67  5.0642604E-01
   7150.00  5.0680038E-01
   7150.33  5.0909924E-01
   7150.67  5.1335387E-01
   7151.00  5.1968849E-01
   7151.33  5.2836772E-01
   7151.67  5.3896885E-01
   7152.00  5.5120153E-01
   7152.33  5.6469565E-01
   7152.67  5.7867541E-01
   7153.00  5.9256061E-01
   7153.33  6.0564090E-01
   7153.67  6.1753089E-01
   7154.00  6.2797831E-01
   7154.33  6.3667451E-01
   7154.67  6.4385345E-01
   7155.00  6.4962691E-01
   7155.33  6.5401223E-01
   7155.67  6.5734081E-01
   7156.00  6.5974989E-01
   7156.33  6.6127495E-01
   7156.67  6.6211808E-01
   7157.00  6.6234661E-01
   7157.33  6.6194970E-01
   7157.67  6.6104101E-01
   7158.00  6.5965181E-01
   7158.33  6.5775919E-01
   7158.67  6.5545201E-01
   7159.00  6.5275995E-01
   7159.33  6.4967575E-01
   7159.67  6.4628147E-01
   7160.00  6.4261260E-01
   7160.33  6.3868337E-01
   7160.67  6.3456361E-01
   7161.00  6.3028586E-01
   7161.33  6.2587007E-01
   7161.67  6.2135622E-01
   7162.00  6.1675504E-01
   7162.33  6.1205874E-01
   7162.67  6.0727129E-01
   7163.00  6.0238057E-01
   7163.33  5.9734981E-01
   7163.67  5.9216654E-01
   7164.00  5.8680395E-01
   7164.33  5.8120420E-01
   7164.67  5.7536463E-01
   7165.00  5.6926443E-01
   7165.33  5.6285053E-01
   7165.67  5.5614795E-01
   7166.00  5.4915575E-01
   7166.33  5.4184673E-01
   7166.67  5.3427548E-01
   7167.00  5.2646654E-01
   7167.33  5.1843195E-01
   7167.67  5.1024452E-01
   7168.00  5.0195111E-01
   7168.33  4.9360410E-01
   7168.67  4.8527220E-01
   7169.00  4.7701216E-01
   7169.33  4.6890780E-01
   7169.67  4.6100868E-01
   7170.00  4.5337373E-01
   7170.33  4.4611787E-01
   7170.67  4.3927846E-01
   7171.00  4.3292942E-01
   7171.33  4.2725337E-01
   7171.67  4.2234612E-01
   7172.00  4.1841483E-01
