    FDMNES
    energy     <xanes>
   7097.00  4.6619226E-03
   7097.33  4.7598204E-03
   7097.67  4.8615924E-03
   7098.00  4.9674729E-03
   7098.33  5.0783117E-03
   7098.67  5.1938887E-03
   7099.00  5.3145161E-03
   7099.33  5.4412777E-03
   7099.67  5.5739407E-03
   7100.00  5.7129327E-03
   7100.33  5.8596707E-03
   7100.67  6.0139216E-03
   7101.00  6.1762895E-03
   7101.33  6.3486835E-03
   7101.67  6.5308986E-03
   7102.00  6.7238205E-03
   7102.33  6.9301181E-03
   7102.67  7.1496778E-03
   7103.00  7.3838588E-03
   7103.33  7.6365638E-03
   7103.67  7.9079173E-03
   7104.00  8.2001220E-03
   7104.33  8.5192173E-03
   7104.67  8.8659145E-03
   7105.00  9.2440360E-03
   7105.33  9.6636273E-03
   7105.67  1.0126877E-02
   7106.00  1.0641030E-02
   7106.33  1.1224450E-02
   7106.67  1.1883336E-02
   7107.00  1.2633128E-02
   7107.33  1.3512045E-02
   7107.67  1.4538691E-02
   7108.00  1.5751988E-02
   7108.33  1.7248104E-02
   7108.67  1.9093517E-02
   7109.00  2.1415828E-02
   7109.33  2.4544867E-02
   7109.67  2.8815711E-02
   7110.00  3.4877841E-02
   7110.33  4.4533759E-02
   7110.67  5.9446939E-02
   7111.00  7.9878304E-02
   7111.33  1.0512240E-01
   7111.67  1.3489907E-01
   7112.00  1.7290918E-01
   7112.33  2.3823056E-01
   7112.67  3.0259966E-01
   7113.00  3.1523355E-01
   7113.33  2.5368789E-01
   7113.67  1.8155380E-01
   7114.00  1.3072034E-01
   7114.33  1.0191277E-01
   7114.67  8.3978056E-02
   7115.00  7.2577695E-02
   7115.33  6.5976661E-02
   7115.67  6.2260483E-02
   7116.00  6.0629249E-02
   7116.33  6.0696192E-02
   7116.67  6.1904095E-02
   7117.00  6.3969083E-02
   7117.33  6.6630693E-02
   7117.67  6.9606050E-02
   7118.00  7.2961048E-02
   7118.33  7.7179583E-02
   7118.67  8.2598904E-02
   7119.00  8.9466773E-02
   7119.33  9.8194274E-02
   7119.67  1.0879694E-01
   7120.00  1.2152150E-01
   7120.33  1.3705275E-01
   7120.67  1.5554580E-01
   7121.00  1.7746142E-01
   7121.33  2.0387049E-01
   7121.67  2.3481480E-01
   7122.00  2.7066745E-01
   7122.33  3.1239268E-01
   7122.67  3.5960598E-01
   7123.00  4.1246975E-01
   7123.33  4.7153320E-01
   7123.67  5.3524790E-01
   7124.00  6.0197053E-01
   7124.33  6.6829138E-01
   7124.67  7.2907917E-01
   7125.00  7.7857818E-01
   7125.33  8.0751724E-01
   7125.67  8.1410546E-01
   7126.00  7.9985482E-01
   7126.33  7.7044152E-01
   7126.67  7.3696556E-01
   7127.00  7.0596711E-01
   7127.33  6.8238526E-01
   7127.67  6.6599914E-01
   7128.00  6.5592617E-01
   7128.33  6.5225312E-01
   7128.67  6.5464153E-01
   7129.00  6.6354499E-01
   7129.33  6.7969432E-01
   7129.67  7.0135389E-01
   7130.00  7.2704567E-01
   7130.33  7.5458289E-01
   7130.67  7.8093005E-01
   7131.00  8.0362855E-01
   7131.33  8.1943841E-01
   7131.67  8.2744731E-01
   7132.00  8.2706253E-01
   7132.33  8.1767269E-01
   7132.67  8.0171569E-01
   7133.00  7.8111423E-01
   7133.33  7.5842110E-01
   7133.67  7.3667142E-01
   7134.00  7.1761973E-01
   7134.33  7.0231412E-01
   7134.67  6.8969485E-01
   7135.00  6.7887413E-01
   7135.33  6.6913125E-01
   7135.67  6.5983899E-01
   7136.00  6.5076476E-01
   7136.33  6.4178243E-01
   7136.67  6.3282674E-01
   7137.00  6.2389049E-01
   7137.33  6.1499473E-01
   7137.67  6.0615578E-01
   7138.00  5.9739687E-01
   7138.33  5.8877776E-01
   7138.67  5.8034307E-01
   7139.00  5.7215174E-01
   7139.33  5.6431358E-01
   7139.67  5.5685729E-01
   7140.00  5.4983626E-01
   7140.33  5.4336383E-01
   7140.67  5.3741730E-01
   7141.00  5.3201880E-01
   7141.33  5.2727047E-01
   7141.67  5.2312555E-01
   7142.00  5.1957148E-01
   7142.33  5.1663460E-01
   7142.67  5.1418711E-01
   7143.00  5.1216469E-01
   7143.33  5.1051810E-01
   7143.67  5.0909941E-01
   7144.00  5.0780738E-01
   7144.33  5.0651715E-01
   7144.67  5.0510316E-01
   7145.00  5.0346290E-01
   7145.33  5.0144669E-01
   7145.67  4.9900683E-01
   7146.00  4.9608526E-01
   7146.33  4.9257355E-01
   7146.67  4.8852269E-01
   7147.00  4.8394260E-01
   7147.33  4.7880607E-01
   7147.67  4.7323012E-01
   7148.00  4.6727456E-01
   7148.33  4.6097971E-01
   7148.67  4.5446521E-01
   7149.00  4.4780122E-01
   7149.33  4.4105651E-01
   7149.67  4.3431139E-01
   7150.00  4.2762105E-01
   7150.33  4.2105515E-01
   7150.67  4.1464615E-01
   7151.00  4.0842687E-01
   7151.33  4.0245496E-01
   7151.67  3.9672512E-01
   7152.00  3.9125043E-01
   7152.33  3.8607225E-01
   7152.67  3.8115995E-01
   7153.00  3.7651103E-01
   7153.33  3.7214959E-01
   7153.67  3.6803672E-01
   7154.00  3.6416992E-01
   7154.33  3.6056837E-01
   7154.67  3.5718754E-01
   7155.00  3.5401595E-01
   7155.33  3.5106512E-01
   7155.67  3.4829216E-01
   7156.00  3.4567758E-01
   7156.33  3.4322424E-01
   7156.67  3.4090627E-01
   7157.00  3.3871901E-01
   7157.33  3.3667487E-01
   7157.67  3.3475786E-01
   7158.00  3.3297142E-01
   7158.33  3.3134203E-01
   7158.67  3.2986735E-01
   7159.00  3.2856626E-01
   7159.33  3.2749442E-01
   7159.67  3.2666560E-01
   7160.00  3.2612090E-01
   7160.33  3.2595963E-01
   7160.67  3.2620352E-01
   7161.00  3.2691092E-01
   7161.33  3.2821513E-01
   7161.67  3.3010986E-01
   7162.00  3.3263550E-01
   7162.33  3.3590165E-01
   7162.67  3.3982515E-01
   7163.00  3.4437922E-01
   7163.33  3.4957325E-01
   7163.67  3.5524915E-01
   7164.00  3.6131813E-01
   7164.33  3.6769666E-01
   7164.67  3.7421545E-01
   7165.00  3.8076350E-01
   7165.33  3.8721185E-01
   7165.67  3.9346412E-01
   7166.00  3.9945532E-01
   7166.33  4.0509748E-01
   7166.67  4.1040176E-01
   7167.00  4.1536129E-01
   7167.33  4.1994509E-01
   7167.67  4.2422190E-01
   7168.00  4.2822404E-01
   7168.33  4.3196552E-01
   7168.67  4.3551952E-01
   7169.00  4.3892384E-01
   7169.33  4.4220510E-01
   7169.67  4.4540938E-01
   7170.00  4.4855583E-01
   7170.33  4.5164893E-01
   7170.67  4.5468882E-01
   7171.00  4.5765219E-01
   7171.33  4.6045965E-01
   7171.67  4.6300168E-01
   7172.00  4.6510641E-01
