    FDMNES
    energy     <xanes>
   7097.00  4.9352286E-03
   7097.33  5.0548700E-03
   7097.67  5.1801102E-03
   7098.00  5.3113432E-03
   7098.33  5.4498906E-03
   7098.67  5.5955093E-03
   7099.00  5.7487428E-03
   7099.33  5.9113398E-03
   7099.67  6.0830606E-03
   7100.00  6.2646766E-03
   7100.33  6.4585673E-03
   7100.67  6.6645304E-03
   7101.00  6.8836971E-03
   7101.33  7.1194151E-03
   7101.67  7.3715932E-03
   7102.00  7.6419577E-03
   7102.33  7.9354085E-03
   7102.67  8.2521307E-03
   7103.00  8.5948848E-03
   7103.33  8.9711995E-03
   7103.67  9.3819133E-03
   7104.00  9.8317026E-03
   7104.33  1.0332855E-02
   7104.67  1.0887775E-02
   7105.00  1.1504982E-02
   7105.33  1.2206133E-02
   7105.67  1.2997608E-02
   7106.00  1.3896459E-02
   7106.33  1.4944937E-02
   7106.67  1.6160552E-02
   7107.00  1.7582093E-02
   7107.33  1.9304457E-02
   7107.67  2.1381527E-02
   7108.00  2.3919390E-02
   7108.33  2.7180678E-02
   7108.67  3.1371055E-02
   7109.00  3.6877255E-02
   7109.33  4.4717173E-02
   7109.67  5.6035054E-02
   7110.00  7.3068530E-02
   7110.33  1.0225730E-01
   7110.67  1.5059319E-01
   7111.00  2.1998916E-01
   7111.33  2.8705444E-01
   7111.67  3.3719185E-01
   7112.00  3.8767874E-01
   7112.33  4.4021741E-01
   7112.67  4.6424904E-01
   7113.00  4.2332001E-01
   7113.33  3.2770556E-01
   7113.67  2.4254120E-01
   7114.00  1.8460141E-01
   7114.33  1.5533971E-01
   7114.67  1.4708487E-01
   7115.00  1.5619497E-01
   7115.33  1.6908951E-01
   7115.67  1.6210295E-01
   7116.00  1.3717162E-01
   7116.33  1.1354397E-01
   7116.67  9.7861906E-02
   7117.00  8.9140963E-02
   7117.33  8.5794084E-02
   7117.67  8.5287035E-02
   7118.00  8.6185961E-02
   7118.33  8.7547687E-02
   7118.67  8.9497452E-02
   7119.00  9.2460576E-02
   7119.33  9.6269747E-02
   7119.67  1.0011410E-01
   7120.00  1.0387106E-01
   7120.33  1.0814728E-01
   7120.67  1.1383775E-01
   7121.00  1.2195205E-01
   7121.33  1.3379829E-01
   7121.67  1.4938140E-01
   7122.00  1.6868889E-01
   7122.33  1.9171128E-01
   7122.67  2.1740551E-01
   7123.00  2.4504527E-01
   7123.33  2.7427462E-01
   7123.67  3.0517000E-01
   7124.00  3.3697040E-01
   7124.33  3.6589837E-01
   7124.67  3.8772588E-01
   7125.00  4.0024383E-01
   7125.33  4.0435465E-01
   7125.67  4.0624245E-01
   7126.00  4.1064900E-01
   7126.33  4.2231327E-01
   7126.67  4.4165246E-01
   7127.00  4.6731741E-01
   7127.33  4.9637429E-01
   7127.67  5.2615008E-01
   7128.00  5.5717584E-01
   7128.33  5.9090745E-01
   7128.67  6.2502117E-01
   7129.00  6.5631395E-01
   7129.33  6.8380386E-01
   7129.67  7.1084401E-01
   7130.00  7.3909562E-01
   7130.33  7.6666862E-01
   7130.67  7.8897366E-01
   7131.00  8.0229600E-01
   7131.33  8.0380521E-01
   7131.67  7.9643711E-01
   7132.00  7.8288090E-01
   7132.33  7.6602189E-01
   7132.67  7.4922591E-01
   7133.00  7.3491698E-01
   7133.33  7.2594711E-01
   7133.67  7.2257161E-01
   7134.00  7.2419620E-01
   7134.33  7.2955602E-01
   7134.67  7.3631592E-01
   7135.00  7.4308400E-01
   7135.33  7.4835078E-01
   7135.67  7.5116339E-01
   7136.00  7.5100899E-01
   7136.33  7.4783939E-01
   7136.67  7.4300027E-01
   7137.00  7.3737251E-01
   7137.33  7.3141480E-01
   7137.67  7.2511581E-01
   7138.00  7.1831596E-01
   7138.33  7.1096205E-01
   7138.67  7.0338490E-01
   7139.00  6.9586885E-01
   7139.33  6.8851708E-01
   7139.67  6.8087574E-01
   7140.00  6.7211757E-01
   7140.33  6.6075556E-01
   7140.67  6.4629815E-01
   7141.00  6.2896376E-01
   7141.33  6.1007819E-01
   7141.67  5.9212297E-01
   7142.00  5.7699491E-01
   7142.33  5.6662340E-01
   7142.67  5.6076075E-01
   7143.00  5.5882596E-01
   7143.33  5.5973155E-01
   7143.67  5.6128078E-01
   7144.00  5.6178004E-01
   7144.33  5.5926679E-01
   7144.67  5.5323450E-01
   7145.00  5.4375553E-01
   7145.33  5.3143577E-01
   7145.67  5.1809248E-01
   7146.00  5.0507814E-01
   7146.33  4.9386338E-01
   7146.67  4.8505905E-01
   7147.00  4.7896933E-01
   7147.33  4.7589708E-01
   7147.67  4.7522410E-01
   7148.00  4.7660714E-01
   7148.33  4.7979252E-01
   7148.67  4.8410801E-01
   7149.00  4.8916514E-01
   7149.33  4.9460667E-01
   7149.67  5.0006463E-01
   7150.00  5.0532372E-01
   7150.33  5.1015289E-01
   7150.67  5.1447315E-01
   7151.00  5.1820590E-01
   7151.33  5.2119939E-01
   7151.67  5.2348554E-01
   7152.00  5.2504166E-01
   7152.33  5.2578818E-01
   7152.67  5.2587674E-01
   7153.00  5.2540362E-01
   7153.33  5.2446968E-01
   7153.67  5.2329568E-01
   7154.00  5.2201643E-01
   7154.33  5.2075256E-01
   7154.67  5.1956368E-01
   7155.00  5.1845306E-01
   7155.33  5.1737871E-01
   7155.67  5.1625274E-01
   7156.00  5.1498713E-01
   7156.33  5.1344436E-01
   7156.67  5.1155438E-01
   7157.00  5.0924045E-01
   7157.33  5.0636472E-01
   7157.67  5.0293135E-01
   7158.00  4.9890609E-01
   7158.33  4.9419472E-01
   7158.67  4.8888483E-01
   7159.00  4.8301384E-01
   7159.33  4.7659957E-01
   7159.67  4.6981478E-01
   7160.00  4.6277561E-01
   7160.33  4.5561562E-01
   7160.67  4.4849457E-01
   7161.00  4.4152563E-01
   7161.33  4.3484900E-01
   7161.67  4.2850808E-01
   7162.00  4.2253925E-01
   7162.33  4.1700068E-01
   7162.67  4.1182951E-01
   7163.00  4.0699928E-01
   7163.33  4.0250567E-01
   7163.67  3.9826307E-01
   7164.00  3.9422956E-01
   7164.33  3.9038062E-01
   7164.67  3.8666042E-01
   7165.00  3.8305127E-01
   7165.33  3.7956327E-01
   7165.67  3.7619768E-01
   7166.00  3.7297981E-01
   7166.33  3.6997226E-01
   7166.67  3.6719379E-01
   7167.00  3.6467693E-01
   7167.33  3.6248780E-01
   7167.67  3.6060971E-01
   7168.00  3.5905177E-01
   7168.33  3.5785692E-01
   7168.67  3.5698150E-01
   7169.00  3.5642002E-01
   7169.33  3.5620193E-01
   7169.67  3.5627727E-01
   7170.00  3.5663216E-01
   7170.33  3.5727625E-01
   7170.67  3.5814495E-01
   7171.00  3.5919781E-01
   7171.33  3.6037498E-01
   7171.67  3.6153764E-01
   7172.00  3.6252667E-01
