    FDMNES
    energy     <xanes>
   7097.00  4.9221934E-03
   7097.33  5.0391053E-03
   7097.67  5.1612758E-03
   7098.00  5.2890570E-03
   7098.33  5.4236597E-03
   7098.67  5.5648300E-03
   7099.00  5.7130461E-03
   7099.33  5.8698862E-03
   7099.67  6.0350883E-03
   7100.00  6.2093189E-03
   7100.33  6.3946878E-03
   7100.67  6.5909474E-03
   7101.00  6.7990551E-03
   7101.33  7.0219176E-03
   7101.67  7.2593515E-03
   7102.00  7.5127829E-03
   7102.33  7.7863628E-03
   7102.67  8.0800837E-03
   7103.00  8.3961638E-03
   7103.33  8.7407992E-03
   7103.67  9.1144108E-03
   7104.00  9.5206390E-03
   7104.33  9.9692574E-03
   7104.67  1.0461720E-02
   7105.00  1.1004419E-02
   7105.33  1.1613911E-02
   7105.67  1.2294240E-02
   7106.00  1.3057687E-02
   7106.33  1.3935094E-02
   7106.67  1.4937630E-02
   7107.00  1.6091964E-02
   7107.33  1.7463863E-02
   7107.67  1.9087211E-02
   7108.00  2.1031452E-02
   7108.33  2.3468746E-02
   7108.67  2.6525524E-02
   7109.00  3.0443374E-02
   7109.33  3.5856142E-02
   7109.67  4.3453188E-02
   7110.00  5.4586195E-02
   7110.33  7.3107180E-02
   7110.67  1.0287823E-01
   7111.00  1.4404906E-01
   7111.33  1.8494933E-01
   7111.67  2.2219954E-01
   7112.00  2.5472659E-01
   7112.33  2.7533704E-01
   7112.67  2.8914657E-01
   7113.00  3.0425917E-01
   7113.33  3.4479470E-01
   7113.67  4.0707320E-01
   7114.00  4.5684262E-01
   7114.33  4.4390968E-01
   7114.67  3.8496784E-01
   7115.00  3.1642005E-01
   7115.33  2.6324568E-01
   7115.67  2.2647248E-01
   7116.00  2.0354757E-01
   7116.33  1.9216381E-01
   7116.67  1.8717442E-01
   7117.00  1.8467183E-01
   7117.33  1.8086554E-01
   7117.67  1.7599404E-01
   7118.00  1.7201378E-01
   7118.33  1.6978017E-01
   7118.67  1.6724131E-01
   7119.00  1.6263343E-01
   7119.33  1.5569471E-01
   7119.67  1.4828639E-01
   7120.00  1.4163059E-01
   7120.33  1.3652974E-01
   7120.67  1.3292263E-01
   7121.00  1.3080466E-01
   7121.33  1.3034775E-01
   7121.67  1.3130927E-01
   7122.00  1.3358861E-01
   7122.33  1.3708395E-01
   7122.67  1.4134667E-01
   7123.00  1.4634947E-01
   7123.33  1.5268405E-01
   7123.67  1.6079026E-01
   7124.00  1.7106879E-01
   7124.33  1.8421888E-01
   7124.67  2.0025032E-01
   7125.00  2.1934066E-01
   7125.33  2.4169192E-01
   7125.67  2.6598458E-01
   7126.00  2.9062050E-01
   7126.33  3.1355852E-01
   7126.67  3.3493841E-01
   7127.00  3.5635183E-01
   7127.33  3.7969164E-01
   7127.67  4.0445105E-01
   7128.00  4.2922906E-01
   7128.33  4.5241075E-01
   7128.67  4.7362335E-01
   7129.00  4.9293546E-01
   7129.33  5.1034270E-01
   7129.67  5.2620645E-01
   7130.00  5.4067367E-01
   7130.33  5.5385701E-01
   7130.67  5.6613014E-01
   7131.00  5.7754893E-01
   7131.33  5.8795916E-01
   7131.67  5.9766190E-01
   7132.00  6.0730778E-01
   7132.33  6.1844578E-01
   7132.67  6.3259797E-01
   7133.00  6.5104702E-01
   7133.33  6.7538396E-01
   7133.67  7.0513931E-01
   7134.00  7.3992606E-01
   7134.33  7.7949823E-01
   7134.67  8.2266145E-01
   7135.00  8.6926880E-01
   7135.33  9.2031789E-01
   7135.67  9.7647443E-01
   7136.00  1.0390610E+00
   7136.33  1.1105776E+00
   7136.67  1.1906087E+00
   7137.00  1.2775225E+00
   7137.33  1.3642559E+00
   7137.67  1.4362519E+00
   7138.00  1.4770615E+00
   7138.33  1.4669028E+00
   7138.67  1.4126819E+00
   7139.00  1.3273138E+00
   7139.33  1.2280705E+00
   7139.67  1.1306291E+00
   7140.00  1.0414393E+00
   7140.33  9.6452467E-01
   7140.67  8.9840479E-01
   7141.00  8.4206187E-01
   7141.33  7.9505073E-01
   7141.67  7.5489034E-01
   7142.00  7.2048338E-01
   7142.33  6.9131605E-01
   7142.67  6.6589351E-01
   7143.00  6.4357629E-01
   7143.33  6.2408847E-01
   7143.67  6.0659990E-01
   7144.00  5.9071142E-01
   7144.33  5.7619899E-01
   7144.67  5.6261426E-01
   7145.00  5.4973636E-01
   7145.33  5.3741454E-01
   7145.67  5.2543116E-01
   7146.00  5.1370280E-01
   7146.33  5.0222142E-01
   7146.67  4.9095436E-01
   7147.00  4.7991118E-01
   7147.33  4.6915391E-01
   7147.67  4.5869245E-01
   7148.00  4.4856614E-01
   7148.33  4.3886793E-01
   7148.67  4.2959272E-01
   7149.00  4.2077356E-01
   7149.33  4.1250492E-01
   7149.67  4.0475376E-01
   7150.00  3.9754046E-01
   7150.33  3.9095297E-01
   7150.67  3.8493410E-01
   7151.00  3.7948904E-01
   7151.33  3.7468721E-01
   7151.67  3.7044459E-01
   7152.00  3.6674049E-01
   7152.33  3.6359944E-01
   7152.67  3.6090500E-01
   7153.00  3.5859867E-01
   7153.33  3.5663822E-01
   7153.67  3.5489480E-01
   7154.00  3.5328649E-01
   7154.33  3.5172421E-01
   7154.67  3.5011799E-01
   7155.00  3.4840910E-01
   7155.33  3.4653378E-01
   7155.67  3.4449303E-01
   7156.00  3.4229277E-01
   7156.33  3.3994206E-01
   7156.67  3.3749597E-01
   7157.00  3.3499094E-01
   7157.33  3.3246521E-01
   7157.67  3.2995495E-01
   7158.00  3.2748187E-01
   7158.33  3.2506873E-01
   7158.67  3.2271569E-01
   7159.00  3.2042201E-01
   7159.33  3.1818802E-01
   7159.67  3.1599774E-01
   7160.00  3.1384276E-01
   7160.33  3.1171830E-01
   7160.67  3.0961729E-01
   7161.00  3.0754395E-01
   7161.33  3.0551645E-01
   7161.67  3.0354830E-01
   7162.00  3.0166149E-01
   7162.33  2.9990347E-01
   7162.67  2.9829918E-01
   7163.00  2.9688496E-01
   7163.33  2.9573681E-01
   7163.67  2.9487422E-01
   7164.00  2.9433257E-01
   7164.33  2.9418456E-01
   7164.67  2.9440396E-01
   7165.00  2.9499756E-01
   7165.33  2.9601029E-01
   7165.67  2.9738452E-01
   7166.00  2.9910456E-01
   7166.33  3.0118692E-01
   7166.67  3.0356364E-01
   7167.00  3.0620906E-01
   7167.33  3.0912231E-01
   7167.67  3.1224294E-01
   7168.00  3.1554492E-01
   7168.33  3.1901763E-01
   7168.67  3.2261296E-01
   7169.00  3.2630561E-01
   7169.33  3.3007313E-01
   7169.67  3.3387394E-01
   7170.00  3.3767712E-01
   7170.33  3.4143785E-01
   7170.67  3.4511295E-01
   7171.00  3.4864966E-01
   7171.33  3.5193084E-01
   7171.67  3.5483932E-01
   7172.00  3.5719495E-01
