    FDMNES
    energy     <xanes>
   7097.00  4.3031328E-03
   7097.33  4.3885057E-03
   7097.67  4.4771423E-03
   7098.00  4.5692403E-03
   7098.33  4.6655177E-03
   7098.67  4.7657920E-03
   7099.00  4.8703299E-03
   7099.33  4.9800531E-03
   7099.67  5.0947734E-03
   7100.00  5.2148620E-03
   7100.33  5.3415372E-03
   7100.67  5.4746199E-03
   7101.00  5.6146463E-03
   7101.33  5.7632848E-03
   7101.67  5.9204001E-03
   7102.00  6.0868010E-03
   7102.33  6.2648761E-03
   7102.67  6.4546119E-03
   7103.00  6.6572958E-03
   7103.33  6.8765405E-03
   7103.67  7.1126390E-03
   7104.00  7.3677803E-03
   7104.33  7.6478211E-03
   7104.67  7.9538228E-03
   7105.00  8.2898281E-03
   7105.33  8.6662173E-03
   7105.67  9.0860805E-03
   7106.00  9.5577258E-03
   7106.33  1.0101842E-02
   7106.67  1.0727455E-02
   7107.00  1.1454272E-02
   7107.33  1.2330708E-02
   7107.67  1.3386260E-02
   7108.00  1.4678194E-02
   7108.33  1.6349513E-02
   7108.67  1.8520974E-02
   7109.00  2.1419120E-02
   7109.33  2.5650638E-02
   7109.67  3.1944901E-02
   7110.00  4.1742702E-02
   7110.33  5.9274191E-02
   7110.67  8.9322204E-02
   7111.00  1.3263253E-01
   7111.33  1.6447276E-01
   7111.67  1.6366196E-01
   7112.00  1.4774447E-01
   7112.33  1.3664947E-01
   7112.67  1.2416715E-01
   7113.00  1.0836046E-01
   7113.33  8.7554538E-02
   7113.67  6.9894519E-02
   7114.00  5.9229646E-02
   7114.33  5.4738353E-02
   7114.67  5.2286031E-02
   7115.00  4.8474607E-02
   7115.33  4.4104696E-02
   7115.67  4.1951389E-02
   7116.00  4.2056615E-02
   7116.33  4.4042931E-02
   7116.67  4.6931688E-02
   7117.00  4.9657916E-02
   7117.33  5.0753744E-02
   7117.67  5.0417375E-02
   7118.00  4.9750922E-02
   7118.33  5.0011932E-02
   7118.67  5.1564010E-02
   7119.00  5.4492713E-02
   7119.33  5.8983268E-02
   7119.67  6.4841794E-02
   7120.00  7.2013819E-02
   7120.33  8.0589785E-02
   7120.67  9.0630454E-02
   7121.00  1.0281619E-01
   7121.33  1.1862635E-01
   7121.67  1.3868582E-01
   7122.00  1.6384975E-01
   7122.33  1.9585282E-01
   7122.67  2.3481511E-01
   7123.00  2.8148464E-01
   7123.33  3.3793419E-01
   7123.67  4.0343184E-01
   7124.00  4.7581239E-01
   7124.33  5.4682729E-01
   7124.67  6.0781591E-01
   7125.00  6.5789340E-01
   7125.33  6.9758971E-01
   7125.67  7.2697611E-01
   7126.00  7.4440998E-01
   7126.33  7.4720372E-01
   7126.67  7.3815227E-01
   7127.00  7.2147733E-01
   7127.33  7.0411100E-01
   7127.67  6.9129692E-01
   7128.00  6.8441483E-01
   7128.33  6.8319912E-01
   7128.67  6.8550326E-01
   7129.00  6.9049089E-01
   7129.33  6.9804886E-01
   7129.67  7.0774145E-01
   7130.00  7.1929574E-01
   7130.33  7.3170903E-01
   7130.67  7.4286326E-01
   7131.00  7.5138549E-01
   7131.33  7.5740981E-01
   7131.67  7.6330850E-01
   7132.00  7.7047530E-01
   7132.33  7.7834467E-01
   7132.67  7.8385307E-01
   7133.00  7.8419615E-01
   7133.33  7.7751345E-01
   7133.67  7.6626080E-01
   7134.00  7.5285255E-01
   7134.33  7.4010888E-01
   7134.67  7.3009347E-01
   7135.00  7.2353883E-01
   7135.33  7.1991830E-01
   7135.67  7.1704516E-01
   7136.00  7.1344809E-01
   7136.33  7.0791123E-01
   7136.67  7.0043999E-01
   7137.00  6.9129057E-01
   7137.33  6.8082823E-01
   7137.67  6.6970723E-01
   7138.00  6.5826597E-01
   7138.33  6.4676514E-01
   7138.67  6.3536849E-01
   7139.00  6.2414815E-01
   7139.33  6.1317037E-01
   7139.67  6.0242427E-01
   7140.00  5.9191998E-01
   7140.33  5.8171978E-01
   7140.67  5.7186382E-01
   7141.00  5.6242399E-01
   7141.33  5.5352811E-01
   7141.67  5.4518581E-01
   7142.00  5.3745998E-01
   7142.33  5.3050278E-01
   7142.67  5.2427880E-01
   7143.00  5.1880935E-01
   7143.33  5.1417530E-01
   7143.67  5.1022342E-01
   7144.00  5.0686659E-01
   7144.33  5.0403124E-01
   7144.67  5.0149544E-01
   7145.00  4.9909589E-01
   7145.33  4.9662319E-01
   7145.67  4.9389611E-01
   7146.00  4.9078006E-01
   7146.33  4.8710348E-01
   7146.67  4.8287824E-01
   7147.00  4.7810764E-01
   7147.33  4.7278018E-01
   7147.67  4.6704677E-01
   7148.00  4.6100497E-01
   7148.33  4.5475764E-01
   7148.67  4.4845836E-01
   7149.00  4.4222125E-01
   7149.33  4.3619941E-01
   7149.67  4.3048837E-01
   7150.00  4.2517821E-01
   7150.33  4.2041282E-01
   7150.67  4.1618579E-01
   7151.00  4.1251679E-01
   7151.33  4.0946476E-01
   7151.67  4.0692149E-01
   7152.00  4.0483458E-01
   7152.33  4.0317679E-01
   7152.67  4.0182319E-01
   7153.00  4.0070550E-01
   7153.33  3.9975767E-01
   7153.67  3.9887551E-01
   7154.00  3.9798750E-01
   7154.33  3.9700108E-01
   7154.67  3.9585043E-01
   7155.00  3.9447568E-01
   7155.33  3.9278144E-01
   7155.67  3.9076327E-01
   7156.00  3.8840358E-01
   7156.33  3.8565565E-01
   7156.67  3.8257539E-01
   7157.00  3.7918513E-01
   7157.33  3.7549138E-01
   7157.67  3.7158402E-01
   7158.00  3.6752292E-01
   7158.33  3.6338005E-01
   7158.67  3.5925581E-01
   7159.00  3.5523389E-01
   7159.33  3.5143808E-01
   7159.67  3.4793630E-01
   7160.00  3.4479807E-01
   7160.33  3.4213941E-01
   7160.67  3.3994540E-01
   7161.00  3.3822974E-01
   7161.33  3.3705300E-01
   7161.67  3.3635248E-01
   7162.00  3.3613450E-01
   7162.33  3.3649094E-01
   7162.67  3.3740913E-01
   7163.00  3.3894320E-01
   7163.33  3.4123365E-01
   7163.67  3.4421426E-01
   7164.00  3.4784568E-01
   7164.33  3.5211345E-01
   7164.67  3.5684173E-01
   7165.00  3.6192185E-01
   7165.33  3.6724364E-01
   7165.67  3.7264848E-01
   7166.00  3.7803826E-01
   7166.33  3.8331220E-01
   7166.67  3.8842763E-01
   7167.00  3.9336256E-01
   7167.33  3.9809708E-01
   7167.67  4.0268193E-01
   7168.00  4.0715797E-01
   7168.33  4.1157958E-01
   7168.67  4.1601942E-01
   7169.00  4.2053418E-01
   7169.33  4.2520072E-01
   7169.67  4.3004859E-01
   7170.00  4.3510067E-01
   7170.33  4.4038400E-01
   7170.67  4.4584009E-01
   7171.00  4.5139257E-01
   7171.33  4.5684908E-01
   7171.67  4.6188697E-01
   7172.00  4.6608149E-01
