    FDMNES
    energy     <xanes>
   7097.00  4.5712204E-03
   7097.33  4.6642462E-03
   7097.67  4.7607812E-03
   7098.00  4.8610244E-03
   7098.33  4.9657237E-03
   7098.67  5.0746619E-03
   7099.00  5.1880997E-03
   7099.33  5.3069752E-03
   7099.67  5.4310544E-03
   7100.00  5.5606878E-03
   7100.33  5.6970794E-03
   7100.67  5.8399861E-03
   7101.00  5.9898934E-03
   7101.33  6.1483911E-03
   7101.67  6.3152459E-03
   7102.00  6.4911568E-03
   7102.33  6.6782993E-03
   7102.67  6.8764960E-03
   7103.00  7.0868019E-03
   7103.33  7.3123343E-03
   7103.67  7.5530822E-03
   7104.00  7.8107376E-03
   7104.33  8.0900477E-03
   7104.67  8.3914448E-03
   7105.00  8.7178675E-03
   7105.33  9.0771658E-03
   7105.67  9.4709697E-03
   7106.00  9.9049612E-03
   7106.33  1.0393703E-02
   7106.67  1.0942355E-02
   7107.00  1.1563678E-02
   7107.33  1.2289573E-02
   7107.67  1.3137440E-02
   7108.00  1.4142951E-02
   7108.33  1.5395991E-02
   7108.67  1.6969516E-02
   7109.00  1.9003455E-02
   7109.33  2.1876285E-02
   7109.67  2.6047345E-02
   7110.00  3.2431843E-02
   7110.33  4.3646982E-02
   7110.67  6.1664260E-02
   7111.00  8.2714210E-02
   7111.33  9.1714559E-02
   7111.67  9.3064041E-02
   7112.00  9.6524501E-02
   7112.33  1.0472562E-01
   7112.67  1.0844298E-01
   7113.00  1.0043195E-01
   7113.33  8.5992182E-02
   7113.67  7.4520997E-02
   7114.00  6.8336024E-02
   7114.33  6.7791193E-02
   7114.67  7.1691839E-02
   7115.00  8.0075401E-02
   7115.33  9.4313977E-02
   7115.67  1.1492378E-01
   7116.00  1.4251090E-01
   7116.33  1.7568422E-01
   7116.67  2.0719925E-01
   7117.00  2.3109270E-01
   7117.33  2.4528559E-01
   7117.67  2.5442503E-01
   7118.00  2.6192332E-01
   7118.33  2.7108494E-01
   7118.67  2.8316349E-01
   7119.00  2.9747413E-01
   7119.33  3.1170612E-01
   7119.67  3.2407129E-01
   7120.00  3.3404054E-01
   7120.33  3.4152839E-01
   7120.67  3.4831572E-01
   7121.00  3.5594137E-01
   7121.33  3.6530458E-01
   7121.67  3.7644349E-01
   7122.00  3.8968094E-01
   7122.33  4.0553641E-01
   7122.67  4.2374731E-01
   7123.00  4.4397936E-01
   7123.33  4.6501719E-01
   7123.67  4.8475494E-01
   7124.00  5.0169354E-01
   7124.33  5.1450760E-01
   7124.67  5.2345009E-01
   7125.00  5.2862554E-01
   7125.33  5.3017162E-01
   7125.67  5.2939480E-01
   7126.00  5.2724478E-01
   7126.33  5.2487154E-01
   7126.67  5.2295206E-01
   7127.00  5.2112358E-01
   7127.33  5.1866200E-01
   7127.67  5.1669599E-01
   7128.00  5.1738604E-01
   7128.33  5.2305951E-01
   7128.67  5.3347622E-01
   7129.00  5.4835363E-01
   7129.33  5.6759456E-01
   7129.67  5.8898978E-01
   7130.00  6.0907960E-01
   7130.33  6.2211442E-01
   7130.67  6.2685579E-01
   7131.00  6.2494253E-01
   7131.33  6.1931309E-01
   7131.67  6.1283710E-01
   7132.00  6.0648699E-01
   7132.33  6.0074602E-01
   7132.67  5.9568913E-01
   7133.00  5.9130677E-01
   7133.33  5.8742701E-01
   7133.67  5.8350240E-01
   7134.00  5.7902975E-01
   7134.33  5.7371130E-01
   7134.67  5.6802469E-01
   7135.00  5.6244555E-01
   7135.33  5.5740094E-01
   7135.67  5.5293924E-01
   7136.00  5.4899571E-01
   7136.33  5.4544711E-01
   7136.67  5.4209251E-01
   7137.00  5.3887667E-01
   7137.33  5.3586674E-01
   7137.67  5.3313855E-01
   7138.00  5.3075556E-01
   7138.33  5.2878280E-01
   7138.67  5.2717350E-01
   7139.00  5.2595785E-01
   7139.33  5.2529242E-01
   7139.67  5.2524669E-01
   7140.00  5.2591910E-01
   7140.33  5.2747348E-01
   7140.67  5.2982555E-01
   7141.00  5.3296008E-01
   7141.33  5.3693719E-01
   7141.67  5.4161402E-01
   7142.00  5.4691908E-01
   7142.33  5.5275519E-01
   7142.67  5.5880831E-01
   7143.00  5.6479704E-01
   7143.33  5.7032912E-01
   7143.67  5.7517517E-01
   7144.00  5.7918643E-01
   7144.33  5.8218423E-01
   7144.67  5.8428194E-01
   7145.00  5.8548196E-01
   7145.33  5.8562801E-01
   7145.67  5.8474555E-01
   7146.00  5.8273410E-01
   7146.33  5.7934151E-01
   7146.67  5.7469086E-01
   7147.00  5.6882858E-01
   7147.33  5.6175393E-01
   7147.67  5.5380860E-01
   7148.00  5.4521009E-01
   7148.33  5.3617944E-01
   7148.67  5.2702569E-01
   7149.00  5.1795329E-01
   7149.33  5.0919182E-01
   7149.67  5.0083227E-01
   7150.00  4.9293872E-01
   7150.33  4.8563214E-01
   7150.67  4.7889049E-01
   7151.00  4.7273922E-01
   7151.33  4.6726944E-01
   7151.67  4.6240606E-01
   7152.00  4.5813766E-01
   7152.33  4.5450842E-01
   7152.67  4.5140990E-01
   7153.00  4.4880760E-01
   7153.33  4.4672241E-01
   7153.67  4.4506094E-01
   7154.00  4.4379341E-01
   7154.33  4.4293437E-01
   7154.67  4.4241127E-01
   7155.00  4.4220228E-01
   7155.33  4.4231799E-01
   7155.67  4.4269594E-01
   7156.00  4.4331174E-01
   7156.33  4.4416047E-01
   7156.67  4.4518465E-01
   7157.00  4.4635756E-01
   7157.33  4.4766400E-01
   7157.67  4.4906196E-01
   7158.00  4.5053061E-01
   7158.33  4.5205236E-01
   7158.67  4.5360111E-01
   7159.00  4.5516585E-01
   7159.33  4.5674430E-01
   7159.67  4.5834007E-01
   7160.00  4.5996273E-01
   7160.33  4.6162876E-01
   7160.67  4.6333544E-01
   7161.00  4.6507477E-01
   7161.33  4.6683691E-01
   7161.67  4.6859757E-01
   7162.00  4.7032796E-01
   7162.33  4.7198038E-01
   7162.67  4.7352762E-01
   7163.00  4.7494749E-01
   7163.33  4.7621019E-01
   7163.67  4.7733412E-01
   7164.00  4.7832692E-01
   7164.33  4.7918535E-01
   7164.67  4.7993402E-01
   7165.00  4.8057738E-01
   7165.33  4.8110315E-01
   7165.67  4.8152192E-01
   7166.00  4.8183080E-01
   7166.33  4.8201489E-01
   7166.67  4.8209152E-01
   7167.00  4.8206780E-01
   7167.33  4.8194611E-01
   7167.67  4.8175380E-01
   7168.00  4.8150480E-01
   7168.33  4.8120714E-01
   7168.67  4.8087473E-01
   7169.00  4.8050950E-01
   7169.33  4.8010141E-01
   7169.67  4.7964267E-01
   7170.00  4.7911908E-01
   7170.33  4.7850425E-01
   7170.67  4.7779822E-01
   7171.00  4.7700337E-01
   7171.33  4.7613934E-01
   7171.67  4.7528555E-01
   7172.00  4.7454636E-01
