    FDMNES
    energy     <xanes>
   7097.00  4.9688158E-03
   7097.33  5.0944389E-03
   7097.67  5.2263700E-03
   7098.00  5.3650821E-03
   7098.33  5.5121136E-03
   7098.67  5.6672306E-03
   7099.00  5.8310952E-03
   7099.33  6.0057763E-03
   7099.67  6.1910568E-03
   7100.00  6.3878901E-03
   7100.33  6.5991397E-03
   7100.67  6.8246537E-03
   7101.00  7.0658514E-03
   7101.33  7.3268328E-03
   7101.67  7.6076150E-03
   7102.00  7.9103964E-03
   7102.33  8.2412888E-03
   7102.67  8.6007077E-03
   7103.00  8.9922224E-03
   7103.33  9.4254001E-03
   7103.67  9.9015788E-03
   7104.00  1.0426898E-02
   7104.33  1.1017267E-02
   7104.67  1.1676219E-02
   7105.00  1.2415107E-02
   7105.33  1.3262499E-02
   7105.67  1.4227484E-02
   7106.00  1.5333120E-02
   7106.33  1.6636153E-02
   7106.67  1.8161237E-02
   7107.00  1.9961521E-02
   7107.33  2.2166518E-02
   7107.67  2.4851737E-02
   7108.00  2.8163909E-02
   7108.33  3.2465334E-02
   7108.67  3.8042063E-02
   7109.00  4.5428182E-02
   7109.33  5.6022135E-02
   7109.67  7.1378597E-02
   7110.00  9.4518962E-02
   7110.33  1.3419586E-01
   7110.67  2.0129247E-01
   7111.00  3.0619633E-01
   7111.33  4.3560723E-01
   7111.67  5.3478439E-01
   7112.00  5.5742345E-01
   7112.33  5.0746025E-01
   7112.67  4.6693087E-01
   7113.00  4.4524611E-01
   7113.33  3.8945448E-01
   7113.67  3.1881513E-01
   7114.00  2.5581378E-01
   7114.33  1.9760108E-01
   7114.67  1.5205035E-01
   7115.00  1.2315455E-01
   7115.33  1.0925855E-01
   7115.67  1.0129545E-01
   7116.00  9.0847981E-02
   7116.33  7.7301613E-02
   7116.67  6.5670787E-02
   7117.00  5.7218758E-02
   7117.33  5.1903704E-02
   7117.67  4.8644207E-02
   7118.00  4.6999364E-02
   7118.33  4.6886379E-02
   7118.67  4.8079017E-02
   7119.00  5.0564909E-02
   7119.33  5.4180832E-02
   7119.67  5.7849633E-02
   7120.00  6.0544382E-02
   7120.33  6.1946059E-02
   7120.67  6.3199377E-02
   7121.00  6.5188509E-02
   7121.33  6.8556844E-02
   7121.67  7.3227168E-02
   7122.00  7.9212031E-02
   7122.33  8.6594634E-02
   7122.67  9.4801905E-02
   7123.00  1.0357320E-01
   7123.33  1.1362248E-01
   7123.67  1.2610334E-01
   7124.00  1.4208291E-01
   7124.33  1.6293336E-01
   7124.67  1.8864621E-01
   7125.00  2.1951557E-01
   7125.33  2.5548906E-01
   7125.67  2.9323176E-01
   7126.00  3.2863938E-01
   7126.33  3.5576594E-01
   7126.67  3.7315603E-01
   7127.00  3.8223158E-01
   7127.33  3.8675052E-01
   7127.67  3.9118435E-01
   7128.00  3.9655471E-01
   7128.33  4.0031519E-01
   7128.67  3.9945325E-01
   7129.00  3.9401244E-01
   7129.33  3.8688876E-01
   7129.67  3.8166106E-01
   7130.00  3.8013096E-01
   7130.33  3.8339786E-01
   7130.67  3.9058588E-01
   7131.00  4.0143404E-01
   7131.33  4.1658599E-01
   7131.67  4.3614870E-01
   7132.00  4.6076397E-01
   7132.33  4.9186256E-01
   7132.67  5.2911866E-01
   7133.00  5.7182966E-01
   7133.33  6.1607314E-01
   7133.67  6.5469146E-01
   7134.00  6.8669387E-01
   7134.33  7.2206810E-01
   7134.67  7.6810945E-01
   7135.00  8.2345743E-01
   7135.33  8.8262689E-01
   7135.67  9.3839656E-01
   7136.00  9.8354910E-01
   7136.33  1.0064463E+00
   7136.67  1.0061206E+00
   7137.00  9.8757752E-01
   7137.33  9.6052551E-01
   7137.67  9.3444618E-01
   7138.00  9.1228395E-01
   7138.33  8.9340549E-01
   7138.67  8.7410425E-01
   7139.00  8.5188692E-01
   7139.33  8.2568405E-01
   7139.67  7.9768708E-01
   7140.00  7.7015323E-01
   7140.33  7.4559791E-01
   7140.67  7.2489437E-01
   7141.00  7.0837212E-01
   7141.33  6.9637909E-01
   7141.67  6.8791248E-01
   7142.00  6.8238994E-01
   7142.33  6.7932134E-01
   7142.67  6.7767377E-01
   7143.00  6.7687347E-01
   7143.33  6.7646262E-01
   7143.67  6.7610129E-01
   7144.00  6.7566382E-01
   7144.33  6.7509946E-01
   7144.67  6.7448325E-01
   7145.00  6.7391966E-01
   7145.33  6.7358227E-01
   7145.67  6.7358645E-01
   7146.00  6.7401210E-01
   7146.33  6.7490944E-01
   7146.67  6.7607494E-01
   7147.00  6.7723382E-01
   7147.33  6.7785721E-01
   7147.67  6.7751150E-01
   7148.00  6.7587415E-01
   7148.33  6.7262121E-01
   7148.67  6.6809610E-01
   7149.00  6.6264594E-01
   7149.33  6.5672125E-01
   7149.67  6.5083223E-01
   7150.00  6.4525954E-01
   7150.33  6.4023992E-01
   7150.67  6.3575080E-01
   7151.00  6.3174719E-01
   7151.33  6.2816652E-01
   7151.67  6.2482213E-01
   7152.00  6.2158738E-01
   7152.33  6.1831565E-01
   7152.67  6.1488391E-01
   7153.00  6.1120082E-01
   7153.33  6.0714348E-01
   7153.67  6.0270746E-01
   7154.00  5.9789000E-01
   7154.33  5.9267754E-01
   7154.67  5.8715679E-01
   7155.00  5.8137580E-01
   7155.33  5.7538162E-01
   7155.67  5.6927593E-01
   7156.00  5.6312398E-01
   7156.33  5.5699484E-01
   7156.67  5.5094032E-01
   7157.00  5.4499930E-01
   7157.33  5.3923044E-01
   7157.67  5.3364874E-01
   7158.00  5.2827935E-01
   7158.33  5.2317934E-01
   7158.67  5.1833678E-01
   7159.00  5.1375351E-01
   7159.33  5.0944599E-01
   7159.67  5.0535799E-01
   7160.00  5.0146394E-01
   7160.33  4.9775380E-01
   7160.67  4.9417823E-01
   7161.00  4.9071314E-01
   7161.33  4.8733855E-01
   7161.67  4.8400858E-01
   7162.00  4.8068447E-01
   7162.33  4.7730580E-01
   7162.67  4.7381964E-01
   7163.00  4.7017674E-01
   7163.33  4.6630686E-01
   7163.67  4.6221825E-01
   7164.00  4.5792464E-01
   7164.33  4.5345619E-01
   7164.67  4.4890767E-01
   7165.00  4.4435071E-01
   7165.33  4.3986955E-01
   7165.67  4.3551187E-01
   7166.00  4.3130544E-01
   7166.33  4.2727818E-01
   7166.67  4.2339628E-01
   7167.00  4.1963568E-01
   7167.33  4.1597291E-01
   7167.67  4.1236428E-01
   7168.00  4.0878871E-01
   7168.33  4.0523823E-01
   7168.67  4.0171729E-01
   7169.00  3.9824695E-01
   7169.33  3.9488551E-01
   7169.67  3.9168174E-01
   7170.00  3.8868079E-01
   7170.33  3.8595635E-01
   7170.67  3.8351133E-01
   7171.00  3.8136587E-01
   7171.33  3.7957289E-01
   7171.67  3.7810054E-01
   7172.00  3.7695154E-01
