    FDMNES
    energy     <xanes>
   7097.00  5.4368635E-03
   7097.33  5.5755926E-03
   7097.67  5.7210793E-03
   7098.00  5.8738048E-03
   7098.33  6.0353733E-03
   7098.67  6.2054967E-03
   7099.00  6.3848371E-03
   7099.33  6.5755156E-03
   7099.67  6.7772439E-03
   7100.00  6.9909562E-03
   7100.33  7.2195310E-03
   7100.67  7.4627156E-03
   7101.00  7.7218687E-03
   7101.33  8.0010166E-03
   7101.67  8.3000205E-03
   7102.00  8.6209282E-03
   7102.33  8.9695785E-03
   7102.67  9.3461170E-03
   7103.00  9.7537646E-03
   7103.33  1.0201365E-02
   7103.67  1.0689730E-02
   7104.00  1.1224196E-02
   7104.33  1.1818892E-02
   7104.67  1.2476200E-02
   7105.00  1.3205543E-02
   7105.33  1.4031081E-02
   7105.67  1.4959036E-02
   7106.00  1.6007494E-02
   7106.33  1.7221568E-02
   7106.67  1.8617712E-02
   7107.00  2.0234699E-02
   7107.33  2.2167571E-02
   7107.67  2.4463854E-02
   7108.00  2.7220873E-02
   7108.33  3.0677478E-02
   7108.67  3.4997678E-02
   7109.00  4.0493380E-02
   7109.33  4.7962380E-02
   7109.67  5.8188204E-02
   7110.00  7.2676512E-02
   7110.33  9.5641858E-02
   7110.67  1.3189989E-01
   7111.00  1.8617352E-01
   7111.33  2.5752020E-01
   7111.67  3.4409468E-01
   7112.00  4.5656923E-01
   7112.33  6.0035137E-01
   7112.67  7.3079173E-01
   7113.00  7.5050727E-01
   7113.33  6.1273625E-01
   7113.67  4.5930375E-01
   7114.00  3.4720181E-01
   7114.33  2.7969197E-01
   7114.67  2.3804465E-01
   7115.00  2.1430094E-01
   7115.33  2.0455200E-01
   7115.67  2.0296807E-01
   7116.00  2.0486024E-01
   7116.33  2.0335859E-01
   7116.67  1.9535975E-01
   7117.00  1.8237528E-01
   7117.33  1.6836220E-01
   7117.67  1.5604683E-01
   7118.00  1.4600514E-01
   7118.33  1.3845217E-01
   7118.67  1.3288682E-01
   7119.00  1.2914464E-01
   7119.33  1.2745872E-01
   7119.67  1.2758653E-01
   7120.00  1.2918491E-01
   7120.33  1.3154275E-01
   7120.67  1.3376530E-01
   7121.00  1.3555258E-01
   7121.33  1.3723087E-01
   7121.67  1.3944721E-01
   7122.00  1.4282039E-01
   7122.33  1.4858813E-01
   7122.67  1.5718277E-01
   7123.00  1.6871298E-01
   7123.33  1.8293387E-01
   7123.67  1.9817523E-01
   7124.00  2.1322151E-01
   7124.33  2.2831958E-01
   7124.67  2.4530138E-01
   7125.00  2.6457973E-01
   7125.33  2.8381827E-01
   7125.67  3.0102949E-01
   7126.00  3.1763730E-01
   7126.33  3.3691552E-01
   7126.67  3.5823283E-01
   7127.00  3.7861978E-01
   7127.33  3.9504497E-01
   7127.67  4.0932479E-01
   7128.00  4.2492021E-01
   7128.33  4.4650621E-01
   7128.67  4.7611681E-01
   7129.00  5.1506015E-01
   7129.33  5.6498294E-01
   7129.67  6.2317931E-01
   7130.00  6.8603585E-01
   7130.33  7.4652116E-01
   7130.67  7.9792920E-01
   7131.00  8.3662634E-01
   7131.33  8.6030217E-01
   7131.67  8.7253698E-01
   7132.00  8.7574097E-01
   7132.33  8.7186134E-01
   7132.67  8.6386150E-01
   7133.00  8.5304873E-01
   7133.33  8.4013170E-01
   7133.67  8.2581152E-01
   7134.00  8.1022808E-01
   7134.33  7.9319493E-01
   7134.67  7.7474382E-01
   7135.00  7.5474941E-01
   7135.33  7.3292438E-01
   7135.67  7.0953984E-01
   7136.00  6.8482682E-01
   7136.33  6.5918605E-01
   7136.67  6.3348249E-01
   7137.00  6.0854799E-01
   7137.33  5.8571192E-01
   7137.67  5.6585295E-01
   7138.00  5.4982247E-01
   7138.33  5.3891138E-01
   7138.67  5.3283447E-01
   7139.00  5.3139039E-01
   7139.33  5.3425563E-01
   7139.67  5.3960871E-01
   7140.00  5.4603503E-01
   7140.33  5.5184017E-01
   7140.67  5.5586340E-01
   7141.00  5.5757174E-01
   7141.33  5.5669903E-01
   7141.67  5.5407214E-01
   7142.00  5.5036203E-01
   7142.33  5.4631966E-01
   7142.67  5.4259749E-01
   7143.00  5.3952327E-01
   7143.33  5.3737448E-01
   7143.67  5.3604847E-01
   7144.00  5.3544394E-01
   7144.33  5.3543804E-01
   7144.67  5.3574461E-01
   7145.00  5.3618203E-01
   7145.33  5.3656778E-01
   7145.67  5.3678076E-01
   7146.00  5.3675191E-01
   7146.33  5.3641138E-01
   7146.67  5.3579918E-01
   7147.00  5.3494136E-01
   7147.33  5.3385625E-01
   7147.67  5.3262368E-01
   7148.00  5.3129652E-01
   7148.33  5.2993279E-01
   7148.67  5.2859556E-01
   7149.00  5.2733229E-01
   7149.33  5.2620901E-01
   7149.67  5.2525505E-01
   7150.00  5.2450450E-01
   7150.33  5.2402138E-01
   7150.67  5.2380439E-01
   7151.00  5.2387522E-01
   7151.33  5.2429850E-01
   7151.67  5.2506172E-01
   7152.00  5.2618831E-01
   7152.33  5.2775375E-01
   7152.67  5.2973535E-01
   7153.00  5.3215629E-01
   7153.33  5.3510153E-01
   7153.67  5.3853682E-01
   7154.00  5.4247881E-01
   7154.33  5.4700569E-01
   7154.67  5.5205626E-01
   7155.00  5.5762364E-01
   7155.33  5.6374538E-01
   7155.67  5.7031567E-01
   7156.00  5.7728071E-01
   7156.33  5.8459684E-01
   7156.67  5.9211946E-01
   7157.00  5.9974031E-01
   7157.33  6.0730975E-01
   7157.67  6.1467395E-01
   7158.00  6.2168747E-01
   7158.33  6.2811148E-01
   7158.67  6.3384088E-01
   7159.00  6.3873758E-01
   7159.33  6.4253300E-01
   7159.67  6.4522134E-01
   7160.00  6.4671345E-01
   7160.33  6.4678418E-01
   7160.67  6.4556491E-01
   7161.00  6.4306288E-01
   7161.33  6.3916372E-01
   7161.67  6.3409490E-01
   7162.00  6.2793921E-01
   7162.33  6.2068965E-01
   7162.67  6.1259664E-01
   7163.00  6.0377796E-01
   7163.33  5.9429976E-01
   7163.67  5.8437275E-01
   7164.00  5.7411072E-01
   7164.33  5.6361026E-01
   7164.67  5.5301034E-01
   7165.00  5.4239910E-01
   7165.33  5.3187759E-01
   7165.67  5.2151593E-01
   7166.00  5.1137478E-01
   7166.33  5.0154850E-01
   7166.67  4.9205033E-01
   7167.00  4.8291424E-01
   7167.33  4.7422200E-01
   7167.67  4.6595340E-01
   7168.00  4.5813023E-01
   7168.33  4.5082839E-01
   7168.67  4.4400169E-01
   7169.00  4.3765637E-01
   7169.33  4.3185744E-01
   7169.67  4.2654632E-01
   7170.00  4.2172338E-01
   7170.33  4.1744734E-01
   7170.67  4.1365305E-01
   7171.00  4.1033664E-01
   7171.33  4.0755585E-01
   7171.67  4.0525766E-01
   7172.00  4.0345255E-01
