    FDMNES
    energy     <xanes>
   7097.00  4.9093516E-03
   7097.33  5.0278718E-03
   7097.67  5.1519167E-03
   7098.00  5.2818740E-03
   7098.33  5.4190465E-03
   7098.67  5.5631928E-03
   7099.00  5.7148479E-03
   7099.33  5.8757345E-03
   7099.67  6.0456146E-03
   7100.00  6.2252469E-03
   7100.33  6.4169749E-03
   7100.67  6.6205967E-03
   7101.00  6.8372255E-03
   7101.33  7.0701563E-03
   7101.67  7.3192971E-03
   7102.00  7.5863457E-03
   7102.33  7.8761242E-03
   7102.67  8.1888124E-03
   7103.00  8.5271257E-03
   7103.33  8.8984726E-03
   7103.67  9.3036766E-03
   7104.00  9.7473392E-03
   7104.33  1.0241553E-02
   7104.67  1.0788687E-02
   7105.00  1.1397128E-02
   7105.33  1.2088199E-02
   7105.67  1.2868193E-02
   7106.00  1.3753914E-02
   7106.33  1.4787001E-02
   7106.67  1.5984748E-02
   7107.00  1.7385436E-02
   7107.33  1.9082730E-02
   7107.67  2.1129962E-02
   7108.00  2.3632077E-02
   7108.33  2.6848974E-02
   7108.67  3.0984891E-02
   7109.00  3.6423914E-02
   7109.33  4.4178132E-02
   7109.67  5.5390027E-02
   7110.00  7.2294443E-02
   7110.33  1.0130124E-01
   7110.67  1.4909291E-01
   7111.00  2.1660122E-01
   7111.33  2.8237803E-01
   7111.67  3.3440259E-01
   7112.00  3.8576642E-01
   7112.33  4.3391675E-01
   7112.67  4.4888909E-01
   7113.00  4.0437443E-01
   7113.33  3.1093574E-01
   7113.67  2.2995847E-01
   7114.00  1.7715377E-01
   7114.33  1.5152160E-01
   7114.67  1.4493908E-01
   7115.00  1.5452160E-01
   7115.33  1.6975996E-01
   7115.67  1.6680505E-01
   7116.00  1.4275134E-01
   7116.33  1.1684922E-01
   7116.67  9.8716755E-02
   7117.00  8.8064323E-02
   7117.33  8.3534256E-02
   7117.67  8.2517481E-02
   7118.00  8.3517348E-02
   7118.33  8.5587327E-02
   7118.67  8.8776051E-02
   7119.00  9.3419107E-02
   7119.33  9.9031517E-02
   7119.67  1.0419253E-01
   7120.00  1.0807393E-01
   7120.33  1.1126689E-01
   7120.67  1.1604978E-01
   7121.00  1.2397165E-01
   7121.33  1.3587919E-01
   7121.67  1.5099444E-01
   7122.00  1.6938664E-01
   7122.33  1.9192338E-01
   7122.67  2.1772105E-01
   7123.00  2.4531469E-01
   7123.33  2.7364156E-01
   7123.67  3.0331518E-01
   7124.00  3.3421434E-01
   7124.33  3.6352856E-01
   7124.67  3.8771205E-01
   7125.00  4.0437239E-01
   7125.33  4.1289754E-01
   7125.67  4.1766573E-01
   7126.00  4.2254252E-01
   7126.33  4.3187640E-01
   7126.67  4.4721337E-01
   7127.00  4.6865103E-01
   7127.33  4.9549160E-01
   7127.67  5.2542125E-01
   7128.00  5.5732215E-01
   7128.33  5.8972508E-01
   7128.67  6.2006169E-01
   7129.00  6.4708126E-01
   7129.33  6.7334411E-01
   7129.67  7.0291831E-01
   7130.00  7.3533988E-01
   7130.33  7.6507006E-01
   7130.67  7.8697988E-01
   7131.00  7.9893551E-01
   7131.33  7.9978384E-01
   7131.67  7.9233176E-01
   7132.00  7.7898725E-01
   7132.33  7.6319398E-01
   7132.67  7.4856971E-01
   7133.00  7.3696601E-01
   7133.33  7.2994020E-01
   7133.67  7.2712899E-01
   7134.00  7.2799107E-01
   7134.33  7.3134983E-01
   7134.67  7.3498735E-01
   7135.00  7.3760116E-01
   7135.33  7.3866738E-01
   7135.67  7.3895176E-01
   7136.00  7.3899582E-01
   7136.33  7.3896788E-01
   7136.67  7.3860489E-01
   7137.00  7.3749960E-01
   7137.33  7.3506737E-01
   7137.67  7.3127684E-01
   7138.00  7.2625121E-01
   7138.33  7.2019462E-01
   7138.67  7.1347792E-01
   7139.00  7.0614907E-01
   7139.33  6.9792671E-01
   7139.67  6.8847893E-01
   7140.00  6.7730185E-01
   7140.33  6.6366746E-01
   7140.67  6.4801220E-01
   7141.00  6.3119439E-01
   7141.33  6.1490461E-01
   7141.67  6.0079476E-01
   7142.00  5.8990742E-01
   7142.33  5.8310299E-01
   7142.67  5.7946434E-01
   7143.00  5.7804346E-01
   7143.33  5.7743867E-01
   7143.67  5.7595937E-01
   7144.00  5.7242140E-01
   7144.33  5.6562588E-01
   7144.67  5.5589309E-01
   7145.00  5.4380760E-01
   7145.33  5.3037120E-01
   7145.67  5.1703659E-01
   7146.00  5.0475407E-01
   7146.33  4.9448154E-01
   7146.67  4.8633103E-01
   7147.00  4.8034751E-01
   7147.33  4.7664413E-01
   7147.67  4.7470869E-01
   7148.00  4.7429018E-01
   7148.33  4.7525237E-01
   7148.67  4.7716555E-01
   7149.00  4.7980867E-01
   7149.33  4.8301092E-01
   7149.67  4.8650171E-01
   7150.00  4.9011518E-01
   7150.33  4.9365575E-01
   7150.67  4.9694773E-01
   7151.00  4.9984738E-01
   7151.33  5.0217603E-01
   7151.67  5.0398615E-01
   7152.00  5.0537645E-01
   7152.33  5.0654652E-01
   7152.67  5.0779090E-01
   7153.00  5.0930512E-01
   7153.33  5.1125282E-01
   7153.67  5.1355009E-01
   7154.00  5.1605539E-01
   7154.33  5.1851697E-01
   7154.67  5.2067072E-01
   7155.00  5.2231750E-01
   7155.33  5.2321996E-01
   7155.67  5.2340353E-01
   7156.00  5.2288462E-01
   7156.33  5.2164536E-01
   7156.67  5.1983766E-01
   7157.00  5.1750875E-01
   7157.33  5.1462116E-01
   7157.67  5.1122816E-01
   7158.00  5.0730234E-01
   7158.33  5.0273100E-01
   7158.67  4.9755331E-01
   7159.00  4.9176162E-01
   7159.33  4.8530903E-01
   7159.67  4.7834067E-01
   7160.00  4.7095139E-01
   7160.33  4.6324498E-01
   7160.67  4.5541399E-01
   7161.00  4.4759501E-01
   7161.33  4.3995280E-01
   7161.67  4.3258513E-01
   7162.00  4.2556477E-01
   7162.33  4.1898895E-01
   7162.67  4.1282081E-01
   7163.00  4.0704992E-01
   7163.33  4.0169313E-01
   7163.67  3.9666463E-01
   7164.00  3.9192868E-01
   7164.33  3.8748127E-01
   7164.67  3.8326423E-01
   7165.00  3.7926536E-01
   7165.33  3.7550901E-01
   7165.67  3.7197629E-01
   7166.00  3.6868135E-01
   7166.33  3.6567906E-01
   7166.67  3.6296174E-01
   7167.00  3.6054945E-01
   7167.33  3.5850220E-01
   7167.67  3.5679304E-01
   7168.00  3.5542778E-01
   7168.33  3.5444813E-01
   7168.67  3.5380260E-01
   7169.00  3.5347928E-01
   7169.33  3.5349839E-01
   7169.67  3.5380049E-01
   7170.00  3.5436442E-01
   7170.33  3.5519084E-01
   7170.67  3.5621546E-01
   7171.00  3.5739804E-01
   7171.33  3.5867803E-01
   7171.67  3.5992228E-01
   7172.00  3.6097299E-01
