    FDMNES
    energy     <xanes>
   7097.00  4.4918909E-03
   7097.33  4.5878833E-03
   7097.67  4.6879138E-03
   7098.00  4.7922491E-03
   7098.33  4.9018145E-03
   7098.67  5.0164126E-03
   7099.00  5.1364093E-03
   7099.33  5.2630146E-03
   7099.67  5.3960312E-03
   7100.00  5.5359756E-03
   7100.33  5.6844784E-03
   7100.67  5.8413650E-03
   7101.00  6.0073913E-03
   7101.33  6.1848335E-03
   7101.67  6.3735909E-03
   7102.00  6.5748176E-03
   7102.33  6.7918294E-03
   7102.67  7.0247152E-03
   7103.00  7.2753276E-03
   7103.33  7.5487579E-03
   7103.67  7.8455520E-03
   7104.00  8.1688748E-03
   7104.33  8.5270719E-03
   7104.67  8.9218065E-03
   7105.00  9.3589236E-03
   7105.33  9.8532946E-03
   7105.67  1.0409478E-02
   7106.00  1.1039414E-02
   7106.33  1.1772688E-02
   7106.67  1.2622176E-02
   7107.00  1.3615849E-02
   7107.33  1.4822203E-02
   7107.67  1.6282247E-02
   7108.00  1.8075669E-02
   7108.33  2.0400761E-02
   7108.67  2.3421293E-02
   7109.00  2.7444498E-02
   7109.33  3.3288959E-02
   7109.67  4.1920462E-02
   7110.00  5.5238957E-02
   7110.33  7.8730257E-02
   7110.67  1.1793743E-01
   7111.00  1.7215294E-01
   7111.33  2.1994756E-01
   7111.67  2.4670390E-01
   7112.00  2.4642397E-01
   7112.33  2.2839583E-01
   7112.67  2.1383445E-01
   7113.00  2.0078509E-01
   7113.33  1.7697104E-01
   7113.67  1.4607231E-01
   7114.00  1.1739696E-01
   7114.33  9.8199976E-02
   7114.67  8.5986587E-02
   7115.00  7.6064429E-02
   7115.33  6.6562957E-02
   7115.67  5.9214374E-02
   7116.00  5.4395084E-02
   7116.33  5.1726327E-02
   7116.67  5.0395158E-02
   7117.00  5.0188437E-02
   7117.33  5.1212538E-02
   7117.67  5.3379877E-02
   7118.00  5.6734382E-02
   7118.33  6.1422113E-02
   7118.67  6.7114414E-02
   7119.00  7.3400771E-02
   7119.33  7.9514650E-02
   7119.67  8.4788496E-02
   7120.00  8.9021230E-02
   7120.33  9.2418965E-02
   7120.67  9.5694734E-02
   7121.00  9.9443954E-02
   7121.33  1.0447168E-01
   7121.67  1.1121314E-01
   7122.00  1.2009994E-01
   7122.33  1.3197674E-01
   7122.67  1.4713141E-01
   7123.00  1.6622272E-01
   7123.33  1.9075870E-01
   7123.67  2.2102027E-01
   7124.00  2.5747815E-01
   7124.33  3.0064556E-01
   7124.67  3.4844527E-01
   7125.00  3.9890493E-01
   7125.33  4.4840047E-01
   7125.67  4.9163358E-01
   7126.00  5.2348490E-01
   7126.33  5.4014827E-01
   7126.67  5.4863156E-01
   7127.00  5.5711130E-01
   7127.33  5.7404113E-01
   7127.67  6.0092756E-01
   7128.00  6.3671829E-01
   7128.33  6.7978232E-01
   7128.67  7.2703731E-01
   7129.00  7.7671440E-01
   7129.33  8.2628404E-01
   7129.67  8.7223825E-01
   7130.00  9.1099400E-01
   7130.33  9.3763636E-01
   7130.67  9.5212792E-01
   7131.00  9.5553627E-01
   7131.33  9.4987696E-01
   7131.67  9.3929844E-01
   7132.00  9.2545282E-01
   7132.33  9.0844584E-01
   7132.67  8.8837682E-01
   7133.00  8.6558658E-01
   7133.33  8.4185882E-01
   7133.67  8.1997305E-01
   7134.00  8.0137572E-01
   7134.33  7.8631313E-01
   7134.67  7.7306702E-01
   7135.00  7.6046568E-01
   7135.33  7.4760237E-01
   7135.67  7.3418032E-01
   7136.00  7.2024212E-01
   7136.33  7.0601834E-01
   7136.67  6.9190163E-01
   7137.00  6.7820562E-01
   7137.33  6.6533394E-01
   7137.67  6.5342091E-01
   7138.00  6.4258675E-01
   7138.33  6.3303712E-01
   7138.67  6.2462741E-01
   7139.00  6.1731960E-01
   7139.33  6.1116968E-01
   7139.67  6.0595696E-01
   7140.00  6.0159668E-01
   7140.33  5.9808832E-01
   7140.67  5.9524999E-01
   7141.00  5.9301306E-01
   7141.33  5.9136982E-01
   7141.67  5.9019601E-01
   7142.00  5.8945370E-01
   7142.33  5.8912759E-01
   7142.67  5.8909368E-01
   7143.00  5.8928422E-01
   7143.33  5.8964596E-01
   7143.67  5.9010359E-01
   7144.00  5.9062768E-01
   7144.33  5.9121519E-01
   7144.67  5.9186763E-01
   7145.00  5.9259315E-01
   7145.33  5.9338236E-01
   7145.67  5.9415066E-01
   7146.00  5.9475947E-01
   7146.33  5.9490053E-01
   7146.67  5.9429508E-01
   7147.00  5.9264503E-01
   7147.33  5.8945129E-01
   7147.67  5.8462122E-01
   7148.00  5.7802083E-01
   7148.33  5.6941092E-01
   7148.67  5.5915356E-01
   7149.00  5.4746927E-01
   7149.33  5.3455144E-01
   7149.67  5.2090149E-01
   7150.00  5.0682669E-01
   7150.33  4.9263830E-01
   7150.67  4.7862354E-01
   7151.00  4.6497038E-01
   7151.33  4.5190541E-01
   7151.67  4.3947313E-01
   7152.00  4.2773426E-01
   7152.33  4.1681814E-01
   7152.67  4.0664517E-01
   7153.00  3.9720953E-01
   7153.33  3.8857159E-01
   7153.67  3.8059509E-01
   7154.00  3.7322793E-01
   7154.33  3.6646598E-01
   7154.67  3.6016300E-01
   7155.00  3.5424804E-01
   7155.33  3.4867562E-01
   7155.67  3.4332888E-01
   7156.00  3.3814879E-01
   7156.33  3.3309493E-01
   7156.67  3.2811859E-01
   7157.00  3.2320872E-01
   7157.33  3.1838570E-01
   7157.67  3.1367637E-01
   7158.00  3.0913107E-01
   7158.33  3.0485640E-01
   7158.67  3.0091218E-01
   7159.00  2.9738059E-01
   7159.33  2.9441781E-01
   7159.67  2.9204476E-01
   7160.00  2.9032401E-01
   7160.33  2.8940211E-01
   7160.67  2.8922497E-01
   7161.00  2.8980091E-01
   7161.33  2.9121478E-01
   7161.67  2.9334558E-01
   7162.00  2.9614964E-01
   7162.33  2.9962601E-01
   7162.67  3.0361220E-01
   7163.00  3.0802766E-01
   7163.33  3.1281826E-01
   7163.67  3.1784846E-01
   7164.00  3.2304907E-01
   7164.33  3.2836607E-01
   7164.67  3.3373189E-01
   7165.00  3.3910954E-01
   7165.33  3.4446560E-01
   7165.67  3.4978336E-01
   7166.00  3.5505443E-01
   7166.33  3.6027003E-01
   7166.67  3.6543748E-01
   7167.00  3.7056123E-01
   7167.33  3.7564740E-01
   7167.67  3.8071234E-01
   7168.00  3.8576579E-01
   7168.33  3.9081771E-01
   7168.67  3.9587554E-01
   7169.00  4.0094184E-01
   7169.33  4.0601511E-01
   7169.67  4.1108498E-01
   7170.00  4.1613584E-01
   7170.33  4.2113294E-01
   7170.67  4.2603685E-01
   7171.00  4.3078744E-01
   7171.33  4.3523718E-01
   7171.67  4.3921874E-01
   7172.00  4.4247589E-01
