    FDMNES
    energy     <xanes>
   7097.00  4.4929110E-03
   7097.33  4.5900284E-03
   7097.67  4.6913057E-03
   7098.00  4.7970219E-03
   7098.33  4.9081371E-03
   7098.67  5.0244537E-03
   7099.00  5.1463551E-03
   7099.33  5.2751008E-03
   7099.67  5.4104940E-03
   7100.00  5.5530768E-03
   7100.33  5.7045509E-03
   7100.67  5.8647436E-03
   7101.00  6.0344490E-03
   7101.33  6.2160466E-03
   7101.67  6.4094410E-03
   7102.00  6.6158431E-03
   7102.33  6.8387217E-03
   7102.67  7.0781765E-03
   7103.00  7.3361463E-03
   7103.33  7.6179504E-03
   7103.67  7.9241544E-03
   7104.00  8.2580531E-03
   7104.33  8.6283311E-03
   7104.67  9.0366797E-03
   7105.00  9.4891302E-03
   7105.33  1.0001035E-02
   7105.67  1.0576959E-02
   7106.00  1.1229053E-02
   7106.33  1.1987440E-02
   7106.67  1.2864766E-02
   7107.00  1.3888898E-02
   7107.33  1.5128014E-02
   7107.67  1.6621317E-02
   7108.00  1.8445684E-02
   7108.33  2.0791483E-02
   7108.67  2.3809215E-02
   7109.00  2.7781365E-02
   7109.33  3.3452020E-02
   7109.67  4.1661842E-02
   7110.00  5.4051569E-02
   7110.33  7.5295027E-02
   7110.67  1.1001832E-01
   7111.00  1.5824255E-01
   7111.33  2.0957744E-01
   7111.67  2.6630030E-01
   7112.00  3.2109475E-01
   7112.33  3.2464885E-01
   7112.67  2.8369145E-01
   7113.00  2.3527635E-01
   7113.33  1.9207840E-01
   7113.67  1.5123493E-01
   7114.00  1.1709483E-01
   7114.33  9.4524629E-02
   7114.67  8.0314960E-02
   7115.00  7.0302965E-02
   7115.33  6.1929647E-02
   7115.67  5.5420591E-02
   7116.00  5.1039438E-02
   7116.33  4.8610680E-02
   7116.67  4.7480808E-02
   7117.00  4.7447707E-02
   7117.33  4.8564435E-02
   7117.67  5.0715200E-02
   7118.00  5.3934097E-02
   7118.33  5.8365507E-02
   7118.67  6.3748250E-02
   7119.00  6.9773082E-02
   7119.33  7.5821261E-02
   7119.67  8.1159588E-02
   7120.00  8.5347918E-02
   7120.33  8.8216115E-02
   7120.67  9.0358828E-02
   7121.00  9.2323723E-02
   7121.33  9.4804227E-02
   7121.67  9.8303577E-02
   7122.00  1.0321748E-01
   7122.33  1.1014757E-01
   7122.67  1.1922090E-01
   7123.00  1.3078419E-01
   7123.33  1.4575314E-01
   7123.67  1.6443578E-01
   7124.00  1.8748598E-01
   7124.33  2.1628646E-01
   7124.67  2.5078389E-01
   7125.00  2.9113600E-01
   7125.33  3.3680829E-01
   7125.67  3.8244870E-01
   7126.00  4.1990805E-01
   7126.33  4.3958578E-01
   7126.67  4.4888727E-01
   7127.00  4.5890348E-01
   7127.33  4.7913437E-01
   7127.67  5.1025236E-01
   7128.00  5.5087126E-01
   7128.33  5.9931629E-01
   7128.67  6.5230888E-01
   7129.00  7.0823719E-01
   7129.33  7.6629938E-01
   7129.67  8.2577390E-01
   7130.00  8.8561489E-01
   7130.33  9.4242466E-01
   7130.67  9.9201445E-01
   7131.00  1.0307203E+00
   7131.33  1.0543067E+00
   7131.67  1.0639490E+00
   7132.00  1.0603463E+00
   7132.33  1.0437390E+00
   7132.67  1.0183185E+00
   7133.00  9.8739421E-01
   7133.33  9.5507145E-01
   7133.67  9.2450401E-01
   7134.00  8.9621882E-01
   7134.33  8.6914979E-01
   7134.67  8.4179642E-01
   7135.00  8.1378314E-01
   7135.33  7.8548325E-01
   7135.67  7.5767896E-01
   7136.00  7.3096379E-01
   7136.33  7.0602760E-01
   7136.67  6.8294939E-01
   7137.00  6.6182819E-01
   7137.33  6.4290842E-01
   7137.67  6.2586345E-01
   7138.00  6.1058345E-01
   7138.33  5.9711602E-01
   7138.67  5.8509658E-01
   7139.00  5.7439079E-01
   7139.33  5.6500832E-01
   7139.67  5.5670466E-01
   7140.00  5.4945499E-01
   7140.33  5.4347222E-01
   7140.67  5.3880891E-01
   7141.00  5.3570917E-01
   7141.33  5.3470797E-01
   7141.67  5.3577831E-01
   7142.00  5.3894061E-01
   7142.33  5.4424479E-01
   7142.67  5.5108568E-01
   7143.00  5.5907555E-01
   7143.33  5.6784686E-01
   7143.67  5.7691618E-01
   7144.00  5.8601464E-01
   7144.33  5.9488489E-01
   7144.67  6.0339248E-01
   7145.00  6.1143708E-01
   7145.33  6.1884053E-01
   7145.67  6.2554497E-01
   7146.00  6.3140315E-01
   7146.33  6.3606856E-01
   7146.67  6.3945247E-01
   7147.00  6.4138071E-01
   7147.33  6.4145220E-01
   7147.67  6.3970110E-01
   7148.00  6.3602277E-01
   7148.33  6.3012779E-01
   7148.67  6.2232300E-01
   7149.00  6.1274387E-01
   7149.33  6.0143847E-01
   7149.67  5.8890243E-01
   7150.00  5.7542325E-01
   7150.33  5.6126356E-01
   7150.67  5.4681955E-01
   7151.00  5.3233387E-01
   7151.33  5.1806223E-01
   7151.67  5.0415974E-01
   7152.00  4.9074041E-01
   7152.33  4.7796903E-01
   7152.67  4.6583488E-01
   7153.00  4.5436416E-01
   7153.33  4.4363784E-01
   7153.67  4.3354807E-01
   7154.00  4.2405922E-01
   7154.33  4.1518551E-01
   7154.67  4.0679816E-01
   7155.00  3.9884259E-01
   7155.33  3.9129732E-01
   7155.67  3.8405028E-01
   7156.00  3.7704960E-01
   7156.33  3.7026956E-01
   7156.67  3.6365098E-01
   7157.00  3.5717949E-01
   7157.33  3.5087652E-01
   7157.67  3.4474884E-01
   7158.00  3.3883641E-01
   7158.33  3.3323852E-01
   7158.67  3.2799865E-01
   7159.00  3.2319012E-01
   7159.33  3.1896310E-01
   7159.67  3.1533294E-01
   7160.00  3.1235982E-01
   7160.33  3.1018680E-01
   7160.67  3.0875478E-01
   7161.00  3.0807211E-01
   7161.33  3.0822599E-01
   7161.67  3.0909885E-01
   7162.00  3.1065002E-01
   7162.33  3.1288828E-01
   7162.67  3.1565885E-01
   7163.00  3.1889200E-01
   7163.33  3.2255336E-01
   7163.67  3.2651302E-01
   7164.00  3.3070461E-01
   7164.33  3.3507976E-01
   7164.67  3.3956069E-01
   7165.00  3.4410838E-01
   7165.33  3.4869345E-01
   7165.67  3.5328978E-01
   7166.00  3.5788694E-01
   7166.33  3.6248046E-01
   7166.67  3.6706757E-01
   7167.00  3.7164278E-01
   7167.33  3.7620435E-01
   7167.67  3.8075705E-01
   7168.00  3.8530165E-01
   7168.33  3.8983459E-01
   7168.67  3.9435113E-01
   7169.00  3.9884267E-01
   7169.33  4.0329031E-01
   7169.67  4.0767999E-01
   7170.00  4.1199093E-01
   7170.33  4.1617898E-01
   7170.67  4.2021759E-01
   7171.00  4.2405955E-01
   7171.33  4.2758705E-01
   7171.67  4.3069604E-01
   7172.00  4.3321360E-01
