    FDMNES
    energy     <xanes>
   7097.00  4.4588814E-03
   7097.33  4.5561448E-03
   7097.67  4.6576206E-03
   7098.00  4.7635945E-03
   7098.33  4.8750439E-03
   7098.67  4.9917732E-03
   7099.00  5.1141759E-03
   7099.33  5.2435385E-03
   7099.67  5.3796674E-03
   7100.00  5.5231211E-03
   7100.33  5.6756431E-03
   7100.67  5.8370675E-03
   7101.00  6.0082151E-03
   7101.33  6.1915332E-03
   7101.67  6.3869401E-03
   7102.00  6.5956924E-03
   7102.33  6.8213732E-03
   7102.67  7.0641110E-03
   7103.00  7.3259270E-03
   7103.33  7.6123437E-03
   7103.67  7.9239904E-03
   7104.00  8.2643207E-03
   7104.33  8.6424062E-03
   7104.67  9.0600883E-03
   7105.00  9.5237326E-03
   7105.33  1.0049497E-02
   7105.67  1.0642336E-02
   7106.00  1.1315188E-02
   7106.33  1.2100070E-02
   7106.67  1.3010780E-02
   7107.00  1.4077354E-02
   7107.33  1.5373256E-02
   7107.67  1.6941781E-02
   7108.00  1.8867273E-02
   7108.33  2.1359082E-02
   7108.67  2.4586941E-02
   7109.00  2.8869276E-02
   7109.33  3.5050532E-02
   7109.67  4.4109843E-02
   7110.00  5.7966475E-02
   7110.33  8.2100917E-02
   7110.67  1.2167731E-01
   7111.00  1.7504885E-01
   7111.33  2.2596447E-01
   7111.67  2.7524726E-01
   7112.00  3.1532400E-01
   7112.33  3.0697350E-01
   7112.67  2.6854567E-01
   7113.00  2.2885921E-01
   7113.33  1.9087877E-01
   7113.67  1.5267981E-01
   7114.00  1.1942301E-01
   7114.33  9.6871387E-02
   7114.67  8.3101066E-02
   7115.00  7.4328265E-02
   7115.33  6.6779209E-02
   7115.67  6.0264318E-02
   7116.00  5.5576635E-02
   7116.33  5.2997465E-02
   7116.67  5.1929634E-02
   7117.00  5.2128426E-02
   7117.33  5.3608729E-02
   7117.67  5.6212257E-02
   7118.00  5.9945463E-02
   7118.33  6.4823139E-02
   7118.67  7.0268195E-02
   7119.00  7.5566523E-02
   7119.33  7.9692399E-02
   7119.67  8.2328930E-02
   7120.00  8.3618794E-02
   7120.33  8.4033638E-02
   7120.67  8.4327066E-02
   7121.00  8.4963204E-02
   7121.33  8.6446236E-02
   7121.67  8.9013478E-02
   7122.00  9.2925457E-02
   7122.33  9.8694548E-02
   7122.67  1.0645023E-01
   7123.00  1.1653348E-01
   7123.33  1.2981339E-01
   7123.67  1.4659024E-01
   7124.00  1.6750465E-01
   7124.33  1.9389554E-01
   7124.67  2.2561459E-01
   7125.00  2.6254825E-01
   7125.33  3.0417309E-01
   7125.67  3.4806035E-01
   7126.00  3.9256701E-01
   7126.33  4.3522977E-01
   7126.67  4.6946804E-01
   7127.00  4.8844500E-01
   7127.33  4.9645794E-01
   7127.67  5.0789990E-01
   7128.00  5.2760646E-01
   7128.33  5.5544978E-01
   7128.67  5.8800135E-01
   7129.00  6.2419405E-01
   7129.33  6.6491456E-01
   7129.67  7.1071684E-01
   7130.00  7.6186176E-01
   7130.33  8.1735112E-01
   7130.67  8.7303726E-01
   7131.00  9.2452096E-01
   7131.33  9.6559837E-01
   7131.67  9.9436829E-01
   7132.00  1.0105750E+00
   7132.33  1.0146971E+00
   7132.67  1.0107402E+00
   7133.00  1.0009040E+00
   7133.33  9.8717195E-01
   7133.67  9.7213872E-01
   7134.00  9.5671908E-01
   7134.33  9.4000871E-01
   7134.67  9.2037881E-01
   7135.00  8.9685017E-01
   7135.33  8.6914551E-01
   7135.67  8.3894759E-01
   7136.00  8.0757732E-01
   7136.33  7.7645044E-01
   7136.67  7.4657297E-01
   7137.00  7.1853290E-01
   7137.33  6.9300546E-01
   7137.67  6.6988059E-01
   7138.00  6.4918342E-01
   7138.33  6.3115153E-01
   7138.67  6.1537366E-01
   7139.00  6.0172548E-01
   7139.33  5.9029018E-01
   7139.67  5.8065252E-01
   7140.00  5.7268659E-01
   7140.33  5.6652547E-01
   7140.67  5.6204390E-01
   7141.00  5.5943679E-01
   7141.33  5.5928544E-01
   7141.67  5.6153285E-01
   7142.00  5.6613877E-01
   7142.33  5.7298685E-01
   7142.67  5.8123069E-01
   7143.00  5.9031387E-01
   7143.33  5.9970310E-01
   7143.67  6.0894115E-01
   7144.00  6.1778105E-01
   7144.33  6.2594249E-01
   7144.67  6.3331857E-01
   7145.00  6.3974871E-01
   7145.33  6.4489111E-01
   7145.67  6.4868854E-01
   7146.00  6.5098933E-01
   7146.33  6.5147195E-01
   7146.67  6.5031110E-01
   7147.00  6.4756644E-01
   7147.33  6.4320203E-01
   7147.67  6.3758918E-01
   7148.00  6.3090977E-01
   7148.33  6.2326832E-01
   7148.67  6.1496553E-01
   7149.00  6.0614147E-01
   7149.33  5.9687200E-01
   7149.67  5.8729498E-01
   7150.00  5.7746203E-01
   7150.33  5.6739023E-01
   7150.67  5.5713870E-01
   7151.00  5.4672490E-01
   7151.33  5.3614706E-01
   7151.67  5.2544446E-01
   7152.00  5.1464134E-01
   7152.33  5.0376574E-01
   7152.67  4.9287198E-01
   7153.00  4.8200175E-01
   7153.33  4.7120689E-01
   7153.67  4.6051690E-01
   7154.00  4.4995803E-01
   7154.33  4.3956820E-01
   7154.67  4.2933642E-01
   7155.00  4.1926446E-01
   7155.33  4.0936712E-01
   7155.67  3.9961302E-01
   7156.00  3.8998883E-01
   7156.33  3.8049408E-01
   7156.67  3.7110621E-01
   7157.00  3.6182747E-01
   7157.33  3.5268909E-01
   7157.67  3.4370752E-01
   7158.00  3.3492488E-01
   7158.33  3.2643961E-01
   7158.67  3.1829994E-01
   7159.00  3.1058563E-01
   7159.33  3.0346166E-01
   7159.67  2.9696415E-01
   7160.00  2.9117914E-01
   7160.33  2.8630062E-01
   7160.67  2.8230689E-01
   7161.00  2.7925208E-01
   7161.33  2.7730559E-01
   7161.67  2.7636432E-01
   7162.00  2.7641550E-01
   7162.33  2.7753038E-01
   7162.67  2.7951567E-01
   7163.00  2.8228940E-01
   7163.33  2.8582725E-01
   7163.67  2.8991938E-01
   7164.00  2.9445279E-01
   7164.33  2.9934031E-01
   7164.67  3.0443009E-01
   7165.00  3.0964107E-01
   7165.33  3.1490627E-01
   7165.67  3.2017048E-01
   7166.00  3.2540979E-01
   7166.33  3.3061146E-01
   7166.67  3.3577949E-01
   7167.00  3.4091286E-01
   7167.33  3.4602027E-01
   7167.67  3.5112378E-01
   7168.00  3.5623739E-01
   7168.33  3.6137516E-01
   7168.67  3.6653934E-01
   7169.00  3.7172827E-01
   7169.33  3.7693454E-01
   7169.67  3.8213805E-01
   7170.00  3.8731546E-01
   7170.33  3.9242139E-01
   7170.67  3.9741116E-01
   7171.00  4.0222028E-01
   7171.33  4.0669520E-01
   7171.67  4.1067540E-01
   7172.00  4.1391394E-01
