    FDMNES
    energy     <xanes>
   7097.00  5.5577473E-03
   7097.33  5.7034705E-03
   7097.67  5.8564007E-03
   7098.00  6.0170518E-03
   7098.33  6.1871344E-03
   7098.67  6.3663404E-03
   7099.00  6.5553737E-03
   7099.33  6.7564920E-03
   7099.67  6.9693825E-03
   7100.00  7.1950337E-03
   7100.33  7.4364984E-03
   7100.67  7.6934931E-03
   7101.00  7.9674453E-03
   7101.33  8.2626020E-03
   7101.67  8.5787821E-03
   7102.00  8.9181165E-03
   7102.33  9.2867137E-03
   7102.67  9.6846534E-03
   7103.00  1.0115243E-02
   7103.33  1.0587626E-02
   7103.67  1.1102491E-02
   7104.00  1.1665218E-02
   7104.33  1.2290171E-02
   7104.67  1.2979442E-02
   7105.00  1.3742304E-02
   7105.33  1.4602716E-02
   7105.67  1.5566106E-02
   7106.00  1.6649651E-02
   7106.33  1.7896490E-02
   7106.67  1.9320507E-02
   7107.00  2.0956653E-02
   7107.33  2.2890858E-02
   7107.67  2.5160750E-02
   7108.00  2.7847139E-02
   7108.33  3.1146954E-02
   7108.67  3.5176015E-02
   7109.00  4.0159183E-02
   7109.33  4.6653299E-02
   7109.67  5.5106334E-02
   7110.00  6.6358509E-02
   7110.33  8.2619718E-02
   7110.67  1.0623756E-01
   7111.00  1.4108927E-01
   7111.33  1.9723243E-01
   7111.67  2.8866744E-01
   7112.00  4.3760912E-01
   7112.33  6.6019083E-01
   7112.67  8.5705649E-01
   7113.00  9.1589099E-01
   7113.33  8.4823193E-01
   7113.67  7.2577591E-01
   7114.00  5.7252780E-01
   7114.33  4.4073638E-01
   7114.67  3.4671440E-01
   7115.00  2.8328645E-01
   7115.33  2.4216818E-01
   7115.67  2.1364486E-01
   7116.00  1.9403097E-01
   7116.33  1.8176875E-01
   7116.67  1.7501146E-01
   7117.00  1.7308085E-01
   7117.33  1.7445072E-01
   7117.67  1.7543325E-01
   7118.00  1.7356399E-01
   7118.33  1.6764127E-01
   7118.67  1.5945970E-01
   7119.00  1.5097763E-01
   7119.33  1.4397193E-01
   7119.67  1.3835463E-01
   7120.00  1.3345473E-01
   7120.33  1.2885372E-01
   7120.67  1.2485434E-01
   7121.00  1.2189239E-01
   7121.33  1.2022703E-01
   7121.67  1.1961504E-01
   7122.00  1.2008710E-01
   7122.33  1.2180145E-01
   7122.67  1.2436679E-01
   7123.00  1.2749551E-01
   7123.33  1.3107736E-01
   7123.67  1.3509101E-01
   7124.00  1.3962799E-01
   7124.33  1.4482560E-01
   7124.67  1.5046016E-01
   7125.00  1.5608972E-01
   7125.33  1.6089180E-01
   7125.67  1.6480986E-01
   7126.00  1.6867497E-01
   7126.33  1.7411844E-01
   7126.67  1.8209411E-01
   7127.00  1.9321204E-01
   7127.33  2.0844548E-01
   7127.67  2.2772201E-01
   7128.00  2.5115794E-01
   7128.33  2.7885008E-01
   7128.67  3.0924025E-01
   7129.00  3.4104610E-01
   7129.33  3.7342724E-01
   7129.67  4.0727007E-01
   7130.00  4.4478773E-01
   7130.33  4.8961077E-01
   7130.67  5.4248747E-01
   7131.00  6.0337536E-01
   7131.33  6.7203559E-01
   7131.67  7.4595071E-01
   7132.00  8.2337574E-01
   7132.33  9.0191974E-01
   7132.67  9.7829080E-01
   7133.00  1.0490985E+00
   7133.33  1.1080129E+00
   7133.67  1.1501442E+00
   7134.00  1.1698161E+00
   7134.33  1.1587692E+00
   7134.67  1.1205075E+00
   7135.00  1.0601534E+00
   7135.33  9.8564365E-01
   7135.67  9.0760194E-01
   7136.00  8.3134127E-01
   7136.33  7.6084591E-01
   7136.67  6.9686199E-01
   7137.00  6.3981381E-01
   7137.33  5.9073546E-01
   7137.67  5.4873643E-01
   7138.00  5.1369485E-01
   7138.33  4.8605854E-01
   7138.67  4.6433934E-01
   7139.00  4.4780099E-01
   7139.33  4.3609160E-01
   7139.67  4.2790489E-01
   7140.00  4.2273710E-01
   7140.33  4.2051913E-01
   7140.67  4.2069772E-01
   7141.00  4.2317796E-01
   7141.33  4.2820032E-01
   7141.67  4.3546757E-01
   7142.00  4.4495264E-01
   7142.33  4.5683553E-01
   7142.67  4.7067466E-01
   7143.00  4.8623834E-01
   7143.33  5.0334243E-01
   7143.67  5.2139550E-01
   7144.00  5.4001299E-01
   7144.33  5.5877001E-01
   7144.67  5.7724739E-01
   7145.00  5.9514262E-01
   7145.33  6.1205301E-01
   7145.67  6.2785797E-01
   7146.00  6.4240741E-01
   7146.33  6.5540648E-01
   7146.67  6.6696087E-01
   7147.00  6.7705518E-01
   7147.33  6.8552651E-01
   7147.67  6.9259996E-01
   7148.00  6.9833201E-01
   7148.33  7.0264955E-01
   7148.67  7.0580871E-01
   7149.00  7.0790201E-01
   7149.33  7.0892390E-01
   7149.67  7.0911098E-01
   7150.00  7.0856716E-01
   7150.33  7.0733146E-01
   7150.67  7.0558185E-01
   7151.00  7.0339497E-01
   7151.33  7.0080416E-01
   7151.67  6.9791960E-01
   7152.00  6.9478588E-01
   7152.33  6.9141557E-01
   7152.67  6.8786149E-01
   7153.00  6.8413824E-01
   7153.33  6.8023520E-01
   7153.67  6.7617604E-01
   7154.00  6.7196190E-01
   7154.33  6.6757482E-01
   7154.67  6.6303894E-01
   7155.00  6.5836318E-01
   7155.33  6.5354789E-01
   7155.67  6.4863124E-01
   7156.00  6.4363871E-01
   7156.33  6.3859987E-01
   7156.67  6.3355711E-01
   7157.00  6.2854255E-01
   7157.33  6.2359865E-01
   7157.67  6.1874567E-01
   7158.00  6.1400011E-01
   7158.33  6.0938546E-01
   7158.67  6.0488520E-01
   7159.00  6.0048963E-01
   7159.33  5.9619017E-01
   7159.67  5.9195090E-01
   7160.00  5.8774820E-01
   7160.33  5.8355564E-01
   7160.67  5.7934501E-01
   7161.00  5.7509361E-01
   7161.33  5.7077046E-01
   7161.67  5.6636466E-01
   7162.00  5.6186266E-01
   7162.33  5.5723705E-01
   7162.67  5.5248971E-01
   7163.00  5.4761129E-01
   7163.33  5.4257290E-01
   7163.67  5.3738169E-01
   7164.00  5.3202956E-01
   7164.33  5.2648689E-01
   7164.67  5.2076823E-01
   7165.00  5.1487012E-01
   7165.33  5.0876808E-01
   7165.67  5.0248595E-01
   7166.00  4.9602793E-01
   7166.33  4.8938154E-01
   7166.67  4.8257969E-01
   7167.00  4.7563579E-01
   7167.33  4.6855301E-01
   7167.67  4.6136823E-01
   7168.00  4.5410227E-01
   7168.33  4.4677472E-01
   7168.67  4.3942186E-01
   7169.00  4.3207093E-01
   7169.33  4.2475704E-01
   7169.67  4.1751507E-01
   7170.00  4.1038517E-01
   7170.33  4.0343850E-01
   7170.67  3.9671830E-01
   7171.00  3.9029934E-01
   7171.33  3.8437219E-01
   7171.67  3.7911870E-01
   7172.00  3.7483882E-01
