    FDMNES
    energy     <xanes>
   7097.00  4.2939973E-03
   7097.33  4.3864865E-03
   7097.67  4.4829410E-03
   7098.00  4.5836318E-03
   7098.33  4.6894826E-03
   7098.67  4.8003131E-03
   7099.00  4.9164990E-03
   7099.33  5.0392624E-03
   7099.67  5.1684292E-03
   7100.00  5.3045379E-03
   7100.33  5.4492571E-03
   7100.67  5.6024480E-03
   7101.00  5.7649116E-03
   7101.33  5.9390152E-03
   7101.67  6.1247188E-03
   7102.00  6.3232688E-03
   7102.33  6.5381830E-03
   7102.67  6.7696638E-03
   7103.00  7.0197589E-03
   7103.33  7.2940004E-03
   7103.67  7.5931729E-03
   7104.00  7.9208724E-03
   7104.33  8.2864381E-03
   7104.67  8.6920954E-03
   7105.00  9.1447130E-03
   7105.33  9.6615581E-03
   7105.67  1.0248688E-02
   7106.00  1.0920749E-02
   7106.33  1.1713752E-02
   7106.67  1.2645238E-02
   7107.00  1.3751483E-02
   7107.33  1.5121301E-02
   7107.67  1.6813499E-02
   7108.00  1.8939694E-02
   7108.33  2.1780676E-02
   7108.67  2.5591971E-02
   7109.00  3.0853673E-02
   7109.33  3.8880685E-02
   7109.67  5.1373331E-02
   7110.00  7.1725069E-02
   7110.33  1.0961768E-01
   7110.67  1.7112339E-01
   7111.00  2.3591446E-01
   7111.33  2.4316529E-01
   7111.67  2.2224841E-01
   7112.00  2.0203799E-01
   7112.33  1.7443866E-01
   7112.67  1.4470423E-01
   7113.00  1.2805826E-01
   7113.33  1.2304190E-01
   7113.67  1.2136269E-01
   7114.00  1.2028978E-01
   7114.33  1.1217649E-01
   7114.67  9.7552915E-02
   7115.00  8.0599409E-02
   7115.33  6.4718657E-02
   7115.67  5.2376143E-02
   7116.00  4.3994787E-02
   7116.33  3.8917216E-02
   7116.67  3.5770155E-02
   7117.00  3.4004143E-02
   7117.33  3.3338258E-02
   7117.67  3.3297149E-02
   7118.00  3.3538589E-02
   7118.33  3.3874104E-02
   7118.67  3.4451128E-02
   7119.00  3.5456307E-02
   7119.33  3.7063872E-02
   7119.67  3.9259410E-02
   7120.00  4.2104498E-02
   7120.33  4.5815175E-02
   7120.67  5.0476383E-02
   7121.00  5.6304458E-02
   7121.33  6.3831180E-02
   7121.67  7.3271803E-02
   7122.00  8.4853959E-02
   7122.33  9.8570990E-02
   7122.67  1.1313436E-01
   7123.00  1.2786662E-01
   7123.33  1.4403505E-01
   7123.67  1.6298013E-01
   7124.00  1.8550633E-01
   7124.33  2.1216686E-01
   7124.67  2.4074411E-01
   7125.00  2.7031613E-01
   7125.33  3.0187191E-01
   7125.67  3.3575509E-01
   7126.00  3.7120302E-01
   7126.33  4.0620990E-01
   7126.67  4.4060818E-01
   7127.00  4.7726340E-01
   7127.33  5.2083738E-01
   7127.67  5.7190768E-01
   7128.00  6.3163080E-01
   7128.33  7.0454385E-01
   7128.67  7.8943123E-01
   7129.00  8.8097497E-01
   7129.33  9.6484097E-01
   7129.67  1.0257677E+00
   7130.00  1.0573792E+00
   7130.33  1.0603000E+00
   7130.67  1.0434036E+00
   7131.00  1.0102443E+00
   7131.33  9.6662222E-01
   7131.67  9.2285948E-01
   7132.00  8.8481050E-01
   7132.33  8.5625348E-01
   7132.67  8.3586892E-01
   7133.00  8.2245789E-01
   7133.33  8.1496473E-01
   7133.67  8.1084866E-01
   7134.00  8.0846021E-01
   7134.33  8.0626446E-01
   7134.67  8.0337072E-01
   7135.00  7.9917639E-01
   7135.33  7.9236152E-01
   7135.67  7.8242012E-01
   7136.00  7.6934353E-01
   7136.33  7.5351699E-01
   7136.67  7.3630961E-01
   7137.00  7.1866504E-01
   7137.33  7.0158083E-01
   7137.67  6.8566713E-01
   7138.00  6.7128682E-01
   7138.33  6.5886482E-01
   7138.67  6.4820453E-01
   7139.00  6.3920672E-01
   7139.33  6.3184777E-01
   7139.67  6.2570329E-01
   7140.00  6.2057021E-01
   7140.33  6.1633952E-01
   7140.67  6.1274000E-01
   7141.00  6.0965556E-01
   7141.33  6.0704108E-01
   7141.67  6.0480263E-01
   7142.00  6.0296327E-01
   7142.33  6.0168421E-01
   7142.67  6.0105661E-01
   7143.00  6.0121840E-01
   7143.33  6.0239204E-01
   7143.67  6.0446085E-01
   7144.00  6.0729127E-01
   7144.33  6.1061562E-01
   7144.67  6.1392869E-01
   7145.00  6.1682771E-01
   7145.33  6.1887736E-01
   7145.67  6.2010217E-01
   7146.00  6.2066893E-01
   7146.33  6.2089245E-01
   7146.67  6.2119162E-01
   7147.00  6.2181583E-01
   7147.33  6.2295086E-01
   7147.67  6.2446673E-01
   7148.00  6.2613039E-01
   7148.33  6.2747915E-01
   7148.67  6.2803840E-01
   7149.00  6.2734628E-01
   7149.33  6.2468272E-01
   7149.67  6.1989199E-01
   7150.00  6.1282186E-01
   7150.33  6.0327372E-01
   7150.67  5.9188276E-01
   7151.00  5.7913865E-01
   7151.33  5.6560820E-01
   7151.67  5.5197361E-01
   7152.00  5.3861405E-01
   7152.33  5.2583992E-01
   7152.67  5.1363242E-01
   7153.00  5.0191148E-01
   7153.33  4.9053595E-01
   7153.67  4.7925166E-01
   7154.00  4.6788936E-01
   7154.33  4.5627446E-01
   7154.67  4.4435713E-01
   7155.00  4.3212305E-01
   7155.33  4.1956619E-01
   7155.67  4.0679287E-01
   7156.00  3.9388763E-01
   7156.33  3.8096247E-01
   7156.67  3.6814332E-01
   7157.00  3.5554036E-01
   7157.33  3.4332504E-01
   7157.67  3.3157704E-01
   7158.00  3.2039183E-01
   7158.33  3.0994385E-01
   7158.67  3.0022126E-01
   7159.00  2.9126820E-01
   7159.33  2.8322319E-01
   7159.67  2.7601629E-01
   7160.00  2.6967443E-01
   7160.33  2.6434430E-01
   7160.67  2.5994998E-01
   7161.00  2.5652036E-01
   7161.33  2.5420155E-01
   7161.67  2.5287461E-01
   7162.00  2.5252546E-01
   7162.33  2.5322520E-01
   7162.67  2.5477369E-01
   7163.00  2.5708675E-01
   7163.33  2.6015041E-01
   7163.67  2.6377342E-01
   7164.00  2.6785762E-01
   7164.33  2.7233758E-01
   7164.67  2.7706177E-01
   7165.00  2.8194563E-01
   7165.33  2.8691714E-01
   7165.67  2.9189984E-01
   7166.00  2.9684813E-01
   7166.33  3.0171408E-01
   7166.67  3.0648322E-01
   7167.00  3.1114650E-01
   7167.33  3.1569184E-01
   7167.67  3.2014318E-01
   7168.00  3.2451567E-01
   7168.33  3.2882442E-01
   7168.67  3.3310047E-01
   7169.00  3.3736370E-01
   7169.33  3.4163594E-01
   7169.67  3.4593141E-01
   7170.00  3.5025568E-01
   7170.33  3.5460629E-01
   7170.67  3.5895570E-01
   7171.00  3.6325775E-01
   7171.33  3.6738641E-01
   7171.67  3.7115018E-01
   7172.00  3.7426420E-01
