    FDMNES
    energy     <xanes>
   7097.00  4.1896997E-03
   7097.33  4.2767721E-03
   7097.67  4.3674124E-03
   7098.00  4.4618545E-03
   7098.33  4.5609133E-03
   7098.67  4.6644130E-03
   7099.00  4.7726752E-03
   7099.33  4.8867663E-03
   7099.67  5.0065121E-03
   7100.00  5.1323685E-03
   7100.33  5.2657757E-03
   7100.67  5.4065826E-03
   7101.00  5.5554605E-03
   7101.33  5.7144274E-03
   7101.67  5.8834049E-03
   7102.00  6.0634256E-03
   7102.33  6.2574480E-03
   7102.67  6.4655768E-03
   7103.00  6.6894878E-03
   7103.33  6.9337648E-03
   7103.67  7.1989566E-03
   7104.00  7.4879644E-03
   7104.33  7.8084005E-03
   7104.67  8.1619080E-03
   7105.00  8.5539397E-03
   7105.33  8.9983038E-03
   7105.67  9.4995242E-03
   7106.00  1.0068997E-02
   7106.33  1.0734863E-02
   7106.67  1.1510114E-02
   7107.00  1.2422249E-02
   7107.33  1.3538603E-02
   7107.67  1.4901699E-02
   7108.00  1.6593064E-02
   7108.33  1.8816543E-02
   7108.67  2.1749001E-02
   7109.00  2.5721782E-02
   7109.33  3.1628120E-02
   7109.67  4.0568035E-02
   7110.00  5.4719524E-02
   7110.33  8.0402118E-02
   7110.67  1.2364633E-01
   7111.00  1.8112469E-01
   7111.33  2.2123184E-01
   7111.67  2.2167341E-01
   7112.00  1.8261201E-01
   7112.33  1.4201347E-01
   7112.67  1.2042675E-01
   7113.00  1.1407532E-01
   7113.33  1.1479120E-01
   7113.67  1.1906238E-01
   7114.00  1.2168553E-01
   7114.33  1.1219895E-01
   7114.67  9.5652983E-02
   7115.00  7.7889491E-02
   7115.33  6.2403807E-02
   7115.67  5.0853105E-02
   7116.00  4.3229884E-02
   7116.33  3.8824120E-02
   7116.67  3.6360384E-02
   7117.00  3.5314852E-02
   7117.33  3.5147261E-02
   7117.67  3.4903874E-02
   7118.00  3.4358778E-02
   7118.33  3.4134183E-02
   7118.67  3.4562241E-02
   7119.00  3.5694944E-02
   7119.33  3.7671017E-02
   7119.67  4.0483506E-02
   7120.00  4.4258261E-02
   7120.33  4.9370735E-02
   7120.67  5.5972654E-02
   7121.00  6.4324460E-02
   7121.33  7.4911071E-02
   7121.67  8.7737472E-02
   7122.00  1.0300182E-01
   7122.33  1.2048547E-01
   7122.67  1.3876473E-01
   7123.00  1.5727795E-01
   7123.33  1.7557479E-01
   7123.67  1.9324869E-01
   7124.00  2.1037923E-01
   7124.33  2.2997548E-01
   7124.67  2.5502119E-01
   7125.00  2.8386869E-01
   7125.33  3.1198666E-01
   7125.67  3.3734098E-01
   7126.00  3.6154762E-01
   7126.33  3.8862284E-01
   7126.67  4.1955382E-01
   7127.00  4.5288822E-01
   7127.33  4.8717937E-01
   7127.67  5.2164524E-01
   7128.00  5.5596813E-01
   7128.33  5.9353860E-01
   7128.67  6.4079989E-01
   7129.00  7.0251670E-01
   7129.33  7.7999892E-01
   7129.67  8.6315731E-01
   7130.00  9.4075917E-01
   7130.33  1.0004657E+00
   7130.67  1.0421485E+00
   7131.00  1.0682636E+00
   7131.33  1.0798016E+00
   7131.67  1.0793280E+00
   7132.00  1.0672821E+00
   7132.33  1.0437072E+00
   7132.67  1.0124205E+00
   7133.00  9.7631541E-01
   7133.33  9.3906456E-01
   7133.67  9.0445359E-01
   7134.00  8.7405263E-01
   7134.33  8.4629495E-01
   7134.67  8.1788296E-01
   7135.00  7.8838944E-01
   7135.33  7.5896085E-01
   7135.67  7.3085334E-01
   7136.00  7.0492963E-01
   7136.33  6.8231761E-01
   7136.67  6.6313817E-01
   7137.00  6.4756903E-01
   7137.33  6.3596896E-01
   7137.67  6.2756317E-01
   7138.00  6.2194803E-01
   7138.33  6.1889199E-01
   7138.67  6.1759854E-01
   7139.00  6.1764608E-01
   7139.33  6.1868619E-01
   7139.67  6.2021806E-01
   7140.00  6.2198369E-01
   7140.33  6.2377615E-01
   7140.67  6.2545084E-01
   7141.00  6.2689522E-01
   7141.33  6.2788392E-01
   7141.67  6.2823583E-01
   7142.00  6.2774418E-01
   7142.33  6.2611161E-01
   7142.67  6.2343908E-01
   7143.00  6.1984294E-01
   7143.33  6.1552882E-01
   7143.67  6.1098518E-01
   7144.00  6.0662121E-01
   7144.33  6.0303346E-01
   7144.67  6.0058794E-01
   7145.00  5.9950606E-01
   7145.33  5.9997682E-01
   7145.67  6.0158210E-01
   7146.00  6.0393662E-01
   7146.33  6.0654009E-01
   7146.67  6.0889722E-01
   7147.00  6.1071154E-01
   7147.33  6.1168421E-01
   7147.67  6.1185354E-01
   7148.00  6.1127140E-01
   7148.33  6.0994726E-01
   7148.67  6.0803170E-01
   7149.00  6.0555557E-01
   7149.33  6.0244940E-01
   7149.67  5.9876267E-01
   7150.00  5.9447099E-01
   7150.33  5.8945083E-01
   7150.67  5.8372597E-01
   7151.00  5.7724437E-01
   7151.33  5.6984440E-01
   7151.67  5.6157356E-01
   7152.00  5.5239937E-01
   7152.33  5.4220112E-01
   7152.67  5.3113224E-01
   7153.00  5.1926444E-01
   7153.33  5.0663085E-01
   7153.67  4.9346323E-01
   7154.00  4.7990040E-01
   7154.33  4.6607140E-01
   7154.67  4.5214518E-01
   7155.00  4.3822009E-01
   7155.33  4.2439547E-01
   7155.67  4.1072626E-01
   7156.00  3.9725974E-01
   7156.33  3.8407948E-01
   7156.67  3.7120771E-01
   7157.00  3.5869409E-01
   7157.33  3.4665117E-01
   7157.67  3.3508840E-01
   7158.00  3.2405920E-01
   7158.33  3.1370088E-01
   7158.67  3.0400657E-01
   7159.00  2.9504241E-01
   7159.33  2.8699880E-01
   7159.67  2.7987204E-01
   7160.00  2.7375008E-01
   7160.33  2.6886653E-01
   7160.67  2.6516172E-01
   7161.00  2.6267993E-01
   7161.33  2.6159390E-01
   7161.67  2.6172555E-01
   7162.00  2.6301538E-01
   7162.33  2.6546765E-01
   7162.67  2.6880304E-01
   7163.00  2.7289549E-01
   7163.33  2.7767640E-01
   7163.67  2.8292823E-01
   7164.00  2.8853379E-01
   7164.33  2.9439905E-01
   7164.67  3.0039426E-01
   7165.00  3.0644279E-01
   7165.33  3.1245744E-01
   7165.67  3.1836353E-01
   7166.00  3.2409887E-01
   7166.33  3.2957173E-01
   7166.67  3.3476345E-01
   7167.00  3.3964737E-01
   7167.33  3.4416959E-01
   7167.67  3.4837253E-01
   7168.00  3.5226758E-01
   7168.33  3.5583885E-01
   7168.67  3.5914501E-01
   7169.00  3.6220483E-01
   7169.33  3.6501010E-01
   7169.67  3.6760645E-01
   7170.00  3.7000604E-01
   7170.33  3.7219655E-01
   7170.67  3.7420799E-01
   7171.00  3.7604131E-01
   7171.33  3.7766323E-01
   7171.67  3.7906422E-01
   7172.00  3.8019207E-01
