    FDMNES
    energy     <xanes>
   7097.00  4.0933983E-03
   7097.33  4.1765444E-03
   7097.67  4.2630099E-03
   7098.00  4.3530079E-03
   7098.33  4.4472892E-03
   7098.67  4.5456843E-03
   7099.00  4.6484853E-03
   7099.33  4.7566703E-03
   7099.67  4.8700699E-03
   7100.00  4.9890968E-03
   7100.33  5.1150656E-03
   7100.67  5.2478261E-03
   7101.00  5.3879837E-03
   7101.33  5.5373722E-03
   7101.67  5.6959042E-03
   7102.00  5.8645082E-03
   7102.33  6.0458604E-03
   7102.67  6.2400345E-03
   7103.00  6.4485328E-03
   7103.33  6.6754849E-03
   7103.67  6.9213568E-03
   7104.00  7.1887433E-03
   7104.33  7.4844766E-03
   7104.67  7.8099934E-03
   7105.00  8.1701609E-03
   7105.33  8.5773336E-03
   7105.67  9.0355072E-03
   7106.00  9.5548400E-03
   7106.33  1.0160449E-02
   7106.67  1.0863860E-02
   7107.00  1.1689564E-02
   7107.33  1.2697564E-02
   7107.67  1.3925664E-02
   7108.00  1.5446437E-02
   7108.33  1.7441380E-02
   7108.67  2.0067823E-02
   7109.00  2.3620579E-02
   7109.33  2.8894237E-02
   7109.67  3.6866538E-02
   7110.00  4.9474030E-02
   7110.33  7.2358773E-02
   7110.67  1.1115791E-01
   7111.00  1.6390247E-01
   7111.33  1.9951991E-01
   7111.67  1.9345068E-01
   7112.00  1.5771937E-01
   7112.33  1.2391534E-01
   7112.67  1.0616815E-01
   7113.00  1.0202752E-01
   7113.33  1.0463390E-01
   7113.67  1.0959628E-01
   7114.00  1.1242693E-01
   7114.33  1.0587969E-01
   7114.67  9.3627700E-02
   7115.00  7.9603172E-02
   7115.33  6.4694240E-02
   7115.67  5.2045971E-02
   7116.00  4.3345003E-02
   7116.33  3.8247993E-02
   7116.67  3.5180910E-02
   7117.00  3.3425805E-02
   7117.33  3.2515162E-02
   7117.67  3.2053593E-02
   7118.00  3.1977328E-02
   7118.33  3.2371059E-02
   7118.67  3.3221222E-02
   7119.00  3.4548081E-02
   7119.33  3.6441322E-02
   7119.67  3.8889027E-02
   7120.00  4.1965648E-02
   7120.33  4.5895786E-02
   7120.67  5.0768284E-02
   7121.00  5.6791648E-02
   7121.33  6.4440230E-02
   7121.67  7.3826032E-02
   7122.00  8.5131802E-02
   7122.33  9.8409792E-02
   7122.67  1.1256620E-01
   7123.00  1.2712721E-01
   7123.33  1.4328961E-01
   7123.67  1.6203708E-01
   7124.00  1.8408075E-01
   7124.33  2.0966532E-01
   7124.67  2.3654916E-01
   7125.00  2.6421463E-01
   7125.33  2.9416473E-01
   7125.67  3.2716746E-01
   7126.00  3.6291430E-01
   7126.33  3.9971462E-01
   7126.67  4.3575018E-01
   7127.00  4.7154300E-01
   7127.33  5.1058482E-01
   7127.67  5.5589860E-01
   7128.00  6.0951630E-01
   7128.33  6.7522687E-01
   7128.67  7.5157967E-01
   7129.00  8.3349952E-01
   7129.33  9.0897772E-01
   7129.67  9.6688864E-01
   7130.00  1.0023318E+00
   7130.33  1.0125618E+00
   7130.67  1.0016809E+00
   7131.00  9.7288715E-01
   7131.33  9.3394449E-01
   7131.67  8.9611064E-01
   7132.00  8.6473540E-01
   7132.33  8.4256891E-01
   7132.67  8.2764252E-01
   7133.00  8.1844306E-01
   7133.33  8.1351161E-01
   7133.67  8.1053658E-01
   7134.00  8.0837171E-01
   7134.33  8.0649872E-01
   7134.67  8.0451707E-01
   7135.00  8.0152017E-01
   7135.33  7.9576979E-01
   7135.67  7.8668864E-01
   7136.00  7.7425463E-01
   7136.33  7.5877427E-01
   7136.67  7.4162730E-01
   7137.00  7.2378483E-01
   7137.33  7.0629385E-01
   7137.67  6.8987286E-01
   7138.00  6.7495058E-01
   7138.33  6.6201803E-01
   7138.67  6.5092688E-01
   7139.00  6.4162487E-01
   7139.33  6.3416931E-01
   7139.67  6.2815641E-01
   7140.00  6.2340237E-01
   7140.33  6.1983598E-01
   7140.67  6.1714738E-01
   7141.00  6.1520313E-01
   7141.33  6.1394823E-01
   7141.67  6.1321564E-01
   7142.00  6.1297634E-01
   7142.33  6.1332580E-01
   7142.67  6.1427969E-01
   7143.00  6.1591517E-01
   7143.33  6.1836627E-01
   7143.67  6.2147183E-01
   7144.00  6.2503878E-01
   7144.33  6.2869176E-01
   7144.67  6.3193754E-01
   7145.00  6.3440506E-01
   7145.33  6.3574974E-01
   7145.67  6.3617684E-01
   7146.00  6.3597248E-01
   7146.33  6.3557835E-01
   7146.67  6.3544836E-01
   7147.00  6.3583079E-01
   7147.33  6.3687459E-01
   7147.67  6.3834006E-01
   7148.00  6.3993944E-01
   7148.33  6.4116792E-01
   7148.67  6.4152265E-01
   7149.00  6.4053027E-01
   7149.33  6.3748036E-01
   7149.67  6.3227674E-01
   7150.00  6.2482158E-01
   7150.33  6.1499137E-01
   7150.67  6.0344130E-01
   7151.00  5.9063718E-01
   7151.33  5.7707566E-01
   7151.67  5.6335264E-01
   7152.00  5.4979029E-01
   7152.33  5.3665151E-01
   7152.67  5.2394695E-01
   7153.00  5.1162484E-01
   7153.33  4.9958951E-01
   7153.67  4.8766101E-01
   7154.00  4.7572591E-01
   7154.33  4.6367464E-01
   7154.67  4.5147154E-01
   7155.00  4.3911248E-01
   7155.33  4.2661245E-01
   7155.67  4.1404530E-01
   7156.00  4.0147546E-01
   7156.33  3.8899673E-01
   7156.67  3.7668597E-01
   7157.00  3.6461667E-01
   7157.33  3.5290962E-01
   7157.67  3.4159925E-01
   7158.00  3.3074504E-01
   7158.33  3.2047428E-01
   7158.67  3.1077854E-01
   7159.00  3.0170419E-01
   7159.33  2.9338948E-01
   7159.67  2.8580588E-01
   7160.00  2.7900330E-01
   7160.33  2.7314330E-01
   7160.67  2.6817193E-01
   7161.00  2.6412352E-01
   7161.33  2.6113980E-01
   7161.67  2.5910131E-01
   7162.00  2.5797742E-01
   7162.33  2.5781092E-01
   7162.67  2.5842554E-01
   7163.00  2.5975629E-01
   7163.33  2.6179625E-01
   7163.67  2.6437811E-01
   7164.00  2.6742747E-01
   7164.33  2.7091100E-01
   7164.67  2.7470961E-01
   7165.00  2.7876860E-01
   7165.33  2.8305526E-01
   7165.67  2.8749245E-01
   7166.00  2.9204089E-01
   7166.33  2.9667052E-01
   7166.67  3.0134064E-01
   7167.00  3.0603045E-01
   7167.33  3.1072423E-01
   7167.67  3.1541319E-01
   7168.00  3.2009577E-01
   7168.33  3.2477572E-01
   7168.67  3.2946156E-01
   7169.00  3.3416175E-01
   7169.33  3.3888917E-01
   7169.67  3.4364779E-01
   7170.00  3.4843811E-01
   7170.33  3.5325231E-01
   7170.67  3.5805713E-01
   7171.00  3.6279950E-01
   7171.33  3.6733803E-01
   7171.67  3.7146530E-01
   7172.00  3.7487280E-01
