    FDMNES
    energy     <xanes>
   7097.00  4.3550153E-03
   7097.33  4.4411114E-03
   7097.67  4.5303897E-03
   7098.00  4.6230323E-03
   7098.33  4.7197216E-03
   7098.67  4.8202645E-03
   7099.00  4.9249032E-03
   7099.33  5.0345000E-03
   7099.67  5.1488516E-03
   7100.00  5.2682887E-03
   7100.33  5.3939314E-03
   7100.67  5.5255765E-03
   7101.00  5.6636924E-03
   7101.33  5.8097834E-03
   7101.67  5.9636719E-03
   7102.00  6.1260511E-03
   7102.33  6.2990276E-03
   7102.67  6.4825095E-03
   7103.00  6.6775784E-03
   7103.33  6.8873476E-03
   7103.67  7.1119532E-03
   7104.00  7.3531998E-03
   7104.33  7.6160177E-03
   7104.67  7.9011299E-03
   7105.00  8.2118148E-03
   7105.33  8.5566205E-03
   7105.67  8.9378451E-03
   7106.00  9.3621417E-03
   7106.33  9.8462459E-03
   7106.67  1.0397122E-02
   7107.00  1.1030454E-02
   7107.33  1.1785022E-02
   7107.67  1.2684128E-02
   7108.00  1.3773566E-02
   7108.33  1.5168322E-02
   7108.67  1.6966471E-02
   7109.00  1.9353392E-02
   7109.33  2.2830552E-02
   7109.67  2.8016686E-02
   7110.00  3.6140601E-02
   7110.33  5.0736227E-02
   7110.67  7.4720181E-02
   7111.00  1.0418388E-01
   7111.33  1.2045081E-01
   7111.67  1.2162559E-01
   7112.00  1.1147668E-01
   7112.33  1.0090570E-01
   7112.67  9.7748750E-02
   7113.00  9.7853339E-02
   7113.33  9.0668920E-02
   7113.67  7.9042995E-02
   7114.00  6.8371754E-02
   7114.33  6.0053677E-02
   7114.67  5.3990218E-02
   7115.00  5.0109424E-02
   7115.33  4.8054134E-02
   7115.67  4.7151907E-02
   7116.00  4.7159019E-02
   7116.33  4.7999735E-02
   7116.67  4.9520607E-02
   7117.00  5.1742782E-02
   7117.33  5.4873714E-02
   7117.67  5.9008805E-02
   7118.00  6.4350958E-02
   7118.33  7.1066523E-02
   7118.67  7.8317147E-02
   7119.00  8.5377712E-02
   7119.33  9.2871390E-02
   7119.67  1.0222690E-01
   7120.00  1.1437493E-01
   7120.33  1.3054111E-01
   7120.67  1.5110325E-01
   7121.00  1.7692241E-01
   7121.33  2.0993929E-01
   7121.67  2.5033964E-01
   7122.00  2.9833709E-01
   7122.33  3.5349122E-01
   7122.67  4.1202804E-01
   7123.00  4.7080289E-01
   7123.33  5.2685342E-01
   7123.67  5.7987252E-01
   7124.00  6.3041255E-01
   7124.33  6.7865181E-01
   7124.67  7.2395143E-01
   7125.00  7.6465190E-01
   7125.33  7.9780933E-01
   7125.67  8.2151527E-01
   7126.00  8.3275846E-01
   7126.33  8.2865660E-01
   7126.67  8.1437166E-01
   7127.00  7.9448894E-01
   7127.33  7.7302299E-01
   7127.67  7.5245742E-01
   7128.00  7.3380582E-01
   7128.33  7.1783647E-01
   7128.67  7.0395693E-01
   7129.00  6.9151704E-01
   7129.33  6.7964435E-01
   7129.67  6.6772923E-01
   7130.00  6.5631428E-01
   7130.33  6.4728415E-01
   7130.67  6.4178175E-01
   7131.00  6.4024872E-01
   7131.33  6.4302849E-01
   7131.67  6.4917363E-01
   7132.00  6.5789687E-01
   7132.33  6.6753948E-01
   7132.67  6.7579730E-01
   7133.00  6.8145768E-01
   7133.33  6.8416751E-01
   7133.67  6.8512113E-01
   7134.00  6.8508880E-01
   7134.33  6.8449890E-01
   7134.67  6.8341755E-01
   7135.00  6.8156799E-01
   7135.33  6.7832529E-01
   7135.67  6.7338078E-01
   7136.00  6.6645062E-01
   7136.33  6.5714669E-01
   7136.67  6.4583035E-01
   7137.00  6.3272128E-01
   7137.33  6.1798365E-01
   7137.67  6.0218667E-01
   7138.00  5.8567976E-01
   7138.33  5.6884911E-01
   7138.67  5.5216260E-01
   7139.00  5.3599173E-01
   7139.33  5.2091966E-01
   7139.67  5.0726293E-01
   7140.00  4.9527671E-01
   7140.33  4.8538377E-01
   7140.67  4.7745739E-01
   7141.00  4.7151751E-01
   7141.33  4.6775808E-01
   7141.67  4.6583483E-01
   7142.00  4.6562148E-01
   7142.33  4.6712108E-01
   7142.67  4.6992843E-01
   7143.00  4.7385086E-01
   7143.33  4.7877973E-01
   7143.67  4.8439704E-01
   7144.00  4.9054088E-01
   7144.33  4.9708306E-01
   7144.67  5.0381683E-01
   7145.00  5.1060343E-01
   7145.33  5.1726293E-01
   7145.67  5.2363708E-01
   7146.00  5.2957382E-01
   7146.33  5.3481900E-01
   7146.67  5.3927674E-01
   7147.00  5.4280371E-01
   7147.33  5.4509638E-01
   7147.67  5.4611478E-01
   7148.00  5.4569168E-01
   7148.33  5.4341797E-01
   7148.67  5.3932083E-01
   7149.00  5.3330643E-01
   7149.33  5.2513752E-01
   7149.67  5.1520926E-01
   7150.00  5.0378040E-01
   7150.33  4.9112448E-01
   7150.67  4.7784025E-01
   7151.00  4.6431377E-01
   7151.33  4.5095285E-01
   7151.67  4.3803918E-01
   7152.00  4.2575568E-01
   7152.33  4.1433437E-01
   7152.67  4.0374778E-01
   7153.00  3.9401139E-01
   7153.33  3.8521403E-01
   7153.67  3.7721379E-01
   7154.00  3.6996748E-01
   7154.33  3.6350321E-01
   7154.67  3.5766971E-01
   7155.00  3.5240821E-01
   7155.33  3.4770968E-01
   7155.67  3.4343921E-01
   7156.00  3.3953587E-01
   7156.33  3.3596741E-01
   7156.67  3.3262910E-01
   7157.00  3.2946850E-01
   7157.33  3.2645470E-01
   7157.67  3.2354227E-01
   7158.00  3.2072119E-01
   7158.33  3.1800979E-01
   7158.67  3.1542021E-01
   7159.00  3.1298763E-01
   7159.33  3.1079386E-01
   7159.67  3.0886992E-01
   7160.00  3.0726252E-01
   7160.33  3.0606860E-01
   7160.67  3.0528615E-01
   7161.00  3.0494513E-01
   7161.33  3.0512786E-01
   7161.67  3.0578844E-01
   7162.00  3.0692793E-01
   7162.33  3.0858698E-01
   7162.67  3.1067709E-01
   7163.00  3.1317747E-01
   7163.33  3.1611590E-01
   7163.67  3.1942266E-01
   7164.00  3.2308034E-01
   7164.33  3.2711222E-01
   7164.67  3.3146062E-01
   7165.00  3.3611313E-01
   7165.33  3.4109287E-01
   7165.67  3.4635042E-01
   7166.00  3.5187366E-01
   7166.33  3.5767828E-01
   7166.67  3.6371474E-01
   7167.00  3.6996429E-01
   7167.33  3.7642514E-01
   7167.67  3.8304441E-01
   7168.00  3.8979285E-01
   7168.33  3.9664288E-01
   7168.67  4.0353878E-01
   7169.00  4.1043793E-01
   7169.33  4.1728001E-01
   7169.67  4.2401296E-01
   7170.00  4.3058308E-01
   7170.33  4.3689497E-01
   7170.67  4.4290327E-01
   7171.00  4.4853325E-01
   7171.33  4.5360917E-01
   7171.67  4.5801809E-01
   7172.00  4.6155331E-01
