    FDMNES
    energy     <xanes>
   7097.00  4.3638803E-03
   7097.33  4.4593869E-03
   7097.67  4.5589960E-03
   7098.00  4.6629806E-03
   7098.33  4.7722833E-03
   7098.67  4.8867052E-03
   7099.00  5.0066196E-03
   7099.33  5.1332583E-03
   7099.67  5.2664205E-03
   7100.00  5.4066309E-03
   7100.33  5.5555455E-03
   7100.67  5.7129825E-03
   7101.00  5.8797047E-03
   7101.33  6.0580139E-03
   7101.67  6.2477946E-03
   7102.00  6.4502010E-03
   7102.33  6.6685631E-03
   7102.67  6.9029377E-03
   7103.00  7.1551565E-03
   7103.33  7.4302804E-03
   7103.67  7.7287817E-03
   7104.00  8.0537434E-03
   7104.33  8.4133444E-03
   7104.67  8.8090647E-03
   7105.00  9.2464921E-03
   7105.33  9.7399273E-03
   7105.67  1.0293428E-02
   7106.00  1.0918148E-02
   7106.33  1.1641845E-02
   7106.67  1.2475855E-02
   7107.00  1.3445578E-02
   7107.33  1.4613343E-02
   7107.67  1.6014576E-02
   7108.00  1.7719316E-02
   7108.33  1.9901565E-02
   7108.67  2.2699504E-02
   7109.00  2.6373927E-02
   7109.33  3.1616528E-02
   7109.67  3.9224099E-02
   7110.00  5.0764037E-02
   7110.33  7.0743009E-02
   7110.67  1.0361678E-01
   7111.00  1.4833455E-01
   7111.33  1.8431625E-01
   7111.67  2.0507665E-01
   7112.00  2.2665344E-01
   7112.33  2.5303491E-01
   7112.67  2.6845627E-01
   7113.00  2.7025522E-01
   7113.33  2.6568512E-01
   7113.67  2.4444674E-01
   7114.00  2.0185645E-01
   7114.33  1.5577225E-01
   7114.67  1.2041301E-01
   7115.00  9.6976594E-02
   7115.33  8.2965211E-02
   7115.67  7.4090818E-02
   7116.00  6.8655311E-02
   7116.33  6.5833612E-02
   7116.67  6.4732990E-02
   7117.00  6.5029888E-02
   7117.33  6.6552702E-02
   7117.67  6.8870223E-02
   7118.00  7.1783151E-02
   7118.33  7.5271778E-02
   7118.67  7.9309812E-02
   7119.00  8.3957365E-02
   7119.33  8.9384694E-02
   7119.67  9.5634769E-02
   7120.00  1.0287822E-01
   7120.33  1.1148516E-01
   7120.67  1.2141766E-01
   7121.00  1.3262286E-01
   7121.33  1.4508773E-01
   7121.67  1.5865972E-01
   7122.00  1.7355406E-01
   7122.33  1.9038720E-01
   7122.67  2.0929479E-01
   7123.00  2.3044080E-01
   7123.33  2.5411201E-01
   7123.67  2.7984418E-01
   7124.00  3.0707635E-01
   7124.33  3.3358575E-01
   7124.67  3.5541829E-01
   7125.00  3.6948720E-01
   7125.33  3.7403784E-01
   7125.67  3.7194828E-01
   7126.00  3.6695403E-01
   7126.33  3.6487380E-01
   7126.67  3.6817866E-01
   7127.00  3.7666489E-01
   7127.33  3.8929479E-01
   7127.67  4.0397287E-01
   7128.00  4.1989628E-01
   7128.33  4.3764611E-01
   7128.67  4.5855515E-01
   7129.00  4.8402889E-01
   7129.33  5.1508611E-01
   7129.67  5.4961788E-01
   7130.00  5.8547120E-01
   7130.33  6.2011293E-01
   7130.67  6.5184079E-01
   7131.00  6.7946201E-01
   7131.33  7.0142404E-01
   7131.67  7.1816063E-01
   7132.00  7.3006678E-01
   7132.33  7.3732347E-01
   7132.67  7.4101338E-01
   7133.00  7.4158519E-01
   7133.33  7.3990704E-01
   7133.67  7.3822254E-01
   7134.00  7.3768048E-01
   7134.33  7.3731286E-01
   7134.67  7.3494014E-01
   7135.00  7.2949958E-01
   7135.33  7.2079561E-01
   7135.67  7.1023386E-01
   7136.00  6.9878583E-01
   7136.33  6.8730881E-01
   7136.67  6.7636065E-01
   7137.00  6.6623195E-01
   7137.33  6.5723066E-01
   7137.67  6.4929110E-01
   7138.00  6.4239510E-01
   7138.33  6.3659002E-01
   7138.67  6.3165038E-01
   7139.00  6.2748032E-01
   7139.33  6.2405939E-01
   7139.67  6.2122073E-01
   7140.00  6.1891340E-01
   7140.33  6.1716332E-01
   7140.67  6.1589279E-01
   7141.00  6.1509915E-01
   7141.33  6.1484639E-01
   7141.67  6.1508021E-01
   7142.00  6.1580165E-01
   7142.33  6.1706905E-01
   7142.67  6.1882111E-01
   7143.00  6.2105764E-01
   7143.33  6.2383551E-01
   7143.67  6.2708506E-01
   7144.00  6.3079187E-01
   7144.33  6.3498504E-01
   7144.67  6.3957506E-01
   7145.00  6.4452063E-01
   7145.33  6.4978897E-01
   7145.67  6.5523976E-01
   7146.00  6.6076160E-01
   7146.33  6.6619454E-01
   7146.67  6.7137052E-01
   7147.00  6.7611899E-01
   7147.33  6.8015405E-01
   7147.67  6.8335783E-01
   7148.00  6.8558395E-01
   7148.33  6.8657651E-01
   7148.67  6.8642808E-01
   7149.00  6.8515802E-01
   7149.33  6.8270647E-01
   7149.67  6.7930306E-01
   7150.00  6.7503323E-01
   7150.33  6.6988592E-01
   7150.67  6.6402802E-01
   7151.00  6.5750269E-01
   7151.33  6.5025873E-01
   7151.67  6.4238476E-01
   7152.00  6.3387851E-01
   7152.33  6.2465891E-01
   7152.67  6.1481258E-01
   7153.00  6.0435872E-01
   7153.33  5.9326887E-01
   7153.67  5.8167157E-01
   7154.00  5.6962586E-01
   7154.33  5.5716315E-01
   7154.67  5.4441418E-01
   7155.00  5.3145453E-01
   7155.33  5.1836023E-01
   7155.67  5.0523964E-01
   7156.00  4.9217137E-01
   7156.33  4.7926508E-01
   7156.67  4.6659661E-01
   7157.00  4.5424797E-01
   7157.33  4.4236642E-01
   7157.67  4.3099346E-01
   7158.00  4.2020604E-01
   7158.33  4.1016916E-01
   7158.67  4.0086659E-01
   7159.00  3.9234067E-01
   7159.33  3.8471974E-01
   7159.67  3.7790690E-01
   7160.00  3.7188633E-01
   7160.33  3.6671368E-01
   7160.67  3.6223968E-01
   7161.00  3.5840795E-01
   7161.33  3.5521606E-01
   7161.67  3.5251733E-01
   7162.00  3.5025115E-01
   7162.33  3.4839955E-01
   7162.67  3.4686139E-01
   7163.00  3.4559807E-01
   7163.33  3.4460515E-01
   7163.67  3.4382859E-01
   7164.00  3.4325520E-01
   7164.33  3.4290111E-01
   7164.67  3.4273936E-01
   7165.00  3.4277059E-01
   7165.33  3.4302104E-01
   7165.67  3.4346774E-01
   7166.00  3.4411058E-01
   7166.33  3.4497104E-01
   7166.67  3.4601969E-01
   7167.00  3.4725035E-01
   7167.33  3.4867516E-01
   7167.67  3.5026045E-01
   7168.00  3.5199497E-01
   7168.33  3.5388369E-01
   7168.67  3.5589877E-01
   7169.00  3.5803257E-01
   7169.33  3.6029244E-01
   7169.67  3.6265899E-01
   7170.00  3.6512674E-01
   7170.33  3.6769621E-01
   7170.67  3.7033501E-01
   7171.00  3.7300882E-01
   7171.33  3.7563445E-01
   7171.67  3.7806244E-01
   7172.00  3.8008119E-01
