    FDMNES
    energy     <xanes>
   7097.00  4.2202916E-03
   7097.33  4.3057201E-03
   7097.67  4.3945215E-03
   7098.00  4.4869083E-03
   7098.33  4.5836360E-03
   7098.67  4.6845268E-03
   7099.00  4.7898698E-03
   7099.33  4.9006441E-03
   7099.67  5.0166690E-03
   7100.00  5.1383506E-03
   7100.33  5.2669960E-03
   7100.67  5.4024395E-03
   7101.00  5.5452726E-03
   7101.33  5.6973046E-03
   7101.67  5.8584247E-03
   7102.00  6.0295328E-03
   7102.33  6.2132465E-03
   7102.67  6.4096006E-03
   7103.00  6.6200378E-03
   7103.33  6.8485582E-03
   7103.67  7.0955537E-03
   7104.00  7.3634927E-03
   7104.33  7.6589200E-03
   7104.67  7.9831124E-03
   7105.00  8.3406496E-03
   7105.33  8.7432180E-03
   7105.67  9.1944148E-03
   7106.00  9.7036746E-03
   7106.33  1.0294404E-02
   7106.67  1.0976950E-02
   7107.00  1.1773687E-02
   7107.33  1.2739468E-02
   7107.67  1.3907763E-02
   7108.00  1.5343343E-02
   7108.33  1.7207620E-02
   7108.67  1.9636124E-02
   7109.00  2.2882539E-02
   7109.33  2.7623679E-02
   7109.67  3.4664338E-02
   7110.00  4.5588269E-02
   7110.33  6.5029076E-02
   7110.67  9.8329304E-02
   7111.00  1.4780917E-01
   7111.33  1.9525046E-01
   7111.67  2.0654576E-01
   7112.00  1.7537141E-01
   7112.33  1.3458720E-01
   7112.67  1.0656164E-01
   7113.00  9.1966924E-02
   7113.33  8.9283926E-02
   7113.67  9.4133790E-02
   7114.00  9.9589265E-02
   7114.33  9.3859882E-02
   7114.67  8.1418489E-02
   7115.00  6.9744598E-02
   7115.33  6.2295551E-02
   7115.67  5.7915630E-02
   7116.00  5.5646524E-02
   7116.33  5.4805797E-02
   7116.67  5.4617319E-02
   7117.00  5.4686131E-02
   7117.33  5.4790408E-02
   7117.67  5.4991027E-02
   7118.00  5.5488483E-02
   7118.33  5.6604067E-02
   7118.67  5.8446349E-02
   7119.00  6.1076410E-02
   7119.33  6.4597692E-02
   7119.67  6.8936915E-02
   7120.00  7.4199537E-02
   7120.33  8.0789070E-02
   7120.67  8.8918621E-02
   7121.00  9.8916530E-02
   7121.33  1.1144622E-01
   7121.67  1.2667874E-01
   7122.00  1.4509002E-01
   7122.33  1.6761773E-01
   7122.67  1.9378933E-01
   7123.00  2.2279542E-01
   7123.33  2.5250692E-01
   7123.67  2.7975836E-01
   7124.00  3.0223176E-01
   7124.33  3.1810738E-01
   7124.67  3.2884787E-01
   7125.00  3.3596989E-01
   7125.33  3.4168218E-01
   7125.67  3.4862704E-01
   7126.00  3.5857012E-01
   7126.33  3.7340058E-01
   7126.67  3.9323334E-01
   7127.00  4.1825519E-01
   7127.33  4.4870399E-01
   7127.67  4.8277766E-01
   7128.00  5.2003693E-01
   7128.33  5.6334357E-01
   7128.67  6.1578182E-01
   7129.00  6.7948655E-01
   7129.33  7.5527192E-01
   7129.67  8.3731285E-01
   7130.00  9.1878003E-01
   7130.33  9.8869040E-01
   7130.67  1.0399228E+00
   7131.00  1.0683391E+00
   7131.33  1.0695747E+00
   7131.67  1.0478928E+00
   7132.00  1.0068537E+00
   7132.33  9.5281567E-01
   7132.67  8.9674218E-01
   7133.00  8.4539024E-01
   7133.33  8.0462986E-01
   7133.67  7.7501943E-01
   7134.00  7.5643452E-01
   7134.33  7.4858475E-01
   7134.67  7.4768271E-01
   7135.00  7.5102477E-01
   7135.33  7.5576227E-01
   7135.67  7.5947848E-01
   7136.00  7.6099746E-01
   7136.33  7.5940016E-01
   7136.67  7.5512578E-01
   7137.00  7.4862457E-01
   7137.33  7.4044966E-01
   7137.67  7.3151783E-01
   7138.00  7.2229581E-01
   7138.33  7.1312897E-01
   7138.67  7.0422094E-01
   7139.00  6.9569085E-01
   7139.33  6.8770694E-01
   7139.67  6.8029940E-01
   7140.00  6.7353316E-01
   7140.33  6.6754732E-01
   7140.67  6.6227235E-01
   7141.00  6.5769107E-01
   7141.33  6.5383278E-01
   7141.67  6.5054978E-01
   7142.00  6.4777261E-01
   7142.33  6.4546622E-01
   7142.67  6.4350417E-01
   7143.00  6.4183876E-01
   7143.33  6.4046008E-01
   7143.67  6.3929889E-01
   7144.00  6.3831666E-01
   7144.33  6.3746409E-01
   7144.67  6.3663542E-01
   7145.00  6.3572807E-01
   7145.33  6.3456864E-01
   7145.67  6.3301994E-01
   7146.00  6.3093428E-01
   7146.33  6.2806173E-01
   7146.67  6.2436219E-01
   7147.00  6.1976734E-01
   7147.33  6.1412163E-01
   7147.67  6.0754171E-01
   7148.00  6.0005944E-01
   7148.33  5.9164297E-01
   7148.67  5.8249261E-01
   7149.00  5.7270061E-01
   7149.33  5.6231211E-01
   7149.67  5.5150525E-01
   7150.00  5.4037457E-01
   7150.33  5.2899644E-01
   7150.67  5.1749075E-01
   7151.00  5.0592655E-01
   7151.33  4.9437156E-01
   7151.67  4.8287617E-01
   7152.00  4.7147215E-01
   7152.33  4.6018942E-01
   7152.67  4.4900348E-01
   7153.00  4.3789224E-01
   7153.33  4.2682486E-01
   7153.67  4.1574468E-01
   7154.00  4.0459476E-01
   7154.33  3.9327711E-01
   7154.67  3.8172629E-01
   7155.00  3.6988332E-01
   7155.33  3.5767732E-01
   7155.67  3.4518432E-01
   7156.00  3.3249813E-01
   7156.33  3.1978744E-01
   7156.67  3.0726447E-01
   7157.00  2.9511221E-01
   7157.33  2.8359134E-01
   7157.67  2.7278532E-01
   7158.00  2.6279583E-01
   7158.33  2.5382343E-01
   7158.67  2.4581555E-01
   7159.00  2.3880793E-01
   7159.33  2.3295801E-01
   7159.67  2.2815839E-01
   7160.00  2.2442526E-01
   7160.33  2.2191267E-01
   7160.67  2.2050339E-01
   7161.00  2.2021208E-01
   7161.33  2.2118904E-01
   7161.67  2.2328219E-01
   7162.00  2.2646511E-01
   7162.33  2.3081279E-01
   7162.67  2.3610807E-01
   7163.00  2.4226251E-01
   7163.33  2.4924520E-01
   7163.67  2.5681544E-01
   7164.00  2.6483433E-01
   7164.33  2.7317782E-01
   7164.67  2.8166323E-01
   7165.00  2.9018275E-01
   7165.33  2.9862889E-01
   7165.67  3.0693870E-01
   7166.00  3.1507101E-01
   7166.33  3.2296993E-01
   7166.67  3.3064387E-01
   7167.00  3.3808339E-01
   7167.33  3.4525128E-01
   7167.67  3.5217273E-01
   7168.00  3.5884461E-01
   7168.33  3.6523427E-01
   7168.67  3.7137457E-01
   7169.00  3.7726878E-01
   7169.33  3.8289250E-01
   7169.67  3.8828197E-01
   7170.00  3.9344148E-01
   7170.33  3.9834422E-01
   7170.67  4.0301128E-01
   7171.00  4.0742050E-01
   7171.33  4.1146856E-01
   7171.67  4.1505582E-01
   7172.00  4.1798544E-01
