    FDMNES
    energy     <xanes>
   7097.00  4.4203396E-03
   7097.33  4.5101971E-03
   7097.67  4.6035393E-03
   7098.00  4.7005761E-03
   7098.33  4.8020717E-03
   7098.67  4.9078281E-03
   7099.00  5.0181266E-03
   7099.33  5.1339433E-03
   7099.67  5.2550713E-03
   7100.00  5.3818983E-03
   7100.33  5.5157058E-03
   7100.67  5.6562912E-03
   7101.00  5.8042078E-03
   7101.33  5.9611946E-03
   7101.67  6.1270842E-03
   7102.00  6.3026999E-03
   7102.33  6.4905010E-03
   7102.67  6.6904263E-03
   7103.00  6.9037652E-03
   7103.33  7.1341799E-03
   7103.67  7.3818834E-03
   7104.00  7.6490276E-03
   7104.33  7.9414382E-03
   7104.67  8.2600202E-03
   7105.00  8.6086678E-03
   7105.33  8.9974810E-03
   7105.67  9.4291907E-03
   7106.00  9.9116296E-03
   7106.33  1.0464445E-02
   7106.67  1.1095686E-02
   7107.00  1.1823536E-02
   7107.33  1.2692854E-02
   7107.67  1.3729911E-02
   7108.00  1.4986544E-02
   7108.33  1.6592357E-02
   7108.67  1.8654549E-02
   7109.00  2.1375481E-02
   7109.33  2.5297319E-02
   7109.67  3.1068097E-02
   7110.00  3.9969554E-02
   7110.33  5.5733482E-02
   7110.67  8.2239318E-02
   7111.00  1.1898317E-01
   7111.33  1.4568485E-01
   7111.67  1.4634322E-01
   7112.00  1.3245386E-01
   7112.33  1.2684220E-01
   7112.67  1.3537587E-01
   7113.00  1.4507904E-01
   7113.33  1.3331172E-01
   7113.67  1.0913441E-01
   7114.00  8.7284209E-02
   7114.33  7.3538842E-02
   7114.67  6.5393778E-02
   7115.00  6.1201606E-02
   7115.33  6.0012276E-02
   7115.67  6.0739042E-02
   7116.00  6.3034542E-02
   7116.33  6.6909524E-02
   7116.67  7.2168533E-02
   7117.00  7.8838271E-02
   7117.33  8.7184256E-02
   7117.67  9.7221935E-02
   7118.00  1.0925214E-01
   7118.33  1.2399506E-01
   7118.67  1.4146463E-01
   7119.00  1.6168253E-01
   7119.33  1.8459378E-01
   7119.67  2.0940941E-01
   7120.00  2.3586082E-01
   7120.33  2.6337549E-01
   7120.67  2.8986791E-01
   7121.00  3.1315911E-01
   7121.33  3.3133267E-01
   7121.67  3.4547332E-01
   7122.00  3.5687684E-01
   7122.33  3.6708707E-01
   7122.67  3.7768791E-01
   7123.00  3.8945203E-01
   7123.33  4.0264411E-01
   7123.67  4.1656437E-01
   7124.00  4.3054697E-01
   7124.33  4.4374087E-01
   7124.67  4.5560915E-01
   7125.00  4.6581967E-01
   7125.33  4.7430241E-01
   7125.67  4.8211165E-01
   7126.00  4.9033176E-01
   7126.33  5.0014160E-01
   7126.67  5.1154214E-01
   7127.00  5.2392236E-01
   7127.33  5.3598813E-01
   7127.67  5.4649272E-01
   7128.00  5.5466185E-01
   7128.33  5.5963553E-01
   7128.67  5.6162230E-01
   7129.00  5.6107281E-01
   7129.33  5.5945629E-01
   7129.67  5.5894966E-01
   7130.00  5.6065638E-01
   7130.33  5.6493635E-01
   7130.67  5.7082285E-01
   7131.00  5.7765998E-01
   7131.33  5.8496357E-01
   7131.67  5.9239842E-01
   7132.00  5.9983747E-01
   7132.33  6.0717978E-01
   7132.67  6.1435624E-01
   7133.00  6.2128153E-01
   7133.33  6.2793422E-01
   7133.67  6.3475515E-01
   7134.00  6.4245538E-01
   7134.33  6.5200375E-01
   7134.67  6.6337258E-01
   7135.00  6.7628127E-01
   7135.33  6.9032869E-01
   7135.67  7.0479688E-01
   7136.00  7.1919896E-01
   7136.33  7.3296832E-01
   7136.67  7.4571311E-01
   7137.00  7.5700996E-01
   7137.33  7.6606572E-01
   7137.67  7.7257346E-01
   7138.00  7.7610849E-01
   7138.33  7.7590478E-01
   7138.67  7.7225590E-01
   7139.00  7.6526827E-01
   7139.33  7.5492008E-01
   7139.67  7.4211782E-01
   7140.00  7.2739681E-01
   7140.33  7.1123232E-01
   7140.67  6.9437116E-01
   7141.00  6.7724628E-01
   7141.33  6.6028217E-01
   7141.67  6.4376412E-01
   7142.00  6.2787860E-01
   7142.33  6.1286799E-01
   7142.67  5.9872012E-01
   7143.00  5.8547306E-01
   7143.33  5.7325637E-01
   7143.67  5.6195027E-01
   7144.00  5.5153956E-01
   7144.33  5.4209073E-01
   7144.67  5.3342378E-01
   7145.00  5.2547026E-01
   7145.33  5.1824080E-01
   7145.67  5.1159397E-01
   7146.00  5.0548214E-01
   7146.33  4.9991315E-01
   7146.67  4.9477735E-01
   7147.00  4.9003535E-01
   7147.33  4.8568878E-01
   7147.67  4.8165652E-01
   7148.00  4.7791141E-01
   7148.33  4.7446044E-01
   7148.67  4.7125246E-01
   7149.00  4.6827669E-01
   7149.33  4.6555331E-01
   7149.67  4.6305304E-01
   7150.00  4.6077917E-01
   7150.33  4.5876645E-01
   7150.67  4.5699166E-01
   7151.00  4.5545862E-01
   7151.33  4.5419897E-01
   7151.67  4.5317753E-01
   7152.00  4.5238413E-01
   7152.33  4.5182779E-01
   7152.67  4.5146074E-01
   7153.00  4.5125861E-01
   7153.33  4.5119771E-01
   7153.67  4.5122695E-01
   7154.00  4.5132190E-01
   7154.33  4.5145448E-01
   7154.67  4.5158529E-01
   7155.00  4.5168964E-01
   7155.33  4.5173733E-01
   7155.67  4.5171441E-01
   7156.00  4.5160602E-01
   7156.33  4.5139176E-01
   7156.67  4.5108963E-01
   7157.00  4.5071226E-01
   7157.33  4.5027115E-01
   7157.67  4.4979922E-01
   7158.00  4.4932179E-01
   7158.33  4.4886895E-01
   7158.67  4.4846006E-01
   7159.00  4.4810814E-01
   7159.33  4.4782939E-01
   7159.67  4.4761649E-01
   7160.00  4.4746536E-01
   7160.33  4.4737463E-01
   7160.67  4.4732804E-01
   7161.00  4.4731763E-01
   7161.33  4.4733987E-01
   7161.67  4.4738662E-01
   7162.00  4.4745560E-01
   7162.33  4.4754612E-01
   7162.67  4.4765337E-01
   7163.00  4.4777593E-01
   7163.33  4.4791200E-01
   7163.67  4.4805431E-01
   7164.00  4.4819647E-01
   7164.33  4.4832894E-01
   7164.67  4.4844388E-01
   7165.00  4.4853366E-01
   7165.33  4.4858617E-01
   7165.67  4.4859986E-01
   7166.00  4.4857237E-01
   7166.33  4.4849892E-01
   7166.67  4.4838807E-01
   7167.00  4.4824460E-01
   7167.33  4.4807223E-01
   7167.67  4.4788253E-01
   7168.00  4.4768330E-01
   7168.33  4.4748358E-01
   7168.67  4.4729219E-01
   7169.00  4.4711658E-01
   7169.33  4.4696776E-01
   7169.67  4.4684968E-01
   7170.00  4.4676768E-01
   7170.33  4.4673201E-01
   7170.67  4.4674015E-01
   7171.00  4.4679152E-01
   7171.33  4.4688479E-01
   7171.67  4.4699866E-01
   7172.00  4.4710728E-01
