    FDMNES
    energy     <xanes>
   7097.00  4.3270001E-03
   7097.33  4.4246686E-03
   7097.67  4.5268046E-03
   7098.00  4.6337297E-03
   7098.33  4.7465120E-03
   7098.67  4.8649702E-03
   7099.00  4.9895544E-03
   7099.33  5.1216944E-03
   7099.67  5.2612216E-03
   7100.00  5.4087867E-03
   7100.33  5.5663647E-03
   7100.67  5.7338366E-03
   7101.00  5.9121778E-03
   7101.33  6.1042215E-03
   7101.67  6.3099782E-03
   7102.00  6.5309753E-03
   7102.33  6.7714651E-03
   7102.67  7.0317666E-03
   7103.00  7.3144011E-03
   7103.33  7.6261112E-03
   7103.67  7.9679445E-03
   7104.00  8.3443396E-03
   7104.33  8.7667443E-03
   7104.67  9.2379863E-03
   7105.00  9.7665387E-03
   7105.33  1.0373608E-02
   7105.67  1.1066699E-02
   7106.00  1.1863783E-02
   7106.33  1.2808929E-02
   7106.67  1.3923425E-02
   7107.00  1.5251255E-02
   7107.33  1.6899772E-02
   7107.67  1.8938613E-02
   7108.00  2.1499948E-02
   7108.33  2.4914202E-02
   7108.67  2.9472687E-02
   7109.00  3.5719778E-02
   7109.33  4.5126002E-02
   7109.67  5.9520222E-02
   7110.00  8.2528494E-02
   7110.33  1.2472026E-01
   7110.67  1.9636962E-01
   7111.00  2.9116205E-01
   7111.33  3.4300310E-01
   7111.67  3.2824311E-01
   7112.00  2.8319247E-01
   7112.33  2.4177102E-01
   7112.67  2.0344132E-01
   7113.00  1.6585736E-01
   7113.33  1.3232617E-01
   7113.67  1.0536387E-01
   7114.00  8.6511547E-02
   7114.33  7.5677523E-02
   7114.67  6.9908749E-02
   7115.00  6.5819770E-02
   7115.33  5.9881406E-02
   7115.67  5.4800324E-02
   7116.00  5.1870469E-02
   7116.33  4.9300713E-02
   7116.67  4.5884761E-02
   7117.00  4.2555388E-02
   7117.33  4.0431237E-02
   7117.67  3.9494046E-02
   7118.00  3.9606268E-02
   7118.33  4.0760199E-02
   7118.67  4.2810895E-02
   7119.00  4.5777444E-02
   7119.33  4.9779465E-02
   7119.67  5.4724018E-02
   7120.00  6.0825111E-02
   7120.33  6.8910671E-02
   7120.67  7.9617874E-02
   7121.00  9.3681803E-02
   7121.33  1.1093986E-01
   7121.67  1.2617852E-01
   7122.00  1.3386707E-01
   7122.33  1.3448824E-01
   7122.67  1.3424458E-01
   7123.00  1.3471797E-01
   7123.33  1.3635816E-01
   7123.67  1.4042460E-01
   7124.00  1.4851371E-01
   7124.33  1.6266972E-01
   7124.67  1.8298789E-01
   7125.00  2.0976253E-01
   7125.33  2.4349877E-01
   7125.67  2.8140026E-01
   7126.00  3.1896349E-01
   7126.33  3.4757581E-01
   7126.67  3.6437811E-01
   7127.00  3.7137316E-01
   7127.33  3.7068759E-01
   7127.67  3.6647273E-01
   7128.00  3.6357933E-01
   7128.33  3.6679632E-01
   7128.67  3.7654810E-01
   7129.00  3.9318196E-01
   7129.33  4.1752064E-01
   7129.67  4.4786157E-01
   7130.00  4.8338832E-01
   7130.33  5.2443154E-01
   7130.67  5.7091270E-01
   7131.00  6.2353649E-01
   7131.33  6.8354553E-01
   7131.67  7.4815726E-01
   7132.00  8.1019762E-01
   7132.33  8.5094719E-01
   7132.67  8.6224721E-01
   7133.00  8.5365591E-01
   7133.33  8.4708052E-01
   7133.67  8.5522099E-01
   7134.00  8.8084857E-01
   7134.33  9.2677792E-01
   7134.67  9.9200371E-01
   7135.00  1.0773748E+00
   7135.33  1.1790426E+00
   7135.67  1.2701144E+00
   7136.00  1.3111793E+00
   7136.33  1.2611177E+00
   7136.67  1.1539975E+00
   7137.00  1.0322109E+00
   7137.33  9.2811069E-01
   7137.67  8.4639984E-01
   7138.00  7.8437627E-01
   7138.33  7.3903631E-01
   7138.67  7.0447326E-01
   7139.00  6.7821098E-01
   7139.33  6.5909734E-01
   7139.67  6.4511874E-01
   7140.00  6.3563455E-01
   7140.33  6.3072733E-01
   7140.67  6.2969152E-01
   7141.00  6.3245793E-01
   7141.33  6.3941945E-01
   7141.67  6.4991092E-01
   7142.00  6.6354656E-01
   7142.33  6.7981769E-01
   7142.67  6.9722827E-01
   7143.00  7.1445606E-01
   7143.33  7.2952556E-01
   7143.67  7.4101820E-01
   7144.00  7.4783384E-01
   7144.33  7.4863556E-01
   7144.67  7.4415754E-01
   7145.00  7.3496669E-01
   7145.33  7.2164966E-01
   7145.67  7.0587788E-01
   7146.00  6.8866432E-01
   7146.33  6.7098293E-01
   7146.67  6.5368655E-01
   7147.00  6.3727084E-01
   7147.33  6.2226157E-01
   7147.67  6.0868796E-01
   7148.00  5.9659453E-01
   7148.33  5.8609742E-01
   7148.67  5.7686771E-01
   7149.00  5.6871964E-01
   7149.33  5.6150004E-01
   7149.67  5.5482226E-01
   7150.00  5.4842682E-01
   7150.33  5.4201885E-01
   7150.67  5.3533545E-01
   7151.00  5.2817197E-01
   7151.33  5.2022814E-01
   7151.67  5.1141278E-01
   7152.00  5.0161368E-01
   7152.33  4.9063184E-01
   7152.67  4.7859469E-01
   7153.00  4.6553880E-01
   7153.33  4.5144300E-01
   7153.67  4.3657372E-01
   7154.00  4.2110111E-01
   7154.33  4.0522888E-01
   7154.67  3.8929023E-01
   7155.00  3.7353005E-01
   7155.33  3.5827656E-01
   7155.67  3.4371442E-01
   7156.00  3.3001577E-01
   7156.33  3.1746656E-01
   7156.67  3.0605064E-01
   7157.00  2.9582789E-01
   7157.33  2.8698214E-01
   7157.67  2.7935593E-01
   7158.00  2.7292416E-01
   7158.33  2.6778341E-01
   7158.67  2.6373151E-01
   7159.00  2.6071237E-01
   7159.33  2.5877601E-01
   7159.67  2.5772905E-01
   7160.00  2.5750853E-01
   7160.33  2.5813671E-01
   7160.67  2.5945069E-01
   7161.00  2.6139653E-01
   7161.33  2.6399144E-01
   7161.67  2.6711679E-01
   7162.00  2.7074037E-01
   7162.33  2.7489340E-01
   7162.67  2.7949048E-01
   7163.00  2.8449786E-01
   7163.33  2.8989062E-01
   7163.67  2.9551343E-01
   7164.00  3.0123023E-01
   7164.33  3.0683662E-01
   7164.67  3.1214642E-01
   7165.00  3.1701385E-01
   7165.33  3.2125824E-01
   7165.67  3.2491243E-01
   7166.00  3.2800209E-01
   7166.33  3.3054805E-01
   7166.67  3.3272482E-01
   7167.00  3.3463961E-01
   7167.33  3.3639608E-01
   7167.67  3.3812032E-01
   7168.00  3.3989175E-01
   7168.33  3.4180169E-01
   7168.67  3.4389297E-01
   7169.00  3.4620302E-01
   7169.33  3.4879397E-01
   7169.67  3.5165100E-01
   7170.00  3.5477459E-01
   7170.33  3.5817676E-01
   7170.67  3.6178010E-01
   7171.00  3.6551363E-01
   7171.33  3.6923470E-01
   7171.67  3.7269742E-01
   7172.00  3.7558891E-01
