    FDMNES
    energy     <xanes>
   7097.00  4.8925769E-03
   7097.33  5.0087967E-03
   7097.67  5.1302518E-03
   7098.00  5.2572899E-03
   7098.33  5.3911109E-03
   7098.67  5.5314567E-03
   7099.00  5.6787966E-03
   7099.33  5.8346880E-03
   7099.67  5.9988606E-03
   7100.00  6.1719639E-03
   7100.33  6.3560675E-03
   7100.67  6.5509075E-03
   7101.00  6.7574085E-03
   7101.33  6.9783990E-03
   7101.67  7.2136641E-03
   7102.00  7.4645646E-03
   7102.33  7.7350990E-03
   7102.67  8.0251949E-03
   7103.00  8.3369396E-03
   7103.33  8.6762222E-03
   7103.67  9.0433266E-03
   7104.00  9.4416197E-03
   7104.33  9.8802367E-03
   7104.67  1.0360323E-02
   7105.00  1.0887677E-02
   7105.33  1.1477455E-02
   7105.67  1.2132966E-02
   7106.00  1.2865097E-02
   7106.33  1.3701433E-02
   7106.67  1.4651209E-02
   7107.00  1.5737566E-02
   7107.33  1.7017931E-02
   7107.67  1.8520563E-02
   7108.00  2.0304864E-02
   7108.33  2.2518935E-02
   7108.67  2.5270424E-02
   7109.00  2.8767918E-02
   7109.33  3.3564647E-02
   7109.67  4.0277701E-02
   7110.00  5.0131378E-02
   7110.33  6.6613677E-02
   7110.67  9.2728648E-02
   7111.00  1.2600622E-01
   7111.33  1.4999422E-01
   7111.67  1.5970529E-01
   7112.00  1.6515394E-01
   7112.33  1.7408607E-01
   7112.67  1.9710608E-01
   7113.00  2.4669704E-01
   7113.33  3.2977829E-01
   7113.67  4.3421750E-01
   7114.00  5.5484161E-01
   7114.33  6.7797936E-01
   7114.67  7.3717205E-01
   7115.00  6.8262265E-01
   7115.33  5.3195239E-01
   7115.67  3.8339781E-01
   7116.00  2.7599333E-01
   7116.33  2.1010149E-01
   7116.67  1.6746448E-01
   7117.00  1.4002707E-01
   7117.33  1.2361842E-01
   7117.67  1.1389760E-01
   7118.00  1.0861302E-01
   7118.33  1.0528919E-01
   7118.67  1.0262395E-01
   7119.00  1.0098348E-01
   7119.33  9.9908763E-02
   7119.67  9.8758104E-02
   7120.00  9.8017815E-02
   7120.33  9.7451437E-02
   7120.67  9.6852946E-02
   7121.00  9.7260274E-02
   7121.33  9.9933746E-02
   7121.67  1.0466928E-01
   7122.00  1.1087715E-01
   7122.33  1.1746972E-01
   7122.67  1.2357203E-01
   7123.00  1.2919117E-01
   7123.33  1.3500416E-01
   7123.67  1.4174325E-01
   7124.00  1.4987327E-01
   7124.33  1.5993189E-01
   7124.67  1.7202521E-01
   7125.00  1.8660835E-01
   7125.33  2.0467768E-01
   7125.67  2.2588934E-01
   7126.00  2.4918090E-01
   7126.33  2.7199820E-01
   7126.67  2.9203891E-01
   7127.00  3.0862184E-01
   7127.33  3.2248273E-01
   7127.67  3.3637509E-01
   7128.00  3.5269629E-01
   7128.33  3.7428400E-01
   7128.67  4.0201467E-01
   7129.00  4.3660036E-01
   7129.33  4.7899778E-01
   7129.67  5.2719552E-01
   7130.00  5.7878082E-01
   7130.33  6.2916593E-01
   7130.67  6.7387198E-01
   7131.00  7.1096082E-01
   7131.33  7.4070885E-01
   7131.67  7.6679402E-01
   7132.00  7.9112280E-01
   7132.33  8.1383835E-01
   7132.67  8.3344082E-01
   7133.00  8.4764570E-01
   7133.33  8.5331927E-01
   7133.67  8.5102341E-01
   7134.00  8.4208205E-01
   7134.33  8.2853303E-01
   7134.67  8.1316015E-01
   7135.00  7.9702830E-01
   7135.33  7.8034123E-01
   7135.67  7.6292542E-01
   7136.00  7.4463384E-01
   7136.33  7.2556328E-01
   7136.67  7.0632787E-01
   7137.00  6.8746713E-01
   7137.33  6.6957624E-01
   7137.67  6.5277944E-01
   7138.00  6.3712491E-01
   7138.33  6.2281097E-01
   7138.67  6.0988166E-01
   7139.00  5.9863953E-01
   7139.33  5.8974301E-01
   7139.67  5.8320521E-01
   7140.00  5.7906127E-01
   7140.33  5.7736203E-01
   7140.67  5.7738588E-01
   7141.00  5.7863785E-01
   7141.33  5.8059310E-01
   7141.67  5.8263421E-01
   7142.00  5.8440614E-01
   7142.33  5.8559976E-01
   7142.67  5.8621847E-01
   7143.00  5.8633572E-01
   7143.33  5.8610788E-01
   7143.67  5.8584003E-01
   7144.00  5.8577878E-01
   7144.33  5.8625138E-01
   7144.67  5.8741400E-01
   7145.00  5.8939047E-01
   7145.33  5.9235588E-01
   7145.67  5.9618286E-01
   7146.00  6.0079629E-01
   7146.33  6.0612900E-01
   7146.67  6.1190099E-01
   7147.00  6.1790577E-01
   7147.33  6.2386204E-01
   7147.67  6.2946391E-01
   7148.00  6.3442021E-01
   7148.33  6.3825366E-01
   7148.67  6.4075894E-01
   7149.00  6.4172682E-01
   7149.33  6.4085800E-01
   7149.67  6.3843683E-01
   7150.00  6.3466111E-01
   7150.33  6.2974508E-01
   7150.67  6.2421129E-01
   7151.00  6.1836416E-01
   7151.33  6.1245124E-01
   7151.67  6.0663415E-01
   7152.00  6.0098112E-01
   7152.33  5.9554593E-01
   7152.67  5.9030670E-01
   7153.00  5.8525940E-01
   7153.33  5.8042657E-01
   7153.67  5.7579134E-01
   7154.00  5.7136575E-01
   7154.33  5.6719560E-01
   7154.67  5.6326988E-01
   7155.00  5.5960001E-01
   7155.33  5.5622436E-01
   7155.67  5.5310656E-01
   7156.00  5.5023561E-01
   7156.33  5.4761682E-01
   7156.67  5.4518979E-01
   7157.00  5.4292065E-01
   7157.33  5.4077817E-01
   7157.67  5.3869741E-01
   7158.00  5.3663126E-01
   7158.33  5.3451744E-01
   7158.67  5.3230455E-01
   7159.00  5.2994595E-01
   7159.33  5.2736673E-01
   7159.67  5.2454760E-01
   7160.00  5.2145912E-01
   7160.33  5.1804463E-01
   7160.67  5.1433665E-01
   7161.00  5.1034158E-01
   7161.33  5.0604151E-01
   7161.67  5.0150019E-01
   7162.00  4.9674909E-01
   7162.33  4.9180169E-01
   7162.67  4.8671905E-01
   7163.00  4.8153546E-01
   7163.33  4.7627594E-01
   7163.67  4.7097474E-01
   7164.00  4.6564954E-01
   7164.33  4.6031672E-01
   7164.67  4.5499277E-01
   7165.00  4.4969061E-01
   7165.33  4.4443020E-01
   7165.67  4.3922443E-01
   7166.00  4.3409032E-01
   7166.33  4.2906104E-01
   7166.67  4.2414751E-01
   7167.00  4.1936807E-01
   7167.33  4.1475927E-01
   7167.67  4.1031690E-01
   7168.00  4.0605433E-01
   7168.33  4.0200518E-01
   7168.67  3.9814431E-01
   7169.00  3.9446765E-01
   7169.33  3.9099311E-01
   7169.67  3.8769514E-01
   7170.00  3.8457369E-01
   7170.33  3.8165679E-01
   7170.67  3.7893532E-01
   7171.00  3.7642941E-01
   7171.33  3.7420743E-01
   7171.67  3.7229636E-01
   7172.00  3.7076244E-01
