    FDMNES
    energy     <xanes>
   7097.00  5.4479684E-03
   7097.33  5.5844794E-03
   7097.67  5.7274999E-03
   7098.00  5.8774889E-03
   7098.33  6.0359840E-03
   7098.67  6.2027029E-03
   7099.00  6.3782779E-03
   7099.33  6.5647429E-03
   7099.67  6.7618182E-03
   7100.00  6.9704001E-03
   7100.33  7.1932543E-03
   7100.67  7.4301430E-03
   7101.00  7.6823795E-03
   7101.33  7.9538511E-03
   7101.67  8.2444485E-03
   7102.00  8.5561736E-03
   7102.33  8.8947139E-03
   7102.67  9.2602802E-03
   7103.00  9.6560749E-03
   7103.33  1.0090838E-02
   7103.67  1.0565545E-02
   7104.00  1.1085630E-02
   7104.33  1.1665381E-02
   7104.67  1.2307620E-02
   7105.00  1.3022294E-02
   7105.33  1.3834684E-02
   7105.67  1.4752368E-02
   7106.00  1.5795422E-02
   7106.33  1.7013604E-02
   7106.67  1.8428033E-02
   7107.00  2.0085096E-02
   7107.33  2.2098450E-02
   7107.67  2.4534722E-02
   7108.00  2.7524357E-02
   7108.33  3.1392036E-02
   7108.67  3.6402863E-02
   7109.00  4.3056394E-02
   7109.33  5.2686253E-02
   7109.67  6.6868633E-02
   7110.00  8.8714340E-02
   7110.33  1.2715530E-01
   7110.67  1.9027839E-01
   7111.00  2.7174568E-01
   7111.33  3.2586022E-01
   7111.67  3.5606527E-01
   7112.00  3.8962731E-01
   7112.33  4.3233101E-01
   7112.67  4.6071652E-01
   7113.00  4.5140744E-01
   7113.33  3.9512999E-01
   7113.67  3.2718851E-01
   7114.00  2.6638255E-01
   7114.33  2.1971664E-01
   7114.67  1.8526046E-01
   7115.00  1.6114868E-01
   7115.33  1.4623566E-01
   7115.67  1.3741282E-01
   7116.00  1.3233054E-01
   7116.33  1.2924960E-01
   7116.67  1.2814369E-01
   7117.00  1.2989017E-01
   7117.33  1.3555733E-01
   7117.67  1.4454969E-01
   7118.00  1.5581034E-01
   7118.33  1.6694037E-01
   7118.67  1.7594895E-01
   7119.00  1.8313825E-01
   7119.33  1.9076367E-01
   7119.67  2.0121291E-01
   7120.00  2.1608865E-01
   7120.33  2.3711960E-01
   7120.67  2.6279395E-01
   7121.00  2.9025946E-01
   7121.33  3.1683320E-01
   7121.67  3.4430582E-01
   7122.00  3.7330843E-01
   7122.33  3.9885174E-01
   7122.67  4.1734988E-01
   7123.00  4.3256794E-01
   7123.33  4.5521799E-01
   7123.67  4.8763907E-01
   7124.00  5.2278494E-01
   7124.33  5.4885572E-01
   7124.67  5.6363492E-01
   7125.00  5.7103222E-01
   7125.33  5.7762770E-01
   7125.67  5.8711746E-01
   7126.00  5.9900098E-01
   7126.33  6.1022038E-01
   7126.67  6.1777976E-01
   7127.00  6.2054705E-01
   7127.33  6.1925556E-01
   7127.67  6.1717591E-01
   7128.00  6.1632736E-01
   7128.33  6.1805782E-01
   7128.67  6.2244685E-01
   7129.00  6.2937924E-01
   7129.33  6.3784772E-01
   7129.67  6.4590675E-01
   7130.00  6.5249675E-01
   7130.33  6.5684657E-01
   7130.67  6.5900476E-01
   7131.00  6.5906287E-01
   7131.33  6.5733011E-01
   7131.67  6.5453569E-01
   7132.00  6.5092620E-01
   7132.33  6.4694010E-01
   7132.67  6.4382857E-01
   7133.00  6.4304778E-01
   7133.33  6.4640643E-01
   7133.67  6.5353942E-01
   7134.00  6.6312027E-01
   7134.33  6.7208724E-01
   7134.67  6.7701351E-01
   7135.00  6.7568709E-01
   7135.33  6.6674111E-01
   7135.67  6.5274397E-01
   7136.00  6.3602810E-01
   7136.33  6.1889920E-01
   7136.67  6.0286984E-01
   7137.00  5.8858895E-01
   7137.33  5.7657225E-01
   7137.67  5.6650228E-01
   7138.00  5.5823865E-01
   7138.33  5.5191132E-01
   7138.67  5.4729828E-01
   7139.00  5.4431052E-01
   7139.33  5.4274099E-01
   7139.67  5.4184114E-01
   7140.00  5.4110905E-01
   7140.33  5.4015838E-01
   7140.67  5.3895542E-01
   7141.00  5.3762850E-01
   7141.33  5.3640406E-01
   7141.67  5.3543209E-01
   7142.00  5.3475421E-01
   7142.33  5.3432543E-01
   7142.67  5.3394276E-01
   7143.00  5.3340561E-01
   7143.33  5.3241206E-01
   7143.67  5.3080362E-01
   7144.00  5.2848525E-01
   7144.33  5.2533343E-01
   7144.67  5.2145594E-01
   7145.00  5.1689380E-01
   7145.33  5.1164418E-01
   7145.67  5.0587348E-01
   7146.00  4.9966371E-01
   7146.33  4.9306644E-01
   7146.67  4.8621620E-01
   7147.00  4.7918927E-01
   7147.33  4.7206127E-01
   7147.67  4.6492973E-01
   7148.00  4.5786878E-01
   7148.33  4.5098206E-01
   7148.67  4.4432758E-01
   7149.00  4.3796305E-01
   7149.33  4.3198483E-01
   7149.67  4.2637620E-01
   7150.00  4.2113203E-01
   7150.33  4.1626482E-01
   7150.67  4.1168855E-01
   7151.00  4.0736003E-01
   7151.33  4.0325178E-01
   7151.67  3.9928741E-01
   7152.00  3.9542168E-01
   7152.33  3.9160491E-01
   7152.67  3.8777473E-01
   7153.00  3.8388419E-01
   7153.33  3.7987434E-01
   7153.67  3.7573149E-01
   7154.00  3.7145239E-01
   7154.33  3.6704089E-01
   7154.67  3.6254821E-01
   7155.00  3.5801321E-01
   7155.33  3.5348367E-01
   7155.67  3.4900559E-01
   7156.00  3.4461852E-01
   7156.33  3.4038442E-01
   7156.67  3.3632906E-01
   7157.00  3.3248828E-01
   7157.33  3.2893582E-01
   7157.67  3.2568098E-01
   7158.00  3.2275820E-01
   7158.33  3.2025062E-01
   7158.67  3.1814204E-01
   7159.00  3.1645050E-01
   7159.33  3.1524379E-01
   7159.67  3.1447268E-01
   7160.00  3.1413336E-01
   7160.33  3.1426494E-01
   7160.67  3.1479224E-01
   7161.00  3.1569006E-01
   7161.33  3.1696806E-01
   7161.67  3.1855091E-01
   7162.00  3.2041264E-01
   7162.33  3.2255922E-01
   7162.67  3.2493768E-01
   7163.00  3.2753509E-01
   7163.33  3.3036842E-01
   7163.67  3.3340397E-01
   7164.00  3.3663927E-01
   7164.33  3.4010122E-01
   7164.67  3.4376717E-01
   7165.00  3.4763854E-01
   7165.33  3.5174237E-01
   7165.67  3.5605342E-01
   7166.00  3.6057146E-01
   7166.33  3.6532195E-01
   7166.67  3.7027845E-01
   7167.00  3.7543942E-01
   7167.33  3.8082602E-01
   7167.67  3.8640669E-01
   7168.00  3.9217381E-01
   7168.33  3.9813809E-01
   7168.67  4.0426209E-01
   7169.00  4.1052744E-01
   7169.33  4.1692014E-01
   7169.67  4.2338934E-01
   7170.00  4.2989564E-01
   7170.33  4.3637829E-01
   7170.67  4.4276115E-01
   7171.00  4.4895043E-01
   7171.33  4.5473849E-01
   7171.67  4.5990129E-01
   7172.00  4.6410882E-01
