    FDMNES
    energy     <xanes>
   7097.00  4.2896042E-03
   7097.33  4.3795457E-03
   7097.67  4.4731327E-03
   7098.00  4.5705953E-03
   7098.33  4.6727504E-03
   7098.67  4.7794048E-03
   7099.00  4.8908698E-03
   7099.33  5.0082002E-03
   7099.67  5.1311965E-03
   7100.00  5.2602918E-03
   7100.33  5.3968856E-03
   7100.67  5.5407878E-03
   7101.00  5.6926212E-03
   7101.33  5.8543048E-03
   7101.67  6.0256933E-03
   7102.00  6.2077182E-03
   7102.33  6.4031175E-03
   7102.67  6.6118703E-03
   7103.00  6.8354382E-03
   7103.33  7.0779229E-03
   7103.67  7.3396111E-03
   7104.00  7.6229341E-03
   7104.33  7.9344230E-03
   7104.67  8.2751161E-03
   7105.00  8.6493654E-03
   7105.33  9.0684122E-03
   7105.67  9.5352116E-03
   7106.00  1.0058327E-02
   7106.33  1.0659198E-02
   7106.67  1.1346129E-02
   7107.00  1.2138267E-02
   7107.33  1.3082695E-02
   7107.67  1.4205048E-02
   7108.00  1.5556701E-02
   7108.33  1.7264902E-02
   7108.67  1.9426435E-02
   7109.00  2.2224195E-02
   7109.33  2.6137438E-02
   7109.67  3.1692452E-02
   7110.00  3.9915993E-02
   7110.33  5.3756047E-02
   7110.67  7.6516134E-02
   7111.00  1.0990982E-01
   7111.33  1.4647850E-01
   7111.67  1.7678666E-01
   7112.00  1.9819834E-01
   7112.33  2.1537084E-01
   7112.67  2.3723711E-01
   7113.00  2.4573306E-01
   7113.33  2.0728280E-01
   7113.67  1.5959296E-01
   7114.00  1.2350232E-01
   7114.33  9.8473973E-02
   7114.67  8.0906000E-02
   7115.00  6.9881805E-02
   7115.33  6.3841898E-02
   7115.67  6.0525024E-02
   7116.00  5.9020897E-02
   7116.33  5.8769080E-02
   7116.67  5.9358428E-02
   7117.00  6.0961734E-02
   7117.33  6.3973849E-02
   7117.67  6.8264453E-02
   7118.00  7.3822694E-02
   7118.33  8.0883658E-02
   7118.67  8.9347917E-02
   7119.00  9.9193563E-02
   7119.33  1.1046725E-01
   7119.67  1.2281816E-01
   7120.00  1.3601432E-01
   7120.33  1.4978070E-01
   7120.67  1.6365957E-01
   7121.00  1.7729184E-01
   7121.33  1.9023030E-01
   7121.67  2.0233996E-01
   7122.00  2.1364994E-01
   7122.33  2.2461588E-01
   7122.67  2.3674854E-01
   7123.00  2.5205384E-01
   7123.33  2.7217815E-01
   7123.67  2.9544322E-01
   7124.00  3.2118202E-01
   7124.33  3.5027487E-01
   7124.67  3.8269966E-01
   7125.00  4.1725449E-01
   7125.33  4.5000270E-01
   7125.67  4.7779902E-01
   7126.00  5.0030922E-01
   7126.33  5.1768122E-01
   7126.67  5.3059732E-01
   7127.00  5.3922744E-01
   7127.33  5.4428594E-01
   7127.67  5.4740591E-01
   7128.00  5.4921906E-01
   7128.33  5.5030106E-01
   7128.67  5.5136555E-01
   7129.00  5.5264213E-01
   7129.33  5.5389092E-01
   7129.67  5.5463664E-01
   7130.00  5.5461802E-01
   7130.33  5.5390448E-01
   7130.67  5.5339372E-01
   7131.00  5.5425151E-01
   7131.33  5.5801531E-01
   7131.67  5.6478975E-01
   7132.00  5.7440664E-01
   7132.33  5.8692052E-01
   7132.67  6.0193200E-01
   7133.00  6.1941370E-01
   7133.33  6.3947995E-01
   7133.67  6.6136602E-01
   7134.00  6.8439605E-01
   7134.33  7.0780062E-01
   7134.67  7.3104639E-01
   7135.00  7.5399977E-01
   7135.33  7.7637031E-01
   7135.67  7.9720823E-01
   7136.00  8.1485984E-01
   7136.33  8.2668481E-01
   7136.67  8.3218785E-01
   7137.00  8.3128047E-01
   7137.33  8.2394558E-01
   7137.67  8.1205541E-01
   7138.00  7.9671693E-01
   7138.33  7.7888570E-01
   7138.67  7.5989364E-01
   7139.00  7.4046647E-01
   7139.33  7.2127212E-01
   7139.67  7.0274050E-01
   7140.00  6.8514585E-01
   7140.33  6.6884980E-01
   7140.67  6.5384564E-01
   7141.00  6.4020639E-01
   7141.33  6.2815437E-01
   7141.67  6.1752769E-01
   7142.00  6.0831927E-01
   7142.33  6.0067407E-01
   7142.67  5.9436978E-01
   7143.00  5.8934963E-01
   7143.33  5.8567849E-01
   7143.67  5.8309801E-01
   7144.00  5.8149499E-01
   7144.33  5.8082834E-01
   7144.67  5.8084543E-01
   7145.00  5.8141781E-01
   7145.33  5.8244606E-01
   7145.67  5.8373165E-01
   7146.00  5.8515276E-01
   7146.33  5.8657795E-01
   7146.67  5.8788948E-01
   7147.00  5.8900471E-01
   7147.33  5.8982348E-01
   7147.67  5.9034541E-01
   7148.00  5.9056848E-01
   7148.33  5.9048235E-01
   7148.67  5.9016525E-01
   7149.00  5.8966335E-01
   7149.33  5.8901489E-01
   7149.67  5.8827970E-01
   7150.00  5.8748041E-01
   7150.33  5.8661288E-01
   7150.67  5.8566236E-01
   7151.00  5.8458972E-01
   7151.33  5.8330728E-01
   7151.67  5.8176017E-01
   7152.00  5.7987327E-01
   7152.33  5.7750316E-01
   7152.67  5.7461580E-01
   7153.00  5.7114075E-01
   7153.33  5.6692079E-01
   7153.67  5.6197540E-01
   7154.00  5.5625936E-01
   7154.33  5.4962852E-01
   7154.67  5.4215989E-01
   7155.00  5.3384746E-01
   7155.33  5.2459891E-01
   7155.67  5.1455593E-01
   7156.00  5.0377336E-01
   7156.33  4.9226116E-01
   7156.67  4.8022232E-01
   7157.00  4.6778556E-01
   7157.33  4.5509495E-01
   7157.67  4.4236723E-01
   7158.00  4.2976891E-01
   7158.33  4.1752564E-01
   7158.67  4.0576389E-01
   7159.00  3.9460076E-01
   7159.33  3.8422243E-01
   7159.67  3.7460349E-01
   7160.00  3.6577578E-01
   7160.33  3.5786711E-01
   7160.67  3.5080391E-01
   7161.00  3.4461957E-01
   7161.33  3.3947631E-01
   7161.67  3.3530431E-01
   7162.00  3.3213175E-01
   7162.33  3.3009095E-01
   7162.67  3.2902644E-01
   7163.00  3.2887974E-01
   7163.33  3.2964559E-01
   7163.67  3.3109140E-01
   7164.00  3.3309467E-01
   7164.33  3.3556115E-01
   7164.67  3.3830107E-01
   7165.00  3.4120636E-01
   7165.33  3.4417564E-01
   7165.67  3.4711501E-01
   7166.00  3.4996834E-01
   7166.33  3.5267608E-01
   7166.67  3.5523324E-01
   7167.00  3.5763655E-01
   7167.33  3.5987760E-01
   7167.67  3.6199503E-01
   7168.00  3.6401205E-01
   7168.33  3.6594951E-01
   7168.67  3.6784462E-01
   7169.00  3.6971804E-01
   7169.33  3.7158769E-01
   7169.67  3.7346526E-01
   7170.00  3.7535441E-01
   7170.33  3.7725319E-01
   7170.67  3.7914803E-01
   7171.00  3.8101729E-01
   7171.33  3.8280446E-01
   7171.67  3.8442746E-01
   7172.00  3.8576373E-01
