    FDMNES
    energy     <xanes>
   7097.00  4.3544250E-03
   7097.33  4.4465255E-03
   7097.67  4.5424032E-03
   7098.00  4.6422993E-03
   7098.33  4.7470654E-03
   7098.67  4.8565054E-03
   7099.00  4.9709470E-03
   7099.33  5.0914931E-03
   7099.67  5.2179430E-03
   7100.00  5.3507540E-03
   7100.33  5.4913959E-03
   7100.67  5.6396800E-03
   7101.00  5.7962674E-03
   7101.33  5.9631826E-03
   7101.67  6.1402891E-03
   7102.00  6.3285810E-03
   7102.33  6.5309624E-03
   7102.67  6.7474380E-03
   7103.00  6.9795770E-03
   7103.33  7.2317587E-03
   7103.67  7.5043332E-03
   7104.00  7.7999302E-03
   7104.33  8.1255772E-03
   7104.67  8.4824684E-03
   7105.00  8.8753513E-03
   7105.33  9.3164357E-03
   7105.67  9.8090769E-03
   7106.00  1.0362712E-02
   7106.33  1.1000892E-02
   7106.67  1.1733046E-02
   7107.00  1.2580533E-02
   7107.33  1.3595794E-02
   7107.67  1.4808123E-02
   7108.00  1.6275686E-02
   7108.33  1.8142623E-02
   7108.67  2.0520828E-02
   7109.00  2.3621105E-02
   7109.33  2.7997507E-02
   7109.67  3.4268045E-02
   7110.00  4.3639463E-02
   7110.33  5.9580304E-02
   7110.67  8.5919385E-02
   7111.00  1.2431135E-01
   7111.33  1.6528209E-01
   7111.67  1.9781324E-01
   7112.00  2.2246306E-01
   7112.33  2.4345399E-01
   7112.67  2.5254062E-01
   7113.00  2.2589796E-01
   7113.33  1.7470682E-01
   7113.67  1.3402436E-01
   7114.00  1.0557139E-01
   7114.33  8.6006187E-02
   7114.67  7.3257151E-02
   7115.00  6.5682664E-02
   7115.33  6.1690127E-02
   7115.67  5.9657264E-02
   7116.00  5.8955443E-02
   7116.33  5.9260843E-02
   7116.67  6.0420435E-02
   7117.00  6.2638206E-02
   7117.33  6.6216980E-02
   7117.67  7.0995380E-02
   7118.00  7.6961895E-02
   7118.33  8.4319409E-02
   7118.67  9.2966611E-02
   7119.00  1.0290010E-01
   7119.33  1.1419520E-01
   7119.67  1.2654198E-01
   7120.00  1.3973645E-01
   7120.33  1.5353869E-01
   7120.67  1.6751962E-01
   7121.00  1.8137570E-01
   7121.33  1.9484504E-01
   7121.67  2.0802694E-01
   7122.00  2.2124460E-01
   7122.33  2.3534845E-01
   7122.67  2.5142569E-01
   7123.00  2.7062582E-01
   7123.33  2.9407788E-01
   7123.67  3.2063780E-01
   7124.00  3.4941038E-01
   7124.33  3.8006939E-01
   7124.67  4.1152050E-01
   7125.00  4.4213811E-01
   7125.33  4.6912186E-01
   7125.67  4.9176720E-01
   7126.00  5.1051373E-01
   7126.33  5.2525616E-01
   7126.67  5.3657447E-01
   7127.00  5.4531786E-01
   7127.33  5.5230914E-01
   7127.67  5.5773791E-01
   7128.00  5.6145054E-01
   7128.33  5.6342277E-01
   7128.67  5.6423917E-01
   7129.00  5.6437656E-01
   7129.33  5.6451348E-01
   7129.67  5.6526992E-01
   7130.00  5.6698263E-01
   7130.33  5.6988758E-01
   7130.67  5.7370325E-01
   7131.00  5.7822183E-01
   7131.33  5.8336402E-01
   7131.67  5.8917753E-01
   7132.00  5.9608669E-01
   7132.33  6.0519625E-01
   7132.67  6.1719367E-01
   7133.00  6.3262797E-01
   7133.33  6.5197839E-01
   7133.67  6.7401819E-01
   7134.00  6.9755029E-01
   7134.33  7.2103406E-01
   7134.67  7.4315905E-01
   7135.00  7.6305784E-01
   7135.33  7.7947149E-01
   7135.67  7.9186467E-01
   7136.00  7.9951279E-01
   7136.33  8.0134641E-01
   7136.67  7.9819011E-01
   7137.00  7.9060957E-01
   7137.33  7.7910347E-01
   7137.67  7.6511632E-01
   7138.00  7.4946416E-01
   7138.33  7.3287301E-01
   7138.67  7.1611266E-01
   7139.00  6.9961980E-01
   7139.33  6.8384579E-01
   7139.67  6.6896547E-01
   7140.00  6.5512865E-01
   7140.33  6.4259746E-01
   7140.67  6.3130034E-01
   7141.00  6.2127522E-01
   7141.33  6.1270273E-01
   7141.67  6.0541619E-01
   7142.00  5.9939207E-01
   7142.33  5.9473138E-01
   7142.67  5.9120871E-01
   7143.00  5.8874417E-01
   7143.33  5.8734696E-01
   7143.67  5.8677553E-01
   7144.00  5.8691766E-01
   7144.33  5.8771598E-01
   7144.67  5.8897282E-01
   7145.00  5.9058482E-01
   7145.33  5.9246288E-01
   7145.67  5.9445898E-01
   7146.00  5.9647152E-01
   7146.33  5.9836955E-01
   7146.67  6.0005220E-01
   7147.00  6.0143385E-01
   7147.33  6.0238800E-01
   7147.67  6.0290990E-01
   7148.00  6.0297727E-01
   7148.33  6.0253171E-01
   7148.67  6.0165062E-01
   7149.00  6.0036361E-01
   7149.33  5.9866785E-01
   7149.67  5.9665527E-01
   7150.00  5.9436211E-01
   7150.33  5.9178923E-01
   7150.67  5.8898721E-01
   7151.00  5.8596240E-01
   7151.33  5.8268293E-01
   7151.67  5.7916030E-01
   7152.00  5.7536924E-01
   7152.33  5.7123154E-01
   7152.67  5.6673795E-01
   7153.00  5.6184343E-01
   7153.33  5.5643706E-01
   7153.67  5.5052367E-01
   7154.00  5.4406229E-01
   7154.33  5.3693756E-01
   7154.67  5.2919453E-01
   7155.00  5.2082408E-01
   7155.33  5.1175316E-01
   7155.67  5.0208181E-01
   7156.00  4.9184654E-01
   7156.33  4.8105064E-01
   7156.67  4.6984842E-01
   7157.00  4.5833915E-01
   7157.33  4.4663620E-01
   7157.67  4.3491139E-01
   7158.00  4.2329971E-01
   7158.33  4.1198902E-01
   7158.67  4.0108859E-01
   7159.00  3.9070559E-01
   7159.33  3.8102079E-01
   7159.67  3.7203996E-01
   7160.00  3.6382427E-01
   7160.33  3.5654375E-01
   7160.67  3.5015958E-01
   7161.00  3.4472527E-01
   7161.33  3.4041893E-01
   7161.67  3.3714879E-01
   7162.00  3.3492098E-01
   7162.33  3.3383737E-01
   7162.67  3.3370793E-01
   7163.00  3.3444759E-01
   7163.33  3.3602233E-01
   7163.67  3.3819652E-01
   7164.00  3.4084256E-01
   7164.33  3.4385459E-01
   7164.67  3.4705301E-01
   7165.00  3.5032994E-01
   7165.33  3.5357506E-01
   7165.67  3.5670910E-01
   7166.00  3.5968189E-01
   7166.33  3.6243543E-01
   7166.67  3.6498480E-01
   7167.00  3.6733781E-01
   7167.33  3.6949506E-01
   7167.67  3.7150985E-01
   7168.00  3.7341291E-01
   7168.33  3.7523063E-01
   7168.67  3.7700434E-01
   7169.00  3.7875610E-01
   7169.33  3.8050411E-01
   7169.67  3.8225896E-01
   7170.00  3.8402236E-01
   7170.33  3.8578818E-01
   7170.67  3.8753983E-01
   7171.00  3.8925336E-01
   7171.33  3.9087238E-01
   7171.67  3.9232738E-01
   7172.00  3.9351645E-01
