    FDMNES
    energy     <xanes>
   7097.00  4.3826253E-03
   7097.33  4.4718230E-03
   7097.67  4.5644367E-03
   7098.00  4.6606667E-03
   7098.33  4.7612524E-03
   7098.67  4.8659918E-03
   7099.00  4.9751504E-03
   7099.33  5.0896652E-03
   7099.67  5.2093217E-03
   7100.00  5.3344817E-03
   7100.33  5.4663626E-03
   7100.67  5.6047475E-03
   7101.00  5.7501462E-03
   7101.33  5.9041897E-03
   7101.67  6.0666837E-03
   7102.00  6.2383751E-03
   7102.33  6.4215358E-03
   7102.67  6.6160510E-03
   7103.00  6.8230708E-03
   7103.33  7.0459188E-03
   7103.67  7.2846954E-03
   7104.00  7.5412850E-03
   7104.33  7.8208685E-03
   7104.67  8.1240993E-03
   7105.00  8.4543214E-03
   7105.33  8.8203190E-03
   7105.67  9.2242119E-03
   7106.00  9.6725945E-03
   7106.33  1.0182159E-02
   7106.67  1.0759293E-02
   7107.00  1.1419016E-02
   7107.33  1.2198568E-02
   7107.67  1.3118896E-02
   7108.00  1.4222067E-02
   7108.33  1.5613379E-02
   7108.67  1.7377962E-02
   7109.00  1.9677339E-02
   7109.33  2.2943332E-02
   7109.67  2.7685315E-02
   7110.00  3.4911540E-02
   7110.33  4.7581812E-02
   7110.67  6.9054849E-02
   7111.00  9.9832185E-02
   7111.33  1.2201094E-01
   7111.67  1.2291291E-01
   7112.00  1.1337262E-01
   7112.33  1.0531483E-01
   7112.67  1.0246567E-01
   7113.00  1.0406970E-01
   7113.33  1.1068403E-01
   7113.67  1.1977350E-01
   7114.00  1.2000431E-01
   7114.33  1.0222783E-01
   7114.67  8.3585208E-02
   7115.00  7.1856899E-02
   7115.33  6.7412017E-02
   7115.67  6.7618921E-02
   7116.00  7.1632728E-02
   7116.33  7.9548665E-02
   7116.67  9.0904691E-02
   7117.00  1.0580954E-01
   7117.33  1.2500381E-01
   7117.67  1.4797168E-01
   7118.00  1.7435029E-01
   7118.33  2.0395462E-01
   7118.67  2.3522062E-01
   7119.00  2.6607907E-01
   7119.33  2.9345142E-01
   7119.67  3.1682593E-01
   7120.00  3.3737531E-01
   7120.33  3.5683358E-01
   7120.67  3.7520249E-01
   7121.00  3.9024418E-01
   7121.33  3.9940241E-01
   7121.67  4.0533113E-01
   7122.00  4.1109720E-01
   7122.33  4.1774943E-01
   7122.67  4.2214845E-01
   7123.00  4.2053820E-01
   7123.33  4.1168781E-01
   7123.67  4.0189809E-01
   7124.00  3.9587593E-01
   7124.33  3.9364842E-01
   7124.67  3.9066396E-01
   7125.00  3.8516360E-01
   7125.33  3.7809999E-01
   7125.67  3.7183833E-01
   7126.00  3.6774463E-01
   7126.33  3.6705857E-01
   7126.67  3.6991786E-01
   7127.00  3.7672184E-01
   7127.33  3.8818111E-01
   7127.67  4.0313201E-01
   7128.00  4.2028662E-01
   7128.33  4.3824764E-01
   7128.67  4.5634286E-01
   7129.00  4.7462521E-01
   7129.33  4.9304094E-01
   7129.67  5.1109216E-01
   7130.00  5.2819725E-01
   7130.33  5.4346934E-01
   7130.67  5.5652864E-01
   7131.00  5.6705514E-01
   7131.33  5.7477270E-01
   7131.67  5.8066539E-01
   7132.00  5.8579229E-01
   7132.33  5.9156558E-01
   7132.67  5.9870121E-01
   7133.00  6.0723092E-01
   7133.33  6.1702252E-01
   7133.67  6.2784404E-01
   7134.00  6.3964760E-01
   7134.33  6.5201976E-01
   7134.67  6.6405849E-01
   7135.00  6.7512325E-01
   7135.33  6.8472699E-01
   7135.67  6.9322304E-01
   7136.00  7.0104271E-01
   7136.33  7.0864015E-01
   7136.67  7.1615782E-01
   7137.00  7.2327769E-01
   7137.33  7.2909834E-01
   7137.67  7.3291158E-01
   7138.00  7.3419337E-01
   7138.33  7.3242962E-01
   7138.67  7.2821925E-01
   7139.00  7.2199401E-01
   7139.33  7.1412695E-01
   7139.67  7.0528983E-01
   7140.00  6.9582207E-01
   7140.33  6.8600449E-01
   7140.67  6.7612155E-01
   7141.00  6.6633117E-01
   7141.33  6.5682597E-01
   7141.67  6.4773636E-01
   7142.00  6.3920042E-01
   7142.33  6.3143998E-01
   7142.67  6.2444941E-01
   7143.00  6.1823920E-01
   7143.33  6.1283703E-01
   7143.67  6.0801560E-01
   7144.00  6.0360799E-01
   7144.33  5.9938991E-01
   7144.67  5.9505661E-01
   7145.00  5.9037084E-01
   7145.33  5.8503710E-01
   7145.67  5.7899558E-01
   7146.00  5.7221706E-01
   7146.33  5.6466724E-01
   7146.67  5.5654835E-01
   7147.00  5.4799479E-01
   7147.33  5.3915834E-01
   7147.67  5.3024180E-01
   7148.00  5.2135919E-01
   7148.33  5.1261122E-01
   7148.67  5.0403831E-01
   7149.00  4.9568329E-01
   7149.33  4.8762856E-01
   7149.67  4.7988620E-01
   7150.00  4.7249266E-01
   7150.33  4.6553750E-01
   7150.67  4.5901276E-01
   7151.00  4.5295360E-01
   7151.33  4.4746303E-01
   7151.67  4.4251558E-01
   7152.00  4.3814101E-01
   7152.33  4.3444274E-01
   7152.67  4.3135883E-01
   7153.00  4.2888465E-01
   7153.33  4.2708203E-01
   7153.67  4.2585516E-01
   7154.00  4.2517607E-01
   7154.33  4.2506574E-01
   7154.67  4.2541312E-01
   7155.00  4.2617668E-01
   7155.33  4.2735810E-01
   7155.67  4.2887243E-01
   7156.00  4.3068943E-01
   7156.33  4.3280043E-01
   7156.67  4.3511558E-01
   7157.00  4.3757002E-01
   7157.33  4.4007468E-01
   7157.67  4.4251535E-01
   7158.00  4.4479871E-01
   7158.33  4.4680160E-01
   7158.67  4.4849524E-01
   7159.00  4.4986030E-01
   7159.33  4.5086768E-01
   7159.67  4.5158922E-01
   7160.00  4.5206192E-01
   7160.33  4.5230683E-01
   7160.67  4.5239165E-01
   7161.00  4.5234735E-01
   7161.33  4.5219188E-01
   7161.67  4.5196412E-01
   7162.00  4.5168469E-01
   7162.33  4.5137313E-01
   7162.67  4.5105590E-01
   7163.00  4.5075236E-01
   7163.33  4.5048749E-01
   7163.67  4.5027215E-01
   7164.00  4.5011153E-01
   7164.33  4.5000555E-01
   7164.67  4.4992917E-01
   7165.00  4.4985783E-01
   7165.33  4.4975239E-01
   7165.67  4.4957879E-01
   7166.00  4.4930673E-01
   7166.33  4.4889119E-01
   7166.67  4.4832896E-01
   7167.00  4.4761287E-01
   7167.33  4.4672672E-01
   7167.67  4.4570352E-01
   7168.00  4.4456343E-01
   7168.33  4.4332655E-01
   7168.67  4.4204060E-01
   7169.00  4.4074033E-01
   7169.33  4.3947069E-01
   7169.67  4.3826805E-01
   7170.00  4.3716322E-01
   7170.33  4.3620147E-01
   7170.67  4.3538694E-01
   7171.00  4.3472838E-01
   7171.33  4.3424362E-01
   7171.67  4.3389598E-01
   7172.00  4.3365592E-01
