    FDMNES
    energy     <xanes>
   7097.00  3.9281415E-03
   7097.33  4.0060885E-03
   7097.67  4.0870699E-03
   7098.00  4.1712777E-03
   7098.33  4.2593930E-03
   7098.67  4.3512573E-03
   7099.00  4.4471326E-03
   7099.33  4.5479041E-03
   7099.67  4.6534125E-03
   7100.00  4.7640277E-03
   7100.33  4.8809360E-03
   7100.67  5.0039943E-03
   7101.00  5.1337447E-03
   7101.33  5.2718372E-03
   7101.67  5.4181838E-03
   7102.00  5.5736145E-03
   7102.33  5.7405307E-03
   7102.67  5.9189865E-03
   7103.00  6.1103220E-03
   7103.33  6.3182324E-03
   7103.67  6.5431172E-03
   7104.00  6.7872854E-03
   7104.33  7.0568297E-03
   7104.67  7.3530016E-03
   7105.00  7.6801155E-03
   7105.33  8.0491379E-03
   7105.67  8.4635515E-03
   7106.00  8.9323039E-03
   7106.33  9.4775328E-03
   7106.67  1.0109216E-02
   7107.00  1.0848702E-02
   7107.33  1.1748259E-02
   7107.67  1.2840164E-02
   7108.00  1.4186596E-02
   7108.33  1.5942556E-02
   7108.67  1.8239340E-02
   7109.00  2.1322652E-02
   7109.33  2.5849829E-02
   7109.67  3.2610269E-02
   7110.00  4.3159431E-02
   7110.33  6.2010079E-02
   7110.67  9.3801221E-02
   7111.00  1.3802007E-01
   7111.33  1.7523577E-01
   7111.67  1.8980446E-01
   7112.00  1.7959903E-01
   7112.33  1.5659024E-01
   7112.67  1.2995695E-01
   7113.00  1.0232858E-01
   7113.33  7.9735126E-02
   7113.67  6.3801524E-02
   7114.00  5.4099825E-02
   7114.33  4.9480198E-02
   7114.67  4.5855081E-02
   7115.00  4.0952943E-02
   7115.33  3.6673949E-02
   7115.67  3.4192915E-02
   7116.00  3.3123099E-02
   7116.33  3.2954015E-02
   7116.67  3.3202807E-02
   7117.00  3.3776940E-02
   7117.33  3.4816093E-02
   7117.67  3.6404618E-02
   7118.00  3.8630672E-02
   7118.33  4.1631806E-02
   7118.67  4.5265534E-02
   7119.00  4.9324500E-02
   7119.33  5.3340358E-02
   7119.67  5.6805301E-02
   7120.00  5.9553665E-02
   7120.33  6.1820005E-02
   7120.67  6.4169846E-02
   7121.00  6.6965005E-02
   7121.33  7.0530651E-02
   7121.67  7.4864241E-02
   7122.00  8.0015627E-02
   7122.33  8.6319280E-02
   7122.67  9.4070706E-02
   7123.00  1.0371890E-01
   7123.33  1.1600435E-01
   7123.67  1.3079175E-01
   7124.00  1.4781573E-01
   7124.33  1.6645033E-01
   7124.67  1.8541232E-01
   7125.00  2.0392596E-01
   7125.33  2.2194464E-01
   7125.67  2.4081205E-01
   7126.00  2.6213505E-01
   7126.33  2.8728606E-01
   7126.67  3.1455734E-01
   7127.00  3.4220715E-01
   7127.33  3.7050877E-01
   7127.67  4.0219473E-01
   7128.00  4.4030520E-01
   7128.33  4.8849304E-01
   7128.67  5.4579828E-01
   7129.00  6.1033621E-01
   7129.33  6.7929341E-01
   7129.67  7.4924377E-01
   7130.00  8.1850406E-01
   7130.33  8.8567460E-01
   7130.67  9.4998707E-01
   7131.00  1.0099472E+00
   7131.33  1.0620746E+00
   7131.67  1.1047174E+00
   7132.00  1.1359567E+00
   7132.33  1.1510449E+00
   7132.67  1.1490393E+00
   7133.00  1.1304299E+00
   7133.33  1.0988098E+00
   7133.67  1.0625532E+00
   7134.00  1.0262084E+00
   7134.33  9.9218739E-01
   7134.67  9.5991820E-01
   7135.00  9.2870202E-01
   7135.33  8.9833070E-01
   7135.67  8.6884782E-01
   7136.00  8.4046195E-01
   7136.33  8.1354712E-01
   7136.67  7.8809659E-01
   7137.00  7.6420465E-01
   7137.33  7.4213468E-01
   7137.67  7.2169320E-01
   7138.00  7.0285021E-01
   7138.33  6.8571722E-01
   7138.67  6.6998123E-01
   7139.00  6.5550885E-01
   7139.33  6.4225765E-01
   7139.67  6.2990456E-01
   7140.00  6.1830390E-01
   7140.33  6.0740512E-01
   7140.67  5.9706013E-01
   7141.00  5.8726114E-01
   7141.33  5.7813260E-01
   7141.67  5.6970408E-01
   7142.00  5.6209405E-01
   7142.33  5.5557161E-01
   7142.67  5.5015530E-01
   7143.00  5.4595264E-01
   7143.33  5.4320077E-01
   7143.67  5.4172682E-01
   7144.00  5.4146431E-01
   7144.33  5.4242308E-01
   7144.67  5.4430662E-01
   7145.00  5.4696557E-01
   7145.33  5.5030752E-01
   7145.67  5.5410711E-01
   7146.00  5.5825439E-01
   7146.33  5.6268039E-01
   7146.67  5.6729645E-01
   7147.00  5.7207188E-01
   7147.33  5.7697735E-01
   7147.67  5.8193618E-01
   7148.00  5.8687914E-01
   7148.33  5.9169337E-01
   7148.67  5.9627534E-01
   7149.00  6.0050840E-01
   7149.33  6.0417617E-01
   7149.67  6.0716805E-01
   7150.00  6.0931675E-01
   7150.33  6.1028593E-01
   7150.67  6.1000991E-01
   7151.00  6.0833453E-01
   7151.33  6.0491742E-01
   7151.67  5.9985373E-01
   7152.00  5.9311145E-01
   7152.33  5.8451762E-01
   7152.67  5.7438891E-01
   7153.00  5.6288044E-01
   7153.33  5.5008759E-01
   7153.67  5.3643069E-01
   7154.00  5.2216235E-01
   7154.33  5.0752516E-01
   7154.67  4.9281649E-01
   7155.00  4.7822510E-01
   7155.33  4.6396343E-01
   7155.67  4.5012779E-01
   7156.00  4.3680360E-01
   7156.33  4.2412451E-01
   7156.67  4.1204763E-01
   7157.00  4.0057818E-01
   7157.33  3.8977746E-01
   7157.67  3.7954259E-01
   7158.00  3.6984046E-01
   7158.33  3.6068690E-01
   7158.67  3.5197485E-01
   7159.00  3.4366962E-01
   7159.33  3.3578795E-01
   7159.67  3.2826692E-01
   7160.00  3.2110530E-01
   7160.33  3.1435986E-01
   7160.67  3.0800584E-01
   7161.00  3.0206914E-01
   7161.33  2.9664586E-01
   7161.67  2.9172518E-01
   7162.00  2.8734533E-01
   7162.33  2.8361563E-01
   7162.67  2.8049721E-01
   7163.00  2.7801487E-01
   7163.33  2.7626880E-01
   7163.67  2.7518494E-01
   7164.00  2.7475487E-01
   7164.33  2.7502113E-01
   7164.67  2.7585226E-01
   7165.00  2.7719353E-01
   7165.33  2.7903049E-01
   7165.67  2.8123822E-01
   7166.00  2.8376126E-01
   7166.33  2.8657669E-01
   7166.67  2.8960466E-01
   7167.00  2.9280964E-01
   7167.33  2.9618402E-01
   7167.67  2.9969657E-01
   7168.00  3.0334251E-01
   7168.33  3.0713648E-01
   7168.67  3.1106170E-01
   7169.00  3.1511709E-01
   7169.33  3.1931280E-01
   7169.67  3.2361944E-01
   7170.00  3.2801544E-01
   7170.33  3.3246694E-01
   7170.67  3.3690688E-01
   7171.00  3.4126003E-01
   7171.33  3.4536855E-01
   7171.67  3.4904867E-01
   7172.00  3.5204403E-01
