    FDMNES
    energy     <xanes>
   7097.00  5.1153621E-03
   7097.33  5.2375941E-03
   7097.67  5.3654268E-03
   7098.00  5.4992456E-03
   7098.33  5.6403582E-03
   7098.67  5.7885097E-03
   7099.00  5.9442292E-03
   7099.33  6.1092376E-03
   7099.67  6.2832797E-03
   7100.00  6.4671029E-03
   7100.33  6.6630354E-03
   7100.67  6.8708534E-03
   7101.00  7.0916481E-03
   7101.33  7.3286760E-03
   7101.67  7.5818144E-03
   7102.00  7.8527212E-03
   7102.33  8.1461374E-03
   7102.67  8.4621974E-03
   7103.00  8.8035442E-03
   7103.33  9.1774285E-03
   7103.67  9.5846021E-03
   7104.00  1.0029535E-02
   7104.33  1.0524024E-02
   7104.67  1.1070318E-02
   7105.00  1.1676568E-02
   7105.33  1.2363553E-02
   7105.67  1.3137371E-02
   7106.00  1.4014413E-02
   7106.33  1.5035378E-02
   7106.67  1.6217309E-02
   7107.00  1.7597909E-02
   7107.33  1.9269618E-02
   7107.67  2.1286066E-02
   7108.00  2.3752565E-02
   7108.33  2.6930957E-02
   7108.67  3.1032571E-02
   7109.00  3.6455246E-02
   7109.33  4.4255875E-02
   7109.67  5.5663590E-02
   7110.00  7.3100562E-02
   7110.33  1.0365045E-01
   7110.67  1.5534622E-01
   7111.00  2.2906836E-01
   7111.33  2.8339958E-01
   7111.67  3.1081382E-01
   7112.00  3.2124718E-01
   7112.33  2.9894649E-01
   7112.67  2.9603800E-01
   7113.00  3.2456857E-01
   7113.33  3.5233815E-01
   7113.67  3.2175118E-01
   7114.00  2.7405256E-01
   7114.33  2.6650224E-01
   7114.67  2.5378877E-01
   7115.00  2.0407088E-01
   7115.33  1.5817243E-01
   7115.67  1.2709592E-01
   7116.00  1.0502630E-01
   7116.33  9.1513925E-02
   7116.67  8.4130415E-02
   7117.00  8.1384189E-02
   7117.33  8.2685800E-02
   7117.67  8.7213122E-02
   7118.00  9.5001582E-02
   7118.33  1.0658282E-01
   7118.67  1.2074253E-01
   7119.00  1.3560237E-01
   7119.33  1.5104884E-01
   7119.67  1.7009543E-01
   7120.00  1.9393955E-01
   7120.33  2.2122944E-01
   7120.67  2.4801581E-01
   7121.00  2.7092332E-01
   7121.33  2.8654006E-01
   7121.67  2.9585874E-01
   7122.00  3.0100584E-01
   7122.33  3.0488177E-01
   7122.67  3.0988508E-01
   7123.00  3.1724462E-01
   7123.33  3.2831784E-01
   7123.67  3.4271017E-01
   7124.00  3.5917590E-01
   7124.33  3.7523087E-01
   7124.67  3.8986063E-01
   7125.00  4.0448117E-01
   7125.33  4.2128147E-01
   7125.67  4.3980570E-01
   7126.00  4.5850821E-01
   7126.33  4.7554141E-01
   7126.67  4.9127378E-01
   7127.00  5.0700711E-01
   7127.33  5.2422489E-01
   7127.67  5.4379589E-01
   7128.00  5.6651922E-01
   7128.33  5.9331344E-01
   7128.67  6.2332768E-01
   7129.00  6.5560500E-01
   7129.33  6.8883906E-01
   7129.67  7.2151090E-01
   7130.00  7.5230536E-01
   7130.33  7.7834974E-01
   7130.67  7.9636014E-01
   7131.00  8.0275587E-01
   7131.33  7.9540839E-01
   7131.67  7.8220749E-01
   7132.00  7.7128437E-01
   7132.33  7.6984320E-01
   7132.67  7.7791283E-01
   7133.00  7.9377611E-01
   7133.33  8.1431255E-01
   7133.67  8.3458169E-01
   7134.00  8.5120946E-01
   7134.33  8.6127636E-01
   7134.67  8.6539181E-01
   7135.00  8.6449888E-01
   7135.33  8.5964078E-01
   7135.67  8.5259987E-01
   7136.00  8.4416738E-01
   7136.33  8.3465497E-01
   7136.67  8.2418630E-01
   7137.00  8.1256255E-01
   7137.33  7.9930814E-01
   7137.67  7.8438409E-01
   7138.00  7.6773257E-01
   7138.33  7.4926559E-01
   7138.67  7.2947595E-01
   7139.00  7.0871723E-01
   7139.33  6.8740216E-01
   7139.67  6.6607982E-01
   7140.00  6.4512676E-01
   7140.33  6.2494376E-01
   7140.67  6.0564949E-01
   7141.00  5.8737751E-01
   7141.33  5.7038052E-01
   7141.67  5.5457293E-01
   7142.00  5.3995688E-01
   7142.33  5.2662390E-01
   7142.67  5.1433382E-01
   7143.00  5.0298391E-01
   7143.33  4.9252801E-01
   7143.67  4.8269076E-01
   7144.00  4.7332313E-01
   7144.33  4.6431871E-01
   7144.67  4.5553792E-01
   7145.00  4.4694409E-01
   7145.33  4.3857809E-01
   7145.67  4.3048376E-01
   7146.00  4.2274992E-01
   7146.33  4.1555387E-01
   7146.67  4.0894802E-01
   7147.00  4.0301040E-01
   7147.33  3.9788913E-01
   7147.67  3.9350959E-01
   7148.00  3.8985407E-01
   7148.33  3.8695832E-01
   7148.67  3.8467562E-01
   7149.00  3.8295625E-01
   7149.33  3.8182488E-01
   7149.67  3.8119861E-01
   7150.00  3.8107452E-01
   7150.33  3.8151092E-01
   7150.67  3.8242814E-01
   7151.00  3.8379387E-01
   7151.33  3.8559522E-01
   7151.67  3.8769825E-01
   7152.00  3.9001372E-01
   7152.33  3.9243333E-01
   7152.67  3.9481690E-01
   7153.00  3.9706102E-01
   7153.33  3.9903032E-01
   7153.67  4.0067426E-01
   7154.00  4.0194475E-01
   7154.33  4.0275907E-01
   7154.67  4.0315936E-01
   7155.00  4.0315428E-01
   7155.33  4.0272079E-01
   7155.67  4.0194273E-01
   7156.00  4.0085940E-01
   7156.33  3.9949059E-01
   7156.67  3.9792297E-01
   7157.00  3.9620215E-01
   7157.33  3.9436230E-01
   7157.67  3.9246094E-01
   7158.00  3.9053484E-01
   7158.33  3.8862811E-01
   7158.67  3.8677984E-01
   7159.00  3.8502491E-01
   7159.33  3.8341982E-01
   7159.67  3.8198614E-01
   7160.00  3.8075481E-01
   7160.33  3.7978839E-01
   7160.67  3.7908691E-01
   7161.00  3.7867163E-01
   7161.33  3.7860022E-01
   7161.67  3.7884811E-01
   7162.00  3.7942166E-01
   7162.33  3.8036237E-01
   7162.67  3.8162315E-01
   7163.00  3.8319486E-01
   7163.33  3.8510040E-01
   7163.67  3.8727836E-01
   7164.00  3.8969949E-01
   7164.33  3.9234894E-01
   7164.67  3.9515417E-01
   7165.00  3.9806912E-01
   7165.33  4.0104170E-01
   7165.67  4.0400368E-01
   7166.00  4.0690129E-01
   7166.33  4.0965884E-01
   7166.67  4.1223888E-01
   7167.00  4.1460472E-01
   7167.33  4.1669639E-01
   7167.67  4.1853057E-01
   7168.00  4.2010819E-01
   7168.33  4.2141414E-01
   7168.67  4.2250602E-01
   7169.00  4.2341426E-01
   7169.33  4.2416066E-01
   7169.67  4.2480402E-01
   7170.00  4.2537763E-01
   7170.33  4.2591205E-01
   7170.67  4.2643989E-01
   7171.00  4.2697718E-01
   7171.33  4.2752814E-01
   7171.67  4.2806548E-01
   7172.00  4.2853790E-01
