    FDMNES
    energy     <xanes>
   7097.00  5.0410339E-03
   7097.33  5.1580078E-03
   7097.67  5.2801343E-03
   7098.00  5.4077529E-03
   7098.33  5.5420410E-03
   7098.67  5.6827429E-03
   7099.00  5.8303190E-03
   7099.33  5.9862994E-03
   7099.67  6.1504198E-03
   7100.00  6.3233208E-03
   7100.33  6.5070433E-03
   7100.67  6.7013357E-03
   7101.00  6.9071182E-03
   7101.33  7.1271965E-03
   7101.67  7.3613812E-03
   7102.00  7.6110430E-03
   7102.33  7.8801842E-03
   7102.67  8.1687858E-03
   7103.00  8.4789817E-03
   7103.33  8.8167438E-03
   7103.67  9.1824693E-03
   7104.00  9.5796638E-03
   7104.33  1.0017749E-02
   7104.67  1.0498122E-02
   7105.00  1.1026942E-02
   7105.33  1.1620162E-02
   7105.67  1.2281663E-02
   7106.00  1.3023244E-02
   7106.33  1.3874525E-02
   7106.67  1.4846076E-02
   7107.00  1.5963239E-02
   7107.33  1.7288347E-02
   7107.67  1.8852459E-02
   7108.00  2.0719476E-02
   7108.33  2.3046447E-02
   7108.67  2.5941353E-02
   7109.00  2.9609346E-02
   7109.33  3.4573900E-02
   7109.67  4.1344293E-02
   7110.00  5.0894008E-02
   7110.33  6.5962999E-02
   7110.67  9.0097958E-02
   7111.00  1.2888203E-01
   7111.33  1.8900362E-01
   7111.67  2.6189037E-01
   7112.00  3.3466818E-01
   7112.33  3.6444354E-01
   7112.67  3.6435967E-01
   7113.00  3.6354482E-01
   7113.33  3.2370774E-01
   7113.67  2.8541131E-01
   7114.00  2.7662083E-01
   7114.33  2.5032090E-01
   7114.67  1.9328608E-01
   7115.00  1.4608041E-01
   7115.33  1.1818259E-01
   7115.67  1.0063106E-01
   7116.00  9.1086095E-02
   7116.33  8.8222174E-02
   7116.67  8.9860741E-02
   7117.00  9.5437046E-02
   7117.33  1.0530404E-01
   7117.67  1.1912455E-01
   7118.00  1.3689044E-01
   7118.33  1.5845344E-01
   7118.67  1.8162040E-01
   7119.00  2.0341995E-01
   7119.33  2.2037222E-01
   7119.67  2.3247554E-01
   7120.00  2.4028822E-01
   7120.33  2.4480738E-01
   7120.67  2.4820484E-01
   7121.00  2.5199251E-01
   7121.33  2.5794457E-01
   7121.67  2.6717580E-01
   7122.00  2.8074510E-01
   7122.33  3.0008436E-01
   7122.67  3.2436650E-01
   7123.00  3.5264757E-01
   7123.33  3.8361710E-01
   7123.67  4.1549241E-01
   7124.00  4.4755003E-01
   7124.33  4.7870660E-01
   7124.67  5.0708119E-01
   7125.00  5.3044367E-01
   7125.33  5.4648150E-01
   7125.67  5.5722828E-01
   7126.00  5.6479982E-01
   7126.33  5.7076897E-01
   7126.67  5.7654234E-01
   7127.00  5.8343752E-01
   7127.33  5.9381149E-01
   7127.67  6.0879151E-01
   7128.00  6.2838662E-01
   7128.33  6.5129124E-01
   7128.67  6.7441184E-01
   7129.00  6.9543775E-01
   7129.33  7.1221028E-01
   7129.67  7.2474185E-01
   7130.00  7.3288082E-01
   7130.33  7.3535001E-01
   7130.67  7.3227019E-01
   7131.00  7.2464597E-01
   7131.33  7.1590004E-01
   7131.67  7.1011945E-01
   7132.00  7.0868196E-01
   7132.33  7.1073462E-01
   7132.67  7.1349836E-01
   7133.00  7.1561799E-01
   7133.33  7.1677473E-01
   7133.67  7.1761733E-01
   7134.00  7.1855812E-01
   7134.33  7.2019050E-01
   7134.67  7.2345488E-01
   7135.00  7.2897263E-01
   7135.33  7.3630177E-01
   7135.67  7.4350108E-01
   7136.00  7.4891615E-01
   7136.33  7.5056151E-01
   7136.67  7.4792130E-01
   7137.00  7.4075549E-01
   7137.33  7.2886642E-01
   7137.67  7.1363680E-01
   7138.00  6.9608758E-01
   7138.33  6.7741354E-01
   7138.67  6.5899178E-01
   7139.00  6.4170087E-01
   7139.33  6.2643145E-01
   7139.67  6.1315128E-01
   7140.00  6.0162121E-01
   7140.33  5.9125628E-01
   7140.67  5.8085015E-01
   7141.00  5.6940723E-01
   7141.33  5.5582293E-01
   7141.67  5.4009212E-01
   7142.00  5.2256684E-01
   7142.33  5.0399694E-01
   7142.67  4.8551035E-01
   7143.00  4.6784013E-01
   7143.33  4.5170352E-01
   7143.67  4.3719670E-01
   7144.00  4.2440254E-01
   7144.33  4.1352083E-01
   7144.67  4.0425618E-01
   7145.00  3.9650823E-01
   7145.33  3.9031587E-01
   7145.67  3.8536488E-01
   7146.00  3.8153444E-01
   7146.33  3.7881341E-01
   7146.67  3.7695607E-01
   7147.00  3.7586772E-01
   7147.33  3.7552982E-01
   7147.67  3.7576180E-01
   7148.00  3.7648266E-01
   7148.33  3.7764724E-01
   7148.67  3.7910601E-01
   7149.00  3.8078434E-01
   7149.33  3.8264257E-01
   7149.67  3.8461841E-01
   7150.00  3.8668164E-01
   7150.33  3.8880484E-01
   7150.67  3.9094672E-01
   7151.00  3.9307872E-01
   7151.33  3.9516057E-01
   7151.67  3.9716061E-01
   7152.00  3.9904759E-01
   7152.33  4.0077149E-01
   7152.67  4.0232499E-01
   7153.00  4.0369124E-01
   7153.33  4.0483004E-01
   7153.67  4.0575663E-01
   7154.00  4.0646700E-01
   7154.33  4.0693657E-01
   7154.67  4.0720342E-01
   7155.00  4.0728630E-01
   7155.33  4.0719755E-01
   7155.67  4.0699810E-01
   7156.00  4.0672874E-01
   7156.33  4.0643518E-01
   7156.67  4.0617025E-01
   7157.00  4.0597529E-01
   7157.33  4.0590428E-01
   7157.67  4.0597194E-01
   7158.00  4.0619308E-01
   7158.33  4.0659325E-01
   7158.67  4.0714623E-01
   7159.00  4.0783918E-01
   7159.33  4.0866602E-01
   7159.67  4.0958730E-01
   7160.00  4.1058208E-01
   7160.33  4.1163536E-01
   7160.67  4.1272342E-01
   7161.00  4.1383571E-01
   7161.33  4.1496649E-01
   7161.67  4.1610823E-01
   7162.00  4.1725722E-01
   7162.33  4.1841055E-01
   7162.67  4.1955742E-01
   7163.00  4.2068180E-01
   7163.33  4.2175544E-01
   7163.67  4.2276200E-01
   7164.00  4.2368690E-01
   7164.33  4.2451007E-01
   7164.67  4.2524648E-01
   7165.00  4.2590854E-01
   7165.33  4.2651340E-01
   7165.67  4.2709804E-01
   7166.00  4.2769124E-01
   7166.33  4.2832985E-01
   7166.67  4.2903461E-01
   7167.00  4.2982071E-01
   7167.33  4.3070856E-01
   7167.67  4.3168709E-01
   7168.00  4.3275061E-01
   7168.33  4.3389685E-01
   7168.67  4.3510177E-01
   7169.00  4.3635141E-01
   7169.33  4.3763371E-01
   7169.67  4.3893104E-01
   7170.00  4.4023305E-01
   7170.33  4.4152815E-01
   7170.67  4.4280546E-01
   7171.00  4.4405117E-01
   7171.33  4.4522963E-01
   7171.67  4.4629402E-01
   7172.00  4.4717109E-01
