    FDMNES
    energy     <xanes>
   7097.00  5.1042553E-03
   7097.33  5.2233162E-03
   7097.67  5.3477155E-03
   7098.00  5.4778127E-03
   7098.33  5.6148402E-03
   7098.67  5.7585433E-03
   7099.00  5.9094117E-03
   7099.33  6.0690562E-03
   7099.67  6.2372167E-03
   7100.00  6.4145790E-03
   7100.33  6.6033047E-03
   7100.67  6.8031538E-03
   7101.00  7.0151176E-03
   7101.33  7.2421897E-03
   7101.67  7.4842067E-03
   7102.00  7.7426570E-03
   7102.33  8.0218468E-03
   7102.67  8.3218155E-03
   7103.00  8.6449018E-03
   7103.33  8.9975949E-03
   7103.67  9.3804257E-03
   7104.00  9.7972809E-03
   7104.33  1.0258526E-02
   7104.67  1.0765877E-02
   7105.00  1.1326268E-02
   7105.33  1.1957540E-02
   7105.67  1.2664411E-02
   7106.00  1.3460451E-02
   7106.33  1.4379572E-02
   7106.67  1.5434826E-02
   7107.00  1.6656342E-02
   7107.33  1.8118181E-02
   7107.67  1.9860294E-02
   7108.00  2.1962998E-02
   7108.33  2.4625223E-02
   7108.67  2.7997399E-02
   7109.00  3.2364390E-02
   7109.33  3.8473090E-02
   7109.67  4.7143525E-02
   7110.00  5.9980564E-02
   7110.33  8.1646429E-02
   7110.67  1.1777203E-01
   7111.00  1.7178314E-01
   7111.33  2.2550720E-01
   7111.67  2.6454849E-01
   7112.00  2.8028113E-01
   7112.33  2.8653289E-01
   7112.67  3.1362432E-01
   7113.00  3.4840994E-01
   7113.33  3.9481875E-01
   7113.67  4.1159554E-01
   7114.00  3.5359642E-01
   7114.33  2.7756675E-01
   7114.67  2.1347721E-01
   7115.00  1.7172834E-01
   7115.33  1.5906106E-01
   7115.67  1.6427178E-01
   7116.00  1.6821533E-01
   7116.33  1.4808553E-01
   7116.67  1.2295008E-01
   7117.00  1.0627075E-01
   7117.33  1.0025237E-01
   7117.67  1.0137937E-01
   7118.00  1.0814811E-01
   7118.33  1.1918657E-01
   7118.67  1.3078867E-01
   7119.00  1.4032567E-01
   7119.33  1.4881069E-01
   7119.67  1.5981550E-01
   7120.00  1.7470864E-01
   7120.33  1.9366104E-01
   7120.67  2.1497727E-01
   7121.00  2.3704234E-01
   7121.33  2.5709952E-01
   7121.67  2.7279571E-01
   7122.00  2.8295457E-01
   7122.33  2.8750021E-01
   7122.67  2.8926307E-01
   7123.00  2.9076946E-01
   7123.33  2.9512735E-01
   7123.67  3.0399606E-01
   7124.00  3.1834161E-01
   7124.33  3.3893367E-01
   7124.67  3.6358161E-01
   7125.00  3.9008157E-01
   7125.33  4.1621030E-01
   7125.67  4.4083288E-01
   7126.00  4.6309487E-01
   7126.33  4.8168232E-01
   7126.67  4.9685267E-01
   7127.00  5.0926796E-01
   7127.33  5.2046928E-01
   7127.67  5.3270888E-01
   7128.00  5.4731933E-01
   7128.33  5.6508967E-01
   7128.67  5.8517261E-01
   7129.00  6.0685570E-01
   7129.33  6.2952326E-01
   7129.67  6.5251219E-01
   7130.00  6.7516473E-01
   7130.33  6.9565676E-01
   7130.67  7.1190333E-01
   7131.00  7.2262070E-01
   7131.33  7.2865114E-01
   7131.67  7.3477211E-01
   7132.00  7.4481577E-01
   7132.33  7.6217329E-01
   7132.67  7.8645652E-01
   7133.00  8.1657842E-01
   7133.33  8.4993719E-01
   7133.67  8.8171565E-01
   7134.00  9.0777839E-01
   7134.33  9.2310450E-01
   7134.67  9.2711873E-01
   7135.00  9.2025840E-01
   7135.33  9.0377148E-01
   7135.67  8.8186472E-01
   7136.00  8.5706252E-01
   7136.33  8.3154623E-01
   7136.67  8.0683148E-01
   7137.00  7.8356602E-01
   7137.33  7.6224400E-01
   7137.67  7.4262472E-01
   7138.00  7.2455162E-01
   7138.33  7.0790841E-01
   7138.67  6.9219836E-01
   7139.00  6.7710424E-01
   7139.33  6.6229076E-01
   7139.67  6.4741820E-01
   7140.00  6.3231221E-01
   7140.33  6.1686669E-01
   7140.67  6.0118812E-01
   7141.00  5.8541168E-01
   7141.33  5.6973938E-01
   7141.67  5.5434047E-01
   7142.00  5.3934457E-01
   7142.33  5.2493979E-01
   7142.67  5.1116951E-01
   7143.00  4.9811735E-01
   7143.33  4.8595108E-01
   7143.67  4.7463141E-01
   7144.00  4.6421011E-01
   7144.33  4.5486126E-01
   7144.67  4.4650882E-01
   7145.00  4.3917681E-01
   7145.33  4.3300354E-01
   7145.67  4.2784921E-01
   7146.00  4.2368699E-01
   7146.33  4.2057948E-01
   7146.67  4.1832620E-01
   7147.00  4.1682975E-01
   7147.33  4.1602017E-01
   7147.67  4.1564361E-01
   7148.00  4.1553268E-01
   7148.33  4.1550411E-01
   7148.67  4.1538572E-01
   7149.00  4.1508663E-01
   7149.33  4.1456188E-01
   7149.67  4.1391246E-01
   7150.00  4.1325555E-01
   7150.33  4.1276155E-01
   7150.67  4.1254500E-01
   7151.00  4.1267909E-01
   7151.33  4.1323385E-01
   7151.67  4.1413611E-01
   7152.00  4.1533387E-01
   7152.33  4.1676407E-01
   7152.67  4.1829738E-01
   7153.00  4.1984302E-01
   7153.33  4.2128812E-01
   7153.67  4.2255306E-01
   7154.00  4.2357316E-01
   7154.33  4.2425446E-01
   7154.67  4.2460289E-01
   7155.00  4.2461152E-01
   7155.33  4.2424854E-01
   7155.67  4.2357933E-01
   7156.00  4.2262928E-01
   7156.33  4.2140053E-01
   7156.67  4.1995791E-01
   7157.00  4.1832789E-01
   7157.33  4.1651753E-01
   7157.67  4.1457162E-01
   7158.00  4.1251128E-01
   7158.33  4.1035219E-01
   7158.67  4.0813689E-01
   7159.00  4.0589835E-01
   7159.33  4.0368602E-01
   7159.67  4.0155127E-01
   7160.00  3.9954564E-01
   7160.33  3.9775567E-01
   7160.67  3.9621842E-01
   7161.00  3.9498240E-01
   7161.33  3.9413927E-01
   7161.67  3.9368196E-01
   7162.00  3.9363304E-01
   7162.33  3.9405757E-01
   7162.67  3.9489842E-01
   7163.00  3.9613982E-01
   7163.33  3.9779860E-01
   7163.67  3.9978997E-01
   7164.00  4.0207723E-01
   7164.33  4.0464435E-01
   7164.67  4.0741026E-01
   7165.00  4.1033535E-01
   7165.33  4.1339552E-01
   7165.67  4.1654496E-01
   7166.00  4.1976344E-01
   7166.33  4.2303987E-01
   7166.67  4.2635373E-01
   7167.00  4.2969299E-01
   7167.33  4.3304234E-01
   7167.67  4.3637990E-01
   7168.00  4.3968455E-01
   7168.33  4.4292224E-01
   7168.67  4.4607331E-01
   7169.00  4.4911503E-01
   7169.33  4.5200547E-01
   7169.67  4.5473773E-01
   7170.00  4.5729284E-01
   7170.33  4.5962633E-01
   7170.67  4.6174536E-01
   7171.00  4.6363624E-01
   7171.33  4.6525158E-01
   7171.67  4.6659914E-01
   7172.00  4.6765440E-01
