    FDMNES
    energy     <xanes>
   7097.00  4.3774593E-03
   7097.33  4.4653792E-03
   7097.67  4.5567211E-03
   7098.00  4.6516961E-03
   7098.33  4.7510626E-03
   7098.67  4.8546332E-03
   7099.00  4.9626930E-03
   7099.33  5.0762185E-03
   7099.67  5.1950169E-03
   7100.00  5.3194853E-03
   7100.33  5.4509173E-03
   7100.67  5.5891305E-03
   7101.00  5.7346978E-03
   7101.33  5.8893944E-03
   7101.67  6.0530834E-03
   7102.00  6.2266282E-03
   7102.33  6.4125705E-03
   7102.67  6.6109000E-03
   7103.00  6.8229866E-03
   7103.33  7.0526677E-03
   7103.67  7.3002497E-03
   7104.00  7.5680475E-03
   7104.33  7.8622560E-03
   7104.67  8.1839675E-03
   7105.00  8.5374215E-03
   7105.33  8.9335148E-03
   7105.67  9.3753975E-03
   7106.00  9.8716840E-03
   7106.33  1.0443851E-02
   7106.67  1.1101014E-02
   7107.00  1.1863327E-02
   7107.33  1.2780331E-02
   7107.67  1.3881541E-02
   7108.00  1.5224678E-02
   7108.33  1.6953866E-02
   7108.67  1.9189137E-02
   7109.00  2.2156531E-02
   7109.33  2.6461814E-02
   7109.67  3.2831615E-02
   7110.00  4.2703118E-02
   7110.33  6.0249816E-02
   7110.67  8.9628913E-02
   7111.00  1.2913245E-01
   7111.33  1.5432987E-01
   7111.67  1.5758183E-01
   7112.00  1.5706384E-01
   7112.33  1.6008628E-01
   7112.67  1.5604044E-01
   7113.00  1.4868820E-01
   7113.33  1.4229340E-01
   7113.67  1.3327695E-01
   7114.00  1.2023450E-01
   7114.33  1.0298398E-01
   7114.67  8.2925119E-02
   7115.00  6.4582212E-02
   7115.33  5.2892804E-02
   7115.67  4.5958921E-02
   7116.00  4.2150398E-02
   7116.33  4.0528123E-02
   7116.67  4.0179447E-02
   7117.00  4.0709009E-02
   7117.33  4.1802033E-02
   7117.67  4.3128052E-02
   7118.00  4.4609871E-02
   7118.33  4.6403786E-02
   7118.67  4.8732602E-02
   7119.00  5.1805043E-02
   7119.33  5.5898336E-02
   7119.67  6.1031326E-02
   7120.00  6.7389236E-02
   7120.33  7.5537416E-02
   7120.67  8.5752487E-02
   7121.00  9.8466985E-02
   7121.33  1.1452641E-01
   7121.67  1.3391139E-01
   7122.00  1.5674304E-01
   7122.33  1.8334227E-01
   7122.67  2.1305130E-01
   7123.00  2.4561212E-01
   7123.33  2.8068693E-01
   7123.67  3.1684076E-01
   7124.00  3.5292589E-01
   7124.33  3.8808413E-01
   7124.67  4.2280615E-01
   7125.00  4.5823622E-01
   7125.33  4.9599687E-01
   7125.67  5.3546495E-01
   7126.00  5.7421212E-01
   7126.33  6.0799350E-01
   7126.67  6.3594723E-01
   7127.00  6.5990608E-01
   7127.33  6.8358113E-01
   7127.67  7.0916462E-01
   7128.00  7.3625107E-01
   7128.33  7.6329013E-01
   7128.67  7.8896481E-01
   7129.00  8.1236259E-01
   7129.33  8.3217937E-01
   7129.67  8.4844741E-01
   7130.00  8.6145824E-01
   7130.33  8.7145186E-01
   7130.67  8.7868413E-01
   7131.00  8.8200654E-01
   7131.33  8.7804193E-01
   7131.67  8.6504858E-01
   7132.00  8.4278001E-01
   7132.33  8.1370954E-01
   7132.67  7.8393438E-01
   7133.00  7.5753246E-01
   7133.33  7.3811091E-01
   7133.67  7.2589994E-01
   7134.00  7.2084711E-01
   7134.33  7.2287641E-01
   7134.67  7.2945854E-01
   7135.00  7.3866942E-01
   7135.33  7.4845930E-01
   7135.67  7.5716816E-01
   7136.00  7.6390288E-01
   7136.33  7.6780108E-01
   7136.67  7.6904225E-01
   7137.00  7.6772482E-01
   7137.33  7.6379573E-01
   7137.67  7.5781130E-01
   7138.00  7.4997740E-01
   7138.33  7.4029186E-01
   7138.67  7.2912897E-01
   7139.00  7.1661285E-01
   7139.33  7.0272519E-01
   7139.67  6.8776022E-01
   7140.00  6.7186177E-01
   7140.33  6.5514973E-01
   7140.67  6.3798479E-01
   7141.00  6.2065013E-01
   7141.33  6.0354969E-01
   7141.67  5.8705956E-01
   7142.00  5.7151207E-01
   7142.33  5.5739455E-01
   7142.67  5.4477754E-01
   7143.00  5.3376462E-01
   7143.33  5.2457770E-01
   7143.67  5.1694051E-01
   7144.00  5.1073321E-01
   7144.33  5.0595322E-01
   7144.67  5.0229091E-01
   7145.00  4.9963075E-01
   7145.33  4.9795842E-01
   7145.67  4.9704037E-01
   7146.00  4.9675921E-01
   7146.33  4.9700964E-01
   7146.67  4.9752576E-01
   7147.00  4.9809348E-01
   7147.33  4.9840640E-01
   7147.67  4.9820820E-01
   7148.00  4.9727654E-01
   7148.33  4.9528663E-01
   7148.67  4.9222563E-01
   7149.00  4.8805233E-01
   7149.33  4.8266485E-01
   7149.67  4.7630664E-01
   7150.00  4.6911711E-01
   7150.33  4.6121264E-01
   7150.67  4.5288518E-01
   7151.00  4.4431864E-01
   7151.33  4.3571181E-01
   7151.67  4.2724652E-01
   7152.00  4.1904788E-01
   7152.33  4.1127786E-01
   7152.67  4.0396095E-01
   7153.00  3.9711717E-01
   7153.33  3.9078551E-01
   7153.67  3.8485645E-01
   7154.00  3.7926445E-01
   7154.33  3.7394970E-01
   7154.67  3.6878454E-01
   7155.00  3.6369234E-01
   7155.33  3.5861132E-01
   7155.67  3.5351197E-01
   7156.00  3.4840022E-01
   7156.33  3.4331894E-01
   7156.67  3.3833122E-01
   7157.00  3.3350819E-01
   7157.33  3.2897199E-01
   7157.67  3.2478148E-01
   7158.00  3.2101030E-01
   7158.33  3.1779763E-01
   7158.67  3.1514681E-01
   7159.00  3.1310325E-01
   7159.33  3.1178736E-01
   7159.67  3.1114257E-01
   7160.00  3.1117831E-01
   7160.33  3.1197863E-01
   7160.67  3.1344540E-01
   7161.00  3.1555770E-01
   7161.33  3.1835707E-01
   7161.67  3.2172104E-01
   7162.00  3.2559949E-01
   7162.33  3.2997846E-01
   7162.67  3.3473519E-01
   7163.00  3.3981708E-01
   7163.33  3.4519985E-01
   7163.67  3.5079846E-01
   7164.00  3.5657458E-01
   7164.33  3.6250396E-01
   7164.67  3.6853580E-01
   7165.00  3.7464599E-01
   7165.33  3.8081280E-01
   7165.67  3.8699984E-01
   7166.00  3.9317870E-01
   7166.33  3.9930809E-01
   7166.67  4.0535559E-01
   7167.00  4.1128776E-01
   7167.33  4.1704633E-01
   7167.67  4.2261324E-01
   7168.00  4.2795936E-01
   7168.33  4.3302488E-01
   7168.67  4.3781885E-01
   7169.00  4.4232743E-01
   7169.33  4.4650360E-01
   7169.67  4.5037997E-01
   7170.00  4.5395659E-01
   7170.33  4.5720027E-01
   7170.67  4.6015333E-01
   7171.00  4.6281793E-01
   7171.33  4.6514841E-01
   7171.67  4.6714585E-01
   7172.00  4.6875048E-01
