    FDMNES
    energy     <xanes>
   7097.00  5.4424334E-03
   7097.33  5.5831187E-03
   7097.67  5.7307083E-03
   7098.00  5.8857000E-03
   7098.33  6.0497433E-03
   7098.67  6.2225536E-03
   7099.00  6.4048200E-03
   7099.33  6.5987359E-03
   7099.67  6.8040239E-03
   7100.00  7.0216650E-03
   7100.33  7.2546580E-03
   7100.67  7.5027772E-03
   7101.00  7.7674661E-03
   7101.33  8.0529629E-03
   7101.67  8.3591906E-03
   7102.00  8.6883585E-03
   7102.33  9.0466995E-03
   7102.67  9.4345009E-03
   7103.00  9.8553082E-03
   7103.33  1.0318745E-02
   7103.67  1.0825957E-02
   7104.00  1.1382976E-02
   7104.33  1.2005590E-02
   7104.67  1.2697009E-02
   7105.00  1.3468276E-02
   7105.33  1.4347388E-02
   7105.67  1.5342813E-02
   7106.00  1.6476802E-02
   7106.33  1.7804395E-02
   7106.67  1.9348881E-02
   7107.00  2.1161328E-02
   7107.33  2.3366611E-02
   7107.67  2.6036926E-02
   7108.00  2.9313634E-02
   7108.33  3.3547033E-02
   7108.67  3.9015842E-02
   7109.00  4.6243259E-02
   7109.33  5.6609878E-02
   7109.67  7.1686259E-02
   7110.00  9.4545998E-02
   7110.33  1.3406513E-01
   7110.67  2.0009898E-01
   7111.00  2.9671129E-01
   7111.33  3.9618635E-01
   7111.67  4.5760534E-01
   7112.00  4.7965410E-01
   7112.33  4.8940038E-01
   7112.67  4.8532984E-01
   7113.00  4.5410583E-01
   7113.33  3.9901058E-01
   7113.67  3.3996562E-01
   7114.00  2.8913881E-01
   7114.33  2.5096899E-01
   7114.67  2.1955692E-01
   7115.00  1.9182398E-01
   7115.33  1.6840283E-01
   7115.67  1.5041667E-01
   7116.00  1.3835299E-01
   7116.33  1.3239237E-01
   7116.67  1.3073639E-01
   7117.00  1.3266613E-01
   7117.33  1.3871744E-01
   7117.67  1.4808928E-01
   7118.00  1.5895915E-01
   7118.33  1.6819817E-01
   7118.67  1.7403284E-01
   7119.00  1.7564365E-01
   7119.33  1.7406948E-01
   7119.67  1.7308581E-01
   7120.00  1.7434284E-01
   7120.33  1.7832212E-01
   7120.67  1.8466632E-01
   7121.00  1.9400916E-01
   7121.33  2.0812617E-01
   7121.67  2.2742981E-01
   7122.00  2.5220994E-01
   7122.33  2.8241726E-01
   7122.67  3.1485403E-01
   7123.00  3.4585737E-01
   7123.33  3.7227863E-01
   7123.67  3.9606909E-01
   7124.00  4.2007906E-01
   7124.33  4.4711345E-01
   7124.67  4.7747904E-01
   7125.00  5.1037603E-01
   7125.33  5.4390055E-01
   7125.67  5.7528924E-01
   7126.00  6.0187448E-01
   7126.33  6.2018827E-01
   7126.67  6.3079383E-01
   7127.00  6.3554519E-01
   7127.33  6.3745396E-01
   7127.67  6.3983321E-01
   7128.00  6.4426305E-01
   7128.33  6.5092580E-01
   7128.67  6.5851829E-01
   7129.00  6.6748792E-01
   7129.33  6.7867596E-01
   7129.67  6.8899555E-01
   7130.00  6.9435181E-01
   7130.33  6.9124394E-01
   7130.67  6.8138819E-01
   7131.00  6.6659326E-01
   7131.33  6.4861206E-01
   7131.67  6.2943007E-01
   7132.00  6.1002836E-01
   7132.33  5.9199908E-01
   7132.67  5.7722397E-01
   7133.00  5.6720861E-01
   7133.33  5.6323181E-01
   7133.67  5.6379870E-01
   7134.00  5.6722699E-01
   7134.33  5.7107000E-01
   7134.67  5.7344947E-01
   7135.00  5.7439019E-01
   7135.33  5.7560843E-01
   7135.67  5.7880102E-01
   7136.00  5.8460187E-01
   7136.33  5.9324532E-01
   7136.67  6.0383072E-01
   7137.00  6.1549766E-01
   7137.33  6.2676569E-01
   7137.67  6.3610868E-01
   7138.00  6.4251085E-01
   7138.33  6.4500729E-01
   7138.67  6.4419458E-01
   7139.00  6.4059559E-01
   7139.33  6.3472056E-01
   7139.67  6.2752560E-01
   7140.00  6.1945409E-01
   7140.33  6.1072047E-01
   7140.67  6.0149188E-01
   7141.00  5.9177586E-01
   7141.33  5.8153957E-01
   7141.67  5.7094301E-01
   7142.00  5.6013630E-01
   7142.33  5.4932043E-01
   7142.67  5.3867333E-01
   7143.00  5.2830256E-01
   7143.33  5.1833702E-01
   7143.67  5.0881560E-01
   7144.00  4.9985005E-01
   7144.33  4.9173338E-01
   7144.67  4.8462531E-01
   7145.00  4.7874666E-01
   7145.33  4.7447005E-01
   7145.67  4.7169353E-01
   7146.00  4.7038100E-01
   7146.33  4.7054450E-01
   7146.67  4.7174995E-01
   7147.00  4.7369515E-01
   7147.33  4.7605003E-01
   7147.67  4.7843340E-01
   7148.00  4.8062475E-01
   7148.33  4.8241204E-01
   7148.67  4.8375165E-01
   7149.00  4.8460661E-01
   7149.33  4.8489899E-01
   7149.67  4.8469385E-01
   7150.00  4.8400029E-01
   7150.33  4.8276881E-01
   7150.67  4.8106176E-01
   7151.00  4.7887220E-01
   7151.33  4.7612115E-01
   7151.67  4.7285507E-01
   7152.00  4.6907229E-01
   7152.33  4.6473790E-01
   7152.67  4.5998209E-01
   7153.00  4.5490300E-01
   7153.33  4.4963624E-01
   7153.67  4.4438919E-01
   7154.00  4.3932364E-01
   7154.33  4.3463450E-01
   7154.67  4.3035836E-01
   7155.00  4.2648620E-01
   7155.33  4.2296464E-01
   7155.67  4.1961147E-01
   7156.00  4.1630100E-01
   7156.33  4.1290769E-01
   7156.67  4.0936833E-01
   7157.00  4.0565051E-01
   7157.33  4.0171324E-01
   7157.67  3.9757842E-01
   7158.00  3.9325521E-01
   7158.33  3.8875207E-01
   7158.67  3.8414026E-01
   7159.00  3.7948063E-01
   7159.33  3.7486148E-01
   7159.67  3.7036639E-01
   7160.00  3.6606252E-01
   7160.33  3.6203788E-01
   7160.67  3.5829883E-01
   7161.00  3.5486742E-01
   7161.33  3.5179768E-01
   7161.67  3.4904945E-01
   7162.00  3.4661759E-01
   7162.33  3.4454028E-01
   7162.67  3.4278867E-01
   7163.00  3.4138183E-01
   7163.33  3.4039930E-01
   7163.67  3.3983316E-01
   7164.00  3.3971767E-01
   7164.33  3.4014745E-01
   7164.67  3.4108217E-01
   7165.00  3.4252268E-01
   7165.33  3.4450759E-01
   7165.67  3.4693062E-01
   7166.00  3.4973663E-01
   7166.33  3.5288790E-01
   7166.67  3.5626548E-01
   7167.00  3.5980366E-01
   7167.33  3.6344921E-01
   7167.67  3.6714165E-01
   7168.00  3.7085384E-01
   7168.33  3.7457055E-01
   7168.67  3.7828904E-01
   7169.00  3.8201458E-01
   7169.33  3.8575905E-01
   7169.67  3.8952894E-01
   7170.00  3.9332665E-01
   7170.33  3.9714700E-01
   7170.67  4.0096186E-01
   7171.00  4.0472657E-01
   7171.33  4.0832434E-01
   7171.67  4.1158891E-01
   7172.00  4.1427852E-01
