    FDMNES
    energy     <xanes>
   7097.00  5.2876444E-03
   7097.33  5.4197971E-03
   7097.67  5.5582540E-03
   7098.00  5.7034598E-03
   7098.33  5.8569050E-03
   7098.67  6.0183167E-03
   7099.00  6.1883082E-03
   7099.33  6.3688509E-03
   7099.67  6.5596751E-03
   7100.00  6.7616499E-03
   7100.33  6.9774566E-03
   7100.67  7.2068661E-03
   7101.00  7.4511522E-03
   7101.33  7.7140839E-03
   7101.67  7.9955562E-03
   7102.00  8.2975104E-03
   7102.33  8.6254606E-03
   7102.67  8.9796111E-03
   7103.00  9.3630659E-03
   7103.33  9.7842956E-03
   7103.67  1.0244241E-02
   7104.00  1.0748167E-02
   7104.33  1.1309907E-02
   7104.67  1.1932183E-02
   7105.00  1.2624611E-02
   7105.33  1.3411640E-02
   7105.67  1.4300551E-02
   7106.00  1.5310707E-02
   7106.33  1.6490096E-02
   7106.67  1.7858940E-02
   7107.00  1.9461774E-02
   7107.33  2.1407679E-02
   7107.67  2.3760010E-02
   7108.00  2.6642992E-02
   7108.33  3.0365287E-02
   7108.67  3.5175693E-02
   7109.00  4.1542458E-02
   7109.33  5.0709155E-02
   7109.67  6.4120278E-02
   7110.00  8.4616413E-02
   7110.33  1.2037992E-01
   7110.67  1.7963995E-01
   7111.00  2.6136562E-01
   7111.33  3.3233333E-01
   7111.67  3.7146728E-01
   7112.00  3.8640391E-01
   7112.33  3.9615390E-01
   7112.67  4.0527887E-01
   7113.00  4.0852738E-01
   7113.33  3.9189121E-01
   7113.67  3.5228730E-01
   7114.00  2.9815059E-01
   7114.33  2.4296281E-01
   7114.67  1.9694649E-01
   7115.00  1.6331814E-01
   7115.33  1.4205975E-01
   7115.67  1.2891725E-01
   7116.00  1.2182736E-01
   7116.33  1.1966755E-01
   7116.67  1.2111754E-01
   7117.00  1.2614732E-01
   7117.33  1.3496783E-01
   7117.67  1.4568768E-01
   7118.00  1.5657429E-01
   7118.33  1.6622863E-01
   7118.67  1.7345222E-01
   7119.00  1.7768623E-01
   7119.33  1.8074474E-01
   7119.67  1.8520179E-01
   7120.00  1.9214981E-01
   7120.33  2.0238407E-01
   7120.67  2.1530510E-01
   7121.00  2.3119694E-01
   7121.33  2.5199929E-01
   7121.67  2.7829142E-01
   7122.00  3.1082170E-01
   7122.33  3.4938561E-01
   7122.67  3.8883583E-01
   7123.00  4.2421899E-01
   7123.33  4.5001947E-01
   7123.67  4.6729762E-01
   7124.00  4.8012211E-01
   7124.33  4.9350691E-01
   7124.67  5.0965131E-01
   7125.00  5.2883995E-01
   7125.33  5.5165933E-01
   7125.67  5.7829353E-01
   7126.00  6.0836702E-01
   7126.33  6.3807782E-01
   7126.67  6.5981639E-01
   7127.00  6.6791968E-01
   7127.33  6.6166661E-01
   7127.67  6.5021655E-01
   7128.00  6.4020621E-01
   7128.33  6.3603709E-01
   7128.67  6.3627270E-01
   7129.00  6.3832681E-01
   7129.33  6.4031090E-01
   7129.67  6.4327432E-01
   7130.00  6.4853427E-01
   7130.33  6.5457916E-01
   7130.67  6.5667787E-01
   7131.00  6.5179710E-01
   7131.33  6.3955736E-01
   7131.67  6.2380881E-01
   7132.00  6.0690653E-01
   7132.33  5.9058117E-01
   7132.67  5.7571081E-01
   7133.00  5.6266177E-01
   7133.33  5.5166987E-01
   7133.67  5.4247787E-01
   7134.00  5.3525103E-01
   7134.33  5.3051856E-01
   7134.67  5.2812488E-01
   7135.00  5.2799151E-01
   7135.33  5.2992021E-01
   7135.67  5.3291398E-01
   7136.00  5.3629793E-01
   7136.33  5.3951330E-01
   7136.67  5.4222209E-01
   7137.00  5.4408571E-01
   7137.33  5.4444265E-01
   7137.67  5.4307206E-01
   7138.00  5.3991719E-01
   7138.33  5.3505914E-01
   7138.67  5.2916558E-01
   7139.00  5.2269374E-01
   7139.33  5.1613559E-01
   7139.67  5.0992190E-01
   7140.00  5.0432860E-01
   7140.33  4.9965518E-01
   7140.67  4.9583632E-01
   7141.00  4.9277211E-01
   7141.33  4.9031294E-01
   7141.67  4.8818135E-01
   7142.00  4.8627815E-01
   7142.33  4.8461457E-01
   7142.67  4.8318346E-01
   7143.00  4.8196523E-01
   7143.33  4.8089190E-01
   7143.67  4.7984669E-01
   7144.00  4.7878599E-01
   7144.33  4.7775934E-01
   7144.67  4.7692389E-01
   7145.00  4.7649045E-01
   7145.33  4.7681639E-01
   7145.67  4.7803809E-01
   7146.00  4.8024372E-01
   7146.33  4.8350232E-01
   7146.67  4.8750556E-01
   7147.00  4.9201772E-01
   7147.33  4.9676696E-01
   7147.67  5.0144764E-01
   7148.00  5.0585346E-01
   7148.33  5.0972165E-01
   7148.67  5.1295359E-01
   7149.00  5.1545245E-01
   7149.33  5.1703927E-01
   7149.67  5.1778154E-01
   7150.00  5.1769220E-01
   7150.33  5.1673412E-01
   7150.67  5.1509267E-01
   7151.00  5.1284848E-01
   7151.33  5.1001297E-01
   7151.67  5.0669435E-01
   7152.00  5.0289555E-01
   7152.33  4.9852306E-01
   7152.67  4.9359640E-01
   7153.00  4.8808967E-01
   7153.33  4.8194407E-01
   7153.67  4.7530850E-01
   7154.00  4.6830574E-01
   7154.33  4.6110732E-01
   7154.67  4.5395371E-01
   7155.00  4.4702782E-01
   7155.33  4.4056295E-01
   7155.67  4.3464030E-01
   7156.00  4.2932823E-01
   7156.33  4.2473222E-01
   7156.67  4.2074422E-01
   7157.00  4.1730068E-01
   7157.33  4.1434504E-01
   7157.67  4.1169051E-01
   7158.00  4.0922258E-01
   7158.33  4.0683446E-01
   7158.67  4.0443666E-01
   7159.00  4.0199455E-01
   7159.33  3.9949779E-01
   7159.67  3.9697690E-01
   7160.00  3.9446805E-01
   7160.33  3.9203349E-01
   7160.67  3.8971336E-01
   7161.00  3.8753122E-01
   7161.33  3.8551751E-01
   7161.67  3.8365350E-01
   7162.00  3.8193127E-01
   7162.33  3.8035127E-01
   7162.67  3.7888221E-01
   7163.00  3.7751651E-01
   7163.33  3.7627152E-01
   7163.67  3.7515429E-01
   7164.00  3.7419377E-01
   7164.33  3.7345577E-01
   7164.67  3.7295859E-01
   7165.00  3.7273690E-01
   7165.33  3.7286393E-01
   7165.67  3.7332729E-01
   7166.00  3.7414217E-01
   7166.33  3.7536321E-01
   7166.67  3.7694849E-01
   7167.00  3.7889761E-01
   7167.33  3.8125274E-01
   7167.67  3.8396329E-01
   7168.00  3.8702276E-01
   7168.33  3.9046489E-01
   7168.67  3.9423648E-01
   7169.00  3.9832468E-01
   7169.33  4.0274303E-01
   7169.67  4.0741842E-01
   7170.00  4.1230553E-01
   7170.33  4.1734947E-01
   7170.67  4.2243470E-01
   7171.00  4.2745017E-01
   7171.33  4.3218857E-01
   7171.67  4.3642165E-01
   7172.00  4.3985584E-01
