    FDMNES
    energy     <xanes>
   7097.00  5.1970198E-03
   7097.33  5.3307668E-03
   7097.67  5.4710736E-03
   7098.00  5.6184158E-03
   7098.33  5.7743663E-03
   7098.67  5.9386595E-03
   7099.00  6.1119566E-03
   7099.33  6.2963550E-03
   7099.67  6.4916000E-03
   7100.00  6.6986373E-03
   7100.33  6.9203463E-03
   7100.67  7.1565291E-03
   7101.00  7.4085858E-03
   7101.33  7.6806077E-03
   7101.67  7.9725551E-03
   7102.00  8.2865875E-03
   7102.33  8.6287650E-03
   7102.67  8.9994316E-03
   7103.00  9.4020872E-03
   7103.33  9.8461778E-03
   7103.67  1.0332954E-02
   7104.00  1.0868445E-02
   7104.33  1.1468344E-02
   7104.67  1.2136097E-02
   7105.00  1.2882922E-02
   7105.33  1.3737115E-02
   7105.67  1.4707798E-02
   7106.00  1.5818043E-02
   7106.33  1.7124725E-02
   7106.67  1.8653292E-02
   7107.00  2.0458141E-02
   7107.33  2.2672198E-02
   7107.67  2.5376303E-02
   7108.00  2.8726539E-02
   7108.33  3.3111203E-02
   7108.67  3.8854144E-02
   7109.00  4.6561907E-02
   7109.33  5.7852611E-02
   7109.67  7.4647761E-02
   7110.00  1.0072900E-01
   7110.33  1.4701829E-01
   7110.67  2.2445029E-01
   7111.00  3.3098335E-01
   7111.33  4.2192380E-01
   7111.67  4.7088911E-01
   7112.00  4.7665112E-01
   7112.33  4.3904294E-01
   7112.67  3.8071205E-01
   7113.00  3.1993044E-01
   7113.33  2.6874926E-01
   7113.67  2.2707218E-01
   7114.00  1.9307727E-01
   7114.33  1.6630125E-01
   7114.67  1.4563020E-01
   7115.00  1.3078871E-01
   7115.33  1.2193988E-01
   7115.67  1.1820416E-01
   7116.00  1.1978654E-01
   7116.33  1.2682926E-01
   7116.67  1.3546697E-01
   7117.00  1.4123316E-01
   7117.33  1.4174589E-01
   7117.67  1.4063696E-01
   7118.00  1.4202404E-01
   7118.33  1.5013998E-01
   7118.67  1.6361200E-01
   7119.00  1.7753649E-01
   7119.33  1.8516089E-01
   7119.67  1.9031428E-01
   7120.00  1.9819923E-01
   7120.33  2.1099883E-01
   7120.67  2.2962416E-01
   7121.00  2.5608558E-01
   7121.33  2.9187729E-01
   7121.67  3.3239248E-01
   7122.00  3.7223457E-01
   7122.33  4.0796490E-01
   7122.67  4.4252746E-01
   7123.00  4.7841325E-01
   7123.33  5.1466342E-01
   7123.67  5.4695239E-01
   7124.00  5.7239859E-01
   7124.33  5.9080894E-01
   7124.67  6.0707211E-01
   7125.00  6.2359614E-01
   7125.33  6.3744837E-01
   7125.67  6.4286369E-01
   7126.00  6.3687408E-01
   7126.33  6.2028850E-01
   7126.67  5.9940624E-01
   7127.00  5.7763857E-01
   7127.33  5.5570908E-01
   7127.67  5.3307153E-01
   7128.00  5.1105662E-01
   7128.33  4.9265491E-01
   7128.67  4.7767877E-01
   7129.00  4.6463677E-01
   7129.33  4.5233736E-01
   7129.67  4.4060032E-01
   7130.00  4.2971784E-01
   7130.33  4.1999282E-01
   7130.67  4.1133372E-01
   7131.00  4.0381773E-01
   7131.33  3.9751843E-01
   7131.67  3.9204671E-01
   7132.00  3.8744695E-01
   7132.33  3.8450027E-01
   7132.67  3.8394244E-01
   7133.00  3.8659955E-01
   7133.33  3.9362550E-01
   7133.67  4.0444455E-01
   7134.00  4.1823278E-01
   7134.33  4.3348660E-01
   7134.67  4.4809546E-01
   7135.00  4.6086272E-01
   7135.33  4.7132646E-01
   7135.67  4.8053719E-01
   7136.00  4.8950443E-01
   7136.33  4.9958325E-01
   7136.67  5.1162590E-01
   7137.00  5.2595288E-01
   7137.33  5.4234959E-01
   7137.67  5.5940696E-01
   7138.00  5.7588842E-01
   7138.33  5.9035184E-01
   7138.67  6.0229594E-01
   7139.00  6.1150975E-01
   7139.33  6.1780099E-01
   7139.67  6.2182044E-01
   7140.00  6.2385492E-01
   7140.33  6.2406073E-01
   7140.67  6.2298099E-01
   7141.00  6.2083622E-01
   7141.33  6.1767705E-01
   7141.67  6.1373108E-01
   7142.00  6.0913875E-01
   7142.33  6.0416209E-01
   7142.67  5.9932144E-01
   7143.00  5.9510589E-01
   7143.33  5.9218789E-01
   7143.67  5.9079620E-01
   7144.00  5.9107645E-01
   7144.33  5.9318255E-01
   7144.67  5.9666961E-01
   7145.00  6.0123840E-01
   7145.33  6.0660285E-01
   7145.67  6.1233277E-01
   7146.00  6.1818490E-01
   7146.33  6.2393127E-01
   7146.67  6.2943923E-01
   7147.00  6.3464705E-01
   7147.33  6.3953360E-01
   7147.67  6.4423980E-01
   7148.00  6.4890134E-01
   7148.33  6.5367376E-01
   7148.67  6.5858455E-01
   7149.00  6.6353109E-01
   7149.33  6.6818439E-01
   7149.67  6.7212634E-01
   7150.00  6.7490434E-01
   7150.33  6.7578919E-01
   7150.67  6.7457119E-01
   7151.00  6.7103489E-01
   7151.33  6.6486045E-01
   7151.67  6.5655663E-01
   7152.00  6.4645981E-01
   7152.33  6.3490203E-01
   7152.67  6.2256947E-01
   7153.00  6.0987833E-01
   7153.33  5.9723479E-01
   7153.67  5.8492667E-01
   7154.00  5.7312225E-01
   7154.33  5.6201198E-01
   7154.67  5.5156365E-01
   7155.00  5.4177517E-01
   7155.33  5.3268311E-01
   7155.67  5.2413310E-01
   7156.00  5.1603039E-01
   7156.33  5.0826881E-01
   7156.67  5.0064135E-01
   7157.00  4.9299910E-01
   7157.33  4.8516211E-01
   7157.67  4.7702644E-01
   7158.00  4.6852003E-01
   7158.33  4.5955658E-01
   7158.67  4.5020293E-01
   7159.00  4.4051080E-01
   7159.33  4.3054569E-01
   7159.67  4.2045532E-01
   7160.00  4.1035328E-01
   7160.33  4.0039744E-01
   7160.67  3.9070994E-01
   7161.00  3.8140117E-01
   7161.33  3.7264391E-01
   7161.67  3.6446342E-01
   7162.00  3.5691208E-01
   7162.33  3.5010785E-01
   7162.67  3.4397522E-01
   7163.00  3.3850030E-01
   7163.33  3.3372590E-01
   7163.67  3.2952700E-01
   7164.00  3.2585946E-01
   7164.33  3.2273340E-01
   7164.67  3.2004566E-01
   7165.00  3.1776809E-01
   7165.33  3.1592711E-01
   7165.67  3.1446246E-01
   7166.00  3.1337083E-01
   7166.33  3.1270171E-01
   7166.67  3.1241632E-01
   7167.00  3.1252455E-01
   7167.33  3.1308963E-01
   7167.67  3.1407153E-01
   7168.00  3.1547635E-01
   7168.33  3.1735911E-01
   7168.67  3.1966080E-01
   7169.00  3.2236802E-01
   7169.33  3.2550024E-01
   7169.67  3.2896669E-01
   7170.00  3.3271583E-01
   7170.33  3.3669653E-01
   7170.67  3.4078570E-01
   7171.00  3.4487787E-01
   7171.33  3.4879193E-01
   7171.67  3.5231427E-01
   7172.00  3.5517529E-01
