    FDMNES
    energy     <xanes>
   7097.00  4.9158586E-03
   7097.33  5.0346739E-03
   7097.67  5.1590350E-03
   7098.00  5.2893317E-03
   7098.33  5.4268722E-03
   7098.67  5.5714151E-03
   7099.00  5.7234978E-03
   7099.33  5.8848513E-03
   7099.67  6.0552373E-03
   7100.00  6.2354187E-03
   7100.33  6.4277504E-03
   7100.67  6.6320311E-03
   7101.00  6.8493801E-03
   7101.33  7.0831097E-03
   7101.67  7.3331291E-03
   7102.00  7.6011464E-03
   7102.33  7.8920103E-03
   7102.67  8.2059043E-03
   7103.00  8.5455604E-03
   7103.33  8.9184308E-03
   7103.67  9.3253474E-03
   7104.00  9.7709413E-03
   7104.33  1.0267380E-02
   7104.67  1.0817053E-02
   7105.00  1.1428403E-02
   7105.33  1.2122891E-02
   7105.67  1.2906861E-02
   7106.00  1.3797231E-02
   7106.33  1.4835924E-02
   7106.67  1.6040364E-02
   7107.00  1.7449102E-02
   7107.33  1.9156456E-02
   7107.67  2.1216151E-02
   7108.00  2.3733877E-02
   7108.33  2.6971360E-02
   7108.67  3.1134271E-02
   7109.00  3.6609342E-02
   7109.33  4.4415512E-02
   7109.67  5.5702617E-02
   7110.00  7.2719596E-02
   7110.33  1.0191632E-01
   7110.67  1.5002365E-01
   7111.00  2.1802990E-01
   7111.33  2.8450663E-01
   7111.67  3.3740228E-01
   7112.00  3.8976317E-01
   7112.33  4.3840321E-01
   7112.67  4.5298276E-01
   7113.00  4.0524386E-01
   7113.33  3.0958864E-01
   7113.67  2.2872850E-01
   7114.00  1.7660325E-01
   7114.33  1.5157325E-01
   7114.67  1.4553750E-01
   7115.00  1.5551115E-01
   7115.33  1.7017658E-01
   7115.67  1.6587652E-01
   7116.00  1.4131786E-01
   7116.33  1.1580412E-01
   7116.67  9.8088933E-02
   7117.00  8.7728392E-02
   7117.33  8.3356669E-02
   7117.67  8.2400265E-02
   7118.00  8.3389515E-02
   7118.33  8.5446304E-02
   7118.67  8.8671046E-02
   7119.00  9.3382948E-02
   7119.33  9.9042533E-02
   7119.67  1.0418368E-01
   7120.00  1.0796559E-01
   7120.33  1.1101463E-01
   7120.67  1.1565916E-01
   7121.00  1.2343681E-01
   7121.33  1.3516189E-01
   7121.67  1.5011744E-01
   7122.00  1.6844416E-01
   7122.33  1.9102747E-01
   7122.67  2.1695740E-01
   7123.00  2.4482018E-01
   7123.33  2.7367927E-01
   7123.67  3.0401622E-01
   7124.00  3.3547249E-01
   7124.33  3.6500487E-01
   7124.67  3.8897398E-01
   7125.00  4.0499369E-01
   7125.33  4.1270251E-01
   7125.67  4.1682521E-01
   7126.00  4.2139464E-01
   7126.33  4.3081244E-01
   7126.67  4.4647589E-01
   7127.00  4.6835904E-01
   7127.33  4.9560776E-01
   7127.67  5.2579775E-01
   7128.00  5.5778002E-01
   7128.33  5.9009864E-01
   7128.67  6.2024669E-01
   7129.00  6.4701271E-01
   7129.33  6.7296297E-01
   7129.67  7.0206960E-01
   7130.00  7.3382887E-01
   7130.33  7.6290224E-01
   7130.67  7.8446402E-01
   7131.00  7.9650851E-01
   7131.33  7.9786037E-01
   7131.67  7.9110832E-01
   7132.00  7.7851326E-01
   7132.33  7.6336099E-01
   7132.67  7.4921486E-01
   7133.00  7.3795301E-01
   7133.33  7.3117298E-01
   7133.67  7.2849655E-01
   7134.00  7.2929745E-01
   7134.33  7.3229820E-01
   7134.67  7.3537991E-01
   7135.00  7.3739424E-01
   7135.33  7.3801311E-01
   7135.67  7.3807179E-01
   7136.00  7.3811706E-01
   7136.33  7.3831202E-01
   7136.67  7.3832452E-01
   7137.00  7.3770721E-01
   7137.33  7.3583302E-01
   7137.67  7.3258301E-01
   7138.00  7.2797150E-01
   7138.33  7.2203118E-01
   7138.67  7.1509708E-01
   7139.00  7.0725504E-01
   7139.33  6.9833486E-01
   7139.67  6.8817756E-01
   7140.00  6.7638028E-01
   7140.33  6.6229271E-01
   7140.67  6.4633391E-01
   7141.00  6.2933740E-01
   7141.33  6.1296720E-01
   7141.67  5.9883271E-01
   7142.00  5.8795932E-01
   7142.33  5.8120056E-01
   7142.67  5.7762881E-01
   7143.00  5.7628688E-01
   7143.33  5.7575581E-01
   7143.67  5.7433082E-01
   7144.00  5.7082905E-01
   7144.33  5.6407944E-01
   7144.67  5.5444400E-01
   7145.00  5.4253621E-01
   7145.33  5.2937404E-01
   7145.67  5.1637595E-01
   7146.00  5.0446086E-01
   7146.33  4.9455413E-01
   7146.67  4.8675679E-01
   7147.00  4.8111054E-01
   7147.33  4.7770798E-01
   7147.67  4.7603572E-01
   7148.00  4.7584419E-01
   7148.33  4.7699324E-01
   7148.67  4.7905530E-01
   7149.00  4.8180546E-01
   7149.33  4.8506222E-01
   7149.67  4.8855674E-01
   7150.00  4.9212174E-01
   7150.33  4.9555920E-01
   7150.67  4.9871222E-01
   7151.00  5.0145697E-01
   7151.33  5.0364825E-01
   7151.67  5.0536828E-01
   7152.00  5.0673322E-01
   7152.33  5.0795098E-01
   7152.67  5.0928721E-01
   7153.00  5.1090982E-01
   7153.33  5.1294727E-01
   7153.67  5.1529168E-01
   7154.00  5.1778860E-01
   7154.33  5.2017661E-01
   7154.67  5.2220915E-01
   7155.00  5.2370347E-01
   7155.33  5.2444224E-01
   7155.67  5.2446897E-01
   7156.00  5.2380899E-01
   7156.33  5.2245136E-01
   7156.67  5.2054518E-01
   7157.00  5.1813535E-01
   7157.33  5.1518227E-01
   7157.67  5.1173315E-01
   7158.00  5.0775687E-01
   7158.33  5.0313704E-01
   7158.67  4.9790992E-01
   7159.00  4.9206709E-01
   7159.33  4.8556356E-01
   7159.67  4.7854744E-01
   7160.00  4.7111603E-01
   7160.33  4.6337777E-01
   7160.67  4.5552700E-01
   7161.00  4.4770146E-01
   7161.33  4.4006729E-01
   7161.67  4.3271891E-01
   7162.00  4.2572660E-01
   7162.33  4.1918459E-01
   7162.67  4.1305198E-01
   7163.00  4.0731589E-01
   7163.33  4.0199039E-01
   7163.67  3.9698820E-01
   7164.00  3.9227258E-01
   7164.33  3.8783823E-01
   7164.67  3.8362803E-01
   7165.00  3.7963054E-01
   7165.33  3.7587103E-01
   7165.67  3.7233287E-01
   7166.00  3.6903172E-01
   7166.33  3.6602404E-01
   7166.67  3.6330295E-01
   7167.00  3.6088877E-01
   7167.33  3.5884134E-01
   7167.67  3.5713275E-01
   7168.00  3.5576798E-01
   7168.33  3.5478776E-01
   7168.67  3.5414022E-01
   7169.00  3.5381343E-01
   7169.33  3.5382794E-01
   7169.67  3.5412529E-01
   7170.00  3.5468525E-01
   7170.33  3.5550973E-01
   7170.67  3.5653499E-01
   7171.00  3.5772106E-01
   7171.33  3.5900740E-01
   7171.67  3.6025933E-01
   7172.00  3.6131735E-01
