    FDMNES
    energy     <xanes>
   7097.00  4.9256331E-03
   7097.33  5.0425732E-03
   7097.67  5.1650004E-03
   7098.00  5.2933033E-03
   7098.33  5.4287811E-03
   7098.67  5.5711984E-03
   7099.00  5.7210916E-03
   7099.33  5.8801821E-03
   7099.67  6.0482382E-03
   7100.00  6.2260218E-03
   7100.33  6.4158776E-03
   7100.67  6.6176115E-03
   7101.00  6.8323417E-03
   7101.33  7.0633697E-03
   7101.67  7.3106126E-03
   7102.00  7.5757769E-03
   7102.33  7.8637001E-03
   7102.67  8.1745738E-03
   7103.00  8.5111288E-03
   7103.33  8.8808054E-03
   7103.67  9.2844451E-03
   7104.00  9.7266790E-03
   7104.33  1.0219666E-02
   7104.67  1.0765811E-02
   7105.00  1.1373565E-02
   7105.33  1.2064404E-02
   7105.67  1.2844713E-02
   7106.00  1.3731468E-02
   7106.33  1.4766720E-02
   7106.67  1.5968073E-02
   7107.00  1.7374364E-02
   7107.33  1.9080638E-02
   7107.67  2.1141495E-02
   7108.00  2.3664147E-02
   7108.33  2.6914341E-02
   7108.67  3.1102813E-02
   7109.00  3.6625550E-02
   7109.33  4.4527448E-02
   7109.67  5.5995402E-02
   7110.00  7.3351256E-02
   7110.33  1.0327327E-01
   7110.67  1.5292396E-01
   7111.00  2.2445745E-01
   7111.33  3.0123689E-01
   7111.67  3.6436316E-01
   7112.00  3.8903992E-01
   7112.33  3.6134386E-01
   7112.67  3.2178414E-01
   7113.00  2.8960594E-01
   7113.33  2.7488158E-01
   7113.67  2.7234301E-01
   7114.00  2.6032944E-01
   7114.33  2.3241192E-01
   7114.67  2.1481695E-01
   7115.00  2.1386067E-01
   7115.33  2.1431447E-01
   7115.67  2.0620792E-01
   7116.00  1.9423530E-01
   7116.33  1.7991133E-01
   7116.67  1.6558847E-01
   7117.00  1.5525660E-01
   7117.33  1.5127940E-01
   7117.67  1.5073491E-01
   7118.00  1.5035153E-01
   7118.33  1.4714867E-01
   7118.67  1.4155153E-01
   7119.00  1.3504300E-01
   7119.33  1.2912630E-01
   7119.67  1.2418949E-01
   7120.00  1.2017564E-01
   7120.33  1.1719594E-01
   7120.67  1.1527859E-01
   7121.00  1.1450718E-01
   7121.33  1.1500041E-01
   7121.67  1.1657297E-01
   7122.00  1.1929946E-01
   7122.33  1.2360660E-01
   7122.67  1.2960949E-01
   7123.00  1.3740328E-01
   7123.33  1.4674215E-01
   7123.67  1.5650481E-01
   7124.00  1.6637400E-01
   7124.33  1.7754172E-01
   7124.67  1.9132966E-01
   7125.00  2.0826047E-01
   7125.33  2.2793926E-01
   7125.67  2.4816976E-01
   7126.00  2.6722949E-01
   7126.33  2.8425640E-01
   7126.67  3.0071530E-01
   7127.00  3.1824258E-01
   7127.33  3.3820677E-01
   7127.67  3.6057314E-01
   7128.00  3.8559130E-01
   7128.33  4.1390587E-01
   7128.67  4.4462231E-01
   7129.00  4.7653233E-01
   7129.33  5.0855965E-01
   7129.67  5.4117234E-01
   7130.00  5.7561959E-01
   7130.33  6.1313490E-01
   7130.67  6.5260125E-01
   7131.00  6.9196056E-01
   7131.33  7.2775062E-01
   7131.67  7.5800982E-01
   7132.00  7.8205518E-01
   7132.33  7.9994542E-01
   7132.67  8.1395647E-01
   7133.00  8.2536057E-01
   7133.33  8.3471024E-01
   7133.67  8.4216104E-01
   7134.00  8.4706811E-01
   7134.33  8.4768161E-01
   7134.67  8.4317987E-01
   7135.00  8.3306737E-01
   7135.33  8.1692580E-01
   7135.67  7.9591529E-01
   7136.00  7.7043387E-01
   7136.33  7.4074803E-01
   7136.67  7.0852979E-01
   7137.00  6.7507926E-01
   7137.33  6.4199116E-01
   7137.67  6.1060517E-01
   7138.00  5.8188095E-01
   7138.33  5.5709373E-01
   7138.67  5.3636026E-01
   7139.00  5.1994621E-01
   7139.33  5.0847718E-01
   7139.67  5.0124255E-01
   7140.00  4.9793397E-01
   7140.33  4.9845931E-01
   7140.67  5.0176494E-01
   7141.00  5.0728265E-01
   7141.33  5.1458672E-01
   7141.67  5.2295860E-01
   7142.00  5.3205657E-01
   7142.33  5.4165122E-01
   7142.67  5.5149902E-01
   7143.00  5.6148969E-01
   7143.33  5.7153519E-01
   7143.67  5.8155650E-01
   7144.00  5.9150376E-01
   7144.33  6.0132078E-01
   7144.67  6.1099666E-01
   7145.00  6.2051785E-01
   7145.33  6.2984775E-01
   7145.67  6.3898036E-01
   7146.00  6.4787398E-01
   7146.33  6.5641353E-01
   7146.67  6.6453141E-01
   7147.00  6.7211348E-01
   7147.33  6.7892212E-01
   7147.67  6.8487911E-01
   7148.00  6.8983585E-01
   7148.33  6.9346707E-01
   7148.67  6.9576780E-01
   7149.00  6.9664257E-01
   7149.33  6.9582296E-01
   7149.67  6.9344898E-01
   7150.00  6.8951344E-01
   7150.33  6.8386626E-01
   7150.67  6.7679028E-01
   7151.00  6.6840173E-01
   7151.33  6.5872422E-01
   7151.67  6.4808879E-01
   7152.00  6.3666433E-01
   7152.33  6.2457346E-01
   7152.67  6.1208978E-01
   7153.00  5.9940281E-01
   7153.33  5.8673501E-01
   7153.67  5.7427060E-01
   7154.00  5.6215220E-01
   7154.33  5.5058608E-01
   7154.67  5.3962341E-01
   7155.00  5.2932957E-01
   7155.33  5.1982844E-01
   7155.67  5.1102729E-01
   7156.00  5.0289723E-01
   7156.33  4.9546420E-01
   7156.67  4.8859304E-01
   7157.00  4.8223848E-01
   7157.33  4.7641998E-01
   7157.67  4.7105708E-01
   7158.00  4.6614824E-01
   7158.33  4.6176634E-01
   7158.67  4.5787960E-01
   7159.00  4.5451668E-01
   7159.33  4.5178191E-01
   7159.67  4.4963583E-01
   7160.00  4.4809522E-01
   7160.33  4.4723870E-01
   7160.67  4.4698354E-01
   7161.00  4.4731816E-01
   7161.33  4.4828858E-01
   7161.67  4.4978646E-01
   7162.00  4.5176467E-01
   7162.33  4.5420679E-01
   7162.67  4.5699018E-01
   7163.00  4.6004907E-01
   7163.33  4.6332471E-01
   7163.67  4.6670550E-01
   7164.00  4.7011477E-01
   7164.33  4.7345703E-01
   7164.67  4.7665542E-01
   7165.00  4.7964258E-01
   7165.33  4.8231263E-01
   7165.67  4.8464089E-01
   7166.00  4.8658554E-01
   7166.33  4.8805467E-01
   7166.67  4.8907021E-01
   7167.00  4.8961371E-01
   7167.33  4.8961859E-01
   7167.67  4.8914994E-01
   7168.00  4.8821139E-01
   7168.33  4.8675144E-01
   7168.67  4.8484061E-01
   7169.00  4.8249467E-01
   7169.33  4.7968773E-01
   7169.67  4.7650648E-01
   7170.00  4.7299167E-01
   7170.33  4.6917186E-01
   7170.67  4.6516489E-01
   7171.00  4.6106839E-01
   7171.33  4.5705608E-01
   7171.67  4.5337727E-01
   7172.00  4.5034202E-01
