    FDMNES
    energy     <xanes>
   7097.00  4.7696452E-03
   7097.33  4.8812000E-03
   7097.67  4.9978521E-03
   7098.00  5.1199553E-03
   7098.33  5.2487053E-03
   7098.67  5.3838746E-03
   7099.00  5.5259506E-03
   7099.33  5.6765110E-03
   7099.67  5.8353302E-03
   7100.00  6.0030986E-03
   7100.33  6.1819571E-03
   7100.67  6.3717119E-03
   7101.00  6.5733739E-03
   7101.33  6.7899471E-03
   7101.67  7.0213348E-03
   7102.00  7.2690770E-03
   7102.33  7.5375600E-03
   7102.67  7.8269303E-03
   7103.00  8.1396468E-03
   7103.33  8.4824342E-03
   7103.67  8.8560165E-03
   7104.00  9.2645543E-03
   7104.33  9.7190010E-03
   7104.67  1.0221469E-02
   7105.00  1.0779530E-02
   7105.33  1.1412460E-02
   7105.67  1.2125897E-02
   7106.00  1.2934992E-02
   7106.33  1.3877313E-02
   7106.67  1.4968386E-02
   7107.00  1.6242675E-02
   7107.33  1.7784545E-02
   7107.67  1.9641885E-02
   7108.00  2.1909060E-02
   7108.33  2.4819790E-02
   7108.67  2.8557408E-02
   7109.00  3.3466832E-02
   7109.33  4.0456802E-02
   7109.67  5.0551951E-02
   7110.00  6.5756537E-02
   7110.33  9.1819341E-02
   7110.67  1.3475672E-01
   7111.00  1.9560093E-01
   7111.33  2.5528983E-01
   7111.67  3.0077942E-01
   7112.00  3.4587710E-01
   7112.33  3.9601650E-01
   7112.67  4.0860022E-01
   7113.00  3.5391582E-01
   7113.33  2.6936084E-01
   7113.67  2.0422695E-01
   7114.00  1.6459700E-01
   7114.33  1.4916705E-01
   7114.67  1.5205475E-01
   7115.00  1.6808240E-01
   7115.33  1.7783164E-01
   7115.67  1.6383376E-01
   7116.00  1.3542581E-01
   7116.33  1.1064455E-01
   7116.67  9.3620936E-02
   7117.00  8.3319099E-02
   7117.33  7.8458317E-02
   7117.67  7.6682465E-02
   7118.00  7.6727408E-02
   7118.33  7.8002487E-02
   7118.67  8.0398392E-02
   7119.00  8.3771911E-02
   7119.33  8.7555478E-02
   7119.67  9.1420749E-02
   7120.00  9.5349079E-02
   7120.33  9.9444653E-02
   7120.67  1.0422726E-01
   7121.00  1.1045024E-01
   7121.33  1.1929456E-01
   7121.67  1.3136095E-01
   7122.00  1.4758144E-01
   7122.33  1.6970065E-01
   7122.67  1.9703403E-01
   7123.00  2.2755155E-01
   7123.33  2.5793767E-01
   7123.67  2.8715605E-01
   7124.00  3.1511102E-01
   7124.33  3.3990431E-01
   7124.67  3.5946886E-01
   7125.00  3.7216727E-01
   7125.33  3.7697394E-01
   7125.67  3.7783353E-01
   7126.00  3.7938620E-01
   7126.33  3.8724395E-01
   7126.67  4.0342645E-01
   7127.00  4.2837253E-01
   7127.33  4.6141768E-01
   7127.67  4.9849364E-01
   7128.00  5.3685756E-01
   7128.33  5.7454667E-01
   7128.67  6.1053090E-01
   7129.00  6.4373360E-01
   7129.33  6.7413382E-01
   7129.67  7.0452930E-01
   7130.00  7.3542174E-01
   7130.33  7.6267503E-01
   7130.67  7.8177037E-01
   7131.00  7.9060257E-01
   7131.33  7.8819942E-01
   7131.67  7.7776096E-01
   7132.00  7.6188294E-01
   7132.33  7.4391139E-01
   7132.67  7.2696767E-01
   7133.00  7.1232272E-01
   7133.33  7.0065667E-01
   7133.67  6.9114129E-01
   7134.00  6.8274489E-01
   7134.33  6.7408269E-01
   7134.67  6.6474439E-01
   7135.00  6.5544335E-01
   7135.33  6.4775817E-01
   7135.67  6.4249110E-01
   7136.00  6.3976671E-01
   7136.33  6.3930961E-01
   7136.67  6.4001998E-01
   7137.00  6.4120342E-01
   7137.33  6.4234401E-01
   7137.67  6.4338718E-01
   7138.00  6.4458579E-01
   7138.33  6.4639397E-01
   7138.67  6.4893203E-01
   7139.00  6.5209160E-01
   7139.33  6.5556012E-01
   7139.67  6.5895004E-01
   7140.00  6.6211023E-01
   7140.33  6.6506123E-01
   7140.67  6.6803324E-01
   7141.00  6.7123442E-01
   7141.33  6.7483451E-01
   7141.67  6.7863965E-01
   7142.00  6.8222127E-01
   7142.33  6.8458868E-01
   7142.67  6.8476511E-01
   7143.00  6.8179144E-01
   7143.33  6.7435561E-01
   7143.67  6.6273241E-01
   7144.00  6.4730057E-01
   7144.33  6.2872031E-01
   7144.67  6.0870769E-01
   7145.00  5.8847900E-01
   7145.33  5.6938913E-01
   7145.67  5.5219355E-01
   7146.00  5.3734246E-01
   7146.33  5.2537182E-01
   7146.67  5.1591464E-01
   7147.00  5.0877554E-01
   7147.33  5.0387399E-01
   7147.67  5.0060508E-01
   7148.00  4.9869203E-01
   7148.33  4.9799283E-01
   7148.67  4.9813454E-01
   7149.00  4.9894206E-01
   7149.33  5.0030994E-01
   7149.67  5.0205150E-01
   7150.00  5.0410132E-01
   7150.33  5.0646553E-01
   7150.67  5.0911932E-01
   7151.00  5.1208999E-01
   7151.33  5.1544956E-01
   7151.67  5.1915345E-01
   7152.00  5.2316461E-01
   7152.33  5.2743265E-01
   7152.67  5.3182505E-01
   7153.00  5.3624644E-01
   7153.33  5.4058540E-01
   7153.67  5.4476751E-01
   7154.00  5.4873773E-01
   7154.33  5.5241614E-01
   7154.67  5.5579922E-01
   7155.00  5.5886044E-01
   7155.33  5.6152354E-01
   7155.67  5.6379176E-01
   7156.00  5.6561930E-01
   7156.33  5.6687421E-01
   7156.67  5.6753482E-01
   7157.00  5.6751753E-01
   7157.33  5.6662500E-01
   7157.67  5.6486578E-01
   7158.00  5.6218488E-01
   7158.33  5.5843545E-01
   7158.67  5.5375288E-01
   7159.00  5.4818644E-01
   7159.33  5.4172803E-01
   7159.67  5.3459344E-01
   7160.00  5.2689462E-01
   7160.33  5.1871326E-01
   7160.67  5.1023954E-01
   7161.00  5.0158899E-01
   7161.33  4.9288381E-01
   7161.67  4.8424641E-01
   7162.00  4.7576359E-01
   7162.33  4.6754851E-01
   7162.67  4.5963736E-01
   7163.00  4.5207319E-01
   7163.33  4.4493655E-01
   7163.67  4.3819701E-01
   7164.00  4.3185848E-01
   7164.33  4.2596533E-01
   7164.67  4.2045700E-01
   7165.00  4.1532176E-01
   7165.33  4.1059014E-01
   7165.67  4.0620527E-01
   7166.00  4.0215984E-01
   7166.33  3.9848888E-01
   7166.67  3.9514434E-01
   7167.00  3.9212067E-01
   7167.33  3.8945093E-01
   7167.67  3.8709006E-01
   7168.00  3.8503367E-01
   7168.33  3.8331555E-01
   7168.67  3.8189685E-01
   7169.00  3.8077854E-01
   7169.33  3.8000021E-01
   7169.67  3.7952430E-01
   7170.00  3.7934819E-01
   7170.33  3.7949984E-01
   7170.67  3.7992440E-01
   7171.00  3.8059240E-01
   7171.33  3.8146202E-01
   7171.67  3.8238820E-01
   7172.00  3.8320503E-01
