    FDMNES
    energy     <xanes>
   7097.00  5.4125199E-03
   7097.33  5.5479992E-03
   7097.67  5.6899425E-03
   7098.00  5.8388021E-03
   7098.33  5.9960984E-03
   7098.67  6.1615444E-03
   7099.00  6.3357592E-03
   7099.33  6.5207436E-03
   7099.67  6.7162066E-03
   7100.00  6.9230174E-03
   7100.33  7.1438769E-03
   7100.67  7.3785211E-03
   7101.00  7.6282076E-03
   7101.33  7.8966925E-03
   7101.67  8.1838075E-03
   7102.00  8.4914373E-03
   7102.33  8.8249943E-03
   7102.67  9.1845565E-03
   7103.00  9.5730698E-03
   7103.33  9.9986756E-03
   7103.67  1.0462036E-02
   7104.00  1.0967998E-02
   7104.33  1.1529476E-02
   7104.67  1.2148509E-02
   7105.00  1.2833603E-02
   7105.33  1.3606666E-02
   7105.67  1.4473122E-02
   7106.00  1.5449186E-02
   7106.33  1.6575454E-02
   7106.67  1.7866363E-02
   7107.00  1.9356480E-02
   7107.33  2.1130726E-02
   7107.67  2.3230965E-02
   7108.00  2.5743603E-02
   7108.33  2.8880987E-02
   7108.67  3.2788056E-02
   7109.00  3.7741331E-02
   7109.33  4.4448601E-02
   7109.67  5.3603987E-02
   7110.00  6.6543005E-02
   7110.33  8.7024905E-02
   7110.67  1.1959223E-01
   7111.00  1.6987196E-01
   7111.33  2.4033045E-01
   7111.67  3.1769360E-01
   7112.00  3.9287134E-01
   7112.33  4.6677516E-01
   7112.67  5.3277798E-01
   7113.00  5.7443256E-01
   7113.33  5.7804438E-01
   7113.67  5.4499347E-01
   7114.00  4.7112396E-01
   7114.33  3.9020606E-01
   7114.67  3.3011113E-01
   7115.00  2.9226348E-01
   7115.33  2.7178995E-01
   7115.67  2.5788495E-01
   7116.00  2.4416696E-01
   7116.33  2.2802834E-01
   7116.67  2.1111028E-01
   7117.00  1.9462888E-01
   7117.33  1.7985228E-01
   7117.67  1.6742642E-01
   7118.00  1.5745949E-01
   7118.33  1.4987054E-01
   7118.67  1.4411220E-01
   7119.00  1.4000060E-01
   7119.33  1.3739024E-01
   7119.67  1.3577240E-01
   7120.00  1.3481439E-01
   7120.33  1.3383528E-01
   7120.67  1.3201643E-01
   7121.00  1.2935138E-01
   7121.33  1.2703761E-01
   7121.67  1.2613625E-01
   7122.00  1.2683774E-01
   7122.33  1.2906249E-01
   7122.67  1.3241259E-01
   7123.00  1.3683933E-01
   7123.33  1.4257780E-01
   7123.67  1.4968586E-01
   7124.00  1.5841116E-01
   7124.33  1.6936169E-01
   7124.67  1.8269962E-01
   7125.00  1.9876424E-01
   7125.33  2.1821036E-01
   7125.67  2.4070402E-01
   7126.00  2.6602618E-01
   7126.33  2.9386239E-01
   7126.67  3.2305797E-01
   7127.00  3.5276823E-01
   7127.33  3.8192695E-01
   7127.67  4.1001885E-01
   7128.00  4.3763510E-01
   7128.33  4.6758907E-01
   7128.67  5.0348429E-01
   7129.00  5.4831908E-01
   7129.33  6.0443079E-01
   7129.67  6.6793795E-01
   7130.00  7.3425510E-01
   7130.33  7.9737280E-01
   7130.67  8.5400739E-01
   7131.00  9.0313384E-01
   7131.33  9.4418821E-01
   7131.67  9.7877540E-01
   7132.00  1.0069229E+00
   7132.33  1.0263287E+00
   7132.67  1.0354321E+00
   7133.00  1.0321948E+00
   7133.33  1.0142384E+00
   7133.67  9.8461831E-01
   7134.00  9.4582960E-01
   7134.33  9.0072512E-01
   7134.67  8.5342782E-01
   7135.00  8.0621290E-01
   7135.33  7.6085799E-01
   7135.67  7.1773277E-01
   7136.00  6.7689254E-01
   7136.33  6.3860821E-01
   7136.67  6.0278186E-01
   7137.00  5.6980496E-01
   7137.33  5.4076571E-01
   7137.67  5.1591818E-01
   7138.00  4.9573491E-01
   7138.33  4.8109849E-01
   7138.67  4.7131886E-01
   7139.00  4.6609427E-01
   7139.33  4.6537163E-01
   7139.67  4.6798041E-01
   7140.00  4.7332488E-01
   7140.33  4.8100599E-01
   7140.67  4.9017561E-01
   7141.00  5.0039281E-01
   7141.33  5.1128921E-01
   7141.67  5.2240864E-01
   7142.00  5.3346323E-01
   7142.33  5.4410374E-01
   7142.67  5.5409662E-01
   7143.00  5.6321628E-01
   7143.33  5.7107954E-01
   7143.67  5.7761203E-01
   7144.00  5.8266551E-01
   7144.33  5.8592709E-01
   7144.67  5.8755123E-01
   7145.00  5.8754229E-01
   7145.33  5.8575746E-01
   7145.67  5.8251391E-01
   7146.00  5.7796246E-01
   7146.33  5.7218341E-01
   7146.67  5.6555753E-01
   7147.00  5.5830488E-01
   7147.33  5.5063591E-01
   7147.67  5.4284541E-01
   7148.00  5.3513579E-01
   7148.33  5.2776490E-01
   7148.67  5.2089832E-01
   7149.00  5.1470106E-01
   7149.33  5.0946716E-01
   7149.67  5.0526143E-01
   7150.00  5.0221917E-01
   7150.33  5.0065385E-01
   7150.67  5.0053934E-01
   7151.00  5.0197969E-01
   7151.33  5.0527618E-01
   7151.67  5.1027537E-01
   7152.00  5.1697340E-01
   7152.33  5.2548803E-01
   7152.67  5.3542883E-01
   7153.00  5.4654460E-01
   7153.33  5.5854286E-01
   7153.67  5.7085124E-01
   7154.00  5.8302522E-01
   7154.33  5.9447055E-01
   7154.67  6.0481347E-01
   7155.00  6.1374747E-01
   7155.33  6.2083572E-01
   7155.67  6.2619245E-01
   7156.00  6.2984153E-01
   7156.33  6.3170394E-01
   7156.67  6.3216158E-01
   7157.00  6.3139610E-01
   7157.33  6.2949616E-01
   7157.67  6.2678748E-01
   7158.00  6.2342092E-01
   7158.33  6.1948153E-01
   7158.67  6.1515134E-01
   7159.00  6.1050966E-01
   7159.33  6.0559693E-01
   7159.67  6.0049410E-01
   7160.00  5.9523239E-01
   7160.33  5.8982214E-01
   7160.67  5.8429886E-01
   7161.00  5.7867235E-01
   7161.33  5.7294067E-01
   7161.67  5.6712155E-01
   7162.00  5.6121270E-01
   7162.33  5.5520231E-01
   7162.67  5.4910518E-01
   7163.00  5.4292508E-01
   7163.33  5.3665732E-01
   7163.67  5.3031773E-01
   7164.00  5.2391235E-01
   7164.33  5.1744493E-01
   7164.67  5.1093688E-01
   7165.00  5.0440178E-01
   7165.33  4.9785742E-01
   7165.67  4.9132742E-01
   7166.00  4.8483375E-01
   7166.33  4.7841273E-01
   7166.67  4.7208766E-01
   7167.00  4.6588765E-01
   7167.33  4.5986873E-01
   7167.67  4.5404956E-01
   7168.00  4.4846554E-01
   7168.33  4.4319229E-01
   7168.67  4.3823335E-01
   7169.00  4.3361747E-01
   7169.33  4.2941662E-01
   7169.67  4.2560239E-01
   7170.00  4.2218623E-01
   7170.33  4.1922500E-01
   7170.67  4.1666576E-01
   7171.00  4.1449967E-01
   7171.33  4.1275565E-01
   7171.67  4.1136115E-01
   7172.00  4.1028610E-01
