    FDMNES
    energy     <xanes>
   7097.00  5.3981423E-03
   7097.33  5.5324657E-03
   7097.67  5.6731564E-03
   7098.00  5.8206573E-03
   7098.33  5.9764614E-03
   7098.67  6.1402823E-03
   7099.00  6.3127251E-03
   7099.33  6.4957515E-03
   7099.67  6.6890695E-03
   7100.00  6.8935273E-03
   7100.33  7.1117678E-03
   7100.67  7.3435233E-03
   7101.00  7.5900182E-03
   7101.33  7.8549200E-03
   7101.67  8.1380506E-03
   7102.00  8.4412405E-03
   7102.33  8.7697612E-03
   7102.67  9.1236670E-03
   7103.00  9.5058117E-03
   7103.33  9.9241013E-03
   7103.67  1.0379143E-02
   7104.00  1.0875618E-02
   7104.33  1.1426021E-02
   7104.67  1.2032266E-02
   7105.00  1.2702531E-02
   7105.33  1.3457925E-02
   7105.67  1.4303556E-02
   7106.00  1.5254939E-02
   7106.33  1.6350972E-02
   7106.67  1.7605236E-02
   7107.00  1.9050582E-02
   7107.33  2.0767782E-02
   7107.67  2.2796005E-02
   7108.00  2.5216610E-02
   7108.33  2.8229453E-02
   7108.67  3.1968815E-02
   7109.00  3.6691537E-02
   7109.33  4.3053336E-02
   7109.67  5.1687262E-02
   7110.00  6.3809584E-02
   7110.33  8.2827440E-02
   7110.67  1.1281038E-01
   7111.00  1.5886742E-01
   7111.33  2.2420235E-01
   7111.67  3.0000319E-01
   7112.00  3.8102501E-01
   7112.33  4.6077156E-01
   7112.67  5.2656655E-01
   7113.00  5.6264440E-01
   7113.33  5.5462992E-01
   7113.67  5.2908448E-01
   7114.00  4.8402665E-01
   7114.33  4.1201387E-01
   7114.67  3.4639192E-01
   7115.00  3.0166041E-01
   7115.33  2.7764856E-01
   7115.67  2.6259964E-01
   7116.00  2.4839234E-01
   7116.33  2.3103801E-01
   7116.67  2.1273362E-01
   7117.00  1.9529683E-01
   7117.33  1.8006556E-01
   7117.67  1.6741851E-01
   7118.00  1.5739388E-01
   7118.33  1.4984549E-01
   7118.67  1.4410125E-01
   7119.00  1.3991155E-01
   7119.33  1.3712630E-01
   7119.67  1.3536947E-01
   7120.00  1.3455536E-01
   7120.33  1.3451088E-01
   7120.67  1.3437163E-01
   7121.00  1.3332856E-01
   7121.33  1.3136419E-01
   7121.67  1.2988186E-01
   7122.00  1.2978247E-01
   7122.33  1.3146362E-01
   7122.67  1.3456737E-01
   7123.00  1.3901658E-01
   7123.33  1.4505249E-01
   7123.67  1.5269584E-01
   7124.00  1.6219194E-01
   7124.33  1.7417788E-01
   7124.67  1.8879342E-01
   7125.00  2.0641517E-01
   7125.33  2.2788118E-01
   7125.67  2.5299941E-01
   7126.00  2.8162076E-01
   7126.33  3.1321004E-01
   7126.67  3.4581611E-01
   7127.00  3.7760804E-01
   7127.33  4.0608418E-01
   7127.67  4.3107174E-01
   7128.00  4.5462630E-01
   7128.33  4.8190122E-01
   7128.67  5.1714251E-01
   7129.00  5.6250134E-01
   7129.33  6.1850229E-01
   7129.67  6.7988389E-01
   7130.00  7.4166331E-01
   7130.33  7.9832879E-01
   7130.67  8.4814687E-01
   7131.00  8.9109470E-01
   7131.33  9.2741715E-01
   7131.67  9.5871217E-01
   7132.00  9.8494787E-01
   7132.33  1.0039813E+00
   7132.67  1.0142012E+00
   7133.00  1.0136034E+00
   7133.33  9.9966169E-01
   7133.67  9.7455108E-01
   7134.00  9.3992153E-01
   7134.33  8.9759403E-01
   7134.67  8.5151760E-01
   7135.00  8.0422000E-01
   7135.33  7.5795994E-01
   7135.67  7.1366584E-01
   7136.00  6.7161206E-01
   7136.33  6.3221303E-01
   7136.67  5.9544995E-01
   7137.00  5.6177881E-01
   7137.33  5.3237282E-01
   7137.67  5.0745564E-01
   7138.00  4.8746772E-01
   7138.33  4.7324850E-01
   7138.67  4.6400159E-01
   7139.00  4.5935347E-01
   7139.33  4.5917081E-01
   7139.67  4.6222595E-01
   7140.00  4.6788522E-01
   7140.33  4.7570378E-01
   7140.67  4.8484636E-01
   7141.00  4.9488051E-01
   7141.33  5.0544493E-01
   7141.67  5.1613369E-01
   7142.00  5.2669131E-01
   7142.33  5.3680165E-01
   7142.67  5.4626650E-01
   7143.00  5.5488202E-01
   7143.33  5.6228932E-01
   7143.67  5.6842226E-01
   7144.00  5.7314158E-01
   7144.33  5.7615199E-01
   7144.67  5.7760110E-01
   7145.00  5.7749072E-01
   7145.33  5.7568850E-01
   7145.67  5.7250646E-01
   7146.00  5.6809877E-01
   7146.33  5.6255984E-01
   7146.67  5.5626322E-01
   7147.00  5.4943225E-01
   7147.33  5.4229392E-01
   7147.67  5.3513616E-01
   7148.00  5.2816645E-01
   7148.33  5.2166324E-01
   7148.67  5.1578437E-01
   7149.00  5.1069973E-01
   7149.33  5.0672343E-01
   7149.67  5.0390598E-01
   7150.00  5.0238133E-01
   7150.33  5.0247073E-01
   7150.67  5.0411641E-01
   7151.00  5.0739887E-01
   7151.33  5.1258081E-01
   7151.67  5.1944378E-01
   7152.00  5.2792480E-01
   7152.33  5.3804342E-01
   7152.67  5.4934424E-01
   7153.00  5.6150694E-01
   7153.33  5.7413396E-01
   7153.67  5.8667383E-01
   7154.00  5.9868899E-01
   7154.33  6.0958313E-01
   7154.67  6.1909735E-01
   7155.00  6.2700111E-01
   7155.33  6.3293684E-01
   7155.67  6.3711743E-01
   7156.00  6.3962588E-01
   7156.33  6.4044226E-01
   7156.67  6.3996493E-01
   7157.00  6.3838415E-01
   7157.33  6.3580083E-01
   7157.67  6.3251484E-01
   7158.00  6.2866337E-01
   7158.33  6.2432286E-01
   7158.67  6.1965027E-01
   7159.00  6.1471356E-01
   7159.33  6.0954585E-01
   7159.67  6.0421432E-01
   7160.00  5.9874474E-01
   7160.33  5.9314467E-01
   7160.67  5.8744394E-01
   7161.00  5.8165116E-01
   7161.33  5.7576387E-01
   7161.67  5.6980250E-01
   7162.00  5.6377160E-01
   7162.33  5.5766363E-01
   7162.67  5.5149146E-01
   7163.00  5.4526021E-01
   7163.33  5.3896916E-01
   7163.67  5.3263030E-01
   7164.00  5.2624850E-01
   7164.33  5.1982540E-01
   7164.67  5.1337380E-01
   7165.00  5.0690535E-01
   7165.33  5.0043707E-01
   7165.67  4.9398666E-01
   7166.00  4.8757210E-01
   7166.33  4.8122544E-01
   7166.67  4.7496718E-01
   7167.00  4.6882441E-01
   7167.33  4.6285135E-01
   7167.67  4.5706854E-01
   7168.00  4.5151198E-01
   7168.33  4.4625641E-01
   7168.67  4.4130657E-01
   7169.00  4.3669190E-01
   7169.33  4.3248435E-01
   7169.67  4.2865631E-01
   7170.00  4.2521880E-01
   7170.33  4.2222741E-01
   7170.67  4.1963007E-01
   7171.00  4.1741821E-01
   7171.33  4.1562159E-01
   7171.67  4.1417283E-01
   7172.00  4.1304926E-01
