    FDMNES
    energy     <xanes>
   7097.00  5.1814508E-03
   7097.33  5.3087419E-03
   7097.67  5.4420189E-03
   7098.00  5.5816970E-03
   7098.33  5.7291778E-03
   7098.67  5.8841907E-03
   7099.00  6.0473028E-03
   7099.33  6.2203549E-03
   7099.67  6.4030714E-03
   7100.00  6.5962471E-03
   7100.33  6.8023617E-03
   7100.67  7.0211624E-03
   7101.00  7.2537970E-03
   7101.33  7.5037064E-03
   7101.67  7.7707219E-03
   7102.00  8.0565608E-03
   7102.33  8.3661691E-03
   7102.67  8.6995979E-03
   7103.00  9.0595258E-03
   7103.33  9.4533737E-03
   7103.67  9.8817154E-03
   7104.00  1.0348948E-02
   7104.33  1.0866812E-02
   7104.67  1.1437115E-02
   7105.00  1.2067554E-02
   7105.33  1.2777989E-02
   7105.67  1.3573262E-02
   7106.00  1.4468011E-02
   7106.33  1.5498933E-02
   7106.67  1.6678960E-02
   7107.00  1.8039237E-02
   7107.33  1.9656374E-02
   7107.67  2.1568005E-02
   7108.00  2.3852055E-02
   7108.33  2.6700347E-02
   7108.67  3.0244484E-02
   7109.00  3.4736337E-02
   7109.33  4.0824095E-02
   7109.67  4.9156178E-02
   7110.00  6.0987754E-02
   7110.33  7.9843273E-02
   7110.67  1.0953305E-01
   7111.00  1.5268937E-01
   7111.33  2.0620777E-01
   7111.67  2.6768674E-01
   7112.00  3.3839823E-01
   7112.33  4.1070159E-01
   7112.67  4.8116856E-01
   7113.00  5.4841523E-01
   7113.33  5.7878532E-01
   7113.67  5.5220022E-01
   7114.00  4.8643899E-01
   7114.33  4.0188047E-01
   7114.67  3.2105162E-01
   7115.00  2.5882035E-01
   7115.33  2.2014995E-01
   7115.67  1.9741984E-01
   7116.00  1.8589293E-01
   7116.33  1.7971697E-01
   7116.67  1.7177185E-01
   7117.00  1.6045115E-01
   7117.33  1.4877062E-01
   7117.67  1.3967429E-01
   7118.00  1.3354684E-01
   7118.33  1.3002894E-01
   7118.67  1.2824081E-01
   7119.00  1.2759750E-01
   7119.33  1.2701325E-01
   7119.67  1.2583620E-01
   7120.00  1.2447039E-01
   7120.33  1.2389312E-01
   7120.67  1.2440958E-01
   7121.00  1.2632184E-01
   7121.33  1.3051509E-01
   7121.67  1.3696056E-01
   7122.00  1.4537504E-01
   7122.33  1.5495879E-01
   7122.67  1.6448630E-01
   7123.00  1.7383417E-01
   7123.33  1.8412724E-01
   7123.67  1.9628164E-01
   7124.00  2.1034817E-01
   7124.33  2.2558494E-01
   7124.67  2.4074337E-01
   7125.00  2.5524144E-01
   7125.33  2.6866470E-01
   7125.67  2.8082124E-01
   7126.00  2.9153752E-01
   7126.33  3.0107716E-01
   7126.67  3.1060679E-01
   7127.00  3.2114118E-01
   7127.33  3.3401301E-01
   7127.67  3.5034657E-01
   7128.00  3.7201205E-01
   7128.33  4.0266374E-01
   7128.67  4.4291343E-01
   7129.00  4.9164707E-01
   7129.33  5.4522746E-01
   7129.67  5.9928700E-01
   7130.00  6.5174080E-01
   7130.33  6.9790698E-01
   7130.67  7.3259718E-01
   7131.00  7.5296643E-01
   7131.33  7.6076224E-01
   7131.67  7.6499346E-01
   7132.00  7.7135912E-01
   7132.33  7.8353820E-01
   7132.67  8.0093422E-01
   7133.00  8.2280721E-01
   7133.33  8.4853678E-01
   7133.67  8.7473380E-01
   7134.00  8.9572436E-01
   7134.33  9.0215409E-01
   7134.67  8.9302959E-01
   7135.00  8.7134474E-01
   7135.33  8.4119167E-01
   7135.67  8.0716414E-01
   7136.00  7.7141913E-01
   7136.33  7.3617861E-01
   7136.67  7.0324790E-01
   7137.00  6.7376614E-01
   7137.33  6.4891098E-01
   7137.67  6.2821250E-01
   7138.00  6.1137016E-01
   7138.33  5.9824255E-01
   7138.67  5.8780263E-01
   7139.00  5.7956723E-01
   7139.33  5.7331535E-01
   7139.67  5.6855845E-01
   7140.00  5.6520302E-01
   7140.33  5.6341734E-01
   7140.67  5.6306419E-01
   7141.00  5.6415545E-01
   7141.33  5.6678579E-01
   7141.67  5.7057190E-01
   7142.00  5.7522490E-01
   7142.33  5.8038299E-01
   7142.67  5.8555704E-01
   7143.00  5.9042672E-01
   7143.33  5.9466572E-01
   7143.67  5.9823196E-01
   7144.00  6.0112732E-01
   7144.33  6.0334813E-01
   7144.67  6.0506502E-01
   7145.00  6.0634976E-01
   7145.33  6.0720840E-01
   7145.67  6.0770429E-01
   7146.00  6.0782372E-01
   7146.33  6.0747379E-01
   7146.67  6.0664900E-01
   7147.00  6.0529497E-01
   7147.33  6.0327825E-01
   7147.67  6.0062501E-01
   7148.00  5.9731431E-01
   7148.33  5.9327195E-01
   7148.67  5.8862410E-01
   7149.00  5.8344318E-01
   7149.33  5.7780381E-01
   7149.67  5.7192443E-01
   7150.00  5.6596917E-01
   7150.33  5.6015154E-01
   7150.67  5.5465055E-01
   7151.00  5.4961770E-01
   7151.33  5.4527354E-01
   7151.67  5.4163990E-01
   7152.00  5.3875962E-01
   7152.33  5.3672746E-01
   7152.67  5.3540063E-01
   7153.00  5.3470343E-01
   7153.33  5.3458081E-01
   7153.67  5.3482899E-01
   7154.00  5.3532200E-01
   7154.33  5.3593407E-01
   7154.67  5.3653704E-01
   7155.00  5.3706172E-01
   7155.33  5.3745189E-01
   7155.67  5.3772097E-01
   7156.00  5.3789280E-01
   7156.33  5.3800225E-01
   7156.67  5.3809367E-01
   7157.00  5.3818264E-01
   7157.33  5.3825688E-01
   7157.67  5.3827244E-01
   7158.00  5.3816656E-01
   7158.33  5.3782084E-01
   7158.67  5.3715940E-01
   7159.00  5.3609597E-01
   7159.33  5.3448494E-01
   7159.67  5.3233280E-01
   7160.00  5.2962464E-01
   7160.33  5.2631395E-01
   7160.67  5.2252673E-01
   7161.00  5.1833769E-01
   7161.33  5.1380714E-01
   7161.67  5.0907231E-01
   7162.00  5.0421406E-01
   7162.33  4.9930585E-01
   7162.67  4.9441530E-01
   7163.00  4.8958412E-01
   7163.33  4.8486230E-01
   7163.67  4.8026660E-01
   7164.00  4.7581567E-01
   7164.33  4.7154323E-01
   7164.67  4.6743469E-01
   7165.00  4.6348846E-01
   7165.33  4.5971579E-01
   7165.67  4.5608478E-01
   7166.00  4.5258166E-01
   7166.33  4.4919942E-01
   7166.67  4.4589989E-01
   7167.00  4.4265966E-01
   7167.33  4.3945533E-01
   7167.67  4.3626070E-01
   7168.00  4.3306195E-01
   7168.33  4.2985154E-01
   7168.67  4.2663661E-01
   7169.00  4.2343200E-01
   7169.33  4.2027338E-01
   7169.67  4.1719872E-01
   7170.00  4.1425186E-01
   7170.33  4.1150957E-01
   7170.67  4.0900111E-01
   7171.00  4.0676669E-01
   7171.33  4.0488482E-01
   7171.67  4.0334544E-01
   7172.00  4.0215946E-01
