    FDMNES
    energy     <xanes>
   7097.00  5.3783116E-03
   7097.33  5.5130786E-03
   7097.67  5.6542850E-03
   7098.00  5.8023816E-03
   7098.33  5.9588835E-03
   7098.67  6.1235051E-03
   7099.00  6.2968634E-03
   7099.33  6.4809524E-03
   7099.67  6.6754819E-03
   7100.00  6.8813180E-03
   7100.33  7.1011514E-03
   7100.67  7.3347182E-03
   7101.00  7.5832704E-03
   7101.33  7.8505479E-03
   7101.67  8.1363803E-03
   7102.00  8.4426413E-03
   7102.33  8.7747145E-03
   7102.67  9.1326698E-03
   7103.00  9.5194303E-03
   7103.33  9.9430799E-03
   7103.67  1.0404257E-02
   7104.00  1.0907756E-02
   7104.33  1.1466363E-02
   7104.67  1.2082050E-02
   7105.00  1.2763190E-02
   7105.33  1.3531375E-02
   7105.67  1.4391822E-02
   7106.00  1.5360376E-02
   7106.33  1.6476738E-02
   7106.67  1.7754670E-02
   7107.00  1.9227540E-02
   7107.33  2.0977340E-02
   7107.67  2.3043317E-02
   7108.00  2.5507247E-02
   7108.33  2.8569661E-02
   7108.67  3.2362751E-02
   7109.00  3.7139664E-02
   7109.33  4.3543572E-02
   7109.67  5.2180338E-02
   7110.00  6.4209732E-02
   7110.33  8.2847879E-02
   7110.67  1.1180797E-01
   7111.00  1.5568448E-01
   7111.33  2.1940641E-01
   7111.67  2.9989038E-01
   7112.00  3.9268094E-01
   7112.33  5.0010131E-01
   7112.67  6.0990624E-01
   7113.00  6.7544236E-01
   7113.33  6.3438771E-01
   7113.67  5.3921045E-01
   7114.00  4.3954398E-01
   7114.33  3.5952929E-01
   7114.67  2.9999478E-01
   7115.00  2.5853127E-01
   7115.33  2.3305964E-01
   7115.67  2.1862459E-01
   7116.00  2.1247958E-01
   7116.33  2.0995420E-01
   7116.67  2.0482300E-01
   7117.00  1.9487899E-01
   7117.33  1.8135482E-01
   7117.67  1.6817684E-01
   7118.00  1.5754976E-01
   7118.33  1.5040966E-01
   7118.67  1.4543258E-01
   7119.00  1.4143841E-01
   7119.33  1.3744542E-01
   7119.67  1.3339274E-01
   7120.00  1.2979227E-01
   7120.33  1.2729353E-01
   7120.67  1.2581665E-01
   7121.00  1.2525885E-01
   7121.33  1.2576462E-01
   7121.67  1.2722764E-01
   7122.00  1.2956491E-01
   7122.33  1.3279044E-01
   7122.67  1.3680858E-01
   7123.00  1.4168841E-01
   7123.33  1.4769066E-01
   7123.67  1.5487162E-01
   7124.00  1.6341925E-01
   7124.33  1.7379441E-01
   7124.67  1.8605985E-01
   7125.00  2.0039602E-01
   7125.33  2.1722057E-01
   7125.67  2.3632582E-01
   7126.00  2.5763452E-01
   7126.33  2.8106387E-01
   7126.67  3.0588942E-01
   7127.00  3.3159905E-01
   7127.33  3.5755987E-01
   7127.67  3.8328778E-01
   7128.00  4.0905579E-01
   7128.33  4.3673771E-01
   7128.67  4.6906236E-01
   7129.00  5.0865734E-01
   7129.33  5.5828690E-01
   7129.67  6.1622942E-01
   7130.00  6.8036799E-01
   7130.33  7.4661275E-01
   7130.67  8.0857284E-01
   7131.00  8.6130192E-01
   7131.33  9.0148672E-01
   7131.67  9.3314413E-01
   7132.00  9.5941286E-01
   7132.33  9.8120112E-01
   7132.67  9.9756653E-01
   7133.00  1.0062341E+00
   7133.33  1.0038878E+00
   7133.67  9.9122517E-01
   7134.00  9.6903911E-01
   7134.33  9.3812110E-01
   7134.67  9.0142851E-01
   7135.00  8.6051526E-01
   7135.33  8.1658156E-01
   7135.67  7.7128504E-01
   7136.00  7.2568636E-01
   7136.33  6.8112437E-01
   7136.67  6.3870367E-01
   7137.00  5.9943175E-01
   7137.33  5.6488136E-01
   7137.67  5.3535319E-01
   7138.00  5.1131725E-01
   7138.33  4.9370847E-01
   7138.67  4.8167120E-01
   7139.00  4.7481956E-01
   7139.33  4.7304074E-01
   7139.67  4.7496385E-01
   7140.00  4.7987207E-01
   7140.33  4.8725077E-01
   7140.67  4.9613815E-01
   7141.00  5.0604580E-01
   7141.33  5.1659305E-01
   7141.67  5.2736477E-01
   7142.00  5.3812933E-01
   7142.33  5.4863245E-01
   7142.67  5.5869559E-01
   7143.00  5.6813722E-01
   7143.33  5.7662875E-01
   7143.67  5.8404452E-01
   7144.00  5.9019178E-01
   7144.33  5.9469366E-01
   7144.67  5.9759925E-01
   7145.00  5.9886123E-01
   7145.33  5.9831688E-01
   7145.67  5.9629647E-01
   7146.00  5.9295405E-01
   7146.33  5.8835719E-01
   7146.67  5.8288241E-01
   7147.00  5.7674756E-01
   7147.33  5.7015444E-01
   7147.67  5.6339210E-01
   7148.00  5.5664662E-01
   7148.33  5.5013553E-01
   7148.67  5.4399656E-01
   7149.00  5.3835108E-01
   7149.33  5.3339970E-01
   7149.67  5.2916381E-01
   7150.00  5.2570918E-01
   7150.33  5.2320219E-01
   7150.67  5.2158443E-01
   7151.00  5.2088551E-01
   7151.33  5.2124513E-01
   7151.67  5.2255363E-01
   7152.00  5.2480529E-01
   7152.33  5.2809152E-01
   7152.67  5.3225173E-01
   7153.00  5.3722563E-01
   7153.33  5.4300303E-01
   7153.67  5.4935535E-01
   7154.00  5.5612910E-01
   7154.33  5.6314178E-01
   7154.67  5.7013730E-01
   7155.00  5.7691372E-01
   7155.33  5.8319158E-01
   7155.67  5.8883173E-01
   7156.00  5.9370266E-01
   7156.33  5.9759251E-01
   7156.67  6.0056316E-01
   7157.00  6.0261525E-01
   7157.33  6.0367936E-01
   7157.67  6.0393674E-01
   7158.00  6.0346292E-01
   7158.33  6.0227079E-01
   7158.67  6.0053358E-01
   7159.00  5.9832764E-01
   7159.33  5.9568245E-01
   7159.67  5.9271141E-01
   7160.00  5.8945945E-01
   7160.33  5.8593708E-01
   7160.67  5.8220015E-01
   7161.00  5.7825875E-01
   7161.33  5.7408620E-01
   7161.67  5.6969831E-01
   7162.00  5.6508812E-01
   7162.33  5.6021957E-01
   7162.67  5.5511470E-01
   7163.00  5.4977017E-01
   7163.33  5.4415620E-01
   7163.67  5.3830840E-01
   7164.00  5.3223658E-01
   7164.33  5.2593075E-01
   7164.67  5.1944002E-01
   7165.00  5.1279070E-01
   7165.33  5.0600173E-01
   7165.67  4.9912771E-01
   7166.00  4.9220600E-01
   7166.33  4.8528119E-01
   7166.67  4.7839966E-01
   7167.00  4.7160216E-01
   7167.33  4.6495241E-01
   7167.67  4.5848016E-01
   7168.00  4.5222553E-01
   7168.33  4.4626899E-01
   7168.67  4.4061876E-01
   7169.00  4.3530216E-01
   7169.33  4.3038920E-01
   7169.67  4.2585608E-01
   7170.00  4.2171726E-01
   7170.33  4.1803432E-01
   7170.67  4.1476154E-01
   7171.00  4.1190027E-01
   7171.33  4.0950307E-01
   7171.67  4.0752475E-01
   7172.00  4.0597476E-01
