    FDMNES
    energy     <xanes>
   7097.00  5.3857459E-03
   7097.33  5.5214222E-03
   7097.67  5.6636192E-03
   7098.00  5.8127959E-03
   7098.33  5.9704912E-03
   7098.67  6.1364197E-03
   7099.00  6.3112109E-03
   7099.33  6.4968934E-03
   7099.67  6.6931788E-03
   7100.00  6.9009525E-03
   7100.33  7.1229574E-03
   7100.67  7.3589347E-03
   7101.00  7.6101672E-03
   7101.33  7.8804766E-03
   7101.67  8.1697042E-03
   7102.00  8.4797756E-03
   7102.33  8.8162072E-03
   7102.67  9.1790959E-03
   7103.00  9.5714554E-03
   7103.33  1.0001598E-02
   7103.67  1.0470221E-02
   7104.00  1.0982291E-02
   7104.33  1.1551008E-02
   7104.67  1.2178486E-02
   7105.00  1.2873439E-02
   7105.33  1.3658280E-02
   7105.67  1.4538583E-02
   7106.00  1.5530944E-02
   7106.33  1.6676877E-02
   7106.67  1.7991123E-02
   7107.00  1.9508960E-02
   7107.33  2.1316997E-02
   7107.67  2.3457663E-02
   7108.00  2.6018619E-02
   7108.33  2.9215076E-02
   7108.67  3.3192531E-02
   7109.00  3.8228824E-02
   7109.33  4.5033972E-02
   7109.67  5.4298186E-02
   7110.00  6.7348382E-02
   7110.33  8.7881026E-02
   7110.67  1.1998370E-01
   7111.00  1.6748708E-01
   7111.33  2.3111848E-01
   7111.67  3.0977793E-01
   7112.00  4.1044794E-01
   7112.33  5.3347612E-01
   7112.67  6.4238636E-01
   7113.00  6.8490348E-01
   7113.33  6.1775194E-01
   7113.67  5.0900418E-01
   7114.00  4.0991527E-01
   7114.33  3.3679899E-01
   7114.67  2.8377983E-01
   7115.00  2.4728656E-01
   7115.33  2.2519571E-01
   7115.67  2.1305477E-01
   7116.00  2.0817931E-01
   7116.33  2.0598593E-01
   7116.67  2.0085129E-01
   7117.00  1.9092235E-01
   7117.33  1.7786998E-01
   7117.67  1.6553972E-01
   7118.00  1.5575356E-01
   7118.33  1.4919484E-01
   7118.67  1.4466596E-01
   7119.00  1.4111793E-01
   7119.33  1.3761362E-01
   7119.67  1.3402184E-01
   7120.00  1.3079391E-01
   7120.33  1.2849275E-01
   7120.67  1.2703876E-01
   7121.00  1.2640934E-01
   7121.33  1.2685367E-01
   7121.67  1.2829146E-01
   7122.00  1.3064495E-01
   7122.33  1.3395673E-01
   7122.67  1.3814389E-01
   7123.00  1.4328050E-01
   7123.33  1.4962586E-01
   7123.67  1.5720348E-01
   7124.00  1.6616164E-01
   7124.33  1.7682808E-01
   7124.67  1.8909880E-01
   7125.00  2.0307080E-01
   7125.33  2.1917446E-01
   7125.67  2.3734653E-01
   7126.00  2.5760678E-01
   7126.33  2.8003055E-01
   7126.67  3.0397068E-01
   7127.00  3.2887367E-01
   7127.33  3.5408792E-01
   7127.67  3.7941716E-01
   7128.00  4.0565786E-01
   7128.33  4.3534924E-01
   7128.67  4.7094776E-01
   7129.00  5.1450342E-01
   7129.33  5.6789792E-01
   7129.67  6.2868995E-01
   7130.00  6.9445644E-01
   7130.33  7.6159136E-01
   7130.67  8.2528152E-01
   7131.00  8.8157631E-01
   7131.33  9.2664413E-01
   7131.67  9.6187897E-01
   7132.00  9.8822513E-01
   7132.33  1.0048254E+00
   7132.67  1.0118863E+00
   7133.00  1.0086234E+00
   7133.33  9.9381402E-01
   7133.67  9.7005563E-01
   7134.00  9.3912078E-01
   7134.33  9.0259181E-01
   7134.67  8.6300742E-01
   7135.00  8.2164702E-01
   7135.33  7.7952606E-01
   7135.67  7.3754524E-01
   7136.00  6.9630048E-01
   7136.33  6.5665590E-01
   7136.67  6.1917503E-01
   7137.00  5.8453934E-01
   7137.33  5.5399004E-01
   7137.67  5.2776043E-01
   7138.00  5.0628641E-01
   7138.33  4.9045775E-01
   7138.67  4.7962211E-01
   7139.00  4.7354069E-01
   7139.33  4.7226127E-01
   7139.67  4.7461857E-01
   7140.00  4.8001846E-01
   7140.33  4.8806236E-01
   7140.67  4.9781124E-01
   7141.00  5.0877363E-01
   7141.33  5.2055166E-01
   7141.67  5.3265196E-01
   7142.00  5.4478385E-01
   7142.33  5.5661847E-01
   7142.67  5.6791660E-01
   7143.00  5.7844919E-01
   7143.33  5.8782016E-01
   7143.67  5.9589802E-01
   7144.00  6.0247766E-01
   7144.33  6.0715365E-01
   7144.67  6.1001647E-01
   7145.00  6.1103531E-01
   7145.33  6.1004483E-01
   7145.67  6.0742475E-01
   7146.00  6.0337624E-01
   7146.33  5.9802455E-01
   7146.67  5.9177638E-01
   7147.00  5.8485286E-01
   7147.33  5.7746099E-01
   7147.67  5.6990321E-01
   7148.00  5.6238057E-01
   7148.33  5.5513745E-01
   7148.67  5.4833316E-01
   7149.00  5.4211541E-01
   7149.33  5.3672514E-01
   7149.67  5.3218824E-01
   7150.00  5.2858338E-01
   7150.33  5.2610124E-01
   7150.67  5.2465389E-01
   7151.00  5.2424871E-01
   7151.33  5.2499316E-01
   7151.67  5.2670920E-01
   7152.00  5.2933157E-01
   7152.33  5.3286363E-01
   7152.67  5.3708806E-01
   7153.00  5.4189446E-01
   7153.33  5.4720330E-01
   7153.67  5.5282097E-01
   7154.00  5.5862818E-01
   7154.33  5.6448670E-01
   7154.67  5.7024257E-01
   7155.00  5.7577025E-01
   7155.33  5.8088401E-01
   7155.67  5.8550208E-01
   7156.00  5.8952964E-01
   7156.33  5.9279609E-01
   7156.67  5.9533103E-01
   7157.00  5.9711382E-01
   7157.33  5.9805715E-01
   7157.67  5.9828795E-01
   7158.00  5.9785076E-01
   7158.33  5.9673081E-01
   7158.67  5.9507212E-01
   7159.00  5.9293456E-01
   7159.33  5.9033145E-01
   7159.67  5.8737366E-01
   7160.00  5.8410677E-01
   7160.33  5.8053615E-01
   7160.67  5.7671880E-01
   7161.00  5.7266486E-01
   7161.33  5.6834784E-01
   7161.67  5.6379823E-01
   7162.00  5.5901629E-01
   7162.33  5.5397081E-01
   7162.67  5.4868968E-01
   7163.00  5.4317462E-01
   7163.33  5.3740343E-01
   7163.67  5.3141576E-01
   7164.00  5.2522558E-01
   7164.33  5.1883082E-01
   7164.67  5.1228034E-01
   7165.00  5.0560086E-01
   7165.33  4.9881535E-01
   7165.67  4.9197457E-01
   7166.00  4.8511528E-01
   7166.33  4.7828420E-01
   7166.67  4.7152196E-01
   7167.00  4.6486675E-01
   7167.33  4.5838178E-01
   7167.67  4.5209338E-01
   7168.00  4.4604192E-01
   7168.33  4.4030368E-01
   7168.67  4.3487655E-01
   7169.00  4.2978240E-01
   7169.33  4.2508564E-01
   7169.67  4.2075785E-01
   7170.00  4.1680912E-01
   7170.33  4.1329484E-01
   7170.67  4.1016936E-01
   7171.00  4.0743327E-01
   7171.33  4.0513723E-01
   7171.67  4.0324037E-01
   7172.00  4.0175300E-01
