    FDMNES
    energy     <xanes>
   7097.00  4.3231925E-03
   7097.33  4.4134685E-03
   7097.67  4.5073508E-03
   7098.00  4.6050623E-03
   7098.33  4.7074036E-03
   7098.67  4.8141772E-03
   7099.00  4.9256834E-03
   7099.33  5.0429501E-03
   7099.67  5.1657718E-03
   7100.00  5.2945634E-03
   7100.33  5.4306808E-03
   7100.67  5.5739240E-03
   7101.00  5.7248862E-03
   7101.33  5.8854139E-03
   7101.67  6.0553447E-03
   7102.00  6.2355599E-03
   7102.33  6.4286753E-03
   7102.67  6.6346377E-03
   7103.00  6.8548213E-03
   7103.33  7.0931138E-03
   7103.67  7.3497386E-03
   7104.00  7.6269664E-03
   7104.33  7.9309388E-03
   7104.67  8.2625601E-03
   7105.00  8.6258703E-03
   7105.33  9.0313596E-03
   7105.67  9.4816786E-03
   7106.00  9.9847372E-03
   7106.33  1.0560410E-02
   7106.67  1.1216244E-02
   7107.00  1.1969871E-02
   7107.33  1.2864761E-02
   7107.67  1.3924412E-02
   7108.00  1.5196193E-02
   7108.33  1.6797671E-02
   7108.67  1.8818577E-02
   7109.00  2.1429006E-02
   7109.33  2.5076482E-02
   7109.67  3.0258292E-02
   7110.00  3.7947797E-02
   7110.33  5.0933417E-02
   7110.67  7.2152216E-02
   7111.00  1.0237207E-01
   7111.33  1.3343849E-01
   7111.67  1.5760895E-01
   7112.00  1.7542882E-01
   7112.33  1.8712357E-01
   7112.67  2.0551676E-01
   7113.00  2.2280073E-01
   7113.33  2.0579248E-01
   7113.67  1.6932114E-01
   7114.00  1.3398609E-01
   7114.33  1.0644852E-01
   7114.67  8.7147008E-02
   7115.00  7.5279778E-02
   7115.33  6.8849896E-02
   7115.67  6.5062081E-02
   7116.00  6.3118150E-02
   7116.33  6.3300511E-02
   7116.67  6.5500073E-02
   7117.00  6.9763862E-02
   7117.33  7.6442344E-02
   7117.67  8.5210824E-02
   7118.00  9.5803913E-02
   7118.33  1.0815931E-01
   7118.67  1.2209594E-01
   7119.00  1.3755568E-01
   7119.33  1.5400834E-01
   7119.67  1.7002260E-01
   7120.00  1.8431263E-01
   7120.33  1.9547788E-01
   7120.67  2.0369846E-01
   7121.00  2.0959628E-01
   7121.33  2.1444757E-01
   7121.67  2.2005910E-01
   7122.00  2.2772867E-01
   7122.33  2.3888763E-01
   7122.67  2.5368333E-01
   7123.00  2.7214396E-01
   7123.33  2.9393488E-01
   7123.67  3.1755399E-01
   7124.00  3.4296642E-01
   7124.33  3.7198542E-01
   7124.67  4.0510709E-01
   7125.00  4.4088602E-01
   7125.33  4.7508796E-01
   7125.67  5.0555299E-01
   7126.00  5.3177403E-01
   7126.33  5.5064927E-01
   7126.67  5.6022548E-01
   7127.00  5.6043461E-01
   7127.33  5.5316640E-01
   7127.67  5.4244614E-01
   7128.00  5.3020648E-01
   7128.33  5.1788219E-01
   7128.67  5.0657938E-01
   7129.00  4.9732077E-01
   7129.33  4.9176277E-01
   7129.67  4.9026089E-01
   7130.00  4.9276764E-01
   7130.33  4.9909305E-01
   7130.67  5.0827730E-01
   7131.00  5.2019519E-01
   7131.33  5.3521904E-01
   7131.67  5.5298911E-01
   7132.00  5.7352255E-01
   7132.33  5.9733255E-01
   7132.67  6.2416989E-01
   7133.00  6.5405213E-01
   7133.33  6.8736132E-01
   7133.67  7.2342197E-01
   7134.00  7.6151045E-01
   7134.33  8.0026662E-01
   7134.67  8.3729176E-01
   7135.00  8.6967082E-01
   7135.33  8.9261191E-01
   7135.67  9.0461842E-01
   7136.00  9.0513070E-01
   7136.33  8.9377311E-01
   7136.67  8.7390345E-01
   7137.00  8.4771771E-01
   7137.33  8.1738311E-01
   7137.67  7.8568315E-01
   7138.00  7.5422448E-01
   7138.33  7.2458243E-01
   7138.67  6.9741130E-01
   7139.00  6.7309678E-01
   7139.33  6.5216155E-01
   7139.67  6.3416150E-01
   7140.00  6.1893802E-01
   7140.33  6.0656711E-01
   7140.67  5.9647182E-01
   7141.00  5.8843236E-01
   7141.33  5.8242829E-01
   7141.67  5.7799603E-01
   7142.00  5.7493558E-01
   7142.33  5.7315598E-01
   7142.67  5.7228232E-01
   7143.00  5.7212081E-01
   7143.33  5.7252544E-01
   7143.67  5.7325468E-01
   7144.00  5.7418671E-01
   7144.33  5.7523254E-01
   7144.67  5.7631925E-01
   7145.00  5.7742255E-01
   7145.33  5.7853699E-01
   7145.67  5.7966478E-01
   7146.00  5.8080631E-01
   7146.33  5.8194622E-01
   7146.67  5.8303988E-01
   7147.00  5.8402193E-01
   7147.33  5.8476266E-01
   7147.67  5.8517285E-01
   7148.00  5.8516234E-01
   7148.33  5.8459370E-01
   7148.67  5.8349616E-01
   7149.00  5.8187953E-01
   7149.33  5.7974325E-01
   7149.67  5.7723383E-01
   7150.00  5.7443790E-01
   7150.33  5.7142863E-01
   7150.67  5.6830590E-01
   7151.00  5.6511256E-01
   7151.33  5.6186122E-01
   7151.67  5.5854243E-01
   7152.00  5.5511459E-01
   7152.33  5.5147688E-01
   7152.67  5.4755535E-01
   7153.00  5.4326220E-01
   7153.33  5.3844738E-01
   7153.67  5.3310344E-01
   7154.00  5.2719726E-01
   7154.33  5.2064534E-01
   7154.67  5.1354193E-01
   7155.00  5.0593040E-01
   7155.33  4.9782741E-01
   7155.67  4.8937712E-01
   7156.00  4.8066746E-01
   7156.33  4.7179022E-01
   7156.67  4.6287894E-01
   7157.00  4.5403201E-01
   7157.33  4.4537955E-01
   7157.67  4.3699634E-01
   7158.00  4.2895049E-01
   7158.33  4.2134811E-01
   7158.67  4.1417032E-01
   7159.00  4.0742256E-01
   7159.33  4.0114656E-01
   7159.67  3.9527373E-01
   7160.00  3.8979575E-01
   7160.33  3.8476746E-01
   7160.67  3.8016259E-01
   7161.00  3.7601490E-01
   7161.33  3.7243584E-01
   7161.67  3.6940833E-01
   7162.00  3.6696127E-01
   7162.33  3.6517997E-01
   7162.67  3.6396879E-01
   7163.00  3.6328706E-01
   7163.33  3.6312664E-01
   7163.67  3.6334681E-01
   7164.00  3.6386872E-01
   7164.33  3.6462373E-01
   7164.67  3.6549481E-01
   7165.00  3.6641083E-01
   7165.33  3.6729731E-01
   7165.67  3.6810215E-01
   7166.00  3.6879316E-01
   7166.33  3.6933634E-01
   7166.67  3.6975168E-01
   7167.00  3.7005773E-01
   7167.33  3.7028234E-01
   7167.67  3.7048341E-01
   7168.00  3.7070807E-01
   7168.33  3.7102122E-01
   7168.67  3.7146244E-01
   7169.00  3.7206615E-01
   7169.33  3.7288399E-01
   7169.67  3.7390478E-01
   7170.00  3.7512625E-01
   7170.33  3.7655296E-01
   7170.67  3.7812634E-01
   7171.00  3.7979951E-01
   7171.33  3.8149310E-01
   7171.67  3.8307557E-01
   7172.00  3.8439110E-01
