    FDMNES
    energy     <xanes>
   7097.00  5.1423425E-03
   7097.33  5.2659676E-03
   7097.67  5.3953176E-03
   7098.00  5.5307864E-03
   7098.33  5.6737094E-03
   7098.67  5.8238242E-03
   7099.00  5.9816686E-03
   7099.33  6.1489950E-03
   7099.67  6.3255365E-03
   7100.00  6.5120477E-03
   7100.33  6.7108884E-03
   7100.67  6.9218147E-03
   7101.00  7.1459186E-03
   7101.33  7.3864770E-03
   7101.67  7.6433307E-03
   7102.00  7.9181188E-03
   7102.33  8.2155626E-03
   7102.67  8.5357241E-03
   7103.00  8.8811749E-03
   7103.33  9.2590316E-03
   7103.67  9.6698869E-03
   7104.00  1.0118002E-02
   7104.33  1.0614726E-02
   7104.67  1.1161926E-02
   7105.00  1.1767165E-02
   7105.33  1.2449903E-02
   7105.67  1.3215205E-02
   7106.00  1.4077771E-02
   7106.33  1.5074347E-02
   7106.67  1.6218814E-02
   7107.00  1.7543495E-02
   7107.33  1.9127853E-02
   7107.67  2.1013959E-02
   7108.00  2.3286914E-02
   7108.33  2.6157325E-02
   7108.67  2.9781846E-02
   7109.00  3.4457888E-02
   7109.33  4.0963564E-02
   7109.67  5.0142857E-02
   7110.00  6.3645327E-02
   7110.33  8.6221022E-02
   7110.67  1.2334865E-01
   7111.00  1.7842954E-01
   7111.33  2.3690488E-01
   7111.67  2.7694456E-01
   7112.00  3.0331914E-01
   7112.33  3.2973874E-01
   7112.67  3.6490127E-01
   7113.00  4.0856905E-01
   7113.33  4.3894165E-01
   7113.67  4.2562862E-01
   7114.00  3.7242403E-01
   7114.33  3.1614865E-01
   7114.67  2.7933870E-01
   7115.00  2.6395032E-01
   7115.33  2.6394651E-01
   7115.67  2.6441061E-01
   7116.00  2.5735998E-01
   7116.33  2.4240827E-01
   7116.67  2.2582867E-01
   7117.00  2.1084465E-01
   7117.33  1.9852150E-01
   7117.67  1.8767083E-01
   7118.00  1.7765469E-01
   7118.33  1.6884837E-01
   7118.67  1.6172457E-01
   7119.00  1.5630535E-01
   7119.33  1.5215151E-01
   7119.67  1.4837532E-01
   7120.00  1.4448925E-01
   7120.33  1.4039346E-01
   7120.67  1.3672833E-01
   7121.00  1.3435897E-01
   7121.33  1.3420953E-01
   7121.67  1.3601932E-01
   7122.00  1.3949288E-01
   7122.33  1.4456261E-01
   7122.67  1.5114472E-01
   7123.00  1.5963516E-01
   7123.33  1.7110009E-01
   7123.67  1.8583879E-01
   7124.00  2.0388828E-01
   7124.33  2.2545205E-01
   7124.67  2.4992347E-01
   7125.00  2.7648960E-01
   7125.33  3.0387236E-01
   7125.67  3.3139380E-01
   7126.00  3.5781896E-01
   7126.33  3.7854229E-01
   7126.67  3.9149661E-01
   7127.00  3.9822050E-01
   7127.33  4.0351641E-01
   7127.67  4.1227199E-01
   7128.00  4.2642994E-01
   7128.33  4.4714878E-01
   7128.67  4.7400550E-01
   7129.00  5.0744093E-01
   7129.33  5.4794437E-01
   7129.67  5.9269291E-01
   7130.00  6.3887046E-01
   7130.33  6.8324571E-01
   7130.67  7.2438671E-01
   7131.00  7.6222792E-01
   7131.33  7.9745164E-01
   7131.67  8.3181122E-01
   7132.00  8.6661821E-01
   7132.33  9.0312927E-01
   7132.67  9.4109602E-01
   7133.00  9.7879720E-01
   7133.33  1.0099907E+00
   7133.67  1.0258382E+00
   7134.00  1.0183331E+00
   7134.33  9.8259750E-01
   7134.67  9.2949776E-01
   7135.00  8.6793892E-01
   7135.33  8.0519190E-01
   7135.67  7.4495212E-01
   7136.00  6.8839756E-01
   7136.33  6.3663304E-01
   7136.67  5.8945487E-01
   7137.00  5.4701678E-01
   7137.33  5.0993132E-01
   7137.67  4.7749319E-01
   7138.00  4.4953776E-01
   7138.33  4.2633574E-01
   7138.67  4.0705553E-01
   7139.00  3.9142808E-01
   7139.33  3.7957654E-01
   7139.67  3.7081601E-01
   7140.00  3.6494090E-01
   7140.33  3.6206005E-01
   7140.67  3.6162873E-01
   7141.00  3.6347237E-01
   7141.33  3.6764875E-01
   7141.67  3.7368590E-01
   7142.00  3.8137677E-01
   7142.33  3.9060572E-01
   7142.67  4.0086514E-01
   7143.00  4.1183644E-01
   7143.33  4.2317091E-01
   7143.67  4.3445191E-01
   7144.00  4.4540235E-01
   7144.33  4.5572473E-01
   7144.67  4.6539113E-01
   7145.00  4.7443171E-01
   7145.33  4.8293972E-01
   7145.67  4.9120700E-01
   7146.00  4.9944507E-01
   7146.33  5.0786276E-01
   7146.67  5.1654636E-01
   7147.00  5.2551804E-01
   7147.33  5.3476178E-01
   7147.67  5.4415041E-01
   7148.00  5.5358811E-01
   7148.33  5.6297918E-01
   7148.67  5.7229356E-01
   7149.00  5.8154232E-01
   7149.33  5.9076046E-01
   7149.67  5.9998874E-01
   7150.00  6.0923602E-01
   7150.33  6.1847136E-01
   7150.67  6.2763161E-01
   7151.00  6.3663911E-01
   7151.33  6.4533889E-01
   7151.67  6.5361762E-01
   7152.00  6.6133722E-01
   7152.33  6.6824575E-01
   7152.67  6.7428101E-01
   7153.00  6.7932673E-01
   7153.33  6.8313299E-01
   7153.67  6.8575506E-01
   7154.00  6.8714891E-01
   7154.33  6.8714179E-01
   7154.67  6.8591156E-01
   7155.00  6.8350953E-01
   7155.33  6.7989643E-01
   7155.67  6.7533366E-01
   7156.00  6.6994790E-01
   7156.33  6.6381441E-01
   7156.67  6.5717587E-01
   7157.00  6.5016306E-01
   7157.33  6.4288556E-01
   7157.67  6.3549521E-01
   7158.00  6.2808343E-01
   7158.33  6.2074894E-01
   7158.67  6.1355647E-01
   7159.00  6.0655710E-01
   7159.33  5.9983116E-01
   7159.67  5.9339001E-01
   7160.00  5.8725982E-01
   7160.33  5.8149751E-01
   7160.67  5.7606246E-01
   7161.00  5.7094183E-01
   7161.33  5.6613823E-01
   7161.67  5.6156916E-01
   7162.00  5.5718729E-01
   7162.33  5.5294696E-01
   7162.67  5.4876892E-01
   7163.00  5.4460217E-01
   7163.33  5.4039176E-01
   7163.67  5.3610617E-01
   7164.00  5.3172664E-01
   7164.33  5.2723084E-01
   7164.67  5.2263315E-01
   7165.00  5.1794353E-01
   7165.33  5.1316920E-01
   7165.67  5.0833745E-01
   7166.00  5.0346384E-01
   7166.33  4.9856261E-01
   7166.67  4.9365276E-01
   7167.00  4.8874804E-01
   7167.33  4.8386745E-01
   7167.67  4.7902593E-01
   7168.00  4.7424311E-01
   7168.33  4.6955511E-01
   7168.67  4.6497717E-01
   7169.00  4.6053171E-01
   7169.33  4.5626350E-01
   7169.67  4.5217713E-01
   7170.00  4.4829275E-01
   7170.33  4.4466033E-01
   7170.67  4.4127378E-01
   7171.00  4.3815501E-01
   7171.33  4.3538083E-01
   7171.67  4.3298336E-01
   7172.00  4.3105405E-01
