    FDMNES
    energy     <xanes>
   7097.00  4.3048157E-03
   7097.33  4.3961273E-03
   7097.67  4.4911567E-03
   7098.00  4.5901374E-03
   7098.33  4.6939004E-03
   7098.67  4.8022471E-03
   7099.00  4.9154921E-03
   7099.33  5.0347058E-03
   7099.67  5.1596814E-03
   7100.00  5.2908546E-03
   7100.33  5.4296410E-03
   7100.67  5.5758397E-03
   7101.00  5.7300740E-03
   7101.33  5.8942750E-03
   7101.67  6.0682809E-03
   7102.00  6.2530173E-03
   7102.33  6.4512207E-03
   7102.67  6.6628414E-03
   7103.00  6.8893177E-03
   7103.33  7.1347118E-03
   7103.67  7.3992527E-03
   7104.00  7.6853026E-03
   7104.33  7.9992491E-03
   7104.67  8.3419970E-03
   7105.00  8.7177027E-03
   7105.33  9.1371687E-03
   7105.67  9.6029928E-03
   7106.00  1.0123159E-02
   7106.33  1.0717750E-02
   7106.67  1.1393940E-02
   7107.00  1.2168956E-02
   7107.33  1.3085200E-02
   7107.67  1.4163924E-02
   7108.00  1.5448787E-02
   7108.33  1.7047119E-02
   7108.67  1.9033119E-02
   7109.00  2.1547557E-02
   7109.33  2.4949632E-02
   7109.67  2.9589573E-02
   7110.00  3.6135275E-02
   7110.33  4.6448304E-02
   7110.67  6.2781181E-02
   7111.00  8.8424791E-02
   7111.33  1.3023141E-01
   7111.67  1.8733722E-01
   7112.00  2.4198607E-01
   7112.33  2.6768322E-01
   7112.67  2.6491401E-01
   7113.00  2.4068482E-01
   7113.33  1.9884646E-01
   7113.67  1.5541533E-01
   7114.00  1.2092612E-01
   7114.33  9.8374260E-02
   7114.67  8.3436927E-02
   7115.00  7.3715610E-02
   7115.33  6.7809771E-02
   7115.67  6.4219967E-02
   7116.00  6.2402934E-02
   7116.33  6.2187595E-02
   7116.67  6.3259652E-02
   7117.00  6.5621953E-02
   7117.33  6.9580413E-02
   7117.67  7.5240717E-02
   7118.00  8.2963942E-02
   7118.33  9.3518784E-02
   7118.67  1.0676462E-01
   7119.00  1.2226129E-01
   7119.33  1.3886988E-01
   7119.67  1.5556777E-01
   7120.00  1.7283783E-01
   7120.33  1.9178667E-01
   7120.67  2.1209087E-01
   7121.00  2.3315544E-01
   7121.33  2.5422058E-01
   7121.67  2.7397967E-01
   7122.00  2.9127481E-01
   7122.33  3.0611655E-01
   7122.67  3.2073353E-01
   7123.00  3.3666840E-01
   7123.33  3.5480345E-01
   7123.67  3.7444465E-01
   7124.00  3.9489107E-01
   7124.33  4.1524289E-01
   7124.67  4.3437647E-01
   7125.00  4.5120688E-01
   7125.33  4.6447185E-01
   7125.67  4.7442747E-01
   7126.00  4.8135088E-01
   7126.33  4.8539893E-01
   7126.67  4.8739146E-01
   7127.00  4.8773350E-01
   7127.33  4.8674198E-01
   7127.67  4.8503623E-01
   7128.00  4.8299968E-01
   7128.33  4.8099800E-01
   7128.67  4.7924839E-01
   7129.00  4.7782784E-01
   7129.33  4.7678961E-01
   7129.67  4.7609729E-01
   7130.00  4.7581024E-01
   7130.33  4.7615297E-01
   7130.67  4.7726364E-01
   7131.00  4.7931397E-01
   7131.33  4.8258322E-01
   7131.67  4.8700008E-01
   7132.00  4.9256770E-01
   7132.33  4.9941227E-01
   7132.67  5.0739906E-01
   7133.00  5.1656845E-01
   7133.33  5.2713949E-01
   7133.67  5.3897133E-01
   7134.00  5.5198368E-01
   7134.33  5.6607822E-01
   7134.67  5.8083888E-01
   7135.00  5.9602542E-01
   7135.33  6.1145401E-01
   7135.67  6.2691864E-01
   7136.00  6.4221173E-01
   7136.33  6.5689538E-01
   7136.67  6.7055465E-01
   7137.00  6.8276478E-01
   7137.33  6.9288666E-01
   7137.67  7.0087583E-01
   7138.00  7.0657963E-01
   7138.33  7.0959102E-01
   7138.67  7.1019896E-01
   7139.00  7.0853019E-01
   7139.33  7.0471766E-01
   7139.67  6.9959810E-01
   7140.00  6.9378044E-01
   7140.33  6.8791966E-01
   7140.67  6.8248776E-01
   7141.00  6.7772604E-01
   7141.33  6.7385840E-01
   7141.67  6.7075264E-01
   7142.00  6.6832136E-01
   7142.33  6.6653510E-01
   7142.67  6.6524320E-01
   7143.00  6.6439621E-01
   7143.33  6.6399873E-01
   7143.67  6.6395475E-01
   7144.00  6.6421334E-01
   7144.33  6.6472201E-01
   7144.67  6.6535221E-01
   7145.00  6.6600846E-01
   7145.33  6.6657076E-01
   7145.67  6.6695361E-01
   7146.00  6.6709204E-01
   7146.33  6.6689558E-01
   7146.67  6.6637018E-01
   7147.00  6.6550336E-01
   7147.33  6.6425083E-01
   7147.67  6.6266669E-01
   7148.00  6.6077167E-01
   7148.33  6.5856986E-01
   7148.67  6.5614659E-01
   7149.00  6.5355358E-01
   7149.33  6.5084260E-01
   7149.67  6.4809054E-01
   7150.00  6.4534620E-01
   7150.33  6.4266077E-01
   7150.67  6.4005683E-01
   7151.00  6.3754918E-01
   7151.33  6.3514972E-01
   7151.67  6.3282249E-01
   7152.00  6.3053475E-01
   7152.33  6.2823854E-01
   7152.67  6.2588144E-01
   7153.00  6.2341489E-01
   7153.33  6.2075881E-01
   7153.67  6.1787357E-01
   7154.00  6.1470678E-01
   7154.33  6.1115448E-01
   7154.67  6.0719899E-01
   7155.00  6.0279079E-01
   7155.33  5.9781587E-01
   7155.67  5.9229863E-01
   7156.00  5.8621984E-01
   7156.33  5.7950574E-01
   7156.67  5.7224742E-01
   7157.00  5.6448202E-01
   7157.33  5.5621732E-01
   7157.67  5.4758846E-01
   7158.00  5.3867239E-01
   7158.33  5.2953811E-01
   7158.67  5.2030114E-01
   7159.00  5.1103446E-01
   7159.33  5.0181870E-01
   7159.67  4.9271386E-01
   7160.00  4.8376812E-01
   7160.33  4.7504454E-01
   7160.67  4.6654428E-01
   7161.00  4.5828457E-01
   7161.33  4.5031263E-01
   7161.67  4.4260798E-01
   7162.00  4.3517985E-01
   7162.33  4.2807581E-01
   7162.67  4.2127377E-01
   7163.00  4.1478827E-01
   7163.33  4.0867985E-01
   7163.67  4.0292440E-01
   7164.00  3.9753493E-01
   7164.33  3.9256980E-01
   7164.67  3.8798687E-01
   7165.00  3.8378474E-01
   7165.33  3.8000062E-01
   7165.67  3.7657062E-01
   7166.00  3.7347482E-01
   7166.33  3.7072441E-01
   7166.67  3.6825154E-01
   7167.00  3.6603132E-01
   7167.33  3.6406581E-01
   7167.67  3.6230503E-01
   7168.00  3.6073426E-01
   7168.33  3.5936277E-01
   7168.67  3.5816022E-01
   7169.00  3.5712254E-01
   7169.33  3.5626739E-01
   7169.67  3.5557272E-01
   7170.00  3.5503689E-01
   7170.33  3.5467632E-01
   7170.67  3.5446529E-01
   7171.00  3.5439324E-01
   7171.33  3.5445009E-01
   7171.67  3.5457302E-01
   7172.00  3.5469481E-01
