    FDMNES
    energy     <xanes>
   7097.00  4.4843041E-03
   7097.33  4.5767957E-03
   7097.67  4.6730416E-03
   7098.00  4.7732818E-03
   7098.33  4.8783630E-03
   7098.67  4.9880915E-03
   7099.00  5.1027940E-03
   7099.33  5.2235697E-03
   7099.67  5.3502212E-03
   7100.00  5.4832070E-03
   7100.33  5.6239956E-03
   7100.67  5.7724055E-03
   7101.00  5.9291025E-03
   7101.33  6.0961184E-03
   7101.67  6.2733300E-03
   7102.00  6.4617459E-03
   7102.33  6.6642988E-03
   7102.67  6.8810201E-03
   7103.00  7.1135164E-03
   7103.33  7.3662469E-03
   7103.67  7.6396210E-03
   7104.00  7.9363610E-03
   7104.33  8.2637019E-03
   7104.67  8.6229795E-03
   7105.00  9.0191772E-03
   7105.33  9.4650467E-03
   7105.67  9.9643162E-03
   7106.00  1.0527063E-02
   7106.33  1.1178339E-02
   7106.67  1.1928688E-02
   7107.00  1.2801402E-02
   7107.33  1.3853579E-02
   7107.67  1.5118453E-02
   7108.00  1.6661118E-02
   7108.33  1.8643120E-02
   7108.67  2.1194134E-02
   7109.00  2.4557373E-02
   7109.33  2.9375215E-02
   7109.67  3.6381701E-02
   7110.00  4.7011194E-02
   7110.33  6.5390913E-02
   7110.67  9.6014306E-02
   7111.00  1.4089177E-01
   7111.33  1.9265407E-01
   7111.67  2.3400153E-01
   7112.00  2.4351370E-01
   7112.33  2.0460737E-01
   7112.67  1.6637240E-01
   7113.00  1.4856902E-01
   7113.33  1.4565368E-01
   7113.67  1.4259618E-01
   7114.00  1.2919549E-01
   7114.33  1.0647362E-01
   7114.67  8.5007916E-02
   7115.00  6.8671193E-02
   7115.33  5.7908086E-02
   7115.67  5.0385446E-02
   7116.00  4.5308187E-02
   7116.33  4.2257223E-02
   7116.67  4.0477875E-02
   7117.00  3.9680277E-02
   7117.33  3.9776772E-02
   7117.67  4.0581922E-02
   7118.00  4.2073152E-02
   7118.33  4.4348170E-02
   7118.67  4.7371418E-02
   7119.00  5.1261237E-02
   7119.33  5.6433420E-02
   7119.67  6.3150771E-02
   7120.00  7.1767114E-02
   7120.33  8.2427030E-02
   7120.67  9.3524938E-02
   7121.00  1.0367595E-01
   7121.33  1.1410574E-01
   7121.67  1.2794919E-01
   7122.00  1.4714143E-01
   7122.33  1.7371686E-01
   7122.67  2.0742334E-01
   7123.00  2.4772614E-01
   7123.33  2.9187927E-01
   7123.67  3.3416218E-01
   7124.00  3.7126532E-01
   7124.33  4.0364302E-01
   7124.67  4.3493067E-01
   7125.00  4.6493099E-01
   7125.33  4.9308312E-01
   7125.67  5.2627307E-01
   7126.00  5.7091327E-01
   7126.33  6.2525271E-01
   7126.67  6.7698458E-01
   7127.00  7.1917665E-01
   7127.33  7.4848390E-01
   7127.67  7.6739839E-01
   7128.00  7.7938707E-01
   7128.33  7.8928888E-01
   7128.67  8.0007369E-01
   7129.00  8.1205789E-01
   7129.33  8.2461467E-01
   7129.67  8.3661300E-01
   7130.00  8.4715451E-01
   7130.33  8.5513300E-01
   7130.67  8.6002107E-01
   7131.00  8.6076070E-01
   7131.33  8.5511888E-01
   7131.67  8.4298434E-01
   7132.00  8.2492328E-01
   7132.33  8.0252057E-01
   7132.67  7.7927432E-01
   7133.00  7.5796460E-01
   7133.33  7.4163848E-01
   7133.67  7.3052481E-01
   7134.00  7.2374237E-01
   7134.33  7.1941558E-01
   7134.67  7.1518451E-01
   7135.00  7.1014780E-01
   7135.33  7.0441224E-01
   7135.67  6.9899301E-01
   7136.00  6.9467219E-01
   7136.33  6.9203667E-01
   7136.67  6.9068978E-01
   7137.00  6.9013523E-01
   7137.33  6.8966825E-01
   7137.67  6.8854680E-01
   7138.00  6.8617900E-01
   7138.33  6.8177929E-01
   7138.67  6.7531547E-01
   7139.00  6.6685103E-01
   7139.33  6.5648293E-01
   7139.67  6.4484612E-01
   7140.00  6.3231888E-01
   7140.33  6.1925799E-01
   7140.67  6.0609574E-01
   7141.00  5.9310866E-01
   7141.33  5.8060738E-01
   7141.67  5.6871371E-01
   7142.00  5.5751620E-01
   7142.33  5.4714385E-01
   7142.67  5.3748251E-01
   7143.00  5.2847703E-01
   7143.33  5.2010664E-01
   7143.67  5.1219636E-01
   7144.00  5.0465600E-01
   7144.33  4.9741804E-01
   7144.67  4.9035172E-01
   7145.00  4.8337334E-01
   7145.33  4.7637761E-01
   7145.67  4.6926082E-01
   7146.00  4.6194026E-01
   7146.33  4.5430882E-01
   7146.67  4.4636513E-01
   7147.00  4.3810808E-01
   7147.33  4.2952488E-01
   7147.67  4.2068621E-01
   7148.00  4.1162381E-01
   7148.33  4.0235459E-01
   7148.67  3.9294311E-01
   7149.00  3.8342138E-01
   7149.33  3.7382536E-01
   7149.67  3.6424128E-01
   7150.00  3.5478261E-01
   7150.33  3.4565894E-01
   7150.67  3.3701354E-01
   7151.00  3.2899860E-01
   7151.33  3.2187923E-01
   7151.67  3.1569502E-01
   7152.00  3.1053166E-01
   7152.33  3.0657269E-01
   7152.67  3.0367837E-01
   7153.00  3.0180572E-01
   7153.33  3.0099211E-01
   7153.67  3.0102048E-01
   7154.00  3.0179465E-01
   7154.33  3.0326360E-01
   7154.67  3.0520017E-01
   7155.00  3.0745965E-01
   7155.33  3.0988280E-01
   7155.67  3.1227993E-01
   7156.00  3.1452037E-01
   7156.33  3.1644391E-01
   7156.67  3.1798778E-01
   7157.00  3.1908173E-01
   7157.33  3.1959132E-01
   7157.67  3.1953318E-01
   7158.00  3.1888996E-01
   7158.33  3.1760660E-01
   7158.67  3.1581943E-01
   7159.00  3.1362991E-01
   7159.33  3.1118252E-01
   7159.67  3.0873092E-01
   7160.00  3.0649763E-01
   7160.33  3.0482039E-01
   7160.67  3.0391107E-01
   7161.00  3.0398638E-01
   7161.33  3.0541242E-01
   7161.67  3.0820916E-01
   7162.00  3.1248260E-01
   7162.33  3.1849848E-01
   7162.67  3.2607526E-01
   7163.00  3.3517195E-01
   7163.33  3.4586510E-01
   7163.67  3.5782848E-01
   7164.00  3.7089554E-01
   7164.33  3.8493761E-01
   7164.67  3.9956668E-01
   7165.00  4.1451236E-01
   7165.33  4.2942771E-01
   7165.67  4.4394905E-01
   7166.00  4.5774713E-01
   7166.33  4.7029811E-01
   7166.67  4.8138852E-01
   7167.00  4.9077270E-01
   7167.33  4.9802794E-01
   7167.67  5.0334243E-01
   7168.00  5.0679937E-01
   7168.33  5.0843858E-01
   7168.67  5.0883395E-01
   7169.00  5.0837245E-01
   7169.33  5.0748275E-01
   7169.67  5.0665689E-01
   7170.00  5.0620989E-01
   7170.33  5.0647571E-01
   7170.67  5.0748721E-01
   7171.00  5.0921858E-01
   7171.33  5.1156002E-01
   7171.67  5.1409466E-01
   7172.00  5.1639892E-01
