    FDMNES
    energy     <xanes>
   7097.00  4.0176672E-03
   7097.33  4.0956351E-03
   7097.67  4.1765724E-03
   7098.00  4.2606629E-03
   7098.33  4.3485664E-03
   7098.67  4.4401223E-03
   7099.00  4.5355807E-03
   7099.33  4.6357952E-03
   7099.67  4.7406033E-03
   7100.00  4.8503572E-03
   7100.33  4.9661958E-03
   7100.67  5.0879714E-03
   7101.00  5.2161990E-03
   7101.33  5.3524576E-03
   7101.67  5.4966517E-03
   7102.00  5.6495702E-03
   7102.33  5.8135074E-03
   7102.67  5.9885057E-03
   7103.00  6.1758428E-03
   7103.33  6.3790530E-03
   7103.67  6.5985190E-03
   7104.00  6.8364584E-03
   7104.33  7.0987293E-03
   7104.67  7.3865689E-03
   7105.00  7.7041731E-03
   7105.33  8.0622059E-03
   7105.67  8.4641921E-03
   7106.00  8.9190094E-03
   7106.33  9.4486215E-03
   7106.67  1.0063408E-02
   7107.00  1.0785207E-02
   7107.33  1.1667606E-02
   7107.67  1.2745490E-02
   7108.00  1.4085447E-02
   7108.33  1.5854801E-02
   7108.67  1.8203655E-02
   7109.00  2.1413697E-02
   7109.33  2.6252088E-02
   7109.67  3.3694603E-02
   7110.00  4.5684930E-02
   7110.33  6.7863999E-02
   7110.67  1.0506339E-01
   7111.00  1.5071788E-01
   7111.33  1.6645423E-01
   7111.67  1.4810101E-01
   7112.00  1.1908927E-01
   7112.33  9.7323216E-02
   7112.67  8.2806804E-02
   7113.00  7.2769524E-02
   7113.33  6.6344760E-02
   7113.67  6.1350888E-02
   7114.00  5.6604988E-02
   7114.33  5.2959689E-02
   7114.67  5.0272928E-02
   7115.00  4.7158076E-02
   7115.33  4.3933492E-02
   7115.67  4.1231392E-02
   7116.00  3.8600041E-02
   7116.33  3.6375943E-02
   7116.67  3.5090626E-02
   7117.00  3.4842179E-02
   7117.33  3.5752824E-02
   7117.67  3.7664633E-02
   7118.00  4.0255914E-02
   7118.33  4.2705232E-02
   7118.67  4.4773802E-02
   7119.00  4.6914579E-02
   7119.33  5.0107677E-02
   7119.67  5.5268546E-02
   7120.00  6.2795957E-02
   7120.33  7.1482005E-02
   7120.67  7.8181458E-02
   7121.00  8.2515467E-02
   7121.33  8.8143009E-02
   7121.67  9.8506727E-02
   7122.00  1.1556187E-01
   7122.33  1.4194768E-01
   7122.67  1.7619985E-01
   7123.00  2.1329037E-01
   7123.33  2.4284431E-01
   7123.67  2.6788392E-01
   7124.00  2.9967203E-01
   7124.33  3.4175374E-01
   7124.67  3.7991371E-01
   7125.00  4.0387640E-01
   7125.33  4.1347801E-01
   7125.67  4.2058272E-01
   7126.00  4.3090897E-01
   7126.33  4.4343079E-01
   7126.67  4.5586390E-01
   7127.00  4.6875442E-01
   7127.33  4.8233690E-01
   7127.67  4.9669604E-01
   7128.00  5.1356141E-01
   7128.33  5.3669900E-01
   7128.67  5.6763847E-01
   7129.00  6.0651952E-01
   7129.33  6.5163800E-01
   7129.67  6.9712167E-01
   7130.00  7.3726269E-01
   7130.33  7.6520716E-01
   7130.67  7.8025479E-01
   7131.00  7.8397237E-01
   7131.33  7.8102619E-01
   7131.67  7.7981755E-01
   7132.00  7.8588428E-01
   7132.33  8.0123061E-01
   7132.67  8.1920580E-01
   7133.00  8.3305463E-01
   7133.33  8.3395574E-01
   7133.67  8.2109860E-01
   7134.00  8.0208186E-01
   7134.33  7.8919734E-01
   7134.67  7.8642610E-01
   7135.00  7.9271091E-01
   7135.33  8.0513292E-01
   7135.67  8.1986808E-01
   7136.00  8.3563467E-01
   7136.33  8.5222236E-01
   7136.67  8.6957285E-01
   7137.00  8.8740272E-01
   7137.33  9.0445418E-01
   7137.67  9.1840138E-01
   7138.00  9.2623033E-01
   7138.33  9.2306004E-01
   7138.67  9.0809754E-01
   7139.00  8.8200799E-01
   7139.33  8.4703158E-01
   7139.67  8.0837057E-01
   7140.00  7.6918157E-01
   7140.33  7.3220876E-01
   7140.67  6.9850607E-01
   7141.00  6.6850409E-01
   7141.33  6.4270052E-01
   7141.67  6.2039513E-01
   7142.00  6.0129468E-01
   7142.33  5.8537387E-01
   7142.67  5.7189639E-01
   7143.00  5.6053930E-01
   7143.33  5.5114415E-01
   7143.67  5.4310705E-01
   7144.00  5.3608460E-01
   7144.33  5.2974394E-01
   7144.67  5.2362388E-01
   7145.00  5.1744000E-01
   7145.33  5.1089451E-01
   7145.67  5.0388442E-01
   7146.00  4.9640807E-01
   7146.33  4.8857601E-01
   7146.67  4.8071310E-01
   7147.00  4.7312700E-01
   7147.33  4.6624062E-01
   7147.67  4.6023488E-01
   7148.00  4.5524927E-01
   7148.33  4.5147874E-01
   7148.67  4.4871848E-01
   7149.00  4.4679231E-01
   7149.33  4.4543755E-01
   7149.67  4.4419144E-01
   7150.00  4.4270395E-01
   7150.33  4.4053174E-01
   7150.67  4.3745628E-01
   7151.00  4.3330442E-01
   7151.33  4.2784313E-01
   7151.67  4.2126223E-01
   7152.00  4.1370086E-01
   7152.33  4.0532818E-01
   7152.67  3.9655233E-01
   7153.00  3.8763886E-01
   7153.33  3.7884785E-01
   7153.67  3.7033360E-01
   7154.00  3.6217508E-01
   7154.33  3.5443412E-01
   7154.67  3.4700967E-01
   7155.00  3.3981638E-01
   7155.33  3.3275385E-01
   7155.67  3.2570797E-01
   7156.00  3.1862361E-01
   7156.33  3.1147581E-01
   7156.67  3.0430658E-01
   7157.00  2.9718341E-01
   7157.33  2.9023430E-01
   7157.67  2.8356431E-01
   7158.00  2.7728056E-01
   7158.33  2.7156100E-01
   7158.67  2.6644439E-01
   7159.00  2.6200735E-01
   7159.33  2.5842776E-01
   7159.67  2.5569265E-01
   7160.00  2.5387588E-01
   7160.33  2.5319797E-01
   7160.67  2.5363253E-01
   7161.00  2.5526203E-01
   7161.33  2.5831903E-01
   7161.67  2.6268176E-01
   7162.00  2.6834487E-01
   7162.33  2.7540445E-01
   7162.67  2.8359467E-01
   7163.00  2.9278458E-01
   7163.33  3.0289269E-01
   7163.67  3.1361364E-01
   7164.00  3.2476749E-01
   7164.33  3.3617856E-01
   7164.67  3.4762749E-01
   7165.00  3.5896468E-01
   7165.33  3.7000130E-01
   7165.67  3.8063528E-01
   7166.00  3.9076519E-01
   7166.33  4.0021375E-01
   7166.67  4.0897213E-01
   7167.00  4.1698138E-01
   7167.33  4.2409004E-01
   7167.67  4.3036665E-01
   7168.00  4.3579986E-01
   7168.33  4.4028872E-01
   7168.67  4.4395857E-01
   7169.00  4.4683785E-01
   7169.33  4.4887722E-01
   7169.67  4.5022491E-01
   7170.00  4.5093737E-01
   7170.33  4.5102530E-01
   7170.67  4.5065794E-01
   7171.00  4.4994001E-01
   7171.33  4.4899505E-01
   7171.67  4.4803276E-01
   7172.00  4.4723342E-01
