    FDMNES
    energy     <xanes>
   7097.00  5.0645772E-03
   7097.33  5.1833994E-03
   7097.67  5.3076477E-03
   7098.00  5.4376926E-03
   7098.33  5.5747955E-03
   7098.67  5.7187041E-03
   7099.00  5.8699244E-03
   7099.33  6.0301088E-03
   7099.67  6.1990002E-03
   7100.00  6.3773071E-03
   7100.33  6.5672517E-03
   7100.67  6.7685969E-03
   7101.00  6.9823668E-03
   7101.33  7.2116415E-03
   7101.67  7.4562612E-03
   7102.00  7.7177601E-03
   7102.33  8.0005671E-03
   7102.67  8.3047248E-03
   7103.00  8.6326346E-03
   7103.33  8.9909552E-03
   7103.67  9.3802148E-03
   7104.00  9.8043791E-03
   7104.33  1.0274030E-02
   7104.67  1.0790854E-02
   7105.00  1.1361856E-02
   7105.33  1.2005085E-02
   7105.67  1.2725115E-02
   7106.00  1.3535449E-02
   7106.33  1.4469881E-02
   7106.67  1.5540832E-02
   7107.00  1.6777602E-02
   7107.33  1.8252210E-02
   7107.67  2.0001612E-02
   7108.00  2.2101198E-02
   7108.33  2.4736901E-02
   7108.67  2.8041832E-02
   7109.00  3.2269016E-02
   7109.33  3.8073488E-02
   7109.67  4.6134014E-02
   7110.00  5.7765086E-02
   7110.33  7.6680636E-02
   7110.67  1.0698083E-01
   7111.00  1.5185534E-01
   7111.33  2.1130753E-01
   7111.67  2.7930687E-01
   7112.00  3.3677511E-01
   7112.33  3.5602956E-01
   7112.67  3.6119109E-01
   7113.00  3.7463393E-01
   7113.33  3.9775623E-01
   7113.67  4.0143813E-01
   7114.00  3.6449026E-01
   7114.33  3.0343789E-01
   7114.67  2.5308730E-01
   7115.00  2.2272848E-01
   7115.33  2.1433467E-01
   7115.67  2.1943070E-01
   7116.00  2.2477256E-01
   7116.33  2.1263463E-01
   7116.67  1.8996776E-01
   7117.00  1.6862938E-01
   7117.33  1.5603159E-01
   7117.67  1.5149865E-01
   7118.00  1.5266396E-01
   7118.33  1.5442569E-01
   7118.67  1.5257980E-01
   7119.00  1.4780803E-01
   7119.33  1.4297893E-01
   7119.67  1.3954768E-01
   7120.00  1.3765580E-01
   7120.33  1.3701114E-01
   7120.67  1.3701484E-01
   7121.00  1.3734597E-01
   7121.33  1.3801365E-01
   7121.67  1.3977907E-01
   7122.00  1.4331141E-01
   7122.33  1.4924117E-01
   7122.67  1.5750413E-01
   7123.00  1.6821536E-01
   7123.33  1.8198788E-01
   7123.67  1.9914886E-01
   7124.00  2.2027650E-01
   7124.33  2.4532640E-01
   7124.67  2.7091917E-01
   7125.00  2.9392956E-01
   7125.33  3.1418099E-01
   7125.67  3.3522217E-01
   7126.00  3.5872419E-01
   7126.33  3.8371541E-01
   7126.67  4.0673824E-01
   7127.00  4.2594628E-01
   7127.33  4.4204063E-01
   7127.67  4.5800903E-01
   7128.00  4.7554369E-01
   7128.33  4.9604046E-01
   7128.67  5.1991237E-01
   7129.00  5.4744416E-01
   7129.33  5.7848701E-01
   7129.67  6.1182139E-01
   7130.00  6.4728287E-01
   7130.33  6.8448032E-01
   7130.67  7.1931914E-01
   7131.00  7.4535602E-01
   7131.33  7.5624338E-01
   7131.67  7.5777353E-01
   7132.00  7.5651275E-01
   7132.33  7.5786611E-01
   7132.67  7.6326262E-01
   7133.00  7.7191786E-01
   7133.33  7.8086839E-01
   7133.67  7.8626271E-01
   7134.00  7.8567099E-01
   7134.33  7.7736448E-01
   7134.67  7.6307562E-01
   7135.00  7.4439961E-01
   7135.33  7.2321701E-01
   7135.67  7.0145338E-01
   7136.00  6.7980554E-01
   7136.33  6.5856754E-01
   7136.67  6.3776224E-01
   7137.00  6.1751447E-01
   7137.33  5.9823435E-01
   7137.67  5.8023096E-01
   7138.00  5.6384403E-01
   7138.33  5.4956093E-01
   7138.67  5.3723362E-01
   7139.00  5.2687195E-01
   7139.33  5.1877092E-01
   7139.67  5.1279643E-01
   7140.00  5.0906736E-01
   7140.33  5.0793692E-01
   7140.67  5.0902080E-01
   7141.00  5.1208231E-01
   7141.33  5.1686881E-01
   7141.67  5.2260482E-01
   7142.00  5.2872216E-01
   7142.33  5.3450683E-01
   7142.67  5.3938064E-01
   7143.00  5.4292896E-01
   7143.33  5.4465435E-01
   7143.67  5.4468345E-01
   7144.00  5.4310566E-01
   7144.33  5.3997113E-01
   7144.67  5.3573959E-01
   7145.00  5.3068365E-01
   7145.33  5.2507910E-01
   7145.67  5.1935101E-01
   7146.00  5.1384051E-01
   7146.33  5.0904706E-01
   7146.67  5.0527430E-01
   7147.00  5.0278691E-01
   7147.33  5.0196313E-01
   7147.67  5.0265904E-01
   7148.00  5.0479988E-01
   7148.33  5.0837597E-01
   7148.67  5.1302240E-01
   7149.00  5.1856263E-01
   7149.33  5.2489382E-01
   7149.67  5.3175355E-01
   7150.00  5.3899328E-01
   7150.33  5.4645859E-01
   7150.67  5.5394371E-01
   7151.00  5.6130324E-01
   7151.33  5.6835753E-01
   7151.67  5.7502483E-01
   7152.00  5.8122672E-01
   7152.33  5.8682123E-01
   7152.67  5.9181473E-01
   7153.00  5.9615851E-01
   7153.33  5.9969919E-01
   7153.67  6.0245496E-01
   7154.00  6.0436875E-01
   7154.33  6.0528405E-01
   7154.67  6.0530543E-01
   7155.00  6.0446863E-01
   7155.33  6.0277101E-01
   7155.67  6.0044741E-01
   7156.00  5.9763874E-01
   7156.33  5.9447219E-01
   7156.67  5.9113364E-01
   7157.00  5.8771561E-01
   7157.33  5.8428129E-01
   7157.67  5.8085683E-01
   7158.00  5.7743878E-01
   7158.33  5.7400442E-01
   7158.67  5.7052792E-01
   7159.00  5.6698756E-01
   7159.33  5.6335505E-01
   7159.67  5.5963324E-01
   7160.00  5.5582634E-01
   7160.33  5.5194331E-01
   7160.67  5.4802334E-01
   7161.00  5.4410127E-01
   7161.33  5.4022875E-01
   7161.67  5.3645104E-01
   7162.00  5.3281280E-01
   7162.33  5.2938521E-01
   7162.67  5.2618387E-01
   7163.00  5.2323404E-01
   7163.33  5.2058951E-01
   7163.67  5.1822525E-01
   7164.00  5.1614186E-01
   7164.33  5.1437006E-01
   7164.67  5.1286823E-01
   7165.00  5.1162876E-01
   7165.33  5.1067305E-01
   7165.67  5.0995602E-01
   7166.00  5.0946078E-01
   7166.33  5.0918229E-01
   7166.67  5.0905378E-01
   7167.00  5.0902723E-01
   7167.33  5.0903576E-01
   7167.67  5.0898765E-01
   7168.00  5.0879691E-01
   7168.33  5.0832322E-01
   7168.67  5.0749159E-01
   7169.00  5.0622099E-01
   7169.33  5.0437301E-01
   7169.67  5.0196838E-01
   7170.00  4.9900193E-01
   7170.33  4.9544689E-01
   7170.67  4.9146149E-01
   7171.00  4.8717497E-01
   7171.33  4.8280358E-01
   7171.67  4.7870307E-01
   7172.00  4.7527675E-01
