    FDMNES
    energy     <xanes>
   7097.00  5.0497740E-03
   7097.33  5.1692777E-03
   7097.67  5.2942689E-03
   7098.00  5.4251236E-03
   7098.33  5.5631197E-03
   7098.67  5.7080036E-03
   7099.00  5.8602888E-03
   7099.33  6.0216505E-03
   7099.67  6.1918304E-03
   7100.00  6.3715483E-03
   7100.33  6.5630579E-03
   7100.67  6.7661222E-03
   7101.00  6.9817817E-03
   7101.33  7.2131626E-03
   7101.67  7.4601069E-03
   7102.00  7.7241743E-03
   7102.33  8.0098628E-03
   7102.67  8.3172211E-03
   7103.00  8.6486918E-03
   7103.33  9.0110422E-03
   7103.67  9.4048167E-03
   7104.00  9.8340513E-03
   7104.33  1.0309509E-02
   7104.67  1.0832917E-02
   7105.00  1.1411412E-02
   7105.33  1.2063369E-02
   7105.67  1.2793473E-02
   7106.00  1.3615498E-02
   7106.33  1.4563910E-02
   7106.67  1.5651451E-02
   7107.00  1.6908098E-02
   7107.33  1.8407539E-02
   7107.67  2.0187869E-02
   7108.00  2.2326655E-02
   7108.33  2.5015420E-02
   7108.67  2.8392703E-02
   7109.00  3.2721885E-02
   7109.33  3.8687155E-02
   7109.67  4.7007743E-02
   7110.00  5.9080604E-02
   7110.33  7.8865983E-02
   7110.67  1.1068783E-01
   7111.00  1.5743685E-01
   7111.33  2.1654194E-01
   7111.67  2.7890206E-01
   7112.00  3.2786943E-01
   7112.33  3.4330866E-01
   7112.67  3.4747372E-01
   7113.00  3.6373628E-01
   7113.33  4.0029845E-01
   7113.67  4.3437789E-01
   7114.00  4.2432825E-01
   7114.33  3.5187393E-01
   7114.67  2.7777445E-01
   7115.00  2.3078670E-01
   7115.33  2.1690550E-01
   7115.67  2.2338976E-01
   7116.00  2.3289153E-01
   7116.33  2.1967154E-01
   7116.67  1.9133456E-01
   7117.00  1.6469050E-01
   7117.33  1.4853550E-01
   7117.67  1.4027137E-01
   7118.00  1.3705511E-01
   7118.33  1.3615536E-01
   7118.67  1.3554031E-01
   7119.00  1.3496338E-01
   7119.33  1.3495542E-01
   7119.67  1.3569117E-01
   7120.00  1.3748032E-01
   7120.33  1.4104025E-01
   7120.67  1.4541229E-01
   7121.00  1.4897789E-01
   7121.33  1.5022798E-01
   7121.67  1.4999781E-01
   7122.00  1.4997261E-01
   7122.33  1.5236146E-01
   7122.67  1.5771697E-01
   7123.00  1.6598238E-01
   7123.33  1.7724086E-01
   7123.67  1.9104575E-01
   7124.00  2.0727015E-01
   7124.33  2.2557304E-01
   7124.67  2.4509615E-01
   7125.00  2.6606908E-01
   7125.33  2.8904363E-01
   7125.67  3.1299316E-01
   7126.00  3.3714925E-01
   7126.33  3.6033497E-01
   7126.67  3.8059634E-01
   7127.00  3.9687659E-01
   7127.33  4.1035302E-01
   7127.67  4.2467844E-01
   7128.00  4.4210987E-01
   7128.33  4.6393648E-01
   7128.67  4.8960983E-01
   7129.00  5.1916809E-01
   7129.33  5.5293046E-01
   7129.67  5.8981274E-01
   7130.00  6.2899744E-01
   7130.33  6.6875174E-01
   7130.67  7.0567767E-01
   7131.00  7.3649344E-01
   7131.33  7.5846522E-01
   7131.67  7.7410546E-01
   7132.00  7.8601583E-01
   7132.33  7.9648479E-01
   7132.67  8.0632603E-01
   7133.00  8.1452995E-01
   7133.33  8.1850305E-01
   7133.67  8.1684681E-01
   7134.00  8.0902433E-01
   7134.33  7.9538636E-01
   7134.67  7.7875041E-01
   7135.00  7.6097802E-01
   7135.33  7.4329925E-01
   7135.67  7.2575476E-01
   7136.00  7.0776691E-01
   7136.33  6.8827902E-01
   7136.67  6.6682345E-01
   7137.00  6.4333595E-01
   7137.33  6.1825358E-01
   7137.67  5.9304978E-01
   7138.00  5.6915520E-01
   7138.33  5.4851432E-01
   7138.67  5.3183910E-01
   7139.00  5.1948337E-01
   7139.33  5.1172896E-01
   7139.67  5.0728862E-01
   7140.00  5.0522677E-01
   7140.33  5.0455272E-01
   7140.67  5.0419971E-01
   7141.00  5.0374125E-01
   7141.33  5.0311848E-01
   7141.67  5.0268429E-01
   7142.00  5.0287875E-01
   7142.33  5.0435719E-01
   7142.67  5.0732753E-01
   7143.00  5.1185935E-01
   7143.33  5.1787714E-01
   7143.67  5.2468318E-01
   7144.00  5.3169405E-01
   7144.33  5.3814707E-01
   7144.67  5.4346079E-01
   7145.00  5.4718371E-01
   7145.33  5.4876208E-01
   7145.67  5.4845463E-01
   7146.00  5.4658263E-01
   7146.33  5.4367061E-01
   7146.67  5.4056392E-01
   7147.00  5.3781131E-01
   7147.33  5.3598323E-01
   7147.67  5.3522970E-01
   7148.00  5.3560528E-01
   7148.33  5.3715375E-01
   7148.67  5.3954881E-01
   7149.00  5.4258580E-01
   7149.33  5.4607526E-01
   7149.67  5.4974350E-01
   7150.00  5.5342713E-01
   7150.33  5.5696543E-01
   7150.67  5.6027924E-01
   7151.00  5.6332253E-01
   7151.33  5.6604181E-01
   7151.67  5.6848771E-01
   7152.00  5.7069141E-01
   7152.33  5.7267765E-01
   7152.67  5.7452809E-01
   7153.00  5.7629674E-01
   7153.33  5.7804744E-01
   7153.67  5.7984806E-01
   7154.00  5.8175250E-01
   7154.33  5.8383707E-01
   7154.67  5.8612492E-01
   7155.00  5.8863579E-01
   7155.33  5.9139095E-01
   7155.67  5.9431793E-01
   7156.00  5.9734247E-01
   7156.33  6.0033479E-01
   7156.67  6.0313899E-01
   7157.00  6.0560419E-01
   7157.33  6.0749139E-01
   7157.67  6.0870818E-01
   7158.00  6.0914691E-01
   7158.33  6.0861446E-01
   7158.67  6.0717907E-01
   7159.00  6.0484066E-01
   7159.33  6.0152351E-01
   7159.67  5.9739717E-01
   7160.00  5.9252899E-01
   7160.33  5.8692776E-01
   7160.67  5.8077608E-01
   7161.00  5.7416847E-01
   7161.33  5.6718299E-01
   7161.67  5.5999024E-01
   7162.00  5.5270178E-01
   7162.33  5.4544841E-01
   7162.67  5.3834782E-01
   7163.00  5.3149658E-01
   7163.33  5.2503472E-01
   7163.67  5.1899328E-01
   7164.00  5.1341548E-01
   7164.33  5.0838678E-01
   7164.67  5.0384268E-01
   7165.00  4.9975971E-01
   7165.33  4.9614270E-01
   7165.67  4.9287972E-01
   7166.00  4.8991396E-01
   7166.33  4.8720671E-01
   7166.67  4.8466554E-01
   7167.00  4.8224145E-01
   7167.33  4.7989345E-01
   7167.67  4.7757280E-01
   7168.00  4.7525414E-01
   7168.33  4.7291669E-01
   7168.67  4.7055519E-01
   7169.00  4.6817200E-01
   7169.33  4.6577697E-01
   7169.67  4.6338920E-01
   7170.00  4.6102747E-01
   7170.33  4.5872346E-01
   7170.67  4.5650025E-01
   7171.00  4.5438807E-01
   7171.33  4.5245339E-01
   7171.67  4.5074919E-01
   7172.00  4.4936345E-01
