    FDMNES
    energy     <xanes>
   7097.00  4.0830727E-03
   7097.33  4.1711761E-03
   7097.67  4.2631649E-03
   7098.00  4.3593147E-03
   7098.33  4.4605483E-03
   7098.67  4.5667033E-03
   7099.00  4.6781658E-03
   7099.33  4.7961689E-03
   7099.67  4.9205618E-03
   7100.00  5.0519034E-03
   7100.33  5.1918961E-03
   7100.67  5.3404332E-03
   7101.00  5.4983545E-03
   7101.33  5.6681037E-03
   7101.67  5.8496894E-03
   7102.00  6.0444314E-03
   7102.33  6.2560050E-03
   7102.67  6.4846943E-03
   7103.00  6.7326885E-03
   7103.33  7.0058387E-03
   7103.67  7.3050811E-03
   7104.00  7.6342961E-03
   7104.33  8.0034786E-03
   7104.67  8.4151696E-03
   7105.00  8.8768430E-03
   7105.33  9.4071779E-03
   7105.67  1.0012970E-02
   7106.00  1.0710263E-02
   7106.33  1.1538359E-02
   7106.67  1.2516764E-02
   7107.00  1.3685377E-02
   7107.33  1.5141664E-02
   7107.67  1.6950585E-02
   7108.00  1.9234854E-02
   7108.33  2.2302559E-02
   7108.67  2.6433336E-02
   7109.00  3.2151013E-02
   7109.33  4.0885182E-02
   7109.67  5.4469170E-02
   7110.00  7.6552343E-02
   7110.33  1.1756839E-01
   7110.67  1.8468127E-01
   7111.00  2.5928992E-01
   7111.33  2.8173513E-01
   7111.67  2.7319113E-01
   7112.00  2.4780074E-01
   7112.33  2.0134817E-01
   7112.67  1.5335769E-01
   7113.00  1.1366972E-01
   7113.33  8.5509034E-02
   7113.67  6.6733083E-02
   7114.00  5.5428505E-02
   7114.33  5.0280446E-02
   7114.67  4.8702656E-02
   7115.00  4.7316370E-02
   7115.33  4.2950159E-02
   7115.67  3.8786273E-02
   7116.00  3.5853694E-02
   7116.33  3.3824635E-02
   7116.67  3.2647991E-02
   7117.00  3.2389665E-02
   7117.33  3.3089598E-02
   7117.67  3.4610338E-02
   7118.00  3.7007012E-02
   7118.33  4.0504165E-02
   7118.67  4.4942768E-02
   7119.00  4.9966194E-02
   7119.33  5.4779099E-02
   7119.67  5.9044190E-02
   7120.00  6.3350094E-02
   7120.33  6.9017351E-02
   7120.67  7.6097179E-02
   7121.00  8.2780189E-02
   7121.33  8.5633823E-02
   7121.67  8.5906015E-02
   7122.00  8.6825697E-02
   7122.33  9.1265471E-02
   7122.67  9.9126403E-02
   7123.00  1.0943845E-01
   7123.33  1.2027986E-01
   7123.67  1.2921482E-01
   7124.00  1.3485406E-01
   7124.33  1.3776876E-01
   7124.67  1.4119232E-01
   7125.00  1.4736774E-01
   7125.33  1.5794210E-01
   7125.67  1.7187049E-01
   7126.00  1.8748819E-01
   7126.33  2.0368480E-01
   7126.67  2.2232612E-01
   7127.00  2.4651529E-01
   7127.33  2.7992161E-01
   7127.67  3.2110403E-01
   7128.00  3.6592302E-01
   7128.33  4.0584393E-01
   7128.67  4.3620333E-01
   7129.00  4.5809372E-01
   7129.33  4.7545044E-01
   7129.67  4.9283657E-01
   7130.00  5.1315987E-01
   7130.33  5.3993276E-01
   7130.67  5.7362973E-01
   7131.00  6.1345407E-01
   7131.33  6.5722380E-01
   7131.67  7.0136045E-01
   7132.00  7.4395217E-01
   7132.33  7.8443242E-01
   7132.67  8.2491553E-01
   7133.00  8.6832487E-01
   7133.33  9.1884399E-01
   7133.67  9.7558084E-01
   7134.00  1.0320354E+00
   7134.33  1.0723345E+00
   7134.67  1.0888417E+00
   7135.00  1.0842245E+00
   7135.33  1.0668109E+00
   7135.67  1.0460474E+00
   7136.00  1.0254288E+00
   7136.33  1.0066285E+00
   7136.67  9.8964248E-01
   7137.00  9.7432211E-01
   7137.33  9.6068928E-01
   7137.67  9.4856819E-01
   7138.00  9.3813384E-01
   7138.33  9.2983588E-01
   7138.67  9.2316033E-01
   7139.00  9.1690667E-01
   7139.33  9.0778514E-01
   7139.67  8.9215910E-01
   7140.00  8.6739700E-01
   7140.33  8.3196489E-01
   7140.67  7.8975256E-01
   7141.00  7.4436729E-01
   7141.33  7.0000311E-01
   7141.67  6.5956730E-01
   7142.00  6.2462350E-01
   7142.33  5.9686205E-01
   7142.67  5.7570829E-01
   7143.00  5.6096872E-01
   7143.33  5.5277945E-01
   7143.67  5.4947419E-01
   7144.00  5.5000724E-01
   7144.33  5.5326316E-01
   7144.67  5.5747144E-01
   7145.00  5.6151278E-01
   7145.33  5.6431710E-01
   7145.67  5.6559750E-01
   7146.00  5.6536747E-01
   7146.33  5.6378280E-01
   7146.67  5.6142995E-01
   7147.00  5.5869081E-01
   7147.33  5.5596260E-01
   7147.67  5.5355424E-01
   7148.00  5.5166013E-01
   7148.33  5.5051245E-01
   7148.67  5.5009999E-01
   7149.00  5.5042612E-01
   7149.33  5.5151979E-01
   7149.67  5.5319504E-01
   7150.00  5.5535063E-01
   7150.33  5.5790259E-01
   7150.67  5.6066993E-01
   7151.00  5.6353247E-01
   7151.33  5.6634728E-01
   7151.67  5.6898863E-01
   7152.00  5.7135361E-01
   7152.33  5.7329115E-01
   7152.67  5.7475329E-01
   7153.00  5.7566377E-01
   7153.33  5.7586833E-01
   7153.67  5.7538552E-01
   7154.00  5.7417711E-01
   7154.33  5.7212036E-01
   7154.67  5.6930042E-01
   7155.00  5.6572708E-01
   7155.33  5.6133439E-01
   7155.67  5.5624694E-01
   7156.00  5.5050005E-01
   7156.33  5.4406298E-01
   7156.67  5.3706009E-01
   7157.00  5.2953237E-01
   7157.33  5.2146633E-01
   7157.67  5.1296580E-01
   7158.00  5.0406742E-01
   7158.33  4.9477354E-01
   7158.67  4.8518274E-01
   7159.00  4.7534650E-01
   7159.33  4.6530991E-01
   7159.67  4.5517401E-01
   7160.00  4.4501236E-01
   7160.33  4.3492124E-01
   7160.67  4.2498674E-01
   7161.00  4.1529158E-01
   7161.33  4.0595243E-01
   7161.67  3.9698705E-01
   7162.00  3.8843420E-01
   7162.33  3.8038289E-01
   7162.67  3.7279938E-01
   7163.00  3.6569525E-01
   7163.33  3.5913762E-01
   7163.67  3.5306581E-01
   7164.00  3.4747415E-01
   7164.33  3.4240487E-01
   7164.67  3.3777379E-01
   7165.00  3.3355130E-01
   7165.33  3.2974356E-01
   7165.67  3.2626260E-01
   7166.00  3.2307539E-01
   7166.33  3.2019194E-01
   7166.67  3.1757464E-01
   7167.00  3.1523690E-01
   7167.33  3.1325523E-01
   7167.67  3.1164917E-01
   7168.00  3.1048116E-01
   7168.33  3.0989165E-01
   7168.67  3.0988422E-01
   7169.00  3.1050018E-01
   7169.33  3.1183824E-01
   7169.67  3.1379928E-01
   7170.00  3.1633722E-01
   7170.33  3.1942789E-01
   7170.67  3.2289169E-01
   7171.00  3.2659798E-01
   7171.33  3.3034811E-01
   7171.67  3.3383790E-01
   7172.00  3.3671990E-01
