    FDMNES
    energy     <xanes>
   7097.00  4.3005215E-03
   7097.33  4.3838945E-03
   7097.67  4.4703601E-03
   7098.00  4.5600981E-03
   7098.33  4.6537762E-03
   7098.67  4.7512109E-03
   7099.00  4.8526416E-03
   7099.33  4.9589156E-03
   7099.67  5.0698394E-03
   7100.00  5.1857416E-03
   7100.33  5.3077257E-03
   7100.67  5.4355994E-03
   7101.00  5.5698286E-03
   7101.33  5.7118992E-03
   7101.67  5.8616444E-03
   7102.00  6.0197533E-03
   7102.33  6.1883098E-03
   7102.67  6.3672298E-03
   7103.00  6.5575855E-03
   7103.33  6.7624531E-03
   7103.67  6.9819664E-03
   7104.00  7.2179020E-03
   7104.33  7.4751094E-03
   7104.67  7.7542745E-03
   7105.00  8.0585884E-03
   7105.33  8.3963779E-03
   7105.67  8.7697863E-03
   7106.00  9.1851800E-03
   7106.33  9.6585928E-03
   7106.67  1.0196402E-02
   7107.00  1.0813263E-02
   7107.33  1.1545412E-02
   7107.67  1.2413707E-02
   7108.00  1.3459634E-02
   7108.33  1.4787052E-02
   7108.67  1.6481355E-02
   7109.00  1.8704445E-02
   7109.33  2.1891474E-02
   7109.67  2.6565714E-02
   7110.00  3.3764863E-02
   7110.33  4.6474377E-02
   7110.67  6.7280768E-02
   7111.00  9.3317372E-02
   7111.33  1.0679225E-01
   7111.67  1.0787446E-01
   7112.00  1.1173486E-01
   7112.33  1.2899850E-01
   7112.67  1.4823505E-01
   7113.00  1.5157191E-01
   7113.33  1.2911097E-01
   7113.67  9.9156598E-02
   7114.00  7.5557557E-02
   7114.33  6.1372136E-02
   7114.67  5.2029880E-02
   7115.00  4.6359250E-02
   7115.33  4.4107581E-02
   7115.67  4.4196469E-02
   7116.00  4.6312705E-02
   7116.33  5.0630983E-02
   7116.67  5.6976207E-02
   7117.00  6.5400528E-02
   7117.33  7.5937769E-02
   7117.67  8.7518388E-02
   7118.00  9.9323832E-02
   7118.33  1.1157347E-01
   7118.67  1.2509241E-01
   7119.00  1.3972618E-01
   7119.33  1.5321684E-01
   7119.67  1.6270374E-01
   7120.00  1.6704997E-01
   7120.33  1.6742287E-01
   7120.67  1.6769500E-01
   7121.00  1.7072058E-01
   7121.33  1.7940896E-01
   7121.67  1.9418286E-01
   7122.00  2.1496729E-01
   7122.33  2.4074422E-01
   7122.67  2.6798507E-01
   7123.00  2.9425690E-01
   7123.33  3.1745897E-01
   7123.67  3.3534074E-01
   7124.00  3.4449641E-01
   7124.33  3.4509831E-01
   7124.67  3.4673664E-01
   7125.00  3.5633580E-01
   7125.33  3.7899414E-01
   7125.67  4.1252807E-01
   7126.00  4.5357702E-01
   7126.33  4.9782161E-01
   7126.67  5.4140539E-01
   7127.00  5.8286777E-01
   7127.33  6.2176260E-01
   7127.67  6.5935509E-01
   7128.00  6.9695936E-01
   7128.33  7.3497889E-01
   7128.67  7.7034005E-01
   7129.00  7.9780959E-01
   7129.33  8.1003862E-01
   7129.67  8.0772905E-01
   7130.00  7.9444505E-01
   7130.33  7.7540676E-01
   7130.67  7.5549912E-01
   7131.00  7.3662696E-01
   7131.33  7.2026581E-01
   7131.67  7.0707368E-01
   7132.00  6.9782715E-01
   7132.33  6.9374445E-01
   7132.67  6.9434213E-01
   7133.00  6.9909367E-01
   7133.33  7.0681907E-01
   7133.67  7.1491542E-01
   7134.00  7.2183633E-01
   7134.33  7.2742417E-01
   7134.67  7.3267322E-01
   7135.00  7.3714281E-01
   7135.33  7.3855461E-01
   7135.67  7.3581941E-01
   7136.00  7.2918252E-01
   7136.33  7.1997718E-01
   7136.67  7.1046711E-01
   7137.00  7.0200436E-01
   7137.33  6.9575968E-01
   7137.67  6.9178578E-01
   7138.00  6.8998431E-01
   7138.33  6.9022801E-01
   7138.67  6.9181305E-01
   7139.00  6.9430018E-01
   7139.33  6.9722544E-01
   7139.67  7.0003403E-01
   7140.00  7.0228642E-01
   7140.33  7.0332077E-01
   7140.67  7.0275469E-01
   7141.00  7.0019736E-01
   7141.33  6.9504745E-01
   7141.67  6.8749511E-01
   7142.00  6.7762892E-01
   7142.33  6.6543019E-01
   7142.67  6.5147352E-01
   7143.00  6.3605186E-01
   7143.33  6.1936205E-01
   7143.67  6.0185784E-01
   7144.00  5.8377765E-01
   7144.33  5.6532232E-01
   7144.67  5.4675666E-01
   7145.00  5.2828077E-01
   7145.33  5.1021030E-01
   7145.67  4.9282663E-01
   7146.00  4.7645189E-01
   7146.33  4.6165931E-01
   7146.67  4.4864525E-01
   7147.00  4.3766452E-01
   7147.33  4.2916818E-01
   7147.67  4.2289834E-01
   7148.00  4.1874497E-01
   7148.33  4.1668761E-01
   7148.67  4.1615505E-01
   7149.00  4.1682945E-01
   7149.33  4.1843739E-01
   7149.67  4.2051653E-01
   7150.00  4.2280230E-01
   7150.33  4.2503084E-01
   7150.67  4.2697412E-01
   7151.00  4.2845250E-01
   7151.33  4.2921155E-01
   7151.67  4.2918846E-01
   7152.00  4.2828402E-01
   7152.33  4.2629495E-01
   7152.67  4.2329960E-01
   7153.00  4.1929573E-01
   7153.33  4.1420628E-01
   7153.67  4.0825148E-01
   7154.00  4.0156103E-01
   7154.33  3.9425882E-01
   7154.67  3.8662780E-01
   7155.00  3.7885199E-01
   7155.33  3.7113545E-01
   7155.67  3.6363727E-01
   7156.00  3.5646538E-01
   7156.33  3.4975314E-01
   7156.67  3.4348958E-01
   7157.00  3.3768140E-01
   7157.33  3.3236393E-01
   7157.67  3.2744236E-01
   7158.00  3.2287460E-01
   7158.33  3.1865106E-01
   7158.67  3.1469625E-01
   7159.00  3.1098980E-01
   7159.33  3.0755564E-01
   7159.67  3.0437955E-01
   7160.00  3.0149377E-01
   7160.33  2.9899963E-01
   7160.67  2.9692780E-01
   7161.00  2.9535130E-01
   7161.33  2.9443682E-01
   7161.67  2.9420508E-01
   7162.00  2.9473009E-01
   7162.33  2.9619074E-01
   7162.67  2.9854312E-01
   7163.00  3.0182368E-01
   7163.33  3.0616964E-01
   7163.67  3.1145052E-01
   7164.00  3.1762911E-01
   7164.33  3.2473528E-01
   7164.67  3.3256541E-01
   7165.00  3.4101765E-01
   7165.33  3.5002687E-01
   7165.67  3.5940336E-01
   7166.00  3.6904164E-01
   7166.33  3.7884692E-01
   7166.67  3.8869884E-01
   7167.00  3.9851901E-01
   7167.33  4.0821233E-01
   7167.67  4.1772076E-01
   7168.00  4.2698672E-01
   7168.33  4.3591076E-01
   7168.67  4.4447855E-01
   7169.00  4.5265301E-01
   7169.33  4.6034630E-01
   7169.67  4.6758472E-01
   7170.00  4.7434846E-01
   7170.33  4.8055373E-01
   7170.67  4.8623776E-01
   7171.00  4.9137200E-01
   7171.33  4.9583084E-01
   7171.67  4.9960354E-01
   7172.00  5.0258890E-01
