    FDMNES
    energy     <xanes>
   7097.00  4.4437299E-03
   7097.33  4.5294009E-03
   7097.67  4.6182201E-03
   7098.00  4.7103681E-03
   7098.33  4.8065202E-03
   7098.67  4.9064860E-03
   7099.00  5.0105051E-03
   7099.33  5.1194313E-03
   7099.67  5.2330630E-03
   7100.00  5.3517275E-03
   7100.33  5.4765326E-03
   7100.67  5.6072760E-03
   7101.00  5.7444198E-03
   7101.33  5.8894489E-03
   7101.67  6.0421838E-03
   7102.00  6.2033050E-03
   7102.33  6.3748848E-03
   7102.67  6.5568216E-03
   7103.00  6.7501694E-03
   7103.33  6.9579719E-03
   7103.67  7.1803350E-03
   7104.00  7.4189983E-03
   7104.33  7.6787334E-03
   7104.67  7.9601754E-03
   7105.00  8.2664341E-03
   7105.33  8.6056537E-03
   7105.67  8.9798637E-03
   7106.00  9.3952313E-03
   7106.33  9.8673232E-03
   7106.67  1.0402188E-02
   7107.00  1.1013890E-02
   7107.33  1.1737210E-02
   7107.67  1.2591712E-02
   7108.00  1.3616507E-02
   7108.33  1.4909140E-02
   7108.67  1.6547438E-02
   7109.00  1.8678559E-02
   7109.33  2.1693288E-02
   7109.67  2.6043089E-02
   7110.00  3.2615966E-02
   7110.33  4.3987477E-02
   7110.67  6.2972005E-02
   7111.00  9.0180518E-02
   7111.33  1.1415812E-01
   7111.67  1.2469146E-01
   7112.00  1.3208018E-01
   7112.33  1.4378596E-01
   7112.67  1.4011360E-01
   7113.00  1.1412485E-01
   7113.33  8.6693541E-02
   7113.67  6.8203200E-02
   7114.00  5.6530087E-02
   7114.33  4.8923904E-02
   7114.67  4.4141425E-02
   7115.00  4.1804438E-02
   7115.33  4.1554879E-02
   7115.67  4.2847328E-02
   7116.00  4.5687899E-02
   7116.33  5.0599567E-02
   7116.67  5.7914492E-02
   7117.00  6.8241163E-02
   7117.33  8.2469943E-02
   7117.67  9.9626306E-02
   7118.00  1.1826783E-01
   7118.33  1.3633487E-01
   7118.67  1.5236982E-01
   7119.00  1.6532752E-01
   7119.33  1.7352701E-01
   7119.67  1.7717852E-01
   7120.00  1.7754000E-01
   7120.33  1.7754373E-01
   7120.67  1.8027767E-01
   7121.00  1.8761164E-01
   7121.33  2.0161845E-01
   7121.67  2.2225733E-01
   7122.00  2.4950868E-01
   7122.33  2.8252046E-01
   7122.67  3.1730997E-01
   7123.00  3.5084590E-01
   7123.33  3.8152603E-01
   7123.67  4.1019945E-01
   7124.00  4.3600766E-01
   7124.33  4.5445861E-01
   7124.67  4.6439509E-01
   7125.00  4.6966857E-01
   7125.33  4.7924183E-01
   7125.67  4.9794232E-01
   7126.00  5.2550231E-01
   7126.33  5.6029781E-01
   7126.67  5.9985092E-01
   7127.00  6.4281455E-01
   7127.33  6.8648233E-01
   7127.67  7.2674256E-01
   7128.00  7.6013601E-01
   7128.33  7.8277771E-01
   7128.67  7.9488007E-01
   7129.00  7.9648203E-01
   7129.33  7.8733775E-01
   7129.67  7.7127062E-01
   7130.00  7.5195645E-01
   7130.33  7.3381654E-01
   7130.67  7.1903244E-01
   7131.00  7.0778735E-01
   7131.33  6.9970028E-01
   7131.67  6.9377031E-01
   7132.00  6.8986482E-01
   7132.33  6.8845894E-01
   7132.67  6.8946151E-01
   7133.00  6.9283035E-01
   7133.33  6.9863150E-01
   7133.67  7.0623387E-01
   7134.00  7.1475529E-01
   7134.33  7.2186986E-01
   7134.67  7.2547818E-01
   7135.00  7.2501849E-01
   7135.33  7.2111275E-01
   7135.67  7.1560943E-01
   7136.00  7.0945161E-01
   7136.33  7.0336695E-01
   7136.67  6.9786146E-01
   7137.00  6.9329464E-01
   7137.33  6.9013831E-01
   7137.67  6.8838419E-01
   7138.00  6.8798789E-01
   7138.33  6.8882408E-01
   7138.67  6.9028290E-01
   7139.00  6.9182181E-01
   7139.33  6.9266356E-01
   7139.67  6.9222283E-01
   7140.00  6.9004061E-01
   7140.33  6.8552167E-01
   7140.67  6.7883513E-01
   7141.00  6.7008143E-01
   7141.33  6.5929493E-01
   7141.67  6.4704536E-01
   7142.00  6.3364715E-01
   7142.33  6.1934384E-01
   7142.67  6.0452550E-01
   7143.00  5.8938341E-01
   7143.33  5.7404944E-01
   7143.67  5.5863832E-01
   7144.00  5.4320615E-01
   7144.33  5.2783077E-01
   7144.67  5.1261615E-01
   7145.00  4.9770349E-01
   7145.33  4.8337598E-01
   7145.67  4.6982359E-01
   7146.00  4.5726569E-01
   7146.33  4.4606852E-01
   7146.67  4.3621718E-01
   7147.00  4.2774831E-01
   7147.33  4.2077245E-01
   7147.67  4.1497665E-01
   7148.00  4.1018139E-01
   7148.33  4.0625216E-01
   7148.67  4.0289257E-01
   7149.00  3.9997282E-01
   7149.33  3.9743159E-01
   7149.67  3.9516348E-01
   7150.00  3.9313048E-01
   7150.33  3.9131075E-01
   7150.67  3.8961898E-01
   7151.00  3.8798391E-01
   7151.33  3.8629571E-01
   7151.67  3.8444739E-01
   7152.00  3.8234543E-01
   7152.33  3.7984164E-01
   7152.67  3.7689286E-01
   7153.00  3.7345300E-01
   7153.33  3.6945440E-01
   7153.67  3.6500873E-01
   7154.00  3.6020458E-01
   7154.33  3.5516757E-01
   7154.67  3.5010608E-01
   7155.00  3.4518184E-01
   7155.33  3.4060609E-01
   7155.67  3.3647537E-01
   7156.00  3.3286581E-01
   7156.33  3.2988416E-01
   7156.67  3.2744618E-01
   7157.00  3.2550574E-01
   7157.33  3.2403231E-01
   7157.67  3.2287350E-01
   7158.00  3.2193883E-01
   7158.33  3.2114448E-01
   7158.67  3.2039274E-01
   7159.00  3.1963406E-01
   7159.33  3.1883671E-01
   7159.67  3.1801355E-01
   7160.00  3.1720164E-01
   7160.33  3.1648708E-01
   7160.67  3.1596157E-01
   7161.00  3.1572712E-01
   7161.33  3.1596206E-01
   7161.67  3.1673361E-01
   7162.00  3.1812900E-01
   7162.33  3.2031667E-01
   7162.67  3.2326239E-01
   7163.00  3.2699007E-01
   7163.33  3.3160127E-01
   7163.67  3.3697846E-01
   7164.00  3.4309093E-01
   7164.33  3.4997664E-01
   7164.67  3.5749241E-01
   7165.00  3.6558436E-01
   7165.33  3.7425115E-01
   7165.67  3.8336143E-01
   7166.00  3.9285329E-01
   7166.33  4.0268856E-01
   7166.67  4.1275180E-01
   7167.00  4.2297669E-01
   7167.33  4.3329755E-01
   7167.67  4.4362839E-01
   7168.00  4.5390465E-01
   7168.33  4.6403532E-01
   7168.67  4.7396216E-01
   7169.00  4.8362178E-01
   7169.33  4.9289979E-01
   7169.67  5.0176840E-01
   7170.00  5.1016829E-01
   7170.33  5.1796443E-01
   7170.67  5.2515532E-01
   7171.00  5.3167770E-01
   7171.33  5.3734820E-01
   7171.67  5.4213792E-01
   7172.00  5.4591512E-01
