    FDMNES
    energy     <xanes>
   7097.00  4.3834533E-03
   7097.33  4.4669286E-03
   7097.67  4.5534305E-03
   7098.00  4.6431310E-03
   7098.33  4.7366763E-03
   7098.67  4.8338806E-03
   7099.00  4.9349716E-03
   7099.33  5.0407641E-03
   7099.67  5.1510619E-03
   7100.00  5.2661749E-03
   7100.33  5.3871583E-03
   7100.67  5.5138143E-03
   7101.00  5.6465800E-03
   7101.33  5.7868667E-03
   7101.67  5.9344976E-03
   7102.00  6.0901155E-03
   7102.33  6.2556865E-03
   7102.67  6.4311065E-03
   7103.00  6.6173713E-03
   7103.33  6.8173644E-03
   7103.67  7.0311784E-03
   7104.00  7.2604578E-03
   7104.33  7.5097220E-03
   7104.67  7.7795690E-03
   7105.00  8.0729461E-03
   7105.33  8.3975814E-03
   7105.67  8.7554156E-03
   7106.00  9.1523289E-03
   7106.33  9.6031729E-03
   7106.67  1.0113814E-02
   7107.00  1.0697820E-02
   7107.33  1.1388786E-02
   7107.67  1.2206090E-02
   7108.00  1.3188323E-02
   7108.33  1.4432240E-02
   7108.67  1.6017896E-02
   7109.00  1.8097244E-02
   7109.33  2.1079863E-02
   7109.67  2.5462403E-02
   7110.00  3.2229487E-02
   7110.33  4.4169429E-02
   7110.67  6.3190299E-02
   7111.00  8.4730186E-02
   7111.33  9.5353292E-02
   7111.67  1.0560374E-01
   7112.00  1.2408780E-01
   7112.33  1.4020987E-01
   7112.67  1.3329592E-01
   7113.00  1.0561731E-01
   7113.33  7.9851566E-02
   7113.67  6.3218143E-02
   7114.00  5.2976675E-02
   7114.33  4.6306619E-02
   7114.67  4.2258235E-02
   7115.00  4.0559547E-02
   7115.33  4.0924624E-02
   7115.67  4.2896839E-02
   7116.00  4.6551508E-02
   7116.33  5.2479756E-02
   7116.67  6.0923513E-02
   7117.00  7.2234436E-02
   7117.33  8.6670601E-02
   7117.67  1.0290607E-01
   7118.00  1.1955539E-01
   7118.33  1.3489912E-01
   7118.67  1.4776250E-01
   7119.00  1.5708762E-01
   7119.33  1.6164755E-01
   7119.67  1.6279736E-01
   7120.00  1.6255653E-01
   7120.33  1.6392468E-01
   7120.67  1.6896779E-01
   7121.00  1.7889993E-01
   7121.33  1.9533158E-01
   7121.67  2.1805883E-01
   7122.00  2.4684434E-01
   7122.33  2.8008631E-01
   7122.67  3.1330092E-01
   7123.00  3.4345243E-01
   7123.33  3.6912019E-01
   7123.67  3.9130135E-01
   7124.00  4.0930465E-01
   7124.33  4.2092981E-01
   7124.67  4.2841808E-01
   7125.00  4.3641054E-01
   7125.33  4.5094150E-01
   7125.67  4.7271809E-01
   7126.00  5.0092816E-01
   7126.33  5.3599345E-01
   7126.67  5.7667133E-01
   7127.00  6.2062299E-01
   7127.33  6.6277070E-01
   7127.67  6.9867500E-01
   7128.00  7.2641490E-01
   7128.33  7.4500201E-01
   7128.67  7.5602214E-01
   7129.00  7.5936105E-01
   7129.33  7.5437770E-01
   7129.67  7.4464010E-01
   7130.00  7.3392905E-01
   7130.33  7.2614664E-01
   7130.67  7.2197885E-01
   7131.00  7.2063657E-01
   7131.33  7.2073729E-01
   7131.67  7.2072850E-01
   7132.00  7.1984127E-01
   7132.33  7.1763857E-01
   7132.67  7.1436286E-01
   7133.00  7.1023790E-01
   7133.33  7.0607819E-01
   7133.67  7.0359946E-01
   7134.00  7.0424674E-01
   7134.33  7.0828958E-01
   7134.67  7.1280650E-01
   7135.00  7.1511548E-01
   7135.33  7.1331348E-01
   7135.67  7.0852849E-01
   7136.00  7.0213894E-01
   7136.33  6.9573983E-01
   7136.67  6.9055504E-01
   7137.00  6.8726861E-01
   7137.33  6.8652584E-01
   7137.67  6.8796709E-01
   7138.00  6.9123825E-01
   7138.33  6.9585440E-01
   7138.67  7.0091700E-01
   7139.00  7.0577634E-01
   7139.33  7.0962908E-01
   7139.67  7.1200798E-01
   7140.00  7.1252061E-01
   7140.33  7.1057491E-01
   7140.67  7.0628523E-01
   7141.00  6.9964082E-01
   7141.33  6.9047319E-01
   7141.67  6.7927349E-01
   7142.00  6.6627455E-01
   7142.33  6.5159775E-01
   7142.67  6.3575093E-01
   7143.00  6.1899830E-01
   7143.33  6.0155825E-01
   7143.67  5.8379517E-01
   7144.00  5.6594863E-01
   7144.33  5.4830936E-01
   7144.67  5.3111061E-01
   7145.00  5.1456127E-01
   7145.33  4.9899390E-01
   7145.67  4.8449435E-01
   7146.00  4.7120027E-01
   7146.33  4.5939459E-01
   7146.67  4.4897864E-01
   7147.00  4.3996713E-01
   7147.33  4.3249794E-01
   7147.67  4.2631235E-01
   7148.00  4.2129932E-01
   7148.33  4.1742336E-01
   7148.67  4.1437544E-01
   7149.00  4.1199163E-01
   7149.33  4.1013895E-01
   7149.67  4.0857364E-01
   7150.00  4.0714700E-01
   7150.33  4.0569495E-01
   7150.67  4.0408580E-01
   7151.00  4.0224548E-01
   7151.33  4.0009017E-01
   7151.67  3.9762199E-01
   7152.00  3.9481742E-01
   7152.33  3.9161534E-01
   7152.67  3.8805347E-01
   7153.00  3.8413266E-01
   7153.33  3.7982923E-01
   7153.67  3.7523125E-01
   7154.00  3.7039940E-01
   7154.33  3.6540971E-01
   7154.67  3.6039323E-01
   7155.00  3.5545545E-01
   7155.33  3.5074164E-01
   7155.67  3.4633302E-01
   7156.00  3.4230068E-01
   7156.33  3.3874936E-01
   7156.67  3.3563703E-01
   7157.00  3.3294219E-01
   7157.33  3.3065662E-01
   7157.67  3.2866009E-01
   7158.00  3.2687929E-01
   7158.33  3.2524522E-01
   7158.67  3.2366811E-01
   7159.00  3.2210336E-01
   7159.33  3.2052719E-01
   7159.67  3.1895600E-01
   7160.00  3.1743512E-01
   7160.33  3.1607343E-01
   7160.67  3.1498012E-01
   7161.00  3.1427963E-01
   7161.33  3.1418662E-01
   7161.67  3.1476881E-01
   7162.00  3.1612304E-01
   7162.33  3.1843919E-01
   7162.67  3.2165697E-01
   7163.00  3.2578781E-01
   7163.33  3.3092803E-01
   7163.67  3.3692212E-01
   7164.00  3.4371453E-01
   7164.33  3.5131383E-01
   7164.67  3.5953635E-01
   7165.00  3.6829457E-01
   7165.33  3.7753649E-01
   7165.67  3.8710201E-01
   7166.00  3.9690230E-01
   7166.33  4.0685842E-01
   7166.67  4.1686716E-01
   7167.00  4.2686415E-01
   7167.33  4.3677754E-01
   7167.67  4.4656674E-01
   7168.00  4.5619649E-01
   7168.33  4.6560728E-01
   7168.67  4.7479078E-01
   7169.00  4.8371775E-01
   7169.33  4.9231200E-01
   7169.67  5.0055969E-01
   7170.00  5.0840661E-01
   7170.33  5.1572144E-01
   7170.67  5.2248247E-01
   7171.00  5.2861313E-01
   7171.33  5.3392151E-01
   7171.67  5.3837802E-01
   7172.00  5.4187194E-01
