    FDMNES
    energy     <xanes>
   7097.00  4.3002326E-03
   7097.33  4.3921811E-03
   7097.67  4.4880678E-03
   7098.00  4.5881611E-03
   7098.33  4.6933769E-03
   7098.67  4.8035348E-03
   7099.00  4.9190060E-03
   7099.33  5.0410003E-03
   7099.67  5.1693419E-03
   7100.00  5.3045612E-03
   7100.33  5.4483059E-03
   7100.67  5.6004323E-03
   7101.00  5.7617261E-03
   7101.33  5.9345166E-03
   7101.67  6.1187512E-03
   7102.00  6.3156458E-03
   7102.33  6.5286435E-03
   7102.67  6.7579167E-03
   7103.00  7.0054474E-03
   7103.33  7.2766110E-03
   7103.67  7.5721162E-03
   7104.00  7.8954074E-03
   7104.33  8.2554656E-03
   7104.67  8.6543108E-03
   7105.00  9.0984286E-03
   7105.33  9.6041747E-03
   7105.67  1.0176996E-02
   7106.00  1.0830437E-02
   7106.33  1.1597859E-02
   7106.67  1.2494695E-02
   7107.00  1.3553488E-02
   7107.33  1.4853755E-02
   7107.67  1.6445366E-02
   7108.00  1.8423831E-02
   7108.33  2.1027287E-02
   7108.67  2.4459611E-02
   7109.00  2.9101960E-02
   7109.33  3.5976280E-02
   7109.67  4.6320492E-02
   7110.00  6.2576021E-02
   7110.33  9.1811418E-02
   7110.67  1.4101228E-01
   7111.00  2.0825237E-01
   7111.33  2.6311922E-01
   7111.67  2.8265805E-01
   7112.00  2.6466614E-01
   7112.33  2.1726867E-01
   7112.67  1.6603208E-01
   7113.00  1.2791645E-01
   7113.33  1.0704282E-01
   7113.67  9.6991904E-02
   7114.00  9.4058454E-02
   7114.33  9.3216495E-02
   7114.67  8.7073311E-02
   7115.00  7.4473928E-02
   7115.33  6.1324455E-02
   7115.67  5.1505020E-02
   7116.00  4.5104642E-02
   7116.33  4.1410636E-02
   7116.67  3.9247936E-02
   7117.00  3.8103783E-02
   7117.33  3.7667862E-02
   7117.67  3.7687576E-02
   7118.00  3.8138435E-02
   7118.33  3.9057443E-02
   7118.67  4.0339041E-02
   7119.00  4.1951354E-02
   7119.33  4.3965307E-02
   7119.67  4.6429064E-02
   7120.00  4.9471198E-02
   7120.33  5.3396388E-02
   7120.67  5.8354887E-02
   7121.00  6.4560975E-02
   7121.33  7.2382286E-02
   7121.67  8.1657353E-02
   7122.00  9.2235418E-02
   7122.33  1.0421954E-01
   7122.67  1.1799808E-01
   7123.00  1.3442895E-01
   7123.33  1.5480883E-01
   7123.67  1.7893325E-01
   7124.00  2.0655535E-01
   7124.33  2.3830056E-01
   7124.67  2.7505334E-01
   7125.00  3.1706845E-01
   7125.33  3.6038591E-01
   7125.67  3.9850670E-01
   7126.00  4.2868970E-01
   7126.33  4.5086444E-01
   7126.67  4.6829216E-01
   7127.00  4.8255607E-01
   7127.33  4.9713498E-01
   7127.67  5.1806307E-01
   7128.00  5.4918881E-01
   7128.33  5.9230967E-01
   7128.67  6.4310413E-01
   7129.00  6.9700089E-01
   7129.33  7.4734210E-01
   7129.67  7.8903664E-01
   7130.00  8.1888500E-01
   7130.33  8.3536870E-01
   7130.67  8.4427066E-01
   7131.00  8.5001266E-01
   7131.33  8.5523175E-01
   7131.67  8.5972656E-01
   7132.00  8.6183504E-01
   7132.33  8.5843899E-01
   7132.67  8.4846387E-01
   7133.00  8.3236437E-01
   7133.33  8.1256600E-01
   7133.67  7.9317829E-01
   7134.00  7.7696695E-01
   7134.33  7.6706809E-01
   7134.67  7.6409827E-01
   7135.00  7.6795942E-01
   7135.33  7.7759592E-01
   7135.67  7.8921236E-01
   7136.00  7.9958558E-01
   7136.33  8.0529667E-01
   7136.67  8.0599812E-01
   7137.00  8.0240372E-01
   7137.33  7.9562195E-01
   7137.67  7.8726997E-01
   7138.00  7.7800986E-01
   7138.33  7.6811163E-01
   7138.67  7.5770721E-01
   7139.00  7.4676221E-01
   7139.33  7.3517735E-01
   7139.67  7.2307332E-01
   7140.00  7.1057475E-01
   7140.33  6.9789441E-01
   7140.67  6.8535388E-01
   7141.00  6.7323952E-01
   7141.33  6.6197832E-01
   7141.67  6.5177858E-01
   7142.00  6.4286662E-01
   7142.33  6.3562880E-01
   7142.67  6.2998713E-01
   7143.00  6.2596277E-01
   7143.33  6.2368042E-01
   7143.67  6.2275981E-01
   7144.00  6.2293520E-01
   7144.33  6.2385495E-01
   7144.67  6.2489520E-01
   7145.00  6.2555653E-01
   7145.33  6.2519357E-01
   7145.67  6.2354090E-01
   7146.00  6.2044350E-01
   7146.33  6.1573433E-01
   7146.67  6.0975017E-01
   7147.00  6.0267960E-01
   7147.33  5.9464000E-01
   7147.67  5.8593751E-01
   7148.00  5.7670622E-01
   7148.33  5.6700962E-01
   7148.67  5.5698950E-01
   7149.00  5.4671725E-01
   7149.33  5.3625053E-01
   7149.67  5.2567882E-01
   7150.00  5.1505351E-01
   7150.33  5.0443112E-01
   7150.67  4.9387018E-01
   7151.00  4.8342686E-01
   7151.33  4.7319605E-01
   7151.67  4.6323170E-01
   7152.00  4.5360434E-01
   7152.33  4.4444880E-01
   7152.67  4.3578834E-01
   7153.00  4.2767474E-01
   7153.33  4.2021349E-01
   7153.67  4.1332218E-01
   7154.00  4.0695086E-01
   7154.33  4.0105300E-01
   7154.67  3.9544608E-01
   7155.00  3.8999810E-01
   7155.33  3.8455098E-01
   7155.67  3.7896997E-01
   7156.00  3.7316137E-01
   7156.33  3.6700353E-01
   7156.67  3.6048401E-01
   7157.00  3.5358642E-01
   7157.33  3.4627883E-01
   7157.67  3.3865499E-01
   7158.00  3.3078202E-01
   7158.33  3.2274560E-01
   7158.67  3.1468606E-01
   7159.00  3.0671230E-01
   7159.33  2.9897533E-01
   7159.67  2.9156880E-01
   7160.00  2.8459238E-01
   7160.33  2.7823034E-01
   7160.67  2.7253598E-01
   7161.00  2.6762044E-01
   7161.33  2.6373239E-01
   7161.67  2.6088662E-01
   7162.00  2.5917887E-01
   7162.33  2.5885021E-01
   7162.67  2.5979251E-01
   7163.00  2.6200377E-01
   7163.33  2.6558759E-01
   7163.67  2.7028993E-01
   7164.00  2.7598402E-01
   7164.33  2.8258631E-01
   7164.67  2.8978659E-01
   7165.00  2.9739906E-01
   7165.33  3.0524320E-01
   7165.67  3.1311282E-01
   7166.00  3.2088124E-01
   7166.33  3.2841173E-01
   7166.67  3.3565956E-01
   7167.00  3.4259052E-01
   7167.33  3.4914623E-01
   7167.67  3.5537038E-01
   7168.00  3.6127676E-01
   7168.33  3.6685500E-01
   7168.67  3.7217337E-01
   7169.00  3.7726060E-01
   7169.33  3.8212459E-01
   7169.67  3.8681813E-01
   7170.00  3.9135776E-01
   7170.33  3.9573172E-01
   7170.67  3.9994589E-01
   7171.00  4.0396777E-01
   7171.33  4.0768611E-01
   7171.67  4.1098614E-01
   7172.00  4.1367549E-01
