    FDMNES
    energy     <xanes>
   7097.00  5.3817909E-03
   7097.33  5.5205884E-03
   7097.67  5.6661257E-03
   7098.00  5.8188768E-03
   7098.33  5.9804304E-03
   7098.67  6.1504893E-03
   7099.00  6.3297013E-03
   7099.33  6.5201565E-03
   7099.67  6.7215519E-03
   7100.00  6.9347949E-03
   7100.33  7.1627038E-03
   7100.67  7.4050003E-03
   7101.00  7.6629928E-03
   7101.33  7.9405928E-03
   7101.67  8.2376144E-03
   7102.00  8.5560099E-03
   7102.33  8.9013967E-03
   7102.67  9.2738298E-03
   7103.00  9.6763442E-03
   7103.33  1.0117349E-02
   7103.67  1.0597473E-02
   7104.00  1.1121676E-02
   7104.33  1.1703211E-02
   7104.67  1.2344062E-02
   7105.00  1.3052863E-02
   7105.33  1.3851924E-02
   7105.67  1.4746557E-02
   7106.00  1.5753089E-02
   7106.33  1.6912527E-02
   7106.67  1.8239090E-02
   7107.00  1.9767398E-02
   7107.33  2.1582783E-02
   7107.67  2.3727017E-02
   7108.00  2.6287107E-02
   7108.33  2.9478132E-02
   7108.67  3.3450183E-02
   7109.00  3.8492324E-02
   7109.33  4.5357868E-02
   7109.67  5.4835625E-02
   7110.00  6.8473246E-02
   7110.33  9.0658298E-02
   7110.67  1.2568913E-01
   7111.00  1.7318950E-01
   7111.33  2.1457519E-01
   7111.67  2.4662891E-01
   7112.00  2.9408856E-01
   7112.33  3.7975321E-01
   7112.67  4.9337894E-01
   7113.00  6.2267807E-01
   7113.33  7.4246343E-01
   7113.67  7.9284227E-01
   7114.00  7.3492231E-01
   7114.33  6.0660284E-01
   7114.67  4.8425656E-01
   7115.00  3.8988202E-01
   7115.33  3.2607334E-01
   7115.67  2.8161079E-01
   7116.00  2.5041217E-01
   7116.33  2.2844463E-01
   7116.67  2.1171817E-01
   7117.00  1.9865032E-01
   7117.33  1.8776181E-01
   7117.67  1.7763211E-01
   7118.00  1.6788726E-01
   7118.33  1.5823366E-01
   7118.67  1.4867242E-01
   7119.00  1.3985642E-01
   7119.33  1.3286129E-01
   7119.67  1.2775185E-01
   7120.00  1.2434065E-01
   7120.33  1.2246252E-01
   7120.67  1.2153033E-01
   7121.00  1.2113637E-01
   7121.33  1.2090139E-01
   7121.67  1.2045647E-01
   7122.00  1.1969964E-01
   7122.33  1.1906330E-01
   7122.67  1.1907428E-01
   7123.00  1.1992999E-01
   7123.33  1.2175398E-01
   7123.67  1.2440677E-01
   7124.00  1.2780564E-01
   7124.33  1.3156222E-01
   7124.67  1.3495698E-01
   7125.00  1.3822076E-01
   7125.33  1.4287633E-01
   7125.67  1.4970240E-01
   7126.00  1.5900306E-01
   7126.33  1.7134941E-01
   7126.67  1.8660016E-01
   7127.00  2.0498613E-01
   7127.33  2.2749839E-01
   7127.67  2.5420172E-01
   7128.00  2.8495406E-01
   7128.33  3.1876242E-01
   7128.67  3.5317282E-01
   7129.00  3.8691449E-01
   7129.33  4.2001819E-01
   7129.67  4.5365118E-01
   7130.00  4.8875566E-01
   7130.33  5.2684442E-01
   7130.67  5.6907899E-01
   7131.00  6.1677158E-01
   7131.33  6.7167085E-01
   7131.67  7.3239344E-01
   7132.00  7.9639830E-01
   7132.33  8.5757686E-01
   7132.67  9.0868830E-01
   7133.00  9.4432817E-01
   7133.33  9.6014869E-01
   7133.67  9.6078120E-01
   7134.00  9.5007591E-01
   7134.33  9.3154902E-01
   7134.67  9.0967796E-01
   7135.00  8.8682901E-01
   7135.33  8.6454790E-01
   7135.67  8.4252524E-01
   7136.00  8.1944901E-01
   7136.33  7.9319671E-01
   7136.67  7.6320724E-01
   7137.00  7.2981418E-01
   7137.33  6.9427859E-01
   7137.67  6.5894438E-01
   7138.00  6.2564207E-01
   7138.33  5.9665396E-01
   7138.67  5.7278421E-01
   7139.00  5.5468097E-01
   7139.33  5.4333117E-01
   7139.67  5.3770735E-01
   7140.00  5.3722421E-01
   7140.33  5.4142938E-01
   7140.67  5.4867134E-01
   7141.00  5.5798547E-01
   7141.33  5.6851058E-01
   7141.67  5.7932575E-01
   7142.00  5.8994411E-01
   7142.33  5.9993355E-01
   7142.67  6.0918159E-01
   7143.00  6.1763563E-01
   7143.33  6.2521280E-01
   7143.67  6.3206559E-01
   7144.00  6.3824785E-01
   7144.33  6.4373296E-01
   7144.67  6.4862523E-01
   7145.00  6.5292587E-01
   7145.33  6.5653834E-01
   7145.67  6.5950331E-01
   7146.00  6.6178444E-01
   7146.33  6.6325070E-01
   7146.67  6.6396119E-01
   7147.00  6.6390116E-01
   7147.33  6.6297710E-01
   7147.67  6.6131306E-01
   7148.00  6.5895187E-01
   7148.33  6.5587203E-01
   7148.67  6.5221921E-01
   7149.00  6.4806326E-01
   7149.33  6.4344573E-01
   7149.67  6.3851525E-01
   7150.00  6.3335579E-01
   7150.33  6.2804100E-01
   7150.67  6.2266892E-01
   7151.00  6.1730063E-01
   7151.33  6.1200507E-01
   7151.67  6.0682499E-01
   7152.00  6.0179712E-01
   7152.33  5.9698090E-01
   7152.67  5.9238326E-01
   7153.00  5.8802669E-01
   7153.33  5.8396632E-01
   7153.67  5.8018686E-01
   7154.00  5.7669945E-01
   7154.33  5.7354827E-01
   7154.67  5.7069430E-01
   7155.00  5.6812918E-01
   7155.33  5.6586990E-01
   7155.67  5.6385961E-01
   7156.00  5.6207562E-01
   7156.33  5.6051246E-01
   7156.67  5.5911291E-01
   7157.00  5.5785008E-01
   7157.33  5.5670929E-01
   7157.67  5.5565189E-01
   7158.00  5.5465844E-01
   7158.33  5.5371256E-01
   7158.67  5.5278614E-01
   7159.00  5.5185662E-01
   7159.33  5.5088789E-01
   7159.67  5.4984630E-01
   7160.00  5.4869432E-01
   7160.33  5.4736163E-01
   7160.67  5.4580912E-01
   7161.00  5.4398049E-01
   7161.33  5.4176710E-01
   7161.67  5.3915110E-01
   7162.00  5.3608568E-01
   7162.33  5.3246137E-01
   7162.67  5.2830269E-01
   7163.00  5.2358501E-01
   7163.33  5.1822159E-01
   7163.67  5.1228713E-01
   7164.00  5.0579918E-01
   7164.33  4.9873114E-01
   7164.67  4.9120369E-01
   7165.00  4.8327901E-01
   7165.33  4.7500459E-01
   7165.67  4.6651639E-01
   7166.00  4.5790319E-01
   7166.33  4.4926730E-01
   7166.67  4.4071214E-01
   7167.00  4.3231892E-01
   7167.33  4.2420319E-01
   7167.67  4.1640460E-01
   7168.00  4.0897114E-01
   7168.33  4.0199667E-01
   7168.67  3.9546385E-01
   7169.00  3.8939634E-01
   7169.33  3.8387022E-01
   7169.67  3.7882782E-01
   7170.00  3.7426509E-01
   7170.33  3.7023099E-01
   7170.67  3.6665481E-01
   7171.00  3.6352727E-01
   7171.33  3.6089762E-01
   7171.67  3.5871582E-01
   7172.00  3.5699509E-01
