    FDMNES
    energy     <xanes>
   7097.00  5.1008412E-03
   7097.33  5.2283270E-03
   7097.67  5.3618637E-03
   7098.00  5.5018788E-03
   7098.33  5.6498033E-03
   7098.67  5.8053768E-03
   7099.00  5.9691892E-03
   7099.33  6.1431362E-03
   7099.67  6.3269616E-03
   7100.00  6.5215040E-03
   7100.33  6.7293459E-03
   7100.67  6.9502733E-03
   7101.00  7.1855185E-03
   7101.33  7.4387205E-03
   7101.67  7.7097908E-03
   7102.00  8.0006141E-03
   7102.33  8.3165300E-03
   7102.67  8.6577604E-03
   7103.00  9.0273302E-03
   7103.33  9.4334731E-03
   7103.67  9.8771470E-03
   7104.00  1.0363503E-02
   7104.33  1.0906046E-02
   7104.67  1.1507509E-02
   7105.00  1.2177341E-02
   7105.33  1.2939514E-02
   7105.67  1.3801297E-02
   7106.00  1.4781779E-02
   7106.33  1.5928191E-02
   7106.67  1.7260613E-02
   7107.00  1.8822998E-02
   7107.33  2.0722823E-02
   7107.67  2.3022524E-02
   7108.00  2.5844161E-02
   7108.33  2.9490233E-02
   7108.67  3.4202263E-02
   7109.00  4.0433342E-02
   7109.33  4.9379586E-02
   7109.67  6.2404799E-02
   7110.00  8.2176503E-02
   7110.33  1.1635938E-01
   7110.67  1.7302067E-01
   7111.00  2.5357620E-01
   7111.33  3.3468510E-01
   7111.67  4.0334975E-01
   7112.00  4.5918559E-01
   7112.33  4.7214746E-01
   7112.67  4.2395251E-01
   7113.00  3.4323602E-01
   7113.33  2.7342387E-01
   7113.67  2.2455955E-01
   7114.00  1.9291377E-01
   7114.33  1.7119739E-01
   7114.67  1.5066129E-01
   7115.00  1.3042318E-01
   7115.33  1.1314589E-01
   7115.67  9.8968978E-02
   7116.00  8.8708913E-02
   7116.33  8.3175579E-02
   7116.67  8.1064315E-02
   7117.00  8.1822513E-02
   7117.33  8.5603435E-02
   7117.67  9.2234906E-02
   7118.00  1.0171436E-01
   7118.33  1.1335259E-01
   7118.67  1.2505018E-01
   7119.00  1.3595034E-01
   7119.33  1.4735683E-01
   7119.67  1.6091992E-01
   7120.00  1.7664812E-01
   7120.33  1.9405079E-01
   7120.67  2.1393075E-01
   7121.00  2.3792059E-01
   7121.33  2.6744802E-01
   7121.67  3.0061149E-01
   7122.00  3.3569814E-01
   7122.33  3.7457989E-01
   7122.67  4.2100258E-01
   7123.00  4.7735376E-01
   7123.33  5.4272952E-01
   7123.67  6.0731838E-01
   7124.00  6.6149564E-01
   7124.33  6.9837080E-01
   7124.67  7.2311227E-01
   7125.00  7.3920208E-01
   7125.33  7.4458874E-01
   7125.67  7.3727331E-01
   7126.00  7.1777931E-01
   7126.33  6.9012406E-01
   7126.67  6.6044979E-01
   7127.00  6.3134378E-01
   7127.33  6.0400764E-01
   7127.67  5.7834409E-01
   7128.00  5.5457519E-01
   7128.33  5.3378708E-01
   7128.67  5.1654230E-01
   7129.00  5.0323846E-01
   7129.33  4.9371484E-01
   7129.67  4.8552806E-01
   7130.00  4.7645814E-01
   7130.33  4.6515132E-01
   7130.67  4.5329625E-01
   7131.00  4.4297311E-01
   7131.33  4.3604252E-01
   7131.67  4.3209874E-01
   7132.00  4.3032283E-01
   7132.33  4.2965949E-01
   7132.67  4.2915530E-01
   7133.00  4.2867191E-01
   7133.33  4.2877764E-01
   7133.67  4.3024468E-01
   7134.00  4.3368205E-01
   7134.33  4.3977528E-01
   7134.67  4.4838954E-01
   7135.00  4.5960937E-01
   7135.33  4.7382693E-01
   7135.67  4.9060823E-01
   7136.00  5.0969481E-01
   7136.33  5.3099933E-01
   7136.67  5.5408724E-01
   7137.00  5.7885220E-01
   7137.33  6.0517384E-01
   7137.67  6.3222746E-01
   7138.00  6.5912647E-01
   7138.33  6.8440702E-01
   7138.67  7.0699949E-01
   7139.00  7.2609717E-01
   7139.33  7.4069581E-01
   7139.67  7.5122642E-01
   7140.00  7.5789386E-01
   7140.33  7.6067199E-01
   7140.67  7.6041183E-01
   7141.00  7.5738337E-01
   7141.33  7.5148004E-01
   7141.67  7.4321819E-01
   7142.00  7.3283577E-01
   7142.33  7.2058494E-01
   7142.67  7.0729793E-01
   7143.00  6.9351541E-01
   7143.33  6.7976986E-01
   7143.67  6.6644617E-01
   7144.00  6.5376263E-01
   7144.33  6.4196040E-01
   7144.67  6.3100802E-01
   7145.00  6.2093353E-01
   7145.33  6.1187561E-01
   7145.67  6.0375429E-01
   7146.00  5.9660382E-01
   7146.33  5.9058260E-01
   7146.67  5.8557086E-01
   7147.00  5.8153788E-01
   7147.33  5.7851018E-01
   7147.67  5.7624485E-01
   7148.00  5.7460682E-01
   7148.33  5.7348955E-01
   7148.67  5.7267877E-01
   7149.00  5.7204372E-01
   7149.33  5.7142066E-01
   7149.67  5.7063590E-01
   7150.00  5.6954704E-01
   7150.33  5.6795895E-01
   7150.67  5.6583026E-01
   7151.00  5.6311174E-01
   7151.33  5.5969772E-01
   7151.67  5.5565551E-01
   7152.00  5.5098312E-01
   7152.33  5.4560027E-01
   7152.67  5.3958323E-01
   7153.00  5.3292965E-01
   7153.33  5.2556097E-01
   7153.67  5.1756655E-01
   7154.00  5.0896437E-01
   7154.33  4.9971354E-01
   7154.67  4.8992704E-01
   7155.00  4.7964836E-01
   7155.33  4.6888759E-01
   7155.67  4.5778159E-01
   7156.00  4.4642014E-01
   7156.33  4.3490933E-01
   7156.67  4.2340159E-01
   7157.00  4.1201604E-01
   7157.33  4.0091344E-01
   7157.67  3.9017228E-01
   7158.00  3.7986707E-01
   7158.33  3.7012305E-01
   7158.67  3.6091960E-01
   7159.00  3.5227977E-01
   7159.33  3.4428878E-01
   7159.67  3.3687439E-01
   7160.00  3.3002907E-01
   7160.33  3.2380676E-01
   7160.67  3.1811582E-01
   7161.00  3.1293406E-01
   7161.33  3.0829472E-01
   7161.67  3.0411109E-01
   7162.00  3.0036248E-01
   7162.33  2.9707938E-01
   7162.67  2.9419035E-01
   7163.00  2.9168120E-01
   7163.33  2.8958472E-01
   7163.67  2.8784495E-01
   7164.00  2.8645566E-01
   7164.33  2.8545672E-01
   7164.67  2.8480632E-01
   7165.00  2.8450964E-01
   7165.33  2.8462109E-01
   7165.67  2.8510529E-01
   7166.00  2.8596995E-01
   7166.33  2.8727034E-01
   7166.67  2.8896105E-01
   7167.00  2.9104009E-01
   7167.33  2.9354633E-01
   7167.67  2.9641688E-01
   7168.00  2.9963347E-01
   7168.33  3.0321000E-01
   7168.67  3.0707588E-01
   7169.00  3.1120192E-01
   7169.33  3.1557969E-01
   7169.67  3.2014217E-01
   7170.00  3.2485281E-01
   7170.33  3.2967479E-01
   7170.67  3.3453236E-01
   7171.00  3.3934938E-01
   7171.33  3.4396269E-01
   7171.67  3.4814738E-01
   7172.00  3.5158416E-01
