    FDMNES
    energy     <xanes>
   7097.00  4.6112374E-03
   7097.33  4.7116676E-03
   7097.67  4.8161977E-03
   7098.00  4.9250801E-03
   7098.33  5.0392220E-03
   7098.67  5.1583964E-03
   7099.00  5.2829410E-03
   7099.33  5.4140170E-03
   7099.67  5.5513854E-03
   7100.00  5.6955102E-03
   7100.33  5.8479163E-03
   7100.67  6.0083669E-03
   7101.00  6.1775208E-03
   7101.33  6.3574437E-03
   7101.67  6.5479348E-03
   7102.00  6.7499672E-03
   7102.33  6.9664494E-03
   7102.67  7.1972940E-03
   7103.00  7.4440104E-03
   7103.33  7.7108979E-03
   7103.67  7.9981654E-03
   7104.00  8.3083012E-03
   7104.33  8.6480719E-03
   7104.67  9.0184356E-03
   7105.00  9.4238295E-03
   7105.33  9.8758209E-03
   7105.67  1.0377340E-02
   7106.00  1.0937165E-02
   7106.33  1.1577417E-02
   7106.67  1.2306738E-02
   7107.00  1.3145163E-02
   7107.33  1.4142246E-02
   7107.67  1.5326092E-02
   7108.00  1.6752873E-02
   7108.33  1.8563100E-02
   7108.67  2.0870815E-02
   7109.00  2.3892282E-02
   7109.33  2.8206386E-02
   7109.67  3.4499235E-02
   7110.00  4.4129236E-02
   7110.33  6.1051572E-02
   7110.67  8.9356812E-02
   7111.00  1.2806073E-01
   7111.33  1.5405791E-01
   7111.67  1.5847596E-01
   7112.00  1.5605544E-01
   7112.33  1.5526789E-01
   7112.67  1.5157426E-01
   7113.00  1.4462774E-01
   7113.33  1.3836222E-01
   7113.67  1.3353466E-01
   7114.00  1.2823913E-01
   7114.33  1.1938200E-01
   7114.67  1.0896186E-01
   7115.00  1.0052131E-01
   7115.33  9.7263061E-02
   7115.67  9.9881777E-02
   7116.00  1.0910528E-01
   7116.33  1.2706744E-01
   7116.67  1.5459888E-01
   7117.00  1.9321381E-01
   7117.33  2.4362461E-01
   7117.67  2.9747519E-01
   7118.00  3.4252938E-01
   7118.33  3.6341642E-01
   7118.67  3.6342985E-01
   7119.00  3.5148785E-01
   7119.33  3.3710550E-01
   7119.67  3.2574777E-01
   7120.00  3.1898739E-01
   7120.33  3.1711135E-01
   7120.67  3.1805370E-01
   7121.00  3.2038394E-01
   7121.33  3.2312199E-01
   7121.67  3.2584964E-01
   7122.00  3.2839482E-01
   7122.33  3.3133081E-01
   7122.67  3.3662403E-01
   7123.00  3.4606476E-01
   7123.33  3.6015959E-01
   7123.67  3.7615440E-01
   7124.00  3.9210684E-01
   7124.33  4.0675313E-01
   7124.67  4.1975822E-01
   7125.00  4.3117763E-01
   7125.33  4.4206891E-01
   7125.67  4.5463683E-01
   7126.00  4.7032352E-01
   7126.33  4.8933353E-01
   7126.67  5.0952073E-01
   7127.00  5.2878381E-01
   7127.33  5.4419286E-01
   7127.67  5.5418454E-01
   7128.00  5.5819586E-01
   7128.33  5.5689262E-01
   7128.67  5.5363665E-01
   7129.00  5.5108274E-01
   7129.33  5.5204722E-01
   7129.67  5.5737029E-01
   7130.00  5.6709836E-01
   7130.33  5.8061121E-01
   7130.67  5.9559566E-01
   7131.00  6.1030245E-01
   7131.33  6.2307468E-01
   7131.67  6.3376980E-01
   7132.00  6.4295717E-01
   7132.33  6.5180642E-01
   7132.67  6.6136770E-01
   7133.00  6.7174152E-01
   7133.33  6.8152792E-01
   7133.67  6.8818778E-01
   7134.00  6.8989210E-01
   7134.33  6.8633987E-01
   7134.67  6.8036463E-01
   7135.00  6.7362876E-01
   7135.33  6.6672039E-01
   7135.67  6.5940828E-01
   7136.00  6.5147243E-01
   7136.33  6.4291167E-01
   7136.67  6.3407428E-01
   7137.00  6.2520393E-01
   7137.33  6.1655953E-01
   7137.67  6.0831696E-01
   7138.00  6.0060342E-01
   7138.33  5.9351753E-01
   7138.67  5.8688521E-01
   7139.00  5.8052414E-01
   7139.33  5.7414927E-01
   7139.67  5.6747379E-01
   7140.00  5.6030108E-01
   7140.33  5.5241634E-01
   7140.67  5.4385567E-01
   7141.00  5.3464460E-01
   7141.33  5.2481185E-01
   7141.67  5.1458948E-01
   7142.00  5.0416104E-01
   7142.33  4.9377643E-01
   7142.67  4.8366846E-01
   7143.00  4.7400707E-01
   7143.33  4.6500694E-01
   7143.67  4.5667198E-01
   7144.00  4.4902628E-01
   7144.33  4.4215324E-01
   7144.67  4.3595616E-01
   7145.00  4.3043720E-01
   7145.33  4.2571561E-01
   7145.67  4.2177018E-01
   7146.00  4.1868576E-01
   7146.33  4.1670135E-01
   7146.67  4.1580704E-01
   7147.00  4.1607352E-01
   7147.33  4.1767523E-01
   7147.67  4.2039940E-01
   7148.00  4.2412338E-01
   7148.33  4.2875309E-01
   7148.67  4.3394887E-01
   7149.00  4.3949324E-01
   7149.33  4.4520154E-01
   7149.67  4.5093807E-01
   7150.00  4.5665865E-01
   7150.33  4.6234995E-01
   7150.67  4.6801949E-01
   7151.00  4.7366124E-01
   7151.33  4.7923368E-01
   7151.67  4.8467624E-01
   7152.00  4.8990603E-01
   7152.33  4.9477122E-01
   7152.67  4.9920557E-01
   7153.00  5.0313244E-01
   7153.33  5.0641162E-01
   7153.67  5.0909368E-01
   7154.00  5.1121123E-01
   7154.33  5.1278341E-01
   7154.67  5.1397378E-01
   7155.00  5.1487372E-01
   7155.33  5.1555313E-01
   7155.67  5.1610592E-01
   7156.00  5.1656437E-01
   7156.33  5.1692125E-01
   7156.67  5.1716362E-01
   7157.00  5.1725089E-01
   7157.33  5.1708308E-01
   7157.67  5.1658937E-01
   7158.00  5.1566225E-01
   7158.33  5.1408656E-01
   7158.67  5.1179506E-01
   7159.00  5.0868873E-01
   7159.33  5.0459154E-01
   7159.67  4.9962987E-01
   7160.00  4.9389415E-01
   7160.33  4.8749558E-01
   7160.67  4.8073873E-01
   7161.00  4.7382041E-01
   7161.33  4.6694963E-01
   7161.67  4.6028771E-01
   7162.00  4.5394443E-01
   7162.33  4.4805457E-01
   7162.67  4.4261688E-01
   7163.00  4.3765602E-01
   7163.33  4.3324804E-01
   7163.67  4.2933442E-01
   7164.00  4.2590997E-01
   7164.33  4.2302000E-01
   7164.67  4.2058272E-01
   7165.00  4.1857187E-01
   7165.33  4.1699677E-01
   7165.67  4.1576219E-01
   7166.00  4.1482449E-01
   7166.33  4.1416311E-01
   7166.67  4.1369903E-01
   7167.00  4.1339497E-01
   7167.33  4.1322820E-01
   7167.67  4.1315060E-01
   7168.00  4.1313736E-01
   7168.33  4.1316684E-01
   7168.67  4.1320968E-01
   7169.00  4.1324606E-01
   7169.33  4.1325120E-01
   7169.67  4.1321053E-01
   7170.00  4.1311279E-01
   7170.33  4.1294385E-01
   7170.67  4.1271439E-01
   7171.00  4.1243492E-01
   7171.33  4.1212417E-01
   7171.67  4.1181880E-01
   7172.00  4.1155331E-01
