    FDMNES
    energy     <xanes>
   7097.00  4.2266622E-03
   7097.33  4.3101497E-03
   7097.67  4.3967578E-03
   7098.00  4.4866670E-03
   7098.33  4.5805487E-03
   7098.67  4.6782154E-03
   7099.00  4.7799060E-03
   7099.33  4.8864695E-03
   7099.67  4.9977067E-03
   7100.00  5.1139432E-03
   7100.33  5.2362796E-03
   7100.67  5.3645146E-03
   7101.00  5.4991064E-03
   7101.33  5.6415273E-03
   7101.67  5.7915961E-03
   7102.00  5.9499840E-03
   7102.33  6.1187396E-03
   7102.67  6.2977532E-03
   7103.00  6.4880587E-03
   7103.33  6.6926507E-03
   7103.67  6.9116140E-03
   7104.00  7.1466435E-03
   7104.33  7.4024061E-03
   7104.67  7.6794855E-03
   7105.00  7.9808918E-03
   7105.33  8.3145371E-03
   7105.67  8.6823266E-03
   7106.00  9.0901967E-03
   7106.33  9.5531751E-03
   7106.67  1.0076997E-02
   7107.00  1.0675159E-02
   7107.33  1.1381104E-02
   7107.67  1.2213531E-02
   7108.00  1.3209999E-02
   7108.33  1.4464335E-02
   7108.67  1.6051505E-02
   7109.00  1.8113472E-02
   7109.33  2.1027647E-02
   7109.67  2.5231174E-02
   7110.00  3.1585036E-02
   7110.33  4.2611235E-02
   7110.67  6.1328229E-02
   7111.00  8.9557780E-02
   7111.33  1.1620833E-01
   7111.67  1.2147910E-01
   7112.00  1.1170629E-01
   7112.33  1.0206996E-01
   7112.67  9.5903347E-02
   7113.00  9.1773934E-02
   7113.33  8.9068413E-02
   7113.67  8.5940267E-02
   7114.00  7.9777054E-02
   7114.33  7.1016399E-02
   7114.67  6.3438215E-02
   7115.00  5.8803335E-02
   7115.33  5.7991171E-02
   7115.67  6.0458834E-02
   7116.00  6.6238618E-02
   7116.33  7.6242965E-02
   7116.67  9.0777485E-02
   7117.00  1.1046099E-01
   7117.33  1.3635626E-01
   7117.67  1.6745157E-01
   7118.00  2.0155293E-01
   7118.33  2.3119091E-01
   7118.67  2.4753507E-01
   7119.00  2.4850985E-01
   7119.33  2.4160752E-01
   7119.67  2.3741689E-01
   7120.00  2.3944110E-01
   7120.33  2.4821165E-01
   7120.67  2.6086108E-01
   7121.00  2.7512808E-01
   7121.33  2.8853083E-01
   7121.67  2.9993322E-01
   7122.00  3.0932397E-01
   7122.33  3.1701077E-01
   7122.67  3.2356823E-01
   7123.00  3.2902933E-01
   7123.33  3.3309702E-01
   7123.67  3.3617339E-01
   7124.00  3.3898288E-01
   7124.33  3.4236083E-01
   7124.67  3.4643267E-01
   7125.00  3.5135619E-01
   7125.33  3.5848332E-01
   7125.67  3.6882747E-01
   7126.00  3.8217197E-01
   7126.33  3.9740056E-01
   7126.67  4.1367925E-01
   7127.00  4.3120462E-01
   7127.33  4.5001382E-01
   7127.67  4.6899654E-01
   7128.00  4.8710038E-01
   7128.33  5.0363106E-01
   7128.67  5.1933595E-01
   7129.00  5.3506272E-01
   7129.33  5.5129263E-01
   7129.67  5.6713389E-01
   7130.00  5.8077166E-01
   7130.33  5.8917963E-01
   7130.67  5.9220156E-01
   7131.00  5.9161475E-01
   7131.33  5.9099342E-01
   7131.67  5.9306129E-01
   7132.00  5.9864499E-01
   7132.33  6.0810484E-01
   7132.67  6.2068149E-01
   7133.00  6.3589414E-01
   7133.33  6.5249470E-01
   7133.67  6.6775352E-01
   7134.00  6.7927444E-01
   7134.33  6.8497686E-01
   7134.67  6.8592213E-01
   7135.00  6.8337625E-01
   7135.33  6.7899975E-01
   7135.67  6.7474942E-01
   7136.00  6.7167808E-01
   7136.33  6.7047207E-01
   7136.67  6.7065524E-01
   7137.00  6.7159816E-01
   7137.33  6.7238903E-01
   7137.67  6.7222503E-01
   7138.00  6.7057330E-01
   7138.33  6.6682103E-01
   7138.67  6.6109303E-01
   7139.00  6.5351356E-01
   7139.33  6.4426916E-01
   7139.67  6.3407964E-01
   7140.00  6.2343692E-01
   7140.33  6.1283489E-01
   7140.67  6.0258373E-01
   7141.00  5.9279841E-01
   7141.33  5.8354145E-01
   7141.67  5.7470959E-01
   7142.00  5.6628494E-01
   7142.33  5.5834148E-01
   7142.67  5.5089608E-01
   7143.00  5.4404528E-01
   7143.33  5.3799707E-01
   7143.67  5.3274600E-01
   7144.00  5.2830931E-01
   7144.33  5.2472434E-01
   7144.67  5.2177492E-01
   7145.00  5.1934440E-01
   7145.33  5.1739266E-01
   7145.67  5.1585792E-01
   7146.00  5.1480453E-01
   7146.33  5.1444464E-01
   7146.67  5.1486410E-01
   7147.00  5.1618596E-01
   7147.33  5.1861843E-01
   7147.67  5.2203531E-01
   7148.00  5.2634733E-01
   7148.33  5.3145339E-01
   7148.67  5.3702303E-01
   7149.00  5.4282349E-01
   7149.33  5.4858156E-01
   7149.67  5.5407112E-01
   7150.00  5.5914828E-01
   7150.33  5.6366458E-01
   7150.67  5.6765760E-01
   7151.00  5.7112807E-01
   7151.33  5.7401912E-01
   7151.67  5.7639273E-01
   7152.00  5.7822385E-01
   7152.33  5.7937570E-01
   7152.67  5.7984059E-01
   7153.00  5.7954331E-01
   7153.33  5.7830085E-01
   7153.67  5.7617260E-01
   7154.00  5.7316342E-01
   7154.33  5.6924045E-01
   7154.67  5.6463711E-01
   7155.00  5.5950182E-01
   7155.33  5.5397871E-01
   7155.67  5.4828684E-01
   7156.00  5.4255244E-01
   7156.33  5.3689183E-01
   7156.67  5.3136151E-01
   7157.00  5.2598633E-01
   7157.33  5.2078789E-01
   7157.67  5.1573290E-01
   7158.00  5.1080967E-01
   7158.33  5.0603486E-01
   7158.67  5.0141991E-01
   7159.00  4.9702004E-01
   7159.33  4.9295907E-01
   7159.67  4.8927522E-01
   7160.00  4.8600834E-01
   7160.33  4.8321915E-01
   7160.67  4.8081907E-01
   7161.00  4.7874705E-01
   7161.33  4.7693661E-01
   7161.67  4.7525436E-01
   7162.00  4.7361790E-01
   7162.33  4.7194726E-01
   7162.67  4.7019790E-01
   7163.00  4.6835040E-01
   7163.33  4.6638857E-01
   7163.67  4.6433274E-01
   7164.00  4.6219197E-01
   7164.33  4.5996796E-01
   7164.67  4.5768008E-01
   7165.00  4.5533496E-01
   7165.33  4.5293443E-01
   7165.67  4.5049558E-01
   7166.00  4.4803156E-01
   7166.33  4.4556249E-01
   7166.67  4.4311535E-01
   7167.00  4.4071679E-01
   7167.33  4.3841105E-01
   7167.67  4.3622315E-01
   7168.00  4.3418391E-01
   7168.33  4.3235208E-01
   7168.67  4.3073862E-01
   7169.00  4.2936982E-01
   7169.33  4.2830461E-01
   7169.67  4.2752629E-01
   7170.00  4.2704088E-01
   7170.33  4.2687933E-01
   7170.67  4.2698549E-01
   7171.00  4.2732726E-01
   7171.33  4.2786410E-01
   7171.67  4.2847048E-01
   7172.00  4.2901740E-01
