    FDMNES
    energy     <xanes>
   7097.00  3.9445637E-03
   7097.33  4.0178372E-03
   7097.67  4.0937414E-03
   7098.00  4.1724297E-03
   7098.33  4.2544707E-03
   7098.67  4.3397094E-03
   7099.00  4.4283516E-03
   7099.33  4.5211219E-03
   7099.67  4.6178598E-03
   7100.00  4.7188503E-03
   7100.33  4.8250441E-03
   7100.67  4.9362861E-03
   7101.00  5.0529857E-03
   7101.33  5.1764358E-03
   7101.67  5.3065120E-03
   7102.00  5.4438290E-03
   7102.33  5.5902240E-03
   7102.67  5.7456608E-03
   7103.00  5.9111129E-03
   7103.33  6.0893373E-03
   7103.67  6.2805211E-03
   7104.00  6.4863089E-03
   7104.33  6.7111313E-03
   7104.67  6.9557333E-03
   7105.00  7.2231259E-03
   7105.33  7.5210783E-03
   7105.67  7.8517945E-03
   7106.00  8.2213866E-03
   7106.33  8.6451177E-03
   7106.67  9.1293927E-03
   7107.00  9.6884463E-03
   7107.33  1.0357258E-02
   7107.67  1.1156370E-02
   7108.00  1.2126020E-02
   7108.33  1.3366287E-02
   7108.67  1.4958564E-02
   7109.00  1.7055558E-02
   7109.33  2.0062076E-02
   7109.67  2.4446932E-02
   7110.00  3.1128260E-02
   7110.33  4.2752131E-02
   7110.67  6.2129624E-02
   7111.00  8.9898859E-02
   7111.33  1.1896847E-01
   7111.67  1.4240984E-01
   7112.00  1.5354139E-01
   7112.33  1.3760272E-01
   7112.67  1.0606138E-01
   7113.00  7.7355051E-02
   7113.33  5.8977107E-02
   7113.67  4.8052201E-02
   7114.00  4.2533709E-02
   7114.33  4.0297908E-02
   7114.67  3.7626860E-02
   7115.00  3.4001414E-02
   7115.33  3.1452493E-02
   7115.67  3.0277029E-02
   7116.00  3.0160596E-02
   7116.33  3.0875860E-02
   7116.67  3.2090995E-02
   7117.00  3.3638144E-02
   7117.33  3.5465151E-02
   7117.67  3.7629652E-02
   7118.00  4.0271262E-02
   7118.33  4.3576340E-02
   7118.67  4.7367963E-02
   7119.00  5.1241704E-02
   7119.33  5.4493526E-02
   7119.67  5.6945656E-02
   7120.00  5.8851743E-02
   7120.33  6.0744683E-02
   7120.67  6.3053754E-02
   7121.00  6.5979218E-02
   7121.33  6.9806575E-02
   7121.67  7.4699314E-02
   7122.00  8.0951993E-02
   7122.33  8.9159898E-02
   7122.67  9.9468054E-02
   7123.00  1.1214674E-01
   7123.33  1.2783413E-01
   7123.67  1.4666574E-01
   7124.00  1.6951478E-01
   7124.33  1.9916905E-01
   7124.67  2.3791614E-01
   7125.00  2.8856878E-01
   7125.33  3.5375321E-01
   7125.67  4.2446145E-01
   7126.00  4.8502492E-01
   7126.33  5.1560228E-01
   7126.67  5.2132620E-01
   7127.00  5.1352975E-01
   7127.33  5.0376311E-01
   7127.67  4.9961029E-01
   7128.00  5.0451333E-01
   7128.33  5.2261226E-01
   7128.67  5.5552493E-01
   7129.00  6.0659262E-01
   7129.33  6.8275641E-01
   7129.67  7.8358707E-01
   7130.00  9.0547316E-01
   7130.33  1.0301226E+00
   7130.67  1.1248171E+00
   7131.00  1.1690940E+00
   7131.33  1.1611413E+00
   7131.67  1.1264436E+00
   7132.00  1.0780748E+00
   7132.33  1.0222874E+00
   7132.67  9.6241829E-01
   7133.00  8.9993683E-01
   7133.33  8.3797330E-01
   7133.67  7.8139855E-01
   7134.00  7.3417898E-01
   7134.33  6.9924854E-01
   7134.67  6.7339507E-01
   7135.00  6.5383418E-01
   7135.33  6.3793642E-01
   7135.67  6.2326219E-01
   7136.00  6.0918814E-01
   7136.33  5.9646322E-01
   7136.67  5.8639685E-01
   7137.00  5.8019367E-01
   7137.33  5.7907884E-01
   7137.67  5.8221812E-01
   7138.00  5.8887553E-01
   7138.33  5.9832958E-01
   7138.67  6.0936516E-01
   7139.00  6.2141974E-01
   7139.33  6.3414841E-01
   7139.67  6.4722724E-01
   7140.00  6.6050941E-01
   7140.33  6.7384770E-01
   7140.67  6.8705978E-01
   7141.00  6.9994658E-01
   7141.33  7.1208971E-01
   7141.67  7.2306519E-01
   7142.00  7.3227925E-01
   7142.33  7.3864744E-01
   7142.67  7.4187827E-01
   7143.00  7.4176387E-01
   7143.33  7.3816213E-01
   7143.67  7.3215330E-01
   7144.00  7.2448977E-01
   7144.33  7.1583347E-01
   7144.67  7.0676670E-01
   7145.00  6.9741425E-01
   7145.33  6.8759672E-01
   7145.67  6.7706344E-01
   7146.00  6.6552567E-01
   7146.33  6.5257611E-01
   7146.67  6.3830634E-01
   7147.00  6.2283752E-01
   7147.33  6.0636458E-01
   7147.67  5.8940286E-01
   7148.00  5.7230600E-01
   7148.33  5.5545509E-01
   7148.67  5.3908474E-01
   7149.00  5.2334807E-01
   7149.33  5.0845115E-01
   7149.67  4.9436798E-01
   7150.00  4.8114123E-01
   7150.33  4.6890539E-01
   7150.67  4.5753791E-01
   7151.00  4.4701421E-01
   7151.33  4.3740278E-01
   7151.67  4.2855580E-01
   7152.00  4.2042212E-01
   7152.33  4.1301412E-01
   7152.67  4.0617023E-01
   7153.00  3.9981080E-01
   7153.33  3.9387648E-01
   7153.67  3.8819372E-01
   7154.00  3.8263966E-01
   7154.33  3.7705914E-01
   7154.67  3.7130947E-01
   7155.00  3.6529217E-01
   7155.33  3.5891125E-01
   7155.67  3.5223672E-01
   7156.00  3.4536564E-01
   7156.33  3.3847176E-01
   7156.67  3.3175986E-01
   7157.00  3.2538202E-01
   7157.33  3.1949558E-01
   7157.67  3.1403684E-01
   7158.00  3.0890871E-01
   7158.33  3.0395368E-01
   7158.67  2.9898364E-01
   7159.00  2.9392404E-01
   7159.33  2.8881191E-01
   7159.67  2.8383570E-01
   7160.00  2.7923283E-01
   7160.33  2.7540411E-01
   7160.67  2.7255990E-01
   7161.00  2.7090767E-01
   7161.33  2.7079797E-01
   7161.67  2.7215940E-01
   7162.00  2.7500660E-01
   7162.33  2.7945757E-01
   7162.67  2.8520166E-01
   7163.00  2.9208253E-01
   7163.33  3.0000832E-01
   7163.67  3.0863930E-01
   7164.00  3.1777992E-01
   7164.33  3.2724608E-01
   7164.67  3.3679854E-01
   7165.00  3.4628147E-01
   7165.33  3.5550889E-01
   7165.67  3.6437544E-01
   7166.00  3.7279037E-01
   7166.33  3.8061532E-01
   7166.67  3.8787375E-01
   7167.00  3.9455134E-01
   7167.33  4.0058282E-01
   7167.67  4.0606691E-01
   7168.00  4.1103885E-01
   7168.33  4.1549184E-01
   7168.67  4.1954000E-01
   7169.00  4.2323277E-01
   7169.33  4.2658899E-01
   7169.67  4.2969823E-01
   7170.00  4.3260057E-01
   7170.33  4.3531546E-01
   7170.67  4.3789377E-01
   7171.00  4.4034759E-01
   7171.33  4.4264355E-01
   7171.67  4.4472353E-01
   7172.00  4.4645994E-01
