    FDMNES
    energy     <xanes>
   7097.00  3.9281150E-03
   7097.33  4.0009226E-03
   7097.67  4.0763488E-03
   7098.00  4.1545471E-03
   7098.33  4.2360851E-03
   7098.67  4.3208100E-03
   7099.00  4.4089281E-03
   7099.33  4.5011643E-03
   7099.67  4.5973607E-03
   7100.00  4.6978040E-03
   7100.33  4.8034473E-03
   7100.67  4.9141393E-03
   7101.00  5.0302934E-03
   7101.33  5.1532092E-03
   7101.67  5.2827684E-03
   7102.00  5.4195938E-03
   7102.33  5.5655389E-03
   7102.67  5.7205780E-03
   7103.00  5.8857017E-03
   7103.33  6.0637034E-03
   7103.67  6.2547916E-03
   7104.00  6.4606473E-03
   7104.33  6.6857843E-03
   7104.67  6.9309954E-03
   7105.00  7.1993768E-03
   7105.33  7.4988962E-03
   7105.67  7.8318801E-03
   7106.00  8.2046611E-03
   7106.33  8.6330237E-03
   7106.67  9.1237415E-03
   7107.00  9.6917060E-03
   7107.33  1.0373494E-02
   7107.67  1.1191000E-02
   7108.00  1.2186883E-02
   7108.33  1.3467409E-02
   7108.67  1.5120578E-02
   7109.00  1.7311411E-02
   7109.33  2.0479400E-02
   7109.67  2.5142525E-02
   7110.00  3.2318077E-02
   7110.33  4.4940214E-02
   7110.67  6.6008066E-02
   7111.00  9.5524598E-02
   7111.33  1.2427272E-01
   7111.67  1.4487057E-01
   7112.00  1.4948389E-01
   7112.33  1.2699395E-01
   7112.67  9.5850421E-02
   7113.00  7.0855090E-02
   7113.33  5.5721254E-02
   7113.67  4.7230966E-02
   7114.00  4.3821015E-02
   7114.33  4.3312876E-02
   7114.67  4.0858858E-02
   7115.00  3.6184458E-02
   7115.33  3.2572574E-02
   7115.67  3.0621770E-02
   7116.00  2.9901254E-02
   7116.33  3.0107028E-02
   7116.67  3.0928907E-02
   7117.00  3.2281713E-02
   7117.33  3.4173820E-02
   7117.67  3.6520993E-02
   7118.00  3.9323185E-02
   7118.33  4.2642744E-02
   7118.67  4.6312821E-02
   7119.00  5.0044896E-02
   7119.33  5.3408250E-02
   7119.67  5.6347456E-02
   7120.00  5.9003127E-02
   7120.33  6.1561759E-02
   7120.67  6.4186350E-02
   7121.00  6.7003954E-02
   7121.33  7.0292542E-02
   7121.67  7.4319593E-02
   7122.00  7.9395392E-02
   7122.33  8.6097013E-02
   7122.67  9.4671805E-02
   7123.00  1.0548377E-01
   7123.33  1.1920571E-01
   7123.67  1.3580087E-01
   7124.00  1.5586083E-01
   7124.33  1.8192160E-01
   7124.67  2.1628725E-01
   7125.00  2.6140878E-01
   7125.33  3.1904386E-01
   7125.67  3.8157260E-01
   7126.00  4.3789892E-01
   7126.33  4.7404549E-01
   7126.67  4.9064343E-01
   7127.00  4.9350962E-01
   7127.33  4.9004818E-01
   7127.67  4.8731804E-01
   7128.00  4.8978321E-01
   7128.33  5.0302509E-01
   7128.67  5.2922028E-01
   7129.00  5.7088315E-01
   7129.33  6.3346804E-01
   7129.67  7.1760080E-01
   7130.00  8.2407771E-01
   7130.33  9.4982743E-01
   7130.67  1.0763037E+00
   7131.00  1.1822336E+00
   7131.33  1.2418364E+00
   7131.67  1.2526357E+00
   7132.00  1.2169880E+00
   7132.33  1.1420364E+00
   7132.67  1.0498126E+00
   7133.00  9.5455294E-01
   7133.33  8.6852451E-01
   7133.67  7.9641130E-01
   7134.00  7.3969101E-01
   7134.33  6.9883222E-01
   7134.67  6.6901741E-01
   7135.00  6.4749109E-01
   7135.33  6.3233356E-01
   7135.67  6.2092478E-01
   7136.00  6.1215134E-01
   7136.33  6.0551533E-01
   7136.67  6.0051817E-01
   7137.00  5.9713587E-01
   7137.33  5.9556714E-01
   7137.67  5.9553019E-01
   7138.00  5.9688574E-01
   7138.33  5.9956703E-01
   7138.67  6.0318714E-01
   7139.00  6.0753892E-01
   7139.33  6.1246652E-01
   7139.67  6.1773801E-01
   7140.00  6.2327322E-01
   7140.33  6.2910440E-01
   7140.67  6.3529884E-01
   7141.00  6.4200925E-01
   7141.33  6.4955048E-01
   7141.67  6.5805084E-01
   7142.00  6.6765168E-01
   7142.33  6.7854254E-01
   7142.67  6.9040783E-01
   7143.00  7.0287461E-01
   7143.33  7.1529505E-01
   7143.67  7.2685721E-01
   7144.00  7.3679739E-01
   7144.33  7.4399593E-01
   7144.67  7.4811764E-01
   7145.00  7.4878898E-01
   7145.33  7.4533137E-01
   7145.67  7.3819445E-01
   7146.00  7.2751963E-01
   7146.33  7.1323790E-01
   7146.67  6.9625355E-01
   7147.00  6.7710674E-01
   7147.33  6.5629877E-01
   7147.67  6.3468023E-01
   7148.00  6.1274743E-01
   7148.33  5.9097398E-01
   7148.67  5.6967504E-01
   7149.00  5.4905366E-01
   7149.33  5.2937645E-01
   7149.67  5.1065676E-01
   7150.00  4.9300375E-01
   7150.33  4.7667291E-01
   7150.67  4.6156692E-01
   7151.00  4.4770201E-01
   7151.33  4.3522860E-01
   7151.67  4.2396719E-01
   7152.00  4.1387851E-01
   7152.33  4.0502567E-01
   7152.67  3.9716229E-01
   7153.00  3.9017605E-01
   7153.33  3.8401727E-01
   7153.67  3.7844229E-01
   7154.00  3.7331453E-01
   7154.33  3.6851001E-01
   7154.67  3.6384122E-01
   7155.00  3.5919331E-01
   7155.33  3.5445102E-01
   7155.67  3.4956478E-01
   7156.00  3.4452782E-01
   7156.33  3.3937685E-01
   7156.67  3.3423248E-01
   7157.00  3.2922238E-01
   7157.33  3.2454368E-01
   7157.67  3.2028915E-01
   7158.00  3.1650850E-01
   7158.33  3.1321098E-01
   7158.67  3.1019380E-01
   7159.00  3.0728483E-01
   7159.33  3.0430722E-01
   7159.67  3.0121825E-01
   7160.00  2.9810636E-01
   7160.33  2.9524024E-01
   7160.67  2.9291445E-01
   7161.00  2.9140715E-01
   7161.33  2.9113627E-01
   7161.67  2.9215599E-01
   7162.00  2.9454073E-01
   7162.33  2.9844336E-01
   7162.67  3.0358606E-01
   7163.00  3.0981814E-01
   7163.33  3.1702899E-01
   7163.67  3.2486341E-01
   7164.00  3.3309946E-01
   7164.33  3.4150678E-01
   7164.67  3.4984684E-01
   7165.00  3.5795801E-01
   7165.33  3.6563951E-01
   7165.67  3.7282889E-01
   7166.00  3.7946746E-01
   7166.33  3.8545520E-01
   7166.67  3.9087534E-01
   7167.00  3.9576249E-01
   7167.33  4.0012056E-01
   7167.67  4.0408644E-01
   7168.00  4.0773251E-01
   7168.33  4.1111320E-01
   7168.67  4.1433584E-01
   7169.00  4.1745885E-01
   7169.33  4.2053258E-01
   7169.67  4.2360270E-01
   7170.00  4.2668997E-01
   7170.33  4.2980522E-01
   7170.67  4.3293262E-01
   7171.00  4.3603962E-01
   7171.33  4.3903551E-01
   7171.67  4.4177867E-01
   7172.00  4.4406249E-01
