    FDMNES
    energy     <xanes>
   7097.00  5.6508759E-03
   7097.33  5.8021466E-03
   7097.67  5.9610739E-03
   7098.00  6.1282147E-03
   7098.33  6.3054054E-03
   7098.67  6.4923343E-03
   7099.00  6.6897689E-03
   7099.33  6.9001468E-03
   7099.67  7.1231576E-03
   7100.00  7.3598858E-03
   7100.33  7.6136500E-03
   7100.67  7.8841821E-03
   7101.00  8.1730607E-03
   7101.33  8.4849383E-03
   7101.67  8.8196787E-03
   7102.00  9.1796603E-03
   7102.33  9.5716375E-03
   7102.67  9.9958001E-03
   7103.00  1.0455881E-02
   7103.33  1.0962109E-02
   7103.67  1.1515429E-02
   7104.00  1.2122003E-02
   7104.33  1.2798135E-02
   7104.67  1.3546533E-02
   7105.00  1.4378014E-02
   7105.33  1.5320312E-02
   7105.67  1.6380406E-02
   7106.00  1.7578855E-02
   7106.33  1.8966977E-02
   7106.67  2.0562956E-02
   7107.00  2.2410228E-02
   7107.33  2.4615267E-02
   7107.67  2.7229562E-02
   7108.00  3.0359675E-02
   7108.33  3.4266499E-02
   7108.67  3.9122300E-02
   7109.00  4.5256053E-02
   7109.33  5.3502085E-02
   7109.67  6.4642733E-02
   7110.00  8.0171918E-02
   7110.33  1.0420787E-01
   7110.67  1.4134934E-01
   7111.00  1.9695991E-01
   7111.33  2.7816800E-01
   7111.67  3.8815730E-01
   7112.00  5.2994903E-01
   7112.33  6.9519148E-01
   7112.67  8.1062072E-01
   7113.00  8.5710204E-01
   7113.33  8.3430484E-01
   7113.67  7.2945681E-01
   7114.00  5.7865094E-01
   7114.33  4.4168035E-01
   7114.67  3.4148921E-01
   7115.00  2.7326713E-01
   7115.33  2.2894414E-01
   7115.67  1.9816214E-01
   7116.00  1.7699873E-01
   7116.33  1.6373235E-01
   7116.67  1.5609368E-01
   7117.00  1.5335542E-01
   7117.33  1.5510147E-01
   7117.67  1.5923498E-01
   7118.00  1.6360191E-01
   7118.33  1.6538472E-01
   7118.67  1.6403678E-01
   7119.00  1.6036941E-01
   7119.33  1.5560049E-01
   7119.67  1.5041557E-01
   7120.00  1.4469556E-01
   7120.33  1.3832448E-01
   7120.67  1.3232466E-01
   7121.00  1.2798954E-01
   7121.33  1.2620318E-01
   7121.67  1.2626396E-01
   7122.00  1.2778335E-01
   7122.33  1.3068936E-01
   7122.67  1.3428382E-01
   7123.00  1.3786134E-01
   7123.33  1.4146373E-01
   7123.67  1.4614538E-01
   7124.00  1.5273561E-01
   7124.33  1.6220576E-01
   7124.67  1.7479285E-01
   7125.00  1.9091104E-01
   7125.33  2.1118897E-01
   7125.67  2.3450258E-01
   7126.00  2.5938524E-01
   7126.33  2.8359186E-01
   7126.67  3.0565029E-01
   7127.00  3.2509708E-01
   7127.33  3.4170505E-01
   7127.67  3.5624766E-01
   7128.00  3.6944820E-01
   7128.33  3.8256302E-01
   7128.67  3.9696174E-01
   7129.00  4.1345426E-01
   7129.33  4.3266519E-01
   7129.67  4.5404743E-01
   7130.00  4.7713337E-01
   7130.33  5.0171534E-01
   7130.67  5.2784042E-01
   7131.00  5.5618465E-01
   7131.33  5.8823670E-01
   7131.67  6.2428882E-01
   7132.00  6.6372622E-01
   7132.33  7.0378714E-01
   7132.67  7.4055152E-01
   7133.00  7.7154227E-01
   7133.33  7.9424859E-01
   7133.67  8.0837313E-01
   7134.00  8.1291496E-01
   7134.33  8.0619730E-01
   7134.67  7.9027147E-01
   7135.00  7.6645931E-01
   7135.33  7.3552505E-01
   7135.67  6.9962647E-01
   7136.00  6.6006382E-01
   7136.33  6.1860134E-01
   7136.67  5.7772515E-01
   7137.00  5.3923035E-01
   7137.33  5.0519689E-01
   7137.67  4.7612476E-01
   7138.00  4.5241862E-01
   7138.33  4.3468605E-01
   7138.67  4.2171584E-01
   7139.00  4.1280472E-01
   7139.33  4.0750828E-01
   7139.67  4.0475958E-01
   7140.00  4.0421757E-01
   7140.33  4.0599925E-01
   7140.67  4.0988983E-01
   7141.00  4.1597961E-01
   7141.33  4.2461397E-01
   7141.67  4.3545185E-01
   7142.00  4.4832710E-01
   7142.33  4.6315496E-01
   7142.67  4.7934796E-01
   7143.00  4.9656639E-01
   7143.33  5.1449960E-01
   7143.67  5.3271029E-01
   7144.00  5.5093428E-01
   7144.33  5.6890537E-01
   7144.67  5.8650331E-01
   7145.00  6.0367681E-01
   7145.33  6.2039497E-01
   7145.67  6.3678383E-01
   7146.00  6.5292079E-01
   7146.33  6.6884902E-01
   7146.67  6.8459717E-01
   7147.00  7.0010475E-01
   7147.33  7.1517920E-01
   7147.67  7.2966410E-01
   7148.00  7.4336067E-01
   7148.33  7.5591913E-01
   7148.67  7.6728435E-01
   7149.00  7.7735455E-01
   7149.33  7.8591548E-01
   7149.67  7.9315014E-01
   7150.00  7.9910364E-01
   7150.33  8.0369413E-01
   7150.67  8.0714400E-01
   7151.00  8.0951364E-01
   7151.33  8.1074523E-01
   7151.67  8.1103028E-01
   7152.00  8.1041683E-01
   7152.33  8.0884197E-01
   7152.67  8.0644887E-01
   7153.00  8.0326212E-01
   7153.33  7.9920574E-01
   7153.67  7.9439271E-01
   7154.00  7.8883614E-01
   7154.33  7.8246120E-01
   7154.67  7.7537826E-01
   7155.00  7.6760931E-01
   7155.33  7.5910670E-01
   7155.67  7.4999589E-01
   7156.00  7.4032331E-01
   7156.33  7.3008921E-01
   7156.67  7.1942424E-01
   7157.00  7.0838713E-01
   7157.33  6.9700332E-01
   7157.67  6.8537129E-01
   7158.00  6.7354021E-01
   7158.33  6.6154171E-01
   7158.67  6.4943704E-01
   7159.00  6.3726031E-01
   7159.33  6.2504489E-01
   7159.67  6.1283049E-01
   7160.00  6.0064840E-01
   7160.33  5.8854814E-01
   7160.67  5.7656628E-01
   7161.00  5.6474611E-01
   7161.33  5.5316669E-01
   7161.67  5.4185470E-01
   7162.00  5.3085738E-01
   7162.33  5.2027667E-01
   7162.67  5.1012178E-01
   7163.00  5.0043927E-01
   7163.33  4.9134426E-01
   7163.67  4.8281427E-01
   7164.00  4.7487970E-01
   7164.33  4.6764415E-01
   7164.67  4.6104387E-01
   7165.00  4.5508017E-01
   7165.33  4.4981822E-01
   7165.67  4.4515093E-01
   7166.00  4.4104080E-01
   7166.33  4.3749329E-01
   7166.67  4.3437351E-01
   7167.00  4.3160536E-01
   7167.33  4.2911737E-01
   7167.67  4.2677313E-01
   7168.00  4.2448964E-01
   7168.33  4.2217467E-01
   7168.67  4.1975336E-01
   7169.00  4.1717056E-01
   7169.33  4.1435370E-01
   7169.67  4.1130350E-01
   7170.00  4.0801681E-01
   7170.33  4.0448728E-01
   7170.67  4.0079269E-01
   7171.00  3.9700631E-01
   7171.33  3.9327190E-01
   7171.67  3.8981556E-01
   7172.00  3.8692348E-01
