    FDMNES
    energy     <xanes>
   7097.00  4.9955054E-03
   7097.33  5.1097361E-03
   7097.67  5.2289606E-03
   7098.00  5.3535043E-03
   7098.33  5.4845019E-03
   7098.67  5.6216998E-03
   7099.00  5.7655368E-03
   7099.33  5.9174809E-03
   7099.67  6.0772666E-03
   7100.00  6.2455003E-03
   7100.33  6.4241285E-03
   7100.67  6.6128914E-03
   7101.00  6.8126526E-03
   7101.33  7.0260681E-03
   7101.67  7.2529250E-03
   7102.00  7.4944966E-03
   7102.33  7.7545361E-03
   7102.67  8.0329687E-03
   7103.00  8.3317531E-03
   7103.33  8.6564245E-03
   7103.67  9.0072540E-03
   7104.00  9.3874163E-03
   7104.33  9.8055250E-03
   7104.67  1.0262691E-02
   7105.00  1.0764412E-02
   7105.33  1.1325055E-02
   7105.67  1.1947834E-02
   7106.00  1.2643143E-02
   7106.33  1.3437268E-02
   7106.67  1.4339155E-02
   7107.00  1.5370957E-02
   7107.33  1.6587500E-02
   7107.67  1.8015727E-02
   7108.00  1.9711922E-02
   7108.33  2.1815532E-02
   7108.67  2.4424914E-02
   7109.00  2.7729126E-02
   7109.33  3.2220552E-02
   7109.67  3.8414890E-02
   7110.00  4.7319691E-02
   7110.33  6.1804493E-02
   7110.67  8.4999247E-02
   7111.00  1.1857835E-01
   7111.33  1.5648086E-01
   7111.67  1.9109427E-01
   7112.00  2.2199700E-01
   7112.33  2.4749736E-01
   7112.67  2.6678392E-01
   7113.00  2.8371039E-01
   7113.33  3.0244730E-01
   7113.67  3.2525206E-01
   7114.00  3.4493839E-01
   7114.33  3.4092155E-01
   7114.67  3.2231189E-01
   7115.00  3.0461168E-01
   7115.33  2.9056681E-01
   7115.67  2.7670826E-01
   7116.00  2.6539252E-01
   7116.33  2.6135885E-01
   7116.67  2.6627969E-01
   7117.00  2.8050774E-01
   7117.33  2.9551164E-01
   7117.67  2.9256035E-01
   7118.00  2.6531436E-01
   7118.33  2.2730697E-01
   7118.67  1.9468010E-01
   7119.00  1.7089339E-01
   7119.33  1.5592387E-01
   7119.67  1.4633438E-01
   7120.00  1.4010021E-01
   7120.33  1.3660161E-01
   7120.67  1.3539456E-01
   7121.00  1.3606399E-01
   7121.33  1.3869309E-01
   7121.67  1.4370345E-01
   7122.00  1.5165381E-01
   7122.33  1.6289647E-01
   7122.67  1.7620948E-01
   7123.00  1.9053619E-01
   7123.33  2.0594585E-01
   7123.67  2.2357497E-01
   7124.00  2.4325086E-01
   7124.33  2.6263097E-01
   7124.67  2.8035241E-01
   7125.00  2.9759682E-01
   7125.33  3.1690099E-01
   7125.67  3.3907569E-01
   7126.00  3.6379191E-01
   7126.33  3.9064678E-01
   7126.67  4.1956818E-01
   7127.00  4.5110614E-01
   7127.33  4.8507088E-01
   7127.67  5.1843083E-01
   7128.00  5.4724596E-01
   7128.33  5.6619735E-01
   7128.67  5.7567446E-01
   7129.00  5.7886382E-01
   7129.33  5.8157192E-01
   7129.67  5.8860433E-01
   7130.00  6.0171194E-01
   7130.33  6.2058721E-01
   7130.67  6.4107043E-01
   7131.00  6.5939019E-01
   7131.33  6.7181775E-01
   7131.67  6.7896586E-01
   7132.00  6.8296641E-01
   7132.33  6.8695517E-01
   7132.67  6.9319274E-01
   7133.00  7.0263356E-01
   7133.33  7.1605948E-01
   7133.67  7.3276041E-01
   7134.00  7.5197274E-01
   7134.33  7.7170782E-01
   7134.67  7.8753914E-01
   7135.00  7.9459654E-01
   7135.33  7.8841694E-01
   7135.67  7.7229537E-01
   7136.00  7.4991589E-01
   7136.33  7.2502348E-01
   7136.67  7.0053647E-01
   7137.00  6.7764036E-01
   7137.33  6.5708647E-01
   7137.67  6.3850777E-01
   7138.00  6.2159096E-01
   7138.33  6.0616848E-01
   7138.67  5.9200329E-01
   7139.00  5.7928981E-01
   7139.33  5.6868129E-01
   7139.67  5.6041315E-01
   7140.00  5.5479613E-01
   7140.33  5.5231655E-01
   7140.67  5.5245716E-01
   7141.00  5.5480657E-01
   7141.33  5.5876744E-01
   7141.67  5.6314721E-01
   7142.00  5.6701504E-01
   7142.33  5.6924775E-01
   7142.67  5.6944804E-01
   7143.00  5.6749427E-01
   7143.33  5.6339831E-01
   7143.67  5.5790864E-01
   7144.00  5.5152454E-01
   7144.33  5.4472328E-01
   7144.67  5.3795220E-01
   7145.00  5.3145404E-01
   7145.33  5.2547574E-01
   7145.67  5.2006754E-01
   7146.00  5.1526898E-01
   7146.33  5.1117586E-01
   7146.67  5.0771927E-01
   7147.00  5.0490344E-01
   7147.33  5.0280746E-01
   7147.67  5.0134461E-01
   7148.00  5.0050577E-01
   7148.33  5.0035429E-01
   7148.67  5.0079991E-01
   7149.00  5.0183268E-01
   7149.33  5.0351835E-01
   7149.67  5.0577723E-01
   7150.00  5.0860084E-01
   7150.33  5.1204207E-01
   7150.67  5.1600241E-01
   7151.00  5.2044786E-01
   7151.33  5.2538636E-01
   7151.67  5.3070297E-01
   7152.00  5.3633467E-01
   7152.33  5.4222567E-01
   7152.67  5.4825311E-01
   7153.00  5.5432974E-01
   7153.33  5.6033776E-01
   7153.67  5.6616797E-01
   7154.00  5.7172050E-01
   7154.33  5.7683683E-01
   7154.67  5.8146634E-01
   7155.00  5.8553505E-01
   7155.33  5.8889258E-01
   7155.67  5.9156259E-01
   7156.00  5.9350936E-01
   7156.33  5.9461054E-01
   7156.67  5.9494556E-01
   7157.00  5.9451306E-01
   7157.33  5.9323069E-01
   7157.67  5.9122086E-01
   7158.00  5.8852127E-01
   7158.33  5.8511404E-01
   7158.67  5.8115612E-01
   7159.00  5.7672705E-01
   7159.33  5.7188334E-01
   7159.67  5.6677820E-01
   7160.00  5.6150252E-01
   7160.33  5.5614644E-01
   7160.67  5.5080746E-01
   7161.00  5.4555357E-01
   7161.33  5.4046863E-01
   7161.67  5.3557977E-01
   7162.00  5.3091454E-01
   7162.33  5.2652227E-01
   7162.67  5.2237683E-01
   7163.00  5.1847355E-01
   7163.33  5.1483348E-01
   7163.67  5.1141740E-01
   7164.00  5.0821363E-01
   7164.33  5.0522915E-01
   7164.67  5.0241909E-01
   7165.00  4.9976552E-01
   7165.33  4.9726470E-01
   7165.67  4.9487859E-01
   7166.00  4.9258797E-01
   7166.33  4.9037757E-01
   7166.67  4.8821287E-01
   7167.00  4.8607105E-01
   7167.33  4.8392371E-01
   7167.67  4.8174428E-01
   7168.00  4.7951360E-01
   7168.33  4.7720246E-01
   7168.67  4.7480318E-01
   7169.00  4.7230922E-01
   7169.33  4.6971028E-01
   7169.67  4.6703063E-01
   7170.00  4.6429117E-01
   7170.33  4.6152513E-01
   7170.67  4.5878457E-01
   7171.00  4.5612310E-01
   7171.33  4.5364268E-01
   7171.67  4.5144161E-01
   7172.00  4.4965374E-01
