    FDMNES
    energy     <xanes>
   7097.00  5.1543233E-03
   7097.33  5.2761508E-03
   7097.67  5.4035161E-03
   7098.00  5.5367953E-03
   7098.33  5.6772733E-03
   7098.67  5.8246905E-03
   7099.00  5.9795609E-03
   7099.33  6.1435669E-03
   7099.67  6.3164448E-03
   7100.00  6.4989153E-03
   7100.33  6.6932414E-03
   7100.67  6.8991821E-03
   7101.00  7.1177813E-03
   7101.33  7.3521806E-03
   7101.67  7.6022223E-03
   7102.00  7.8694774E-03
   7102.33  8.1584765E-03
   7102.67  8.4692817E-03
   7103.00  8.8043678E-03
   7103.33  9.1705833E-03
   7103.67  9.5685214E-03
   7104.00  1.0002310E-02
   7104.33  1.0482930E-02
   7104.67  1.1012260E-02
   7105.00  1.1597701E-02
   7105.33  1.2258251E-02
   7105.67  1.2999062E-02
   7106.00  1.3834715E-02
   7106.33  1.4801593E-02
   7106.67  1.5914010E-02
   7107.00  1.7204657E-02
   7107.33  1.8753847E-02
   7107.67  2.0605813E-02
   7108.00  2.2848900E-02
   7108.33  2.5702189E-02
   7108.67  2.9334593E-02
   7109.00  3.4065349E-02
   7109.33  4.0734478E-02
   7109.67  5.0279651E-02
   7110.00  6.4537805E-02
   7110.33  8.8840646E-02
   7110.67  1.2946797E-01
   7111.00  1.9002448E-01
   7111.33  2.4801107E-01
   7111.67  2.7858168E-01
   7112.00  3.0955637E-01
   7112.33  3.4704197E-01
   7112.67  3.4739488E-01
   7113.00  3.2120131E-01
   7113.33  2.7971257E-01
   7113.67  2.2899895E-01
   7114.00  1.9450516E-01
   7114.33  1.9183038E-01
   7114.67  2.1668835E-01
   7115.00  2.6742506E-01
   7115.33  3.2953907E-01
   7115.67  3.6147674E-01
   7116.00  3.4372103E-01
   7116.33  2.9672766E-01
   7116.67  2.5259286E-01
   7117.00  2.1998088E-01
   7117.33  1.9962171E-01
   7117.67  1.8638216E-01
   7118.00  1.7697604E-01
   7118.33  1.6874659E-01
   7118.67  1.6086759E-01
   7119.00  1.5403521E-01
   7119.33  1.4913017E-01
   7119.67  1.4579196E-01
   7120.00  1.4385027E-01
   7120.33  1.4381856E-01
   7120.67  1.4613877E-01
   7121.00  1.5133035E-01
   7121.33  1.5998592E-01
   7121.67  1.7147188E-01
   7122.00  1.8549125E-01
   7122.33  2.0193227E-01
   7122.67  2.1987657E-01
   7123.00  2.3931552E-01
   7123.33  2.6159994E-01
   7123.67  2.8586223E-01
   7124.00  3.0965262E-01
   7124.33  3.3075874E-01
   7124.67  3.5092411E-01
   7125.00  3.7265041E-01
   7125.33  3.9737736E-01
   7125.67  4.2271696E-01
   7126.00  4.4539023E-01
   7126.33  4.6226689E-01
   7126.67  4.7523310E-01
   7127.00  4.8740580E-01
   7127.33  5.0186576E-01
   7127.67  5.1869058E-01
   7128.00  5.3677919E-01
   7128.33  5.5488626E-01
   7128.67  5.7273108E-01
   7129.00  5.9085329E-01
   7129.33  6.1056774E-01
   7129.67  6.3275344E-01
   7130.00  6.5774470E-01
   7130.33  6.8509783E-01
   7130.67  7.1286957E-01
   7131.00  7.3921164E-01
   7131.33  7.6149746E-01
   7131.67  7.7847178E-01
   7132.00  7.8937249E-01
   7132.33  7.9353082E-01
   7132.67  7.9269416E-01
   7133.00  7.8813712E-01
   7133.33  7.8103020E-01
   7133.67  7.7272480E-01
   7134.00  7.6373661E-01
   7134.33  7.5413254E-01
   7134.67  7.4367357E-01
   7135.00  7.3184704E-01
   7135.33  7.1771750E-01
   7135.67  7.0102927E-01
   7136.00  6.8164634E-01
   7136.33  6.5954461E-01
   7136.67  6.3572214E-01
   7137.00  6.1098725E-01
   7137.33  5.8634699E-01
   7137.67  5.6271467E-01
   7138.00  5.4076603E-01
   7138.33  5.2138965E-01
   7138.67  5.0468831E-01
   7139.00  4.9083467E-01
   7139.33  4.8023631E-01
   7139.67  4.7245694E-01
   7140.00  4.6737170E-01
   7140.33  4.6510215E-01
   7140.67  4.6509743E-01
   7141.00  4.6709912E-01
   7141.33  4.7090362E-01
   7141.67  4.7576268E-01
   7142.00  4.8109939E-01
   7142.33  4.8617765E-01
   7142.67  4.9043838E-01
   7143.00  4.9358206E-01
   7143.33  4.9536475E-01
   7143.67  4.9602031E-01
   7144.00  4.9568119E-01
   7144.33  4.9442939E-01
   7144.67  4.9256846E-01
   7145.00  4.9029478E-01
   7145.33  4.8786281E-01
   7145.67  4.8561189E-01
   7146.00  4.8384426E-01
   7146.33  4.8301264E-01
   7146.67  4.8331631E-01
   7147.00  4.8495276E-01
   7147.33  4.8824706E-01
   7147.67  4.9304554E-01
   7148.00  4.9928642E-01
   7148.33  5.0698444E-01
   7148.67  5.1577257E-01
   7149.00  5.2544151E-01
   7149.33  5.3580234E-01
   7149.67  5.4650683E-01
   7150.00  5.5732888E-01
   7150.33  5.6799882E-01
   7150.67  5.7830073E-01
   7151.00  5.8806855E-01
   7151.33  5.9706573E-01
   7151.67  6.0526970E-01
   7152.00  6.1262052E-01
   7152.33  6.1897541E-01
   7152.67  6.2445083E-01
   7153.00  6.2907863E-01
   7153.33  6.3282496E-01
   7153.67  6.3587472E-01
   7154.00  6.3831484E-01
   7154.33  6.4018971E-01
   7154.67  6.4166678E-01
   7155.00  6.4282875E-01
   7155.33  6.4372918E-01
   7155.67  6.4445784E-01
   7156.00  6.4504689E-01
   7156.33  6.4549625E-01
   7156.67  6.4581491E-01
   7157.00  6.4598143E-01
   7157.33  6.4593036E-01
   7157.67  6.4562995E-01
   7158.00  6.4502335E-01
   7158.33  6.4398905E-01
   7158.67  6.4249766E-01
   7159.00  6.4048681E-01
   7159.33  6.3782129E-01
   7159.67  6.3452873E-01
   7160.00  6.3058895E-01
   7160.33  6.2592281E-01
   7160.67  6.2064052E-01
   7161.00  6.1478836E-01
   7161.33  6.0837823E-01
   7161.67  6.0155788E-01
   7162.00  5.9440714E-01
   7162.33  5.8699927E-01
   7162.67  5.7946004E-01
   7163.00  5.7186423E-01
   7163.33  5.6429221E-01
   7163.67  5.5680715E-01
   7164.00  5.4945564E-01
   7164.33  5.4230286E-01
   7164.67  5.3535757E-01
   7165.00  5.2863627E-01
   7165.33  5.2217672E-01
   7165.67  5.1594963E-01
   7166.00  5.0994853E-01
   7166.33  5.0418545E-01
   7166.67  4.9861640E-01
   7167.00  4.9322723E-01
   7167.33  4.8802412E-01
   7167.67  4.8297477E-01
   7168.00  4.7807284E-01
   7168.33  4.7333247E-01
   7168.67  4.6873262E-01
   7169.00  4.6427226E-01
   7169.33  4.5996895E-01
   7169.67  4.5580714E-01
   7170.00  4.5179130E-01
   7170.33  4.4795079E-01
   7170.67  4.4428441E-01
   7171.00  4.4081950E-01
   7171.33  4.3764601E-01
   7171.67  4.3484193E-01
   7172.00  4.3255325E-01
