    FDMNES
    energy     <xanes>
   7097.00  4.6035290E-03
   7097.33  4.7028710E-03
   7097.67  4.8063298E-03
   7098.00  4.9141680E-03
   7098.33  5.0273125E-03
   7098.67  5.1455488E-03
   7099.00  5.2692326E-03
   7099.33  5.3995632E-03
   7099.67  5.5363197E-03
   7100.00  5.6799977E-03
   7100.33  5.8321925E-03
   7100.67  5.9926952E-03
   7101.00  6.1622203E-03
   7101.33  6.3429611E-03
   7101.67  6.5347627E-03
   7102.00  6.7386975E-03
   7102.33  6.9579054E-03
   7102.67  7.1923805E-03
   7103.00  7.4438126E-03
   7103.33  7.7169269E-03
   7103.67  8.0120864E-03
   7104.00  8.3321194E-03
   7104.33  8.6845972E-03
   7104.67  9.0707898E-03
   7105.00  9.4958038E-03
   7105.33  9.9727900E-03
   7105.67  1.0505356E-02
   7106.00  1.1103677E-02
   7106.33  1.1793169E-02
   7106.67  1.2584068E-02
   7107.00  1.3499540E-02
   7107.33  1.4596525E-02
   7107.67  1.5907218E-02
   7108.00  1.7495448E-02
   7108.33  1.9519782E-02
   7108.67  2.2105505E-02
   7109.00  2.5488831E-02
   7109.33  3.0294143E-02
   7109.67  3.7232712E-02
   7110.00  4.7699797E-02
   7110.33  6.5736002E-02
   7110.67  9.5846906E-02
   7111.00  1.3958759E-01
   7111.33  1.8085709E-01
   7111.67  2.0333973E-01
   7112.00  2.1616760E-01
   7112.33  2.2664039E-01
   7112.67  2.2847487E-01
   7113.00  2.2442180E-01
   7113.33  2.0902065E-01
   7113.67  1.7767243E-01
   7114.00  1.4220701E-01
   7114.33  1.1316705E-01
   7114.67  9.1341348E-02
   7115.00  7.6754069E-02
   7115.33  6.8411911E-02
   7115.67  6.3801012E-02
   7116.00  6.1930886E-02
   7116.33  6.2424993E-02
   7116.67  6.4646575E-02
   7117.00  6.8314608E-02
   7117.33  7.3150304E-02
   7117.67  7.8636144E-02
   7118.00  8.4722066E-02
   7118.33  9.1972385E-02
   7118.67  1.0098381E-01
   7119.00  1.1237487E-01
   7119.33  1.2713681E-01
   7119.67  1.4528064E-01
   7120.00  1.6668834E-01
   7120.33  1.9060976E-01
   7120.67  2.1486578E-01
   7121.00  2.3781193E-01
   7121.33  2.5842282E-01
   7121.67  2.7787174E-01
   7122.00  2.9786678E-01
   7122.33  3.2109078E-01
   7122.67  3.4921838E-01
   7123.00  3.8308625E-01
   7123.33  4.2242962E-01
   7123.67  4.6394985E-01
   7124.00  5.0502232E-01
   7124.33  5.4323947E-01
   7124.67  5.7749304E-01
   7125.00  6.0618228E-01
   7125.33  6.2623461E-01
   7125.67  6.3768042E-01
   7126.00  6.4144227E-01
   7126.33  6.3946602E-01
   7126.67  6.3541611E-01
   7127.00  6.3150331E-01
   7127.33  6.2956469E-01
   7127.67  6.2967186E-01
   7128.00  6.3127108E-01
   7128.33  6.3364025E-01
   7128.67  6.3615568E-01
   7129.00  6.3844009E-01
   7129.33  6.3968193E-01
   7129.67  6.3912590E-01
   7130.00  6.3634517E-01
   7130.33  6.3139882E-01
   7130.67  6.2546051E-01
   7131.00  6.1936267E-01
   7131.33  6.1376017E-01
   7131.67  6.0874822E-01
   7132.00  6.0421405E-01
   7132.33  5.9997288E-01
   7132.67  5.9585781E-01
   7133.00  5.9190487E-01
   7133.33  5.8838150E-01
   7133.67  5.8556210E-01
   7134.00  5.8370697E-01
   7134.33  5.8313168E-01
   7134.67  5.8369813E-01
   7135.00  5.8532319E-01
   7135.33  5.8796859E-01
   7135.67  5.9133075E-01
   7136.00  5.9523758E-01
   7136.33  5.9956290E-01
   7136.67  6.0413919E-01
   7137.00  6.0890086E-01
   7137.33  6.1381817E-01
   7137.67  6.1884074E-01
   7138.00  6.2394014E-01
   7138.33  6.2908054E-01
   7138.67  6.3420670E-01
   7139.00  6.3926788E-01
   7139.33  6.4418447E-01
   7139.67  6.4890908E-01
   7140.00  6.5339162E-01
   7140.33  6.5754842E-01
   7140.67  6.6138241E-01
   7141.00  6.6487382E-01
   7141.33  6.6795598E-01
   7141.67  6.7064805E-01
   7142.00  6.7291849E-01
   7142.33  6.7464814E-01
   7142.67  6.7580912E-01
   7143.00  6.7629637E-01
   7143.33  6.7585649E-01
   7143.67  6.7444005E-01
   7144.00  6.7194486E-01
   7144.33  6.6817121E-01
   7144.67  6.6327807E-01
   7145.00  6.5733700E-01
   7145.33  6.5036695E-01
   7145.67  6.4264570E-01
   7146.00  6.3431825E-01
   7146.33  6.2548191E-01
   7146.67  6.1631804E-01
   7147.00  6.0690970E-01
   7147.33  5.9731098E-01
   7147.67  5.8759262E-01
   7148.00  5.7778230E-01
   7148.33  5.6790131E-01
   7148.67  5.5799141E-01
   7149.00  5.4808760E-01
   7149.33  5.3824195E-01
   7149.67  5.2849599E-01
   7150.00  5.1888928E-01
   7150.33  5.0948115E-01
   7150.67  5.0027254E-01
   7151.00  4.9126932E-01
   7151.33  4.8248367E-01
   7151.67  4.7386036E-01
   7152.00  4.6536435E-01
   7152.33  4.5696800E-01
   7152.67  4.4862343E-01
   7153.00  4.4029932E-01
   7153.33  4.3196559E-01
   7153.67  4.2361226E-01
   7154.00  4.1524660E-01
   7154.33  4.0689486E-01
   7154.67  3.9859392E-01
   7155.00  3.9038555E-01
   7155.33  3.8234255E-01
   7155.67  3.7450263E-01
   7156.00  3.6691118E-01
   7156.33  3.5965110E-01
   7156.67  3.5272436E-01
   7157.00  3.4615844E-01
   7157.33  3.4002611E-01
   7157.67  3.3429845E-01
   7158.00  3.2899045E-01
   7158.33  3.2417433E-01
   7158.67  3.1981497E-01
   7159.00  3.1593118E-01
   7159.33  3.1260907E-01
   7159.67  3.0981129E-01
   7160.00  3.0755901E-01
   7160.33  3.0594534E-01
   7160.67  3.0491824E-01
   7161.00  3.0449013E-01
   7161.33  3.0474498E-01
   7161.67  3.0560639E-01
   7162.00  3.0706500E-01
   7162.33  3.0917015E-01
   7162.67  3.1181854E-01
   7163.00  3.1497770E-01
   7163.33  3.1865890E-01
   7163.67  3.2274156E-01
   7164.00  3.2716198E-01
   7164.33  3.3187175E-01
   7164.67  3.3676250E-01
   7165.00  3.4177926E-01
   7165.33  3.4687414E-01
   7165.67  3.5198963E-01
   7166.00  3.5709157E-01
   7166.33  3.6214515E-01
   7166.67  3.6713680E-01
   7167.00  3.7205714E-01
   7167.33  3.7689280E-01
   7167.67  3.8165498E-01
   7168.00  3.8634831E-01
   7168.33  3.9097243E-01
   7168.67  3.9554209E-01
   7169.00  4.0006141E-01
   7169.33  4.0452601E-01
   7169.67  4.0893864E-01
   7170.00  4.1329085E-01
   7170.33  4.1755437E-01
   7170.67  4.2170713E-01
   7171.00  4.2570469E-01
   7171.33  4.2942872E-01
   7171.67  4.3274976E-01
   7172.00  4.3546162E-01
