    FDMNES
    energy     <xanes>
   7097.00  4.0659245E-03
   7097.33  4.1435653E-03
   7097.67  4.2240397E-03
   7098.00  4.3075125E-03
   7098.33  4.3945958E-03
   7098.67  4.4851218E-03
   7099.00  4.5793108E-03
   7099.33  4.6779411E-03
   7099.67  4.7808372E-03
   7100.00  4.8883030E-03
   7100.33  5.0013555E-03
   7100.67  5.1198229E-03
   7101.00  5.2441388E-03
   7101.33  5.3756791E-03
   7101.67  5.5143002E-03
   7102.00  5.6606481E-03
   7102.33  5.8166650E-03
   7102.67  5.9822922E-03
   7103.00  6.1585434E-03
   7103.33  6.3483089E-03
   7103.67  6.5517489E-03
   7104.00  6.7705591E-03
   7104.33  7.0093383E-03
   7104.67  7.2687972E-03
   7105.00  7.5520098E-03
   7105.33  7.8669541E-03
   7105.67  8.2157868E-03
   7106.00  8.6046953E-03
   7106.33  9.0491992E-03
   7106.67  9.5556491E-03
   7107.00  1.0138394E-02
   7107.33  1.0832825E-02
   7107.67  1.1659623E-02
   7108.00  1.2659623E-02
   7108.33  1.3934953E-02
   7108.67  1.5570159E-02
   7109.00  1.7725197E-02
   7109.33  2.0830135E-02
   7109.67  2.5403846E-02
   7110.00  3.2474013E-02
   7110.33  4.4968187E-02
   7110.67  6.5117791E-02
   7111.00  8.9000420E-02
   7111.33  1.0130013E-01
   7111.67  1.0880043E-01
   7112.00  1.2314500E-01
   7112.33  1.4330729E-01
   7112.67  1.4630208E-01
   7113.00  1.2621251E-01
   7113.33  1.0594441E-01
   7113.67  8.9625355E-02
   7114.00  7.5279929E-02
   7114.33  6.4577071E-02
   7114.67  5.6710409E-02
   7115.00  4.9401720E-02
   7115.33  4.2315775E-02
   7115.67  3.7402762E-02
   7116.00  3.4629138E-02
   7116.33  3.3522154E-02
   7116.67  3.3399467E-02
   7117.00  3.3945996E-02
   7117.33  3.4876339E-02
   7117.67  3.5914347E-02
   7118.00  3.7030622E-02
   7118.33  3.8412878E-02
   7118.67  4.0266534E-02
   7119.00  4.2789248E-02
   7119.33  4.6342026E-02
   7119.67  5.1148367E-02
   7120.00  5.7648895E-02
   7120.33  6.6953440E-02
   7120.67  7.9919291E-02
   7121.00  9.7758255E-02
   7121.33  1.2214554E-01
   7121.67  1.5077417E-01
   7122.00  1.7910729E-01
   7122.33  2.0100121E-01
   7122.67  2.1669234E-01
   7123.00  2.2859354E-01
   7123.33  2.3862521E-01
   7123.67  2.4820821E-01
   7124.00  2.5843177E-01
   7124.33  2.7104539E-01
   7124.67  2.8846927E-01
   7125.00  3.1423756E-01
   7125.33  3.5315290E-01
   7125.67  4.0364826E-01
   7126.00  4.6187416E-01
   7126.33  5.1865385E-01
   7126.67  5.6288340E-01
   7127.00  5.8991709E-01
   7127.33  6.0349202E-01
   7127.67  6.1500837E-01
   7128.00  6.3141313E-01
   7128.33  6.5873381E-01
   7128.67  6.9687490E-01
   7129.00  7.4175320E-01
   7129.33  7.8244809E-01
   7129.67  8.1147374E-01
   7130.00  8.2966825E-01
   7130.33  8.4154428E-01
   7130.67  8.5057185E-01
   7131.00  8.5704362E-01
   7131.33  8.6160787E-01
   7131.67  8.6646830E-01
   7132.00  8.7314139E-01
   7132.33  8.8225700E-01
   7132.67  8.9213528E-01
   7133.00  9.0049593E-01
   7133.33  9.0371088E-01
   7133.67  9.0013110E-01
   7134.00  8.8948180E-01
   7134.33  8.7260505E-01
   7134.67  8.5227089E-01
   7135.00  8.2979705E-01
   7135.33  8.0609493E-01
   7135.67  7.8216714E-01
   7136.00  7.5867077E-01
   7136.33  7.3633670E-01
   7136.67  7.1544584E-01
   7137.00  6.9621701E-01
   7137.33  6.7897473E-01
   7137.67  6.6341772E-01
   7138.00  6.4932062E-01
   7138.33  6.3641636E-01
   7138.67  6.2414744E-01
   7139.00  6.1224199E-01
   7139.33  6.0060665E-01
   7139.67  5.8930188E-01
   7140.00  5.7853440E-01
   7140.33  5.6873048E-01
   7140.67  5.6012132E-01
   7141.00  5.5297189E-01
   7141.33  5.4774057E-01
   7141.67  5.4438233E-01
   7142.00  5.4298515E-01
   7142.33  5.4383850E-01
   7142.67  5.4666081E-01
   7143.00  5.5135962E-01
   7143.33  5.5793742E-01
   7143.67  5.6584432E-01
   7144.00  5.7466910E-01
   7144.33  5.8387090E-01
   7144.67  5.9280738E-01
   7145.00  6.0104243E-01
   7145.33  6.0810456E-01
   7145.67  6.1394639E-01
   7146.00  6.1848815E-01
   7146.33  6.2149565E-01
   7146.67  6.2305521E-01
   7147.00  6.2307051E-01
   7147.33  6.2123309E-01
   7147.67  6.1770985E-01
   7148.00  6.1255023E-01
   7148.33  6.0573544E-01
   7148.67  5.9770650E-01
   7149.00  5.8870779E-01
   7149.33  5.7892570E-01
   7149.67  5.6867226E-01
   7150.00  5.5808980E-01
   7150.33  5.4725390E-01
   7150.67  5.3623156E-01
   7151.00  5.2502182E-01
   7151.33  5.1359243E-01
   7151.67  5.0197239E-01
   7152.00  4.9017483E-01
   7152.33  4.7822336E-01
   7152.67  4.6621240E-01
   7153.00  4.5423401E-01
   7153.33  4.4243068E-01
   7153.67  4.3090508E-01
   7154.00  4.1974775E-01
   7154.33  4.0908894E-01
   7154.67  3.9890746E-01
   7155.00  3.8920078E-01
   7155.33  3.7999169E-01
   7155.67  3.7117451E-01
   7156.00  3.6270292E-01
   7156.33  3.5456583E-01
   7156.67  3.4669070E-01
   7157.00  3.3906050E-01
   7157.33  3.3170066E-01
   7157.67  3.2459392E-01
   7158.00  3.1776738E-01
   7158.33  3.1131219E-01
   7158.67  3.0525167E-01
   7159.00  2.9964525E-01
   7159.33  2.9461934E-01
   7159.67  2.9015410E-01
   7160.00  2.8627056E-01
   7160.33  2.8304750E-01
   7160.67  2.8040292E-01
   7161.00  2.7832432E-01
   7161.33  2.7687013E-01
   7161.67  2.7597426E-01
   7162.00  2.7565400E-01
   7162.33  2.7602288E-01
   7162.67  2.7705035E-01
   7163.00  2.7877607E-01
   7163.33  2.8132684E-01
   7163.67  2.8462410E-01
   7164.00  2.8865744E-01
   7164.33  2.9347524E-01
   7164.67  2.9892405E-01
   7165.00  3.0492860E-01
   7165.33  3.1144312E-01
   7165.67  3.1829817E-01
   7166.00  3.2539126E-01
   7166.33  3.3261813E-01
   7166.67  3.3985494E-01
   7167.00  3.4702189E-01
   7167.33  3.5402915E-01
   7167.67  3.6084728E-01
   7168.00  3.6745555E-01
   7168.33  3.7382387E-01
   7168.67  3.7999168E-01
   7169.00  3.8597711E-01
   7169.33  3.9178336E-01
   7169.67  3.9744856E-01
   7170.00  4.0298004E-01
   7170.33  4.0835569E-01
   7170.67  4.1356782E-01
   7171.00  4.1857099E-01
   7171.33  4.2322565E-01
   7171.67  4.2737716E-01
   7172.00  4.3077040E-01
