    FDMNES
    energy     <xanes>
   7097.00  5.1235886E-03
   7097.33  5.2487302E-03
   7097.67  5.3795521E-03
   7098.00  5.5164253E-03
   7098.33  5.6606405E-03
   7098.67  5.8119074E-03
   7099.00  5.9707221E-03
   7099.33  6.1387468E-03
   7099.67  6.3156705E-03
   7100.00  6.5021705E-03
   7100.33  6.7004326E-03
   7100.67  6.9101387E-03
   7101.00  7.1322365E-03
   7101.33  7.3696716E-03
   7101.67  7.6221500E-03
   7102.00  7.8910370E-03
   7102.33  8.1804170E-03
   7102.67  8.4900908E-03
   7103.00  8.8220939E-03
   7103.33  9.1822880E-03
   7103.67  9.5707243E-03
   7104.00  9.9905671E-03
   7104.33  1.0450592E-02
   7104.67  1.0951454E-02
   7105.00  1.1498337E-02
   7105.33  1.2105103E-02
   7105.67  1.2773868E-02
   7106.00  1.3513730E-02
   7106.33  1.4348212E-02
   7106.67  1.5283171E-02
   7107.00  1.6336204E-02
   7107.33  1.7551587E-02
   7107.67  1.8946078E-02
   7108.00  2.0559283E-02
   7108.33  2.2489924E-02
   7108.67  2.4795225E-02
   7109.00  2.7592387E-02
   7109.33  3.1186205E-02
   7109.67  3.5867547E-02
   7110.00  4.2217911E-02
   7110.33  5.1840379E-02
   7110.67  6.5781990E-02
   7111.00  8.2001491E-02
   7111.33  9.4549891E-02
   7111.67  1.0721134E-01
   7112.00  1.2340278E-01
   7112.33  1.5022264E-01
   7112.67  1.9330672E-01
   7113.00  2.6033339E-01
   7113.33  3.6915878E-01
   7113.67  5.2620627E-01
   7114.00  7.2558356E-01
   7114.33  9.2015253E-01
   7114.67  9.8762590E-01
   7115.00  8.7440345E-01
   7115.33  6.8141207E-01
   7115.67  5.1907029E-01
   7116.00  4.0359375E-01
   7116.33  3.2860665E-01
   7116.67  2.7703719E-01
   7117.00  2.4171777E-01
   7117.33  2.1923607E-01
   7117.67  2.0592720E-01
   7118.00  2.0069681E-01
   7118.33  2.0040040E-01
   7118.67  1.9696497E-01
   7119.00  1.8734516E-01
   7119.33  1.7473319E-01
   7119.67  1.6327138E-01
   7120.00  1.5411331E-01
   7120.33  1.4755245E-01
   7120.67  1.4276114E-01
   7121.00  1.3900721E-01
   7121.33  1.3541680E-01
   7121.67  1.3169788E-01
   7122.00  1.2840986E-01
   7122.33  1.2648151E-01
   7122.67  1.2600953E-01
   7123.00  1.2701749E-01
   7123.33  1.2959878E-01
   7123.67  1.3337426E-01
   7124.00  1.3831250E-01
   7124.33  1.4483846E-01
   7124.67  1.5301301E-01
   7125.00  1.6269673E-01
   7125.33  1.7335305E-01
   7125.67  1.8400564E-01
   7126.00  1.9407090E-01
   7126.33  2.0326049E-01
   7126.67  2.1196352E-01
   7127.00  2.2058672E-01
   7127.33  2.2964030E-01
   7127.67  2.3951770E-01
   7128.00  2.5070668E-01
   7128.33  2.6430080E-01
   7128.67  2.8103556E-01
   7129.00  3.0169192E-01
   7129.33  3.2736401E-01
   7129.67  3.5745022E-01
   7130.00  3.9141824E-01
   7130.33  4.2869852E-01
   7130.67  4.6807106E-01
   7131.00  5.0891418E-01
   7131.33  5.5037062E-01
   7131.67  5.9074969E-01
   7132.00  6.2807614E-01
   7132.33  6.5949259E-01
   7132.67  6.8453852E-01
   7133.00  7.0340784E-01
   7133.33  7.1669439E-01
   7133.67  7.2660474E-01
   7134.00  7.3427467E-01
   7134.33  7.4022061E-01
   7134.67  7.4463363E-01
   7135.00  7.4705259E-01
   7135.33  7.4623519E-01
   7135.67  7.4149455E-01
   7136.00  7.3196490E-01
   7136.33  7.1617461E-01
   7136.67  6.9451140E-01
   7137.00  6.6726483E-01
   7137.33  6.3503895E-01
   7137.67  6.0043961E-01
   7138.00  5.6573789E-01
   7138.33  5.3397770E-01
   7138.67  5.0703636E-01
   7139.00  4.8612356E-01
   7139.33  4.7264236E-01
   7139.67  4.6558658E-01
   7140.00  4.6436007E-01
   7140.33  4.6854752E-01
   7140.67  4.7635535E-01
   7141.00  4.8674111E-01
   7141.33  4.9878485E-01
   7141.67  5.1144128E-01
   7142.00  5.2423392E-01
   7142.33  5.3691223E-01
   7142.67  5.4951996E-01
   7143.00  5.6219897E-01
   7143.33  5.7515248E-01
   7143.67  5.8843475E-01
   7144.00  6.0201552E-01
   7144.33  6.1577142E-01
   7144.67  6.2945734E-01
   7145.00  6.4284165E-01
   7145.33  6.5558790E-01
   7145.67  6.6754324E-01
   7146.00  6.7856012E-01
   7146.33  6.8839055E-01
   7146.67  6.9710802E-01
   7147.00  7.0470367E-01
   7147.33  7.1107112E-01
   7147.67  7.1641061E-01
   7148.00  7.2079620E-01
   7148.33  7.2422235E-01
   7148.67  7.2690447E-01
   7149.00  7.2893647E-01
   7149.33  7.3035616E-01
   7149.67  7.3133062E-01
   7150.00  7.3193772E-01
   7150.33  7.3222309E-01
   7150.67  7.3229324E-01
   7151.00  7.3220048E-01
   7151.33  7.3198255E-01
   7151.67  7.3169589E-01
   7152.00  7.3136994E-01
   7152.33  7.3102896E-01
   7152.67  7.3069899E-01
   7153.00  7.3039298E-01
   7153.33  7.3011359E-01
   7153.67  7.2984871E-01
   7154.00  7.2958511E-01
   7154.33  7.2929839E-01
   7154.67  7.2896162E-01
   7155.00  7.2854298E-01
   7155.33  7.2798264E-01
   7155.67  7.2724442E-01
   7156.00  7.2627507E-01
   7156.33  7.2496224E-01
   7156.67  7.2326521E-01
   7157.00  7.2111445E-01
   7157.33  7.1835763E-01
   7157.67  7.1497686E-01
   7158.00  7.1090284E-01
   7158.33  7.0596739E-01
   7158.67  7.0020764E-01
   7159.00  6.9358898E-01
   7159.33  6.8598448E-01
   7159.67  6.7751537E-01
   7160.00  6.6821575E-01
   7160.33  6.5805519E-01
   7160.67  6.4721941E-01
   7161.00  6.3580017E-01
   7161.33  6.2385356E-01
   7161.67  6.1156073E-01
   7162.00  5.9902869E-01
   7162.33  5.8636075E-01
   7162.67  5.7368067E-01
   7163.00  5.6107323E-01
   7163.33  5.4864558E-01
   7163.67  5.3644868E-01
   7164.00  5.2453038E-01
   7164.33  5.1297394E-01
   7164.67  5.0177125E-01
   7165.00  4.9094267E-01
   7165.33  4.8055281E-01
   7165.67  4.7056223E-01
   7166.00  4.6097473E-01
   7166.33  4.5183956E-01
   7166.67  4.4310110E-01
   7167.00  4.3475331E-01
   7167.33  4.2683502E-01
   7167.67  4.1928847E-01
   7168.00  4.1210600E-01
   7168.33  4.0532177E-01
   7168.67  3.9887843E-01
   7169.00  3.9276425E-01
   7169.33  3.8700346E-01
   7169.67  3.8154200E-01
   7170.00  3.7637246E-01
   7170.33  3.7152761E-01
   7170.67  3.6697669E-01
   7171.00  3.6273615E-01
   7171.33  3.5889754E-01
   7171.67  3.5552280E-01
   7172.00  3.5276291E-01
