    FDMNES
    energy     <xanes>
   7097.00  5.3249638E-03
   7097.33  5.4583925E-03
   7097.67  5.5980436E-03
   7098.00  5.7443351E-03
   7098.33  5.8987000E-03
   7098.67  6.0608362E-03
   7099.00  6.2313063E-03
   7099.33  6.4119702E-03
   7099.67  6.6025082E-03
   7100.00  6.8036957E-03
   7100.33  7.0179995E-03
   7100.67  7.2451015E-03
   7101.00  7.4860973E-03
   7101.33  7.7443440E-03
   7101.67  8.0195672E-03
   7102.00  8.3133628E-03
   7102.33  8.6304386E-03
   7102.67  8.9706566E-03
   7103.00  9.3364259E-03
   7103.33  9.7345894E-03
   7103.67  1.0165349E-02
   7104.00  1.0632501E-02
   7104.33  1.1146436E-02
   7104.67  1.1708156E-02
   7105.00  1.2323967E-02
   7105.33  1.3010533E-02
   7105.67  1.3770756E-02
   7106.00  1.4615843E-02
   7106.33  1.5574484E-02
   7106.67  1.6654341E-02
   7107.00  1.7877226E-02
   7107.33  1.9297563E-02
   7107.67  2.0936305E-02
   7108.00  2.2841870E-02
   7108.33  2.5133625E-02
   7108.67  2.7877406E-02
   7109.00  3.1206534E-02
   7109.33  3.5457622E-02
   7109.67  4.0911857E-02
   7110.00  4.8118502E-02
   7110.33  5.8575718E-02
   7110.67  7.3741498E-02
   7111.00  9.4454205E-02
   7111.33  1.1875305E-01
   7111.67  1.4980234E-01
   7112.00  1.9078045E-01
   7112.33  2.4074419E-01
   7112.67  3.2446972E-01
   7113.00  4.6568759E-01
   7113.33  6.4782724E-01
   7113.67  8.0991988E-01
   7114.00  9.2516688E-01
   7114.33  8.9221579E-01
   7114.67  7.3599462E-01
   7115.00  5.5145159E-01
   7115.33  4.1756368E-01
   7115.67  3.2958500E-01
   7116.00  2.7405682E-01
   7116.33  2.4307207E-01
   7116.67  2.2823063E-01
   7117.00  2.2542848E-01
   7117.33  2.2768217E-01
   7117.67  2.2580645E-01
   7118.00  2.1718709E-01
   7118.33  2.0299374E-01
   7118.67  1.8719359E-01
   7119.00  1.7288214E-01
   7119.33  1.6192487E-01
   7119.67  1.5380469E-01
   7120.00  1.4818324E-01
   7120.33  1.4460153E-01
   7120.67  1.4225486E-01
   7121.00  1.4122493E-01
   7121.33  1.4186826E-01
   7121.67  1.4378197E-01
   7122.00  1.4718222E-01
   7122.33  1.5294799E-01
   7122.67  1.6061170E-01
   7123.00  1.6904475E-01
   7123.33  1.7621673E-01
   7123.67  1.8087309E-01
   7124.00  1.8278342E-01
   7124.33  1.8234789E-01
   7124.67  1.8090256E-01
   7125.00  1.7932930E-01
   7125.33  1.7846991E-01
   7125.67  1.7870503E-01
   7126.00  1.8029699E-01
   7126.33  1.8377233E-01
   7126.67  1.8931648E-01
   7127.00  1.9728251E-01
   7127.33  2.0844043E-01
   7127.67  2.2296269E-01
   7128.00  2.4144746E-01
   7128.33  2.6522015E-01
   7128.67  2.9403035E-01
   7129.00  3.2745867E-01
   7129.33  3.6489326E-01
   7129.67  4.0514992E-01
   7130.00  4.4803911E-01
   7130.33  4.9347581E-01
   7130.67  5.4026979E-01
   7131.00  5.8752832E-01
   7131.33  6.3418437E-01
   7131.67  6.7898812E-01
   7132.00  7.2022303E-01
   7132.33  7.5455087E-01
   7132.67  7.8067956E-01
   7133.00  7.9829195E-01
   7133.33  8.0773070E-01
   7133.67  8.1171726E-01
   7134.00  8.1155583E-01
   7134.33  8.0792819E-01
   7134.67  8.0185074E-01
   7135.00  7.9345557E-01
   7135.33  7.8188688E-01
   7135.67  7.6621641E-01
   7136.00  7.4493744E-01
   7136.33  7.1568851E-01
   7136.67  6.7926378E-01
   7137.00  6.3727398E-01
   7137.33  5.9302943E-01
   7137.67  5.5096065E-01
   7138.00  5.1414107E-01
   7138.33  4.8585559E-01
   7138.67  4.6612184E-01
   7139.00  4.5488540E-01
   7139.33  4.5236851E-01
   7139.67  4.5646604E-01
   7140.00  4.6606554E-01
   7140.33  4.8033993E-01
   7140.67  4.9746352E-01
   7141.00  5.1641863E-01
   7141.33  5.3631756E-01
   7141.67  5.5632194E-01
   7142.00  5.7601980E-01
   7142.33  5.9507860E-01
   7142.67  6.1346376E-01
   7143.00  6.3113437E-01
   7143.33  6.4793056E-01
   7143.67  6.6383304E-01
   7144.00  6.7870056E-01
   7144.33  6.9220088E-01
   7144.67  7.0433103E-01
   7145.00  7.1500817E-01
   7145.33  7.2402894E-01
   7145.67  7.3163688E-01
   7146.00  7.3793039E-01
   7146.33  7.4290906E-01
   7146.67  7.4687462E-01
   7147.00  7.4995523E-01
   7147.33  7.5219304E-01
   7147.67  7.5380067E-01
   7148.00  7.5486806E-01
   7148.33  7.5543372E-01
   7148.67  7.5563871E-01
   7149.00  7.5554999E-01
   7149.33  7.5521046E-01
   7149.67  7.5471032E-01
   7150.00  7.5409509E-01
   7150.33  7.5339681E-01
   7150.67  7.5265163E-01
   7151.00  7.5187021E-01
   7151.33  7.5104398E-01
   7151.67  7.5015581E-01
   7152.00  7.4917203E-01
   7152.33  7.4801899E-01
   7152.67  7.4664380E-01
   7153.00  7.4497641E-01
   7153.33  7.4289181E-01
   7153.67  7.4034704E-01
   7154.00  7.3725946E-01
   7154.33  7.3346353E-01
   7154.67  7.2896916E-01
   7155.00  7.2373814E-01
   7155.33  7.1766245E-01
   7155.67  7.1085744E-01
   7156.00  7.0337072E-01
   7156.33  6.9521539E-01
   7156.67  6.8657995E-01
   7157.00  6.7757095E-01
   7157.33  6.6828237E-01
   7157.67  6.5886723E-01
   7158.00  6.4941560E-01
   7158.33  6.4000859E-01
   7158.67  6.3068161E-01
   7159.00  6.2144141E-01
   7159.33  6.1227681E-01
   7159.67  6.0313993E-01
   7160.00  5.9398991E-01
   7160.33  5.8477288E-01
   7160.67  5.7546098E-01
   7161.00  5.6603954E-01
   7161.33  5.5649936E-01
   7161.67  5.4687981E-01
   7162.00  5.3721833E-01
   7162.33  5.2757042E-01
   7162.67  5.1799308E-01
   7163.00  5.0853628E-01
   7163.33  4.9927501E-01
   7163.67  4.9023314E-01
   7164.00  4.8144228E-01
   7164.33  4.7296311E-01
   7164.67  4.6477572E-01
   7165.00  4.5688438E-01
   7165.33  4.4932296E-01
   7165.67  4.4204703E-01
   7166.00  4.3504666E-01
   7166.33  4.2833977E-01
   7166.67  4.2187842E-01
   7167.00  4.1564945E-01
   7167.33  4.0966411E-01
   7167.67  4.0388123E-01
   7168.00  3.9829080E-01
   7168.33  3.9290502E-01
   7168.67  3.8769255E-01
   7169.00  3.8264879E-01
   7169.33  3.7779235E-01
   7169.67  3.7309918E-01
   7170.00  3.6856293E-01
   7170.33  3.6420072E-01
   7170.67  3.6000777E-01
   7171.00  3.5601208E-01
   7171.33  3.5231374E-01
   7171.67  3.4901806E-01
   7172.00  3.4630831E-01
