    FDMNES
    energy     <xanes>
   7097.00  4.3675698E-03
   7097.33  4.4616784E-03
   7097.67  4.5597869E-03
   7098.00  4.6621635E-03
   7098.33  4.7697316E-03
   7098.67  4.8823020E-03
   7099.00  5.0002445E-03
   7099.33  5.1247729E-03
   7099.67  5.2557006E-03
   7100.00  5.3935529E-03
   7100.33  5.5399750E-03
   7100.67  5.6948077E-03
   7101.00  5.8588255E-03
   7101.33  6.0343400E-03
   7101.67  6.2212760E-03
   7102.00  6.4208244E-03
   7102.33  6.6363801E-03
   7102.67  6.8680772E-03
   7103.00  7.1178441E-03
   7103.33  7.3909420E-03
   7103.67  7.6880070E-03
   7104.00  8.0123663E-03
   7104.33  8.3727376E-03
   7104.67  8.7709852E-03
   7105.00  9.2133237E-03
   7105.33  9.7154855E-03
   7105.67  1.0282536E-02
   7106.00  1.0927340E-02
   7106.33  1.1681667E-02
   7106.67  1.2559870E-02
   7107.00  1.3592568E-02
   7107.33  1.4854668E-02
   7107.67  1.6392371E-02
   7108.00  1.8294668E-02
   7108.33  2.0783382E-02
   7108.67  2.4046348E-02
   7109.00  2.8435355E-02
   7109.33  3.4892534E-02
   7109.67  4.4552533E-02
   7110.00  5.9656044E-02
   7110.33  8.6736612E-02
   7110.67  1.3265064E-01
   7111.00  1.9619038E-01
   7111.33  2.4044013E-01
   7111.67  2.4743571E-01
   7112.00  2.3518898E-01
   7112.33  2.2538416E-01
   7112.67  2.1521770E-01
   7113.00  1.9130112E-01
   7113.33  1.5846467E-01
   7113.67  1.2753610E-01
   7114.00  1.0324541E-01
   7114.33  8.6112599E-02
   7114.67  7.2284776E-02
   7115.00  6.1417339E-02
   7115.33  5.3365861E-02
   7115.67  4.7602707E-02
   7116.00  4.3933165E-02
   7116.33  4.2027447E-02
   7116.67  4.1229921E-02
   7117.00  4.1263583E-02
   7117.33  4.1989216E-02
   7117.67  4.3248632E-02
   7118.00  4.5100150E-02
   7118.33  4.7788562E-02
   7118.67  5.1359332E-02
   7119.00  5.5865969E-02
   7119.33  6.1301800E-02
   7119.67  6.7089605E-02
   7120.00  7.2473824E-02
   7120.33  7.6481233E-02
   7120.67  7.9328666E-02
   7121.00  8.1758149E-02
   7121.33  8.4698791E-02
   7121.67  8.8611886E-02
   7122.00  9.3763533E-02
   7122.33  1.0067600E-01
   7122.67  1.0962399E-01
   7123.00  1.2113955E-01
   7123.33  1.3637793E-01
   7123.67  1.5575977E-01
   7124.00  1.8003287E-01
   7124.33  2.1081031E-01
   7124.67  2.4832714E-01
   7125.00  2.9352583E-01
   7125.33  3.4844429E-01
   7125.67  4.1139463E-01
   7126.00  4.7768051E-01
   7126.33  5.3103655E-01
   7126.67  5.5834283E-01
   7127.00  5.6511682E-01
   7127.33  5.7129414E-01
   7127.67  5.8957304E-01
   7128.00  6.2230054E-01
   7128.33  6.6927357E-01
   7128.67  7.2560485E-01
   7129.00  7.8801498E-01
   7129.33  8.5212556E-01
   7129.67  9.1245420E-01
   7130.00  9.6487098E-01
   7130.33  1.0052693E+00
   7130.67  1.0345734E+00
   7131.00  1.0533117E+00
   7131.33  1.0607235E+00
   7131.67  1.0582985E+00
   7132.00  1.0464197E+00
   7132.33  1.0251038E+00
   7132.67  9.9717295E-01
   7133.00  9.6463952E-01
   7133.33  9.3005422E-01
   7133.67  8.9651956E-01
   7134.00  8.6591333E-01
   7134.33  8.3912847E-01
   7134.67  8.1436408E-01
   7135.00  7.9018111E-01
   7135.33  7.6590861E-01
   7135.67  7.4184976E-01
   7136.00  7.1847508E-01
   7136.33  6.9637101E-01
   7136.67  6.7568479E-01
   7137.00  6.5657398E-01
   7137.33  6.3936470E-01
   7137.67  6.2390060E-01
   7138.00  6.1019715E-01
   7138.33  5.9847863E-01
   7138.67  5.8851232E-01
   7139.00  5.8026788E-01
   7139.33  5.7388664E-01
   7139.67  5.6906233E-01
   7140.00  5.6568573E-01
   7140.33  5.6376900E-01
   7140.67  5.6298287E-01
   7141.00  5.6317616E-01
   7141.33  5.6426798E-01
   7141.67  5.6597736E-01
   7142.00  5.6815753E-01
   7142.33  5.7069789E-01
   7142.67  5.7340636E-01
   7143.00  5.7614838E-01
   7143.33  5.7876114E-01
   7143.67  5.8112884E-01
   7144.00  5.8317562E-01
   7144.33  5.8482095E-01
   7144.67  5.8609847E-01
   7145.00  5.8700632E-01
   7145.33  5.8750683E-01
   7145.67  5.8766414E-01
   7146.00  5.8750262E-01
   7146.33  5.8702016E-01
   7146.67  5.8627683E-01
   7147.00  5.8527603E-01
   7147.33  5.8397473E-01
   7147.67  5.8237459E-01
   7148.00  5.8042386E-01
   7148.33  5.7798303E-01
   7148.67  5.7500813E-01
   7149.00  5.7141534E-01
   7149.33  5.6703082E-01
   7149.67  5.6187847E-01
   7150.00  5.5592502E-01
   7150.33  5.4905505E-01
   7150.67  5.4138127E-01
   7151.00  5.3292891E-01
   7151.33  5.2364981E-01
   7151.67  5.1369550E-01
   7152.00  5.0313158E-01
   7152.33  4.9197314E-01
   7152.67  4.8036743E-01
   7153.00  4.6838828E-01
   7153.33  4.5609107E-01
   7153.67  4.4360523E-01
   7154.00  4.3101189E-01
   7154.33  4.1840082E-01
   7154.67  4.0586115E-01
   7155.00  3.9346247E-01
   7155.33  3.8130695E-01
   7155.67  3.6943768E-01
   7156.00  3.5791167E-01
   7156.33  3.4684229E-01
   7156.67  3.3623817E-01
   7157.00  3.2614770E-01
   7157.33  3.1669335E-01
   7157.67  3.0785174E-01
   7158.00  2.9966080E-01
   7158.33  2.9224770E-01
   7158.67  2.8556347E-01
   7159.00  2.7963721E-01
   7159.33  2.7459532E-01
   7159.67  2.7036102E-01
   7160.00  2.6694771E-01
   7160.33  2.6446874E-01
   7160.67  2.6282380E-01
   7161.00  2.6201053E-01
   7161.33  2.6212282E-01
   7161.67  2.6304185E-01
   7162.00  2.6474779E-01
   7162.33  2.6731392E-01
   7162.67  2.7061962E-01
   7163.00  2.7463046E-01
   7163.33  2.7935880E-01
   7163.67  2.8463287E-01
   7164.00  2.9035244E-01
   7164.33  2.9642016E-01
   7164.67  3.0265773E-01
   7165.00  3.0894575E-01
   7165.33  3.1515174E-01
   7165.67  3.2118592E-01
   7166.00  3.2698564E-01
   7166.33  3.3247148E-01
   7166.67  3.3766265E-01
   7167.00  3.4256428E-01
   7167.33  3.4716243E-01
   7167.67  3.5151789E-01
   7168.00  3.5565932E-01
   7168.33  3.5960328E-01
   7168.67  3.6340949E-01
   7169.00  3.6710636E-01
   7169.33  3.7071056E-01
   7169.67  3.7425157E-01
   7170.00  3.7773874E-01
   7170.33  3.8116671E-01
   7170.67  3.8452906E-01
   7171.00  3.8779712E-01
   7171.33  3.9088104E-01
   7171.67  3.9366252E-01
   7172.00  3.9595403E-01
