    FDMNES
    energy     <xanes>
   7097.00  4.9842186E-03
   7097.33  5.0986212E-03
   7097.67  5.2181382E-03
   7098.00  5.3431154E-03
   7098.33  5.4747356E-03
   7098.67  5.6127568E-03
   7099.00  5.7576503E-03
   7099.33  5.9109641E-03
   7099.67  6.0724513E-03
   7100.00  6.2427730E-03
   7100.33  6.4240084E-03
   7100.67  6.6159310E-03
   7101.00  6.8194971E-03
   7101.33  7.0375892E-03
   7101.67  7.2700558E-03
   7102.00  7.5183333E-03
   7102.33  7.7865721E-03
   7102.67  8.0748173E-03
   7103.00  8.3853268E-03
   7103.33  8.7243593E-03
   7103.67  9.0924344E-03
   7104.00  9.4933049E-03
   7104.33  9.9369708E-03
   7104.67  1.0425096E-02
   7105.00  1.0964372E-02
   7105.33  1.1572012E-02
   7105.67  1.2252571E-02
   7106.00  1.3019141E-02
   7106.33  1.3904435E-02
   7106.67  1.4921046E-02
   7107.00  1.6098047E-02
   7107.33  1.7506918E-02
   7107.67  1.9186304E-02
   7108.00  2.1213926E-02
   7108.33  2.3782546E-02
   7108.67  2.7039046E-02
   7109.00  3.1262167E-02
   7109.33  3.7186390E-02
   7109.67  4.5631433E-02
   7110.00  5.8206108E-02
   7110.33  7.9520759E-02
   7110.67  1.1427082E-01
   7111.00  1.6257032E-01
   7111.33  2.0724216E-01
   7111.67  2.3823363E-01
   7112.00  2.6437618E-01
   7112.33  2.9186975E-01
   7112.67  3.1997371E-01
   7113.00  3.5001511E-01
   7113.33  3.7349159E-01
   7113.67  3.7564609E-01
   7114.00  3.4812964E-01
   7114.33  3.0057489E-01
   7114.67  2.5427566E-01
   7115.00  2.1694956E-01
   7115.33  1.9083669E-01
   7115.67  1.7245361E-01
   7116.00  1.5922873E-01
   7116.33  1.4846834E-01
   7116.67  1.3790949E-01
   7117.00  1.2770050E-01
   7117.33  1.1976106E-01
   7117.67  1.1501035E-01
   7118.00  1.1362851E-01
   7118.33  1.1584001E-01
   7118.67  1.2092944E-01
   7119.00  1.2829777E-01
   7119.33  1.3649962E-01
   7119.67  1.4326511E-01
   7120.00  1.4718537E-01
   7120.33  1.4753896E-01
   7120.67  1.4565067E-01
   7121.00  1.4297860E-01
   7121.33  1.4147231E-01
   7121.67  1.4239606E-01
   7122.00  1.4635168E-01
   7122.33  1.5377218E-01
   7122.67  1.6401981E-01
   7123.00  1.7719721E-01
   7123.33  1.9429137E-01
   7123.67  2.1489709E-01
   7124.00  2.3833238E-01
   7124.33  2.6383004E-01
   7124.67  2.9031219E-01
   7125.00  3.1696355E-01
   7125.33  3.4226527E-01
   7125.67  3.6461692E-01
   7126.00  3.8268371E-01
   7126.33  3.9550244E-01
   7126.67  4.0499073E-01
   7127.00  4.1306447E-01
   7127.33  4.2181816E-01
   7127.67  4.3259509E-01
   7128.00  4.4620753E-01
   7128.33  4.6359117E-01
   7128.67  4.8433915E-01
   7129.00  5.0830225E-01
   7129.33  5.3618748E-01
   7129.67  5.6829717E-01
   7130.00  6.0520896E-01
   7130.33  6.4822522E-01
   7130.67  6.9718813E-01
   7131.00  7.5141777E-01
   7131.33  8.0683934E-01
   7131.67  8.5564406E-01
   7132.00  8.9217404E-01
   7132.33  9.1387734E-01
   7132.67  9.2588789E-01
   7133.00  9.3090138E-01
   7133.33  9.2918359E-01
   7133.67  9.2147281E-01
   7134.00  9.0829831E-01
   7134.33  8.9088648E-01
   7134.67  8.7169501E-01
   7135.00  8.5191887E-01
   7135.33  8.3228897E-01
   7135.67  8.1313831E-01
   7136.00  7.9465358E-01
   7136.33  7.7699789E-01
   7136.67  7.5995406E-01
   7137.00  7.4331853E-01
   7137.33  7.2694778E-01
   7137.67  7.1087794E-01
   7138.00  6.9538843E-01
   7138.33  6.8108510E-01
   7138.67  6.6829665E-01
   7139.00  6.5729867E-01
   7139.33  6.4848389E-01
   7139.67  6.4162481E-01
   7140.00  6.3665628E-01
   7140.33  6.3363870E-01
   7140.67  6.3211546E-01
   7141.00  6.3181705E-01
   7141.33  6.3246932E-01
   7141.67  6.3353566E-01
   7142.00  6.3462831E-01
   7142.33  6.3525746E-01
   7142.67  6.3508931E-01
   7143.00  6.3386200E-01
   7143.33  6.3121177E-01
   7143.67  6.2720376E-01
   7144.00  6.2184260E-01
   7144.33  6.1505791E-01
   7144.67  6.0716469E-01
   7145.00  5.9833834E-01
   7145.33  5.8872783E-01
   7145.67  5.7866014E-01
   7146.00  5.6830785E-01
   7146.33  5.5781930E-01
   7146.67  5.4735595E-01
   7147.00  5.3703160E-01
   7147.33  5.2699229E-01
   7147.67  5.1730012E-01
   7148.00  5.0802007E-01
   7148.33  4.9927104E-01
   7148.67  4.9104272E-01
   7149.00  4.8336817E-01
   7149.33  4.7634737E-01
   7149.67  4.6992831E-01
   7150.00  4.6412682E-01
   7150.33  4.5903704E-01
   7150.67  4.5458993E-01
   7151.00  4.5078842E-01
   7151.33  4.4770702E-01
   7151.67  4.4524973E-01
   7152.00  4.4339066E-01
   7152.33  4.4215106E-01
   7152.67  4.4139815E-01
   7153.00  4.4106559E-01
   7153.33  4.4110481E-01
   7153.67  4.4137555E-01
   7154.00  4.4179323E-01
   7154.33  4.4227400E-01
   7154.67  4.4273374E-01
   7155.00  4.4312040E-01
   7155.33  4.4337671E-01
   7155.67  4.4349277E-01
   7156.00  4.4346071E-01
   7156.33  4.4326664E-01
   7156.67  4.4294507E-01
   7157.00  4.4251863E-01
   7157.33  4.4201312E-01
   7157.67  4.4147878E-01
   7158.00  4.4095511E-01
   7158.33  4.4049845E-01
   7158.67  4.4015105E-01
   7159.00  4.3995430E-01
   7159.33  4.3997665E-01
   7159.67  4.4023054E-01
   7160.00  4.4073947E-01
   7160.33  4.4155300E-01
   7160.67  4.4264134E-01
   7161.00  4.4399857E-01
   7161.33  4.4563704E-01
   7161.67  4.4749236E-01
   7162.00  4.4952447E-01
   7162.33  4.5169277E-01
   7162.67  4.5391511E-01
   7163.00  4.5611957E-01
   7163.33  4.5820723E-01
   7163.67  4.6012573E-01
   7164.00  4.6183376E-01
   7164.33  4.6326568E-01
   7164.67  4.6443243E-01
   7165.00  4.6532954E-01
   7165.33  4.6593326E-01
   7165.67  4.6629806E-01
   7166.00  4.6644989E-01
   7166.33  4.6640154E-01
   7166.67  4.6621318E-01
   7167.00  4.6591821E-01
   7167.33  4.6554623E-01
   7167.67  4.6514121E-01
   7168.00  4.6473088E-01
   7168.33  4.6434760E-01
   7168.67  4.6401420E-01
   7169.00  4.6374976E-01
   7169.33  4.6358636E-01
   7169.67  4.6353002E-01
   7170.00  4.6358685E-01
   7170.33  4.6377067E-01
   7170.67  4.6406027E-01
   7171.00  4.6444189E-01
   7171.33  4.6489376E-01
   7171.67  4.6535593E-01
   7172.00  4.6576198E-01
