    FDMNES
    energy     <xanes>
   7097.00  4.9843676E-03
   7097.33  5.0986451E-03
   7097.67  5.2180251E-03
   7098.00  5.3428520E-03
   7098.33  5.4743053E-03
   7098.67  5.6121430E-03
   7099.00  5.7568348E-03
   7099.33  5.9099233E-03
   7099.67  6.0711620E-03
   7100.00  6.2412088E-03
   7100.33  6.4221360E-03
   7100.67  6.6137164E-03
   7101.00  6.8169020E-03
   7101.33  7.0345644E-03
   7101.67  7.2665505E-03
   7102.00  7.5142902E-03
   7102.33  7.7819160E-03
   7102.67  8.0694700E-03
   7103.00  8.3791986E-03
   7103.33  8.7173310E-03
   7103.67  9.0843800E-03
   7104.00  9.4840776E-03
   7104.33  9.9263719E-03
   7104.67  1.0412911E-02
   7105.00  1.0950347E-02
   7105.33  1.1555792E-02
   7105.67  1.2233763E-02
   7106.00  1.2997267E-02
   7106.33  1.3878807E-02
   7106.67  1.4890871E-02
   7107.00  1.6062321E-02
   7107.33  1.7464126E-02
   7107.67  1.9134597E-02
   7108.00  2.1150830E-02
   7108.33  2.3704028E-02
   7108.67  2.6939722E-02
   7109.00  3.1134135E-02
   7109.33  3.7015002E-02
   7109.67  4.5393824E-02
   7110.00  5.7863180E-02
   7110.33  7.8985779E-02
   7110.67  1.1340526E-01
   7111.00  1.6124621E-01
   7111.33  2.0566144E-01
   7111.67  2.3661918E-01
   7112.00  2.6273710E-01
   7112.33  2.9041110E-01
   7112.67  3.1867198E-01
   7113.00  3.4869613E-01
   7113.33  3.7240964E-01
   7113.67  3.7531975E-01
   7114.00  3.4842893E-01
   7114.33  3.0082792E-01
   7114.67  2.5429232E-01
   7115.00  2.1680691E-01
   7115.33  1.9066208E-01
   7115.67  1.7229795E-01
   7116.00  1.5909300E-01
   7116.33  1.4833146E-01
   7116.67  1.3776973E-01
   7117.00  1.2757767E-01
   7117.33  1.1968613E-01
   7117.67  1.1500711E-01
   7118.00  1.1372035E-01
   7118.33  1.1605764E-01
   7118.67  1.2130845E-01
   7119.00  1.2888485E-01
   7119.33  1.3734030E-01
   7119.67  1.4433314E-01
   7120.00  1.4838099E-01
   7120.33  1.4875125E-01
   7120.67  1.4684574E-01
   7121.00  1.4413465E-01
   7121.33  1.4255081E-01
   7121.67  1.4338981E-01
   7122.00  1.4729816E-01
   7122.33  1.5476730E-01
   7122.67  1.6516806E-01
   7123.00  1.7857163E-01
   7123.33  1.9590883E-01
   7123.67  2.1673511E-01
   7124.00  2.4035429E-01
   7124.33  2.6601431E-01
   7124.67  2.9266337E-01
   7125.00  3.1947405E-01
   7125.33  3.4486992E-01
   7125.67  3.6721643E-01
   7126.00  3.8518955E-01
   7126.33  3.9788334E-01
   7126.67  4.0727666E-01
   7127.00  4.1531128E-01
   7127.33  4.2409651E-01
   7127.67  4.3491902E-01
   7128.00  4.4848949E-01
   7128.33  4.6556823E-01
   7128.67  4.8569898E-01
   7129.00  5.0876559E-01
   7129.33  5.3560549E-01
   7129.67  5.6675794E-01
   7130.00  6.0293548E-01
   7130.33  6.4551689E-01
   7130.67  6.9433281E-01
   7131.00  7.4877357E-01
   7131.33  8.0488016E-01
   7131.67  8.5467065E-01
   7132.00  8.9226210E-01
   7132.33  9.1495422E-01
   7132.67  9.2791753E-01
   7133.00  9.3382332E-01
   7133.33  9.3274300E-01
   7133.67  9.2527550E-01
   7134.00  9.1192295E-01
   7134.33  8.9398377E-01
   7134.67  8.7411114E-01
   7135.00  8.5359738E-01
   7135.33  8.3323866E-01
   7135.67  8.1340788E-01
   7136.00  7.9432118E-01
   7136.33  7.7618666E-01
   7136.67  7.5880165E-01
   7137.00  7.4198081E-01
   7137.33  7.2560502E-01
   7137.67  7.0966655E-01
   7138.00  6.9440119E-01
   7138.33  6.8035150E-01
   7138.67  6.6777565E-01
   7139.00  6.5690293E-01
   7139.33  6.4808304E-01
   7139.67  6.4109927E-01
   7140.00  6.3589833E-01
   7140.33  6.3255740E-01
   7140.67  6.3066508E-01
   7141.00  6.2998317E-01
   7141.33  6.3027172E-01
   7141.67  6.3101511E-01
   7142.00  6.3183760E-01
   7142.33  6.3226272E-01
   7142.67  6.3194899E-01
   7143.00  6.3063069E-01
   7143.33  6.2794200E-01
   7143.67  6.2393117E-01
   7144.00  6.1859178E-01
   7144.33  6.1184246E-01
   7144.67  6.0398775E-01
   7145.00  5.9520030E-01
   7145.33  5.8563121E-01
   7145.67  5.7560859E-01
   7146.00  5.6530611E-01
   7146.33  5.5487979E-01
   7146.67  5.4449626E-01
   7147.00  5.3427216E-01
   7147.33  5.2435634E-01
   7147.67  5.1480620E-01
   7148.00  5.0568366E-01
   7148.33  4.9710496E-01
   7148.67  4.8905412E-01
   7149.00  4.8156102E-01
   7149.33  4.7472275E-01
   7149.67  4.6848485E-01
   7150.00  4.6286168E-01
   7150.33  4.5794553E-01
   7150.67  4.5366665E-01
   7151.00  4.5002668E-01
   7151.33  4.4709706E-01
   7151.67  4.4478029E-01
   7152.00  4.4304794E-01
   7152.33  4.4191639E-01
   7152.67  4.4125286E-01
   7153.00  4.4098999E-01
   7153.33  4.4107669E-01
   7153.67  4.4137665E-01
   7154.00  4.4180763E-01
   7154.33  4.4228743E-01
   7154.67  4.4273684E-01
   7155.00  4.4310663E-01
   7155.33  4.4334228E-01
   7155.67  4.4343741E-01
   7156.00  4.4338685E-01
   7156.33  4.4318048E-01
   7156.67  4.4285496E-01
   7157.00  4.4243497E-01
   7157.33  4.4194953E-01
   7157.67  4.4144818E-01
   7158.00  4.4097041E-01
   7158.33  4.4057314E-01
   7158.67  4.4029536E-01
   7159.00  4.4017633E-01
   7159.33  4.4028212E-01
   7159.67  4.4062134E-01
   7160.00  4.4121480E-01
   7160.33  4.4210907E-01
   7160.67  4.4327313E-01
   7161.00  4.4470056E-01
   7161.33  4.4640349E-01
   7161.67  4.4831886E-01
   7162.00  4.5040785E-01
   7162.33  4.5263213E-01
   7162.67  4.5491286E-01
   7163.00  4.5718380E-01
   7163.33  4.5935223E-01
   7163.67  4.6135919E-01
   7164.00  4.6315998E-01
   7164.33  4.6468718E-01
   7164.67  4.6594872E-01
   7165.00  4.6693747E-01
   7165.33  4.6762615E-01
   7165.67  4.6806769E-01
   7166.00  4.6828661E-01
   7166.33  4.6829340E-01
   7166.67  4.6814936E-01
   7167.00  4.6788814E-01
   7167.33  4.6753845E-01
   7167.67  4.6714595E-01
   7168.00  4.6673877E-01
   7168.33  4.6634861E-01
   7168.67  4.6599966E-01
   7169.00  4.6571109E-01
   7169.33  4.6551396E-01
   7169.67  4.6541551E-01
   7170.00  4.6542229E-01
   7170.33  4.6554802E-01
   7170.67  4.6577350E-01
   7171.00  4.6608654E-01
   7171.33  4.6646833E-01
   7171.67  4.6686444E-01
   7172.00  4.6721523E-01
