    FDMNES
    energy     <xanes>
   7097.00  4.9857810E-03
   7097.33  5.0949143E-03
   7097.67  5.2086777E-03
   7098.00  5.3273677E-03
   7098.33  5.4520280E-03
   7098.67  5.5824168E-03
   7099.00  5.7189330E-03
   7099.33  5.8629222E-03
   7099.67  6.0141304E-03
   7100.00  6.1731077E-03
   7100.33  6.3416318E-03
   7100.67  6.5194522E-03
   7101.00  6.7073499E-03
   7101.33  6.9077422E-03
   7101.67  7.1204181E-03
   7102.00  7.3465259E-03
   7102.33  7.5894686E-03
   7102.67  7.8491550E-03
   7103.00  8.1273457E-03
   7103.33  8.4290393E-03
   7103.67  8.7544461E-03
   7104.00  9.1064086E-03
   7104.33  9.4926684E-03
   7104.67  9.9141676E-03
   7105.00  1.0375804E-02
   7105.33  1.0890411E-02
   7105.67  1.1460757E-02
   7106.00  1.2096031E-02
   7106.33  1.2819522E-02
   7106.67  1.3638925E-02
   7107.00  1.4573612E-02
   7107.33  1.5671580E-02
   7107.67  1.6955767E-02
   7108.00  1.8474595E-02
   7108.33  2.0347897E-02
   7108.67  2.2657922E-02
   7109.00  2.5563392E-02
   7109.33  2.9475750E-02
   7109.67  3.4815150E-02
   7110.00  4.2400519E-02
   7110.33  5.4545523E-02
   7110.67  7.3714987E-02
   7111.00  1.0135765E-01
   7111.33  1.3517331E-01
   7111.67  1.6955168E-01
   7112.00  1.9668637E-01
   7112.33  2.1609645E-01
   7112.67  2.4646801E-01
   7113.00  2.9289404E-01
   7113.33  3.2854749E-01
   7113.67  3.3783439E-01
   7114.00  3.2925009E-01
   7114.33  3.2010376E-01
   7114.67  3.1019073E-01
   7115.00  2.9018148E-01
   7115.33  2.6402145E-01
   7115.67  2.4102005E-01
   7116.00  2.2354642E-01
   7116.33  2.1202783E-01
   7116.67  2.0363931E-01
   7117.00  1.9444396E-01
   7117.33  1.8005776E-01
   7117.67  1.6336092E-01
   7118.00  1.4902311E-01
   7118.33  1.4020860E-01
   7118.67  1.3577064E-01
   7119.00  1.3468953E-01
   7119.33  1.3605710E-01
   7119.67  1.3838801E-01
   7120.00  1.4078561E-01
   7120.33  1.4252716E-01
   7120.67  1.4359353E-01
   7121.00  1.4449427E-01
   7121.33  1.4662833E-01
   7121.67  1.5101631E-01
   7122.00  1.5786417E-01
   7122.33  1.6700203E-01
   7122.67  1.7766502E-01
   7123.00  1.8960544E-01
   7123.33  2.0323969E-01
   7123.67  2.1895788E-01
   7124.00  2.3712153E-01
   7124.33  2.5814157E-01
   7124.67  2.8127356E-01
   7125.00  3.0560044E-01
   7125.33  3.2961649E-01
   7125.67  3.5252027E-01
   7126.00  3.7505386E-01
   7126.33  3.9912894E-01
   7126.67  4.2552468E-01
   7127.00  4.5393356E-01
   7127.33  4.8289696E-01
   7127.67  5.0985353E-01
   7128.00  5.3256062E-01
   7128.33  5.4914796E-01
   7128.67  5.6153490E-01
   7129.00  5.7216527E-01
   7129.33  5.8430319E-01
   7129.67  6.0056942E-01
   7130.00  6.2270954E-01
   7130.33  6.5113925E-01
   7130.67  6.8173020E-01
   7131.00  7.1088742E-01
   7131.33  7.3611342E-01
   7131.67  7.5830431E-01
   7132.00  7.7876724E-01
   7132.33  7.9913559E-01
   7132.67  8.2083475E-01
   7133.00  8.4474300E-01
   7133.33  8.7153663E-01
   7133.67  8.9976017E-01
   7134.00  9.2616701E-01
   7134.33  9.4327121E-01
   7134.67  9.4701655E-01
   7135.00  9.3730890E-01
   7135.33  9.1595883E-01
   7135.67  8.8776768E-01
   7136.00  8.5528070E-01
   7136.33  8.2069991E-01
   7136.67  7.8614644E-01
   7137.00  7.5281247E-01
   7137.33  7.2190842E-01
   7137.67  6.9369591E-01
   7138.00  6.6839344E-01
   7138.33  6.4648164E-01
   7138.67  6.2759410E-01
   7139.00  6.1168384E-01
   7139.33  5.9898870E-01
   7139.67  5.8895812E-01
   7140.00  5.8136437E-01
   7140.33  5.7613423E-01
   7140.67  5.7260811E-01
   7141.00  5.7041514E-01
   7141.33  5.6922470E-01
   7141.67  5.6849954E-01
   7142.00  5.6790526E-01
   7142.33  5.6707814E-01
   7142.67  5.6577502E-01
   7143.00  5.6382870E-01
   7143.33  5.6103218E-01
   7143.67  5.5745273E-01
   7144.00  5.5311191E-01
   7144.33  5.4797856E-01
   7144.67  5.4224031E-01
   7145.00  5.3601161E-01
   7145.33  5.2939809E-01
   7145.67  5.2259009E-01
   7146.00  5.1570392E-01
   7146.33  5.0886139E-01
   7146.67  5.0215377E-01
   7147.00  4.9564884E-01
   7147.33  4.8944541E-01
   7147.67  4.8356552E-01
   7148.00  4.7805253E-01
   7148.33  4.7300578E-01
   7148.67  4.6841843E-01
   7149.00  4.6432628E-01
   7149.33  4.6083128E-01
   7149.67  4.5789409E-01
   7150.00  4.5552822E-01
   7150.33  4.5379856E-01
   7150.67  4.5260258E-01
   7151.00  4.5189499E-01
   7151.33  4.5165604E-01
   7151.67  4.5174792E-01
   7152.00  4.5209378E-01
   7152.33  4.5263081E-01
   7152.67  4.5327192E-01
   7153.00  4.5398247E-01
   7153.33  4.5474904E-01
   7153.67  4.5555766E-01
   7154.00  4.5640821E-01
   7154.33  4.5731140E-01
   7154.67  4.5826845E-01
   7155.00  4.5928367E-01
   7155.33  4.6036509E-01
   7155.67  4.6150084E-01
   7156.00  4.6268374E-01
   7156.33  4.6390953E-01
   7156.67  4.6516454E-01
   7157.00  4.6643927E-01
   7157.33  4.6772380E-01
   7157.67  4.6900831E-01
   7158.00  4.7028777E-01
   7158.33  4.7155807E-01
   7158.67  4.7281926E-01
   7159.00  4.7407213E-01
   7159.33  4.7532021E-01
   7159.67  4.7657135E-01
   7160.00  4.7783390E-01
   7160.33  4.7912167E-01
   7160.67  4.8044251E-01
   7161.00  4.8180461E-01
   7161.33  4.8322187E-01
   7161.67  4.8469389E-01
   7162.00  4.8622468E-01
   7162.33  4.8782507E-01
   7162.67  4.8948839E-01
   7163.00  4.9121356E-01
   7163.33  4.9300318E-01
   7163.67  4.9484558E-01
   7164.00  4.9673445E-01
   7164.33  4.9866694E-01
   7164.67  5.0063569E-01
   7165.00  5.0263863E-01
   7165.33  5.0467468E-01
   7165.67  5.0673335E-01
   7166.00  5.0880718E-01
   7166.33  5.1088539E-01
   7166.67  5.1295226E-01
   7167.00  5.1499113E-01
   7167.33  5.1697349E-01
   7167.67  5.1888143E-01
   7168.00  5.2069325E-01
   7168.33  5.2236802E-01
   7168.67  5.2389617E-01
   7169.00  5.2525883E-01
   7169.33  5.2641673E-01
   7169.67  5.2738112E-01
   7170.00  5.2814400E-01
   7170.33  5.2867540E-01
   7170.67  5.2900498E-01
   7171.00  5.2914508E-01
   7171.33  5.2910612E-01
   7171.67  5.2896654E-01
   7172.00  5.2880540E-01
