    FDMNES
    energy     <xanes>
   7097.00  4.5540714E-03
   7097.33  4.6490501E-03
   7097.67  4.7478525E-03
   7098.00  4.8507150E-03
   7098.33  4.9584856E-03
   7098.67  5.0709543E-03
   7099.00  5.1884380E-03
   7099.33  5.3120238E-03
   7099.67  5.4414910E-03
   7100.00  5.5772758E-03
   7100.33  5.7208076E-03
   7100.67  5.8718684E-03
   7101.00  6.0310777E-03
   7101.33  6.2003733E-03
   7101.67  6.3795705E-03
   7102.00  6.5695831E-03
   7102.33  6.7731384E-03
   7102.67  6.9901540E-03
   7103.00  7.2220415E-03
   7103.33  7.4728208E-03
   7103.67  7.7426729E-03
   7104.00  8.0339057E-03
   7104.33  8.3528026E-03
   7104.67  8.7001978E-03
   7105.00  9.0801489E-03
   7105.33  9.5032571E-03
   7105.67  9.9720364E-03
   7106.00  1.0494338E-02
   7106.33  1.1089987E-02
   7106.67  1.1766228E-02
   7107.00  1.2540398E-02
   7107.33  1.3455405E-02
   7107.67  1.4534044E-02
   7108.00  1.5822803E-02
   7108.33  1.7437529E-02
   7108.67  1.9466944E-02
   7109.00  2.2080395E-02
   7109.33  2.5726870E-02
   7109.67  3.0916089E-02
   7110.00  3.8654453E-02
   7110.33  5.1858244E-02
   7110.67  7.3623255E-02
   7111.00  1.0397724E-01
   7111.33  1.2841435E-01
   7111.67  1.3734894E-01
   7112.00  1.3432659E-01
   7112.33  1.3626550E-01
   7112.67  1.5728520E-01
   7113.00  1.9939537E-01
   7113.33  2.4606000E-01
   7113.67  2.7141751E-01
   7114.00  2.7034611E-01
   7114.33  2.3056119E-01
   7114.67  1.7769731E-01
   7115.00  1.3667109E-01
   7115.33  1.1388103E-01
   7115.67  1.0238036E-01
   7116.00  9.8496890E-02
   7116.33  1.0007428E-01
   7116.67  1.0434175E-01
   7117.00  1.0952927E-01
   7117.33  1.1432186E-01
   7117.67  1.1872941E-01
   7118.00  1.2310996E-01
   7118.33  1.2751819E-01
   7118.67  1.3196942E-01
   7119.00  1.3731755E-01
   7119.33  1.4557846E-01
   7119.67  1.5731090E-01
   7120.00  1.7205251E-01
   7120.33  1.8840072E-01
   7120.67  2.0431626E-01
   7121.00  2.1861517E-01
   7121.33  2.3033512E-01
   7121.67  2.3969415E-01
   7122.00  2.4725952E-01
   7122.33  2.5432475E-01
   7122.67  2.6212339E-01
   7123.00  2.7116687E-01
   7123.33  2.8207061E-01
   7123.67  2.9524805E-01
   7124.00  3.1140852E-01
   7124.33  3.3161818E-01
   7124.67  3.5530709E-01
   7125.00  3.8166753E-01
   7125.33  4.0920409E-01
   7125.67  4.3542248E-01
   7126.00  4.5825745E-01
   7126.33  4.7661930E-01
   7126.67  4.9249376E-01
   7127.00  5.0717184E-01
   7127.33  5.2075236E-01
   7127.67  5.3273834E-01
   7128.00  5.4274728E-01
   7128.33  5.5069904E-01
   7128.67  5.5785415E-01
   7129.00  5.6566098E-01
   7129.33  5.7555388E-01
   7129.67  5.8711057E-01
   7130.00  5.9929685E-01
   7130.33  6.1050334E-01
   7130.67  6.1962746E-01
   7131.00  6.2630015E-01
   7131.33  6.3093124E-01
   7131.67  6.3513582E-01
   7132.00  6.4001881E-01
   7132.33  6.4638398E-01
   7132.67  6.5407954E-01
   7133.00  6.6285256E-01
   7133.33  6.7234990E-01
   7133.67  6.8200746E-01
   7134.00  6.9150269E-01
   7134.33  7.0070455E-01
   7134.67  7.0986485E-01
   7135.00  7.1921172E-01
   7135.33  7.2880328E-01
   7135.67  7.3850624E-01
   7136.00  7.4827502E-01
   7136.33  7.5810986E-01
   7136.67  7.6791630E-01
   7137.00  7.7745235E-01
   7137.33  7.8606465E-01
   7137.67  7.9301976E-01
   7138.00  7.9744875E-01
   7138.33  7.9791125E-01
   7138.67  7.9411601E-01
   7139.00  7.8582502E-01
   7139.33  7.7277792E-01
   7139.67  7.5629163E-01
   7140.00  7.3730383E-01
   7140.33  7.1677683E-01
   7140.67  6.9586278E-01
   7141.00  6.7522197E-01
   7141.33  6.5548883E-01
   7141.67  6.3686097E-01
   7142.00  6.1945050E-01
   7142.33  6.0342860E-01
   7142.67  5.8858452E-01
   7143.00  5.7484573E-01
   7143.33  5.6224587E-01
   7143.67  5.5055831E-01
   7144.00  5.3968541E-01
   7144.33  5.2958697E-01
   7144.67  5.2005365E-01
   7145.00  5.1100380E-01
   7145.33  5.0245408E-01
   7145.67  4.9438769E-01
   7146.00  4.8689402E-01
   7146.33  4.8019657E-01
   7146.67  4.7432799E-01
   7147.00  4.6934862E-01
   7147.33  4.6537451E-01
   7147.67  4.6223874E-01
   7148.00  4.5985747E-01
   7148.33  4.5817508E-01
   7148.67  4.5695494E-01
   7149.00  4.5605988E-01
   7149.33  4.5536760E-01
   7149.67  4.5473412E-01
   7150.00  4.5408256E-01
   7150.33  4.5335103E-01
   7150.67  4.5252642E-01
   7151.00  4.5160571E-01
   7151.33  4.5058271E-01
   7151.67  4.4947590E-01
   7152.00  4.4828870E-01
   7152.33  4.4700419E-01
   7152.67  4.4561752E-01
   7153.00  4.4411886E-01
   7153.33  4.4249112E-01
   7153.67  4.4075483E-01
   7154.00  4.3892477E-01
   7154.33  4.3700974E-01
   7154.67  4.3503246E-01
   7155.00  4.3300358E-01
   7155.33  4.3092889E-01
   7155.67  4.2882033E-01
   7156.00  4.2667980E-01
   7156.33  4.2450305E-01
   7156.67  4.2229436E-01
   7157.00  4.2005767E-01
   7157.33  4.1780596E-01
   7157.67  4.1557066E-01
   7158.00  4.1339072E-01
   7158.33  4.1133857E-01
   7158.67  4.0946367E-01
   7159.00  4.0781703E-01
   7159.33  4.0647885E-01
   7159.67  4.0543886E-01
   7160.00  4.0469809E-01
   7160.33  4.0427385E-01
   7160.67  4.0410050E-01
   7161.00  4.0414414E-01
   7161.33  4.0438334E-01
   7161.67  4.0475997E-01
   7162.00  4.0525105E-01
   7162.33  4.0585273E-01
   7162.67  4.0654932E-01
   7163.00  4.0734862E-01
   7163.33  4.0828586E-01
   7163.67  4.0937242E-01
   7164.00  4.1063220E-01
   7164.33  4.1211516E-01
   7164.67  4.1381674E-01
   7165.00  4.1574888E-01
   7165.33  4.1794776E-01
   7165.67  4.2038176E-01
   7166.00  4.2304260E-01
   7166.33  4.2594134E-01
   7166.67  4.2903241E-01
   7167.00  4.3229806E-01
   7167.33  4.3573728E-01
   7167.67  4.3931157E-01
   7168.00  4.4300527E-01
   7168.33  4.4681392E-01
   7168.67  4.5070741E-01
   7169.00  4.5466945E-01
   7169.33  4.5868355E-01
   7169.67  4.6271588E-01
   7170.00  4.6673563E-01
   7170.33  4.7068938E-01
   7170.67  4.7452516E-01
   7171.00  4.7817842E-01
   7171.33  4.8151405E-01
   7171.67  4.8442526E-01
   7172.00  4.8675774E-01
