    FDMNES
    energy     <xanes>
   7097.00  5.4054566E-03
   7097.33  5.5476382E-03
   7097.67  5.6968485E-03
   7098.00  5.8535872E-03
   7098.33  6.0195208E-03
   7098.67  6.1943469E-03
   7099.00  6.3787499E-03
   7099.33  6.5749273E-03
   7099.67  6.7825719E-03
   7100.00  7.0026437E-03
   7100.33  7.2381126E-03
   7100.67  7.4886985E-03
   7101.00  7.7557878E-03
   7101.33  8.0435090E-03
   7101.67  8.3516810E-03
   7102.00  8.6823730E-03
   7102.33  9.0415205E-03
   7102.67  9.4291966E-03
   7103.00  9.8486139E-03
   7103.33  1.0308658E-02
   7103.67  1.0809998E-02
   7104.00  1.1357868E-02
   7104.33  1.1966244E-02
   7104.67  1.2637180E-02
   7105.00  1.3379728E-02
   7105.33  1.4217270E-02
   7105.67  1.5155199E-02
   7106.00  1.6210397E-02
   7106.33  1.7425263E-02
   7106.67  1.8813805E-02
   7107.00  2.0410865E-02
   7107.33  2.2302166E-02
   7107.67  2.4526764E-02
   7108.00  2.7167565E-02
   7108.33  3.0427551E-02
   7108.67  3.4433811E-02
   7109.00  3.9431985E-02
   7109.33  4.6041378E-02
   7109.67  5.4815371E-02
   7110.00  6.6810125E-02
   7110.33  8.4906252E-02
   7110.67  1.1224068E-01
   7111.00  1.5266499E-01
   7111.33  2.1263648E-01
   7111.67  2.9632716E-01
   7112.00  4.0486210E-01
   7112.33  5.3317444E-01
   7112.67  6.5798898E-01
   7113.00  7.6958380E-01
   7113.33  8.2206259E-01
   7113.67  7.6760903E-01
   7114.00  6.4170681E-01
   7114.33  5.1631226E-01
   7114.67  4.1767802E-01
   7115.00  3.4442949E-01
   7115.33  2.9197585E-01
   7115.67  2.5232813E-01
   7116.00  2.2229802E-01
   7116.33  2.0044312E-01
   7116.67  1.8437024E-01
   7117.00  1.7335970E-01
   7117.33  1.6738020E-01
   7117.67  1.6453225E-01
   7118.00  1.6279041E-01
   7118.33  1.6056207E-01
   7118.67  1.5806150E-01
   7119.00  1.5578509E-01
   7119.33  1.5399607E-01
   7119.67  1.5206648E-01
   7120.00  1.4887128E-01
   7120.33  1.4299833E-01
   7120.67  1.3559343E-01
   7121.00  1.2891091E-01
   7121.33  1.2515383E-01
   7121.67  1.2407782E-01
   7122.00  1.2505902E-01
   7122.33  1.2758411E-01
   7122.67  1.3102665E-01
   7123.00  1.3515072E-01
   7123.33  1.4003025E-01
   7123.67  1.4589955E-01
   7124.00  1.5319902E-01
   7124.33  1.6279025E-01
   7124.67  1.7510368E-01
   7125.00  1.9067901E-01
   7125.33  2.0997740E-01
   7125.67  2.3095178E-01
   7126.00  2.5023811E-01
   7126.33  2.6256676E-01
   7126.67  2.6787935E-01
   7127.00  2.6956480E-01
   7127.33  2.7300241E-01
   7127.67  2.8134615E-01
   7128.00  2.9574979E-01
   7128.33  3.1705849E-01
   7128.67  3.4381920E-01
   7129.00  3.7514762E-01
   7129.33  4.1005818E-01
   7129.67  4.4636437E-01
   7130.00  4.8243603E-01
   7130.33  5.1648423E-01
   7130.67  5.4780410E-01
   7131.00  5.7621020E-01
   7131.33  6.0188489E-01
   7131.67  6.2623287E-01
   7132.00  6.5047699E-01
   7132.33  6.7598487E-01
   7132.67  7.0274635E-01
   7133.00  7.2933809E-01
   7133.33  7.5199499E-01
   7133.67  7.6758315E-01
   7134.00  7.7439254E-01
   7134.33  7.7159400E-01
   7134.67  7.6198865E-01
   7135.00  7.4722447E-01
   7135.33  7.2822157E-01
   7135.67  7.0620116E-01
   7136.00  6.8150499E-01
   7136.33  6.5418796E-01
   7136.67  6.2501494E-01
   7137.00  5.9454711E-01
   7137.33  5.6358186E-01
   7137.67  5.3326779E-01
   7138.00  5.0471716E-01
   7138.33  4.7967011E-01
   7138.67  4.5891159E-01
   7139.00  4.4315131E-01
   7139.33  4.3345238E-01
   7139.67  4.2903804E-01
   7140.00  4.2942679E-01
   7140.33  4.3411683E-01
   7140.67  4.4134482E-01
   7141.00  4.4996525E-01
   7141.33  4.5890770E-01
   7141.67  4.6746885E-01
   7142.00  4.7545034E-01
   7142.33  4.8288422E-01
   7142.67  4.9010058E-01
   7143.00  4.9734287E-01
   7143.33  5.0485659E-01
   7143.67  5.1275480E-01
   7144.00  5.2111712E-01
   7144.33  5.3006853E-01
   7144.67  5.3958280E-01
   7145.00  5.4968682E-01
   7145.33  5.6048847E-01
   7145.67  5.7193863E-01
   7146.00  5.8405583E-01
   7146.33  5.9693512E-01
   7146.67  6.1048468E-01
   7147.00  6.2468081E-01
   7147.33  6.3954828E-01
   7147.67  6.5493735E-01
   7148.00  6.7076371E-01
   7148.33  6.8694880E-01
   7148.67  7.0331404E-01
   7149.00  7.1972574E-01
   7149.33  7.3600120E-01
   7149.67  7.5198185E-01
   7150.00  7.6751727E-01
   7150.33  7.8235131E-01
   7150.67  7.9639103E-01
   7151.00  8.0951457E-01
   7151.33  8.2147156E-01
   7151.67  8.3226244E-01
   7152.00  8.4176176E-01
   7152.33  8.4962902E-01
   7152.67  8.5587945E-01
   7153.00  8.6037332E-01
   7153.33  8.6272666E-01
   7153.67  8.6306313E-01
   7154.00  8.6131980E-01
   7154.33  8.5721029E-01
   7154.67  8.5103251E-01
   7155.00  8.4286318E-01
   7155.33  8.3261106E-01
   7155.67  8.2069443E-01
   7156.00  8.0730171E-01
   7156.33  7.9251949E-01
   7156.67  7.7675595E-01
   7157.00  7.6022999E-01
   7157.33  7.4312248E-01
   7157.67  7.2572767E-01
   7158.00  7.0822644E-01
   7158.33  6.9081448E-01
   7158.67  6.7363780E-01
   7159.00  6.5680709E-01
   7159.33  6.4048313E-01
   7159.67  6.2469667E-01
   7160.00  6.0950884E-01
   7160.33  5.9504766E-01
   7160.67  5.8125672E-01
   7161.00  5.6814290E-01
   7161.33  5.5578370E-01
   7161.67  5.4407617E-01
   7162.00  5.3299559E-01
   7162.33  5.2257923E-01
   7162.67  5.1271111E-01
   7163.00  5.0335083E-01
   7163.33  4.9450390E-01
   7163.67  4.8606303E-01
   7164.00  4.7798737E-01
   7164.33  4.7027055E-01
   7164.67  4.6282984E-01
   7165.00  4.5563274E-01
   7165.33  4.4867313E-01
   7165.67  4.4189923E-01
   7166.00  4.3529532E-01
   7166.33  4.2886956E-01
   7166.67  4.2259832E-01
   7167.00  4.1648387E-01
   7167.33  4.1055421E-01
   7167.67  4.0479332E-01
   7168.00  3.9919607E-01
   7168.33  3.9377469E-01
   7168.67  3.8850765E-01
   7169.00  3.8339347E-01
   7169.33  3.7844304E-01
   7169.67  3.7362596E-01
   7170.00  3.6893013E-01
   7170.33  3.6435862E-01
   7170.67  3.5990053E-01
   7171.00  3.5558063E-01
   7171.33  3.5150327E-01
   7171.67  3.4781295E-01
   7172.00  3.4474811E-01
