    FDMNES
    energy     <xanes>
   7097.00  4.0763683E-03
   7097.33  4.1539526E-03
   7097.67  4.2344631E-03
   7098.00  4.3180801E-03
   7098.33  4.4054531E-03
   7098.67  4.4964232E-03
   7099.00  4.5912360E-03
   7099.33  4.6907308E-03
   7099.67  4.7947469E-03
   7100.00  4.9036295E-03
   7100.33  5.0184976E-03
   7100.67  5.1392039E-03
   7101.00  5.2662528E-03
   7101.33  5.4011930E-03
   7101.67  5.5439267E-03
   7102.00  5.6952240E-03
   7102.33  5.8573295E-03
   7102.67  6.0302753E-03
   7103.00  6.2153035E-03
   7103.33  6.4158566E-03
   7103.67  6.6322866E-03
   7104.00  6.8667339E-03
   7104.33  7.1248655E-03
   7104.67  7.4078281E-03
   7105.00  7.7196291E-03
   7105.33  8.0704748E-03
   7105.67  8.4636075E-03
   7106.00  8.9073745E-03
   7106.33  9.4224500E-03
   7106.67  1.0018225E-02
   7107.00  1.0714760E-02
   7107.33  1.1561218E-02
   7107.67  1.2588315E-02
   7108.00  1.3855127E-02
   7108.33  1.5509221E-02
   7108.67  1.7677342E-02
   7109.00  2.0596852E-02
   7109.33  2.4905597E-02
   7109.67  3.1380855E-02
   7110.00  4.1558176E-02
   7110.33  5.9885841E-02
   7110.67  9.0662180E-02
   7111.00  1.3179814E-01
   7111.33  1.6118104E-01
   7111.67  1.7232636E-01
   7112.00  1.6912000E-01
   7112.33  1.4233513E-01
   7112.67  1.0688795E-01
   7113.00  7.7534232E-02
   7113.33  5.9392569E-02
   7113.67  4.8746816E-02
   7114.00  4.3212439E-02
   7114.33  4.0293151E-02
   7114.67  3.7298222E-02
   7115.00  3.3877094E-02
   7115.33  3.1383990E-02
   7115.67  3.0162816E-02
   7116.00  2.9965604E-02
   7116.33  3.0647774E-02
   7116.67  3.2021150E-02
   7117.00  3.4053675E-02
   7117.33  3.6782650E-02
   7117.67  4.0145861E-02
   7118.00  4.4204248E-02
   7118.33  4.8731477E-02
   7118.67  5.2523753E-02
   7119.00  5.4791421E-02
   7119.33  5.6154936E-02
   7119.67  5.7762582E-02
   7120.00  5.9843179E-02
   7120.33  6.2173398E-02
   7120.67  6.4420537E-02
   7121.00  6.6595888E-02
   7121.33  6.9152255E-02
   7121.67  7.2708770E-02
   7122.00  7.7854373E-02
   7122.33  8.5486000E-02
   7122.67  9.5916881E-02
   7123.00  1.0968039E-01
   7123.33  1.2779640E-01
   7123.67  1.4979935E-01
   7124.00  1.7535137E-01
   7124.33  2.0607438E-01
   7124.67  2.4526814E-01
   7125.00  2.9671851E-01
   7125.33  3.6272010E-01
   7125.67  4.3304994E-01
   7126.00  4.9174417E-01
   7126.33  5.1937267E-01
   7126.67  5.2106220E-01
   7127.00  5.0692462E-01
   7127.33  4.8650972E-01
   7127.67  4.6980270E-01
   7128.00  4.6354578E-01
   7128.33  4.7372259E-01
   7128.67  5.0046981E-01
   7129.00  5.4556882E-01
   7129.33  6.1439753E-01
   7129.67  7.0693555E-01
   7130.00  8.2355775E-01
   7130.33  9.6006684E-01
   7130.67  1.0944892E+00
   7131.00  1.2007016E+00
   7131.33  1.2487394E+00
   7131.67  1.2433505E+00
   7132.00  1.1955920E+00
   7132.33  1.1181235E+00
   7132.67  1.0286356E+00
   7133.00  9.3734836E-01
   7133.33  8.5398011E-01
   7133.67  7.8288069E-01
   7134.00  7.2598255E-01
   7134.33  6.8474141E-01
   7134.67  6.5526421E-01
   7135.00  6.3531425E-01
   7135.33  6.2368455E-01
   7135.67  6.1802503E-01
   7136.00  6.1753375E-01
   7136.33  6.2204089E-01
   7136.67  6.3022023E-01
   7137.00  6.4120141E-01
   7137.33  6.5376614E-01
   7137.67  6.6590258E-01
   7138.00  6.7579130E-01
   7138.33  6.8090211E-01
   7138.67  6.8055334E-01
   7139.00  6.7477156E-01
   7139.33  6.6433017E-01
   7139.67  6.5183829E-01
   7140.00  6.3914239E-01
   7140.33  6.2811832E-01
   7140.67  6.1956308E-01
   7141.00  6.1378888E-01
   7141.33  6.1106989E-01
   7141.67  6.1076068E-01
   7142.00  6.1253871E-01
   7142.33  6.1625273E-01
   7142.67  6.2136723E-01
   7143.00  6.2770129E-01
   7143.33  6.3533979E-01
   7143.67  6.4416336E-01
   7144.00  6.5412803E-01
   7144.33  6.6499800E-01
   7144.67  6.7588228E-01
   7145.00  6.8572591E-01
   7145.33  6.9272627E-01
   7145.67  6.9582197E-01
   7146.00  6.9425060E-01
   7146.33  6.8725296E-01
   7146.67  6.7603746E-01
   7147.00  6.6153175E-01
   7147.33  6.4469734E-01
   7147.67  6.2687754E-01
   7148.00  6.0877244E-01
   7148.33  5.9093045E-01
   7148.67  5.7357185E-01
   7149.00  5.5676534E-01
   7149.33  5.4056160E-01
   7149.67  5.2484021E-01
   7150.00  5.0958592E-01
   7150.33  4.9486870E-01
   7150.67  4.8063712E-01
   7151.00  4.6691318E-01
   7151.33  4.5380944E-01
   7151.67  4.4131309E-01
   7152.00  4.2947003E-01
   7152.33  4.1839969E-01
   7152.67  4.0801547E-01
   7153.00  3.9827953E-01
   7153.33  3.8917950E-01
   7153.67  3.8054971E-01
   7154.00  3.7231654E-01
   7154.33  3.6445457E-01
   7154.67  3.5688591E-01
   7155.00  3.4960912E-01
   7155.33  3.4270213E-01
   7155.67  3.3620287E-01
   7156.00  3.3020930E-01
   7156.33  3.2493943E-01
   7156.67  3.2045610E-01
   7157.00  3.1686429E-01
   7157.33  3.1435003E-01
   7157.67  3.1276394E-01
   7158.00  3.1198583E-01
   7158.33  3.1184262E-01
   7158.67  3.1195538E-01
   7159.00  3.1206731E-01
   7159.33  3.1193574E-01
   7159.67  3.1151024E-01
   7160.00  3.1083926E-01
   7160.33  3.1006743E-01
   7160.67  3.0940957E-01
   7161.00  3.0904228E-01
   7161.33  3.0921428E-01
   7161.67  3.1001898E-01
   7162.00  3.1155207E-01
   7162.33  3.1398515E-01
   7162.67  3.1725005E-01
   7163.00  3.2134584E-01
   7163.33  3.2634001E-01
   7163.67  3.3206311E-01
   7164.00  3.3842117E-01
   7164.33  3.4532705E-01
   7164.67  3.5254250E-01
   7165.00  3.5990735E-01
   7165.33  3.6724470E-01
   7165.67  3.7441506E-01
   7166.00  3.8133056E-01
   7166.33  3.8789375E-01
   7166.67  3.9412517E-01
   7167.00  4.0003284E-01
   7167.33  4.0561100E-01
   7167.67  4.1094448E-01
   7168.00  4.1608492E-01
   7168.33  4.2108535E-01
   7168.67  4.2603273E-01
   7169.00  4.3098422E-01
   7169.33  4.3600100E-01
   7169.67  4.4110733E-01
   7170.00  4.4630680E-01
   7170.33  4.5157996E-01
   7170.67  4.5685042E-01
   7171.00  4.6202163E-01
   7171.33  4.6689401E-01
   7171.67  4.7124781E-01
   7172.00  4.7479449E-01
