    FDMNES
    energy     <xanes>
   7097.00  5.5945973E-03
   7097.33  5.7472542E-03
   7097.67  5.9077340E-03
   7098.00  6.0766183E-03
   7098.33  6.2558059E-03
   7098.67  6.4449982E-03
   7099.00  6.6450053E-03
   7099.33  6.8583704E-03
   7099.67  7.0848098E-03
   7100.00  7.3254836E-03
   7100.33  7.5838947E-03
   7100.67  7.8598291E-03
   7101.00  8.1550035E-03
   7101.33  8.4744044E-03
   7101.67  8.8180067E-03
   7102.00  9.1884511E-03
   7102.33  9.5931210E-03
   7102.67  1.0032443E-02
   7103.00  1.0510673E-02
   7103.33  1.1039280E-02
   7103.67  1.1619742E-02
   7104.00  1.2259319E-02
   7104.33  1.2976920E-02
   7104.67  1.3776525E-02
   7105.00  1.4671444E-02
   7105.33  1.5695302E-02
   7105.67  1.6858405E-02
   7106.00  1.8187533E-02
   7106.33  1.9748783E-02
   7106.67  2.1570125E-02
   7107.00  2.3712711E-02
   7107.33  2.6325820E-02
   7107.67  2.9495019E-02
   7108.00  3.3387856E-02
   7108.33  3.8418576E-02
   7108.67  4.4912246E-02
   7109.00  5.3478747E-02
   7109.33  6.5721027E-02
   7109.67  8.3435944E-02
   7110.00  1.1013006E-01
   7110.33  1.5585577E-01
   7110.67  2.3140126E-01
   7111.00  3.4060745E-01
   7111.33  4.5714193E-01
   7111.67  5.4546850E-01
   7112.00  6.0953902E-01
   7112.33  6.7666648E-01
   7112.67  7.1736686E-01
   7113.00  6.8209712E-01
   7113.33  5.5684354E-01
   7113.67  4.1577708E-01
   7114.00  3.0266103E-01
   7114.33  2.2845138E-01
   7114.67  1.7784613E-01
   7115.00  1.4325637E-01
   7115.33  1.2091308E-01
   7115.67  1.0628289E-01
   7116.00  9.7263646E-02
   7116.33  9.2258630E-02
   7116.67  8.8832552E-02
   7117.00  8.5912238E-02
   7117.33  8.4087483E-02
   7117.67  8.3917737E-02
   7118.00  8.5845477E-02
   7118.33  9.0407149E-02
   7118.67  9.6845893E-02
   7119.00  1.0434776E-01
   7119.33  1.1195162E-01
   7119.67  1.1949655E-01
   7120.00  1.2804779E-01
   7120.33  1.3908503E-01
   7120.67  1.5206759E-01
   7121.00  1.6601474E-01
   7121.33  1.8069071E-01
   7121.67  1.9745603E-01
   7122.00  2.1786743E-01
   7122.33  2.4315549E-01
   7122.67  2.7233567E-01
   7123.00  3.0557251E-01
   7123.33  3.4584555E-01
   7123.67  3.9489489E-01
   7124.00  4.5267171E-01
   7124.33  5.1568730E-01
   7124.67  5.7580485E-01
   7125.00  6.2615485E-01
   7125.33  6.6014222E-01
   7125.67  6.7950682E-01
   7126.00  6.8671728E-01
   7126.33  6.8474498E-01
   7126.67  6.7855740E-01
   7127.00  6.7010921E-01
   7127.33  6.5780657E-01
   7127.67  6.3929348E-01
   7128.00  6.1485642E-01
   7128.33  5.8780394E-01
   7128.67  5.6206343E-01
   7129.00  5.3981716E-01
   7129.33  5.2304640E-01
   7129.67  5.1125657E-01
   7130.00  5.0393423E-01
   7130.33  5.0076981E-01
   7130.67  5.0053519E-01
   7131.00  5.0255225E-01
   7131.33  5.0606444E-01
   7131.67  5.0976656E-01
   7132.00  5.1263004E-01
   7132.33  5.1360911E-01
   7132.67  5.1284870E-01
   7133.00  5.1094196E-01
   7133.33  5.0906855E-01
   7133.67  5.0854757E-01
   7134.00  5.1037329E-01
   7134.33  5.1573319E-01
   7134.67  5.2453952E-01
   7135.00  5.3663531E-01
   7135.33  5.5169903E-01
   7135.67  5.6837844E-01
   7136.00  5.8573924E-01
   7136.33  6.0297969E-01
   7136.67  6.1977041E-01
   7137.00  6.3595510E-01
   7137.33  6.5109541E-01
   7137.67  6.6490304E-01
   7138.00  6.7715068E-01
   7138.33  6.8751559E-01
   7138.67  6.9603994E-01
   7139.00  7.0239146E-01
   7139.33  7.0565488E-01
   7139.67  7.0565766E-01
   7140.00  7.0225333E-01
   7140.33  6.9539480E-01
   7140.67  6.8625459E-01
   7141.00  6.7566440E-01
   7141.33  6.6448345E-01
   7141.67  6.5353569E-01
   7142.00  6.4322001E-01
   7142.33  6.3385093E-01
   7142.67  6.2542334E-01
   7143.00  6.1798518E-01
   7143.33  6.1168539E-01
   7143.67  6.0638535E-01
   7144.00  6.0204469E-01
   7144.33  5.9868664E-01
   7144.67  5.9607548E-01
   7145.00  5.9407612E-01
   7145.33  5.9256808E-01
   7145.67  5.9132160E-01
   7146.00  5.9020122E-01
   7146.33  5.8908011E-01
   7146.67  5.8787305E-01
   7147.00  5.8653921E-01
   7147.33  5.8504079E-01
   7147.67  5.8339321E-01
   7148.00  5.8159815E-01
   7148.33  5.7963801E-01
   7148.67  5.7753210E-01
   7149.00  5.7528889E-01
   7149.33  5.7291941E-01
   7149.67  5.7047640E-01
   7150.00  5.6799716E-01
   7150.33  5.6552190E-01
   7150.67  5.6307882E-01
   7151.00  5.6068190E-01
   7151.33  5.5834277E-01
   7151.67  5.5604946E-01
   7152.00  5.5378823E-01
   7152.33  5.5152986E-01
   7152.67  5.4922396E-01
   7153.00  5.4680505E-01
   7153.33  5.4413664E-01
   7153.67  5.4110352E-01
   7154.00  5.3756179E-01
   7154.33  5.3324774E-01
   7154.67  5.2808285E-01
   7155.00  5.2195857E-01
   7155.33  5.1468038E-01
   7155.67  5.0639054E-01
   7156.00  4.9716965E-01
   7156.33  4.8708799E-01
   7156.67  4.7646418E-01
   7157.00  4.6551318E-01
   7157.33  4.5447447E-01
   7157.67  4.4358206E-01
   7158.00  4.3299599E-01
   7158.33  4.2291325E-01
   7158.67  4.1337009E-01
   7159.00  4.0441020E-01
   7159.33  3.9612518E-01
   7159.67  3.8843022E-01
   7160.00  3.8130356E-01
   7160.33  3.7477705E-01
   7160.67  3.6874553E-01
   7161.00  3.6317634E-01
   7161.33  3.5808549E-01
   7161.67  3.5338636E-01
   7162.00  3.4905460E-01
   7162.33  3.4510802E-01
   7162.67  3.4148380E-01
   7163.00  3.3816902E-01
   7163.33  3.3518676E-01
   7163.67  3.3248499E-01
   7164.00  3.3005037E-01
   7164.33  3.2789926E-01
   7164.67  3.2598553E-01
   7165.00  3.2429775E-01
   7165.33  3.2285160E-01
   7165.67  3.2161160E-01
   7166.00  3.2057181E-01
   7166.33  3.1975150E-01
   7166.67  3.1912366E-01
   7167.00  3.1868786E-01
   7167.33  3.1846868E-01
   7167.67  3.1844311E-01
   7168.00  3.1861260E-01
   7168.33  3.1900398E-01
   7168.67  3.1959433E-01
   7169.00  3.2038369E-01
   7169.33  3.2139387E-01
   7169.67  3.2259365E-01
   7170.00  3.2397301E-01
   7170.33  3.2553333E-01
   7170.67  3.2722440E-01
   7171.00  3.2900597E-01
   7171.33  3.3080352E-01
   7171.67  3.3248370E-01
   7172.00  3.3387918E-01
