    FDMNES
    energy     <xanes>
   7097.00  4.1592646E-03
   7097.33  4.2378283E-03
   7097.67  4.3191788E-03
   7098.00  4.4034716E-03
   7098.33  4.4912972E-03
   7098.67  4.5824812E-03
   7099.00  4.6772292E-03
   7099.33  4.7762836E-03
   7099.67  4.8794600E-03
   7100.00  4.9870377E-03
   7100.33  5.0999756E-03
   7100.67  5.2180873E-03
   7101.00  5.3417664E-03
   7101.33  5.4722920E-03
   7101.67  5.6094959E-03
   7102.00  5.7539565E-03
   7102.33  5.9074513E-03
   7102.67  6.0698772E-03
   7103.00  6.2421291E-03
   7103.33  6.4268080E-03
   7103.67  6.6239862E-03
   7104.00  6.8351395E-03
   7104.33  7.0643344E-03
   7104.67  7.3120912E-03
   7105.00  7.5810474E-03
   7105.33  7.8781289E-03
   7105.67  8.2050359E-03
   7106.00  8.5669950E-03
   7106.33  8.9772141E-03
   7106.67  9.4407813E-03
   7107.00  9.9695824E-03
   7107.33  1.0593007E-02
   7107.67  1.1327432E-02
   7108.00  1.2205653E-02
   7108.33  1.3309301E-02
   7108.67  1.4702578E-02
   7109.00  1.6506688E-02
   7109.33  1.9041565E-02
   7109.67  2.2669147E-02
   7110.00  2.8096730E-02
   7110.33  3.7353346E-02
   7110.67  5.2607708E-02
   7111.00  7.4663764E-02
   7111.33  1.0018665E-01
   7111.67  1.2480191E-01
   7112.00  1.3809848E-01
   7112.33  1.2429268E-01
   7112.67  9.8696441E-02
   7113.00  7.5935544E-02
   7113.33  6.1008774E-02
   7113.67  5.1922426E-02
   7114.00  4.7082025E-02
   7114.33  4.4639755E-02
   7114.67  4.2373813E-02
   7115.00  4.0357059E-02
   7115.33  3.9515651E-02
   7115.67  3.9769090E-02
   7116.00  4.0965254E-02
   7116.33  4.3095068E-02
   7116.67  4.5989778E-02
   7117.00  4.9648808E-02
   7117.33  5.4299855E-02
   7117.67  6.0040541E-02
   7118.00  6.7036946E-02
   7118.33  7.5502512E-02
   7118.67  8.5015345E-02
   7119.00  9.5051194E-02
   7119.33  1.0492476E-01
   7119.67  1.1445027E-01
   7120.00  1.2388585E-01
   7120.33  1.3368213E-01
   7120.67  1.4395479E-01
   7121.00  1.5465784E-01
   7121.33  1.6622281E-01
   7121.67  1.7968615E-01
   7122.00  1.9625497E-01
   7122.33  2.1759045E-01
   7122.67  2.4401215E-01
   7123.00  2.7617593E-01
   7123.33  3.1558560E-01
   7123.67  3.6175762E-01
   7124.00  4.1409850E-01
   7124.33  4.7006901E-01
   7124.67  5.2228450E-01
   7125.00  5.6128067E-01
   7125.33  5.7320146E-01
   7125.67  5.5908149E-01
   7126.00  5.2812831E-01
   7126.33  4.9732268E-01
   7126.67  4.7955182E-01
   7127.00  4.7903816E-01
   7127.33  4.9639540E-01
   7127.67  5.2475063E-01
   7128.00  5.5959051E-01
   7128.33  5.9771397E-01
   7128.67  6.3714668E-01
   7129.00  6.7722849E-01
   7129.33  7.1733690E-01
   7129.67  7.5710890E-01
   7130.00  7.9684265E-01
   7130.33  8.3768005E-01
   7130.67  8.7906039E-01
   7131.00  9.1690581E-01
   7131.33  9.4134607E-01
   7131.67  9.4792081E-01
   7132.00  9.3743713E-01
   7132.33  9.1369917E-01
   7132.67  8.8288004E-01
   7133.00  8.4721581E-01
   7133.33  8.0867828E-01
   7133.67  7.7135394E-01
   7134.00  7.3909045E-01
   7134.33  7.1529669E-01
   7134.67  6.9827351E-01
   7135.00  6.8604298E-01
   7135.33  6.7683440E-01
   7135.67  6.6901207E-01
   7136.00  6.6202079E-01
   7136.33  6.5567314E-01
   7136.67  6.4984838E-01
   7137.00  6.4456777E-01
   7137.33  6.3993153E-01
   7137.67  6.3586318E-01
   7138.00  6.3231729E-01
   7138.33  6.2924176E-01
   7138.67  6.2643337E-01
   7139.00  6.2373810E-01
   7139.33  6.2095857E-01
   7139.67  6.1793265E-01
   7140.00  6.1454682E-01
   7140.33  6.1067180E-01
   7140.67  6.0635668E-01
   7141.00  6.0164832E-01
   7141.33  5.9660677E-01
   7141.67  5.9138791E-01
   7142.00  5.8609256E-01
   7142.33  5.8082304E-01
   7142.67  5.7564829E-01
   7143.00  5.7060672E-01
   7143.33  5.6573669E-01
   7143.67  5.6101986E-01
   7144.00  5.5645027E-01
   7144.33  5.5203101E-01
   7144.67  5.4773383E-01
   7145.00  5.4355275E-01
   7145.33  5.3949596E-01
   7145.67  5.3554832E-01
   7146.00  5.3171273E-01
   7146.33  5.2800913E-01
   7146.67  5.2442952E-01
   7147.00  5.2098118E-01
   7147.33  5.1769190E-01
   7147.67  5.1455625E-01
   7148.00  5.1158644E-01
   7148.33  5.0882073E-01
   7148.67  5.0625233E-01
   7149.00  5.0389378E-01
   7149.33  5.0178368E-01
   7149.67  4.9989894E-01
   7150.00  4.9823646E-01
   7150.33  4.9680819E-01
   7150.67  4.9556111E-01
   7151.00  4.9446144E-01
   7151.33  4.9346957E-01
   7151.67  4.9250975E-01
   7152.00  4.9151946E-01
   7152.33  4.9040535E-01
   7152.67  4.8909611E-01
   7153.00  4.8751990E-01
   7153.33  4.8556012E-01
   7153.67  4.8319427E-01
   7154.00  4.8038272E-01
   7154.33  4.7704868E-01
   7154.67  4.7325550E-01
   7155.00  4.6902308E-01
   7155.33  4.6433658E-01
   7155.67  4.5928938E-01
   7156.00  4.5392015E-01
   7156.33  4.4823591E-01
   7156.67  4.4230865E-01
   7157.00  4.3616768E-01
   7157.33  4.2982433E-01
   7157.67  4.2333856E-01
   7158.00  4.1674891E-01
   7158.33  4.1010388E-01
   7158.67  4.0347742E-01
   7159.00  3.9694070E-01
   7159.33  3.9061607E-01
   7159.67  3.8459410E-01
   7160.00  3.7898100E-01
   7160.33  3.7396989E-01
   7160.67  3.6961467E-01
   7161.00  3.6600885E-01
   7161.33  3.6334859E-01
   7161.67  3.6158993E-01
   7162.00  3.6075609E-01
   7162.33  3.6095649E-01
   7162.67  3.6203397E-01
   7163.00  3.6391302E-01
   7163.33  3.6654282E-01
   7163.67  3.6969396E-01
   7164.00  3.7324120E-01
   7164.33  3.7706847E-01
   7164.67  3.8100566E-01
   7165.00  3.8494702E-01
   7165.33  3.8878240E-01
   7165.67  3.9245830E-01
   7166.00  3.9594322E-01
   7166.33  3.9919921E-01
   7166.67  4.0226284E-01
   7167.00  4.0515795E-01
   7167.33  4.0790534E-01
   7167.67  4.1056293E-01
   7168.00  4.1316596E-01
   7168.33  4.1574942E-01
   7168.67  4.1834537E-01
   7169.00  4.2097175E-01
   7169.33  4.2364467E-01
   7169.67  4.2635824E-01
   7170.00  4.2910254E-01
   7170.33  4.3186317E-01
   7170.67  4.3461330E-01
   7171.00  4.3731137E-01
   7171.33  4.3986263E-01
   7171.67  4.4215484E-01
   7172.00  4.4403057E-01
