    FDMNES
    energy     <xanes>
   7097.00  4.3725698E-03
   7097.33  4.4581055E-03
   7097.67  4.5469558E-03
   7098.00  4.6393262E-03
   7098.33  4.7359536E-03
   7098.67  4.8366585E-03
   7099.00  4.9417192E-03
   7099.33  5.0520865E-03
   7099.67  5.1675765E-03
   7100.00  5.2885780E-03
   7100.33  5.4163539E-03
   7100.67  5.5507318E-03
   7101.00  5.6922753E-03
   7101.33  5.8427223E-03
   7101.67  6.0019489E-03
   7102.00  6.1708074E-03
   7102.33  6.3517973E-03
   7102.67  6.5449256E-03
   7103.00  6.7515525E-03
   7103.33  6.9754728E-03
   7103.67  7.2170211E-03
   7104.00  7.4785133E-03
   7104.33  7.7661221E-03
   7104.67  8.0809996E-03
   7105.00  8.4274286E-03
   7105.33  8.8163803E-03
   7105.67  9.2511663E-03
   7106.00  9.7406032E-03
   7106.33  1.0306620E-02
   7106.67  1.0958867E-02
   7107.00  1.1718318E-02
   7107.33  1.2636500E-02
   7107.67  1.3745039E-02
   7108.00  1.5105229E-02
   7108.33  1.6870289E-02
   7108.67  1.9170652E-02
   7109.00  2.2251092E-02
   7109.33  2.6768742E-02
   7109.67  3.3519933E-02
   7110.00  4.4077827E-02
   7110.33  6.3024874E-02
   7110.67  9.5153316E-02
   7111.00  1.4034215E-01
   7111.33  1.7898758E-01
   7111.67  1.8369601E-01
   7112.00  1.4986627E-01
   7112.33  1.1248891E-01
   7112.67  8.6855797E-02
   7113.00  7.2211470E-02
   7113.33  6.7063942E-02
   7113.67  6.7032858E-02
   7114.00  7.0837896E-02
   7114.33  8.1928226E-02
   7114.67  1.0007285E-01
   7115.00  1.2034534E-01
   7115.33  1.2935725E-01
   7115.67  1.2343081E-01
   7116.00  1.0973577E-01
   7116.33  9.7027281E-02
   7116.67  8.8193575E-02
   7117.00  8.3281103E-02
   7117.33  8.1981420E-02
   7117.67  8.2991517E-02
   7118.00  8.5458663E-02
   7118.33  8.8466572E-02
   7118.67  9.1254744E-02
   7119.00  9.3576035E-02
   7119.33  9.5418280E-02
   7119.67  9.7076606E-02
   7120.00  9.8870602E-02
   7120.33  1.0135194E-01
   7120.67  1.0498303E-01
   7121.00  1.1026745E-01
   7121.33  1.1812370E-01
   7121.67  1.2887143E-01
   7122.00  1.4294921E-01
   7122.33  1.6114241E-01
   7122.67  1.8282935E-01
   7123.00  2.0713678E-01
   7123.33  2.3209699E-01
   7123.67  2.5519754E-01
   7124.00  2.7531650E-01
   7124.33  2.9331115E-01
   7124.67  3.1227922E-01
   7125.00  3.3425648E-01
   7125.33  3.5983186E-01
   7125.67  3.8585583E-01
   7126.00  4.0858462E-01
   7126.33  4.2567839E-01
   7126.67  4.4098977E-01
   7127.00  4.5787920E-01
   7127.33  4.7759813E-01
   7127.67  4.9893378E-01
   7128.00  5.2131534E-01
   7128.33  5.4488187E-01
   7128.67  5.7002645E-01
   7129.00  5.9745138E-01
   7129.33  6.2826936E-01
   7129.67  6.6178740E-01
   7130.00  6.9643408E-01
   7130.33  7.3002185E-01
   7130.67  7.6228255E-01
   7131.00  7.9388959E-01
   7131.33  8.2441883E-01
   7131.67  8.5164991E-01
   7132.00  8.7269342E-01
   7132.33  8.8360908E-01
   7132.67  8.8507912E-01
   7133.00  8.7947215E-01
   7133.33  8.7130134E-01
   7133.67  8.6489302E-01
   7134.00  8.6149204E-01
   7134.33  8.6052333E-01
   7134.67  8.5987601E-01
   7135.00  8.5819800E-01
   7135.33  8.5455307E-01
   7135.67  8.4937517E-01
   7136.00  8.4329414E-01
   7136.33  8.3699352E-01
   7136.67  8.3065371E-01
   7137.00  8.2369639E-01
   7137.33  8.1431479E-01
   7137.67  8.0069085E-01
   7138.00  7.8122259E-01
   7138.33  7.5441053E-01
   7138.67  7.2227317E-01
   7139.00  6.8714842E-01
   7139.33  6.5227342E-01
   7139.67  6.2023987E-01
   7140.00  5.9238004E-01
   7140.33  5.6983395E-01
   7140.67  5.5182644E-01
   7141.00  5.3788211E-01
   7141.33  5.2771310E-01
   7141.67  5.2015377E-01
   7142.00  5.1458948E-01
   7142.33  5.1054366E-01
   7142.67  5.0731656E-01
   7143.00  5.0456802E-01
   7143.33  5.0207409E-01
   7143.67  4.9969212E-01
   7144.00  4.9740529E-01
   7144.33  4.9526659E-01
   7144.67  4.9331865E-01
   7145.00  4.9160593E-01
   7145.33  4.9018868E-01
   7145.67  4.8902911E-01
   7146.00  4.8809818E-01
   7146.33  4.8736045E-01
   7146.67  4.8672013E-01
   7147.00  4.8610452E-01
   7147.33  4.8541488E-01
   7147.67  4.8456880E-01
   7148.00  4.8348976E-01
   7148.33  4.8204498E-01
   7148.67  4.8018058E-01
   7149.00  4.7782324E-01
   7149.33  4.7484319E-01
   7149.67  4.7127994E-01
   7150.00  4.6713834E-01
   7150.33  4.6240744E-01
   7150.67  4.5727142E-01
   7151.00  4.5188749E-01
   7151.33  4.4650119E-01
   7151.67  4.4140885E-01
   7152.00  4.3686884E-01
   7152.33  4.3324595E-01
   7152.67  4.3064611E-01
   7153.00  4.2918842E-01
   7153.33  4.2906809E-01
   7153.67  4.3007356E-01
   7154.00  4.3206871E-01
   7154.33  4.3491616E-01
   7154.67  4.3824257E-01
   7155.00  4.4179720E-01
   7155.33  4.4528961E-01
   7155.67  4.4846216E-01
   7156.00  4.5110200E-01
   7156.33  4.5287533E-01
   7156.67  4.5365168E-01
   7157.00  4.5325585E-01
   7157.33  4.5137053E-01
   7157.67  4.4810578E-01
   7158.00  4.4351696E-01
   7158.33  4.3765672E-01
   7158.67  4.3098287E-01
   7159.00  4.2383636E-01
   7159.33  4.1664789E-01
   7159.67  4.0985792E-01
   7160.00  4.0381633E-01
   7160.33  3.9902185E-01
   7160.67  3.9562583E-01
   7161.00  3.9381320E-01
   7161.33  3.9394532E-01
   7161.67  3.9587999E-01
   7162.00  3.9962346E-01
   7162.33  4.0534086E-01
   7162.67  4.1269889E-01
   7163.00  4.2155713E-01
   7163.33  4.3187122E-01
   7163.67  4.4323336E-01
   7164.00  4.5540387E-01
   7164.33  4.6813790E-01
   7164.67  4.8104103E-01
   7165.00  4.9381626E-01
   7165.33  5.0605624E-01
   7165.67  5.1748680E-01
   7166.00  5.2784851E-01
   7166.33  5.3672700E-01
   7166.67  5.4411888E-01
   7167.00  5.4995726E-01
   7167.33  5.5405474E-01
   7167.67  5.5669838E-01
   7168.00  5.5802997E-01
   7168.33  5.5812506E-01
   7168.67  5.5735558E-01
   7169.00  5.5591818E-01
   7169.33  5.5395905E-01
   7169.67  5.5170229E-01
   7170.00  5.4925768E-01
   7170.33  5.4670729E-01
   7170.67  5.4413117E-01
   7171.00  5.4158099E-01
   7171.33  5.3914618E-01
   7171.67  5.3694693E-01
   7172.00  5.3516079E-01
