    FDMNES
    energy     <xanes>
   7097.00  4.8226141E-03
   7097.33  4.9263994E-03
   7097.67  5.0342954E-03
   7098.00  5.1465418E-03
   7098.33  5.2640253E-03
   7098.67  5.3864985E-03
   7099.00  5.5142753E-03
   7099.33  5.6484701E-03
   7099.67  5.7888142E-03
   7100.00  5.9357272E-03
   7100.33  6.0906389E-03
   7100.67  6.2532648E-03
   7101.00  6.4241804E-03
   7101.33  6.6052646E-03
   7101.67  6.7962326E-03
   7102.00  6.9978977E-03
   7102.33  7.2128011E-03
   7102.67  7.4406946E-03
   7103.00  7.6827698E-03
   7103.33  7.9425869E-03
   7103.67  8.2200187E-03
   7104.00  8.5168895E-03
   7104.33  8.8384131E-03
   7104.67  9.1847783E-03
   7105.00  9.5589393E-03
   7105.33  9.9689775E-03
   7105.67  1.0415877E-02
   7106.00  1.0904783E-02
   7106.33  1.1449211E-02
   7106.67  1.2052224E-02
   7107.00  1.2723731E-02
   7107.33  1.3488891E-02
   7107.67  1.4356813E-02
   7108.00  1.5349614E-02
   7108.33  1.6522467E-02
   7108.67  1.7905907E-02
   7109.00  1.9562673E-02
   7109.33  2.1652868E-02
   7109.67  2.4315174E-02
   7110.00  2.7821936E-02
   7110.33  3.2928764E-02
   7110.67  4.0459851E-02
   7111.00  5.1241131E-02
   7111.33  6.4568911E-02
   7111.67  7.8811262E-02
   7112.00  9.9793186E-02
   7112.33  1.3443877E-01
   7112.67  1.6031698E-01
   7113.00  1.6487562E-01
   7113.33  1.8326023E-01
   7113.67  2.1359033E-01
   7114.00  2.2939600E-01
   7114.33  2.3367430E-01
   7114.67  2.4791331E-01
   7115.00  2.7802599E-01
   7115.33  3.3279590E-01
   7115.67  4.0897791E-01
   7116.00  4.6318416E-01
   7116.33  4.3936988E-01
   7116.67  3.7994706E-01
   7117.00  3.2115786E-01
   7117.33  2.7176671E-01
   7117.67  2.3374676E-01
   7118.00  2.0572557E-01
   7118.33  1.8412899E-01
   7118.67  1.6719254E-01
   7119.00  1.5501777E-01
   7119.33  1.4754863E-01
   7119.67  1.4263242E-01
   7120.00  1.3871298E-01
   7120.33  1.3579442E-01
   7120.67  1.3491152E-01
   7121.00  1.3672924E-01
   7121.33  1.4197836E-01
   7121.67  1.5033057E-01
   7122.00  1.6148349E-01
   7122.33  1.7563755E-01
   7122.67  1.9344935E-01
   7123.00  2.1654631E-01
   7123.33  2.4766756E-01
   7123.67  2.8695635E-01
   7124.00  3.3438669E-01
   7124.33  3.8949808E-01
   7124.67  4.4856171E-01
   7125.00  5.0799718E-01
   7125.33  5.6251144E-01
   7125.67  6.0828544E-01
   7126.00  6.4245032E-01
   7126.33  6.6111331E-01
   7126.67  6.6504366E-01
   7127.00  6.5532430E-01
   7127.33  6.3630077E-01
   7127.67  6.1591557E-01
   7128.00  5.9742070E-01
   7128.33  5.8291557E-01
   7128.67  5.7201776E-01
   7129.00  5.6398665E-01
   7129.33  5.5877814E-01
   7129.67  5.5640999E-01
   7130.00  5.5740408E-01
   7130.33  5.6319593E-01
   7130.67  5.7432193E-01
   7131.00  5.9129512E-01
   7131.33  6.1471711E-01
   7131.67  6.4338398E-01
   7132.00  6.7703049E-01
   7132.33  7.1693043E-01
   7132.67  7.6455985E-01
   7133.00  8.2334981E-01
   7133.33  9.0138982E-01
   7133.67  1.0043070E+00
   7134.00  1.1389852E+00
   7134.33  1.3124459E+00
   7134.67  1.5028846E+00
   7135.00  1.6641851E+00
   7135.33  1.7041950E+00
   7135.67  1.6030283E+00
   7136.00  1.4057930E+00
   7136.33  1.1906006E+00
   7136.67  1.0053359E+00
   7137.00  8.5917892E-01
   7137.33  7.5172814E-01
   7137.67  6.7020200E-01
   7138.00  6.0815096E-01
   7138.33  5.6159472E-01
   7138.67  5.2483422E-01
   7139.00  4.9547777E-01
   7139.33  4.7223220E-01
   7139.67  4.5307521E-01
   7140.00  4.3716885E-01
   7140.33  4.2407290E-01
   7140.67  4.1292094E-01
   7141.00  4.0335786E-01
   7141.33  3.9522646E-01
   7141.67  3.8812706E-01
   7142.00  3.8189721E-01
   7142.33  3.7647390E-01
   7142.67  3.7164417E-01
   7143.00  3.6731956E-01
   7143.33  3.6346328E-01
   7143.67  3.5994628E-01
   7144.00  3.5671000E-01
   7144.33  3.5372011E-01
   7144.67  3.5089362E-01
   7145.00  3.4818738E-01
   7145.33  3.4556528E-01
   7145.67  3.4297787E-01
   7146.00  3.4039533E-01
   7146.33  3.3778472E-01
   7146.67  3.3512365E-01
   7147.00  3.3239399E-01
   7147.33  3.2956973E-01
   7147.67  3.2665335E-01
   7148.00  3.2364463E-01
   7148.33  3.2054061E-01
   7148.67  3.1736693E-01
   7149.00  3.1414205E-01
   7149.33  3.1089055E-01
   7149.67  3.0764731E-01
   7150.00  3.0444061E-01
   7150.33  3.0130977E-01
   7150.67  2.9827547E-01
   7151.00  2.9535989E-01
   7151.33  2.9259235E-01
   7151.67  2.8995565E-01
   7152.00  2.8744077E-01
   7152.33  2.8504091E-01
   7152.67  2.8271551E-01
   7153.00  2.8043570E-01
   7153.33  2.7816485E-01
   7153.67  2.7586307E-01
   7154.00  2.7349856E-01
   7154.33  2.7102690E-01
   7154.67  2.6843630E-01
   7155.00  2.6571716E-01
   7155.33  2.6286003E-01
   7155.67  2.5991006E-01
   7156.00  2.5691649E-01
   7156.33  2.5397522E-01
   7156.67  2.5120987E-01
   7157.00  2.4876300E-01
   7157.33  2.4689853E-01
   7157.67  2.4577817E-01
   7158.00  2.4560326E-01
   7158.33  2.4673631E-01
   7158.67  2.4919890E-01
   7159.00  2.5307299E-01
   7159.33  2.5854599E-01
   7159.67  2.6535335E-01
   7160.00  2.7334837E-01
   7160.33  2.8241386E-01
   7160.67  2.9215326E-01
   7161.00  3.0231934E-01
   7161.33  3.1265824E-01
   7161.67  3.2291553E-01
   7162.00  3.3293069E-01
   7162.33  3.4252090E-01
   7162.67  3.5164887E-01
   7163.00  3.6027662E-01
   7163.33  3.6832806E-01
   7163.67  3.7588024E-01
   7164.00  3.8295765E-01
   7164.33  3.8954395E-01
   7164.67  3.9573653E-01
   7165.00  4.0157212E-01
   7165.33  4.0705164E-01
   7165.67  4.1225087E-01
   7166.00  4.1719720E-01
   7166.33  4.2189155E-01
   7166.67  4.2638906E-01
   7167.00  4.3071186E-01
   7167.33  4.3485794E-01
   7167.67  4.3884928E-01
   7168.00  4.4269259E-01
   7168.33  4.4639170E-01
   7168.67  4.4998200E-01
   7169.00  4.5347705E-01
   7169.33  4.5688018E-01
   7169.67  4.6021268E-01
   7170.00  4.6348077E-01
   7170.33  4.6667779E-01
   7170.67  4.6980197E-01
   7171.00  4.7283026E-01
   7171.33  4.7568489E-01
   7171.67  4.7826422E-01
   7172.00  4.8040205E-01
