    FDMNES
    energy     <xanes>
   7097.00  5.1349191E-03
   7097.33  5.2593840E-03
   7097.67  5.3895487E-03
   7098.00  5.5257999E-03
   7098.33  5.6694587E-03
   7098.67  5.8202568E-03
   7099.00  5.9787218E-03
   7099.33  6.1465822E-03
   7099.67  6.3235643E-03
   7100.00  6.5104068E-03
   7100.33  6.7094314E-03
   7100.67  6.9203859E-03
   7101.00  7.1443378E-03
   7101.33  7.3845040E-03
   7101.67  7.6407136E-03
   7102.00  7.9145677E-03
   7102.33  8.2106929E-03
   7102.67  8.5291330E-03
   7103.00  8.8723986E-03
   7103.33  9.2474537E-03
   7103.67  9.6548586E-03
   7104.00  1.0098772E-02
   7104.33  1.0590284E-02
   7104.67  1.1131195E-02
   7105.00  1.1728878E-02
   7105.33  1.2402318E-02
   7105.67  1.3156409E-02
   7106.00  1.4005439E-02
   7106.33  1.4985138E-02
   7106.67  1.6108837E-02
   7107.00  1.7407740E-02
   7107.33  1.8958496E-02
   7107.67  2.0800968E-02
   7108.00  2.3016077E-02
   7108.33  2.5803512E-02
   7108.67  2.9308103E-02
   7109.00  3.3804922E-02
   7109.33  4.0008838E-02
   7109.67  4.8673453E-02
   7110.00  6.1260905E-02
   7110.33  8.1849210E-02
   7110.67  1.1413593E-01
   7111.00  1.5779492E-01
   7111.33  2.0970175E-01
   7111.67  2.8362155E-01
   7112.00  3.8159382E-01
   7112.33  4.5799414E-01
   7112.67  4.6082550E-01
   7113.00  4.1795168E-01
   7113.33  3.6953115E-01
   7113.67  3.2684907E-01
   7114.00  2.9011086E-01
   7114.33  2.5510017E-01
   7114.67  2.1574243E-01
   7115.00  1.7251792E-01
   7115.33  1.4687427E-01
   7115.67  1.3761998E-01
   7116.00  1.2949484E-01
   7116.33  1.1283319E-01
   7116.67  9.9242072E-02
   7117.00  9.3187103E-02
   7117.33  9.5027866E-02
   7117.67  1.0355517E-01
   7118.00  1.1952459E-01
   7118.33  1.4517557E-01
   7118.67  1.7819227E-01
   7119.00  2.1204213E-01
   7119.33  2.3039097E-01
   7119.67  2.2778204E-01
   7120.00  2.1423887E-01
   7120.33  2.0185863E-01
   7120.67  1.9508888E-01
   7121.00  1.9655527E-01
   7121.33  2.0777929E-01
   7121.67  2.2541484E-01
   7122.00  2.4803572E-01
   7122.33  2.7653766E-01
   7122.67  3.1157942E-01
   7123.00  3.5396507E-01
   7123.33  4.0302751E-01
   7123.67  4.5240052E-01
   7124.00  4.9525151E-01
   7124.33  5.2483359E-01
   7124.67  5.4241533E-01
   7125.00  5.5071838E-01
   7125.33  5.5365506E-01
   7125.67  5.5621232E-01
   7126.00  5.6151296E-01
   7126.33  5.7258491E-01
   7126.67  5.8952236E-01
   7127.00  6.1207431E-01
   7127.33  6.4025798E-01
   7127.67  6.7232138E-01
   7128.00  7.0616706E-01
   7128.33  7.3709246E-01
   7128.67  7.6056011E-01
   7129.00  7.7450724E-01
   7129.33  7.7877040E-01
   7129.67  7.7687196E-01
   7130.00  7.7045032E-01
   7130.33  7.6010363E-01
   7130.67  7.4729070E-01
   7131.00  7.3363465E-01
   7131.33  7.2199600E-01
   7131.67  7.1442063E-01
   7132.00  7.1172085E-01
   7132.33  7.1369016E-01
   7132.67  7.1752642E-01
   7133.00  7.2060817E-01
   7133.33  7.1981897E-01
   7133.67  7.1449583E-01
   7134.00  7.0529029E-01
   7134.33  6.9369953E-01
   7134.67  6.8174888E-01
   7135.00  6.7051635E-01
   7135.33  6.6051593E-01
   7135.67  6.5110692E-01
   7136.00  6.4161939E-01
   7136.33  6.3137062E-01
   7136.67  6.2015377E-01
   7137.00  6.0796149E-01
   7137.33  5.9501831E-01
   7137.67  5.8189565E-01
   7138.00  5.6899478E-01
   7138.33  5.5673160E-01
   7138.67  5.4523469E-01
   7139.00  5.3458886E-01
   7139.33  5.2494341E-01
   7139.67  5.1617516E-01
   7140.00  5.0822531E-01
   7140.33  5.0103244E-01
   7140.67  4.9427808E-01
   7141.00  4.8770727E-01
   7141.33  4.8099471E-01
   7141.67  4.7390404E-01
   7142.00  4.6631401E-01
   7142.33  4.5815766E-01
   7142.67  4.4961873E-01
   7143.00  4.4085621E-01
   7143.33  4.3207323E-01
   7143.67  4.2347355E-01
   7144.00  4.1521545E-01
   7144.33  4.0752049E-01
   7144.67  4.0045233E-01
   7145.00  3.9408952E-01
   7145.33  3.8858076E-01
   7145.67  3.8385019E-01
   7146.00  3.7989605E-01
   7146.33  3.7680227E-01
   7146.67  3.7446105E-01
   7147.00  3.7286523E-01
   7147.33  3.7209965E-01
   7147.67  3.7205795E-01
   7148.00  3.7271672E-01
   7148.33  3.7411498E-01
   7148.67  3.7611285E-01
   7149.00  3.7865317E-01
   7149.33  3.8172709E-01
   7149.67  3.8520202E-01
   7150.00  3.8900473E-01
   7150.33  3.9308125E-01
   7150.67  3.9730873E-01
   7151.00  4.0159214E-01
   7151.33  4.0579808E-01
   7151.67  4.0980949E-01
   7152.00  4.1353439E-01
   7152.33  4.1684751E-01
   7152.67  4.1973706E-01
   7153.00  4.2217053E-01
   7153.33  4.2406896E-01
   7153.67  4.2548734E-01
   7154.00  4.2643154E-01
   7154.33  4.2686202E-01
   7154.67  4.2686467E-01
   7155.00  4.2647292E-01
   7155.33  4.2569198E-01
   7155.67  4.2462224E-01
   7156.00  4.2331737E-01
   7156.33  4.2182204E-01
   7156.67  4.2022494E-01
   7157.00  4.1858132E-01
   7157.33  4.1695018E-01
   7157.67  4.1538033E-01
   7158.00  4.1390855E-01
   7158.33  4.1258546E-01
   7158.67  4.1141837E-01
   7159.00  4.1041945E-01
   7159.33  4.0961519E-01
   7159.67  4.0897991E-01
   7160.00  4.0850390E-01
   7160.33  4.0818756E-01
   7160.67  4.0799141E-01
   7161.00  4.0789441E-01
   7161.33  4.0788051E-01
   7161.67  4.0791695E-01
   7162.00  4.0798542E-01
   7162.33  4.0807159E-01
   7162.67  4.0816325E-01
   7163.00  4.0825339E-01
   7163.33  4.0833444E-01
   7163.67  4.0840291E-01
   7164.00  4.0845500E-01
   7164.33  4.0848565E-01
   7164.67  4.0849900E-01
   7165.00  4.0849917E-01
   7165.33  4.0849355E-01
   7165.67  4.0849441E-01
   7166.00  4.0851379E-01
   7166.33  4.0857069E-01
   7166.67  4.0867534E-01
   7167.00  4.0883906E-01
   7167.33  4.0908208E-01
   7167.67  4.0940475E-01
   7168.00  4.0981292E-01
   7168.33  4.1032303E-01
   7168.67  4.1092794E-01
   7169.00  4.1163110E-01
   7169.33  4.1244883E-01
   7169.67  4.1337080E-01
   7170.00  4.1439761E-01
   7170.33  4.1554020E-01
   7170.67  4.1677701E-01
   7171.00  4.1808965E-01
   7171.33  4.1943607E-01
   7171.67  4.2071862E-01
   7172.00  4.2180721E-01
