    FDMNES
    energy     <xanes>
   7097.00  4.6243707E-03
   7097.33  4.7246228E-03
   7097.67  4.8291745E-03
   7098.00  4.9383111E-03
   7098.33  5.0530186E-03
   7098.67  5.1730873E-03
   7099.00  5.2989060E-03
   7099.33  5.4317618E-03
   7099.67  5.5714412E-03
   7100.00  5.7184897E-03
   7100.33  5.8746334E-03
   7100.67  6.0396762E-03
   7101.00  6.2144084E-03
   7101.33  6.4012216E-03
   7101.67  6.5999839E-03
   7102.00  6.8118854E-03
   7102.33  7.0403714E-03
   7102.67  7.2854782E-03
   7103.00  7.5490830E-03
   7103.33  7.8363915E-03
   7103.67  8.1478455E-03
   7104.00  8.4865784E-03
   7104.33  8.8609349E-03
   7104.67  9.2723335E-03
   7105.00  9.7263893E-03
   7105.33  1.0237523E-02
   7105.67  1.0809618E-02
   7106.00  1.1453701E-02
   7106.33  1.2197281E-02
   7106.67  1.3051041E-02
   7107.00  1.4039478E-02
   7107.33  1.5222697E-02
   7107.67  1.6633076E-02
   7108.00  1.8335506E-02
   7108.33  2.0490206E-02
   7108.67  2.3216666E-02
   7109.00  2.6740404E-02
   7109.33  3.1648283E-02
   7109.67  3.8567923E-02
   7110.00  4.8717078E-02
   7110.33  6.5574512E-02
   7110.67  9.3164418E-02
   7111.00  1.3465190E-01
   7111.33  1.8521787E-01
   7111.67  2.3383203E-01
   7112.00  2.7616810E-01
   7112.33  3.0956939E-01
   7112.67  3.2729853E-01
   7113.00  3.0696217E-01
   7113.33  2.4668023E-01
   7113.67  1.8604406E-01
   7114.00  1.4447847E-01
   7114.33  1.2528725E-01
   7114.67  1.1794681E-01
   7115.00  1.1583420E-01
   7115.33  1.1237525E-01
   7115.67  1.0685550E-01
   7116.00  1.0279069E-01
   7116.33  1.0285048E-01
   7116.67  1.0598087E-01
   7117.00  1.1017930E-01
   7117.33  1.1268460E-01
   7117.67  1.1329298E-01
   7118.00  1.1309301E-01
   7118.33  1.1314358E-01
   7118.67  1.1383820E-01
   7119.00  1.1488076E-01
   7119.33  1.1560200E-01
   7119.67  1.1621942E-01
   7120.00  1.1759875E-01
   7120.33  1.2086610E-01
   7120.67  1.2629200E-01
   7121.00  1.3411595E-01
   7121.33  1.4480459E-01
   7121.67  1.5773442E-01
   7122.00  1.7209454E-01
   7122.33  1.8699274E-01
   7122.67  2.0240661E-01
   7123.00  2.1907935E-01
   7123.33  2.3794956E-01
   7123.67  2.5851204E-01
   7124.00  2.7964645E-01
   7124.33  2.9939765E-01
   7124.67  3.1683092E-01
   7125.00  3.3236440E-01
   7125.33  3.4756481E-01
   7125.67  3.6378835E-01
   7126.00  3.8111468E-01
   7126.33  3.9864876E-01
   7126.67  4.1537629E-01
   7127.00  4.3123612E-01
   7127.33  4.4713665E-01
   7127.67  4.6383236E-01
   7128.00  4.8108157E-01
   7128.33  4.9792591E-01
   7128.67  5.1387543E-01
   7129.00  5.2902764E-01
   7129.33  5.4368434E-01
   7129.67  5.5816731E-01
   7130.00  5.7254710E-01
   7130.33  5.8679172E-01
   7130.67  6.0090834E-01
   7131.00  6.1484728E-01
   7131.33  6.2832200E-01
   7131.67  6.4103609E-01
   7132.00  6.5275366E-01
   7132.33  6.6319539E-01
   7132.67  6.7244639E-01
   7133.00  6.8045345E-01
   7133.33  6.8701261E-01
   7133.67  6.9231305E-01
   7134.00  6.9642178E-01
   7134.33  6.9934350E-01
   7134.67  7.0143839E-01
   7135.00  7.0294219E-01
   7135.33  7.0402054E-01
   7135.67  7.0478650E-01
   7136.00  7.0519390E-01
   7136.33  7.0512220E-01
   7136.67  7.0465685E-01
   7137.00  7.0393700E-01
   7137.33  7.0320160E-01
   7137.67  7.0270382E-01
   7138.00  7.0261865E-01
   7138.33  7.0313400E-01
   7138.67  7.0422386E-01
   7139.00  7.0588866E-01
   7139.33  7.0819303E-01
   7139.67  7.1105529E-01
   7140.00  7.1444077E-01
   7140.33  7.1828645E-01
   7140.67  7.2230672E-01
   7141.00  7.2619035E-01
   7141.33  7.2939204E-01
   7141.67  7.3146342E-01
   7142.00  7.3197326E-01
   7142.33  7.3026600E-01
   7142.67  7.2633643E-01
   7143.00  7.2012342E-01
   7143.33  7.1145297E-01
   7143.67  7.0080689E-01
   7144.00  6.8842687E-01
   7144.33  6.7451201E-01
   7144.67  6.5966256E-01
   7145.00  6.4425346E-01
   7145.33  6.2867326E-01
   7145.67  6.1330096E-01
   7146.00  5.9840509E-01
   7146.33  5.8434253E-01
   7146.67  5.7123106E-01
   7147.00  5.5922209E-01
   7147.33  5.4864153E-01
   7147.67  5.3941726E-01
   7148.00  5.3154061E-01
   7148.33  5.2512577E-01
   7148.67  5.1994769E-01
   7149.00  5.1594606E-01
   7149.33  5.1318019E-01
   7149.67  5.1142575E-01
   7150.00  5.1060145E-01
   7150.33  5.1070684E-01
   7150.67  5.1152494E-01
   7151.00  5.1295451E-01
   7151.33  5.1494092E-01
   7151.67  5.1731241E-01
   7152.00  5.1998286E-01
   7152.33  5.2289048E-01
   7152.67  5.2593519E-01
   7153.00  5.2906553E-01
   7153.33  5.3223952E-01
   7153.67  5.3541738E-01
   7154.00  5.3857550E-01
   7154.33  5.4168359E-01
   7154.67  5.4472002E-01
   7155.00  5.4765514E-01
   7155.33  5.5042490E-01
   7155.67  5.5298795E-01
   7156.00  5.5528259E-01
   7156.33  5.5718588E-01
   7156.67  5.5866037E-01
   7157.00  5.5964042E-01
   7157.33  5.5999601E-01
   7157.67  5.5976318E-01
   7158.00  5.5893494E-01
   7158.33  5.5745434E-01
   7158.67  5.5543204E-01
   7159.00  5.5291444E-01
   7159.33  5.4991114E-01
   7159.67  5.4654424E-01
   7160.00  5.4287189E-01
   7160.33  5.3892708E-01
   7160.67  5.3479547E-01
   7161.00  5.3051668E-01
   7161.33  5.2611462E-01
   7161.67  5.2163269E-01
   7162.00  5.1709104E-01
   7162.33  5.1250366E-01
   7162.67  5.0789246E-01
   7163.00  5.0327164E-01
   7163.33  4.9866005E-01
   7163.67  4.9407777E-01
   7164.00  4.8954656E-01
   7164.33  4.8510586E-01
   7164.67  4.8077941E-01
   7165.00  4.7659989E-01
   7165.33  4.7263191E-01
   7165.67  4.6889398E-01
   7166.00  4.6542061E-01
   7166.33  4.6228499E-01
   7166.67  4.5947874E-01
   7167.00  4.5702016E-01
   7167.33  4.5496530E-01
   7167.67  4.5326856E-01
   7168.00  4.5192026E-01
   7168.33  4.5094096E-01
   7168.67  4.5026195E-01
   7169.00  4.4985581E-01
   7169.33  4.4971778E-01
   7169.67  4.4978201E-01
   7170.00  4.5001729E-01
   7170.33  4.5040494E-01
   7170.67  4.5089266E-01
   7171.00  4.5144882E-01
   7171.33  4.5203372E-01
   7171.67  4.5258534E-01
   7172.00  4.5303581E-01
