    FDMNES
    energy     <xanes>
   7097.00  4.7848492E-03
   7097.33  4.8902705E-03
   7097.67  5.0001717E-03
   7098.00  5.1148444E-03
   7098.33  5.2353070E-03
   7098.67  5.3613335E-03
   7099.00  5.4933202E-03
   7099.33  5.6325904E-03
   7099.67  5.7789121E-03
   7100.00  5.9328391E-03
   7100.33  6.0961380E-03
   7100.67  6.2685918E-03
   7101.00  6.4510001E-03
   7101.33  6.6457995E-03
   7101.67  6.8528350E-03
   7102.00  7.0733070E-03
   7102.33  7.3107122E-03
   7102.67  7.5650622E-03
   7103.00  7.8382474E-03
   7103.33  8.1355362E-03
   7103.67  8.4573482E-03
   7104.00  8.8068411E-03
   7104.33  9.1924522E-03
   7104.67  9.6155983E-03
   7105.00  1.0081960E-02
   7105.33  1.0606156E-02
   7105.67  1.1192161E-02
   7106.00  1.1851236E-02
   7106.33  1.2611512E-02
   7106.67  1.3484197E-02
   7107.00  1.4494783E-02
   7107.33  1.5705959E-02
   7107.67  1.7152886E-02
   7108.00  1.8905531E-02
   7108.33  2.1137860E-02
   7108.67  2.3987098E-02
   7109.00  2.7712678E-02
   7109.33  3.3002099E-02
   7109.67  4.0643682E-02
   7110.00  5.2191824E-02
   7110.33  7.2209393E-02
   7110.67  1.0610315E-01
   7111.00  1.5528206E-01
   7111.33  1.9017163E-01
   7111.67  1.9922746E-01
   7112.00  2.0436695E-01
   7112.33  2.2261811E-01
   7112.67  2.4691364E-01
   7113.00  2.6990725E-01
   7113.33  2.8916346E-01
   7113.67  2.8981574E-01
   7114.00  2.6285418E-01
   7114.33  2.1495320E-01
   7114.67  1.6994717E-01
   7115.00  1.3686825E-01
   7115.33  1.1638111E-01
   7115.67  1.0291597E-01
   7116.00  9.3640001E-02
   7116.33  8.7179249E-02
   7116.67  8.2459036E-02
   7117.00  7.9201759E-02
   7117.33  7.7551088E-02
   7117.67  7.7416088E-02
   7118.00  7.8845461E-02
   7118.33  8.1959644E-02
   7118.67  8.6333539E-02
   7119.00  9.1749230E-02
   7119.33  9.8344784E-02
   7119.67  1.0625464E-01
   7120.00  1.1572774E-01
   7120.33  1.2719210E-01
   7120.67  1.4054865E-01
   7121.00  1.5584777E-01
   7121.33  1.7332462E-01
   7121.67  1.9263382E-01
   7122.00  2.1357835E-01
   7122.33  2.3597109E-01
   7122.67  2.5929054E-01
   7123.00  2.8334105E-01
   7123.33  3.0819358E-01
   7123.67  3.3393958E-01
   7124.00  3.6086810E-01
   7124.33  3.8960496E-01
   7124.67  4.2039306E-01
   7125.00  4.5374034E-01
   7125.33  4.9120421E-01
   7125.67  5.3306498E-01
   7126.00  5.7706512E-01
   7126.33  6.1466960E-01
   7126.67  6.3806949E-01
   7127.00  6.4484617E-01
   7127.33  6.3658824E-01
   7127.67  6.2050874E-01
   7128.00  6.0092640E-01
   7128.33  5.8196251E-01
   7128.67  5.6648858E-01
   7129.00  5.5614266E-01
   7129.33  5.5273690E-01
   7129.67  5.5592888E-01
   7130.00  5.6586535E-01
   7130.33  5.8348471E-01
   7130.67  6.0791800E-01
   7131.00  6.3904429E-01
   7131.33  6.7750333E-01
   7131.67  7.2238895E-01
   7132.00  7.7358661E-01
   7132.33  8.3107159E-01
   7132.67  8.9201198E-01
   7133.00  9.5315223E-01
   7133.33  1.0090969E+00
   7133.67  1.0558864E+00
   7134.00  1.0906886E+00
   7134.33  1.1099870E+00
   7134.67  1.1153116E+00
   7135.00  1.1077000E+00
   7135.33  1.0880987E+00
   7135.67  1.0606307E+00
   7136.00  1.0275786E+00
   7136.33  9.9072788E-01
   7136.67  9.5219579E-01
   7137.00  9.1308140E-01
   7137.33  8.7437384E-01
   7137.67  8.3668553E-01
   7138.00  8.0040443E-01
   7138.33  7.6603885E-01
   7138.67  7.3354952E-01
   7139.00  7.0301799E-01
   7139.33  6.7473304E-01
   7139.67  6.4844343E-01
   7140.00  6.2412533E-01
   7140.33  6.0196925E-01
   7140.67  5.8166605E-01
   7141.00  5.6314381E-01
   7141.33  5.4651203E-01
   7141.67  5.3143253E-01
   7142.00  5.1776664E-01
   7142.33  5.0549438E-01
   7142.67  4.9429374E-01
   7143.00  4.8403696E-01
   7143.33  4.7467968E-01
   7143.67  4.6597118E-01
   7144.00  4.5779263E-01
   7144.33  4.5008155E-01
   7144.67  4.4270361E-01
   7145.00  4.3561625E-01
   7145.33  4.2883429E-01
   7145.67  4.2233201E-01
   7146.00  4.1613152E-01
   7146.33  4.1030826E-01
   7146.67  4.0485585E-01
   7147.00  3.9980414E-01
   7147.33  3.9523953E-01
   7147.67  3.9113700E-01
   7148.00  3.8751825E-01
   7148.33  3.8446412E-01
   7148.67  3.8191684E-01
   7149.00  3.7986489E-01
   7149.33  3.7832421E-01
   7149.67  3.7715999E-01
   7150.00  3.7627761E-01
   7150.33  3.7556650E-01
   7150.67  3.7487790E-01
   7151.00  3.7411888E-01
   7151.33  3.7320112E-01
   7151.67  3.7211701E-01
   7152.00  3.7087656E-01
   7152.33  3.6950151E-01
   7152.67  3.6805818E-01
   7153.00  3.6659487E-01
   7153.33  3.6517144E-01
   7153.67  3.6383491E-01
   7154.00  3.6262533E-01
   7154.33  3.6160184E-01
   7154.67  3.6076663E-01
   7155.00  3.6013366E-01
   7155.33  3.5974343E-01
   7155.67  3.5957081E-01
   7156.00  3.5960759E-01
   7156.33  3.5985871E-01
   7156.67  3.6027310E-01
   7157.00  3.6082220E-01
   7157.33  3.6148173E-01
   7157.67  3.6220228E-01
   7158.00  3.6295381E-01
   7158.33  3.6370538E-01
   7158.67  3.6443097E-01
   7159.00  3.6511313E-01
   7159.33  3.6573228E-01
   7159.67  3.6629226E-01
   7160.00  3.6679794E-01
   7160.33  3.6725823E-01
   7160.67  3.6769941E-01
   7161.00  3.6814406E-01
   7161.33  3.6862506E-01
   7161.67  3.6916750E-01
   7162.00  3.6979540E-01
   7162.33  3.7054975E-01
   7162.67  3.7143904E-01
   7163.00  3.7247727E-01
   7163.33  3.7369444E-01
   7163.67  3.7507298E-01
   7164.00  3.7660841E-01
   7164.33  3.7831310E-01
   7164.67  3.8016337E-01
   7165.00  3.8215641E-01
   7165.33  3.8430888E-01
   7165.67  3.8660512E-01
   7166.00  3.8904937E-01
   7166.33  3.9166830E-01
   7166.67  3.9445153E-01
   7167.00  3.9740749E-01
   7167.33  4.0056807E-01
   7167.67  4.0391655E-01
   7168.00  4.0745374E-01
   7168.33  4.1119739E-01
   7168.67  4.1511101E-01
   7169.00  4.1917463E-01
   7169.33  4.2336910E-01
   7169.67  4.2763459E-01
   7170.00  4.3192356E-01
   7170.33  4.3616769E-01
   7170.67  4.4030110E-01
   7171.00  4.4425483E-01
   7171.33  4.4789254E-01
   7171.67  4.5109773E-01
   7172.00  4.5368882E-01
