    FDMNES
    energy     <xanes>
   7097.00  4.9527610E-03
   7097.33  5.0754548E-03
   7097.67  5.2038573E-03
   7098.00  5.3383614E-03
   7098.33  5.4802998E-03
   7098.67  5.6294121E-03
   7099.00  5.7862364E-03
   7099.33  5.9525242E-03
   7099.67  6.1280126E-03
   7100.00  6.3134595E-03
   7100.33  6.5112298E-03
   7100.67  6.7210887E-03
   7101.00  6.9441388E-03
   7101.33  7.1836778E-03
   7101.67  7.4395670E-03
   7102.00  7.7134739E-03
   7102.33  8.0101807E-03
   7102.67  8.3297956E-03
   7103.00  8.6749626E-03
   7103.33  9.0529591E-03
   7103.67  9.4644883E-03
   7104.00  9.9139940E-03
   7104.33  1.0413242E-02
   7104.67  1.0964378E-02
   7105.00  1.1575446E-02
   7105.33  1.2267011E-02
   7105.67  1.3044916E-02
   7106.00  1.3925200E-02
   7106.33  1.4947765E-02
   7106.67  1.6128908E-02
   7107.00  1.7505139E-02
   7107.33  1.9166063E-02
   7107.67  2.1162623E-02
   7108.00  2.3595538E-02
   7108.33  2.6715031E-02
   7108.67  3.0719765E-02
   7109.00  3.5984443E-02
   7109.33  4.3501727E-02
   7109.67  5.4411093E-02
   7110.00  7.0951065E-02
   7110.33  9.9579701E-02
   7110.67  1.4708803E-01
   7111.00  2.1430870E-01
   7111.33  2.7731321E-01
   7111.67  3.1319116E-01
   7112.00  3.2306190E-01
   7112.33  3.1873315E-01
   7112.67  3.1421424E-01
   7113.00  3.1725017E-01
   7113.33  3.2880090E-01
   7113.67  3.3014241E-01
   7114.00  3.0691207E-01
   7114.33  2.6593670E-01
   7114.67  2.2767093E-01
   7115.00  1.9949041E-01
   7115.33  1.8246355E-01
   7115.67  1.7037636E-01
   7116.00  1.5860544E-01
   7116.33  1.4729190E-01
   7116.67  1.3998586E-01
   7117.00  1.3734128E-01
   7117.33  1.3815032E-01
   7117.67  1.4088189E-01
   7118.00  1.4557944E-01
   7118.33  1.5302890E-01
   7118.67  1.6329322E-01
   7119.00  1.7665243E-01
   7119.33  1.9325243E-01
   7119.67  2.1008192E-01
   7120.00  2.2396452E-01
   7120.33  2.3359227E-01
   7120.67  2.4234779E-01
   7121.00  2.5393061E-01
   7121.33  2.7115441E-01
   7121.67  2.9363850E-01
   7122.00  3.2149436E-01
   7122.33  3.5550675E-01
   7122.67  3.9459442E-01
   7123.00  4.3748601E-01
   7123.33  4.8018921E-01
   7123.67  5.1727027E-01
   7124.00  5.4608255E-01
   7124.33  5.6565295E-01
   7124.67  5.7796921E-01
   7125.00  5.8478961E-01
   7125.33  5.8998356E-01
   7125.67  5.9669109E-01
   7126.00  6.0454034E-01
   7126.33  6.1111748E-01
   7126.67  6.1412399E-01
   7127.00  6.1139176E-01
   7127.33  6.0005849E-01
   7127.67  5.8212559E-01
   7128.00  5.6084727E-01
   7128.33  5.3964521E-01
   7128.67  5.1967481E-01
   7129.00  5.0092631E-01
   7129.33  4.8444644E-01
   7129.67  4.7172080E-01
   7130.00  4.6344797E-01
   7130.33  4.5880955E-01
   7130.67  4.5506278E-01
   7131.00  4.5084601E-01
   7131.33  4.4604769E-01
   7131.67  4.4155517E-01
   7132.00  4.3798894E-01
   7132.33  4.3588927E-01
   7132.67  4.3535866E-01
   7133.00  4.3685090E-01
   7133.33  4.4154460E-01
   7133.67  4.4952520E-01
   7134.00  4.6014906E-01
   7134.33  4.7125514E-01
   7134.67  4.7979660E-01
   7135.00  4.8369621E-01
   7135.33  4.8164201E-01
   7135.67  4.7598864E-01
   7136.00  4.6940326E-01
   7136.33  4.6504290E-01
   7136.67  4.6428891E-01
   7137.00  4.6748293E-01
   7137.33  4.7478352E-01
   7137.67  4.8526096E-01
   7138.00  4.9862934E-01
   7138.33  5.1501833E-01
   7138.67  5.3380839E-01
   7139.00  5.5452190E-01
   7139.33  5.7634484E-01
   7139.67  5.9783635E-01
   7140.00  6.1771732E-01
   7140.33  6.3427672E-01
   7140.67  6.4701716E-01
   7141.00  6.5574798E-01
   7141.33  6.6039404E-01
   7141.67  6.6216615E-01
   7142.00  6.6179455E-01
   7142.33  6.5985389E-01
   7142.67  6.5705167E-01
   7143.00  6.5367613E-01
   7143.33  6.4988991E-01
   7143.67  6.4586566E-01
   7144.00  6.4168475E-01
   7144.33  6.3744423E-01
   7144.67  6.3328720E-01
   7145.00  6.2934986E-01
   7145.33  6.2581912E-01
   7145.67  6.2272554E-01
   7146.00  6.2005888E-01
   7146.33  6.1777286E-01
   7146.67  6.1570517E-01
   7147.00  6.1377801E-01
   7147.33  6.1196996E-01
   7147.67  6.1027430E-01
   7148.00  6.0870558E-01
   7148.33  6.0727840E-01
   7148.67  6.0593835E-01
   7149.00  6.0461984E-01
   7149.33  6.0320767E-01
   7149.67  6.0159749E-01
   7150.00  5.9970449E-01
   7150.33  5.9743094E-01
   7150.67  5.9483431E-01
   7151.00  5.9198249E-01
   7151.33  5.8897255E-01
   7151.67  5.8594436E-01
   7152.00  5.8298519E-01
   7152.33  5.8016678E-01
   7152.67  5.7746466E-01
   7153.00  5.7481623E-01
   7153.33  5.7208401E-01
   7153.67  5.6911099E-01
   7154.00  5.6574517E-01
   7154.33  5.6175408E-01
   7154.67  5.5708180E-01
   7155.00  5.5166423E-01
   7155.33  5.4539074E-01
   7155.67  5.3840495E-01
   7156.00  5.3079360E-01
   7156.33  5.2263512E-01
   7156.67  5.1415143E-01
   7157.00  5.0548241E-01
   7157.33  4.9677042E-01
   7157.67  4.8813656E-01
   7158.00  4.7965037E-01
   7158.33  4.7137836E-01
   7158.67  4.6330176E-01
   7159.00  4.5540234E-01
   7159.33  4.4765777E-01
   7159.67  4.4000004E-01
   7160.00  4.3238565E-01
   7160.33  4.2477562E-01
   7160.67  4.1715099E-01
   7161.00  4.0951610E-01
   7161.33  4.0190516E-01
   7161.67  3.9437234E-01
   7162.00  3.8697991E-01
   7162.33  3.7983094E-01
   7162.67  3.7296601E-01
   7163.00  3.6642980E-01
   7163.33  3.6030018E-01
   7163.67  3.5454442E-01
   7164.00  3.4915922E-01
   7164.33  3.4417335E-01
   7164.67  3.3952122E-01
   7165.00  3.3518449E-01
   7165.33  3.3118069E-01
   7165.67  3.2745681E-01
   7166.00  3.2400377E-01
   7166.33  3.2085225E-01
   7166.67  3.1797639E-01
   7167.00  3.1539178E-01
   7167.33  3.1316551E-01
   7167.67  3.1129180E-01
   7168.00  3.0980221E-01
   7168.33  3.0878339E-01
   7168.67  3.0820900E-01
   7169.00  3.0809033E-01
   7169.33  3.0847977E-01
   7169.67  3.0929655E-01
   7170.00  3.1050463E-01
   7170.33  3.1208789E-01
   7170.67  3.1393075E-01
   7171.00  3.1595484E-01
   7171.33  3.1804741E-01
   7171.67  3.2002073E-01
   7172.00  3.2165870E-01
