    FDMNES
    energy     <xanes>
   7097.00  4.1462222E-03
   7097.33  4.2289325E-03
   7097.67  4.3148595E-03
   7098.00  4.4042031E-03
   7098.33  4.4976796E-03
   7098.67  4.5951158E-03
   7099.00  4.6967831E-03
   7099.33  4.8036065E-03
   7099.67  4.9154089E-03
   7100.00  5.0325700E-03
   7100.33  5.1563200E-03
   7100.67  5.2864935E-03
   7101.00  5.4236412E-03
   7101.33  5.5694576E-03
   7101.67  5.7238250E-03
   7102.00  5.8875762E-03
   7102.33  6.0631491E-03
   7102.67  6.2505533E-03
   7103.00  6.4511153E-03
   7103.33  6.6685343E-03
   7103.67  6.9031334E-03
   7104.00  7.1571637E-03
   7104.33  7.4366241E-03
   7104.67  7.7426121E-03
   7105.00  8.0792609E-03
   7105.33  8.4571619E-03
   7105.67  8.8794273E-03
   7106.00  9.3544610E-03
   7106.33  9.9031696E-03
   7106.67  1.0534459E-02
   7107.00  1.1267928E-02
   7107.33  1.2151661E-02
   7107.67  1.3214103E-02
   7108.00  1.4510800E-02
   7108.33  1.6179930E-02
   7108.67  1.8334542E-02
   7109.00  2.1186735E-02
   7109.33  2.5299801E-02
   7109.67  3.1330650E-02
   7110.00  4.0568526E-02
   7110.33  5.6749384E-02
   7110.67  8.3966181E-02
   7111.00  1.2352000E-01
   7111.33  1.6366106E-01
   7111.67  1.8573985E-01
   7112.00  1.8053573E-01
   7112.33  1.5441174E-01
   7112.67  1.3107256E-01
   7113.00  1.1636333E-01
   7113.33  1.0758585E-01
   7113.67  1.0560356E-01
   7114.00  1.0664004E-01
   7114.33  9.5697678E-02
   7114.67  7.8192890E-02
   7115.00  6.2944591E-02
   7115.33  5.3189865E-02
   7115.67  4.7336436E-02
   7116.00  4.4076621E-02
   7116.33  4.2496856E-02
   7116.67  4.1886327E-02
   7117.00  4.2140560E-02
   7117.33  4.3438332E-02
   7117.67  4.5807312E-02
   7118.00  4.9370353E-02
   7118.33  5.4330826E-02
   7118.67  6.0369321E-02
   7119.00  6.7130664E-02
   7119.33  7.4083330E-02
   7119.67  8.0618173E-02
   7120.00  8.6181066E-02
   7120.33  9.0078359E-02
   7120.67  9.2590677E-02
   7121.00  9.4353210E-02
   7121.33  9.6338710E-02
   7121.67  9.9301828E-02
   7122.00  1.0373141E-01
   7122.33  1.1036140E-01
   7122.67  1.1946597E-01
   7123.00  1.3155753E-01
   7123.33  1.4778062E-01
   7123.67  1.6839977E-01
   7124.00  1.9391279E-01
   7124.33  2.2494977E-01
   7124.67  2.5986818E-01
   7125.00  2.9705654E-01
   7125.33  3.3486128E-01
   7125.67  3.7276586E-01
   7126.00  4.1090338E-01
   7126.33  4.4700054E-01
   7126.67  4.7690270E-01
   7127.00  4.9923662E-01
   7127.33  5.1713913E-01
   7127.67  5.3630722E-01
   7128.00  5.5965127E-01
   7128.33  5.8918350E-01
   7128.67  6.2407581E-01
   7129.00  6.6333360E-01
   7129.33  7.0500388E-01
   7129.67  7.4583473E-01
   7130.00  7.8357709E-01
   7130.33  8.1640191E-01
   7130.67  8.4483789E-01
   7131.00  8.6928925E-01
   7131.33  8.9014284E-01
   7131.67  9.0923472E-01
   7132.00  9.2797429E-01
   7132.33  9.4645549E-01
   7132.67  9.6189615E-01
   7133.00  9.7055123E-01
   7133.33  9.6862791E-01
   7133.67  9.5852343E-01
   7134.00  9.4324856E-01
   7134.33  9.2556708E-01
   7134.67  9.0722760E-01
   7135.00  8.8877665E-01
   7135.33  8.7065626E-01
   7135.67  8.5307718E-01
   7136.00  8.3610960E-01
   7136.33  8.1977767E-01
   7136.67  8.0389901E-01
   7137.00  7.8838116E-01
   7137.33  7.7320174E-01
   7137.67  7.5833280E-01
   7138.00  7.4382552E-01
   7138.33  7.2980766E-01
   7138.67  7.1629215E-01
   7139.00  7.0331420E-01
   7139.33  6.9093421E-01
   7139.67  6.7902577E-01
   7140.00  6.6750458E-01
   7140.33  6.5629088E-01
   7140.67  6.4525194E-01
   7141.00  6.3434121E-01
   7141.33  6.2358757E-01
   7141.67  6.1306397E-01
   7142.00  6.0290305E-01
   7142.33  5.9336307E-01
   7142.67  5.8456189E-01
   7143.00  5.7663282E-01
   7143.33  5.6980205E-01
   7143.67  5.6396371E-01
   7144.00  5.5906121E-01
   7144.33  5.5507482E-01
   7144.67  5.5175293E-01
   7145.00  5.4896711E-01
   7145.33  5.4662581E-01
   7145.67  5.4455357E-01
   7146.00  5.4266073E-01
   7146.33  5.4088367E-01
   7146.67  5.3916598E-01
   7147.00  5.3749449E-01
   7147.33  5.3587993E-01
   7147.67  5.3432893E-01
   7148.00  5.3284876E-01
   7148.33  5.3144058E-01
   7148.67  5.3006560E-01
   7149.00  5.2867684E-01
   7149.33  5.2719075E-01
   7149.67  5.2553601E-01
   7150.00  5.2364306E-01
   7150.33  5.2140184E-01
   7150.67  5.1879756E-01
   7151.00  5.1580165E-01
   7151.33  5.1234806E-01
   7151.67  5.0849024E-01
   7152.00  5.0424377E-01
   7152.33  4.9959597E-01
   7152.67  4.9463479E-01
   7153.00  4.8940341E-01
   7153.33  4.8392668E-01
   7153.67  4.7828011E-01
   7154.00  4.7249807E-01
   7154.33  4.6659464E-01
   7154.67  4.6059063E-01
   7155.00  4.5447178E-01
   7155.33  4.4817900E-01
   7155.67  4.4167319E-01
   7156.00  4.3489449E-01
   7156.33  4.2772517E-01
   7156.67  4.2014236E-01
   7157.00  4.1210420E-01
   7157.33  4.0352501E-01
   7157.67  3.9447016E-01
   7158.00  3.8497277E-01
   7158.33  3.7506031E-01
   7158.67  3.6488982E-01
   7159.00  3.5458370E-01
   7159.33  3.4431244E-01
   7159.67  3.3425606E-01
   7160.00  3.2457987E-01
   7160.33  3.1554588E-01
   7160.67  3.0725782E-01
   7161.00  2.9984475E-01
   7161.33  2.9354999E-01
   7161.67  2.8833259E-01
   7162.00  2.8423523E-01
   7162.33  2.8141490E-01
   7162.67  2.7970987E-01
   7163.00  2.7908036E-01
   7163.33  2.7958923E-01
   7163.67  2.8102926E-01
   7164.00  2.8332175E-01
   7164.33  2.8646137E-01
   7164.67  2.9025368E-01
   7165.00  2.9461792E-01
   7165.33  2.9952409E-01
   7165.67  3.0482582E-01
   7166.00  3.1045374E-01
   7166.33  3.1636515E-01
   7166.67  3.2246094E-01
   7167.00  3.2868713E-01
   7167.33  3.3499566E-01
   7167.67  3.4132699E-01
   7168.00  3.4764192E-01
   7168.33  3.5389198E-01
   7168.67  3.6004625E-01
   7169.00  3.6607339E-01
   7169.33  3.7191912E-01
   7169.67  3.7757161E-01
   7170.00  3.8300449E-01
   7170.33  3.8815736E-01
   7170.67  3.9302949E-01
   7171.00  3.9758412E-01
   7171.33  4.0170176E-01
   7171.67  4.0529728E-01
   7172.00  4.0819358E-01
