    FDMNES
    energy     <xanes>
   7097.00  5.4424803E-03
   7097.33  5.5814554E-03
   7097.67  5.7271041E-03
   7098.00  5.8798886E-03
   7098.33  6.0413699E-03
   7098.67  6.2112436E-03
   7099.00  6.3901378E-03
   7099.33  6.5800960E-03
   7099.67  6.7808023E-03
   7100.00  6.9931305E-03
   7100.33  7.2198183E-03
   7100.67  7.4605637E-03
   7101.00  7.7166160E-03
   7101.33  7.9917431E-03
   7101.67  8.2857138E-03
   7102.00  8.6003711E-03
   7102.33  8.9410689E-03
   7102.67  9.3077693E-03
   7103.00  9.7032956E-03
   7103.33  1.0135550E-02
   7103.67  1.0604959E-02
   7104.00  1.1116046E-02
   7104.33  1.1681032E-02
   7104.67  1.2301419E-02
   7105.00  1.2984879E-02
   7105.33  1.3751438E-02
   7105.67  1.4605169E-02
   7106.00  1.5560042E-02
   7106.33  1.6651453E-02
   7106.67  1.7890012E-02
   7107.00  1.9303738E-02
   7107.33  2.0962016E-02
   7107.67  2.2894157E-02
   7108.00  2.5164782E-02
   7108.33  2.7932766E-02
   7108.67  3.1292919E-02
   7109.00  3.5432689E-02
   7109.33  4.0828224E-02
   7109.67  4.7906066E-02
   7110.00  5.7496439E-02
   7110.33  7.1871495E-02
   7110.67  9.3079912E-02
   7111.00  1.2121275E-01
   7111.33  1.5030276E-01
   7111.67  1.8515186E-01
   7112.00  2.4281586E-01
   7112.33  3.5120071E-01
   7112.67  5.2310578E-01
   7113.00  7.4557977E-01
   7113.33  9.2190808E-01
   7113.67  9.5061244E-01
   7114.00  8.3328682E-01
   7114.33  6.4994676E-01
   7114.67  4.9421494E-01
   7115.00  3.8362730E-01
   7115.33  3.1249970E-01
   7115.67  2.6389352E-01
   7116.00  2.3046373E-01
   7116.33  2.0815903E-01
   7116.67  1.9271127E-01
   7117.00  1.8263393E-01
   7117.33  1.7712933E-01
   7117.67  1.7388003E-01
   7118.00  1.7072917E-01
   7118.33  1.6548261E-01
   7118.67  1.5845335E-01
   7119.00  1.5090183E-01
   7119.33  1.4442338E-01
   7119.67  1.3958268E-01
   7120.00  1.3630564E-01
   7120.33  1.3427743E-01
   7120.67  1.3288393E-01
   7121.00  1.3183352E-01
   7121.33  1.3074866E-01
   7121.67  1.2905381E-01
   7122.00  1.2646925E-01
   7122.33  1.2345860E-01
   7122.67  1.2108780E-01
   7123.00  1.1989114E-01
   7123.33  1.2011530E-01
   7123.67  1.2136585E-01
   7124.00  1.2338095E-01
   7124.33  1.2604499E-01
   7124.67  1.2924768E-01
   7125.00  1.3304721E-01
   7125.33  1.3768389E-01
   7125.67  1.4329023E-01
   7126.00  1.5012993E-01
   7126.33  1.5882279E-01
   7126.67  1.6972516E-01
   7127.00  1.8346859E-01
   7127.33  2.0148518E-01
   7127.67  2.2452835E-01
   7128.00  2.5381253E-01
   7128.33  2.9152314E-01
   7128.67  3.3687514E-01
   7129.00  3.8812425E-01
   7129.33  4.4076325E-01
   7129.67  4.8920321E-01
   7130.00  5.3106738E-01
   7130.33  5.6688019E-01
   7130.67  6.0105624E-01
   7131.00  6.3682898E-01
   7131.33  6.7701205E-01
   7131.67  7.2144456E-01
   7132.00  7.6896823E-01
   7132.33  8.1716593E-01
   7132.67  8.6287220E-01
   7133.00  9.0341089E-01
   7133.33  9.3510482E-01
   7133.67  9.5701252E-01
   7134.00  9.6819621E-01
   7134.33  9.6694875E-01
   7134.67  9.5498200E-01
   7135.00  9.3301072E-01
   7135.33  9.0132556E-01
   7135.67  8.6297687E-01
   7136.00  8.1998004E-01
   7136.33  7.7443858E-01
   7136.67  7.2881164E-01
   7137.00  6.8473677E-01
   7137.33  6.4426477E-01
   7137.67  6.0833751E-01
   7138.00  5.7774979E-01
   7138.33  5.5350057E-01
   7138.67  5.3438162E-01
   7139.00  5.1945692E-01
   7139.33  5.0788182E-01
   7139.67  4.9841279E-01
   7140.00  4.9074494E-01
   7140.33  4.8517236E-01
   7140.67  4.8174035E-01
   7141.00  4.8069720E-01
   7141.33  4.8255016E-01
   7141.67  4.8700517E-01
   7142.00  4.9395645E-01
   7142.33  5.0342886E-01
   7142.67  5.1477599E-01
   7143.00  5.2762336E-01
   7143.33  5.4162984E-01
   7143.67  5.5619629E-01
   7144.00  5.7094245E-01
   7144.33  5.8544740E-01
   7144.67  5.9941106E-01
   7145.00  6.1261279E-01
   7145.33  6.2474371E-01
   7145.67  6.3579009E-01
   7146.00  6.4567871E-01
   7146.33  6.5422477E-01
   7146.67  6.6158676E-01
   7147.00  6.6779936E-01
   7147.33  6.7279021E-01
   7147.67  6.7677507E-01
   7148.00  6.7982998E-01
   7148.33  6.8194222E-01
   7148.67  6.8330777E-01
   7149.00  6.8400177E-01
   7149.33  6.8403222E-01
   7149.67  6.8354641E-01
   7150.00  6.8259979E-01
   7150.33  6.8119830E-01
   7150.67  6.7944909E-01
   7151.00  6.7740353E-01
   7151.33  6.7507466E-01
   7151.67  6.7252571E-01
   7152.00  6.6978128E-01
   7152.33  6.6684802E-01
   7152.67  6.6377507E-01
   7153.00  6.6058812E-01
   7153.33  6.5730952E-01
   7153.67  6.5398513E-01
   7154.00  6.5064861E-01
   7154.33  6.4734555E-01
   7154.67  6.4411536E-01
   7155.00  6.4099453E-01
   7155.33  6.3803942E-01
   7155.67  6.3526007E-01
   7156.00  6.3267020E-01
   7156.33  6.3029292E-01
   7156.67  6.2808280E-01
   7157.00  6.2600356E-01
   7157.33  6.2400325E-01
   7157.67  6.2199678E-01
   7158.00  6.1991056E-01
   7158.33  6.1763486E-01
   7158.67  6.1510662E-01
   7159.00  6.1226274E-01
   7159.33  6.0899961E-01
   7159.67  6.0532727E-01
   7160.00  6.0123151E-01
   7160.33  5.9666275E-01
   7160.67  5.9169577E-01
   7161.00  5.8636231E-01
   7161.33  5.8066633E-01
   7161.67  5.7469631E-01
   7162.00  5.6849660E-01
   7162.33  5.6209750E-01
   7162.67  5.5557411E-01
   7163.00  5.4896817E-01
   7163.33  5.4231534E-01
   7163.67  5.3565360E-01
   7164.00  5.2900534E-01
   7164.33  5.2239375E-01
   7164.67  5.1582707E-01
   7165.00  5.0931125E-01
   7165.33  5.0285421E-01
   7165.67  4.9644574E-01
   7166.00  4.9008022E-01
   7166.33  4.8375305E-01
   7166.67  4.7744843E-01
   7167.00  4.7115526E-01
   7167.33  4.6486123E-01
   7167.67  4.5855771E-01
   7168.00  4.5223923E-01
   7168.33  4.4589828E-01
   7168.67  4.3953739E-01
   7169.00  4.3316302E-01
   7169.33  4.2678858E-01
   7169.67  4.2043047E-01
   7170.00  4.1411225E-01
   7170.33  4.0788958E-01
   7170.67  4.0181576E-01
   7171.00  3.9596621E-01
   7171.33  3.9052185E-01
   7171.67  3.8567099E-01
   7172.00  3.8170646E-01
