    FDMNES
    energy     <xanes>
   7097.00  4.4461423E-03
   7097.33  4.5408294E-03
   7097.67  4.6393526E-03
   7098.00  4.7419501E-03
   7098.33  4.8494745E-03
   7098.67  4.9617164E-03
   7099.00  5.0789958E-03
   7099.33  5.2024071E-03
   7099.67  5.3317312E-03
   7100.00  5.4674095E-03
   7100.33  5.6108838E-03
   7100.67  5.7619392E-03
   7101.00  5.9212043E-03
   7101.33  6.0906387E-03
   7101.67  6.2700637E-03
   7102.00  6.4604095E-03
   7102.33  6.6644422E-03
   7102.67  6.8820922E-03
   7103.00  7.1148010E-03
   7103.33  7.3666606E-03
   7103.67  7.6378774E-03
   7104.00  7.9308171E-03
   7104.33  8.2519001E-03
   7104.67  8.6020139E-03
   7105.00  8.9853300E-03
   7105.33  9.4127183E-03
   7105.67  9.8868051E-03
   7106.00  1.0415671E-02
   7106.33  1.1019681E-02
   7106.67  1.1706307E-02
   7107.00  1.2493343E-02
   7107.33  1.3424735E-02
   7107.67  1.4523644E-02
   7108.00  1.5837252E-02
   7108.33  1.7482728E-02
   7108.67  1.9548081E-02
   7109.00  2.2200942E-02
   7109.33  2.5882443E-02
   7109.67  3.1080368E-02
   7110.00  3.8752518E-02
   7110.33  5.1655247E-02
   7110.67  7.2730946E-02
   7111.00  1.0237418E-01
   7111.33  1.2781191E-01
   7111.67  1.4293553E-01
   7112.00  1.6394061E-01
   7112.33  2.0771547E-01
   7112.67  2.3649673E-01
   7113.00  2.2800219E-01
   7113.33  2.2514805E-01
   7113.67  2.2436889E-01
   7114.00  2.0328422E-01
   7114.33  1.6602598E-01
   7114.67  1.3079717E-01
   7115.00  1.0261818E-01
   7115.33  8.4119456E-02
   7115.67  7.3199063E-02
   7116.00  6.7893356E-02
   7116.33  6.6410221E-02
   7116.67  6.6192642E-02
   7117.00  6.6317223E-02
   7117.33  6.7888714E-02
   7117.67  7.2305869E-02
   7118.00  8.0452525E-02
   7118.33  9.3718794E-02
   7118.67  1.1234811E-01
   7119.00  1.3663501E-01
   7119.33  1.6550433E-01
   7119.67  1.9309134E-01
   7120.00  2.1344915E-01
   7120.33  2.2452985E-01
   7120.67  2.3266450E-01
   7121.00  2.4099720E-01
   7121.33  2.5052065E-01
   7121.67  2.6170623E-01
   7122.00  2.7537059E-01
   7122.33  2.9276580E-01
   7122.67  3.1375594E-01
   7123.00  3.3765839E-01
   7123.33  3.6209580E-01
   7123.67  3.8378014E-01
   7124.00  4.0151661E-01
   7124.33  4.1612837E-01
   7124.67  4.2927435E-01
   7125.00  4.4113169E-01
   7125.33  4.5191294E-01
   7125.67  4.6276416E-01
   7126.00  4.7436134E-01
   7126.33  4.8664010E-01
   7126.67  4.9897184E-01
   7127.00  5.1190477E-01
   7127.33  5.2811640E-01
   7127.67  5.4874841E-01
   7128.00  5.7227355E-01
   7128.33  5.9462716E-01
   7128.67  6.1291235E-01
   7129.00  6.2628214E-01
   7129.33  6.3444743E-01
   7129.67  6.3876041E-01
   7130.00  6.3996433E-01
   7130.33  6.3869951E-01
   7130.67  6.3629459E-01
   7131.00  6.3379973E-01
   7131.33  6.3242029E-01
   7131.67  6.3213367E-01
   7132.00  6.3176919E-01
   7132.33  6.2921503E-01
   7132.67  6.2453306E-01
   7133.00  6.1980936E-01
   7133.33  6.1887300E-01
   7133.67  6.2264407E-01
   7134.00  6.2966516E-01
   7134.33  6.3713940E-01
   7134.67  6.4318694E-01
   7135.00  6.4754097E-01
   7135.33  6.5068740E-01
   7135.67  6.5368232E-01
   7136.00  6.5722807E-01
   7136.33  6.6202925E-01
   7136.67  6.6820330E-01
   7137.00  6.7572905E-01
   7137.33  6.8445674E-01
   7137.67  6.9372990E-01
   7138.00  7.0295890E-01
   7138.33  7.1128761E-01
   7138.67  7.1809691E-01
   7139.00  7.2288283E-01
   7139.33  7.2497994E-01
   7139.67  7.2460758E-01
   7140.00  7.2192104E-01
   7140.33  7.1705990E-01
   7140.67  7.1077048E-01
   7141.00  7.0351061E-01
   7141.33  6.9571289E-01
   7141.67  6.8783978E-01
   7142.00  6.8014799E-01
   7142.33  6.7287899E-01
   7142.67  6.6608327E-01
   7143.00  6.5978188E-01
   7143.33  6.5399289E-01
   7143.67  6.4857510E-01
   7144.00  6.4343734E-01
   7144.33  6.3848334E-01
   7144.67  6.3357758E-01
   7145.00  6.2863329E-01
   7145.33  6.2355053E-01
   7145.67  6.1827443E-01
   7146.00  6.1275417E-01
   7146.33  6.0690490E-01
   7146.67  6.0072779E-01
   7147.00  5.9420287E-01
   7147.33  5.8727269E-01
   7147.67  5.7998079E-01
   7148.00  5.7233366E-01
   7148.33  5.6430305E-01
   7148.67  5.5595181E-01
   7149.00  5.4730120E-01
   7149.33  5.3834534E-01
   7149.67  5.2915028E-01
   7150.00  5.1974892E-01
   7150.33  5.1016781E-01
   7150.67  5.0048526E-01
   7151.00  4.9076333E-01
   7151.33  4.8109449E-01
   7151.67  4.7157325E-01
   7152.00  4.6229489E-01
   7152.33  4.5342069E-01
   7152.67  4.4501641E-01
   7153.00  4.3716003E-01
   7153.33  4.2999112E-01
   7153.67  4.2346495E-01
   7154.00  4.1757915E-01
   7154.33  4.1237060E-01
   7154.67  4.0769353E-01
   7155.00  4.0347020E-01
   7155.33  3.9964615E-01
   7155.67  3.9608116E-01
   7156.00  3.9270028E-01
   7156.33  3.8944567E-01
   7156.67  3.8626357E-01
   7157.00  3.8314155E-01
   7157.33  3.8007612E-01
   7157.67  3.7707526E-01
   7158.00  3.7417189E-01
   7158.33  3.7142995E-01
   7158.67  3.6887905E-01
   7159.00  3.6655763E-01
   7159.33  3.6453665E-01
   7159.67  3.6280963E-01
   7160.00  3.6138905E-01
   7160.33  3.6031244E-01
   7160.67  3.5952815E-01
   7161.00  3.5901609E-01
   7161.33  3.5877280E-01
   7161.67  3.5873823E-01
   7162.00  3.5889367E-01
   7162.33  3.5924488E-01
   7162.67  3.5976094E-01
   7163.00  3.6044044E-01
   7163.33  3.6130946E-01
   7163.67  3.6235580E-01
   7164.00  3.6358718E-01
   7164.33  3.6503346E-01
   7164.67  3.6666985E-01
   7165.00  3.6848737E-01
   7165.33  3.7048421E-01
   7165.67  3.7260709E-01
   7166.00  3.7481971E-01
   7166.33  3.7707909E-01
   7166.67  3.7932926E-01
   7167.00  3.8152761E-01
   7167.33  3.8361757E-01
   7167.67  3.8557573E-01
   7168.00  3.8738090E-01
   7168.33  3.8899948E-01
   7168.67  3.9045116E-01
   7169.00  3.9174310E-01
   7169.33  3.9287414E-01
   7169.67  3.9388594E-01
   7170.00  3.9480216E-01
   7170.33  3.9564288E-01
   7170.67  3.9644203E-01
   7171.00  3.9721493E-01
   7171.33  3.9796111E-01
   7171.67  3.9865652E-01
   7172.00  3.9924682E-01
