    FDMNES
    energy     <xanes>
   7097.00  5.0298349E-03
   7097.33  5.1465082E-03
   7097.67  5.2683290E-03
   7098.00  5.3956352E-03
   7098.33  5.5296005E-03
   7098.67  5.6699665E-03
   7099.00  5.8171898E-03
   7099.33  5.9727918E-03
   7099.67  6.1365031E-03
   7100.00  6.3089561E-03
   7100.33  6.4921726E-03
   7100.67  6.6858916E-03
   7101.00  6.8910161E-03
   7101.33  7.1103126E-03
   7101.67  7.3435731E-03
   7102.00  7.5921336E-03
   7102.33  7.8599168E-03
   7102.67  8.1468672E-03
   7103.00  8.4550482E-03
   7103.33  8.7902706E-03
   7103.67  9.1528574E-03
   7104.00  9.5461716E-03
   7104.33  9.9793050E-03
   7104.67  1.0453501E-02
   7105.00  1.0974624E-02
   7105.33  1.1557947E-02
   7105.67  1.2207029E-02
   7106.00  1.2933056E-02
   7106.33  1.3764240E-02
   7106.67  1.4710503E-02
   7107.00  1.5795969E-02
   7107.33  1.7080254E-02
   7107.67  1.8593499E-02
   7108.00  2.0397988E-02
   7108.33  2.2648140E-02
   7108.67  2.5455644E-02
   7109.00  2.9034315E-02
   7109.33  3.3943101E-02
   7109.67  4.0779850E-02
   7110.00  5.0714784E-02
   7110.33  6.7108238E-02
   7110.67  9.3764998E-02
   7111.00  1.3289620E-01
   7111.33  1.7508789E-01
   7111.67  2.0668983E-01
   7112.00  2.2683236E-01
   7112.33  2.4111461E-01
   7112.67  2.6325093E-01
   7113.00  2.9825109E-01
   7113.33  3.3995549E-01
   7113.67  3.6520671E-01
   7114.00  3.5604120E-01
   7114.33  3.2326624E-01
   7114.67  2.9507632E-01
   7115.00  2.7874494E-01
   7115.33  2.6991215E-01
   7115.67  2.6292549E-01
   7116.00  2.5884425E-01
   7116.33  2.6160938E-01
   7116.67  2.7129477E-01
   7117.00  2.8156137E-01
   7117.33  2.7499542E-01
   7117.67  2.5123201E-01
   7118.00  2.2359431E-01
   7118.33  2.0397661E-01
   7118.67  1.9146015E-01
   7119.00  1.8214626E-01
   7119.33  1.7320963E-01
   7119.67  1.6547223E-01
   7120.00  1.5992105E-01
   7120.33  1.5617264E-01
   7120.67  1.5362237E-01
   7121.00  1.5323861E-01
   7121.33  1.5679614E-01
   7121.67  1.6463018E-01
   7122.00  1.7683775E-01
   7122.33  1.9341282E-01
   7122.67  2.1307903E-01
   7123.00  2.3538676E-01
   7123.33  2.6053202E-01
   7123.67  2.8777752E-01
   7124.00  3.1603146E-01
   7124.33  3.4332100E-01
   7124.67  3.6818838E-01
   7125.00  3.9016530E-01
   7125.33  4.0931286E-01
   7125.67  4.2659182E-01
   7126.00  4.4229678E-01
   7126.33  4.5617502E-01
   7126.67  4.6846869E-01
   7127.00  4.7986499E-01
   7127.33  4.9192802E-01
   7127.67  5.0568114E-01
   7128.00  5.2089176E-01
   7128.33  5.3610176E-01
   7128.67  5.4980225E-01
   7129.00  5.6151734E-01
   7129.33  5.7157962E-01
   7129.67  5.8097021E-01
   7130.00  5.8991157E-01
   7130.33  5.9789114E-01
   7130.67  6.0451118E-01
   7131.00  6.0987610E-01
   7131.33  6.1477625E-01
   7131.67  6.2027268E-01
   7132.00  6.2679209E-01
   7132.33  6.3421982E-01
   7132.67  6.4200895E-01
   7133.00  6.5018879E-01
   7133.33  6.5950963E-01
   7133.67  6.7054507E-01
   7134.00  6.8352087E-01
   7134.33  6.9803409E-01
   7134.67  7.1206176E-01
   7135.00  7.2326955E-01
   7135.33  7.2879648E-01
   7135.67  7.2866958E-01
   7136.00  7.2351510E-01
   7136.33  7.1401211E-01
   7136.67  7.0173842E-01
   7137.00  6.8758122E-01
   7137.33  6.7255459E-01
   7137.67  6.5787945E-01
   7138.00  6.4434586E-01
   7138.33  6.3273889E-01
   7138.67  6.2305681E-01
   7139.00  6.1525923E-01
   7139.33  6.0932768E-01
   7139.67  6.0469568E-01
   7140.00  6.0097276E-01
   7140.33  5.9766552E-01
   7140.67  5.9412356E-01
   7141.00  5.8982709E-01
   7141.33  5.8411533E-01
   7141.67  5.7687725E-01
   7142.00  5.6813753E-01
   7142.33  5.5806097E-01
   7142.67  5.4731080E-01
   7143.00  5.3637948E-01
   7143.33  5.2583613E-01
   7143.67  5.1605853E-01
   7144.00  5.0731273E-01
   7144.33  4.9993614E-01
   7144.67  4.9382594E-01
   7145.00  4.8896200E-01
   7145.33  4.8543671E-01
   7145.67  4.8301819E-01
   7146.00  4.8161932E-01
   7146.33  4.8124301E-01
   7146.67  4.8166522E-01
   7147.00  4.8279791E-01
   7147.33  4.8462867E-01
   7147.67  4.8700599E-01
   7148.00  4.8987943E-01
   7148.33  4.9326100E-01
   7148.67  4.9706416E-01
   7149.00  5.0127461E-01
   7149.33  5.0593919E-01
   7149.67  5.1101096E-01
   7150.00  5.1649441E-01
   7150.33  5.2244277E-01
   7150.67  5.2879035E-01
   7151.00  5.3551009E-01
   7151.33  5.4258937E-01
   7151.67  5.4989939E-01
   7152.00  5.5733105E-01
   7152.33  5.6472333E-01
   7152.67  5.7190550E-01
   7153.00  5.7872592E-01
   7153.33  5.8496114E-01
   7153.67  5.9055697E-01
   7154.00  5.9545426E-01
   7154.33  5.9955139E-01
   7154.67  6.0297940E-01
   7155.00  6.0580736E-01
   7155.33  6.0807480E-01
   7155.67  6.0995001E-01
   7156.00  6.1151520E-01
   7156.33  6.1281756E-01
   7156.67  6.1393612E-01
   7157.00  6.1489075E-01
   7157.33  6.1565789E-01
   7157.67  6.1623056E-01
   7158.00  6.1656808E-01
   7158.33  6.1657086E-01
   7158.67  6.1620347E-01
   7159.00  6.1540024E-01
   7159.33  6.1402210E-01
   7159.67  6.1206481E-01
   7160.00  6.0948163E-01
   7160.33  6.0615714E-01
   7160.67  6.0216815E-01
   7161.00  5.9753467E-01
   7161.33  5.9223304E-01
   7161.67  5.8640359E-01
   7162.00  5.8011170E-01
   7162.33  5.7339524E-01
   7162.67  5.6639305E-01
   7163.00  5.5918404E-01
   7163.33  5.5184629E-01
   7163.67  5.4447990E-01
   7164.00  5.3714257E-01
   7164.33  5.2989704E-01
   7164.67  5.2277501E-01
   7165.00  5.1580488E-01
   7165.33  5.0903296E-01
   7165.67  5.0245282E-01
   7166.00  4.9607253E-01
   7166.33  4.8992239E-01
   7166.67  4.8397857E-01
   7167.00  4.7824085E-01
   7167.33  4.7273247E-01
   7167.67  4.6742675E-01
   7168.00  4.6232697E-01
   7168.33  4.5746342E-01
   7168.67  4.5281077E-01
   7169.00  4.4837275E-01
   7169.33  4.4418478E-01
   7169.67  4.4022919E-01
   7170.00  4.3651632E-01
   7170.33  4.3309134E-01
   7170.67  4.2993670E-01
   7171.00  4.2706766E-01
   7171.33  4.2455089E-01
   7171.67  4.2239773E-01
   7172.00  4.2067282E-01
