    FDMNES
    energy     <xanes>
   7097.00  5.1188058E-03
   7097.33  5.2367772E-03
   7097.67  5.3599323E-03
   7098.00  5.4886088E-03
   7098.33  5.6239833E-03
   7098.67  5.7657916E-03
   7099.00  5.9144874E-03
   7099.33  6.0715914E-03
   7099.67  6.2368252E-03
   7100.00  6.4108147E-03
   7100.33  6.5955717E-03
   7100.67  6.7908213E-03
   7101.00  6.9974511E-03
   7101.33  7.2181990E-03
   7101.67  7.4528331E-03
   7102.00  7.7026562E-03
   7102.33  7.9715219E-03
   7102.67  8.2593300E-03
   7103.00  8.5680733E-03
   7103.33  8.9034051E-03
   7103.67  9.2655579E-03
   7104.00  9.6577383E-03
   7104.33  1.0088682E-02
   7104.67  1.0559429E-02
   7105.00  1.1075483E-02
   7105.33  1.1651276E-02
   7105.67  1.2289866E-02
   7106.00  1.3001532E-02
   7106.33  1.3812362E-02
   7106.67  1.4730852E-02
   7107.00  1.5778588E-02
   7107.33  1.7009099E-02
   7107.67  1.8447749E-02
   7108.00  2.0148329E-02
   7108.33  2.2244072E-02
   7108.67  2.4826124E-02
   7109.00  2.8070771E-02
   7109.33  3.2435465E-02
   7109.67  3.8388047E-02
   7110.00  4.6842034E-02
   7110.33  6.0387059E-02
   7110.67  8.1820518E-02
   7111.00  1.1269303E-01
   7111.33  1.4809493E-01
   7111.67  1.8235959E-01
   7112.00  2.1820120E-01
   7112.33  2.5764115E-01
   7112.67  2.8683502E-01
   7113.00  2.9992620E-01
   7113.33  3.0665264E-01
   7113.67  3.2013480E-01
   7114.00  3.4301175E-01
   7114.33  3.6269573E-01
   7114.67  3.6679067E-01
   7115.00  3.5656047E-01
   7115.33  3.3976784E-01
   7115.67  3.2625968E-01
   7116.00  3.2127673E-01
   7116.33  3.2676359E-01
   7116.67  3.3668276E-01
   7117.00  3.4446404E-01
   7117.33  3.4168313E-01
   7117.67  3.2439952E-01
   7118.00  2.9365906E-01
   7118.33  2.5820924E-01
   7118.67  2.2721966E-01
   7119.00  2.0304959E-01
   7119.33  1.8578229E-01
   7119.67  1.7314281E-01
   7120.00  1.6396006E-01
   7120.33  1.5742346E-01
   7120.67  1.5261825E-01
   7121.00  1.4945379E-01
   7121.33  1.4820827E-01
   7121.67  1.4891732E-01
   7122.00  1.5236690E-01
   7122.33  1.6043319E-01
   7122.67  1.7343157E-01
   7123.00  1.9124370E-01
   7123.33  2.1331217E-01
   7123.67  2.3738612E-01
   7124.00  2.6166604E-01
   7124.33  2.8411523E-01
   7124.67  3.0398216E-01
   7125.00  3.2138197E-01
   7125.33  3.3719048E-01
   7125.67  3.5296915E-01
   7126.00  3.6963420E-01
   7126.33  3.8793330E-01
   7126.67  4.0769542E-01
   7127.00  4.2820672E-01
   7127.33  4.4714567E-01
   7127.67  4.6187688E-01
   7128.00  4.7117934E-01
   7128.33  4.7564836E-01
   7128.67  4.7856463E-01
   7129.00  4.8209759E-01
   7129.33  4.8797809E-01
   7129.67  4.9627816E-01
   7130.00  5.0656674E-01
   7130.33  5.1795690E-01
   7130.67  5.2912244E-01
   7131.00  5.3918920E-01
   7131.33  5.4762180E-01
   7131.67  5.5512901E-01
   7132.00  5.6255628E-01
   7132.33  5.7088955E-01
   7132.67  5.8056473E-01
   7133.00  5.9173500E-01
   7133.33  6.0434734E-01
   7133.67  6.1773815E-01
   7134.00  6.3150937E-01
   7134.33  6.4545330E-01
   7134.67  6.5950573E-01
   7135.00  6.7367943E-01
   7135.33  6.8802967E-01
   7135.67  7.0255954E-01
   7136.00  7.1722110E-01
   7136.33  7.3178838E-01
   7136.67  7.4582580E-01
   7137.00  7.5875737E-01
   7137.33  7.6949215E-01
   7137.67  7.7735625E-01
   7138.00  7.8164285E-01
   7138.33  7.8130651E-01
   7138.67  7.7684316E-01
   7139.00  7.6874413E-01
   7139.33  7.5777188E-01
   7139.67  7.4556356E-01
   7140.00  7.3311350E-01
   7140.33  7.2116351E-01
   7140.67  7.0972530E-01
   7141.00  6.9844235E-01
   7141.33  6.8660665E-01
   7141.67  6.7369973E-01
   7142.00  6.5947948E-01
   7142.33  6.4389986E-01
   7142.67  6.2755739E-01
   7143.00  6.1097195E-01
   7143.33  5.9478718E-01
   7143.67  5.7944153E-01
   7144.00  5.6522633E-01
   7144.33  5.5251705E-01
   7144.67  5.4122981E-01
   7145.00  5.3134267E-01
   7145.33  5.2294357E-01
   7145.67  5.1578811E-01
   7146.00  5.0981624E-01
   7146.33  5.0510439E-01
   7146.67  5.0145359E-01
   7147.00  4.9881499E-01
   7147.33  4.9724963E-01
   7147.67  4.9657579E-01
   7148.00  4.9673466E-01
   7148.33  4.9774447E-01
   7148.67  4.9942537E-01
   7149.00  5.0169721E-01
   7149.33  5.0452109E-01
   7149.67  5.0773046E-01
   7150.00  5.1123348E-01
   7150.33  5.1494743E-01
   7150.67  5.1874511E-01
   7151.00  5.2253745E-01
   7151.33  5.2620394E-01
   7151.67  5.2966189E-01
   7152.00  5.3283869E-01
   7152.33  5.3561372E-01
   7152.67  5.3797031E-01
   7153.00  5.3987320E-01
   7153.33  5.4124419E-01
   7153.67  5.4214737E-01
   7154.00  5.4260798E-01
   7154.33  5.4262558E-01
   7154.67  5.4231508E-01
   7155.00  5.4174332E-01
   7155.33  5.4097419E-01
   7155.67  5.4011928E-01
   7156.00  5.3925513E-01
   7156.33  5.3847724E-01
   7156.67  5.3785678E-01
   7157.00  5.3745819E-01
   7157.33  5.3738621E-01
   7157.67  5.3766473E-01
   7158.00  5.3833782E-01
   7158.33  5.3950194E-01
   7158.67  5.4113325E-01
   7159.00  5.4324825E-01
   7159.33  5.4591469E-01
   7159.67  5.4905933E-01
   7160.00  5.5265236E-01
   7160.33  5.5668548E-01
   7160.67  5.6102782E-01
   7161.00  5.6558831E-01
   7161.33  5.7025151E-01
   7161.67  5.7486008E-01
   7162.00  5.7927709E-01
   7162.33  5.8328952E-01
   7162.67  5.8677106E-01
   7163.00  5.8958437E-01
   7163.33  5.9149943E-01
   7163.67  5.9252659E-01
   7164.00  5.9261382E-01
   7164.33  5.9160853E-01
   7164.67  5.8963839E-01
   7165.00  5.8673718E-01
   7165.33  5.8286341E-01
   7165.67  5.7821553E-01
   7166.00  5.7288434E-01
   7166.33  5.6691048E-01
   7166.67  5.6048038E-01
   7167.00  5.5369291E-01
   7167.33  5.4662849E-01
   7167.67  5.3942314E-01
   7168.00  5.3216284E-01
   7168.33  5.2494152E-01
   7168.67  5.1783063E-01
   7169.00  5.1089003E-01
   7169.33  5.0421047E-01
   7169.67  4.9781436E-01
   7170.00  4.9173917E-01
   7170.33  4.8606801E-01
   7170.67  4.8079253E-01
   7171.00  4.7594871E-01
   7171.33  4.7165932E-01
   7171.67  4.6797199E-01
   7172.00  4.6502856E-01
