    FDMNES
    energy     <xanes>
   7097.00  4.7105877E-03
   7097.33  4.8148273E-03
   7097.67  4.9235175E-03
   7098.00  5.0369484E-03
   7098.33  5.1561322E-03
   7098.67  5.2808447E-03
   7099.00  5.4114801E-03
   7099.33  5.5493536E-03
   7099.67  5.6942351E-03
   7100.00  5.8466752E-03
   7100.33  6.0084297E-03
   7100.67  6.1792836E-03
   7101.00  6.3600315E-03
   7101.33  6.5530957E-03
   7101.67  6.7583224E-03
   7102.00  6.9769049E-03
   7102.33  7.2123197E-03
   7102.67  7.4645786E-03
   7103.00  7.7355616E-03
   7103.33  8.0305069E-03
   7103.67  8.3498328E-03
   7104.00  8.6966796E-03
   7104.33  9.0794373E-03
   7104.67  9.4995155E-03
   7105.00  9.9625619E-03
   7105.33  1.0483108E-02
   7105.67  1.1065095E-02
   7106.00  1.1719701E-02
   7106.33  1.2474831E-02
   7106.67  1.3341530E-02
   7107.00  1.4344956E-02
   7107.33  1.5546904E-02
   7107.67  1.6981544E-02
   7108.00  1.8716957E-02
   7108.33  2.0921773E-02
   7108.67  2.3725745E-02
   7109.00  2.7373548E-02
   7109.33  3.2507129E-02
   7109.67  3.9836552E-02
   7110.00  5.0744215E-02
   7110.33  6.9151380E-02
   7110.67  9.9013215E-02
   7111.00  1.4150391E-01
   7111.33  1.9489274E-01
   7111.67  2.5449511E-01
   7112.00  2.8945801E-01
   7112.33  2.7436877E-01
   7112.67  2.4855873E-01
   7113.00  2.2349372E-01
   7113.33  2.0062265E-01
   7113.67  1.8429140E-01
   7114.00  1.6335743E-01
   7114.33  1.3241142E-01
   7114.67  1.0549480E-01
   7115.00  8.7501307E-02
   7115.33  7.8093034E-02
   7115.67  7.4246476E-02
   7116.00  7.5018623E-02
   7116.33  8.0820890E-02
   7116.67  9.1733103E-02
   7117.00  1.0870523E-01
   7117.33  1.3368652E-01
   7117.67  1.6456077E-01
   7118.00  1.9481318E-01
   7118.33  2.1104077E-01
   7118.67  2.1151308E-01
   7119.00  2.0174198E-01
   7119.33  1.8854169E-01
   7119.67  1.7792702E-01
   7120.00  1.7332447E-01
   7120.33  1.7683191E-01
   7120.67  1.8616896E-01
   7121.00  1.9957594E-01
   7121.33  2.1649554E-01
   7121.67  2.3713693E-01
   7122.00  2.6267126E-01
   7122.33  2.9523869E-01
   7122.67  3.3476469E-01
   7123.00  3.8063397E-01
   7123.33  4.2929231E-01
   7123.67  4.7161158E-01
   7124.00  4.9861615E-01
   7124.33  5.0413102E-01
   7124.67  4.9561430E-01
   7125.00  4.7990886E-01
   7125.33  4.6370749E-01
   7125.67  4.5133296E-01
   7126.00  4.4466453E-01
   7126.33  4.4514900E-01
   7126.67  4.5158287E-01
   7127.00  4.6309874E-01
   7127.33  4.7902989E-01
   7127.67  4.9805757E-01
   7128.00  5.1976206E-01
   7128.33  5.4403218E-01
   7128.67  5.7024814E-01
   7129.00  5.9815073E-01
   7129.33  6.2724306E-01
   7129.67  6.5603039E-01
   7130.00  6.8278363E-01
   7130.33  7.0474138E-01
   7130.67  7.2070778E-01
   7131.00  7.3018107E-01
   7131.33  7.3323982E-01
   7131.67  7.3233869E-01
   7132.00  7.2892723E-01
   7132.33  7.2364952E-01
   7132.67  7.1672614E-01
   7133.00  7.0809086E-01
   7133.33  6.9795441E-01
   7133.67  6.8714136E-01
   7134.00  6.7603209E-01
   7134.33  6.6460964E-01
   7134.67  6.5269786E-01
   7135.00  6.4024021E-01
   7135.33  6.2738531E-01
   7135.67  6.1456683E-01
   7136.00  6.0226863E-01
   7136.33  5.9149576E-01
   7136.67  5.8324132E-01
   7137.00  5.7860528E-01
   7137.33  5.7912799E-01
   7137.67  5.8444488E-01
   7138.00  5.9404323E-01
   7138.33  6.0714829E-01
   7138.67  6.2195445E-01
   7139.00  6.3725475E-01
   7139.33  6.5166232E-01
   7139.67  6.6416345E-01
   7140.00  6.7399366E-01
   7140.33  6.8016872E-01
   7140.67  6.8290215E-01
   7141.00  6.8228806E-01
   7141.33  6.7822466E-01
   7141.67  6.7144952E-01
   7142.00  6.6229098E-01
   7142.33  6.5092646E-01
   7142.67  6.3805538E-01
   7143.00  6.2407181E-01
   7143.33  6.0934118E-01
   7143.67  5.9438406E-01
   7144.00  5.7957581E-01
   7144.33  5.6542052E-01
   7144.67  5.5223225E-01
   7145.00  5.4026231E-01
   7145.33  5.2983861E-01
   7145.67  5.2079042E-01
   7146.00  5.1301597E-01
   7146.33  5.0645732E-01
   7146.67  5.0075693E-01
   7147.00  4.9573165E-01
   7147.33  4.9125836E-01
   7147.67  4.8713564E-01
   7148.00  4.8328803E-01
   7148.33  4.7969327E-01
   7148.67  4.7628928E-01
   7149.00  4.7304831E-01
   7149.33  4.6994060E-01
   7149.67  4.6689012E-01
   7150.00  4.6382893E-01
   7150.33  4.6065128E-01
   7150.67  4.5727096E-01
   7151.00  4.5359416E-01
   7151.33  4.4945351E-01
   7151.67  4.4479390E-01
   7152.00  4.3955085E-01
   7152.33  4.3362317E-01
   7152.67  4.2713022E-01
   7153.00  4.2017367E-01
   7153.33  4.1290757E-01
   7153.67  4.0560757E-01
   7154.00  3.9849724E-01
   7154.33  3.9187841E-01
   7154.67  3.8590178E-01
   7155.00  3.8069672E-01
   7155.33  3.7646338E-01
   7155.67  3.7312648E-01
   7156.00  3.7067096E-01
   7156.33  3.6913829E-01
   7156.67  3.6832834E-01
   7157.00  3.6813673E-01
   7157.33  3.6848826E-01
   7157.67  3.6918333E-01
   7158.00  3.7010792E-01
   7158.33  3.7115927E-01
   7158.67  3.7223102E-01
   7159.00  3.7326730E-01
   7159.33  3.7422361E-01
   7159.67  3.7510021E-01
   7160.00  3.7590349E-01
   7160.33  3.7664386E-01
   7160.67  3.7735563E-01
   7161.00  3.7806536E-01
   7161.33  3.7880269E-01
   7161.67  3.7958243E-01
   7162.00  3.8041128E-01
   7162.33  3.8129406E-01
   7162.67  3.8221634E-01
   7163.00  3.8316939E-01
   7163.33  3.8415189E-01
   7163.67  3.8516775E-01
   7164.00  3.8623467E-01
   7164.33  3.8739647E-01
   7164.67  3.8868534E-01
   7165.00  3.9014131E-01
   7165.33  3.9183660E-01
   7165.67  3.9378288E-01
   7166.00  3.9600262E-01
   7166.33  3.9854280E-01
   7166.67  4.0136292E-01
   7167.00  4.0444677E-01
   7167.33  4.0779315E-01
   7167.67  4.1133315E-01
   7168.00  4.1502798E-01
   7168.33  4.1884328E-01
   7168.67  4.2271700E-01
   7169.00  4.2660790E-01
   7169.33  4.3046590E-01
   7169.67  4.3424999E-01
   7170.00  4.3792335E-01
   7170.33  4.4142554E-01
   7170.67  4.4473439E-01
   7171.00  4.4781249E-01
   7171.33  4.5056973E-01
   7171.67  4.5295636E-01
   7172.00  4.5486698E-01
