    FDMNES
    energy     <xanes>
   7097.00  4.2915104E-03
   7097.33  4.3800399E-03
   7097.67  4.4721792E-03
   7098.00  4.5681615E-03
   7098.33  4.6688048E-03
   7098.67  4.7739257E-03
   7099.00  4.8838426E-03
   7099.33  4.9996201E-03
   7099.67  5.1210731E-03
   7100.00  5.2486496E-03
   7100.33  5.3837770E-03
   7100.67  5.5262878E-03
   7101.00  5.6768355E-03
   7101.33  5.8374034E-03
   7101.67  6.0078857E-03
   7102.00  6.1892771E-03
   7102.33  6.3844555E-03
   7102.67  6.5934763E-03
   7103.00  6.8179349E-03
   7103.33  7.0622374E-03
   7103.67  7.3268333E-03
   7104.00  7.6144504E-03
   7104.33  7.9323051E-03
   7104.67  8.2818211E-03
   7105.00  8.6680547E-03
   7105.33  9.1038946E-03
   7105.67  9.5933199E-03
   7106.00  1.0146741E-02
   7106.33  1.0789979E-02
   7106.67  1.1534469E-02
   7107.00  1.2404931E-02
   7107.33  1.3461996E-02
   7107.67  1.4742853E-02
   7108.00  1.6319492E-02
   7108.33  1.8371750E-02
   7108.67  2.1052445E-02
   7109.00  2.4648501E-02
   7109.33  2.9930716E-02
   7109.67  3.7834877E-02
   7110.00  5.0213232E-02
   7110.33  7.2469888E-02
   7110.67  1.1015584E-01
   7111.00  1.6156432E-01
   7111.33  1.9412227E-01
   7111.67  1.9355797E-01
   7112.00  1.7915791E-01
   7112.33  1.6511189E-01
   7112.67  1.5179533E-01
   7113.00  1.3884958E-01
   7113.33  1.2577925E-01
   7113.67  1.1394222E-01
   7114.00  1.0524905E-01
   7114.33  9.8117506E-02
   7114.67  8.8332408E-02
   7115.00  7.6968927E-02
   7115.33  6.8626457E-02
   7115.67  6.4158357E-02
   7116.00  6.2962711E-02
   7116.33  6.4536551E-02
   7116.67  6.7932929E-02
   7117.00  7.2642864E-02
   7117.33  7.8139598E-02
   7117.67  8.3825396E-02
   7118.00  8.9499319E-02
   7118.33  9.5182137E-02
   7118.67  1.0090274E-01
   7119.00  1.0653879E-01
   7119.33  1.1179763E-01
   7119.67  1.1655088E-01
   7120.00  1.2087247E-01
   7120.33  1.2519250E-01
   7120.67  1.3015221E-01
   7121.00  1.3626663E-01
   7121.33  1.4418759E-01
   7121.67  1.5401412E-01
   7122.00  1.6589223E-01
   7122.33  1.8018070E-01
   7122.67  1.9669988E-01
   7123.00  2.1557921E-01
   7123.33  2.3719429E-01
   7123.67  2.6058927E-01
   7124.00  2.8433219E-01
   7124.33  3.0655818E-01
   7124.67  3.2650433E-01
   7125.00  3.4412290E-01
   7125.33  3.6079175E-01
   7125.67  3.7924498E-01
   7126.00  3.9959216E-01
   7126.33  4.1801561E-01
   7126.67  4.3228569E-01
   7127.00  4.4397939E-01
   7127.33  4.5705994E-01
   7127.67  4.7376462E-01
   7128.00  4.9405158E-01
   7128.33  5.1665729E-01
   7128.67  5.3991300E-01
   7129.00  5.6372355E-01
   7129.33  5.8959803E-01
   7129.67  6.1902776E-01
   7130.00  6.5277509E-01
   7130.33  6.9050250E-01
   7130.67  7.2915160E-01
   7131.00  7.6561615E-01
   7131.33  7.9590951E-01
   7131.67  8.1883794E-01
   7132.00  8.3403957E-01
   7132.33  8.4105442E-01
   7132.67  8.4154831E-01
   7133.00  8.3626945E-01
   7133.33  8.2597874E-01
   7133.67  8.1318805E-01
   7134.00  7.9953171E-01
   7134.33  7.8609109E-01
   7134.67  7.7327277E-01
   7135.00  7.6130540E-01
   7135.33  7.5028919E-01
   7135.67  7.3991872E-01
   7136.00  7.3005158E-01
   7136.33  7.2058975E-01
   7136.67  7.1130800E-01
   7137.00  7.0203571E-01
   7137.33  6.9256385E-01
   7137.67  6.8274941E-01
   7138.00  6.7247266E-01
   7138.33  6.6157163E-01
   7138.67  6.5011276E-01
   7139.00  6.3819339E-01
   7139.33  6.2602177E-01
   7139.67  6.1395639E-01
   7140.00  6.0228774E-01
   7140.33  5.9132215E-01
   7140.67  5.8098163E-01
   7141.00  5.7105668E-01
   7141.33  5.6117080E-01
   7141.67  5.5106297E-01
   7142.00  5.4086033E-01
   7142.33  5.3129359E-01
   7142.67  5.2323467E-01
   7143.00  5.1733573E-01
   7143.33  5.1417276E-01
   7143.67  5.1322476E-01
   7144.00  5.1408558E-01
   7144.33  5.1638718E-01
   7144.67  5.1950006E-01
   7145.00  5.2310082E-01
   7145.33  5.2692552E-01
   7145.67  5.3073551E-01
   7146.00  5.3438829E-01
   7146.33  5.3773352E-01
   7146.67  5.4075739E-01
   7147.00  5.4347048E-01
   7147.33  5.4590035E-01
   7147.67  5.4816747E-01
   7148.00  5.5036225E-01
   7148.33  5.5259081E-01
   7148.67  5.5492016E-01
   7149.00  5.5737128E-01
   7149.33  5.5992728E-01
   7149.67  5.6247249E-01
   7150.00  5.6486037E-01
   7150.33  5.6682441E-01
   7150.67  5.6816768E-01
   7151.00  5.6869779E-01
   7151.33  5.6812259E-01
   7151.67  5.6646205E-01
   7152.00  5.6368365E-01
   7152.33  5.5967662E-01
   7152.67  5.5466078E-01
   7153.00  5.4874123E-01
   7153.33  5.4196986E-01
   7153.67  5.3460080E-01
   7154.00  5.2677322E-01
   7154.33  5.1860773E-01
   7154.67  5.1029224E-01
   7155.00  5.0194745E-01
   7155.33  4.9371314E-01
   7155.67  4.8568795E-01
   7156.00  4.7795274E-01
   7156.33  4.7062911E-01
   7156.67  4.6372700E-01
   7157.00  4.5727835E-01
   7157.33  4.5136145E-01
   7157.67  4.4591998E-01
   7158.00  4.4094603E-01
   7158.33  4.3647689E-01
   7158.67  4.3243068E-01
   7159.00  4.2878236E-01
   7159.33  4.2554798E-01
   7159.67  4.2265270E-01
   7160.00  4.2007387E-01
   7160.33  4.1782403E-01
   7160.67  4.1584433E-01
   7161.00  4.1411802E-01
   7161.33  4.1266017E-01
   7161.67  4.1142631E-01
   7162.00  4.1040288E-01
   7162.33  4.0959837E-01
   7162.67  4.0897254E-01
   7163.00  4.0851258E-01
   7163.33  4.0822546E-01
   7163.67  4.0808362E-01
   7164.00  4.0808386E-01
   7164.33  4.0824583E-01
   7164.67  4.0855758E-01
   7165.00  4.0902528E-01
   7165.33  4.0967372E-01
   7165.67  4.1048316E-01
   7166.00  4.1145066E-01
   7166.33  4.1258799E-01
   7166.67  4.1386402E-01
   7167.00  4.1526261E-01
   7167.33  4.1677504E-01
   7167.67  4.1836758E-01
   7168.00  4.2002316E-01
   7168.33  4.2172946E-01
   7168.67  4.2346602E-01
   7169.00  4.2522318E-01
   7169.33  4.2699474E-01
   7169.67  4.2877320E-01
   7170.00  4.3055352E-01
   7170.33  4.3232824E-01
   7170.67  4.3408762E-01
   7171.00  4.3581540E-01
   7171.33  4.3746445E-01
   7171.67  4.3896347E-01
   7172.00  4.4020058E-01
