    FDMNES
    energy     <xanes>
   7097.00  4.5213381E-03
   7097.33  4.6125208E-03
   7097.67  4.7071783E-03
   7098.00  4.8055158E-03
   7098.33  4.9082890E-03
   7098.67  5.0152957E-03
   7099.00  5.1268103E-03
   7099.33  5.2437947E-03
   7099.67  5.3660370E-03
   7100.00  5.4939146E-03
   7100.33  5.6286861E-03
   7100.67  5.7701426E-03
   7101.00  5.9188219E-03
   7101.33  6.0764263E-03
   7101.67  6.2427803E-03
   7102.00  6.4186829E-03
   7102.33  6.6065349E-03
   7102.67  6.8062626E-03
   7103.00  7.0191165E-03
   7103.33  7.2486626E-03
   7103.67  7.4950915E-03
   7104.00  7.7604878E-03
   7104.33  8.0505098E-03
   7104.67  8.3660122E-03
   7105.00  8.7107577E-03
   7105.33  9.0945199E-03
   7105.67  9.5198884E-03
   7106.00  9.9943829E-03
   7106.33  1.0536873E-02
   7106.67  1.1154905E-02
   7107.00  1.1865682E-02
   7107.33  1.2711563E-02
   7107.67  1.3716511E-02
   7108.00  1.4928033E-02
   7108.33  1.6464012E-02
   7108.67  1.8417024E-02
   7109.00  2.0960883E-02
   7109.33  2.4551620E-02
   7109.67  2.9696705E-02
   7110.00  3.7382136E-02
   7110.33  5.0452176E-02
   7110.67  7.2377161E-02
   7111.00  1.0682091E-01
   7111.33  1.5380244E-01
   7111.67  1.9050162E-01
   7112.00  1.9896776E-01
   7112.33  1.7154712E-01
   7112.67  1.2590998E-01
   7113.00  9.0374140E-02
   7113.33  7.1519542E-02
   7113.67  6.2335218E-02
   7114.00  5.8022293E-02
   7114.33  5.3649770E-02
   7114.67  4.8856452E-02
   7115.00  4.5079027E-02
   7115.33  4.2864176E-02
   7115.67  4.1908339E-02
   7116.00  4.2051690E-02
   7116.33  4.3249654E-02
   7116.67  4.5300925E-02
   7117.00  4.8180523E-02
   7117.33  5.1939011E-02
   7117.67  5.6396607E-02
   7118.00  6.1630119E-02
   7118.33  6.8267162E-02
   7118.67  7.6738798E-02
   7119.00  8.7376773E-02
   7119.33  1.0056429E-01
   7119.67  1.1578138E-01
   7120.00  1.3269592E-01
   7120.33  1.5142553E-01
   7120.67  1.7233864E-01
   7121.00  1.9642141E-01
   7121.33  2.2586846E-01
   7121.67  2.6202107E-01
   7122.00  3.0654686E-01
   7122.33  3.6202631E-01
   7122.67  4.2701111E-01
   7123.00  4.9902713E-01
   7123.33  5.7215553E-01
   7123.67  6.3919164E-01
   7124.00  6.9702616E-01
   7124.33  7.4607017E-01
   7124.67  7.8904807E-01
   7125.00  8.2351602E-01
   7125.33  8.4191363E-01
   7125.67  8.4448539E-01
   7126.00  8.3671094E-01
   7126.33  8.2585438E-01
   7126.67  8.1273659E-01
   7127.00  7.9617642E-01
   7127.33  7.7807100E-01
   7127.67  7.6083522E-01
   7128.00  7.4487757E-01
   7128.33  7.3060802E-01
   7128.67  7.1905208E-01
   7129.00  7.1115820E-01
   7129.33  7.0684977E-01
   7129.67  7.0421470E-01
   7130.00  7.0217284E-01
   7130.33  6.9995664E-01
   7130.67  6.9684713E-01
   7131.00  6.9191779E-01
   7131.33  6.8397203E-01
   7131.67  6.7417829E-01
   7132.00  6.6480137E-01
   7132.33  6.5825114E-01
   7132.67  6.5392833E-01
   7133.00  6.5031446E-01
   7133.33  6.4566743E-01
   7133.67  6.3949199E-01
   7134.00  6.3204493E-01
   7134.33  6.2391928E-01
   7134.67  6.1577151E-01
   7135.00  6.0788699E-01
   7135.33  6.0044943E-01
   7135.67  5.9343681E-01
   7136.00  5.8684985E-01
   7136.33  5.8074862E-01
   7136.67  5.7509755E-01
   7137.00  5.6991848E-01
   7137.33  5.6529654E-01
   7137.67  5.6118140E-01
   7138.00  5.5756720E-01
   7138.33  5.5448079E-01
   7138.67  5.5180079E-01
   7139.00  5.4944778E-01
   7139.33  5.4733189E-01
   7139.67  5.4530058E-01
   7140.00  5.4324475E-01
   7140.33  5.4101990E-01
   7140.67  5.3852761E-01
   7141.00  5.3568238E-01
   7141.33  5.3235688E-01
   7141.67  5.2855489E-01
   7142.00  5.2425251E-01
   7142.33  5.1938259E-01
   7142.67  5.1402748E-01
   7143.00  5.0821871E-01
   7143.33  5.0195411E-01
   7143.67  4.9534088E-01
   7144.00  4.8843102E-01
   7144.33  4.8125665E-01
   7144.67  4.7390839E-01
   7145.00  4.6643872E-01
   7145.33  4.5890146E-01
   7145.67  4.5136697E-01
   7146.00  4.4389120E-01
   7146.33  4.3655771E-01
   7146.67  4.2942286E-01
   7147.00  4.2255326E-01
   7147.33  4.1607508E-01
   7147.67  4.1003262E-01
   7148.00  4.0450397E-01
   7148.33  3.9965423E-01
   7148.67  3.9549030E-01
   7149.00  3.9207178E-01
   7149.33  3.8954731E-01
   7149.67  3.8783889E-01
   7150.00  3.8693935E-01
   7150.33  3.8690649E-01
   7150.67  3.8757634E-01
   7151.00  3.8887231E-01
   7151.33  3.9075444E-01
   7151.67  3.9303898E-01
   7152.00  3.9561886E-01
   7152.33  3.9839493E-01
   7152.67  4.0123571E-01
   7153.00  4.0405968E-01
   7153.33  4.0677735E-01
   7153.67  4.0934265E-01
   7154.00  4.1172162E-01
   7154.33  4.1386586E-01
   7154.67  4.1579466E-01
   7155.00  4.1751166E-01
   7155.33  4.1900413E-01
   7155.67  4.2031362E-01
   7156.00  4.2145381E-01
   7156.33  4.2241797E-01
   7156.67  4.2323618E-01
   7157.00  4.2391649E-01
   7157.33  4.2444804E-01
   7157.67  4.2485110E-01
   7158.00  4.2512963E-01
   7158.33  4.2527643E-01
   7158.67  4.2531786E-01
   7159.00  4.2526757E-01
   7159.33  4.2513638E-01
   7159.67  4.2495724E-01
   7160.00  4.2475350E-01
   7160.33  4.2455430E-01
   7160.67  4.2438664E-01
   7161.00  4.2427131E-01
   7161.33  4.2423697E-01
   7161.67  4.2428789E-01
   7162.00  4.2442935E-01
   7162.33  4.2467100E-01
   7162.67  4.2499311E-01
   7163.00  4.2538477E-01
   7163.33  4.2583862E-01
   7163.67  4.2633412E-01
   7164.00  4.2686184E-01
   7164.33  4.2741819E-01
   7164.67  4.2799932E-01
   7165.00  4.2861032E-01
   7165.33  4.2926922E-01
   7165.67  4.2998954E-01
   7166.00  4.3079115E-01
   7166.33  4.3171379E-01
   7166.67  4.3277227E-01
   7167.00  4.3399166E-01
   7167.33  4.3542503E-01
   7167.67  4.3707937E-01
   7168.00  4.3898166E-01
   7168.33  4.4118817E-01
   7168.67  4.4367742E-01
   7169.00  4.4645343E-01
   7169.33  4.4954827E-01
   7169.67  4.5291292E-01
   7170.00  4.5652577E-01
   7170.33  4.6037301E-01
   7170.67  4.6436677E-01
   7171.00  4.6842755E-01
   7171.33  4.7239934E-01
   7171.67  4.7604845E-01
   7172.00  4.7907463E-01
