    FDMNES
    energy     <xanes>
   7097.00  4.3406516E-03
   7097.33  4.4356777E-03
   7097.67  4.5348863E-03
   7098.00  4.6385602E-03
   7098.33  4.7476676E-03
   7098.67  4.8620110E-03
   7099.00  4.9819769E-03
   7099.33  5.1088327E-03
   7099.67  5.2423778E-03
   7100.00  5.3831543E-03
   7100.33  5.5328660E-03
   7100.67  5.6913292E-03
   7101.00  5.8593284E-03
   7101.33  6.0392268E-03
   7101.67  6.2309020E-03
   7102.00  6.4355323E-03
   7102.33  6.6565196E-03
   7102.67  6.8939011E-03
   7103.00  7.1495262E-03
   7103.33  7.4285195E-03
   7103.67  7.7312997E-03
   7104.00  8.0609305E-03
   7104.33  8.4255772E-03
   7104.67  8.8265695E-03
   7105.00  9.2693380E-03
   7105.33  9.7678572E-03
   7105.67  1.0325730E-02
   7106.00  1.0953469E-02
   7106.33  1.1677362E-02
   7106.67  1.2507212E-02
   7107.00  1.3465973E-02
   7107.33  1.4610052E-02
   7107.67  1.5968842E-02
   7108.00  1.7602052E-02
   7108.33  1.9657255E-02
   7108.67  2.2242400E-02
   7109.00  2.5562917E-02
   7109.33  3.0155321E-02
   7109.67  3.6595218E-02
   7110.00  4.6005241E-02
   7110.33  6.1537740E-02
   7110.67  8.6059238E-02
   7111.00  1.1909427E-01
   7111.33  1.5685777E-01
   7111.67  2.0226677E-01
   7112.00  2.3708655E-01
   7112.33  2.4861045E-01
   7112.67  2.8422837E-01
   7113.00  3.6162237E-01
   7113.33  4.2185337E-01
   7113.67  3.8538906E-01
   7114.00  2.9233642E-01
   7114.33  2.1739017E-01
   7114.67  1.6945311E-01
   7115.00  1.3987141E-01
   7115.33  1.2223707E-01
   7115.67  1.1177765E-01
   7116.00  1.0436271E-01
   7116.33  9.2793658E-02
   7116.67  7.9042688E-02
   7117.00  6.7967562E-02
   7117.33  6.1082354E-02
   7117.67  5.6847457E-02
   7118.00  5.4653865E-02
   7118.33  5.4395726E-02
   7118.67  5.5461166E-02
   7119.00  5.7390756E-02
   7119.33  6.0026260E-02
   7119.67  6.3515746E-02
   7120.00  6.8215836E-02
   7120.33  7.4571083E-02
   7120.67  8.2295695E-02
   7121.00  9.1013082E-02
   7121.33  1.0011925E-01
   7121.67  1.0910913E-01
   7122.00  1.1807705E-01
   7122.33  1.2765097E-01
   7122.67  1.3853615E-01
   7123.00  1.5128439E-01
   7123.33  1.6608608E-01
   7123.67  1.8212263E-01
   7124.00  1.9906889E-01
   7124.33  2.1720051E-01
   7124.67  2.3684169E-01
   7125.00  2.5837842E-01
   7125.33  2.8220710E-01
   7125.67  3.0743376E-01
   7126.00  3.3294304E-01
   7126.33  3.5853847E-01
   7126.67  3.8681915E-01
   7127.00  4.2079527E-01
   7127.33  4.6272497E-01
   7127.67  5.1031388E-01
   7128.00  5.6076468E-01
   7128.33  6.0878378E-01
   7128.67  6.4719743E-01
   7129.00  6.6845053E-01
   7129.33  6.6408849E-01
   7129.67  6.4009653E-01
   7130.00  6.0545835E-01
   7130.33  5.7074674E-01
   7130.67  5.4127408E-01
   7131.00  5.1753833E-01
   7131.33  4.9871068E-01
   7131.67  4.8253364E-01
   7132.00  4.6775096E-01
   7132.33  4.5362257E-01
   7132.67  4.4011564E-01
   7133.00  4.2769774E-01
   7133.33  4.1719343E-01
   7133.67  4.0879170E-01
   7134.00  4.0257011E-01
   7134.33  3.9866670E-01
   7134.67  3.9664061E-01
   7135.00  3.9629645E-01
   7135.33  3.9755760E-01
   7135.67  3.9999264E-01
   7136.00  4.0340112E-01
   7136.33  4.0766990E-01
   7136.67  4.1252404E-01
   7137.00  4.1783807E-01
   7137.33  4.2355222E-01
   7137.67  4.2956662E-01
   7138.00  4.3586602E-01
   7138.33  4.4248319E-01
   7138.67  4.4936319E-01
   7139.00  4.5645142E-01
   7139.33  4.6363986E-01
   7139.67  4.7074583E-01
   7140.00  4.7759381E-01
   7140.33  4.8393054E-01
   7140.67  4.8968719E-01
   7141.00  4.9484096E-01
   7141.33  4.9938006E-01
   7141.67  5.0347963E-01
   7142.00  5.0725842E-01
   7142.33  5.1085235E-01
   7142.67  5.1443849E-01
   7143.00  5.1814204E-01
   7143.33  5.2212697E-01
   7143.67  5.2647962E-01
   7144.00  5.3128922E-01
   7144.33  5.3671063E-01
   7144.67  5.4270978E-01
   7145.00  5.4926543E-01
   7145.33  5.5644999E-01
   7145.67  5.6422270E-01
   7146.00  5.7260671E-01
   7146.33  5.8170355E-01
   7146.67  5.9144703E-01
   7147.00  6.0183482E-01
   7147.33  6.1291959E-01
   7147.67  6.2456834E-01
   7148.00  6.3670409E-01
   7148.33  6.4924850E-01
   7148.67  6.6200882E-01
   7149.00  6.7485825E-01
   7149.33  6.8764121E-01
   7149.67  7.0021048E-01
   7150.00  7.1243500E-01
   7150.33  7.2411633E-01
   7150.67  7.3520091E-01
   7151.00  7.4561370E-01
   7151.33  7.5520194E-01
   7151.67  7.6401844E-01
   7152.00  7.7204165E-01
   7152.33  7.7915583E-01
   7152.67  7.8545061E-01
   7153.00  7.9090685E-01
   7153.33  7.9537947E-01
   7153.67  7.9893077E-01
   7154.00  8.0151487E-01
   7154.33  8.0295020E-01
   7154.67  8.0331739E-01
   7155.00  8.0258738E-01
   7155.33  8.0060626E-01
   7155.67  7.9752363E-01
   7156.00  7.9337116E-01
   7156.33  7.8808590E-01
   7156.67  7.8188401E-01
   7157.00  7.7486784E-01
   7157.33  7.6710087E-01
   7157.67  7.5882884E-01
   7158.00  7.5019421E-01
   7158.33  7.4133357E-01
   7158.67  7.3242268E-01
   7159.00  7.2357719E-01
   7159.33  7.1493356E-01
   7159.67  7.0655977E-01
   7160.00  6.9850961E-01
   7160.33  6.9085892E-01
   7160.67  6.8356650E-01
   7161.00  6.7661543E-01
   7161.33  6.7000364E-01
   7161.67  6.6363821E-01
   7162.00  6.5746429E-01
   7162.33  6.5142899E-01
   7162.67  6.4544842E-01
   7163.00  6.3946668E-01
   7163.33  6.3341720E-01
   7163.67  6.2725709E-01
   7164.00  6.2095051E-01
   7164.33  6.1444004E-01
   7164.67  6.0771933E-01
   7165.00  6.0076738E-01
   7165.33  5.9353218E-01
   7165.67  5.8602958E-01
   7166.00  5.7825183E-01
   7166.33  5.7016307E-01
   7166.67  5.6180620E-01
   7167.00  5.5319774E-01
   7167.33  5.4434237E-01
   7167.67  5.3531562E-01
   7168.00  5.2617149E-01
   7168.33  5.1697940E-01
   7168.67  5.0782913E-01
   7169.00  4.9879745E-01
   7169.33  4.8999899E-01
   7169.67  4.8149320E-01
   7170.00  4.7334969E-01
   7170.33  4.6569908E-01
   7170.67  4.5855961E-01
   7171.00  4.5199772E-01
   7171.33  4.4619572E-01
   7171.67  4.4122013E-01
   7172.00  4.3725048E-01
