    FDMNES
    energy     <xanes>
   7097.00  4.9461114E-03
   7097.33  5.0590540E-03
   7097.67  5.1769386E-03
   7098.00  5.3000909E-03
   7098.33  5.4296406E-03
   7098.67  5.5653429E-03
   7099.00  5.7076401E-03
   7099.33  5.8580022E-03
   7099.67  6.0161778E-03
   7100.00  6.1827847E-03
   7100.33  6.3597876E-03
   7100.67  6.5469514E-03
   7101.00  6.7451679E-03
   7101.33  6.9571488E-03
   7101.67  7.1827275E-03
   7102.00  7.4232426E-03
   7102.33  7.6825877E-03
   7102.67  7.9607816E-03
   7103.00  8.2599328E-03
   7103.33  8.5859111E-03
   7103.67  8.9391924E-03
   7104.00  9.3233016E-03
   7104.33  9.7476515E-03
   7104.67  1.0213841E-02
   7105.00  1.0728228E-02
   7105.33  1.1307163E-02
   7105.67  1.1955149E-02
   7106.00  1.2684846E-02
   7106.33  1.3527877E-02
   7106.67  1.4497021E-02
   7107.00  1.5621169E-02
   7107.33  1.6971382E-02
   7107.67  1.8588140E-02
   7108.00  2.0551673E-02
   7108.33  2.3061753E-02
   7108.67  2.6278479E-02
   7109.00  3.0504336E-02
   7109.33  3.6544035E-02
   7109.67  4.5333789E-02
   7110.00  5.8716939E-02
   7110.33  8.1985031E-02
   7110.67  1.2019647E-01
   7111.00  1.7152961E-01
   7111.33  2.1438253E-01
   7111.67  2.4251910E-01
   7112.00  2.6533570E-01
   7112.33  2.8087097E-01
   7112.67  2.7106797E-01
   7113.00  2.3816062E-01
   7113.33  2.0220841E-01
   7113.67  1.7207073E-01
   7114.00  1.4934703E-01
   7114.33  1.3602597E-01
   7114.67  1.3070372E-01
   7115.00  1.3254680E-01
   7115.33  1.3952822E-01
   7115.67  1.4597000E-01
   7116.00  1.5165340E-01
   7116.33  1.6570911E-01
   7116.67  1.9400295E-01
   7117.00  2.3498476E-01
   7117.33  2.7238692E-01
   7117.67  2.8762827E-01
   7118.00  2.8254457E-01
   7118.33  2.7055919E-01
   7118.67  2.6123314E-01
   7119.00  2.5726185E-01
   7119.33  2.5885982E-01
   7119.67  2.6310986E-01
   7120.00  2.6971597E-01
   7120.33  2.8184240E-01
   7120.67  3.0097146E-01
   7121.00  3.2578347E-01
   7121.33  3.5054728E-01
   7121.67  3.6830843E-01
   7122.00  3.7542095E-01
   7122.33  3.7205255E-01
   7122.67  3.6518261E-01
   7123.00  3.5942108E-01
   7123.33  3.5785726E-01
   7123.67  3.5980515E-01
   7124.00  3.6384471E-01
   7124.33  3.6841064E-01
   7124.67  3.7251569E-01
   7125.00  3.7576869E-01
   7125.33  3.7758936E-01
   7125.67  3.7870739E-01
   7126.00  3.8138575E-01
   7126.33  3.8908401E-01
   7126.67  4.0194830E-01
   7127.00  4.1876214E-01
   7127.33  4.3723597E-01
   7127.67  4.5526882E-01
   7128.00  4.7270257E-01
   7128.33  4.9010168E-01
   7128.67  5.0730329E-01
   7129.00  5.2387930E-01
   7129.33  5.4060401E-01
   7129.67  5.5967142E-01
   7130.00  5.8260108E-01
   7130.33  6.0928768E-01
   7130.67  6.3615809E-01
   7131.00  6.5964875E-01
   7131.33  6.7594570E-01
   7131.67  6.8474709E-01
   7132.00  6.8632003E-01
   7132.33  6.8127623E-01
   7132.67  6.7228642E-01
   7133.00  6.6113493E-01
   7133.33  6.5000350E-01
   7133.67  6.4096445E-01
   7134.00  6.3521190E-01
   7134.33  6.3333115E-01
   7134.67  6.3383905E-01
   7135.00  6.3541527E-01
   7135.33  6.3668928E-01
   7135.67  6.3693632E-01
   7136.00  6.3600850E-01
   7136.33  6.3406317E-01
   7136.67  6.3172123E-01
   7137.00  6.2941084E-01
   7137.33  6.2749327E-01
   7137.67  6.2598597E-01
   7138.00  6.2477227E-01
   7138.33  6.2362788E-01
   7138.67  6.2230244E-01
   7139.00  6.2061985E-01
   7139.33  6.1836649E-01
   7139.67  6.1553554E-01
   7140.00  6.1215776E-01
   7140.33  6.0834556E-01
   7140.67  6.0441023E-01
   7141.00  6.0062844E-01
   7141.33  5.9741054E-01
   7141.67  5.9502163E-01
   7142.00  5.9369236E-01
   7142.33  5.9376046E-01
   7142.67  5.9514552E-01
   7143.00  5.9781700E-01
   7143.33  6.0175462E-01
   7143.67  6.0650211E-01
   7144.00  6.1165373E-01
   7144.33  6.1656213E-01
   7144.67  6.2053641E-01
   7145.00  6.2297557E-01
   7145.33  6.2308365E-01
   7145.67  6.2088494E-01
   7146.00  6.1645702E-01
   7146.33  6.0991841E-01
   7146.67  6.0200208E-01
   7147.00  5.9315384E-01
   7147.33  5.8378510E-01
   7147.67  5.7432014E-01
   7148.00  5.6496447E-01
   7148.33  5.5586099E-01
   7148.67  5.4699325E-01
   7149.00  5.3831726E-01
   7149.33  5.2976785E-01
   7149.67  5.2126268E-01
   7150.00  5.1278126E-01
   7150.33  5.0435024E-01
   7150.67  4.9601290E-01
   7151.00  4.8782274E-01
   7151.33  4.7986674E-01
   7151.67  4.7216869E-01
   7152.00  4.6475996E-01
   7152.33  4.5770340E-01
   7152.67  4.5097209E-01
   7153.00  4.4456906E-01
   7153.33  4.3852961E-01
   7153.67  4.3279954E-01
   7154.00  4.2736128E-01
   7154.33  4.2222283E-01
   7154.67  4.1732427E-01
   7155.00  4.1264531E-01
   7155.33  4.0819344E-01
   7155.67  4.0393236E-01
   7156.00  3.9985521E-01
   7156.33  3.9597424E-01
   7156.67  3.9225381E-01
   7157.00  3.8867909E-01
   7157.33  3.8524793E-01
   7157.67  3.8193021E-01
   7158.00  3.7871990E-01
   7158.33  3.7563243E-01
   7158.67  3.7266651E-01
   7159.00  3.6984085E-01
   7159.33  3.6720823E-01
   7159.67  3.6478534E-01
   7160.00  3.6260457E-01
   7160.33  3.6073102E-01
   7160.67  3.5916431E-01
   7161.00  3.5793971E-01
   7161.33  3.5714310E-01
   7161.67  3.5675719E-01
   7162.00  3.5680299E-01
   7162.33  3.5736029E-01
   7162.67  3.5839017E-01
   7163.00  3.5989879E-01
   7163.33  3.6194311E-01
   7163.67  3.6445320E-01
   7164.00  3.6741445E-01
   7164.33  3.7085754E-01
   7164.67  3.7470025E-01
   7165.00  3.7891430E-01
   7165.33  3.8350598E-01
   7165.67  3.8839495E-01
   7166.00  3.9354591E-01
   7166.33  3.9894205E-01
   7166.67  4.0450782E-01
   7167.00  4.1019747E-01
   7167.33  4.1596009E-01
   7167.67  4.2172153E-01
   7168.00  4.2741907E-01
   7168.33  4.3295509E-01
   7168.67  4.3826238E-01
   7169.00  4.4326642E-01
   7169.33  4.4783629E-01
   7169.67  4.5194908E-01
   7170.00  4.5555857E-01
   7170.33  4.5856766E-01
   7170.67  4.6104154E-01
   7171.00  4.6300250E-01
   7171.33  4.6444584E-01
   7171.67  4.6550877E-01
   7172.00  4.6627803E-01
