    FDMNES
    energy     <xanes>
   7097.00  4.6555243E-03
   7097.33  4.7597886E-03
   7097.67  4.8685092E-03
   7098.00  4.9819749E-03
   7098.33  5.1011965E-03
   7098.67  5.2259473E-03
   7099.00  5.3566186E-03
   7099.33  5.4945210E-03
   7099.67  5.6394202E-03
   7100.00  5.7918610E-03
   7100.33  5.9535882E-03
   7100.67  6.1243791E-03
   7101.00  6.3050168E-03
   7101.33  6.4978988E-03
   7101.67  6.7028573E-03
   7102.00  6.9210620E-03
   7102.33  7.1559355E-03
   7102.67  7.4074618E-03
   7103.00  7.6774701E-03
   7103.33  7.9710823E-03
   7103.67  8.2886554E-03
   7104.00  8.6332169E-03
   7104.33  9.0128948E-03
   7104.67  9.4289525E-03
   7105.00  9.8867696E-03
   7105.33  1.0400250E-02
   7105.67  1.0972952E-02
   7106.00  1.1615354E-02
   7106.33  1.2353720E-02
   7106.67  1.3197942E-02
   7107.00  1.4171137E-02
   7107.33  1.5330178E-02
   7107.67  1.6705203E-02
   7108.00  1.8357153E-02
   7108.33  2.0436780E-02
   7108.67  2.3056026E-02
   7109.00  2.6427195E-02
   7109.33  3.1104912E-02
   7109.67  3.7687878E-02
   7110.00  4.7342431E-02
   7110.33  6.3371293E-02
   7110.67  8.9075499E-02
   7111.00  1.2482036E-01
   7111.33  1.6258968E-01
   7111.67  2.0429468E-01
   7112.00  2.6010998E-01
   7112.33  3.2630999E-01
   7112.67  3.5315820E-01
   7113.00  3.0988872E-01
   7113.33  2.3685518E-01
   7113.67  1.8035633E-01
   7114.00  1.4389375E-01
   7114.33  1.2201452E-01
   7114.67  1.0691936E-01
   7115.00  9.5821130E-02
   7115.33  8.8243800E-02
   7115.67  8.3996749E-02
   7116.00  8.3424141E-02
   7116.33  8.7776662E-02
   7116.67  9.7813629E-02
   7117.00  1.1491824E-01
   7117.33  1.3924071E-01
   7117.67  1.6209467E-01
   7118.00  1.7364264E-01
   7118.33  1.7058290E-01
   7118.67  1.6277698E-01
   7119.00  1.5714024E-01
   7119.33  1.5718616E-01
   7119.67  1.6142051E-01
   7120.00  1.6902175E-01
   7120.33  1.8048054E-01
   7120.67  1.9546468E-01
   7121.00  2.1350065E-01
   7121.33  2.3416608E-01
   7121.67  2.5723602E-01
   7122.00  2.8374989E-01
   7122.33  3.1524407E-01
   7122.67  3.4977838E-01
   7123.00  3.8404449E-01
   7123.33  4.1330941E-01
   7123.67  4.3635167E-01
   7124.00  4.5404715E-01
   7124.33  4.6835156E-01
   7124.67  4.8155336E-01
   7125.00  4.9400606E-01
   7125.33  5.0565667E-01
   7125.67  5.1811585E-01
   7126.00  5.3275910E-01
   7126.33  5.4860077E-01
   7126.67  5.6245315E-01
   7127.00  5.7279378E-01
   7127.33  5.7987941E-01
   7127.67  5.8595003E-01
   7128.00  5.9221832E-01
   7128.33  5.9854761E-01
   7128.67  6.0306705E-01
   7129.00  6.0397178E-01
   7129.33  6.0059550E-01
   7129.67  5.9560273E-01
   7130.00  5.9139601E-01
   7130.33  5.9009630E-01
   7130.67  5.9163013E-01
   7131.00  5.9538935E-01
   7131.33  6.0073140E-01
   7131.67  6.0708431E-01
   7132.00  6.1434100E-01
   7132.33  6.2216830E-01
   7132.67  6.2949851E-01
   7133.00  6.3504616E-01
   7133.33  6.3687138E-01
   7133.67  6.3463422E-01
   7134.00  6.2870274E-01
   7134.33  6.2001492E-01
   7134.67  6.1034411E-01
   7135.00  6.0089358E-01
   7135.33  5.9313156E-01
   7135.67  5.8790901E-01
   7136.00  5.8582039E-01
   7136.33  5.8758796E-01
   7136.67  5.9266440E-01
   7137.00  6.0064688E-01
   7137.33  6.1100843E-01
   7137.67  6.2240551E-01
   7138.00  6.3380214E-01
   7138.33  6.4400052E-01
   7138.67  6.5252113E-01
   7139.00  6.5929733E-01
   7139.33  6.6446184E-01
   7139.67  6.6863939E-01
   7140.00  6.7211861E-01
   7140.33  6.7491292E-01
   7140.67  6.7688062E-01
   7141.00  6.7764087E-01
   7141.33  6.7648958E-01
   7141.67  6.7333537E-01
   7142.00  6.6820919E-01
   7142.33  6.6129449E-01
   7142.67  6.5339065E-01
   7143.00  6.4502427E-01
   7143.33  6.3667310E-01
   7143.67  6.2859804E-01
   7144.00  6.2086007E-01
   7144.33  6.1342903E-01
   7144.67  6.0614283E-01
   7145.00  5.9890369E-01
   7145.33  5.9166622E-01
   7145.67  5.8448328E-01
   7146.00  5.7747062E-01
   7146.33  5.7084941E-01
   7146.67  5.6475460E-01
   7147.00  5.5930707E-01
   7147.33  5.5466802E-01
   7147.67  5.5072824E-01
   7148.00  5.4740118E-01
   7148.33  5.4458427E-01
   7148.67  5.4203290E-01
   7149.00  5.3958842E-01
   7149.33  5.3708602E-01
   7149.67  5.3441856E-01
   7150.00  5.3152422E-01
   7150.33  5.2831754E-01
   7150.67  5.2478218E-01
   7151.00  5.2086811E-01
   7151.33  5.1645027E-01
   7151.67  5.1150584E-01
   7152.00  5.0596784E-01
   7152.33  4.9969186E-01
   7152.67  4.9272652E-01
   7153.00  4.8507915E-01
   7153.33  4.7673629E-01
   7153.67  4.6790147E-01
   7154.00  4.5872647E-01
   7154.33  4.4940100E-01
   7154.67  4.4015060E-01
   7155.00  4.3113446E-01
   7155.33  4.2254191E-01
   7155.67  4.1441132E-01
   7156.00  4.0677013E-01
   7156.33  3.9966423E-01
   7156.67  3.9298718E-01
   7157.00  3.8668512E-01
   7157.33  3.8073198E-01
   7157.67  3.7503534E-01
   7158.00  3.6956509E-01
   7158.33  3.6433340E-01
   7158.67  3.5932041E-01
   7159.00  3.5454612E-01
   7159.33  3.5008008E-01
   7159.67  3.4592500E-01
   7160.00  3.4211015E-01
   7160.33  3.3871100E-01
   7160.67  3.3570147E-01
   7161.00  3.3309313E-01
   7161.33  3.3094549E-01
   7161.67  3.2920912E-01
   7162.00  3.2787773E-01
   7162.33  3.2697914E-01
   7162.67  3.2644145E-01
   7163.00  3.2625214E-01
   7163.33  3.2644196E-01
   7163.67  3.2695648E-01
   7164.00  3.2778388E-01
   7164.33  3.2894669E-01
   7164.67  3.3039253E-01
   7165.00  3.3210846E-01
   7165.33  3.3411192E-01
   7165.67  3.3635813E-01
   7166.00  3.3883845E-01
   7166.33  3.4157437E-01
   7166.67  3.4453244E-01
   7167.00  3.4770757E-01
   7167.33  3.5111619E-01
   7167.67  3.5471663E-01
   7168.00  3.5848924E-01
   7168.33  3.6242151E-01
   7168.67  3.6645787E-01
   7169.00  3.7056086E-01
   7169.33  3.7468575E-01
   7169.67  3.7878147E-01
   7170.00  3.8280652E-01
   7170.33  3.8669922E-01
   7170.67  3.9042728E-01
   7171.00  3.9394623E-01
   7171.33  3.9715154E-01
   7171.67  3.9996132E-01
   7172.00  4.0222578E-01
