    FDMNES
    energy     <xanes>
   7097.00  5.0838620E-03
   7097.33  5.2055275E-03
   7097.67  5.3327834E-03
   7098.00  5.4660145E-03
   7098.33  5.6065266E-03
   7098.67  5.7540655E-03
   7099.00  5.9091596E-03
   7099.33  6.0735276E-03
   7099.67  6.2469151E-03
   7100.00  6.4300690E-03
   7100.33  6.6253151E-03
   7100.67  6.8324312E-03
   7101.00  7.0525088E-03
   7101.33  7.2888030E-03
   7101.67  7.5411950E-03
   7102.00  7.8113454E-03
   7102.33  8.1039996E-03
   7102.67  8.4193014E-03
   7103.00  8.7599047E-03
   7103.33  9.1330833E-03
   7103.67  9.5396140E-03
   7104.00  9.9840026E-03
   7104.33  1.0478126E-02
   7104.67  1.1024303E-02
   7105.00  1.1630795E-02
   7105.33  1.2318638E-02
   7105.67  1.3094139E-02
   7106.00  1.3974041E-02
   7106.33  1.4999862E-02
   7106.67  1.6189340E-02
   7107.00  1.7581355E-02
   7107.33  1.9271187E-02
   7107.67  2.1315074E-02
   7108.00  2.3822845E-02
   7108.33  2.7067719E-02
   7108.67  3.1273097E-02
   7109.00  3.6858683E-02
   7109.33  4.4941072E-02
   7109.67  5.6828448E-02
   7110.00  7.5093975E-02
   7110.33  1.0718572E-01
   7110.67  1.6089075E-01
   7111.00  2.3607940E-01
   7111.33  3.0042434E-01
   7111.67  3.3734767E-01
   7112.00  3.5745056E-01
   7112.33  3.5124994E-01
   7112.67  3.0427180E-01
   7113.00  2.4014493E-01
   7113.33  1.9513170E-01
   7113.67  1.6859094E-01
   7114.00  1.5437927E-01
   7114.33  1.4647673E-01
   7114.67  1.4115561E-01
   7115.00  1.3941430E-01
   7115.33  1.4296175E-01
   7115.67  1.4992926E-01
   7116.00  1.5800836E-01
   7116.33  1.7047017E-01
   7116.67  1.9328803E-01
   7117.00  2.2587308E-01
   7117.33  2.5473189E-01
   7117.67  2.6528503E-01
   7118.00  2.5933239E-01
   7118.33  2.4835304E-01
   7118.67  2.3948098E-01
   7119.00  2.3441730E-01
   7119.33  2.3486106E-01
   7119.67  2.4022376E-01
   7120.00  2.4924451E-01
   7120.33  2.6114343E-01
   7120.67  2.7701822E-01
   7121.00  2.9852738E-01
   7121.33  3.2450661E-01
   7121.67  3.4866242E-01
   7122.00  3.6640482E-01
   7122.33  3.7615656E-01
   7122.67  3.8249854E-01
   7123.00  3.8889914E-01
   7123.33  3.9733805E-01
   7123.67  4.0567306E-01
   7124.00  4.0955552E-01
   7124.33  4.0480137E-01
   7124.67  3.9552437E-01
   7125.00  3.8646215E-01
   7125.33  3.8102210E-01
   7125.67  3.7953703E-01
   7126.00  3.8235219E-01
   7126.33  3.9041635E-01
   7126.67  4.0275639E-01
   7127.00  4.1822724E-01
   7127.33  4.3531615E-01
   7127.67  4.5270893E-01
   7128.00  4.7026734E-01
   7128.33  4.8819048E-01
   7128.67  5.0614408E-01
   7129.00  5.2382170E-01
   7129.33  5.4173933E-01
   7129.67  5.6126069E-01
   7130.00  5.8356597E-01
   7130.33  6.0927265E-01
   7130.67  6.3578404E-01
   7131.00  6.5931832E-01
   7131.33  6.7521124E-01
   7131.67  6.8327132E-01
   7132.00  6.8448249E-01
   7132.33  6.8013613E-01
   7132.67  6.7256930E-01
   7133.00  6.6285211E-01
   7133.33  6.5182836E-01
   7133.67  6.4068569E-01
   7134.00  6.3043075E-01
   7134.33  6.2238911E-01
   7134.67  6.1697303E-01
   7135.00  6.1425019E-01
   7135.33  6.1400007E-01
   7135.67  6.1503576E-01
   7136.00  6.1649338E-01
   7136.33  6.1752273E-01
   7136.67  6.1775343E-01
   7137.00  6.1712017E-01
   7137.33  6.1565063E-01
   7137.67  6.1361299E-01
   7138.00  6.1113347E-01
   7138.33  6.0828913E-01
   7138.67  6.0523278E-01
   7139.00  6.0205482E-01
   7139.33  5.9882393E-01
   7139.67  5.9558583E-01
   7140.00  5.9235562E-01
   7140.33  5.8916139E-01
   7140.67  5.8607566E-01
   7141.00  5.8321205E-01
   7141.33  5.8079441E-01
   7141.67  5.7898032E-01
   7142.00  5.7795102E-01
   7142.33  5.7801251E-01
   7142.67  5.7917533E-01
   7143.00  5.8149525E-01
   7143.33  5.8509762E-01
   7143.67  5.8971759E-01
   7144.00  5.9515453E-01
   7144.33  6.0111721E-01
   7144.67  6.0708795E-01
   7145.00  6.1261539E-01
   7145.33  6.1704274E-01
   7145.67  6.2002876E-01
   7146.00  6.2130788E-01
   7146.33  6.2054404E-01
   7146.67  6.1805095E-01
   7147.00  6.1403989E-01
   7147.33  6.0873001E-01
   7147.67  6.0267941E-01
   7148.00  5.9621350E-01
   7148.33  5.8958993E-01
   7148.67  5.8296004E-01
   7149.00  5.7633781E-01
   7149.33  5.6965355E-01
   7149.67  5.6281685E-01
   7150.00  5.5575502E-01
   7150.33  5.4840636E-01
   7150.67  5.4084279E-01
   7151.00  5.3313293E-01
   7151.33  5.2536762E-01
   7151.67  5.1764782E-01
   7152.00  5.1004200E-01
   7152.33  5.0262573E-01
   7152.67  4.9540170E-01
   7153.00  4.8836925E-01
   7153.33  4.8153247E-01
   7153.67  4.7484422E-01
   7154.00  4.6828376E-01
   7154.33  4.6184549E-01
   7154.67  4.5550500E-01
   7155.00  4.4926006E-01
   7155.33  4.4312623E-01
   7155.67  4.3709900E-01
   7156.00  4.3118752E-01
   7156.33  4.2541885E-01
   7156.67  4.1978818E-01
   7157.00  4.1430401E-01
   7157.33  4.0899241E-01
   7157.67  4.0383593E-01
   7158.00  3.9883112E-01
   7158.33  3.9398543E-01
   7158.67  3.8926616E-01
   7159.00  3.8465980E-01
   7159.33  3.8016703E-01
   7159.67  3.7577495E-01
   7160.00  3.7149241E-01
   7160.33  3.6734855E-01
   7160.67  3.6334728E-01
   7161.00  3.5952055E-01
   7161.33  3.5595157E-01
   7161.67  3.5267669E-01
   7162.00  3.4975545E-01
   7162.33  3.4731085E-01
   7162.67  3.4535939E-01
   7163.00  3.4395703E-01
   7163.33  3.4323052E-01
   7163.67  3.4313936E-01
   7164.00  3.4369870E-01
   7164.33  3.4498885E-01
   7164.67  3.4690738E-01
   7165.00  3.4942120E-01
   7165.33  3.5254647E-01
   7165.67  3.5615403E-01
   7166.00  3.6018716E-01
   7166.33  3.6462274E-01
   7166.67  3.6934763E-01
   7167.00  3.7430285E-01
   7167.33  3.7944010E-01
   7167.67  3.8467088E-01
   7168.00  3.8993707E-01
   7168.33  3.9516845E-01
   7168.67  4.0030414E-01
   7169.00  4.0528991E-01
   7169.33  4.1003882E-01
   7169.67  4.1451972E-01
   7170.00  4.1868673E-01
   7170.33  4.2244772E-01
   7170.67  4.2581031E-01
   7171.00  4.2875137E-01
   7171.33  4.3119883E-01
   7171.67  4.3319450E-01
   7172.00  4.3472850E-01
