    FDMNES
    energy     <xanes>
   7097.00  4.0040108E-03
   7097.33  4.0768791E-03
   7097.67  4.1522574E-03
   7098.00  4.2302838E-03
   7098.33  4.3114873E-03
   7098.67  4.3957087E-03
   7099.00  4.4831306E-03
   7099.33  4.5744172E-03
   7099.67  4.6694006E-03
   7100.00  4.7683293E-03
   7100.33  4.8720602E-03
   7100.67  4.9804241E-03
   7101.00  5.0937719E-03
   7101.33  5.2132464E-03
   7101.67  5.3386957E-03
   7102.00  5.4706366E-03
   7102.33  5.6106584E-03
   7102.67  5.7586694E-03
   7103.00  5.9154713E-03
   7103.33  6.0833942E-03
   7103.67  6.2625074E-03
   7104.00  6.4541382E-03
   7104.33  6.6619403E-03
   7104.67  6.8863947E-03
   7105.00  7.1298846E-03
   7105.33  7.3986609E-03
   7105.67  7.6942922E-03
   7106.00  8.0215321E-03
   7106.33  8.3923814E-03
   7106.67  8.8115571E-03
   7107.00  9.2899747E-03
   7107.33  9.8546275E-03
   7107.67  1.0520881E-02
   7108.00  1.1319349E-02
   7108.33  1.2326456E-02
   7108.67  1.3603870E-02
   7109.00  1.5268126E-02
   7109.33  1.7629528E-02
   7109.67  2.1050324E-02
   7110.00  2.6243691E-02
   7110.33  3.5271154E-02
   7110.67  5.0269441E-02
   7111.00  7.1278840E-02
   7111.33  9.0169786E-02
   7111.67  9.9973203E-02
   7112.00  1.0236528E-01
   7112.33  9.7967898E-02
   7112.67  8.8140307E-02
   7113.00  7.7612732E-02
   7113.33  6.9419252E-02
   7113.67  6.5449845E-02
   7114.00  6.6523086E-02
   7114.33  6.7556161E-02
   7114.67  6.0635644E-02
   7115.00  4.9884732E-02
   7115.33  4.2460671E-02
   7115.67  3.8379012E-02
   7116.00  3.6679649E-02
   7116.33  3.6803716E-02
   7116.67  3.8111988E-02
   7117.00  4.0229616E-02
   7117.33  4.2558744E-02
   7117.67  4.4748119E-02
   7118.00  4.7143301E-02
   7118.33  5.0364072E-02
   7118.67  5.4476852E-02
   7119.00  5.9366217E-02
   7119.33  6.4765554E-02
   7119.67  7.0124718E-02
   7120.00  7.4998265E-02
   7120.33  7.9040994E-02
   7120.67  8.2568458E-02
   7121.00  8.6104209E-02
   7121.33  9.0591237E-02
   7121.67  9.6917494E-02
   7122.00  1.0607984E-01
   7122.33  1.1997328E-01
   7122.67  1.3926565E-01
   7123.00  1.6353113E-01
   7123.33  1.8796872E-01
   7123.67  2.0487906E-01
   7124.00  2.1329582E-01
   7124.33  2.2166739E-01
   7124.67  2.3723595E-01
   7125.00  2.6201379E-01
   7125.33  2.9746801E-01
   7125.67  3.4060754E-01
   7126.00  3.8744467E-01
   7126.33  4.3261838E-01
   7126.67  4.7374868E-01
   7127.00  5.0978328E-01
   7127.33  5.3902625E-01
   7127.67  5.6470004E-01
   7128.00  5.9229978E-01
   7128.33  6.2951438E-01
   7128.67  6.7904609E-01
   7129.00  7.4130934E-01
   7129.33  8.1507680E-01
   7129.67  8.9340672E-01
   7130.00  9.6879556E-01
   7130.33  1.0287203E+00
   7130.67  1.0659186E+00
   7131.00  1.0782960E+00
   7131.33  1.0684925E+00
   7131.67  1.0474326E+00
   7132.00  1.0207689E+00
   7132.33  9.9128029E-01
   7132.67  9.5988210E-01
   7133.00  9.2652497E-01
   7133.33  8.9148160E-01
   7133.67  8.5644397E-01
   7134.00  8.2338846E-01
   7134.33  7.9514502E-01
   7134.67  7.7247434E-01
   7135.00  7.5527805E-01
   7135.33  7.4282529E-01
   7135.67  7.3282740E-01
   7136.00  7.2393273E-01
   7136.33  7.1516664E-01
   7136.67  7.0620455E-01
   7137.00  6.9715568E-01
   7137.33  6.8833571E-01
   7137.67  6.7999754E-01
   7138.00  6.7231640E-01
   7138.33  6.6552972E-01
   7138.67  6.5963077E-01
   7139.00  6.5467620E-01
   7139.33  6.5083122E-01
   7139.67  6.4798333E-01
   7140.00  6.4611168E-01
   7140.33  6.4526776E-01
   7140.67  6.4522954E-01
   7141.00  6.4586262E-01
   7141.33  6.4701043E-01
   7141.67  6.4833251E-01
   7142.00  6.4952326E-01
   7142.33  6.5006889E-01
   7142.67  6.4951518E-01
   7143.00  6.4737748E-01
   7143.33  6.4283209E-01
   7143.67  6.3568593E-01
   7144.00  6.2571468E-01
   7144.33  6.1262416E-01
   7144.67  5.9721939E-01
   7145.00  5.8019863E-01
   7145.33  5.6252403E-01
   7145.67  5.4533015E-01
   7146.00  5.2938714E-01
   7146.33  5.1553822E-01
   7146.67  5.0382661E-01
   7147.00  4.9425744E-01
   7147.33  4.8689485E-01
   7147.67  4.8121100E-01
   7148.00  4.7694028E-01
   7148.33  4.7391948E-01
   7148.67  4.7173555E-01
   7149.00  4.7018850E-01
   7149.33  4.6915078E-01
   7149.67  4.6843240E-01
   7150.00  4.6795166E-01
   7150.33  4.6765601E-01
   7150.67  4.6745563E-01
   7151.00  4.6727911E-01
   7151.33  4.6700446E-01
   7151.67  4.6649478E-01
   7152.00  4.6559640E-01
   7152.33  4.6404218E-01
   7152.67  4.6171121E-01
   7153.00  4.5844302E-01
   7153.33  4.5394609E-01
   7153.67  4.4826340E-01
   7154.00  4.4136554E-01
   7154.33  4.3312923E-01
   7154.67  4.2379245E-01
   7155.00  4.1347797E-01
   7155.33  4.0227300E-01
   7155.67  3.9049083E-01
   7156.00  3.7832364E-01
   7156.33  3.6597044E-01
   7156.67  3.5365759E-01
   7157.00  3.4154534E-01
   7157.33  3.2984337E-01
   7157.67  3.1864712E-01
   7158.00  3.0806145E-01
   7158.33  2.9828176E-01
   7158.67  2.8931087E-01
   7159.00  2.8122049E-01
   7159.33  2.7420762E-01
   7159.67  2.6822394E-01
   7160.00  2.6332415E-01
   7160.33  2.5970473E-01
   7160.67  2.5726478E-01
   7161.00  2.5602553E-01
   7161.33  2.5614134E-01
   7161.67  2.5744127E-01
   7162.00  2.5988858E-01
   7162.33  2.6355339E-01
   7162.67  2.6821239E-01
   7163.00  2.7377421E-01
   7163.33  2.8021485E-01
   7163.67  2.8730829E-01
   7164.00  2.9493644E-01
   7164.33  3.0300959E-01
   7164.67  3.1135227E-01
   7165.00  3.1986630E-01
   7165.33  3.2845929E-01
   7165.67  3.3703836E-01
   7166.00  3.4554653E-01
   7166.33  3.5392118E-01
   7166.67  3.6214710E-01
   7167.00  3.7020917E-01
   7167.33  3.7808081E-01
   7167.67  3.8578979E-01
   7168.00  3.9334625E-01
   7168.33  4.0074603E-01
   7168.67  4.0801771E-01
   7169.00  4.1516645E-01
   7169.33  4.2217563E-01
   7169.67  4.2905022E-01
   7170.00  4.3577234E-01
   7170.33  4.4228667E-01
   7170.67  4.4856719E-01
   7171.00  4.5454987E-01
   7171.33  4.6005989E-01
   7171.67  4.6493327E-01
   7172.00  4.6889486E-01
