    FDMNES
    energy     <xanes>
   7097.00  5.0086719E-03
   7097.33  5.1305105E-03
   7097.67  5.2580495E-03
   7098.00  5.3916846E-03
   7098.33  5.5327513E-03
   7098.67  5.6809930E-03
   7099.00  5.8369513E-03
   7099.33  6.0023828E-03
   7099.67  6.1770278E-03
   7100.00  6.3616476E-03
   7100.33  6.5586132E-03
   7100.67  6.7676906E-03
   7101.00  6.9899838E-03
   7101.33  7.2287933E-03
   7101.67  7.4839740E-03
   7102.00  7.7571865E-03
   7102.33  8.0531987E-03
   7102.67  8.3720937E-03
   7103.00  8.7164826E-03
   7103.33  9.0935697E-03
   7103.67  9.5039841E-03
   7104.00  9.9520591E-03
   7104.33  1.0449310E-02
   7104.67  1.0997669E-02
   7105.00  1.1604838E-02
   7105.33  1.2290593E-02
   7105.67  1.3060130E-02
   7106.00  1.3928413E-02
   7106.33  1.4932814E-02
   7106.67  1.6087471E-02
   7107.00  1.7425239E-02
   7107.33  1.9026813E-02
   7107.67  2.0934782E-02
   7108.00  2.3235272E-02
   7108.33  2.6141232E-02
   7108.67  2.9810146E-02
   7109.00  3.4541107E-02
   7109.33  4.1116001E-02
   7109.67  5.0379392E-02
   7110.00  6.3978610E-02
   7110.33  8.6568572E-02
   7110.67  1.2266746E-01
   7111.00  1.7262733E-01
   7111.33  2.2911590E-01
   7111.67  2.8891549E-01
   7112.00  3.3917165E-01
   7112.33  3.7702428E-01
   7112.67  4.0891593E-01
   7113.00  4.3440193E-01
   7113.33  4.4779683E-01
   7113.67  4.5297570E-01
   7114.00  4.0156492E-01
   7114.33  3.0274721E-01
   7114.67  2.2709156E-01
   7115.00  1.8522308E-01
   7115.33  1.7378001E-01
   7115.67  1.8272729E-01
   7116.00  2.0091228E-01
   7116.33  2.0419369E-01
   7116.67  1.9230805E-01
   7117.00  1.8079575E-01
   7117.33  1.8126418E-01
   7117.67  1.9151219E-01
   7118.00  2.0168051E-01
   7118.33  1.9584598E-01
   7118.67  1.8035338E-01
   7119.00  1.6569883E-01
   7119.33  1.5689786E-01
   7119.67  1.5283265E-01
   7120.00  1.5130408E-01
   7120.33  1.4954901E-01
   7120.67  1.4878074E-01
   7121.00  1.5087260E-01
   7121.33  1.5622918E-01
   7121.67  1.6354242E-01
   7122.00  1.7250383E-01
   7122.33  1.8337323E-01
   7122.67  1.9554528E-01
   7123.00  2.0831417E-01
   7123.33  2.2099017E-01
   7123.67  2.3358572E-01
   7124.00  2.4664448E-01
   7124.33  2.6075009E-01
   7124.67  2.7533947E-01
   7125.00  2.8957515E-01
   7125.33  3.0272010E-01
   7125.67  3.1480398E-01
   7126.00  3.2571878E-01
   7126.33  3.3511625E-01
   7126.67  3.4364937E-01
   7127.00  3.5264175E-01
   7127.33  3.6483172E-01
   7127.67  3.8214894E-01
   7128.00  4.0532199E-01
   7128.33  4.3378004E-01
   7128.67  4.6436051E-01
   7129.00  4.9450380E-01
   7129.33  5.2105148E-01
   7129.67  5.4235151E-01
   7130.00  5.5761197E-01
   7130.33  5.6682035E-01
   7130.67  5.7282220E-01
   7131.00  5.7789285E-01
   7131.33  5.8425185E-01
   7131.67  5.9277881E-01
   7132.00  6.0360624E-01
   7132.33  6.1653822E-01
   7132.67  6.3051637E-01
   7133.00  6.4467747E-01
   7133.33  6.5790506E-01
   7133.67  6.6937450E-01
   7134.00  6.7833928E-01
   7134.33  6.8353825E-01
   7134.67  6.8465742E-01
   7135.00  6.8130550E-01
   7135.33  6.7302361E-01
   7135.67  6.6123761E-01
   7136.00  6.4724706E-01
   7136.33  6.3270472E-01
   7136.67  6.1909539E-01
   7137.00  6.0717687E-01
   7137.33  5.9754919E-01
   7137.67  5.8990465E-01
   7138.00  5.8404494E-01
   7138.33  5.7988112E-01
   7138.67  5.7693756E-01
   7139.00  5.7494943E-01
   7139.33  5.7365866E-01
   7139.67  5.7265610E-01
   7140.00  5.7170306E-01
   7140.33  5.7064653E-01
   7140.67  5.6956823E-01
   7141.00  5.6869283E-01
   7141.33  5.6847856E-01
   7141.67  5.6926611E-01
   7142.00  5.7135766E-01
   7142.33  5.7517919E-01
   7142.67  5.8063252E-01
   7143.00  5.8770084E-01
   7143.33  5.9646977E-01
   7143.67  6.0658442E-01
   7144.00  6.1786606E-01
   7144.33  6.3018389E-01
   7144.67  6.4313042E-01
   7145.00  6.5641119E-01
   7145.33  6.6962292E-01
   7145.67  6.8233125E-01
   7146.00  6.9413993E-01
   7146.33  7.0444091E-01
   7146.67  7.1303825E-01
   7147.00  7.1972217E-01
   7147.33  7.2412390E-01
   7147.67  7.2650030E-01
   7148.00  7.2693447E-01
   7148.33  7.2537654E-01
   7148.67  7.2227373E-01
   7149.00  7.1784223E-01
   7149.33  7.1220330E-01
   7149.67  7.0573309E-01
   7150.00  6.9862035E-01
   7150.33  6.9099796E-01
   7150.67  6.8307838E-01
   7151.00  6.7496955E-01
   7151.33  6.6674503E-01
   7151.67  6.5846002E-01
   7152.00  6.5012832E-01
   7152.33  6.4174521E-01
   7152.67  6.3330994E-01
   7153.00  6.2481765E-01
   7153.33  6.1626269E-01
   7153.67  6.0766530E-01
   7154.00  5.9904808E-01
   7154.33  5.9045281E-01
   7154.67  5.8193146E-01
   7155.00  5.7354300E-01
   7155.33  5.6539136E-01
   7155.67  5.5753324E-01
   7156.00  5.5004171E-01
   7156.33  5.4305545E-01
   7156.67  5.3659342E-01
   7157.00  5.3071097E-01
   7157.33  5.2553620E-01
   7157.67  5.2101964E-01
   7158.00  5.1716702E-01
   7158.33  5.1403985E-01
   7158.67  5.1151046E-01
   7159.00  5.0951762E-01
   7159.33  5.0802399E-01
   7159.67  5.0686135E-01
   7160.00  5.0591721E-01
   7160.33  5.0506531E-01
   7160.67  5.0417084E-01
   7161.00  5.0313761E-01
   7161.33  5.0184019E-01
   7161.67  5.0023405E-01
   7162.00  4.9827403E-01
   7162.33  4.9587808E-01
   7162.67  4.9308440E-01
   7163.00  4.8990116E-01
   7163.33  4.8630399E-01
   7163.67  4.8236868E-01
   7164.00  4.7812592E-01
   7164.33  4.7358228E-01
   7164.67  4.6881429E-01
   7165.00  4.6386229E-01
   7165.33  4.5876099E-01
   7165.67  4.5358132E-01
   7166.00  4.4837098E-01
   7166.33  4.4318866E-01
   7166.67  4.3808847E-01
   7167.00  4.3311814E-01
   7167.33  4.2834031E-01
   7167.67  4.2376248E-01
   7168.00  4.1940178E-01
   7168.33  4.1529861E-01
   7168.67  4.1142957E-01
   7169.00  4.0779617E-01
   7169.33  4.0442791E-01
   7169.67  4.0129489E-01
   7170.00  3.9839712E-01
   7170.33  3.9576564E-01
   7170.67  3.9337583E-01
   7171.00  3.9123602E-01
   7171.33  3.8939571E-01
   7171.67  3.8784801E-01
   7172.00  3.8662083E-01
