    FDMNES
    energy     <xanes>
   7097.00  5.2308031E-03
   7097.33  5.3505805E-03
   7097.67  5.4755945E-03
   7098.00  5.6061852E-03
   7098.33  5.7435406E-03
   7098.67  5.8873930E-03
   7099.00  6.0382004E-03
   7099.33  6.1974976E-03
   7099.67  6.3650033E-03
   7100.00  6.5413491E-03
   7100.33  6.7285662E-03
   7100.67  6.9263774E-03
   7101.00  7.1356792E-03
   7101.33  7.3592371E-03
   7101.67  7.5968181E-03
   7102.00  7.8497398E-03
   7102.33  8.1218971E-03
   7102.67  8.4131924E-03
   7103.00  8.7256428E-03
   7103.33  9.0649682E-03
   7103.67  9.4314113E-03
   7104.00  9.8282225E-03
   7104.33  1.0264251E-02
   7104.67  1.0740565E-02
   7105.00  1.1262752E-02
   7105.33  1.1845454E-02
   7105.67  1.2491803E-02
   7106.00  1.3212254E-02
   7106.33  1.4033325E-02
   7106.67  1.4963718E-02
   7107.00  1.6025439E-02
   7107.33  1.7273057E-02
   7107.67  1.8732600E-02
   7108.00  2.0459139E-02
   7108.33  2.2589146E-02
   7108.67  2.5216726E-02
   7109.00  2.8523802E-02
   7109.33  3.2983510E-02
   7109.67  3.9084789E-02
   7110.00  4.7784995E-02
   7110.33  6.1821238E-02
   7110.67  8.4260182E-02
   7111.00  1.1663426E-01
   7111.33  1.5085549E-01
   7111.67  1.8331784E-01
   7112.00  2.0911001E-01
   7112.33  2.3211737E-01
   7112.67  2.7070980E-01
   7113.00  3.1184956E-01
   7113.33  3.4580833E-01
   7113.67  3.7795169E-01
   7114.00  3.9798666E-01
   7114.33  4.1226994E-01
   7114.67  4.2455784E-01
   7115.00  4.1268645E-01
   7115.33  3.6445647E-01
   7115.67  3.1267367E-01
   7116.00  2.7531685E-01
   7116.33  2.5707707E-01
   7116.67  2.5072222E-01
   7117.00  2.4844666E-01
   7117.33  2.3788141E-01
   7117.67  2.1806492E-01
   7118.00  1.9703524E-01
   7118.33  1.8250014E-01
   7118.67  1.7421248E-01
   7119.00  1.7032723E-01
   7119.33  1.6880692E-01
   7119.67  1.6760945E-01
   7120.00  1.6572947E-01
   7120.33  1.6260587E-01
   7120.67  1.5893297E-01
   7121.00  1.5567148E-01
   7121.33  1.5408630E-01
   7121.67  1.5480831E-01
   7122.00  1.5835399E-01
   7122.33  1.6547708E-01
   7122.67  1.7584351E-01
   7123.00  1.8942351E-01
   7123.33  2.0673735E-01
   7123.67  2.2737223E-01
   7124.00  2.5077501E-01
   7124.33  2.7549144E-01
   7124.67  2.9910634E-01
   7125.00  3.1996983E-01
   7125.33  3.3717333E-01
   7125.67  3.5235720E-01
   7126.00  3.6741220E-01
   7126.33  3.8488654E-01
   7126.67  4.0621713E-01
   7127.00  4.3214972E-01
   7127.33  4.6317421E-01
   7127.67  4.9766659E-01
   7128.00  5.3416983E-01
   7128.33  5.7099701E-01
   7128.67  6.0704553E-01
   7129.00  6.4213974E-01
   7129.33  6.7638379E-01
   7129.67  7.0974127E-01
   7130.00  7.4157896E-01
   7130.33  7.7044654E-01
   7130.67  7.9558147E-01
   7131.00  8.1651295E-01
   7131.33  8.3291365E-01
   7131.67  8.4585314E-01
   7132.00  8.5588575E-01
   7132.33  8.6329614E-01
   7132.67  8.6874154E-01
   7133.00  8.7230097E-01
   7133.33  8.7349837E-01
   7133.67  8.7203288E-01
   7134.00  8.6713767E-01
   7134.33  8.5718665E-01
   7134.67  8.4197627E-01
   7135.00  8.2147340E-01
   7135.33  7.9577131E-01
   7135.67  7.6649813E-01
   7136.00  7.3461373E-01
   7136.33  7.0102193E-01
   7136.67  6.6698482E-01
   7137.00  6.3341994E-01
   7137.33  6.0158192E-01
   7137.67  5.7225592E-01
   7138.00  5.4609371E-01
   7138.33  5.2408801E-01
   7138.67  5.0609035E-01
   7139.00  4.9215137E-01
   7139.33  4.8252407E-01
   7139.67  4.7624963E-01
   7140.00  4.7279874E-01
   7140.33  4.7179885E-01
   7140.67  4.7238575E-01
   7141.00  4.7412879E-01
   7141.33  4.7671754E-01
   7141.67  4.7974834E-01
   7142.00  4.8301727E-01
   7142.33  4.8634668E-01
   7142.67  4.8958437E-01
   7143.00  4.9262458E-01
   7143.33  4.9531866E-01
   7143.67  4.9760447E-01
   7144.00  4.9940353E-01
   7144.33  5.0056995E-01
   7144.67  5.0112614E-01
   7145.00  5.0106079E-01
   7145.33  5.0032685E-01
   7145.67  4.9906965E-01
   7146.00  4.9738068E-01
   7146.33  4.9535472E-01
   7146.67  4.9317682E-01
   7147.00  4.9097647E-01
   7147.33  4.8891398E-01
   7147.67  4.8710644E-01
   7148.00  4.8565491E-01
   7148.33  4.8471916E-01
   7148.67  4.8432851E-01
   7149.00  4.8454587E-01
   7149.33  4.8551704E-01
   7149.67  4.8720763E-01
   7150.00  4.8964823E-01
   7150.33  4.9295516E-01
   7150.67  4.9703281E-01
   7151.00  5.0186418E-01
   7151.33  5.0749593E-01
   7151.67  5.1376722E-01
   7152.00  5.2058445E-01
   7152.33  5.2786413E-01
   7152.67  5.3541056E-01
   7153.00  5.4309162E-01
   7153.33  5.5074730E-01
   7153.67  5.5823223E-01
   7154.00  5.6543551E-01
   7154.33  5.7220685E-01
   7154.67  5.7852422E-01
   7155.00  5.8435270E-01
   7155.33  5.8961414E-01
   7155.67  5.9437668E-01
   7156.00  5.9865445E-01
   7156.33  6.0241083E-01
   7156.67  6.0572417E-01
   7157.00  6.0860741E-01
   7157.33  6.1101507E-01
   7157.67  6.1299864E-01
   7158.00  6.1455104E-01
   7158.33  6.1560492E-01
   7158.67  6.1620375E-01
   7159.00  6.1634036E-01
   7159.33  6.1595589E-01
   7159.67  6.1511838E-01
   7160.00  6.1384698E-01
   7160.33  6.1212632E-01
   7160.67  6.1005182E-01
   7161.00  6.0766810E-01
   7161.33  6.0499917E-01
   7161.67  6.0213362E-01
   7162.00  5.9911802E-01
   7162.33  5.9598904E-01
   7162.67  5.9280142E-01
   7163.00  5.8958376E-01
   7163.33  5.8635887E-01
   7163.67  5.8314130E-01
   7164.00  5.7993454E-01
   7164.33  5.7673324E-01
   7164.67  5.7352425E-01
   7165.00  5.7029947E-01
   7165.33  5.6705578E-01
   7165.67  5.6378357E-01
   7166.00  5.6046324E-01
   7166.33  5.5706395E-01
   7166.67  5.5357573E-01
   7167.00  5.4998454E-01
   7167.33  5.4626202E-01
   7167.67  5.4241309E-01
   7168.00  5.3843352E-01
   7168.33  5.3430632E-01
   7168.67  5.3005124E-01
   7169.00  5.2567492E-01
   7169.33  5.2117755E-01
   7169.67  5.1659419E-01
   7170.00  5.1195107E-01
   7170.33  5.0728717E-01
   7170.67  5.0266121E-01
   7171.00  4.9813880E-01
   7171.33  4.9386596E-01
   7171.67  4.9002244E-01
   7172.00  4.8687082E-01
