    FDMNES
    energy     <xanes>
   7097.00  4.8983679E-03
   7097.33  5.0104947E-03
   7097.67  5.1276047E-03
   7098.00  5.2500314E-03
   7098.33  5.3789219E-03
   7098.67  5.5140357E-03
   7099.00  5.6558259E-03
   7099.33  5.8057886E-03
   7099.67  5.9636760E-03
   7100.00  6.1301206E-03
   7100.33  6.3071234E-03
   7100.67  6.4944513E-03
   7101.00  6.6930138E-03
   7101.33  6.9055698E-03
   7101.67  7.1319486E-03
   7102.00  7.3735064E-03
   7102.33  7.6341870E-03
   7102.67  7.9139884E-03
   7103.00  8.2150220E-03
   7103.33  8.5431791E-03
   7103.67  8.8988672E-03
   7104.00  9.2855514E-03
   7104.33  9.7125278E-03
   7104.67  1.0181183E-02
   7105.00  1.0697595E-02
   7105.33  1.1277493E-02
   7105.67  1.1924700E-02
   7106.00  1.2650840E-02
   7106.33  1.3485096E-02
   7106.67  1.4437883E-02
   7107.00  1.5534191E-02
   7107.33  1.6835563E-02
   7107.67  1.8372891E-02
   7108.00  2.0209786E-02
   7108.33  2.2503156E-02
   7108.67  2.5363436E-02
   7109.00  2.9001259E-02
   7109.33  3.3960664E-02
   7109.67  4.0797322E-02
   7110.00  5.0587051E-02
   7110.33  6.6382602E-02
   7110.67  9.1801179E-02
   7111.00  1.3086432E-01
   7111.33  1.8560324E-01
   7111.67  2.3621569E-01
   7112.00  2.5934785E-01
   7112.33  2.7769147E-01
   7112.67  3.0711544E-01
   7113.00  3.4378891E-01
   7113.33  4.0274364E-01
   7113.67  4.4119892E-01
   7114.00  3.8760067E-01
   7114.33  2.8495586E-01
   7114.67  2.1556858E-01
   7115.00  1.8591742E-01
   7115.33  1.9146368E-01
   7115.67  2.1502399E-01
   7116.00  2.3840499E-01
   7116.33  2.5052720E-01
   7116.67  2.3380668E-01
   7117.00  1.8915951E-01
   7117.33  1.4773646E-01
   7117.67  1.2052835E-01
   7118.00  1.0504902E-01
   7118.33  9.8352991E-02
   7118.67  9.6690346E-02
   7119.00  9.8641082E-02
   7119.33  1.0442553E-01
   7119.67  1.1271716E-01
   7120.00  1.1996213E-01
   7120.33  1.2090013E-01
   7120.67  1.1706536E-01
   7121.00  1.1226372E-01
   7121.33  1.0989811E-01
   7121.67  1.1065939E-01
   7122.00  1.1447006E-01
   7122.33  1.2131992E-01
   7122.67  1.3088630E-01
   7123.00  1.4383176E-01
   7123.33  1.6210972E-01
   7123.67  1.8646441E-01
   7124.00  2.1729362E-01
   7124.33  2.5367306E-01
   7124.67  2.9039580E-01
   7125.00  3.2169382E-01
   7125.33  3.4120792E-01
   7125.67  3.5116186E-01
   7126.00  3.5629329E-01
   7126.33  3.6237138E-01
   7126.67  3.7256765E-01
   7127.00  3.8748430E-01
   7127.33  4.0688141E-01
   7127.67  4.2901108E-01
   7128.00  4.5260411E-01
   7128.33  4.7634467E-01
   7128.67  4.9938096E-01
   7129.00  5.2113587E-01
   7129.33  5.4036626E-01
   7129.67  5.5651141E-01
   7130.00  5.6983904E-01
   7130.33  5.8207358E-01
   7130.67  5.9608518E-01
   7131.00  6.1422731E-01
   7131.33  6.3943823E-01
   7131.67  6.7220478E-01
   7132.00  7.1264954E-01
   7132.33  7.5980022E-01
   7132.67  8.0829804E-01
   7133.00  8.5194920E-01
   7133.33  8.8179873E-01
   7133.67  8.9557754E-01
   7134.00  8.9441632E-01
   7134.33  8.8212962E-01
   7134.67  8.6645162E-01
   7135.00  8.5215039E-01
   7135.33  8.4231933E-01
   7135.67  8.3543094E-01
   7136.00  8.2892592E-01
   7136.33  8.1977727E-01
   7136.67  8.0714597E-01
   7137.00  7.9134807E-01
   7137.33  7.7326602E-01
   7137.67  7.5444005E-01
   7138.00  7.3581868E-01
   7138.33  7.1836814E-01
   7138.67  7.0254992E-01
   7139.00  6.8871449E-01
   7139.33  6.7736525E-01
   7139.67  6.6825786E-01
   7140.00  6.6127614E-01
   7140.33  6.5638174E-01
   7140.67  6.5297660E-01
   7141.00  6.5071099E-01
   7141.33  6.4926478E-01
   7141.67  6.4815142E-01
   7142.00  6.4704157E-01
   7142.33  6.4549262E-01
   7142.67  6.4312485E-01
   7143.00  6.3953684E-01
   7143.33  6.3404032E-01
   7143.67  6.2645197E-01
   7144.00  6.1659980E-01
   7144.33  6.0430073E-01
   7144.67  5.9021228E-01
   7145.00  5.7485851E-01
   7145.33  5.5894741E-01
   7145.67  5.4335867E-01
   7146.00  5.2873201E-01
   7146.33  5.1585128E-01
   7146.67  5.0490416E-01
   7147.00  4.9604565E-01
   7147.33  4.8953114E-01
   7147.67  4.8493344E-01
   7148.00  4.8202299E-01
   7148.33  4.8063171E-01
   7148.67  4.8021074E-01
   7149.00  4.8045394E-01
   7149.33  4.8110581E-01
   7149.67  4.8188689E-01
   7150.00  4.8265063E-01
   7150.33  4.8326859E-01
   7150.67  4.8370203E-01
   7151.00  4.8394583E-01
   7151.33  4.8401586E-01
   7151.67  4.8399792E-01
   7152.00  4.8396619E-01
   7152.33  4.8402699E-01
   7152.67  4.8426114E-01
   7153.00  4.8473512E-01
   7153.33  4.8554671E-01
   7153.67  4.8669979E-01
   7154.00  4.8821541E-01
   7154.33  4.9014911E-01
   7154.67  4.9244699E-01
   7155.00  4.9508787E-01
   7155.33  4.9806477E-01
   7155.67  5.0127258E-01
   7156.00  5.0463349E-01
   7156.33  5.0804117E-01
   7156.67  5.1136287E-01
   7157.00  5.1448524E-01
   7157.33  5.1724620E-01
   7157.67  5.1959143E-01
   7158.00  5.2147325E-01
   7158.33  5.2282417E-01
   7158.67  5.2374519E-01
   7159.00  5.2430620E-01
   7159.33  5.2458178E-01
   7159.67  5.2471707E-01
   7160.00  5.2479984E-01
   7160.33  5.2490848E-01
   7160.67  5.2507735E-01
   7161.00  5.2530490E-01
   7161.33  5.2555270E-01
   7161.67  5.2574574E-01
   7162.00  5.2580766E-01
   7162.33  5.2561685E-01
   7162.67  5.2511460E-01
   7163.00  5.2423569E-01
   7163.33  5.2285619E-01
   7163.67  5.2099519E-01
   7164.00  5.1865549E-01
   7164.33  5.1581156E-01
   7164.67  5.1256887E-01
   7165.00  5.0898063E-01
   7165.33  5.0508298E-01
   7165.67  5.0098451E-01
   7166.00  4.9674778E-01
   7166.33  4.9243314E-01
   7166.67  4.8811242E-01
   7167.00  4.8383341E-01
   7167.33  4.7965403E-01
   7167.67  4.7560240E-01
   7168.00  4.7170693E-01
   7168.33  4.6801617E-01
   7168.67  4.6452569E-01
   7169.00  4.6124936E-01
   7169.33  4.5822579E-01
   7169.67  4.5542612E-01
   7170.00  4.5284500E-01
   7170.33  4.5050091E-01
   7170.67  4.4836143E-01
   7171.00  4.4642619E-01
   7171.33  4.4473267E-01
   7171.67  4.4328504E-01
   7172.00  4.4212710E-01
