    FDMNES
    energy     <xanes>
   7097.00  5.0370325E-03
   7097.33  5.1542791E-03
   7097.67  5.2768420E-03
   7098.00  5.4050821E-03
   7098.33  5.5402314E-03
   7098.67  5.6820396E-03
   7099.00  5.8309981E-03
   7099.33  5.9887182E-03
   7099.67  6.1549432E-03
   7100.00  6.3303601E-03
   7100.33  6.5171303E-03
   7100.67  6.7150144E-03
   7101.00  6.9250026E-03
   7101.33  7.1500827E-03
   7101.67  7.3900860E-03
   7102.00  7.6464910E-03
   7102.33  7.9235802E-03
   7102.67  8.2213725E-03
   7103.00  8.5421734E-03
   7103.33  8.8923966E-03
   7103.67  9.2725135E-03
   7104.00  9.6863152E-03
   7104.33  1.0143947E-02
   7104.67  1.0646963E-02
   7105.00  1.1202027E-02
   7105.33  1.1826352E-02
   7105.67  1.2524188E-02
   7106.00  1.3308316E-02
   7106.33  1.4210786E-02
   7106.67  1.5243177E-02
   7107.00  1.6433094E-02
   7107.33  1.7848504E-02
   7107.67  1.9523967E-02
   7108.00  2.1530392E-02
   7108.33  2.4042982E-02
   7108.67  2.7187309E-02
   7109.00  3.1203017E-02
   7109.33  3.6713412E-02
   7109.67  4.4373710E-02
   7110.00  5.5459515E-02
   7110.33  7.3573086E-02
   7110.67  1.0241730E-01
   7111.00  1.4366345E-01
   7111.33  1.9338910E-01
   7111.67  2.3936421E-01
   7112.00  2.7959522E-01
   7112.33  3.3111484E-01
   7112.67  3.7125643E-01
   7113.00  3.9327441E-01
   7113.33  4.3372039E-01
   7113.67  4.2632964E-01
   7114.00  3.4057854E-01
   7114.33  2.5505906E-01
   7114.67  2.0900054E-01
   7115.00  2.0004133E-01
   7115.33  2.2649046E-01
   7115.67  2.7341949E-01
   7116.00  3.1926881E-01
   7116.33  3.4417531E-01
   7116.67  3.2913472E-01
   7117.00  2.7096393E-01
   7117.33  2.1003787E-01
   7117.67  1.6707211E-01
   7118.00  1.4013767E-01
   7118.33  1.2511009E-01
   7118.67  1.1627228E-01
   7119.00  1.1107953E-01
   7119.33  1.0877712E-01
   7119.67  1.0868829E-01
   7120.00  1.0945004E-01
   7120.33  1.0847689E-01
   7120.67  1.0571564E-01
   7121.00  1.0311271E-01
   7121.33  1.0279320E-01
   7121.67  1.0510766E-01
   7122.00  1.1020005E-01
   7122.33  1.1870049E-01
   7122.67  1.3064564E-01
   7123.00  1.4632412E-01
   7123.33  1.6591381E-01
   7123.67  1.8750591E-01
   7124.00  2.0910846E-01
   7124.33  2.2880469E-01
   7124.67  2.4642978E-01
   7125.00  2.6200772E-01
   7125.33  2.7509287E-01
   7125.67  2.8620158E-01
   7126.00  2.9613617E-01
   7126.33  3.0576932E-01
   7126.67  3.1545084E-01
   7127.00  3.2533314E-01
   7127.33  3.3633746E-01
   7127.67  3.4977992E-01
   7128.00  3.6665578E-01
   7128.33  3.8711773E-01
   7128.67  4.0862442E-01
   7129.00  4.2829902E-01
   7129.33  4.4266763E-01
   7129.67  4.5233832E-01
   7130.00  4.6036067E-01
   7130.33  4.7226094E-01
   7130.67  4.9150026E-01
   7131.00  5.1953820E-01
   7131.33  5.5764058E-01
   7131.67  6.0393886E-01
   7132.00  6.5717830E-01
   7132.33  7.1541757E-01
   7132.67  7.7434673E-01
   7133.00  8.3015168E-01
   7133.33  8.7798808E-01
   7133.67  9.1633451E-01
   7134.00  9.4452987E-01
   7134.33  9.6185644E-01
   7134.67  9.7080339E-01
   7135.00  9.7243000E-01
   7135.33  9.6626224E-01
   7135.67  9.5276624E-01
   7136.00  9.3181867E-01
   7136.33  9.0375199E-01
   7136.67  8.7183332E-01
   7137.00  8.3857855E-01
   7137.33  8.0662382E-01
   7137.67  7.7741438E-01
   7138.00  7.5160271E-01
   7138.33  7.2979258E-01
   7138.67  7.1130308E-01
   7139.00  6.9578565E-01
   7139.33  6.8312466E-01
   7139.67  6.7258808E-01
   7140.00  6.6382596E-01
   7140.33  6.5657788E-01
   7140.67  6.5021478E-01
   7141.00  6.4433084E-01
   7141.33  6.3849058E-01
   7141.67  6.3234081E-01
   7142.00  6.2568878E-01
   7142.33  6.1836544E-01
   7142.67  6.1046888E-01
   7143.00  6.0208376E-01
   7143.33  5.9330330E-01
   7143.67  5.8432347E-01
   7144.00  5.7527448E-01
   7144.33  5.6631172E-01
   7144.67  5.5756625E-01
   7145.00  5.4915035E-01
   7145.33  5.4121494E-01
   7145.67  5.3377448E-01
   7146.00  5.2688870E-01
   7146.33  5.2071491E-01
   7146.67  5.1525425E-01
   7147.00  5.1057001E-01
   7147.33  5.0683262E-01
   7147.67  5.0398790E-01
   7148.00  5.0204277E-01
   7148.33  5.0105449E-01
   7148.67  5.0082150E-01
   7149.00  5.0124427E-01
   7149.33  5.0226723E-01
   7149.67  5.0371451E-01
   7150.00  5.0551101E-01
   7150.33  5.0762967E-01
   7150.67  5.0999390E-01
   7151.00  5.1257678E-01
   7151.33  5.1537120E-01
   7151.67  5.1831467E-01
   7152.00  5.2135769E-01
   7152.33  5.2441746E-01
   7152.67  5.2739054E-01
   7153.00  5.3018199E-01
   7153.33  5.3263736E-01
   7153.67  5.3467584E-01
   7154.00  5.3620338E-01
   7154.33  5.3706425E-01
   7154.67  5.3728766E-01
   7155.00  5.3686777E-01
   7155.33  5.3576401E-01
   7155.67  5.3411947E-01
   7156.00  5.3201045E-01
   7156.33  5.2950054E-01
   7156.67  5.2675485E-01
   7157.00  5.2387947E-01
   7157.33  5.2099273E-01
   7157.67  5.1820642E-01
   7158.00  5.1560566E-01
   7158.33  5.1331006E-01
   7158.67  5.1135583E-01
   7159.00  5.0979045E-01
   7159.33  5.0870829E-01
   7159.67  5.0808023E-01
   7160.00  5.0791382E-01
   7160.33  5.0825665E-01
   7160.67  5.0902090E-01
   7161.00  5.1016126E-01
   7161.33  5.1164604E-01
   7161.67  5.1335117E-01
   7162.00  5.1518768E-01
   7162.33  5.1704061E-01
   7162.67  5.1878405E-01
   7163.00  5.2030827E-01
   7163.33  5.2145100E-01
   7163.67  5.2216336E-01
   7164.00  5.2238934E-01
   7164.33  5.2202126E-01
   7164.67  5.2111068E-01
   7165.00  5.1966743E-01
   7165.33  5.1766554E-01
   7165.67  5.1522769E-01
   7166.00  5.1242217E-01
   7166.33  5.0930649E-01
   7166.67  5.0601383E-01
   7167.00  5.0262885E-01
   7167.33  4.9924207E-01
   7167.67  4.9592949E-01
   7168.00  4.9274414E-01
   7168.33  4.8975694E-01
   7168.67  4.8697084E-01
   7169.00  4.8438958E-01
   7169.33  4.8203106E-01
   7169.67  4.7985648E-01
   7170.00  4.7785137E-01
   7170.33  4.7601880E-01
   7170.67  4.7432789E-01
   7171.00  4.7277550E-01
   7171.33  4.7139027E-01
   7171.67  4.7018712E-01
   7172.00  4.6921537E-01
