    FDMNES
    energy     <xanes>
   7097.00  4.9891933E-03
   7097.33  5.1096654E-03
   7097.67  5.2356490E-03
   7098.00  5.3675201E-03
   7098.33  5.5065600E-03
   7098.67  5.6525126E-03
   7099.00  5.8058927E-03
   7099.33  5.9683812E-03
   7099.67  6.1397196E-03
   7100.00  6.3206319E-03
   7100.33  6.5133845E-03
   7100.67  6.7177453E-03
   7101.00  6.9347670E-03
   7101.33  7.1676064E-03
   7101.67  7.4161225E-03
   7102.00  7.6819072E-03
   7102.33  7.9695341E-03
   7102.67  8.2790982E-03
   7103.00  8.6131238E-03
   7103.33  8.9785678E-03
   7103.67  9.3760950E-03
   7104.00  9.8099511E-03
   7104.33  1.0291385E-02
   7104.67  1.0822450E-02
   7105.00  1.1410842E-02
   7105.33  1.2076249E-02
   7105.67  1.2824295E-02
   7106.00  1.3670380E-02
   7106.33  1.4652837E-02
   7106.67  1.5787479E-02
   7107.00  1.7109630E-02
   7107.33  1.8706085E-02
   7107.67  2.0627046E-02
   7108.00  2.2971597E-02
   7108.33  2.5987027E-02
   7108.67  2.9875506E-02
   7109.00  3.5020031E-02
   7109.33  4.2449189E-02
   7109.67  5.3396754E-02
   7110.00  7.0307036E-02
   7110.33  1.0010097E-01
   7110.67  1.4761435E-01
   7111.00  2.0212641E-01
   7111.33  2.3046167E-01
   7111.67  2.5023559E-01
   7112.00  2.7279123E-01
   7112.33  3.0637928E-01
   7112.67  3.5473733E-01
   7113.00  3.9915696E-01
   7113.33  4.0251936E-01
   7113.67  3.6153088E-01
   7114.00  2.9669269E-01
   7114.33  2.3601203E-01
   7114.67  1.9044011E-01
   7115.00  1.5874214E-01
   7115.33  1.3715466E-01
   7115.67  1.2145439E-01
   7116.00  1.1061731E-01
   7116.33  1.0423011E-01
   7116.67  1.0089699E-01
   7117.00  1.0011967E-01
   7117.33  1.0196996E-01
   7117.67  1.0620174E-01
   7118.00  1.1300799E-01
   7118.33  1.2306524E-01
   7118.67  1.3620043E-01
   7119.00  1.5235562E-01
   7119.33  1.7095159E-01
   7119.67  1.8918209E-01
   7120.00  2.0507039E-01
   7120.33  2.1929740E-01
   7120.67  2.3451876E-01
   7121.00  2.5163173E-01
   7121.33  2.7096672E-01
   7121.67  2.9384337E-01
   7122.00  3.2218818E-01
   7122.33  3.5643241E-01
   7122.67  3.9277987E-01
   7123.00  4.2862130E-01
   7123.33  4.6010977E-01
   7123.67  4.8051791E-01
   7124.00  4.8512023E-01
   7124.33  4.7719144E-01
   7124.67  4.6754625E-01
   7125.00  4.6150304E-01
   7125.33  4.6269891E-01
   7125.67  4.7126758E-01
   7126.00  4.8648274E-01
   7126.33  5.0636710E-01
   7126.67  5.2780750E-01
   7127.00  5.4926558E-01
   7127.33  5.6880629E-01
   7127.67  5.8492425E-01
   7128.00  5.9708553E-01
   7128.33  6.0615613E-01
   7128.67  6.1481952E-01
   7129.00  6.2505161E-01
   7129.33  6.3862364E-01
   7129.67  6.5506921E-01
   7130.00  6.7336589E-01
   7130.33  6.9205346E-01
   7130.67  7.0920583E-01
   7131.00  7.2251213E-01
   7131.33  7.2833278E-01
   7131.67  7.2651611E-01
   7132.00  7.1841089E-01
   7132.33  7.0660609E-01
   7132.67  6.9465014E-01
   7133.00  6.8488668E-01
   7133.33  6.7980990E-01
   7133.67  6.7933433E-01
   7134.00  6.8208838E-01
   7134.33  6.8474674E-01
   7134.67  6.8408342E-01
   7135.00  6.7923010E-01
   7135.33  6.7132792E-01
   7135.67  6.6312920E-01
   7136.00  6.5618557E-01
   7136.33  6.5151007E-01
   7136.67  6.4870887E-01
   7137.00  6.4724643E-01
   7137.33  6.4643926E-01
   7137.67  6.4559893E-01
   7138.00  6.4443362E-01
   7138.33  6.4288058E-01
   7138.67  6.4119667E-01
   7139.00  6.3955343E-01
   7139.33  6.3796679E-01
   7139.67  6.3617533E-01
   7140.00  6.3378405E-01
   7140.33  6.3011191E-01
   7140.67  6.2484955E-01
   7141.00  6.1779179E-01
   7141.33  6.0873754E-01
   7141.67  5.9816711E-01
   7142.00  5.8642231E-01
   7142.33  5.7384572E-01
   7142.67  5.6089506E-01
   7143.00  5.4775667E-01
   7143.33  5.3444552E-01
   7143.67  5.2086120E-01
   7144.00  5.0685809E-01
   7144.33  4.9226794E-01
   7144.67  4.7722088E-01
   7145.00  4.6192928E-01
   7145.33  4.4679784E-01
   7145.67  4.3227414E-01
   7146.00  4.1875270E-01
   7146.33  4.0678973E-01
   7146.67  3.9647114E-01
   7147.00  3.8791140E-01
   7147.33  3.8135736E-01
   7147.67  3.7652939E-01
   7148.00  3.7333700E-01
   7148.33  3.7181135E-01
   7148.67  3.7158377E-01
   7149.00  3.7249219E-01
   7149.33  3.7446690E-01
   7149.67  3.7720729E-01
   7150.00  3.8056948E-01
   7150.33  3.8446570E-01
   7150.67  3.8871441E-01
   7151.00  3.9322952E-01
   7151.33  3.9795030E-01
   7151.67  4.0278029E-01
   7152.00  4.0765679E-01
   7152.33  4.1249277E-01
   7152.67  4.1719392E-01
   7153.00  4.2166551E-01
   7153.33  4.2574807E-01
   7153.67  4.2936763E-01
   7154.00  4.3242812E-01
   7154.33  4.3474818E-01
   7154.67  4.3633224E-01
   7155.00  4.3713590E-01
   7155.33  4.3703795E-01
   7155.67  4.3615173E-01
   7156.00  4.3451436E-01
   7156.33  4.3210939E-01
   7156.67  4.2911145E-01
   7157.00  4.2560691E-01
   7157.33  4.2164836E-01
   7157.67  4.1738358E-01
   7158.00  4.1288690E-01
   7158.33  4.0821138E-01
   7158.67  4.0343600E-01
   7159.00  3.9860386E-01
   7159.33  3.9375867E-01
   7159.67  3.8894533E-01
   7160.00  3.8420400E-01
   7160.33  3.7960341E-01
   7160.67  3.7518619E-01
   7161.00  3.7100565E-01
   7161.33  3.6716232E-01
   7161.67  3.6367880E-01
   7162.00  3.6060098E-01
   7162.33  3.5802753E-01
   7162.67  3.5592779E-01
   7163.00  3.5430732E-01
   7163.33  3.5320988E-01
   7163.67  3.5254177E-01
   7164.00  3.5226080E-01
   7164.33  3.5234696E-01
   7164.67  3.5269045E-01
   7165.00  3.5323150E-01
   7165.33  3.5392448E-01
   7165.67  3.5470372E-01
   7166.00  3.5554094E-01
   7166.33  3.5642492E-01
   7166.67  3.5735070E-01
   7167.00  3.5832949E-01
   7167.33  3.5939269E-01
   7167.67  3.6055796E-01
   7168.00  3.6184967E-01
   7168.33  3.6331444E-01
   7168.67  3.6495685E-01
   7169.00  3.6679241E-01
   7169.33  3.6885693E-01
   7169.67  3.7112551E-01
   7170.00  3.7358970E-01
   7170.33  3.7624905E-01
   7170.67  3.7904233E-01
   7171.00  3.8191499E-01
   7171.33  3.8475890E-01
   7171.67  3.8739384E-01
   7172.00  3.8958570E-01
