    FDMNES
    energy     <xanes>
   7097.00  4.4732262E-03
   7097.33  4.5706895E-03
   7097.67  4.6724309E-03
   7098.00  4.7787409E-03
   7098.33  4.8906111E-03
   7098.67  5.0078414E-03
   7099.00  5.1308292E-03
   7099.33  5.2608754E-03
   7099.67  5.3977782E-03
   7100.00  5.5420971E-03
   7100.33  5.6955857E-03
   7100.67  5.8580629E-03
   7101.00  6.0303422E-03
   7101.33  6.2148656E-03
   7101.67  6.4115218E-03
   7102.00  6.6215404E-03
   7102.33  6.8484567E-03
   7102.67  7.0923391E-03
   7103.00  7.3551340E-03
   7103.33  7.6422091E-03
   7103.67  7.9540639E-03
   7104.00  8.2939601E-03
   7104.33  8.6705477E-03
   7104.67  9.0853658E-03
   7105.00  9.5442908E-03
   7105.33  1.0062370E-02
   7105.67  1.0643789E-02
   7106.00  1.1300189E-02
   7106.33  1.2060569E-02
   7106.67  1.2936557E-02
   7107.00  1.3954447E-02
   7107.33  1.5178831E-02
   7107.67  1.6645953E-02
   7108.00  1.8427900E-02
   7108.33  2.0704044E-02
   7108.67  2.3616532E-02
   7109.00  2.7434967E-02
   7109.33  3.2878059E-02
   7109.67  4.0784083E-02
   7110.00  5.2807617E-02
   7110.33  7.3618941E-02
   7110.67  1.0663887E-01
   7111.00  1.4572936E-01
   7111.33  1.7138769E-01
   7111.67  1.9900135E-01
   7112.00  2.3770449E-01
   7112.33  2.6779648E-01
   7112.67  2.7820161E-01
   7113.00  2.8653894E-01
   7113.33  3.1281537E-01
   7113.67  3.3411427E-01
   7114.00  3.0872187E-01
   7114.33  2.4211869E-01
   7114.67  1.8360509E-01
   7115.00  1.4350635E-01
   7115.33  1.1933290E-01
   7115.67  1.0403111E-01
   7116.00  9.4564044E-02
   7116.33  8.8799692E-02
   7116.67  8.4634152E-02
   7117.00  8.1566221E-02
   7117.33  7.9858868E-02
   7117.67  7.9394862E-02
   7118.00  7.9876876E-02
   7118.33  8.0824096E-02
   7118.67  8.1981106E-02
   7119.00  8.3534537E-02
   7119.33  8.5808766E-02
   7119.67  8.8769801E-02
   7120.00  9.2382977E-02
   7120.33  9.6846549E-02
   7120.67  1.0232623E-01
   7121.00  1.0907587E-01
   7121.33  1.1750995E-01
   7121.67  1.2757723E-01
   7122.00  1.3935417E-01
   7122.33  1.5306502E-01
   7122.67  1.6817603E-01
   7123.00  1.8387026E-01
   7123.33  1.9861123E-01
   7123.67  2.1170070E-01
   7124.00  2.2360036E-01
   7124.33  2.3549064E-01
   7124.67  2.4827516E-01
   7125.00  2.6223081E-01
   7125.33  2.7701867E-01
   7125.67  2.9116883E-01
   7126.00  3.0320887E-01
   7126.33  3.1219267E-01
   7126.67  3.1978461E-01
   7127.00  3.2771912E-01
   7127.33  3.3737001E-01
   7127.67  3.4850531E-01
   7128.00  3.6038701E-01
   7128.33  3.7172156E-01
   7128.67  3.8154605E-01
   7129.00  3.8965183E-01
   7129.33  3.9664430E-01
   7129.67  4.0401017E-01
   7130.00  4.1287618E-01
   7130.33  4.2428050E-01
   7130.67  4.3800451E-01
   7131.00  4.5374578E-01
   7131.33  4.7122419E-01
   7131.67  4.8973828E-01
   7132.00  5.0877748E-01
   7132.33  5.2763067E-01
   7132.67  5.4566319E-01
   7133.00  5.6246956E-01
   7133.33  5.7763395E-01
   7133.67  5.9134169E-01
   7134.00  6.0376755E-01
   7134.33  6.1521132E-01
   7134.67  6.2640165E-01
   7135.00  6.3798730E-01
   7135.33  6.5075450E-01
   7135.67  6.6481115E-01
   7136.00  6.7992912E-01
   7136.33  6.9545051E-01
   7136.67  7.1040859E-01
   7137.00  7.2406861E-01
   7137.33  7.3557423E-01
   7137.67  7.4484847E-01
   7138.00  7.5183970E-01
   7138.33  7.5641918E-01
   7138.67  7.5914815E-01
   7139.00  7.6036387E-01
   7139.33  7.6034574E-01
   7139.67  7.5956642E-01
   7140.00  7.5818431E-01
   7140.33  7.5614872E-01
   7140.67  7.5344037E-01
   7141.00  7.4996512E-01
   7141.33  7.4556926E-01
   7141.67  7.4039519E-01
   7142.00  7.3453643E-01
   7142.33  7.2806235E-01
   7142.67  7.2117773E-01
   7143.00  7.1398976E-01
   7143.33  7.0659704E-01
   7143.67  6.9915524E-01
   7144.00  6.9179554E-01
   7144.33  6.8472083E-01
   7144.67  6.7807563E-01
   7145.00  6.7198437E-01
   7145.33  6.6659849E-01
   7145.67  6.6185709E-01
   7146.00  6.5775571E-01
   7146.33  6.5434420E-01
   7146.67  6.5149284E-01
   7147.00  6.4913536E-01
   7147.33  6.4722149E-01
   7147.67  6.4558259E-01
   7148.00  6.4410511E-01
   7148.33  6.4265377E-01
   7148.67  6.4109058E-01
   7149.00  6.3930999E-01
   7149.33  6.3716941E-01
   7149.67  6.3463471E-01
   7150.00  6.3166718E-01
   7150.33  6.2819310E-01
   7150.67  6.2427728E-01
   7151.00  6.1994359E-01
   7151.33  6.1518595E-01
   7151.67  6.1010103E-01
   7152.00  6.0473431E-01
   7152.33  5.9911050E-01
   7152.67  5.9331365E-01
   7153.00  5.8739372E-01
   7153.33  5.8139807E-01
   7153.67  5.7538616E-01
   7154.00  5.6939797E-01
   7154.33  5.6348270E-01
   7154.67  5.5766688E-01
   7155.00  5.5197461E-01
   7155.33  5.4644323E-01
   7155.67  5.4106308E-01
   7156.00  5.3583169E-01
   7156.33  5.3075125E-01
   7156.67  5.2577844E-01
   7157.00  5.2088225E-01
   7157.33  5.1602424E-01
   7157.67  5.1115698E-01
   7158.00  5.0624923E-01
   7158.33  5.0127006E-01
   7158.67  4.9622482E-01
   7159.00  4.9112994E-01
   7159.33  4.8602530E-01
   7159.67  4.8097357E-01
   7160.00  4.7603559E-01
   7160.33  4.7130321E-01
   7160.67  4.6681563E-01
   7161.00  4.6261719E-01
   7161.33  4.5878437E-01
   7161.67  4.5529350E-01
   7162.00  4.5214485E-01
   7162.33  4.4936415E-01
   7162.67  4.4688613E-01
   7163.00  4.4468617E-01
   7163.33  4.4277025E-01
   7163.67  4.4108684E-01
   7164.00  4.3962345E-01
   7164.33  4.3839850E-01
   7164.67  4.3738463E-01
   7165.00  4.3658598E-01
   7165.33  4.3603914E-01
   7165.67  4.3572641E-01
   7166.00  4.3565611E-01
   7166.33  4.3586686E-01
   7166.67  4.3633130E-01
   7167.00  4.3704948E-01
   7167.33  4.3804873E-01
   7167.67  4.3929010E-01
   7168.00  4.4076459E-01
   7168.33  4.4248731E-01
   7168.67  4.4441652E-01
   7169.00  4.4653877E-01
   7169.33  4.4885882E-01
   7169.67  4.5133487E-01
   7170.00  4.5394656E-01
   7170.33  4.5667742E-01
   7170.67  4.5947366E-01
   7171.00  4.6228524E-01
   7171.33  4.6501048E-01
   7171.67  4.6749987E-01
   7172.00  4.6955078E-01
