    FDMNES
    energy     <xanes>
   7097.00  5.1998915E-03
   7097.33  5.3274029E-03
   7097.67  5.4607870E-03
   7098.00  5.6004431E-03
   7098.33  5.7477333E-03
   7098.67  5.9023825E-03
   7099.00  6.0649354E-03
   7099.33  6.2371758E-03
   7099.67  6.4188236E-03
   7100.00  6.6106431E-03
   7100.33  6.8150335E-03
   7100.67  7.0317394E-03
   7101.00  7.2618683E-03
   7101.33  7.5087527E-03
   7101.67  7.7722280E-03
   7102.00  8.0539636E-03
   7102.33  8.3587727E-03
   7102.67  8.6867308E-03
   7103.00  9.0404778E-03
   7103.33  9.4273110E-03
   7103.67  9.8478929E-03
   7104.00  1.0306653E-02
   7104.33  1.0815359E-02
   7104.67  1.1376112E-02
   7105.00  1.1996933E-02
   7105.33  1.2698386E-02
   7105.67  1.3486295E-02
   7106.00  1.4376726E-02
   7106.33  1.5409722E-02
   7106.67  1.6601802E-02
   7107.00  1.7989928E-02
   7107.33  1.9664978E-02
   7107.67  2.1679707E-02
   7108.00  2.4138158E-02
   7108.33  2.7299929E-02
   7108.67  3.1377305E-02
   7109.00  3.6771366E-02
   7109.33  4.4555172E-02
   7109.67  5.6003124E-02
   7110.00  7.3634409E-02
   7110.33  1.0472194E-01
   7110.67  1.5620922E-01
   7111.00  2.2464071E-01
   7111.33  2.7499339E-01
   7111.67  2.9511051E-01
   7112.00  2.9129322E-01
   7112.33  2.7307446E-01
   7112.67  2.5278581E-01
   7113.00  2.3823940E-01
   7113.33  2.4306202E-01
   7113.67  2.6686848E-01
   7114.00  2.8626782E-01
   7114.33  2.8100452E-01
   7114.67  2.8746473E-01
   7115.00  3.2627733E-01
   7115.33  3.6730286E-01
   7115.67  3.4548815E-01
   7116.00  2.7609412E-01
   7116.33  2.1772921E-01
   7116.67  1.8325111E-01
   7117.00  1.6764772E-01
   7117.33  1.6502638E-01
   7117.67  1.6753034E-01
   7118.00  1.7325453E-01
   7118.33  1.8393353E-01
   7118.67  1.9778483E-01
   7119.00  2.1131982E-01
   7119.33  2.2121869E-01
   7119.67  2.2951302E-01
   7120.00  2.4013550E-01
   7120.33  2.5718389E-01
   7120.67  2.8012679E-01
   7121.00  3.0757671E-01
   7121.33  3.3824295E-01
   7121.67  3.7088670E-01
   7122.00  4.0521368E-01
   7122.33  4.4113026E-01
   7122.67  4.7705473E-01
   7123.00  5.0967770E-01
   7123.33  5.3408059E-01
   7123.67  5.5104274E-01
   7124.00  5.6294927E-01
   7124.33  5.7146085E-01
   7124.67  5.7656190E-01
   7125.00  5.7706229E-01
   7125.33  5.7221129E-01
   7125.67  5.6421961E-01
   7126.00  5.5520367E-01
   7126.33  5.4777477E-01
   7126.67  5.4334228E-01
   7127.00  5.4201981E-01
   7127.33  5.4239920E-01
   7127.67  5.4140744E-01
   7128.00  5.3669764E-01
   7128.33  5.2683476E-01
   7128.67  5.1380890E-01
   7129.00  4.9963850E-01
   7129.33  4.8655655E-01
   7129.67  4.7590317E-01
   7130.00  4.6844952E-01
   7130.33  4.6515830E-01
   7130.67  4.6575480E-01
   7131.00  4.7015885E-01
   7131.33  4.7833409E-01
   7131.67  4.8894230E-01
   7132.00  5.0085495E-01
   7132.33  5.1255614E-01
   7132.67  5.2275840E-01
   7133.00  5.3076349E-01
   7133.33  5.3609400E-01
   7133.67  5.3941519E-01
   7134.00  5.4126512E-01
   7134.33  5.4219196E-01
   7134.67  5.4282558E-01
   7135.00  5.4345480E-01
   7135.33  5.4421430E-01
   7135.67  5.4501718E-01
   7136.00  5.4573191E-01
   7136.33  5.4622141E-01
   7136.67  5.4650826E-01
   7137.00  5.4667237E-01
   7137.33  5.4687125E-01
   7137.67  5.4728669E-01
   7138.00  5.4807896E-01
   7138.33  5.4945013E-01
   7138.67  5.5139438E-01
   7139.00  5.5390919E-01
   7139.33  5.5696828E-01
   7139.67  5.6033604E-01
   7140.00  5.6381780E-01
   7140.33  5.6716296E-01
   7140.67  5.7018689E-01
   7141.00  5.7277430E-01
   7141.33  5.7480856E-01
   7141.67  5.7637107E-01
   7142.00  5.7751776E-01
   7142.33  5.7828695E-01
   7142.67  5.7879516E-01
   7143.00  5.7909880E-01
   7143.33  5.7924243E-01
   7143.67  5.7930113E-01
   7144.00  5.7931592E-01
   7144.33  5.7931851E-01
   7144.67  5.7932385E-01
   7145.00  5.7932798E-01
   7145.33  5.7930797E-01
   7145.67  5.7923328E-01
   7146.00  5.7906739E-01
   7146.33  5.7874296E-01
   7146.67  5.7822244E-01
   7147.00  5.7745671E-01
   7147.33  5.7635237E-01
   7147.67  5.7489744E-01
   7148.00  5.7305837E-01
   7148.33  5.7075891E-01
   7148.67  5.6804177E-01
   7149.00  5.6491278E-01
   7149.33  5.6134181E-01
   7149.67  5.5740531E-01
   7150.00  5.5312954E-01
   7150.33  5.4850708E-01
   7150.67  5.4360781E-01
   7151.00  5.3845912E-01
   7151.33  5.3306675E-01
   7151.67  5.2749207E-01
   7152.00  5.2176493E-01
   7152.33  5.1590244E-01
   7152.67  5.0994646E-01
   7153.00  5.0391418E-01
   7153.33  4.9780887E-01
   7153.67  4.9164016E-01
   7154.00  4.8540280E-01
   7154.33  4.7907737E-01
   7154.67  4.7266707E-01
   7155.00  4.6617394E-01
   7155.33  4.5960372E-01
   7155.67  4.5299255E-01
   7156.00  4.4637325E-01
   7156.33  4.3979344E-01
   7156.67  4.3329073E-01
   7157.00  4.2689472E-01
   7157.33  4.2064374E-01
   7157.67  4.1452913E-01
   7158.00  4.0854849E-01
   7158.33  4.0271262E-01
   7158.67  3.9700549E-01
   7159.00  3.9143698E-01
   7159.33  3.8605545E-01
   7159.67  3.8088435E-01
   7160.00  3.7596916E-01
   7160.33  3.7140700E-01
   7160.67  3.6722188E-01
   7161.00  3.6346417E-01
   7161.33  3.6023914E-01
   7161.67  3.5752098E-01
   7162.00  3.5532747E-01
   7162.33  3.5373100E-01
   7162.67  3.5265579E-01
   7163.00  3.5208301E-01
   7163.33  3.5203973E-01
   7163.67  3.5242755E-01
   7164.00  3.5320821E-01
   7164.33  3.5437716E-01
   7164.67  3.5584239E-01
   7165.00  3.5756266E-01
   7165.33  3.5951839E-01
   7165.67  3.6164080E-01
   7166.00  3.6389564E-01
   7166.33  3.6625857E-01
   7166.67  3.6868611E-01
   7167.00  3.7115526E-01
   7167.33  3.7364640E-01
   7167.67  3.7613962E-01
   7168.00  3.7862279E-01
   7168.33  3.8108162E-01
   7168.67  3.8350935E-01
   7169.00  3.8589890E-01
   7169.33  3.8823726E-01
   7169.67  3.9052297E-01
   7170.00  3.9274933E-01
   7170.33  3.9489833E-01
   7170.67  3.9696504E-01
   7171.00  3.9893139E-01
   7171.33  4.0074339E-01
   7171.67  4.0234758E-01
   7172.00  4.0364931E-01
