    FDMNES
    energy     <xanes>
   7097.00  4.3311081E-03
   7097.33  4.4234941E-03
   7097.67  4.5198410E-03
   7098.00  4.6204122E-03
   7098.33  4.7261175E-03
   7098.67  4.8367643E-03
   7099.00  4.9527120E-03
   7099.33  5.0751480E-03
   7099.67  5.2038760E-03
   7100.00  5.3393997E-03
   7100.33  5.4833114E-03
   7100.67  5.6354301E-03
   7101.00  5.7964847E-03
   7101.33  5.9686796E-03
   7101.67  6.1518916E-03
   7102.00  6.3472162E-03
   7102.33  6.5578256E-03
   7102.67  6.7837483E-03
   7103.00  7.0267084E-03
   7103.33  7.2914907E-03
   7103.67  7.5784909E-03
   7104.00  7.8905804E-03
   7104.33  8.2354143E-03
   7104.67  8.6142756E-03
   7105.00  9.0323015E-03
   7105.33  9.5027019E-03
   7105.67  1.0029012E-02
   7106.00  1.0621328E-02
   7106.33  1.1304866E-02
   7106.67  1.2089457E-02
   7107.00  1.2997665E-02
   7107.33  1.4084973E-02
   7107.67  1.5381773E-02
   7108.00  1.6948962E-02
   7108.33  1.8937735E-02
   7108.67  2.1464860E-02
   7109.00  2.4751712E-02
   7109.33  2.9383301E-02
   7109.67  3.6020648E-02
   7110.00  4.5963236E-02
   7110.33  6.2947354E-02
   7110.67  9.0803364E-02
   7111.00  1.2959631E-01
   7111.33  1.6416414E-01
   7111.67  1.8240606E-01
   7112.00  1.9307810E-01
   7112.33  2.1029858E-01
   7112.67  2.3079957E-01
   7113.00  2.5889424E-01
   7113.33  2.9392130E-01
   7113.67  3.0695494E-01
   7114.00  2.7641494E-01
   7114.33  2.2296474E-01
   7114.67  1.8250793E-01
   7115.00  1.5689879E-01
   7115.33  1.3662452E-01
   7115.67  1.1780068E-01
   7116.00  1.0315863E-01
   7116.33  9.4381215E-02
   7116.67  8.9183616E-02
   7117.00  8.5656551E-02
   7117.33  8.2886320E-02
   7117.67  8.1120914E-02
   7118.00  8.0669891E-02
   7118.33  8.1748509E-02
   7118.67  8.4021286E-02
   7119.00  8.7254415E-02
   7119.33  9.1336633E-02
   7119.67  9.6046114E-02
   7120.00  1.0136176E-01
   7120.33  1.0754289E-01
   7120.67  1.1461330E-01
   7121.00  1.2247235E-01
   7121.33  1.3099794E-01
   7121.67  1.4013335E-01
   7122.00  1.5012146E-01
   7122.33  1.6134906E-01
   7122.67  1.7355144E-01
   7123.00  1.8636892E-01
   7123.33  1.9950272E-01
   7123.67  2.1292484E-01
   7124.00  2.2690558E-01
   7124.33  2.4193943E-01
   7124.67  2.5798488E-01
   7125.00  2.7463339E-01
   7125.33  2.9075894E-01
   7125.67  3.0502365E-01
   7126.00  3.1645338E-01
   7126.33  3.2429216E-01
   7126.67  3.2953438E-01
   7127.00  3.3321527E-01
   7127.33  3.3657573E-01
   7127.67  3.4052683E-01
   7128.00  3.4530973E-01
   7128.33  3.5082650E-01
   7128.67  3.5675802E-01
   7129.00  3.6317576E-01
   7129.33  3.7068417E-01
   7129.67  3.7983304E-01
   7130.00  3.9104798E-01
   7130.33  4.0464744E-01
   7130.67  4.1994905E-01
   7131.00  4.3638974E-01
   7131.33  4.5334040E-01
   7131.67  4.7010463E-01
   7132.00  4.8618554E-01
   7132.33  5.0100266E-01
   7132.67  5.1448610E-01
   7133.00  5.2662069E-01
   7133.33  5.3731105E-01
   7133.67  5.4678058E-01
   7134.00  5.5508530E-01
   7134.33  5.6224123E-01
   7134.67  5.6865409E-01
   7135.00  5.7464518E-01
   7135.33  5.8059158E-01
   7135.67  5.8679567E-01
   7136.00  5.9338150E-01
   7136.33  6.0039381E-01
   7136.67  6.0770927E-01
   7137.00  6.1527054E-01
   7137.33  6.2309975E-01
   7137.67  6.3122173E-01
   7138.00  6.3969480E-01
   7138.33  6.4858467E-01
   7138.67  6.5775912E-01
   7139.00  6.6704034E-01
   7139.33  6.7609195E-01
   7139.67  6.8457046E-01
   7140.00  6.9216811E-01
   7140.33  6.9845446E-01
   7140.67  7.0341291E-01
   7141.00  7.0701234E-01
   7141.33  7.0916617E-01
   7141.67  7.1019555E-01
   7142.00  7.1028100E-01
   7142.33  7.0957115E-01
   7142.67  7.0840530E-01
   7143.00  7.0700282E-01
   7143.33  7.0561782E-01
   7143.67  7.0448412E-01
   7144.00  7.0377692E-01
   7144.33  7.0370592E-01
   7144.67  7.0424250E-01
   7145.00  7.0537032E-01
   7145.33  7.0710393E-01
   7145.67  7.0928595E-01
   7146.00  7.1180696E-01
   7146.33  7.1452572E-01
   7146.67  7.1722545E-01
   7147.00  7.1972216E-01
   7147.33  7.2174224E-01
   7147.67  7.2312685E-01
   7148.00  7.2371337E-01
   7148.33  7.2322810E-01
   7148.67  7.2168386E-01
   7149.00  7.1903468E-01
   7149.33  7.1514692E-01
   7149.67  7.1022460E-01
   7150.00  7.0437047E-01
   7150.33  6.9765066E-01
   7150.67  6.9035439E-01
   7151.00  6.8265744E-01
   7151.33  6.7473313E-01
   7151.67  6.6678682E-01
   7152.00  6.5895478E-01
   7152.33  6.5139380E-01
   7152.67  6.4415830E-01
   7153.00  6.3728919E-01
   7153.33  6.3085102E-01
   7153.67  6.2478717E-01
   7154.00  6.1907573E-01
   7154.33  6.1371920E-01
   7154.67  6.0863446E-01
   7155.00  6.0378232E-01
   7155.33  5.9914072E-01
   7155.67  5.9464240E-01
   7156.00  5.9025163E-01
   7156.33  5.8593757E-01
   7156.67  5.8165454E-01
   7157.00  5.7737200E-01
   7157.33  5.7304974E-01
   7157.67  5.6865584E-01
   7158.00  5.6415912E-01
   7158.33  5.5950607E-01
   7158.67  5.5467922E-01
   7159.00  5.4965050E-01
   7159.33  5.4436120E-01
   7159.67  5.3881870E-01
   7160.00  5.3301562E-01
   7160.33  5.2692461E-01
   7160.67  5.2059437E-01
   7161.00  5.1405050E-01
   7161.33  5.0731662E-01
   7161.67  5.0047252E-01
   7162.00  4.9357729E-01
   7162.33  4.8670752E-01
   7162.67  4.7993918E-01
   7163.00  4.7334344E-01
   7163.33  4.6703171E-01
   7163.67  4.6104467E-01
   7164.00  4.5543675E-01
   7164.33  4.5031388E-01
   7164.67  4.4566296E-01
   7165.00  4.4151119E-01
   7165.33  4.3794604E-01
   7165.67  4.3491431E-01
   7166.00  4.3241770E-01
   7166.33  4.3051373E-01
   7166.67  4.2911811E-01
   7167.00  4.2820821E-01
   7167.33  4.2780790E-01
   7167.67  4.2782314E-01
   7168.00  4.2822008E-01
   7168.33  4.2900154E-01
   7168.67  4.3008552E-01
   7169.00  4.3143924E-01
   7169.33  4.3305523E-01
   7169.67  4.3486914E-01
   7170.00  4.3685110E-01
   7170.33  4.3898122E-01
   7170.67  4.4120087E-01
   7171.00  4.4346300E-01
   7171.33  4.4568013E-01
   7171.67  4.4771652E-01
   7172.00  4.4939195E-01
