    FDMNES
    energy     <xanes>
   7097.00  4.2486203E-03
   7097.33  4.3327121E-03
   7097.67  4.4199595E-03
   7098.00  4.5105483E-03
   7098.33  4.6051641E-03
   7098.67  4.7036226E-03
   7099.00  4.8061729E-03
   7099.33  4.9136881E-03
   7099.67  5.0259760E-03
   7100.00  5.1433800E-03
   7100.33  5.2670438E-03
   7100.67  5.3967797E-03
   7101.00  5.5330785E-03
   7101.33  5.6774912E-03
   7101.67  5.8298632E-03
   7102.00  5.9909273E-03
   7102.33  6.1628788E-03
   7102.67  6.3456628E-03
   7103.00  6.5404331E-03
   7103.33  6.7504693E-03
   7103.67  6.9759733E-03
   7104.00  7.2188861E-03
   7104.33  7.4844560E-03
   7104.67  7.7735363E-03
   7105.00  8.0896757E-03
   7105.33  8.4420593E-03
   7105.67  8.8332729E-03
   7106.00  9.2705509E-03
   7106.33  9.7720070E-03
   7106.67  1.0345336E-02
   7107.00  1.1007637E-02
   7107.33  1.1801085E-02
   7107.67  1.2751246E-02
   7108.00  1.3908135E-02
   7108.33  1.5397319E-02
   7108.67  1.7326505E-02
   7109.00  1.9899358E-02
   7109.33  2.3668366E-02
   7109.67  2.9321162E-02
   7110.00  3.8224759E-02
   7110.33  5.4258953E-02
   7110.67  7.9960062E-02
   7111.00  1.0828981E-01
   7111.33  1.1922419E-01
   7111.67  1.2234125E-01
   7112.00  1.2654623E-01
   7112.33  1.3479097E-01
   7112.67  1.3679592E-01
   7113.00  1.2444035E-01
   7113.33  1.0309208E-01
   7113.67  8.4221765E-02
   7114.00  7.0094112E-02
   7114.33  6.0768656E-02
   7114.67  5.3784956E-02
   7115.00  4.8659067E-02
   7115.33  4.5719975E-02
   7115.67  4.4262995E-02
   7116.00  4.3904573E-02
   7116.33  4.4480486E-02
   7116.67  4.5718273E-02
   7117.00  4.7496365E-02
   7117.33  4.9708019E-02
   7117.67  5.2176822E-02
   7118.00  5.4910720E-02
   7118.33  5.8156124E-02
   7118.67  6.2123841E-02
   7119.00  6.7022101E-02
   7119.33  7.3215462E-02
   7119.67  8.0802634E-02
   7120.00  9.0044617E-02
   7120.33  1.0160525E-01
   7120.67  1.1577916E-01
   7121.00  1.3318091E-01
   7121.33  1.5522168E-01
   7121.67  1.8243693E-01
   7122.00  2.1574041E-01
   7122.33  2.5677558E-01
   7122.67  3.0467078E-01
   7123.00  3.5830025E-01
   7123.33  4.1505710E-01
   7123.67  4.7039275E-01
   7124.00  5.2075119E-01
   7124.33  5.6276450E-01
   7124.67  5.9787563E-01
   7125.00  6.2841343E-01
   7125.33  6.5625286E-01
   7125.67  6.8055331E-01
   7126.00  6.9805690E-01
   7126.33  7.0468753E-01
   7126.67  7.0300965E-01
   7127.00  6.9732460E-01
   7127.33  6.9272191E-01
   7127.67  6.9088755E-01
   7128.00  6.9048044E-01
   7128.33  6.8813286E-01
   7128.67  6.8172561E-01
   7129.00  6.7126714E-01
   7129.33  6.5879636E-01
   7129.67  6.4775204E-01
   7130.00  6.4040220E-01
   7130.33  6.3871062E-01
   7130.67  6.4203234E-01
   7131.00  6.4961788E-01
   7131.33  6.6062005E-01
   7131.67  6.7344680E-01
   7132.00  6.8719177E-01
   7132.33  7.0090175E-01
   7132.67  7.1367017E-01
   7133.00  7.2476186E-01
   7133.33  7.3320697E-01
   7133.67  7.3893604E-01
   7134.00  7.4188689E-01
   7134.33  7.4195212E-01
   7134.67  7.3998104E-01
   7135.00  7.3648122E-01
   7135.33  7.3165180E-01
   7135.67  7.2576128E-01
   7136.00  7.1889242E-01
   7136.33  7.1109472E-01
   7136.67  7.0264932E-01
   7137.00  6.9366451E-01
   7137.33  6.8409653E-01
   7137.67  6.7394598E-01
   7138.00  6.6315953E-01
   7138.33  6.5169415E-01
   7138.67  6.3981069E-01
   7139.00  6.2778162E-01
   7139.33  6.1602663E-01
   7139.67  6.0490747E-01
   7140.00  5.9471645E-01
   7140.33  5.8585997E-01
   7140.67  5.7835018E-01
   7141.00  5.7224982E-01
   7141.33  5.6773068E-01
   7141.67  5.6455858E-01
   7142.00  5.6266868E-01
   7142.33  5.6212459E-01
   7142.67  5.6268519E-01
   7143.00  5.6426673E-01
   7143.33  5.6687272E-01
   7143.67  5.7025839E-01
   7144.00  5.7429055E-01
   7144.33  5.7884581E-01
   7144.67  5.8365754E-01
   7145.00  5.8852903E-01
   7145.33  5.9319449E-01
   7145.67  5.9742771E-01
   7146.00  6.0101616E-01
   7146.33  6.0360754E-01
   7146.67  6.0508231E-01
   7147.00  6.0525763E-01
   7147.33  6.0376033E-01
   7147.67  6.0062680E-01
   7148.00  5.9576797E-01
   7148.33  5.8891583E-01
   7148.67  5.8032042E-01
   7149.00  5.7007087E-01
   7149.33  5.5815589E-01
   7149.67  5.4499990E-01
   7150.00  5.3084751E-01
   7150.33  5.1592260E-01
   7150.67  5.0062495E-01
   7151.00  4.8521036E-01
   7151.33  4.6996301E-01
   7151.67  4.5508513E-01
   7152.00  4.4072697E-01
   7152.33  4.2710282E-01
   7152.67  4.1422160E-01
   7153.00  4.0212504E-01
   7153.33  3.9092809E-01
   7153.67  3.8051933E-01
   7154.00  3.7087289E-01
   7154.33  3.6203241E-01
   7154.67  3.5384930E-01
   7155.00  3.4626586E-01
   7155.33  3.3927697E-01
   7155.67  3.3274573E-01
   7156.00  3.2661428E-01
   7156.33  3.2086244E-01
   7156.67  3.1539403E-01
   7157.00  3.1017110E-01
   7157.33  3.0518642E-01
   7157.67  3.0039245E-01
   7158.00  2.9578176E-01
   7158.33  2.9138064E-01
   7158.67  2.8717948E-01
   7159.00  2.8319785E-01
   7159.33  2.7950145E-01
   7159.67  2.7610674E-01
   7160.00  2.7306699E-01
   7160.33  2.7051170E-01
   7160.67  2.6847642E-01
   7161.00  2.6704662E-01
   7161.33  2.6641491E-01
   7161.67  2.6659265E-01
   7162.00  2.6765156E-01
   7162.33  2.6975255E-01
   7162.67  2.7277991E-01
   7163.00  2.7671230E-01
   7163.33  2.8159823E-01
   7163.67  2.8722752E-01
   7164.00  2.9347926E-01
   7164.33  3.0025134E-01
   7164.67  3.0732974E-01
   7165.00  3.1459222E-01
   7165.33  3.2191824E-01
   7165.67  3.2919520E-01
   7166.00  3.3635378E-01
   7166.33  3.4331837E-01
   7166.67  3.5008314E-01
   7167.00  3.5664220E-01
   7167.33  3.6297943E-01
   7167.67  3.6913821E-01
   7168.00  3.7513838E-01
   7168.33  3.8098732E-01
   7168.67  3.8672336E-01
   7169.00  3.9236051E-01
   7169.33  3.9789758E-01
   7169.67  4.0334712E-01
   7170.00  4.0870228E-01
   7170.33  4.1393011E-01
   7170.67  4.1900969E-01
   7171.00  4.2389041E-01
   7171.33  4.2843233E-01
   7171.67  4.3248404E-01
   7172.00  4.3579766E-01
