    FDMNES
    energy     <xanes>
   7097.00  4.2042444E-03
   7097.33  4.2879060E-03
   7097.67  4.3748169E-03
   7098.00  4.4651786E-03
   7098.33  4.5597137E-03
   7098.67  4.6582466E-03
   7099.00  4.7610504E-03
   7099.33  4.8690579E-03
   7099.67  4.9820890E-03
   7100.00  5.1005258E-03
   7100.33  5.2256074E-03
   7100.67  5.3571653E-03
   7101.00  5.4957530E-03
   7101.33  5.6430758E-03
   7101.67  5.7990124E-03
   7102.00  5.9643991E-03
   7102.33  6.1416871E-03
   7102.67  6.3308816E-03
   7103.00  6.5333140E-03
   7103.33  6.7526994E-03
   7103.67  6.9893567E-03
   7104.00  7.2455427E-03
   7104.33  7.5272773E-03
   7104.67  7.8356539E-03
   7105.00  8.1748148E-03
   7105.33  8.5553815E-03
   7105.67  8.9804665E-03
   7106.00  9.4584941E-03
   7106.33  1.0010432E-02
   7106.67  1.0645217E-02
   7107.00  1.1382527E-02
   7107.33  1.2270678E-02
   7107.67  1.3338367E-02
   7108.00  1.4641657E-02
   7108.33  1.6320272E-02
   7108.67  1.8489644E-02
   7109.00  2.1366856E-02
   7109.33  2.5531683E-02
   7109.67  3.1672017E-02
   7110.00  4.1142734E-02
   7110.33  5.7828252E-02
   7110.67  8.5284635E-02
   7111.00  1.2150776E-01
   7111.33  1.5216941E-01
   7111.67  1.7423457E-01
   7112.00  1.8126034E-01
   7112.33  1.6769353E-01
   7112.67  1.5045301E-01
   7113.00  1.3586599E-01
   7113.33  1.2184034E-01
   7113.67  1.0662734E-01
   7114.00  9.0741840E-02
   7114.33  7.6248654E-02
   7114.67  6.5227550E-02
   7115.00  5.7672122E-02
   7115.33  5.2705257E-02
   7115.67  4.9298767E-02
   7116.00  4.7162238E-02
   7116.33  4.6225022E-02
   7116.67  4.6190991E-02
   7117.00  4.6896051E-02
   7117.33  4.8190948E-02
   7117.67  4.9915794E-02
   7118.00  5.2141177E-02
   7118.33  5.5085816E-02
   7118.67  5.8699967E-02
   7119.00  6.2815353E-02
   7119.33  6.6979694E-02
   7119.67  7.0651898E-02
   7120.00  7.3610335E-02
   7120.33  7.5990367E-02
   7120.67  7.8347988E-02
   7121.00  8.1090363E-02
   7121.33  8.4673993E-02
   7121.67  8.9365155E-02
   7122.00  9.5570253E-02
   7122.33  1.0419193E-01
   7122.67  1.1579682E-01
   7123.00  1.3131804E-01
   7123.33  1.5282521E-01
   7123.67  1.8130249E-01
   7124.00  2.1799431E-01
   7124.33  2.6438952E-01
   7124.67  3.1810322E-01
   7125.00  3.7691374E-01
   7125.33  4.3645570E-01
   7125.67  4.8729782E-01
   7126.00  5.2010179E-01
   7126.33  5.3168520E-01
   7126.67  5.3462153E-01
   7127.00  5.3766777E-01
   7127.33  5.4587151E-01
   7127.67  5.5789323E-01
   7128.00  5.7155943E-01
   7128.33  5.8636757E-01
   7128.67  6.0507245E-01
   7129.00  6.3149824E-01
   7129.33  6.7005023E-01
   7129.67  7.1935979E-01
   7130.00  7.7705335E-01
   7130.33  8.3894722E-01
   7130.67  8.9879456E-01
   7131.00  9.5150546E-01
   7131.33  9.9064774E-01
   7131.67  1.0150514E+00
   7132.00  1.0247028E+00
   7132.33  1.0202486E+00
   7132.67  1.0064796E+00
   7133.00  9.8592877E-01
   7133.33  9.6066228E-01
   7133.67  9.3400058E-01
   7134.00  9.0827604E-01
   7134.33  8.8530504E-01
   7134.67  8.6470712E-01
   7135.00  8.4557666E-01
   7135.33  8.2640763E-01
   7135.67  8.0593971E-01
   7136.00  7.8387698E-01
   7136.33  7.6077715E-01
   7136.67  7.3794108E-01
   7137.00  7.1630005E-01
   7137.33  6.9681801E-01
   7137.67  6.7960587E-01
   7138.00  6.6474968E-01
   7138.33  6.5247677E-01
   7138.67  6.4232737E-01
   7139.00  6.3408901E-01
   7139.33  6.2765518E-01
   7139.67  6.2247134E-01
   7140.00  6.1821389E-01
   7140.33  6.1457834E-01
   7140.67  6.1115860E-01
   7141.00  6.0771960E-01
   7141.33  6.0403996E-01
   7141.67  6.0002828E-01
   7142.00  5.9562550E-01
   7142.33  5.9073209E-01
   7142.67  5.8536610E-01
   7143.00  5.7950428E-01
   7143.33  5.7306858E-01
   7143.67  5.6613253E-01
   7144.00  5.5874205E-01
   7144.33  5.5095393E-01
   7144.67  5.4295010E-01
   7145.00  5.3486167E-01
   7145.33  5.2684687E-01
   7145.67  5.1903491E-01
   7146.00  5.1153165E-01
   7146.33  5.0450033E-01
   7146.67  4.9798882E-01
   7147.00  4.9207524E-01
   7147.33  4.8692173E-01
   7147.67  4.8250188E-01
   7148.00  4.7884647E-01
   7148.33  4.7606098E-01
   7148.67  4.7402677E-01
   7149.00  4.7270561E-01
   7149.33  4.7212127E-01
   7149.67  4.7211899E-01
   7150.00  4.7261977E-01
   7150.33  4.7356745E-01
   7150.67  4.7479717E-01
   7151.00  4.7620493E-01
   7151.33  4.7767208E-01
   7151.67  4.7906435E-01
   7152.00  4.8027123E-01
   7152.33  4.8112200E-01
   7152.67  4.8152668E-01
   7153.00  4.8138258E-01
   7153.33  4.8049684E-01
   7153.67  4.7885163E-01
   7154.00  4.7637049E-01
   7154.33  4.7286350E-01
   7154.67  4.6838889E-01
   7155.00  4.6291804E-01
   7155.33  4.5631504E-01
   7155.67  4.4872340E-01
   7156.00  4.4018294E-01
   7156.33  4.3066048E-01
   7156.67  4.2037423E-01
   7157.00  4.0944665E-01
   7157.33  3.9799840E-01
   7157.67  3.8629955E-01
   7158.00  3.7455220E-01
   7158.33  3.6303094E-01
   7158.67  3.5196502E-01
   7159.00  3.4156832E-01
   7159.33  3.3218744E-01
   7159.67  3.2391752E-01
   7160.00  3.1690948E-01
   7160.33  3.1147272E-01
   7160.67  3.0751880E-01
   7161.00  3.0508169E-01
   7161.33  3.0433956E-01
   7161.67  3.0503058E-01
   7162.00  3.0704759E-01
   7162.33  3.1036828E-01
   7162.67  3.1465520E-01
   7163.00  3.1973395E-01
   7163.33  3.2547462E-01
   7163.67  3.3160925E-01
   7164.00  3.3798356E-01
   7164.33  3.4444988E-01
   7164.67  3.5086831E-01
   7165.00  3.5715179E-01
   7165.33  3.6319911E-01
   7165.67  3.6898385E-01
   7166.00  3.7448071E-01
   7166.33  3.7964479E-01
   7166.67  3.8451902E-01
   7167.00  3.8911690E-01
   7167.33  3.9342978E-01
   7167.67  3.9751609E-01
   7168.00  4.0139899E-01
   7168.33  4.0508170E-01
   7168.67  4.0860910E-01
   7169.00  4.1199735E-01
   7169.33  4.1524569E-01
   7169.67  4.1837952E-01
   7170.00  4.2140291E-01
   7170.33  4.2430079E-01
   7170.67  4.2707761E-01
   7171.00  4.2971439E-01
   7171.33  4.3214305E-01
   7171.67  4.3429695E-01
   7172.00  4.3605510E-01
