    FDMNES
    energy     <xanes>
   7097.00  4.7683474E-03
   7097.33  4.8744668E-03
   7097.67  4.9851134E-03
   7098.00  5.1005750E-03
   7098.33  5.2218678E-03
   7098.67  5.3487515E-03
   7099.00  5.4816106E-03
   7099.33  5.6217501E-03
   7099.67  5.7689142E-03
   7100.00  5.9236294E-03
   7100.33  6.0876095E-03
   7100.67  6.2605956E-03
   7101.00  6.4433282E-03
   7101.33  6.6381187E-03
   7101.67  6.8447342E-03
   7102.00  7.0642497E-03
   7102.33  7.2998839E-03
   7102.67  7.5514944E-03
   7103.00  7.8207034E-03
   7103.33  8.1121702E-03
   7103.67  8.4259878E-03
   7104.00  8.7647231E-03
   7104.33  9.1354536E-03
   7104.67  9.5388459E-03
   7105.00  9.9792121E-03
   7105.33  1.0467988E-02
   7105.67  1.1007253E-02
   7106.00  1.1604842E-02
   7106.33  1.2280819E-02
   7106.67  1.3040992E-02
   7107.00  1.3901212E-02
   7107.33  1.4901032E-02
   7107.67  1.6057432E-02
   7108.00  1.7408036E-02
   7108.33  1.9046073E-02
   7108.67  2.1030275E-02
   7109.00  2.3476521E-02
   7109.33  2.6683273E-02
   7109.67  3.0937668E-02
   7110.00  3.6802314E-02
   7110.33  4.5871419E-02
   7110.67  5.9951515E-02
   7111.00  8.0360831E-02
   7111.33  1.0172866E-01
   7111.67  1.1853751E-01
   7112.00  1.4282490E-01
   7112.33  1.8778777E-01
   7112.67  2.4621683E-01
   7113.00  3.0508166E-01
   7113.33  3.2102794E-01
   7113.67  2.9748697E-01
   7114.00  2.9311364E-01
   7114.33  3.4341633E-01
   7114.67  4.2847325E-01
   7115.00  4.7741325E-01
   7115.33  4.0171644E-01
   7115.67  2.9869887E-01
   7116.00  2.2822046E-01
   7116.33  2.0028883E-01
   7116.67  2.0330281E-01
   7117.00  2.3342035E-01
   7117.33  2.8093887E-01
   7117.67  3.1796118E-01
   7118.00  3.2775855E-01
   7118.33  3.0550824E-01
   7118.67  2.6840127E-01
   7119.00  2.3103426E-01
   7119.33  2.0235256E-01
   7119.67  1.8144283E-01
   7120.00  1.6621371E-01
   7120.33  1.5452660E-01
   7120.67  1.4446767E-01
   7121.00  1.3577111E-01
   7121.33  1.2892035E-01
   7121.67  1.2386935E-01
   7122.00  1.2043498E-01
   7122.33  1.1833602E-01
   7122.67  1.1704113E-01
   7123.00  1.1646162E-01
   7123.33  1.1698812E-01
   7123.67  1.1900732E-01
   7124.00  1.2293192E-01
   7124.33  1.2932384E-01
   7124.67  1.3795890E-01
   7125.00  1.4864132E-01
   7125.33  1.6086993E-01
   7125.67  1.7363937E-01
   7126.00  1.8703231E-01
   7126.33  2.0283236E-01
   7126.67  2.2286336E-01
   7127.00  2.4855149E-01
   7127.33  2.8142689E-01
   7127.67  3.1987734E-01
   7128.00  3.6096600E-01
   7128.33  3.9733853E-01
   7128.67  4.2271846E-01
   7129.00  4.3654054E-01
   7129.33  4.4349350E-01
   7129.67  4.5037861E-01
   7130.00  4.6033661E-01
   7130.33  4.7582693E-01
   7130.67  4.9702555E-01
   7131.00  5.2404264E-01
   7131.33  5.5704786E-01
   7131.67  5.9439138E-01
   7132.00  6.3506013E-01
   7132.33  6.7788872E-01
   7132.67  7.2088437E-01
   7133.00  7.6217981E-01
   7133.33  7.9863859E-01
   7133.67  8.2809128E-01
   7134.00  8.4877413E-01
   7134.33  8.5899355E-01
   7134.67  8.6126370E-01
   7135.00  8.5779833E-01
   7135.33  8.5120411E-01
   7135.67  8.4455321E-01
   7136.00  8.3975869E-01
   7136.33  8.3887944E-01
   7136.67  8.4231714E-01
   7137.00  8.4995345E-01
   7137.33  8.6060881E-01
   7137.67  8.7056042E-01
   7138.00  8.7546347E-01
   7138.33  8.6842645E-01
   7138.67  8.4707931E-01
   7139.00  8.1149553E-01
   7139.33  7.6436496E-01
   7139.67  7.1303545E-01
   7140.00  6.6237364E-01
   7140.33  6.1688390E-01
   7140.67  5.7794475E-01
   7141.00  5.4604457E-01
   7141.33  5.2176367E-01
   7141.67  5.0351326E-01
   7142.00  4.9049615E-01
   7142.33  4.8228167E-01
   7142.67  4.7742652E-01
   7143.00  4.7523298E-01
   7143.33  4.7523896E-01
   7143.67  4.7659745E-01
   7144.00  4.7885845E-01
   7144.33  4.8161358E-01
   7144.67  4.8440687E-01
   7145.00  4.8694878E-01
   7145.33  4.8891549E-01
   7145.67  4.9023197E-01
   7146.00  4.9090282E-01
   7146.33  4.9101639E-01
   7146.67  4.9090676E-01
   7147.00  4.9085741E-01
   7147.33  4.9123371E-01
   7147.67  4.9222551E-01
   7148.00  4.9393753E-01
   7148.33  4.9646508E-01
   7148.67  4.9962692E-01
   7149.00  5.0330422E-01
   7149.33  5.0740187E-01
   7149.67  5.1173846E-01
   7150.00  5.1616937E-01
   7150.33  5.2047708E-01
   7150.67  5.2449719E-01
   7151.00  5.2814155E-01
   7151.33  5.3135982E-01
   7151.67  5.3429943E-01
   7152.00  5.3710582E-01
   7152.33  5.3998609E-01
   7152.67  5.4312173E-01
   7153.00  5.4664348E-01
   7153.33  5.5071020E-01
   7153.67  5.5529162E-01
   7154.00  5.6036338E-01
   7154.33  5.6590435E-01
   7154.67  5.7175443E-01
   7155.00  5.7780365E-01
   7155.33  5.8392352E-01
   7155.67  5.8997112E-01
   7156.00  5.9583783E-01
   7156.33  6.0137533E-01
   7156.67  6.0652873E-01
   7157.00  6.1123711E-01
   7157.33  6.1538747E-01
   7157.67  6.1900976E-01
   7158.00  6.2208898E-01
   7158.33  6.2455089E-01
   7158.67  6.2646785E-01
   7159.00  6.2784810E-01
   7159.33  6.2863969E-01
   7159.67  6.2892384E-01
   7160.00  6.2871541E-01
   7160.33  6.2797341E-01
   7160.67  6.2677565E-01
   7161.00  6.2513800E-01
   7161.33  6.2302600E-01
   7161.67  6.2051022E-01
   7162.00  6.1760727E-01
   7162.33  6.1429397E-01
   7162.67  6.1063458E-01
   7163.00  6.0664148E-01
   7163.33  6.0228959E-01
   7163.67  5.9763374E-01
   7164.00  5.9268492E-01
   7164.33  5.8741973E-01
   7164.67  5.8188598E-01
   7165.00  5.7609636E-01
   7165.33  5.7003815E-01
   7165.67  5.6376209E-01
   7166.00  5.5728959E-01
   7166.33  5.5062630E-01
   7166.67  5.4382220E-01
   7167.00  5.3690510E-01
   7167.33  5.2989835E-01
   7167.67  5.2284350E-01
   7168.00  5.1577157E-01
   7168.33  5.0872678E-01
   7168.67  5.0174749E-01
   7169.00  4.9486923E-01
   7169.33  4.8815109E-01
   7169.67  4.8161652E-01
   7170.00  4.7530195E-01
   7170.33  4.6928590E-01
   7170.67  4.6358752E-01
   7171.00  4.5826365E-01
   7171.33  4.5346754E-01
   7171.67  4.4929317E-01
   7172.00  4.4593203E-01
