    FDMNES
    energy     <xanes>
   7097.00  5.1845099E-03
   7097.33  5.3116986E-03
   7097.67  5.4448385E-03
   7098.00  5.5843395E-03
   7098.33  5.7315908E-03
   7098.67  5.8863199E-03
   7099.00  6.0490865E-03
   7099.33  6.2217126E-03
   7099.67  6.4039200E-03
   7100.00  6.5964927E-03
   7100.33  6.8018825E-03
   7100.67  7.0198333E-03
   7101.00  7.2514773E-03
   7101.33  7.5002144E-03
   7101.67  7.7658730E-03
   7102.00  8.0501481E-03
   7102.33  8.3579285E-03
   7102.67  8.6892639E-03
   7103.00  9.0468051E-03
   7103.33  9.4378992E-03
   7103.67  9.8631279E-03
   7104.00  1.0326864E-02
   7104.33  1.0840774E-02
   7104.67  1.1406711E-02
   7105.00  1.2032390E-02
   7105.33  1.2737691E-02
   7105.67  1.3527635E-02
   7106.00  1.4417078E-02
   7106.33  1.5443210E-02
   7106.67  1.6619665E-02
   7107.00  1.7978658E-02
   7107.33  1.9599389E-02
   7107.67  2.1522445E-02
   7108.00  2.3830683E-02
   7108.33  2.6728473E-02
   7108.67  3.0361974E-02
   7109.00  3.5008982E-02
   7109.33  4.1388082E-02
   7109.67  5.0241686E-02
   7110.00  6.3007550E-02
   7110.33  8.3784123E-02
   7110.67  1.1753382E-01
   7111.00  1.6972382E-01
   7111.33  2.3974698E-01
   7111.67  3.0290971E-01
   7112.00  3.4139001E-01
   7112.33  3.7366507E-01
   7112.67  4.1007315E-01
   7113.00  4.3713506E-01
   7113.33  4.3889779E-01
   7113.67  4.1784235E-01
   7114.00  3.7432917E-01
   7114.33  3.1807656E-01
   7114.67  2.7089972E-01
   7115.00  2.4482922E-01
   7115.33  2.4620711E-01
   7115.67  2.6117424E-01
   7116.00  2.6985475E-01
   7116.33  2.6003541E-01
   7116.67  2.4410765E-01
   7117.00  2.2790008E-01
   7117.33  2.1101599E-01
   7117.67  1.9567532E-01
   7118.00  1.8492112E-01
   7118.33  1.8058206E-01
   7118.67  1.8063883E-01
   7119.00  1.8291632E-01
   7119.33  1.8629519E-01
   7119.67  1.9220394E-01
   7120.00  2.0233308E-01
   7120.33  2.1752355E-01
   7120.67  2.3653624E-01
   7121.00  2.5878831E-01
   7121.33  2.8240197E-01
   7121.67  3.0194127E-01
   7122.00  3.1222507E-01
   7122.33  3.1103884E-01
   7122.67  3.0345241E-01
   7123.00  2.9216606E-01
   7123.33  2.7936945E-01
   7123.67  2.6893842E-01
   7124.00  2.6384091E-01
   7124.33  2.6588172E-01
   7124.67  2.7360849E-01
   7125.00  2.8642261E-01
   7125.33  3.0386076E-01
   7125.67  3.2281637E-01
   7126.00  3.3925050E-01
   7126.33  3.4716495E-01
   7126.67  3.4625098E-01
   7127.00  3.4030832E-01
   7127.33  3.3635777E-01
   7127.67  3.3846573E-01
   7128.00  3.4714285E-01
   7128.33  3.6167051E-01
   7128.67  3.7996323E-01
   7129.00  4.0135384E-01
   7129.33  4.2539595E-01
   7129.67  4.5013739E-01
   7130.00  4.7346477E-01
   7130.33  4.9326860E-01
   7130.67  5.1044294E-01
   7131.00  5.2687657E-01
   7131.33  5.4527116E-01
   7131.67  5.6736492E-01
   7132.00  5.9426261E-01
   7132.33  6.2686788E-01
   7132.67  6.6267423E-01
   7133.00  6.9749645E-01
   7133.33  7.2323399E-01
   7133.67  7.3534508E-01
   7134.00  7.3346915E-01
   7134.33  7.2062244E-01
   7134.67  7.0334063E-01
   7135.00  6.8470099E-01
   7135.33  6.6621816E-01
   7135.67  6.4798300E-01
   7136.00  6.2964035E-01
   7136.33  6.1067525E-01
   7136.67  5.9103753E-01
   7137.00  5.7110001E-01
   7137.33  5.5194748E-01
   7137.67  5.3475815E-01
   7138.00  5.2043947E-01
   7138.33  5.0993533E-01
   7138.67  5.0276162E-01
   7139.00  4.9860449E-01
   7139.33  4.9743414E-01
   7139.67  4.9876148E-01
   7140.00  5.0264455E-01
   7140.33  5.0963365E-01
   7140.67  5.1957073E-01
   7141.00  5.3243822E-01
   7141.33  5.4815792E-01
   7141.67  5.6557077E-01
   7142.00  5.8368333E-01
   7142.33  6.0116834E-01
   7142.67  6.1696619E-01
   7143.00  6.3033698E-01
   7143.33  6.4038342E-01
   7143.67  6.4730913E-01
   7144.00  6.5122106E-01
   7144.33  6.5212544E-01
   7144.67  6.5085386E-01
   7145.00  6.4790610E-01
   7145.33  6.4375946E-01
   7145.67  6.3913051E-01
   7146.00  6.3445164E-01
   7146.33  6.3013985E-01
   7146.67  6.2636271E-01
   7147.00  6.2316204E-01
   7147.33  6.2051529E-01
   7147.67  6.1818751E-01
   7148.00  6.1600788E-01
   7148.33  6.1379550E-01
   7148.67  6.1142338E-01
   7149.00  6.0882171E-01
   7149.33  6.0592502E-01
   7149.67  6.0277976E-01
   7150.00  5.9943336E-01
   7150.33  5.9595642E-01
   7150.67  5.9246377E-01
   7151.00  5.8905300E-01
   7151.33  5.8587115E-01
   7151.67  5.8301173E-01
   7152.00  5.8057005E-01
   7152.33  5.7870670E-01
   7152.67  5.7743070E-01
   7153.00  5.7678607E-01
   7153.33  5.7688949E-01
   7153.67  5.7767445E-01
   7154.00  5.7914088E-01
   7154.33  5.8136140E-01
   7154.67  5.8423230E-01
   7155.00  5.8772919E-01
   7155.33  5.9188613E-01
   7155.67  5.9657282E-01
   7156.00  6.0171902E-01
   7156.33  6.0725100E-01
   7156.67  6.1296282E-01
   7157.00  6.1867328E-01
   7157.33  6.2409418E-01
   7157.67  6.2896755E-01
   7158.00  6.3303623E-01
   7158.33  6.3588507E-01
   7158.67  6.3742192E-01
   7159.00  6.3751156E-01
   7159.33  6.3589026E-01
   7159.67  6.3277005E-01
   7160.00  6.2824099E-01
   7160.33  6.2232127E-01
   7160.67  6.1538875E-01
   7161.00  6.0765509E-01
   7161.33  5.9929929E-01
   7161.67  5.9062093E-01
   7162.00  5.8179192E-01
   7162.33  5.7297354E-01
   7162.67  5.6427733E-01
   7163.00  5.5576511E-01
   7163.33  5.4750217E-01
   7163.67  5.3947015E-01
   7164.00  5.3166350E-01
   7164.33  5.2409568E-01
   7164.67  5.1672691E-01
   7165.00  5.0954954E-01
   7165.33  5.0258925E-01
   7165.67  4.9583270E-01
   7166.00  4.8928748E-01
   7166.33  4.8298517E-01
   7166.67  4.7689754E-01
   7167.00  4.7101874E-01
   7167.33  4.6536315E-01
   7167.67  4.5989322E-01
   7168.00  4.5459779E-01
   7168.33  4.4948637E-01
   7168.67  4.4453143E-01
   7169.00  4.3973023E-01
   7169.33  4.3510032E-01
   7169.67  4.3062174E-01
   7170.00  4.2629489E-01
   7170.33  4.2214259E-01
   7170.67  4.1815670E-01
   7171.00  4.1436042E-01
   7171.33  4.1084516E-01
   7171.67  4.0770849E-01
   7172.00  4.0512950E-01
