    FDMNES
    energy     <xanes>
   7097.00  5.0497615E-03
   7097.33  5.1705223E-03
   7097.67  5.2968761E-03
   7098.00  5.4292110E-03
   7098.33  5.5688376E-03
   7098.67  5.7155046E-03
   7099.00  5.8697448E-03
   7099.33  6.0332843E-03
   7099.67  6.2058716E-03
   7100.00  6.3882584E-03
   7100.33  6.5827814E-03
   7100.67  6.7892195E-03
   7101.00  7.0086690E-03
   7101.33  7.2443972E-03
   7101.67  7.4962823E-03
   7102.00  7.7659866E-03
   7102.33  8.0582623E-03
   7102.67  8.3732395E-03
   7103.00  8.7135612E-03
   7103.33  9.0864810E-03
   7103.67  9.4927342E-03
   7104.00  9.9367754E-03
   7104.33  1.0430370E-02
   7104.67  1.0975719E-02
   7105.00  1.1580910E-02
   7105.33  1.2266581E-02
   7105.67  1.3038693E-02
   7106.00  1.3913424E-02
   7106.33  1.4930988E-02
   7106.67  1.6107996E-02
   7107.00  1.7481447E-02
   7107.33  1.9142104E-02
   7107.67  2.1142066E-02
   7108.00  2.3584039E-02
   7108.33  2.6723397E-02
   7108.67  3.0764911E-02
   7109.00  3.6094887E-02
   7109.33  4.3740239E-02
   7109.67  5.4894143E-02
   7110.00  7.1902697E-02
   7110.33  1.0144860E-01
   7110.67  1.4944225E-01
   7111.00  2.1205845E-01
   7111.33  2.6714332E-01
   7111.67  3.1704388E-01
   7112.00  3.5829528E-01
   7112.33  3.6546987E-01
   7112.67  3.4445545E-01
   7113.00  3.0872042E-01
   7113.33  2.6049472E-01
   7113.67  2.1538500E-01
   7114.00  1.8361565E-01
   7114.33  1.6796955E-01
   7114.67  1.6522807E-01
   7115.00  1.7496341E-01
   7115.33  1.9907559E-01
   7115.67  2.3427426E-01
   7116.00  2.7429159E-01
   7116.33  3.0807023E-01
   7116.67  3.3080243E-01
   7117.00  3.3980861E-01
   7117.33  3.2887072E-01
   7117.67  3.0261259E-01
   7118.00  2.6919507E-01
   7118.33  2.3728143E-01
   7118.67  2.1023815E-01
   7119.00  1.8843660E-01
   7119.33  1.7185273E-01
   7119.67  1.5907788E-01
   7120.00  1.4942128E-01
   7120.33  1.4251099E-01
   7120.67  1.3760887E-01
   7121.00  1.3457170E-01
   7121.33  1.3382354E-01
   7121.67  1.3572341E-01
   7122.00  1.4092364E-01
   7122.33  1.5029027E-01
   7122.67  1.6320279E-01
   7123.00  1.7915138E-01
   7123.33  1.9758001E-01
   7123.67  2.1736880E-01
   7124.00  2.3782039E-01
   7124.33  2.5772630E-01
   7124.67  2.7560084E-01
   7125.00  2.9071253E-01
   7125.33  3.0386571E-01
   7125.67  3.1766540E-01
   7126.00  3.3387301E-01
   7126.33  3.5319745E-01
   7126.67  3.7305548E-01
   7127.00  3.8992073E-01
   7127.33  4.0044511E-01
   7127.67  4.0715641E-01
   7128.00  4.1323039E-01
   7128.33  4.2040745E-01
   7128.67  4.2872820E-01
   7129.00  4.3896260E-01
   7129.33  4.5283203E-01
   7129.67  4.7053884E-01
   7130.00  4.9168430E-01
   7130.33  5.1535385E-01
   7130.67  5.4003480E-01
   7131.00  5.6499430E-01
   7131.33  5.8954366E-01
   7131.67  6.1302729E-01
   7132.00  6.3494444E-01
   7132.33  6.5525186E-01
   7132.67  6.7529615E-01
   7133.00  6.9631700E-01
   7133.33  7.1887953E-01
   7133.67  7.4193935E-01
   7134.00  7.6497073E-01
   7134.33  7.8784769E-01
   7134.67  8.0902590E-01
   7135.00  8.2560614E-01
   7135.33  8.3323942E-01
   7135.67  8.3135866E-01
   7136.00  8.2036801E-01
   7136.33  8.0115596E-01
   7136.67  7.7696173E-01
   7137.00  7.4971443E-01
   7137.33  7.2119731E-01
   7137.67  6.9307986E-01
   7138.00  6.6639105E-01
   7138.33  6.4236407E-01
   7138.67  6.2140952E-01
   7139.00  6.0395411E-01
   7139.33  5.9074263E-01
   7139.67  5.8136607E-01
   7140.00  5.7574419E-01
   7140.33  5.7409838E-01
   7140.67  5.7566026E-01
   7141.00  5.8008445E-01
   7141.33  5.8720192E-01
   7141.67  5.9617427E-01
   7142.00  6.0648105E-01
   7142.33  6.1754150E-01
   7142.67  6.2857721E-01
   7143.00  6.3901057E-01
   7143.33  6.4810371E-01
   7143.67  6.5556338E-01
   7144.00  6.6115181E-01
   7144.33  6.6450591E-01
   7144.67  6.6590525E-01
   7145.00  6.6546529E-01
   7145.33  6.6319406E-01
   7145.67  6.5956776E-01
   7146.00  6.5483716E-01
   7146.33  6.4917901E-01
   7146.67  6.4297597E-01
   7147.00  6.3646680E-01
   7147.33  6.2990160E-01
   7147.67  6.2349936E-01
   7148.00  6.1739731E-01
   7148.33  6.1174829E-01
   7148.67  6.0654680E-01
   7149.00  6.0179265E-01
   7149.33  5.9750461E-01
   7149.67  5.9357795E-01
   7150.00  5.8995834E-01
   7150.33  5.8660795E-01
   7150.67  5.8343271E-01
   7151.00  5.8038307E-01
   7151.33  5.7741806E-01
   7151.67  5.7449287E-01
   7152.00  5.7158966E-01
   7152.33  5.6867816E-01
   7152.67  5.6571728E-01
   7153.00  5.6267226E-01
   7153.33  5.5949537E-01
   7153.67  5.5617117E-01
   7154.00  5.5267668E-01
   7154.33  5.4896928E-01
   7154.67  5.4506667E-01
   7155.00  5.4097648E-01
   7155.33  5.3670375E-01
   7155.67  5.3231250E-01
   7156.00  5.2785355E-01
   7156.33  5.2339856E-01
   7156.67  5.1902726E-01
   7157.00  5.1481243E-01
   7157.33  5.1086864E-01
   7157.67  5.0724518E-01
   7158.00  5.0400383E-01
   7158.33  5.0126092E-01
   7158.67  4.9900656E-01
   7159.00  4.9726523E-01
   7159.33  4.9611114E-01
   7159.67  4.9546508E-01
   7160.00  4.9529601E-01
   7160.33  4.9559907E-01
   7160.67  4.9624430E-01
   7161.00  4.9715117E-01
   7161.33  4.9823588E-01
   7161.67  4.9937461E-01
   7162.00  5.0048299E-01
   7162.33  5.0145246E-01
   7162.67  5.0221105E-01
   7163.00  5.0269649E-01
   7163.33  5.0281606E-01
   7163.67  5.0257342E-01
   7164.00  5.0194532E-01
   7164.33  5.0086271E-01
   7164.67  4.9936568E-01
   7165.00  4.9745050E-01
   7165.33  4.9506610E-01
   7165.67  4.9227650E-01
   7166.00  4.8910151E-01
   7166.33  4.8552974E-01
   7166.67  4.8164729E-01
   7167.00  4.7749609E-01
   7167.33  4.7310332E-01
   7167.67  4.6855393E-01
   7168.00  4.6389890E-01
   7168.33  4.5918913E-01
   7168.67  4.5448332E-01
   7169.00  4.4982403E-01
   7169.33  4.4527101E-01
   7169.67  4.4085166E-01
   7170.00  4.3659312E-01
   7170.33  4.3254974E-01
   7170.67  4.2873221E-01
   7171.00  4.2517843E-01
   7171.33  4.2199284E-01
   7171.67  4.1923620E-01
   7172.00  4.1702867E-01
