    FDMNES
    energy     <xanes>
   7097.00  5.2282909E-03
   7097.33  5.3578091E-03
   7097.67  5.4934854E-03
   7098.00  5.6357529E-03
   7098.33  5.7860646E-03
   7098.67  5.9441518E-03
   7099.00  6.1106101E-03
   7099.33  6.2873583E-03
   7099.67  6.4741284E-03
   7100.00  6.6717620E-03
   7100.33  6.8828626E-03
   7100.67  7.1071975E-03
   7101.00  7.3459956E-03
   7101.33  7.6029051E-03
   7101.67  7.8778058E-03
   7102.00  8.1725631E-03
   7102.33  8.4924931E-03
   7102.67  8.8377611E-03
   7103.00  9.2113361E-03
   7103.33  9.6213477E-03
   7103.67  1.0068647E-02
   7104.00  1.0558248E-02
   7104.33  1.1103368E-02
   7104.67  1.1706529E-02
   7105.00  1.2376861E-02
   7105.33  1.3137648E-02
   7105.67  1.3995734E-02
   7106.00  1.4969517E-02
   7106.33  1.6104711E-02
   7106.67  1.7420633E-02
   7107.00  1.8959953E-02
   7107.33  2.0827512E-02
   7107.67  2.3085398E-02
   7108.00  2.5855442E-02
   7108.33  2.9442488E-02
   7108.67  3.4101883E-02
   7109.00  4.0317221E-02
   7109.33  4.9395332E-02
   7109.67  6.2938350E-02
   7110.00  8.4128926E-02
   7110.33  1.2196864E-01
   7110.67  1.8216821E-01
   7111.00  2.4767422E-01
   7111.33  2.7195577E-01
   7111.67  2.9276646E-01
   7112.00  3.3593696E-01
   7112.33  3.6193322E-01
   7112.67  3.4347751E-01
   7113.00  3.1456285E-01
   7113.33  2.8130288E-01
   7113.67  2.4227519E-01
   7114.00  2.2516647E-01
   7114.33  2.4363151E-01
   7114.67  2.9559824E-01
   7115.00  3.8464658E-01
   7115.33  4.7462933E-01
   7115.67  4.7982248E-01
   7116.00  4.2912693E-01
   7116.33  3.9937960E-01
   7116.67  3.7540101E-01
   7117.00  3.3248078E-01
   7117.33  2.8342725E-01
   7117.67  2.4946025E-01
   7118.00  2.3335168E-01
   7118.33  2.2874043E-01
   7118.67  2.2197726E-01
   7119.00  2.0722404E-01
   7119.33  1.8732258E-01
   7119.67  1.6814935E-01
   7120.00  1.5150427E-01
   7120.33  1.3816720E-01
   7120.67  1.2809159E-01
   7121.00  1.2162801E-01
   7121.33  1.1903339E-01
   7121.67  1.1903700E-01
   7122.00  1.2079471E-01
   7122.33  1.2334428E-01
   7122.67  1.2604195E-01
   7123.00  1.2952423E-01
   7123.33  1.3462050E-01
   7123.67  1.4119388E-01
   7124.00  1.4921952E-01
   7124.33  1.5892933E-01
   7124.67  1.7018518E-01
   7125.00  1.8294228E-01
   7125.33  1.9709274E-01
   7125.67  2.1202823E-01
   7126.00  2.2742361E-01
   7126.33  2.4324519E-01
   7126.67  2.5951309E-01
   7127.00  2.7612325E-01
   7127.33  2.9257203E-01
   7127.67  3.0815054E-01
   7128.00  3.2233758E-01
   7128.33  3.3468300E-01
   7128.67  3.4585223E-01
   7129.00  3.5687980E-01
   7129.33  3.6930258E-01
   7129.67  3.8429695E-01
   7130.00  4.0313174E-01
   7130.33  4.2803738E-01
   7130.67  4.5939192E-01
   7131.00  4.9707251E-01
   7131.33  5.3983083E-01
   7131.67  5.8351543E-01
   7132.00  6.2445872E-01
   7132.33  6.5875408E-01
   7132.67  6.8671290E-01
   7133.00  7.1025152E-01
   7133.33  7.3299740E-01
   7133.67  7.5892144E-01
   7134.00  7.9066370E-01
   7134.33  8.3119818E-01
   7134.67  8.8033996E-01
   7135.00  9.3676579E-01
   7135.33  9.9472133E-01
   7135.67  1.0429586E+00
   7136.00  1.0701387E+00
   7136.33  1.0633616E+00
   7136.67  1.0269989E+00
   7137.00  9.6872459E-01
   7137.33  8.9888319E-01
   7137.67  8.2838337E-01
   7138.00  7.6256380E-01
   7138.33  7.0581868E-01
   7138.67  6.5851986E-01
   7139.00  6.2088617E-01
   7139.33  5.9360789E-01
   7139.67  5.7454539E-01
   7140.00  5.6264502E-01
   7140.33  5.5734753E-01
   7140.67  5.5661927E-01
   7141.00  5.5937603E-01
   7141.33  5.6473525E-01
   7141.67  5.7140846E-01
   7142.00  5.7873349E-01
   7142.33  5.8622736E-01
   7142.67  5.9365406E-01
   7143.00  6.0100954E-01
   7143.33  6.0841948E-01
   7143.67  6.1603458E-01
   7144.00  6.2395837E-01
   7144.33  6.3227912E-01
   7144.67  6.4089907E-01
   7145.00  6.4969369E-01
   7145.33  6.5842842E-01
   7145.67  6.6681044E-01
   7146.00  6.7455013E-01
   7146.33  6.8119196E-01
   7146.67  6.8657540E-01
   7147.00  6.9052931E-01
   7147.33  6.9276365E-01
   7147.67  6.9347259E-01
   7148.00  6.9272265E-01
   7148.33  6.9047098E-01
   7148.67  6.8703159E-01
   7149.00  6.8253344E-01
   7149.33  6.7700523E-01
   7149.67  6.7069361E-01
   7150.00  6.6370378E-01
   7150.33  6.5608012E-01
   7150.67  6.4800201E-01
   7151.00  6.3955994E-01
   7151.33  6.3082382E-01
   7151.67  6.2192923E-01
   7152.00  6.1296659E-01
   7152.33  6.0404430E-01
   7152.67  5.9525565E-01
   7153.00  5.8667975E-01
   7153.33  5.7844826E-01
   7153.67  5.7062093E-01
   7154.00  5.6327279E-01
   7154.33  5.5655129E-01
   7154.67  5.5046278E-01
   7155.00  5.4506950E-01
   7155.33  5.4054072E-01
   7155.67  5.3684643E-01
   7156.00  5.3403339E-01
   7156.33  5.3225950E-01
   7156.67  5.3143368E-01
   7157.00  5.3155640E-01
   7157.33  5.3271153E-01
   7157.67  5.3471426E-01
   7158.00  5.3747120E-01
   7158.33  5.4091277E-01
   7158.67  5.4478461E-01
   7159.00  5.4891734E-01
   7159.33  5.5311735E-01
   7159.67  5.5718741E-01
   7160.00  5.6098334E-01
   7160.33  5.6431419E-01
   7160.67  5.6712515E-01
   7161.00  5.6934927E-01
   7161.33  5.7085277E-01
   7161.67  5.7168224E-01
   7162.00  5.7182056E-01
   7162.33  5.7116884E-01
   7162.67  5.6980922E-01
   7163.00  5.6773842E-01
   7163.33  5.6486422E-01
   7163.67  5.6128114E-01
   7164.00  5.5699942E-01
   7164.33  5.5194902E-01
   7164.67  5.4623802E-01
   7165.00  5.3989623E-01
   7165.33  5.3290064E-01
   7165.67  5.2538743E-01
   7166.00  5.1742092E-01
   7166.33  5.0903871E-01
   7166.67  5.0037875E-01
   7167.00  4.9152089E-01
   7167.33  4.8253878E-01
   7167.67  4.7352911E-01
   7168.00  4.6456023E-01
   7168.33  4.5572081E-01
   7168.67  4.4706480E-01
   7169.00  4.3864740E-01
   7169.33  4.3056651E-01
   7169.67  4.2284046E-01
   7170.00  4.1551326E-01
   7170.33  4.0869011E-01
   7170.67  4.0236713E-01
   7171.00  3.9659724E-01
   7171.33  3.9153854E-01
   7171.67  3.8723084E-01
   7172.00  3.8381011E-01
