    FDMNES
    energy     <xanes>
   7097.00  5.5037677E-03
   7097.33  5.6491112E-03
   7097.67  5.8016323E-03
   7098.00  5.9618400E-03
   7098.33  6.1314329E-03
   7098.67  6.3101000E-03
   7099.00  6.4985369E-03
   7099.33  6.6989813E-03
   7099.67  6.9111155E-03
   7100.00  7.1359140E-03
   7100.33  7.3763960E-03
   7100.67  7.6322689E-03
   7101.00  7.9049364E-03
   7101.33  8.1985878E-03
   7101.67  8.5130257E-03
   7102.00  8.8503394E-03
   7102.33  9.2165366E-03
   7102.67  9.6116668E-03
   7103.00  1.0038963E-02
   7103.33  1.0507389E-02
   7103.67  1.1017576E-02
   7104.00  1.1574768E-02
   7104.33  1.2193002E-02
   7104.67  1.2874261E-02
   7105.00  1.3627562E-02
   7105.33  1.4476264E-02
   7105.67  1.5425588E-02
   7106.00  1.6492248E-02
   7106.33  1.7718303E-02
   7106.67  1.9117311E-02
   7107.00  2.0723501E-02
   7107.33  2.2621235E-02
   7107.67  2.4848260E-02
   7108.00  2.7485477E-02
   7108.33  3.0731314E-02
   7108.67  3.4709189E-02
   7109.00  3.9659285E-02
   7109.33  4.6190565E-02
   7109.67  5.4856834E-02
   7110.00  6.6726008E-02
   7110.33  8.4726035E-02
   7110.67  1.1175619E-01
   7111.00  1.4931101E-01
   7111.33  1.9373538E-01
   7111.67  2.5357309E-01
   7112.00  3.5069879E-01
   7112.33  5.1287616E-01
   7112.67  7.0489125E-01
   7113.00  8.3433356E-01
   7113.33  8.5183612E-01
   7113.67  8.1546894E-01
   7114.00  7.4283983E-01
   7114.33  6.2785269E-01
   7114.67  5.0309970E-01
   7115.00  3.9861392E-01
   7115.33  3.2566543E-01
   7115.67  2.7419756E-01
   7116.00  2.3787924E-01
   7116.33  2.1269332E-01
   7116.67  1.9426294E-01
   7117.00  1.8117145E-01
   7117.33  1.7259479E-01
   7117.67  1.6571712E-01
   7118.00  1.5809419E-01
   7118.33  1.4870609E-01
   7118.67  1.3893867E-01
   7119.00  1.2964703E-01
   7119.33  1.2132757E-01
   7119.67  1.1438382E-01
   7120.00  1.0959542E-01
   7120.33  1.0792692E-01
   7120.67  1.0863486E-01
   7121.00  1.1073864E-01
   7121.33  1.1343806E-01
   7121.67  1.1634721E-01
   7122.00  1.1908365E-01
   7122.33  1.2074131E-01
   7122.67  1.2096116E-01
   7123.00  1.2034539E-01
   7123.33  1.2030218E-01
   7123.67  1.2135266E-01
   7124.00  1.2333292E-01
   7124.33  1.2595770E-01
   7124.67  1.2888387E-01
   7125.00  1.3199474E-01
   7125.33  1.3540767E-01
   7125.67  1.3940657E-01
   7126.00  1.4421621E-01
   7126.33  1.5000766E-01
   7126.67  1.5677864E-01
   7127.00  1.6479519E-01
   7127.33  1.7464394E-01
   7127.67  1.8625600E-01
   7128.00  1.9933027E-01
   7128.33  2.1348840E-01
   7128.67  2.2900923E-01
   7129.00  2.4732470E-01
   7129.33  2.7133234E-01
   7129.67  3.0271457E-01
   7130.00  3.4350627E-01
   7130.33  3.9776086E-01
   7130.67  4.6633238E-01
   7131.00  5.5013492E-01
   7131.33  6.4886942E-01
   7131.67  7.5472266E-01
   7132.00  8.6092804E-01
   7132.33  9.6257488E-01
   7132.67  1.0604860E+00
   7133.00  1.1542546E+00
   7133.33  1.2352181E+00
   7133.67  1.2890441E+00
   7134.00  1.3015008E+00
   7134.33  1.2632381E+00
   7134.67  1.1928952E+00
   7135.00  1.1057390E+00
   7135.33  1.0137075E+00
   7135.67  9.2326050E-01
   7136.00  8.3673927E-01
   7136.33  7.5669675E-01
   7136.67  6.8393376E-01
   7137.00  6.1942169E-01
   7137.33  5.6485390E-01
   7137.67  5.1917766E-01
   7138.00  4.8214019E-01
   7138.33  4.5427548E-01
   7138.67  4.3398711E-01
   7139.00  4.2075057E-01
   7139.33  4.1472380E-01
   7139.67  4.1441061E-01
   7140.00  4.1915843E-01
   7140.33  4.2867390E-01
   7140.67  4.4157535E-01
   7141.00  4.5714384E-01
   7141.33  4.7483244E-01
   7141.67  4.9372383E-01
   7142.00  5.1332687E-01
   7142.33  5.3318772E-01
   7142.67  5.5284951E-01
   7143.00  5.7196503E-01
   7143.33  5.9004575E-01
   7143.67  6.0689239E-01
   7144.00  6.2229888E-01
   7144.33  6.3590502E-01
   7144.67  6.4782829E-01
   7145.00  6.5804842E-01
   7145.33  6.6637657E-01
   7145.67  6.7307835E-01
   7146.00  6.7821882E-01
   7146.33  6.8170250E-01
   7146.67  6.8380998E-01
   7147.00  6.8462906E-01
   7147.33  6.8412165E-01
   7147.67  6.8254355E-01
   7148.00  6.7997739E-01
   7148.33  6.7640570E-01
   7148.67  6.7204463E-01
   7149.00  6.6699622E-01
   7149.33  6.6132661E-01
   7149.67  6.5524433E-01
   7150.00  6.4887068E-01
   7150.33  6.4233229E-01
   7150.67  6.3579030E-01
   7151.00  6.2936165E-01
   7151.33  6.2320347E-01
   7151.67  6.1740075E-01
   7152.00  6.1204073E-01
   7152.33  6.0727564E-01
   7152.67  6.0310786E-01
   7153.00  5.9958149E-01
   7153.33  5.9681452E-01
   7153.67  5.9473674E-01
   7154.00  5.9334510E-01
   7154.33  5.9270134E-01
   7154.67  5.9268282E-01
   7155.00  5.9324252E-01
   7155.33  5.9437569E-01
   7155.67  5.9593617E-01
   7156.00  5.9784244E-01
   7156.33  6.0002097E-01
   7156.67  6.0233298E-01
   7157.00  6.0468466E-01
   7157.33  6.0696116E-01
   7157.67  6.0907040E-01
   7158.00  6.1093308E-01
   7158.33  6.1242573E-01
   7158.67  6.1351872E-01
   7159.00  6.1416259E-01
   7159.33  6.1425289E-01
   7159.67  6.1382188E-01
   7160.00  6.1285392E-01
   7160.33  6.1127118E-01
   7160.67  6.0913795E-01
   7161.00  6.0645193E-01
   7161.33  6.0313946E-01
   7161.67  5.9926090E-01
   7162.00  5.9480088E-01
   7162.33  5.8965664E-01
   7162.67  5.8386948E-01
   7163.00  5.7740254E-01
   7163.33  5.7011477E-01
   7163.67  5.6204708E-01
   7164.00  5.5316347E-01
   7164.33  5.4333366E-01
   7164.67  5.3267143E-01
   7165.00  5.2122391E-01
   7165.33  5.0900812E-01
   7165.67  4.9625969E-01
   7166.00  4.8313985E-01
   7166.33  4.6984008E-01
   7166.67  4.5659919E-01
   7167.00  4.4359744E-01
   7167.33  4.3107653E-01
   7167.67  4.1913908E-01
   7168.00  4.0789133E-01
   7168.33  3.9752154E-01
   7168.67  3.8798667E-01
   7169.00  3.7930929E-01
   7169.33  3.7160184E-01
   7169.67  3.6474497E-01
   7170.00  3.5872032E-01
   7170.33  3.5359786E-01
   7170.67  3.4923790E-01
   7171.00  3.4559973E-01
   7171.33  3.4271131E-01
   7171.67  3.4042383E-01
   7172.00  3.3866717E-01
