    FDMNES
    energy     <xanes>
   7097.00  5.2518177E-03
   7097.33  5.3791951E-03
   7097.67  5.5124284E-03
   7098.00  5.6519119E-03
   7098.33  5.7989960E-03
   7098.67  5.9533988E-03
   7099.00  6.1156533E-03
   7099.33  6.2875166E-03
   7099.67  6.4686938E-03
   7100.00  6.6599230E-03
   7100.33  6.8635442E-03
   7100.67  7.0792703E-03
   7101.00  7.3081519E-03
   7101.33  7.5533912E-03
   7101.67  7.8147550E-03
   7102.00  8.0937876E-03
   7102.33  8.3950150E-03
   7102.67  8.7183588E-03
   7103.00  9.0661779E-03
   7103.33  9.4451211E-03
   7103.67  9.8554897E-03
   7104.00  1.0301057E-02
   7104.33  1.0792066E-02
   7104.67  1.1329711E-02
   7105.00  1.1920387E-02
   7105.33  1.2580847E-02
   7105.67  1.3314436E-02
   7106.00  1.4132821E-02
   7106.33  1.5065627E-02
   7106.67  1.6121735E-02
   7107.00  1.7324667E-02
   7107.33  1.8732754E-02
   7107.67  2.0370919E-02
   7108.00  2.2293964E-02
   7108.33  2.4636791E-02
   7108.67  2.7481231E-02
   7109.00  3.0988455E-02
   7109.33  3.5568045E-02
   7109.67  4.1590036E-02
   7110.00  4.9772222E-02
   7110.33  6.2100655E-02
   7110.67  8.0697557E-02
   7111.00  1.0747005E-01
   7111.33  1.4133156E-01
   7111.67  1.7694524E-01
   7112.00  2.1755241E-01
   7112.33  2.8180413E-01
   7112.67  3.7891749E-01
   7113.00  5.0749159E-01
   7113.33  6.4762092E-01
   7113.67  7.4307134E-01
   7114.00  7.2941724E-01
   7114.33  6.0099542E-01
   7114.67  4.6416805E-01
   7115.00  3.6097948E-01
   7115.33  2.9505561E-01
   7115.67  2.5129041E-01
   7116.00  2.2280431E-01
   7116.33  2.0623697E-01
   7116.67  1.9762573E-01
   7117.00  1.9435384E-01
   7117.33  1.9121638E-01
   7117.67  1.8398580E-01
   7118.00  1.7259714E-01
   7118.33  1.5950482E-01
   7118.67  1.4775480E-01
   7119.00  1.3850758E-01
   7119.33  1.3193626E-01
   7119.67  1.2701367E-01
   7120.00  1.2324787E-01
   7120.33  1.2055102E-01
   7120.67  1.1880581E-01
   7121.00  1.1796165E-01
   7121.33  1.1796056E-01
   7121.67  1.1874586E-01
   7122.00  1.2048794E-01
   7122.33  1.2331695E-01
   7122.67  1.2696521E-01
   7123.00  1.3135636E-01
   7123.33  1.3662633E-01
   7123.67  1.4283522E-01
   7124.00  1.5019818E-01
   7124.33  1.5924168E-01
   7124.67  1.7020603E-01
   7125.00  1.8348732E-01
   7125.33  1.9974936E-01
   7125.67  2.1852582E-01
   7126.00  2.3910402E-01
   7126.33  2.6029179E-01
   7126.67  2.8120768E-01
   7127.00  3.0204506E-01
   7127.33  3.2386002E-01
   7127.67  3.4746872E-01
   7128.00  3.7335116E-01
   7128.33  4.0211516E-01
   7128.67  4.3364695E-01
   7129.00  4.6831989E-01
   7129.33  5.0768357E-01
   7129.67  5.5236943E-01
   7130.00  6.0227223E-01
   7130.33  6.5578087E-01
   7130.67  7.0971296E-01
   7131.00  7.6251268E-01
   7131.33  8.1387054E-01
   7131.67  8.6487119E-01
   7132.00  9.1618895E-01
   7132.33  9.6747622E-01
   7132.67  1.0164780E+00
   7133.00  1.0594796E+00
   7133.33  1.0891179E+00
   7133.67  1.1011557E+00
   7134.00  1.0928042E+00
   7134.33  1.0623386E+00
   7134.67  1.0166137E+00
   7135.00  9.6070396E-01
   7135.33  8.9956300E-01
   7135.67  8.3794551E-01
   7136.00  7.7825598E-01
   7136.33  7.2270833E-01
   7136.67  6.7187572E-01
   7137.00  6.2631864E-01
   7137.33  5.8716737E-01
   7137.67  5.5395624E-01
   7138.00  5.2678264E-01
   7138.33  5.0629860E-01
   7138.67  4.9135880E-01
   7139.00  4.8135198E-01
   7139.33  4.7584524E-01
   7139.67  4.7335759E-01
   7140.00  4.7316050E-01
   7140.33  4.7484337E-01
   7140.67  4.7782168E-01
   7141.00  4.8191689E-01
   7141.33  4.8713643E-01
   7141.67  4.9327191E-01
   7142.00  5.0024625E-01
   7142.33  5.0803387E-01
   7142.67  5.1639289E-01
   7143.00  5.2516556E-01
   7143.33  5.3416780E-01
   7143.67  5.4314396E-01
   7144.00  5.5189105E-01
   7144.33  5.6012979E-01
   7144.67  5.6772217E-01
   7145.00  5.7453059E-01
   7145.33  5.8032120E-01
   7145.67  5.8513040E-01
   7146.00  5.8892609E-01
   7146.33  5.9157961E-01
   7146.67  5.9324894E-01
   7147.00  5.9398194E-01
   7147.33  5.9374614E-01
   7147.67  5.9273986E-01
   7148.00  5.9104980E-01
   7148.33  5.8871241E-01
   7148.67  5.8591321E-01
   7149.00  5.8275173E-01
   7149.33  5.7931277E-01
   7149.67  5.7573983E-01
   7150.00  5.7212625E-01
   7150.33  5.6858831E-01
   7150.67  5.6522256E-01
   7151.00  5.6210944E-01
   7151.33  5.5937429E-01
   7151.67  5.5704926E-01
   7152.00  5.5519077E-01
   7152.33  5.5392071E-01
   7152.67  5.5321942E-01
   7153.00  5.5311553E-01
   7153.33  5.5370356E-01
   7153.67  5.5490371E-01
   7154.00  5.5669405E-01
   7154.33  5.5909094E-01
   7154.67  5.6194770E-01
   7155.00  5.6517506E-01
   7155.33  5.6867958E-01
   7155.67  5.7229172E-01
   7156.00  5.7588833E-01
   7156.33  5.7931198E-01
   7156.67  5.8245862E-01
   7157.00  5.8523994E-01
   7157.33  5.8752201E-01
   7157.67  5.8930900E-01
   7158.00  5.9057702E-01
   7158.33  5.9125129E-01
   7158.67  5.9140381E-01
   7159.00  5.9104834E-01
   7159.33  5.9014624E-01
   7159.67  5.8878281E-01
   7160.00  5.8697859E-01
   7160.33  5.8470264E-01
   7160.67  5.8202583E-01
   7161.00  5.7896118E-01
   7161.33  5.7547392E-01
   7161.67  5.7162359E-01
   7162.00  5.6742375E-01
   7162.33  5.6284960E-01
   7162.67  5.5795645E-01
   7163.00  5.5275983E-01
   7163.33  5.4725205E-01
   7163.67  5.4149914E-01
   7164.00  5.3553023E-01
   7164.33  5.2935808E-01
   7164.67  5.2304122E-01
   7165.00  5.1661172E-01
   7165.33  5.1009844E-01
   7165.67  5.0354870E-01
   7166.00  4.9699542E-01
   7166.33  4.9047997E-01
   7166.67  4.8403246E-01
   7167.00  4.7768066E-01
   7167.33  4.7147112E-01
   7167.67  4.6541659E-01
   7168.00  4.5953986E-01
   7168.33  4.5389192E-01
   7168.67  4.4847279E-01
   7169.00  4.4330317E-01
   7169.33  4.3843862E-01
   7169.67  4.3386296E-01
   7170.00  4.2958846E-01
   7170.33  4.2566964E-01
   7170.67  4.2208334E-01
   7171.00  4.1884592E-01
   7171.33  4.1603236E-01
   7171.67  4.1364498E-01
   7172.00  4.1174534E-01
