    FDMNES
    energy     <xanes>
   7097.00  4.5675912E-03
   7097.33  4.6702104E-03
   7097.67  4.7775297E-03
   7098.00  4.8898803E-03
   7098.33  5.0083726E-03
   7098.67  5.1328040E-03
   7099.00  5.2636322E-03
   7099.33  5.4023291E-03
   7099.67  5.5486964E-03
   7100.00  5.7033857E-03
   7100.33  5.8684044E-03
   7100.67  6.0435885E-03
   7101.00  6.2298981E-03
   7101.33  6.4301654E-03
   7101.67  6.6443277E-03
   7102.00  6.8738568E-03
   7102.33  7.1229179E-03
   7102.67  7.3916971E-03
   7103.00  7.6825650E-03
   7103.33  8.0019648E-03
   7103.67  8.3506741E-03
   7104.00  8.7327497E-03
   7104.33  9.1588114E-03
   7104.67  9.6310745E-03
   7105.00  1.0157036E-02
   7105.33  1.0755693E-02
   7105.67  1.1432979E-02
   7106.00  1.2204224E-02
   7106.33  1.3107325E-02
   7106.67  1.4158941E-02
   7107.00  1.5395055E-02
   7107.33  1.6903766E-02
   7107.67  1.8738246E-02
   7108.00  2.1001648E-02
   7108.33  2.3950995E-02
   7108.67  2.7800726E-02
   7109.00  3.2953371E-02
   7109.33  4.0484901E-02
   7109.67  5.1679167E-02
   7110.00  6.9071961E-02
   7110.33  1.0009518E-01
   7110.67  1.5311796E-01
   7111.00  2.2995644E-01
   7111.33  2.8839875E-01
   7111.67  2.7887627E-01
   7112.00  2.3553234E-01
   7112.33  2.1707385E-01
   7112.67  2.3235424E-01
   7113.00  2.7138031E-01
   7113.33  2.8655343E-01
   7113.67  2.5388932E-01
   7114.00  2.0823336E-01
   7114.33  1.8090504E-01
   7114.67  1.6486296E-01
   7115.00  1.5178334E-01
   7115.33  1.4406423E-01
   7115.67  1.4475083E-01
   7116.00  1.4889167E-01
   7116.33  1.4506450E-01
   7116.67  1.3506648E-01
   7117.00  1.2559773E-01
   7117.33  1.2061917E-01
   7117.67  1.1926429E-01
   7118.00  1.2007681E-01
   7118.33  1.2147589E-01
   7118.67  1.2320098E-01
   7119.00  1.2588664E-01
   7119.33  1.3044195E-01
   7119.67  1.3713012E-01
   7120.00  1.4577493E-01
   7120.33  1.5456628E-01
   7120.67  1.6081377E-01
   7121.00  1.6424490E-01
   7121.33  1.6659356E-01
   7121.67  1.6912765E-01
   7122.00  1.7185362E-01
   7122.33  1.7476454E-01
   7122.67  1.7831772E-01
   7123.00  1.8307165E-01
   7123.33  1.8971867E-01
   7123.67  1.9824229E-01
   7124.00  2.0843152E-01
   7124.33  2.1956672E-01
   7124.67  2.3038608E-01
   7125.00  2.4019766E-01
   7125.33  2.4896129E-01
   7125.67  2.5757694E-01
   7126.00  2.6654466E-01
   7126.33  2.7526194E-01
   7126.67  2.8211977E-01
   7127.00  2.8641860E-01
   7127.33  2.8955365E-01
   7127.67  2.9411720E-01
   7128.00  3.0116685E-01
   7128.33  3.1084855E-01
   7128.67  3.2208025E-01
   7129.00  3.3407405E-01
   7129.33  3.4587238E-01
   7129.67  3.5665936E-01
   7130.00  3.6596275E-01
   7130.33  3.7356520E-01
   7130.67  3.8025190E-01
   7131.00  3.8684113E-01
   7131.33  3.9437931E-01
   7131.67  4.0345669E-01
   7132.00  4.1445817E-01
   7132.33  4.2794583E-01
   7132.67  4.4380799E-01
   7133.00  4.6205937E-01
   7133.33  4.8266459E-01
   7133.67  5.0448281E-01
   7134.00  5.2620803E-01
   7134.33  5.4564347E-01
   7134.67  5.6117060E-01
   7135.00  5.7170183E-01
   7135.33  5.7625990E-01
   7135.67  5.7618529E-01
   7136.00  5.7261908E-01
   7136.33  5.6696685E-01
   7136.67  5.6109239E-01
   7137.00  5.5616755E-01
   7137.33  5.5335479E-01
   7137.67  5.5282945E-01
   7138.00  5.5458036E-01
   7138.33  5.5854415E-01
   7138.67  5.6399137E-01
   7139.00  5.7046884E-01
   7139.33  5.7755659E-01
   7139.67  5.8479043E-01
   7140.00  5.9192093E-01
   7140.33  5.9872730E-01
   7140.67  6.0515898E-01
   7141.00  6.1120422E-01
   7141.33  6.1686353E-01
   7141.67  6.2227199E-01
   7142.00  6.2753978E-01
   7142.33  6.3282343E-01
   7142.67  6.3828677E-01
   7143.00  6.4406331E-01
   7143.33  6.5033583E-01
   7143.67  6.5713427E-01
   7144.00  6.6449553E-01
   7144.33  6.7250147E-01
   7144.67  6.8106879E-01
   7145.00  6.9017735E-01
   7145.33  6.9985718E-01
   7145.67  7.0999925E-01
   7146.00  7.2055306E-01
   7146.33  7.3147688E-01
   7146.67  7.4260512E-01
   7147.00  7.5378899E-01
   7147.33  7.6478290E-01
   7147.67  7.7533393E-01
   7148.00  7.8517670E-01
   7148.33  7.9385422E-01
   7148.67  8.0116884E-01
   7149.00  8.0685708E-01
   7149.33  8.1041636E-01
   7149.67  8.1187986E-01
   7150.00  8.1113357E-01
   7150.33  8.0783932E-01
   7150.67  8.0231439E-01
   7151.00  7.9465806E-01
   7151.33  7.8480725E-01
   7151.67  7.7325211E-01
   7152.00  7.6024176E-01
   7152.33  7.4593767E-01
   7152.67  7.3079508E-01
   7153.00  7.1508428E-01
   7153.33  6.9908732E-01
   7153.67  6.8312860E-01
   7154.00  6.6742819E-01
   7154.33  6.5225931E-01
   7154.67  6.3773244E-01
   7155.00  6.2395970E-01
   7155.33  6.1114107E-01
   7155.67  5.9923066E-01
   7156.00  5.8825854E-01
   7156.33  5.7835816E-01
   7156.67  5.6940904E-01
   7157.00  5.6140226E-01
   7157.33  5.5443772E-01
   7157.67  5.4838120E-01
   7158.00  5.4321675E-01
   7158.33  5.3903579E-01
   7158.67  5.3571223E-01
   7159.00  5.3323130E-01
   7159.33  5.3167414E-01
   7159.67  5.3090638E-01
   7160.00  5.3088887E-01
   7160.33  5.3164695E-01
   7160.67  5.3301503E-01
   7161.00  5.3490968E-01
   7161.33  5.3726962E-01
   7161.67  5.3991471E-01
   7162.00  5.4272236E-01
   7162.33  5.4555383E-01
   7162.67  5.4828476E-01
   7163.00  5.5082578E-01
   7163.33  5.5305881E-01
   7163.67  5.5495690E-01
   7164.00  5.5648097E-01
   7164.33  5.5754892E-01
   7164.67  5.5819322E-01
   7165.00  5.5840561E-01
   7165.33  5.5812679E-01
   7165.67  5.5740863E-01
   7166.00  5.5624848E-01
   7166.33  5.5458573E-01
   7166.67  5.5247185E-01
   7167.00  5.4991244E-01
   7167.33  5.4687085E-01
   7167.67  5.4341690E-01
   7168.00  5.3957064E-01
   7168.33  5.3532599E-01
   7168.67  5.3078224E-01
   7169.00  5.2599907E-01
   7169.33  5.2103754E-01
   7169.67  5.1600723E-01
   7170.00  5.1098934E-01
   7170.33  5.0609329E-01
   7170.67  5.0140189E-01
   7171.00  4.9699983E-01
   7171.33  4.9304661E-01
   7171.67  4.8963582E-01
   7172.00  4.8692243E-01
