    FDMNES
    energy     <xanes>
   7097.00  5.1304009E-03
   7097.33  5.2476038E-03
   7097.67  5.3699901E-03
   7098.00  5.4979038E-03
   7098.33  5.6325335E-03
   7098.67  5.7736249E-03
   7099.00  5.9216445E-03
   7099.33  6.0781386E-03
   7099.67  6.2428441E-03
   7100.00  6.4164102E-03
   7100.33  6.6009001E-03
   7100.67  6.7960630E-03
   7101.00  7.0028306E-03
   7101.33  7.2240391E-03
   7101.67  7.4594985E-03
   7102.00  7.7105939E-03
   7102.33  7.9813678E-03
   7102.67  8.2717976E-03
   7103.00  8.5840339E-03
   7103.33  8.9240978E-03
   7103.67  9.2923766E-03
   7104.00  9.6923924E-03
   7104.33  1.0133620E-02
   7104.67  1.0617434E-02
   7105.00  1.1150006E-02
   7105.33  1.1747334E-02
   7105.67  1.2413267E-02
   7106.00  1.3159610E-02
   7106.33  1.4016050E-02
   7106.67  1.4993179E-02
   7107.00  1.6116482E-02
   7107.33  1.7448807E-02
   7107.67  1.9022021E-02
   7108.00  2.0901712E-02
   7108.33  2.3250171E-02
   7108.67  2.6184077E-02
   7109.00  2.9926359E-02
   7109.33  3.5057764E-02
   7109.67  4.2192165E-02
   7110.00  5.2528016E-02
   7110.33  6.9501393E-02
   7110.67  9.7085642E-02
   7111.00  1.3815585E-01
   7111.33  1.8408043E-01
   7111.67  2.1753513E-01
   7112.00  2.4166808E-01
   7112.33  2.6936218E-01
   7112.67  3.0863203E-01
   7113.00  3.5771399E-01
   7113.33  3.8852464E-01
   7113.67  3.9520257E-01
   7114.00  3.8003557E-01
   7114.33  3.4038504E-01
   7114.67  2.9529805E-01
   7115.00  2.5809132E-01
   7115.33  2.3445246E-01
   7115.67  2.2086785E-01
   7116.00  2.1486444E-01
   7116.33  2.1459723E-01
   7116.67  2.1511298E-01
   7117.00  2.1054241E-01
   7117.33  1.9716790E-01
   7117.67  1.8108754E-01
   7118.00  1.6730330E-01
   7118.33  1.5835855E-01
   7118.67  1.5299431E-01
   7119.00  1.4989216E-01
   7119.33  1.4766930E-01
   7119.67  1.4527959E-01
   7120.00  1.4249387E-01
   7120.33  1.3954471E-01
   7120.67  1.3695695E-01
   7121.00  1.3525000E-01
   7121.33  1.3524424E-01
   7121.67  1.3729278E-01
   7122.00  1.4173230E-01
   7122.33  1.4909128E-01
   7122.67  1.5904249E-01
   7123.00  1.7147507E-01
   7123.33  1.8642354E-01
   7123.67  2.0308565E-01
   7124.00  2.2073527E-01
   7124.33  2.3859846E-01
   7124.67  2.5662036E-01
   7125.00  2.7548739E-01
   7125.33  2.9604550E-01
   7125.67  3.1768078E-01
   7126.00  3.3934834E-01
   7126.33  3.6002317E-01
   7126.67  3.7997900E-01
   7127.00  4.0002608E-01
   7127.33  4.2124567E-01
   7127.67  4.4404541E-01
   7128.00  4.6870715E-01
   7128.33  4.9595808E-01
   7128.67  5.2621353E-01
   7129.00  5.6022134E-01
   7129.33  5.9919380E-01
   7129.67  6.4244983E-01
   7130.00  6.8917109E-01
   7130.33  7.3800785E-01
   7130.67  7.8661261E-01
   7131.00  8.3309106E-01
   7131.33  8.7515666E-01
   7131.67  9.1227097E-01
   7132.00  9.4416085E-01
   7132.33  9.7017733E-01
   7132.67  9.9074070E-01
   7133.00  1.0051740E+00
   7133.33  1.0113756E+00
   7133.67  1.0092600E+00
   7134.00  9.9863625E-01
   7134.33  9.7932269E-01
   7134.67  9.5386391E-01
   7135.00  9.2382997E-01
   7135.33  8.9050823E-01
   7135.67  8.5552929E-01
   7136.00  8.1966935E-01
   7136.33  7.8354918E-01
   7136.67  7.4770645E-01
   7137.00  7.1254141E-01
   7137.33  6.7864643E-01
   7137.67  6.4636244E-01
   7138.00  6.1615588E-01
   7138.33  5.8891868E-01
   7138.67  5.6482011E-01
   7139.00  5.4416632E-01
   7139.33  5.2755125E-01
   7139.67  5.1442819E-01
   7140.00  5.0455283E-01
   7140.33  4.9788911E-01
   7140.67  4.9365875E-01
   7141.00  4.9152853E-01
   7141.33  4.9138568E-01
   7141.67  4.9271759E-01
   7142.00  4.9528389E-01
   7142.33  4.9890542E-01
   7142.67  5.0313000E-01
   7143.00  5.0763605E-01
   7143.33  5.1200905E-01
   7143.67  5.1586426E-01
   7144.00  5.1889023E-01
   7144.33  5.2066682E-01
   7144.67  5.2117401E-01
   7145.00  5.2038491E-01
   7145.33  5.1823510E-01
   7145.67  5.1506047E-01
   7146.00  5.1106709E-01
   7146.33  5.0644366E-01
   7146.67  5.0150874E-01
   7147.00  4.9645230E-01
   7147.33  4.9146913E-01
   7147.67  4.8670125E-01
   7148.00  4.8225228E-01
   7148.33  4.7827145E-01
   7148.67  4.7478636E-01
   7149.00  4.7185738E-01
   7149.33  4.6962672E-01
   7149.67  4.6807573E-01
   7150.00  4.6724503E-01
   7150.33  4.6726179E-01
   7150.67  4.6805831E-01
   7151.00  4.6964613E-01
   7151.33  4.7211245E-01
   7151.67  4.7531871E-01
   7152.00  4.7920345E-01
   7152.33  4.8373673E-01
   7152.67  4.8871457E-01
   7153.00  4.9400363E-01
   7153.33  4.9944926E-01
   7153.67  5.0485322E-01
   7154.00  5.1006159E-01
   7154.33  5.1486029E-01
   7154.67  5.1914634E-01
   7155.00  5.2281454E-01
   7155.33  5.2568617E-01
   7155.67  5.2779870E-01
   7156.00  5.2914148E-01
   7156.33  5.2964788E-01
   7156.67  5.2947541E-01
   7157.00  5.2870512E-01
   7157.33  5.2739277E-01
   7157.67  5.2572758E-01
   7158.00  5.2382300E-01
   7158.33  5.2179238E-01
   7158.67  5.1976463E-01
   7159.00  5.1782396E-01
   7159.33  5.1606928E-01
   7159.67  5.1453617E-01
   7160.00  5.1325645E-01
   7160.33  5.1228437E-01
   7160.67  5.1159022E-01
   7161.00  5.1116761E-01
   7161.33  5.1103176E-01
   7161.67  5.1112650E-01
   7162.00  5.1142616E-01
   7162.33  5.1191909E-01
   7162.67  5.1254937E-01
   7163.00  5.1328699E-01
   7163.33  5.1410488E-01
   7163.67  5.1495393E-01
   7164.00  5.1580164E-01
   7164.33  5.1661263E-01
   7164.67  5.1736209E-01
   7165.00  5.1802590E-01
   7165.33  5.1856415E-01
   7165.67  5.1896820E-01
   7166.00  5.1922104E-01
   7166.33  5.1928390E-01
   7166.67  5.1916319E-01
   7167.00  5.1884961E-01
   7167.33  5.1831117E-01
   7167.67  5.1756934E-01
   7168.00  5.1662439E-01
   7168.33  5.1545687E-01
   7168.67  5.1410243E-01
   7169.00  5.1257460E-01
   7169.33  5.1087423E-01
   7169.67  5.0904593E-01
   7170.00  5.0711671E-01
   7170.33  5.0511620E-01
   7170.67  5.0309668E-01
   7171.00  5.0110400E-01
   7171.33  4.9921931E-01
   7171.67  4.9753247E-01
   7172.00  4.9616163E-01
