    FDMNES
    energy     <xanes>
   7097.00  5.3515776E-03
   7097.33  5.4859414E-03
   7097.67  5.6266697E-03
   7098.00  5.7742011E-03
   7098.33  5.9300205E-03
   7098.67  6.0938350E-03
   7099.00  6.2662407E-03
   7099.33  6.4491808E-03
   7099.67  6.6423525E-03
   7100.00  6.8465859E-03
   7100.33  7.0644854E-03
   7100.67  7.2957633E-03
   7101.00  7.5416087E-03
   7101.33  7.8056101E-03
   7101.67  8.0875513E-03
   7102.00  8.3891924E-03
   7102.33  8.7156427E-03
   7102.67  9.0668804E-03
   7103.00  9.4456131E-03
   7103.33  9.8594092E-03
   7103.67  1.0308712E-02
   7104.00  1.0797886E-02
   7104.33  1.1338699E-02
   7104.67  1.1932678E-02
   7105.00  1.2587288E-02
   7105.33  1.3321957E-02
   7105.67  1.4140824E-02
   7106.00  1.5057630E-02
   7106.33  1.6107084E-02
   7106.67  1.7300027E-02
   7107.00  1.8664391E-02
   7107.33  2.0269181E-02
   7107.67  2.2144573E-02
   7108.00  2.4355957E-02
   7108.33  2.7063773E-02
   7108.67  3.0365769E-02
   7109.00  3.4452939E-02
   7109.33  3.9807553E-02
   7109.67  4.6856488E-02
   7110.00  5.6419856E-02
   7110.33  7.0739151E-02
   7110.67  9.2196757E-02
   7111.00  1.2336760E-01
   7111.33  1.6707372E-01
   7111.67  2.2364881E-01
   7112.00  2.9272493E-01
   7112.33  3.7866225E-01
   7112.67  4.9316801E-01
   7113.00  6.4220935E-01
   7113.33  7.7745820E-01
   7113.67  8.0551709E-01
   7114.00  6.9881204E-01
   7114.33  5.3645446E-01
   7114.67  4.0406238E-01
   7115.00  3.1306010E-01
   7115.33  2.5682032E-01
   7115.67  2.2095275E-01
   7116.00  2.0008578E-01
   7116.33  1.9211403E-01
   7116.67  1.9192606E-01
   7117.00  1.9418943E-01
   7117.33  1.9295867E-01
   7117.67  1.8857229E-01
   7118.00  1.8273360E-01
   7118.33  1.7608585E-01
   7118.67  1.6857594E-01
   7119.00  1.6034681E-01
   7119.33  1.5205700E-01
   7119.67  1.4370247E-01
   7120.00  1.3568873E-01
   7120.33  1.2976723E-01
   7120.67  1.2622560E-01
   7121.00  1.2456064E-01
   7121.33  1.2425815E-01
   7121.67  1.2467293E-01
   7122.00  1.2535092E-01
   7122.33  1.2601913E-01
   7122.67  1.2713702E-01
   7123.00  1.2933013E-01
   7123.33  1.3305227E-01
   7123.67  1.3812116E-01
   7124.00  1.4463149E-01
   7124.33  1.5307920E-01
   7124.67  1.6366287E-01
   7125.00  1.7683216E-01
   7125.33  1.9351787E-01
   7125.67  2.1370641E-01
   7126.00  2.3753441E-01
   7126.33  2.6542845E-01
   7126.67  2.9624975E-01
   7127.00  3.2793564E-01
   7127.33  3.5574023E-01
   7127.67  3.7689626E-01
   7128.00  3.9246206E-01
   7128.33  4.0665492E-01
   7128.67  4.2339899E-01
   7129.00  4.4422565E-01
   7129.33  4.6999602E-01
   7129.67  4.9955716E-01
   7130.00  5.3224841E-01
   7130.33  5.6822002E-01
   7130.67  6.0782729E-01
   7131.00  6.5219062E-01
   7131.33  7.0305320E-01
   7131.67  7.5938199E-01
   7132.00  8.1931899E-01
   7132.33  8.7880407E-01
   7132.67  9.3247786E-01
   7133.00  9.7535500E-01
   7133.33  1.0007773E+00
   7133.67  1.0089085E+00
   7134.00  1.0011749E+00
   7134.33  9.8000102E-01
   7134.67  9.5093893E-01
   7135.00  9.1621349E-01
   7135.33  8.7614723E-01
   7135.67  8.3147914E-01
   7136.00  7.8279038E-01
   7136.33  7.3168567E-01
   7136.67  6.8125200E-01
   7137.00  6.3397755E-01
   7137.33  5.9283636E-01
   7137.67  5.5854629E-01
   7138.00  5.3166152E-01
   7138.33  5.1320472E-01
   7138.67  5.0190240E-01
   7139.00  4.9723024E-01
   7139.33  4.9912535E-01
   7139.67  5.0594892E-01
   7140.00  5.1687114E-01
   7140.33  5.3128804E-01
   7140.67  5.4781564E-01
   7141.00  5.6561132E-01
   7141.33  5.8376602E-01
   7141.67  6.0135606E-01
   7142.00  6.1770503E-01
   7142.33  6.3192002E-01
   7142.67  6.4375352E-01
   7143.00  6.5293743E-01
   7143.33  6.5898025E-01
   7143.67  6.6225480E-01
   7144.00  6.6289579E-01
   7144.33  6.6087343E-01
   7144.67  6.5683988E-01
   7145.00  6.5114998E-01
   7145.33  6.4409381E-01
   7145.67  6.3625188E-01
   7146.00  6.2792927E-01
   7146.33  6.1936118E-01
   7146.67  6.1077375E-01
   7147.00  6.0230005E-01
   7147.33  5.9408188E-01
   7147.67  5.8616495E-01
   7148.00  5.7858774E-01
   7148.33  5.7142082E-01
   7148.67  5.6463186E-01
   7149.00  5.5822990E-01
   7149.33  5.5228329E-01
   7149.67  5.4676865E-01
   7150.00  5.4171083E-01
   7150.33  5.3720572E-01
   7150.67  5.3323404E-01
   7151.00  5.2983580E-01
   7151.33  5.2713066E-01
   7151.67  5.2507047E-01
   7152.00  5.2366634E-01
   7152.33  5.2299633E-01
   7152.67  5.2296113E-01
   7153.00  5.2353957E-01
   7153.33  5.2478024E-01
   7153.67  5.2658846E-01
   7154.00  5.2895104E-01
   7154.33  5.3192668E-01
   7154.67  5.3544000E-01
   7155.00  5.3948127E-01
   7155.33  5.4409090E-01
   7155.67  5.4916283E-01
   7156.00  5.5463940E-01
   7156.33  5.6046578E-01
   7156.67  5.6648079E-01
   7157.00  5.7255906E-01
   7157.33  5.7852508E-01
   7157.67  5.8421969E-01
   7158.00  5.8949776E-01
   7158.33  5.9413239E-01
   7158.67  5.9806407E-01
   7159.00  6.0120594E-01
   7159.33  6.0338357E-01
   7159.67  6.0467308E-01
   7160.00  6.0507380E-01
   7160.33  6.0450267E-01
   7160.67  6.0310946E-01
   7161.00  6.0093233E-01
   7161.33  5.9792396E-01
   7161.67  5.9422285E-01
   7162.00  5.8987080E-01
   7162.33  5.8483866E-01
   7162.67  5.7924502E-01
   7163.00  5.7312654E-01
   7163.33  5.6646844E-01
   7163.67  5.5938140E-01
   7164.00  5.5191435E-01
   7164.33  5.4408916E-01
   7164.67  5.3601081E-01
   7165.00  5.2773626E-01
   7165.33  5.1931419E-01
   7165.67  5.1082241E-01
   7166.00  5.0230912E-01
   7166.33  4.9382663E-01
   7166.67  4.8541126E-01
   7167.00  4.7709008E-01
   7167.33  4.6890379E-01
   7167.67  4.6086042E-01
   7168.00  4.5297956E-01
   7168.33  4.4530852E-01
   7168.67  4.3784792E-01
   7169.00  4.3062142E-01
   7169.33  4.2369140E-01
   7169.67  4.1705214E-01
   7170.00  4.1072936E-01
   7170.33  4.0480294E-01
   7170.67  3.9927055E-01
   7171.00  3.9417584E-01
   7171.33  3.8965499E-01
   7171.67  3.8576406E-01
   7172.00  3.8264859E-01
