    FDMNES
    energy     <xanes>
   7097.00  4.1390534E-03
   7097.33  4.2243694E-03
   7097.67  4.3131070E-03
   7098.00  4.4054815E-03
   7098.33  4.5022587E-03
   7098.67  4.6032570E-03
   7099.00  4.7087676E-03
   7099.33  4.8197793E-03
   7099.67  4.9361044E-03
   7100.00  5.0581484E-03
   7100.33  5.1872229E-03
   7100.67  5.3231492E-03
   7101.00  5.4665103E-03
   7101.33  5.6191044E-03
   7101.67  5.7807947E-03
   7102.00  5.9524532E-03
   7102.33  6.1366450E-03
   7102.67  6.3333494E-03
   7103.00  6.5439345E-03
   7103.33  6.7722415E-03
   7103.67  7.0185369E-03
   7104.00  7.2850958E-03
   7104.33  7.5780315E-03
   7104.67  7.8983123E-03
   7105.00  8.2500092E-03
   7105.33  8.6436403E-03
   7105.67  9.0819662E-03
   7106.00  9.5729988E-03
   7106.33  1.0136801E-02
   7106.67  1.0781155E-02
   7107.00  1.1524006E-02
   7107.33  1.2409512E-02
   7107.67  1.3461842E-02
   7108.00  1.4729439E-02
   7108.33  1.6332505E-02
   7108.67  1.8363520E-02
   7109.00  2.0997525E-02
   7109.33  2.4695572E-02
   7109.67  2.9973217E-02
   7110.00  3.7840676E-02
   7110.33  5.1204526E-02
   7110.67  7.3200131E-02
   7111.00  1.0472847E-01
   7111.33  1.3585497E-01
   7111.67  1.5728266E-01
   7112.00  1.7225836E-01
   7112.33  1.8195233E-01
   7112.67  1.8596377E-01
   7113.00  1.9093880E-01
   7113.33  2.0438004E-01
   7113.67  2.1987796E-01
   7114.00  2.0532214E-01
   7114.33  1.5572692E-01
   7114.67  1.1363331E-01
   7115.00  8.5639834E-02
   7115.33  6.8822768E-02
   7115.67  5.8401555E-02
   7116.00  5.2050233E-02
   7116.33  4.8604281E-02
   7116.67  4.7099176E-02
   7117.00  4.7269305E-02
   7117.33  4.9193996E-02
   7117.67  5.2718621E-02
   7118.00  5.7936161E-02
   7118.33  6.5090406E-02
   7118.67  7.3691293E-02
   7119.00  8.3134902E-02
   7119.33  9.2408250E-02
   7119.67  1.0079203E-01
   7120.00  1.0828198E-01
   7120.33  1.1541345E-01
   7120.67  1.2284408E-01
   7121.00  1.3085838E-01
   7121.33  1.3964346E-01
   7121.67  1.4923758E-01
   7122.00  1.5997201E-01
   7122.33  1.7280321E-01
   7122.67  1.8838884E-01
   7123.00  2.0720593E-01
   7123.33  2.2889426E-01
   7123.67  2.5009294E-01
   7124.00  2.6647316E-01
   7124.33  2.7344890E-01
   7124.67  2.7422965E-01
   7125.00  2.7400871E-01
   7125.33  2.7827135E-01
   7125.67  2.8818935E-01
   7126.00  3.0266844E-01
   7126.33  3.1910469E-01
   7126.67  3.3601936E-01
   7127.00  3.5472948E-01
   7127.33  3.7696896E-01
   7127.67  4.0137040E-01
   7128.00  4.2608341E-01
   7128.33  4.4942156E-01
   7128.67  4.7168799E-01
   7129.00  4.9427220E-01
   7129.33  5.1969257E-01
   7129.67  5.4951000E-01
   7130.00  5.8454096E-01
   7130.33  6.2505063E-01
   7130.67  6.6851154E-01
   7131.00  7.1198994E-01
   7131.33  7.5054991E-01
   7131.67  7.8108489E-01
   7132.00  8.0267355E-01
   7132.33  8.1600516E-01
   7132.67  8.2460885E-01
   7133.00  8.3015190E-01
   7133.33  8.3314753E-01
   7133.67  8.3362798E-01
   7134.00  8.3079367E-01
   7134.33  8.2316915E-01
   7134.67  8.1148281E-01
   7135.00  7.9718003E-01
   7135.33  7.8234613E-01
   7135.67  7.6848013E-01
   7136.00  7.5603793E-01
   7136.33  7.4515581E-01
   7136.67  7.3538045E-01
   7137.00  7.2645595E-01
   7137.33  7.1824064E-01
   7137.67  7.1055430E-01
   7138.00  7.0340734E-01
   7138.33  6.9698772E-01
   7138.67  6.9139028E-01
   7139.00  6.8678348E-01
   7139.33  6.8347309E-01
   7139.67  6.8138139E-01
   7140.00  6.8045996E-01
   7140.33  6.8067071E-01
   7140.67  6.8165578E-01
   7141.00  6.8319874E-01
   7141.33  6.8508732E-01
   7141.67  6.8702261E-01
   7142.00  6.8874896E-01
   7142.33  6.8983648E-01
   7142.67  6.8994025E-01
   7143.00  6.8869680E-01
   7143.33  6.8554453E-01
   7143.67  6.8052505E-01
   7144.00  6.7370414E-01
   7144.33  6.6527199E-01
   7144.67  6.5607376E-01
   7145.00  6.4684096E-01
   7145.33  6.3854973E-01
   7145.67  6.3179577E-01
   7146.00  6.2693596E-01
   7146.33  6.2430963E-01
   7146.67  6.2343588E-01
   7147.00  6.2393992E-01
   7147.33  6.2539067E-01
   7147.67  6.2709484E-01
   7148.00  6.2854313E-01
   7148.33  6.2909124E-01
   7148.67  6.2841312E-01
   7149.00  6.2627989E-01
   7149.33  6.2241637E-01
   7149.67  6.1712297E-01
   7150.00  6.1061251E-01
   7150.33  6.0309375E-01
   7150.67  5.9501776E-01
   7151.00  5.8665339E-01
   7151.33  5.7825147E-01
   7151.67  5.7000075E-01
   7152.00  5.6200658E-01
   7152.33  5.5437811E-01
   7152.67  5.4709559E-01
   7153.00  5.4014780E-01
   7153.33  5.3353379E-01
   7153.67  5.2715975E-01
   7154.00  5.2096787E-01
   7154.33  5.1490520E-01
   7154.67  5.0889763E-01
   7155.00  5.0289224E-01
   7155.33  4.9681772E-01
   7155.67  4.9062482E-01
   7156.00  4.8427231E-01
   7156.33  4.7769503E-01
   7156.67  4.7088653E-01
   7157.00  4.6382806E-01
   7157.33  4.5647573E-01
   7157.67  4.4886437E-01
   7158.00  4.4100796E-01
   7158.33  4.3291086E-01
   7158.67  4.2464873E-01
   7159.00  4.1627832E-01
   7159.33  4.0787839E-01
   7159.67  3.9955005E-01
   7160.00  3.9138840E-01
   7160.33  3.8354970E-01
   7160.67  3.7612393E-01
   7161.00  3.6921895E-01
   7161.33  3.6303324E-01
   7161.67  3.5759314E-01
   7162.00  3.5297463E-01
   7162.33  3.4934980E-01
   7162.67  3.4663855E-01
   7163.00  3.4484581E-01
   7163.33  3.4406230E-01
   7163.67  3.4412267E-01
   7164.00  3.4495486E-01
   7164.33  3.4653585E-01
   7164.67  3.4866361E-01
   7165.00  3.5122647E-01
   7165.33  3.5412354E-01
   7165.67  3.5717656E-01
   7166.00  3.6026604E-01
   7166.33  3.6324903E-01
   7166.67  3.6602135E-01
   7167.00  3.6849696E-01
   7167.33  3.7054816E-01
   7167.67  3.7216968E-01
   7168.00  3.7334199E-01
   7168.33  3.7401830E-01
   7168.67  3.7429487E-01
   7169.00  3.7423072E-01
   7169.33  3.7388395E-01
   7169.67  3.7338707E-01
   7170.00  3.7282638E-01
   7170.33  3.7229451E-01
   7170.67  3.7185687E-01
   7171.00  3.7155055E-01
   7171.33  3.7140653E-01
   7171.67  3.7138075E-01
   7172.00  3.7141732E-01
