    FDMNES
    energy     <xanes>
   7097.00  5.8618776E-03
   7097.33  6.0216496E-03
   7097.67  6.1895119E-03
   7098.00  6.3660551E-03
   7098.33  6.5532234E-03
   7098.67  6.7506921E-03
   7099.00  6.9592783E-03
   7099.33  7.1815712E-03
   7099.67  7.4172538E-03
   7100.00  7.6674882E-03
   7100.33  7.9358168E-03
   7100.67  8.2219805E-03
   7101.00  8.5276865E-03
   7101.33  8.8579377E-03
   7101.67  9.2126442E-03
   7102.00  9.5944095E-03
   7102.33  1.0010576E-02
   7102.67  1.0461466E-02
   7103.00  1.0951236E-02
   7103.33  1.1491176E-02
   7103.67  1.2082575E-02
   7104.00  1.2732449E-02
   7104.33  1.3459199E-02
   7104.67  1.4266412E-02
   7105.00  1.5166797E-02
   7105.33  1.6192646E-02
   7105.67  1.7353323E-02
   7106.00  1.8674049E-02
   7106.33  2.0217306E-02
   7106.67  2.2008426E-02
   7107.00  2.4103999E-02
   7107.33  2.6642361E-02
   7107.67  2.9699901E-02
   7108.00  3.3427888E-02
   7108.33  3.8199143E-02
   7108.67  4.4294835E-02
   7109.00  5.2242472E-02
   7109.33  6.3410491E-02
   7109.67  7.9255054E-02
   7110.00  1.0258725E-01
   7110.33  1.4149114E-01
   7110.67  2.0655352E-01
   7111.00  3.1311196E-01
   7111.33  4.7592515E-01
   7111.67  6.0654123E-01
   7112.00  5.9940495E-01
   7112.33  5.2950314E-01
   7112.67  4.8457054E-01
   7113.00  4.7874677E-01
   7113.33  5.2402626E-01
   7113.67  5.8516772E-01
   7114.00  5.8476624E-01
   7114.33  4.8604814E-01
   7114.67  3.7559800E-01
   7115.00  2.8847570E-01
   7115.33  2.3034165E-01
   7115.67  1.9363627E-01
   7116.00  1.7365422E-01
   7116.33  1.6162439E-01
   7116.67  1.4825884E-01
   7117.00  1.3523560E-01
   7117.33  1.2799774E-01
   7117.67  1.2681706E-01
   7118.00  1.3035574E-01
   7118.33  1.3723799E-01
   7118.67  1.4565646E-01
   7119.00  1.5404129E-01
   7119.33  1.6119068E-01
   7119.67  1.6660346E-01
   7120.00  1.6962332E-01
   7120.33  1.7081740E-01
   7120.67  1.7275779E-01
   7121.00  1.7710169E-01
   7121.33  1.8417089E-01
   7121.67  1.9303236E-01
   7122.00  2.0460689E-01
   7122.33  2.2263644E-01
   7122.67  2.4925454E-01
   7123.00  2.8516532E-01
   7123.33  3.2956356E-01
   7123.67  3.7922964E-01
   7124.00  4.3434851E-01
   7124.33  4.9625210E-01
   7124.67  5.6131303E-01
   7125.00  6.2456851E-01
   7125.33  6.7884383E-01
   7125.67  7.2059838E-01
   7126.00  7.4822769E-01
   7126.33  7.6107571E-01
   7126.67  7.6415460E-01
   7127.00  7.6162998E-01
   7127.33  7.5609060E-01
   7127.67  7.4683379E-01
   7128.00  7.3283663E-01
   7128.33  7.1436178E-01
   7128.67  6.9378748E-01
   7129.00  6.7280035E-01
   7129.33  6.5318317E-01
   7129.67  6.3582852E-01
   7130.00  6.2099730E-01
   7130.33  6.0849140E-01
   7130.67  5.9721044E-01
   7131.00  5.8673799E-01
   7131.33  5.7750022E-01
   7131.67  5.7021763E-01
   7132.00  5.6561765E-01
   7132.33  5.6449859E-01
   7132.67  5.6626472E-01
   7133.00  5.7026684E-01
   7133.33  5.7549893E-01
   7133.67  5.8057906E-01
   7134.00  5.8466344E-01
   7134.33  5.8704168E-01
   7134.67  5.8780243E-01
   7135.00  5.8706074E-01
   7135.33  5.8485392E-01
   7135.67  5.8147280E-01
   7136.00  5.7708961E-01
   7136.33  5.7223940E-01
   7136.67  5.6786883E-01
   7137.00  5.6463605E-01
   7137.33  5.6304201E-01
   7137.67  5.6267250E-01
   7138.00  5.6294979E-01
   7138.33  5.6292445E-01
   7138.67  5.6180385E-01
   7139.00  5.5923061E-01
   7139.33  5.5514468E-01
   7139.67  5.5021414E-01
   7140.00  5.4490902E-01
   7140.33  5.3960366E-01
   7140.67  5.3448927E-01
   7141.00  5.2965147E-01
   7141.33  5.2519456E-01
   7141.67  5.2111426E-01
   7142.00  5.1742152E-01
   7142.33  5.1414472E-01
   7142.67  5.1119184E-01
   7143.00  5.0851091E-01
   7143.33  5.0605975E-01
   7143.67  5.0373330E-01
   7144.00  5.0144507E-01
   7144.33  4.9906505E-01
   7144.67  4.9649888E-01
   7145.00  4.9371190E-01
   7145.33  4.9074409E-01
   7145.67  4.8777864E-01
   7146.00  4.8500255E-01
   7146.33  4.8267738E-01
   7146.67  4.8090544E-01
   7147.00  4.7975018E-01
   7147.33  4.7928855E-01
   7147.67  4.7938770E-01
   7148.00  4.7997840E-01
   7148.33  4.8102902E-01
   7148.67  4.8241637E-01
   7149.00  4.8408958E-01
   7149.33  4.8602741E-01
   7149.67  4.8815133E-01
   7150.00  4.9041404E-01
   7150.33  4.9275756E-01
   7150.67  4.9509051E-01
   7151.00  4.9733096E-01
   7151.33  4.9934691E-01
   7151.67  5.0104938E-01
   7152.00  5.0234257E-01
   7152.33  5.0305976E-01
   7152.67  5.0317846E-01
   7153.00  5.0264320E-01
   7153.33  5.0133253E-01
   7153.67  4.9933161E-01
   7154.00  4.9666398E-01
   7154.33  4.9329999E-01
   7154.67  4.8937582E-01
   7155.00  4.8494210E-01
   7155.33  4.7999219E-01
   7155.67  4.7461952E-01
   7156.00  4.6884333E-01
   7156.33  4.6262770E-01
   7156.67  4.5603132E-01
   7157.00  4.4906652E-01
   7157.33  4.4171560E-01
   7157.67  4.3406410E-01
   7158.00  4.2616501E-01
   7158.33  4.1807728E-01
   7158.67  4.0991748E-01
   7159.00  4.0177620E-01
   7159.33  3.9377857E-01
   7159.67  3.8601441E-01
   7160.00  3.7856751E-01
   7160.33  3.7157243E-01
   7160.67  3.6504613E-01
   7161.00  3.5903264E-01
   7161.33  3.5363695E-01
   7161.67  3.4881350E-01
   7162.00  3.4457339E-01
   7162.33  3.4099242E-01
   7162.67  3.3799076E-01
   7163.00  3.3555605E-01
   7163.33  3.3373490E-01
   7163.67  3.3243224E-01
   7164.00  3.3162270E-01
   7164.33  3.3132968E-01
   7164.67  3.3145493E-01
   7165.00  3.3196226E-01
   7165.33  3.3285375E-01
   7165.67  3.3404837E-01
   7166.00  3.3551672E-01
   7166.33  3.3725934E-01
   7166.67  3.3922033E-01
   7167.00  3.4138119E-01
   7167.33  3.4374594E-01
   7167.67  3.4627431E-01
   7168.00  3.4895118E-01
   7168.33  3.5177608E-01
   7168.67  3.5471644E-01
   7169.00  3.5775838E-01
   7169.33  3.6089547E-01
   7169.67  3.6409801E-01
   7170.00  3.6734697E-01
   7170.33  3.7061809E-01
   7170.67  3.7387311E-01
   7171.00  3.7706737E-01
   7171.33  3.8009790E-01
   7171.67  3.8283120E-01
   7172.00  3.8507010E-01
