    FDMNES
    energy     <xanes>
   7097.00  4.1626304E-03
   7097.33  4.2456510E-03
   7097.67  4.3318879E-03
   7098.00  4.4215386E-03
   7098.33  4.5153157E-03
   7098.67  4.6130426E-03
   7099.00  4.7149863E-03
   7099.33  4.8220632E-03
   7099.67  4.9340909E-03
   7100.00  5.0514409E-03
   7100.33  5.1753254E-03
   7100.67  5.3055702E-03
   7101.00  5.4427098E-03
   7101.33  5.5884030E-03
   7101.67  5.7425154E-03
   7102.00  5.9058482E-03
   7102.33  6.0807669E-03
   7102.67  6.2672474E-03
   7103.00  6.4665515E-03
   7103.33  6.6822277E-03
   7103.67  6.9145259E-03
   7104.00  7.1655565E-03
   7104.33  7.4409895E-03
   7104.67  7.7417479E-03
   7105.00  8.0716369E-03
   7105.33  8.4404768E-03
   7105.67  8.8509193E-03
   7106.00  9.3105260E-03
   7106.33  9.8382054E-03
   7106.67  1.0441485E-02
   7107.00  1.1137497E-02
   7107.33  1.1968369E-02
   7107.67  1.2957670E-02
   7108.00  1.4152286E-02
   7108.33  1.5668653E-02
   7108.67  1.7598047E-02
   7109.00  2.0112937E-02
   7109.33  2.3669525E-02
   7109.67  2.8787192E-02
   7110.00  3.6484091E-02
   7110.33  4.9641314E-02
   7110.67  7.0740603E-02
   7111.00  9.8002387E-02
   7111.33  1.2276618E-01
   7111.67  1.5100135E-01
   7112.00  1.8601525E-01
   7112.33  2.1350996E-01
   7112.67  2.1297874E-01
   7113.00  1.7815484E-01
   7113.33  1.3502814E-01
   7113.67  1.0556114E-01
   7114.00  9.1465260E-02
   7114.33  9.0449234E-02
   7114.67  9.0040608E-02
   7115.00  7.8399285E-02
   7115.33  6.1471894E-02
   7115.67  4.9694819E-02
   7116.00  4.2992453E-02
   7116.33  3.9844230E-02
   7116.67  3.8523928E-02
   7117.00  3.8212946E-02
   7117.33  3.8405750E-02
   7117.67  3.8918231E-02
   7118.00  3.9746942E-02
   7118.33  4.0955927E-02
   7118.67  4.2520453E-02
   7119.00  4.4443953E-02
   7119.33  4.6870319E-02
   7119.67  4.9959089E-02
   7120.00  5.3929540E-02
   7120.33  5.9140869E-02
   7120.67  6.5599374E-02
   7121.00  7.3355431E-02
   7121.33  8.2628928E-02
   7121.67  9.3422860E-02
   7122.00  1.0597365E-01
   7122.33  1.2083157E-01
   7122.67  1.3810998E-01
   7123.00  1.5827903E-01
   7123.33  1.8253689E-01
   7123.67  2.1131985E-01
   7124.00  2.4533911E-01
   7124.33  2.8520515E-01
   7124.67  3.2772595E-01
   7125.00  3.6842478E-01
   7125.33  4.0231057E-01
   7125.67  4.3139739E-01
   7126.00  4.5964158E-01
   7126.33  4.8968265E-01
   7126.67  5.1967254E-01
   7127.00  5.4637049E-01
   7127.33  5.6545797E-01
   7127.67  5.7829686E-01
   7128.00  5.8896986E-01
   7128.33  6.0355939E-01
   7128.67  6.2625835E-01
   7129.00  6.5951057E-01
   7129.33  7.0563621E-01
   7129.67  7.6189161E-01
   7130.00  8.2435171E-01
   7130.33  8.8457838E-01
   7130.67  9.3410824E-01
   7131.00  9.6869341E-01
   7131.33  9.8560872E-01
   7131.67  9.8690591E-01
   7132.00  9.7176178E-01
   7132.33  9.3848222E-01
   7132.67  8.9374065E-01
   7133.00  8.4426523E-01
   7133.33  7.9718935E-01
   7133.67  7.5567778E-01
   7134.00  7.2104689E-01
   7134.33  6.9638653E-01
   7134.67  6.8212268E-01
   7135.00  6.7691620E-01
   7135.33  6.7724264E-01
   7135.67  6.7887153E-01
   7136.00  6.8040270E-01
   7136.33  6.8168684E-01
   7136.67  6.8338539E-01
   7137.00  6.8615121E-01
   7137.33  6.9076645E-01
   7137.67  6.9727800E-01
   7138.00  7.0561969E-01
   7138.33  7.1558309E-01
   7138.67  7.2631118E-01
   7139.00  7.3705840E-01
   7139.33  7.4677738E-01
   7139.67  7.5475471E-01
   7140.00  7.6050029E-01
   7140.33  7.6348799E-01
   7140.67  7.6415871E-01
   7141.00  7.6279966E-01
   7141.33  7.5955834E-01
   7141.67  7.5489233E-01
   7142.00  7.4887313E-01
   7142.33  7.4127247E-01
   7142.67  7.3218664E-01
   7143.00  7.2162845E-01
   7143.33  7.0961358E-01
   7143.67  6.9663289E-01
   7144.00  6.8301854E-01
   7144.33  6.6908450E-01
   7144.67  6.5511780E-01
   7145.00  6.4124585E-01
   7145.33  6.2755160E-01
   7145.67  6.1401862E-01
   7146.00  6.0062664E-01
   7146.33  5.8736050E-01
   7146.67  5.7419002E-01
   7147.00  5.6112378E-01
   7147.33  5.4821801E-01
   7147.67  5.3551774E-01
   7148.00  5.2308068E-01
   7148.33  5.1100744E-01
   7148.67  4.9931756E-01
   7149.00  4.8805855E-01
   7149.33  4.7733124E-01
   7149.67  4.6710011E-01
   7150.00  4.5736986E-01
   7150.33  4.4818985E-01
   7150.67  4.3947503E-01
   7151.00  4.3120151E-01
   7151.33  4.2339380E-01
   7151.67  4.1598154E-01
   7152.00  4.0896108E-01
   7152.33  4.0239227E-01
   7152.67  3.9624096E-01
   7153.00  3.9051289E-01
   7153.33  3.8523995E-01
   7153.67  3.8031224E-01
   7154.00  3.7564247E-01
   7154.33  3.7111599E-01
   7154.67  3.6658300E-01
   7155.00  3.6194559E-01
   7155.33  3.5709338E-01
   7155.67  3.5199751E-01
   7156.00  3.4663763E-01
   7156.33  3.4096830E-01
   7156.67  3.3501279E-01
   7157.00  3.2876705E-01
   7157.33  3.2220512E-01
   7157.67  3.1538473E-01
   7158.00  3.0833957E-01
   7158.33  3.0111237E-01
   7158.67  2.9381492E-01
   7159.00  2.8654725E-01
   7159.33  2.7946552E-01
   7159.67  2.7269762E-01
   7160.00  2.6637669E-01
   7160.33  2.6072952E-01
   7160.67  2.5582255E-01
   7161.00  2.5176701E-01
   7161.33  2.4879725E-01
   7161.67  2.4688451E-01
   7162.00  2.4608506E-01
   7162.33  2.4657602E-01
   7162.67  2.4821718E-01
   7163.00  2.5098707E-01
   7163.33  2.5496781E-01
   7163.67  2.5994907E-01
   7164.00  2.6584861E-01
   7164.33  2.7265385E-01
   7164.67  2.8013409E-01
   7165.00  2.8816539E-01
   7165.33  2.9664620E-01
   7165.67  3.0537746E-01
   7166.00  3.1423833E-01
   7166.33  3.2310210E-01
   7166.67  3.3185945E-01
   7167.00  3.4043222E-01
   7167.33  3.4871620E-01
   7167.67  3.5669082E-01
   7168.00  3.6432503E-01
   7168.33  3.7155287E-01
   7168.67  3.7841323E-01
   7169.00  3.8491071E-01
   7169.33  3.9101719E-01
   7169.67  3.9679797E-01
   7170.00  4.0227333E-01
   7170.33  4.0742860E-01
   7170.67  4.1230938E-01
   7171.00  4.1690576E-01
   7171.33  4.2112109E-01
   7171.67  4.2485810E-01
   7172.00  4.2791281E-01
