    FDMNES
    energy     <xanes>
   7097.00  4.2742375E-03
   7097.33  4.3624631E-03
   7097.67  4.4542981E-03
   7098.00  4.5499785E-03
   7098.33  4.6503278E-03
   7098.67  4.7551675E-03
   7099.00  4.8648219E-03
   7099.33  4.9803682E-03
   7099.67  5.1016289E-03
   7100.00  5.2290639E-03
   7100.33  5.3641264E-03
   7100.67  5.5066623E-03
   7101.00  5.6573478E-03
   7101.33  5.8182182E-03
   7101.67  5.9891917E-03
   7102.00  6.1713086E-03
   7102.33  6.3675505E-03
   7102.67  6.5780200E-03
   7103.00  6.8044043E-03
   7103.33  7.0513222E-03
   7103.67  7.3193234E-03
   7104.00  7.6113304E-03
   7104.33  7.9350142E-03
   7104.67  8.2920311E-03
   7105.00  8.6878810E-03
   7105.33  9.1364945E-03
   7105.67  9.6424548E-03
   7106.00  1.0217291E-02
   7106.33  1.0889483E-02
   7106.67  1.1672283E-02
   7107.00  1.2593693E-02
   7107.33  1.3722354E-02
   7107.67  1.5102184E-02
   7108.00  1.6817337E-02
   7108.33  1.9079029E-02
   7108.67  2.2074412E-02
   7109.00  2.6155527E-02
   7109.33  3.2281171E-02
   7109.67  4.1667318E-02
   7110.00  5.6734669E-02
   7110.33  8.4378932E-02
   7110.67  1.2911704E-01
   7111.00  1.7773750E-01
   7111.33  1.9002212E-01
   7111.67  1.8706393E-01
   7112.00  1.8720186E-01
   7112.33  1.8357190E-01
   7112.67  1.7018037E-01
   7113.00  1.4609017E-01
   7113.33  1.2000553E-01
   7113.67  1.0080887E-01
   7114.00  9.0727183E-02
   7114.33  8.9498343E-02
   7114.67  8.6586412E-02
   7115.00  7.3323686E-02
   7115.33  5.7443317E-02
   7115.67  4.6700087E-02
   7116.00  4.0481742E-02
   7116.33  3.7306017E-02
   7116.67  3.5688391E-02
   7117.00  3.5066150E-02
   7117.33  3.5144041E-02
   7117.67  3.5678460E-02
   7118.00  3.6631905E-02
   7118.33  3.8064179E-02
   7118.67  3.9923140E-02
   7119.00  4.2188975E-02
   7119.33  4.4932570E-02
   7119.67  4.8263366E-02
   7120.00  5.2434080E-02
   7120.33  5.7935381E-02
   7120.67  6.4954807E-02
   7121.00  7.3723923E-02
   7121.33  8.4545796E-02
   7121.67  9.6960855E-02
   7122.00  1.1069995E-01
   7122.33  1.2606867E-01
   7122.67  1.4368345E-01
   7123.00  1.6449718E-01
   7123.33  1.9005935E-01
   7123.67  2.2052257E-01
   7124.00  2.5588956E-01
   7124.33  2.9523600E-01
   7124.67  3.3527793E-01
   7125.00  3.7361530E-01
   7125.33  4.0828304E-01
   7125.67  4.3870493E-01
   7126.00  4.6385861E-01
   7126.33  4.8286118E-01
   7126.67  4.9852591E-01
   7127.00  5.1410803E-01
   7127.33  5.3372370E-01
   7127.67  5.5890486E-01
   7128.00  5.9032336E-01
   7128.33  6.3010662E-01
   7128.67  6.7843444E-01
   7129.00  7.3365411E-01
   7129.33  7.9007630E-01
   7129.67  8.4264961E-01
   7130.00  8.9126310E-01
   7130.33  9.3679064E-01
   7130.67  9.7640454E-01
   7131.00  1.0021263E+00
   7131.33  9.9925968E-01
   7131.67  9.6613701E-01
   7132.00  9.0905840E-01
   7132.33  8.4293944E-01
   7132.67  7.8404297E-01
   7133.00  7.3947139E-01
   7133.33  7.1188791E-01
   7133.67  6.9496633E-01
   7134.00  6.8423036E-01
   7134.33  6.7810386E-01
   7134.67  6.7703217E-01
   7135.00  6.8199899E-01
   7135.33  6.9390153E-01
   7135.67  7.1100949E-01
   7136.00  7.3163360E-01
   7136.33  7.5310802E-01
   7136.67  7.7239084E-01
   7137.00  7.8745968E-01
   7137.33  7.9640151E-01
   7137.67  7.9988021E-01
   7138.00  7.9852172E-01
   7138.33  7.9281755E-01
   7138.67  7.8416843E-01
   7139.00  7.7325292E-01
   7139.33  7.6059606E-01
   7139.67  7.4707655E-01
   7140.00  7.3324404E-01
   7140.33  7.1967303E-01
   7140.67  7.0673236E-01
   7141.00  6.9463023E-01
   7141.33  6.8359940E-01
   7141.67  6.7354109E-01
   7142.00  6.6441594E-01
   7142.33  6.5625297E-01
   7142.67  6.4886047E-01
   7143.00  6.4217061E-01
   7143.33  6.3619096E-01
   7143.67  6.3077349E-01
   7144.00  6.2585023E-01
   7144.33  6.2136315E-01
   7144.67  6.1711382E-01
   7145.00  6.1293492E-01
   7145.33  6.0857522E-01
   7145.67  6.0381027E-01
   7146.00  5.9844646E-01
   7146.33  5.9221100E-01
   7146.67  5.8510155E-01
   7147.00  5.7710190E-01
   7147.33  5.6816350E-01
   7147.67  5.5851242E-01
   7148.00  5.4829169E-01
   7148.33  5.3763531E-01
   7148.67  5.2675437E-01
   7149.00  5.1576481E-01
   7149.33  5.0478353E-01
   7149.67  4.9390777E-01
   7150.00  4.8320691E-01
   7150.33  4.7277578E-01
   7150.67  4.6263124E-01
   7151.00  4.5279549E-01
   7151.33  4.4331589E-01
   7151.67  4.3414743E-01
   7152.00  4.2527953E-01
   7152.33  4.1673214E-01
   7152.67  4.0845221E-01
   7153.00  4.0042415E-01
   7153.33  3.9266318E-01
   7153.67  3.8512620E-01
   7154.00  3.7779996E-01
   7154.33  3.7069159E-01
   7154.67  3.6375933E-01
   7155.00  3.5698898E-01
   7155.33  3.5038600E-01
   7155.67  3.4391231E-01
   7156.00  3.3753329E-01
   7156.33  3.3117520E-01
   7156.67  3.2471519E-01
   7157.00  3.1803540E-01
   7157.33  3.1097960E-01
   7157.67  3.0353420E-01
   7158.00  2.9572518E-01
   7158.33  2.8765317E-01
   7158.67  2.7957267E-01
   7159.00  2.7172838E-01
   7159.33  2.6449198E-01
   7159.67  2.5808217E-01
   7160.00  2.5270625E-01
   7160.33  2.4869083E-01
   7160.67  2.4598693E-01
   7161.00  2.4462848E-01
   7161.33  2.4476542E-01
   7161.67  2.4616300E-01
   7162.00  2.4872745E-01
   7162.33  2.5245574E-01
   7162.67  2.5706930E-01
   7163.00  2.6243420E-01
   7163.33  2.6848860E-01
   7163.67  2.7503267E-01
   7164.00  2.8196762E-01
   7164.33  2.8922279E-01
   7164.67  2.9666706E-01
   7165.00  3.0422821E-01
   7165.33  3.1184111E-01
   7165.67  3.1944135E-01
   7166.00  3.2698860E-01
   7166.33  3.3444037E-01
   7166.67  3.4178989E-01
   7167.00  3.4903164E-01
   7167.33  3.5615466E-01
   7167.67  3.6317959E-01
   7168.00  3.7011304E-01
   7168.33  3.7694752E-01
   7168.67  3.8368759E-01
   7169.00  3.9031628E-01
   7169.33  3.9678036E-01
   7169.67  4.0304710E-01
   7170.00  4.0906256E-01
   7170.33  4.1471806E-01
   7170.67  4.1998323E-01
   7171.00  4.2479719E-01
   7171.33  4.2901616E-01
   7171.67  4.3260225E-01
   7172.00  4.3544045E-01
