    FDMNES
    energy     <xanes>
   7097.00  5.4945603E-03
   7097.33  5.6402086E-03
   7097.67  5.7931338E-03
   7098.00  5.9538597E-03
   7098.33  6.1241224E-03
   7098.67  6.3036177E-03
   7099.00  6.4930657E-03
   7099.33  6.6947641E-03
   7099.67  6.9084075E-03
   7100.00  7.1350103E-03
   7100.33  7.3776907E-03
   7100.67  7.6361789E-03
   7101.00  7.9119464E-03
   7101.33  8.2093496E-03
   7101.67  8.5282344E-03
   7102.00  8.8708096E-03
   7102.33  9.2433748E-03
   7102.67  9.6460660E-03
   7103.00  1.0082335E-02
   7103.33  1.0561678E-02
   7103.67  1.1084906E-02
   7104.00  1.1657687E-02
   7104.33  1.2295076E-02
   7104.67  1.2999460E-02
   7105.00  1.3780731E-02
   7105.33  1.4664327E-02
   7105.67  1.5656441E-02
   7106.00  1.6775736E-02
   7106.33  1.8068914E-02
   7106.67  1.9552087E-02
   7107.00  2.1264341E-02
   7107.33  2.3301628E-02
   7107.67  2.5709353E-02
   7108.00  2.8582388E-02
   7108.33  3.2153109E-02
   7108.67  3.6572437E-02
   7109.00  4.2130061E-02
   7109.33  4.9560656E-02
   7109.67  5.9547739E-02
   7110.00  7.3400917E-02
   7110.33  9.4734377E-02
   7110.67  1.2750077E-01
   7111.00  1.7535810E-01
   7111.33  2.3784665E-01
   7111.67  3.2392258E-01
   7112.00  4.5639895E-01
   7112.33  6.3723891E-01
   7112.67  7.9312295E-01
   7113.00  8.5011810E-01
   7113.33  7.9523214E-01
   7113.67  6.8888573E-01
   7114.00  5.6537953E-01
   7114.33  4.5378400E-01
   7114.67  3.6607250E-01
   7115.00  3.0196005E-01
   7115.33  2.5782111E-01
   7115.67  2.2583562E-01
   7116.00  2.0284956E-01
   7116.33  1.8793014E-01
   7116.67  1.7939762E-01
   7117.00  1.7602735E-01
   7117.33  1.7398478E-01
   7117.67  1.6909195E-01
   7118.00  1.6148793E-01
   7118.33  1.5325187E-01
   7118.67  1.4558059E-01
   7119.00  1.3858372E-01
   7119.33  1.3232559E-01
   7119.67  1.2677773E-01
   7120.00  1.2201300E-01
   7120.33  1.1829045E-01
   7120.67  1.1560175E-01
   7121.00  1.1397110E-01
   7121.33  1.1343110E-01
   7121.67  1.1360886E-01
   7122.00  1.1428608E-01
   7122.33  1.1538910E-01
   7122.67  1.1687861E-01
   7123.00  1.1882612E-01
   7123.33  1.2142952E-01
   7123.67  1.2477511E-01
   7124.00  1.2900545E-01
   7124.33  1.3435468E-01
   7124.67  1.4063941E-01
   7125.00  1.4760824E-01
   7125.33  1.5497817E-01
   7125.67  1.6286001E-01
   7126.00  1.7193599E-01
   7126.33  1.8348627E-01
   7126.67  1.9801569E-01
   7127.00  2.1595247E-01
   7127.33  2.3810615E-01
   7127.67  2.6420043E-01
   7128.00  2.9419320E-01
   7128.33  3.2825222E-01
   7128.67  3.6559077E-01
   7129.00  4.0588719E-01
   7129.33  4.4887091E-01
   7129.67  4.9342495E-01
   7130.00  5.3887534E-01
   7130.33  5.8470431E-01
   7130.67  6.3038964E-01
   7131.00  6.7543333E-01
   7131.33  7.1897006E-01
   7131.67  7.6049226E-01
   7132.00  7.9955599E-01
   7132.33  8.3536504E-01
   7132.67  8.6757040E-01
   7133.00  8.9498364E-01
   7133.33  9.1447117E-01
   7133.67  9.2409145E-01
   7134.00  9.2167582E-01
   7134.33  9.0433341E-01
   7134.67  8.7447484E-01
   7135.00  8.3425146E-01
   7135.33  7.8641406E-01
   7135.67  7.3571884E-01
   7136.00  6.8522631E-01
   7136.33  6.3821102E-01
   7136.67  5.9636760E-01
   7137.00  5.6086297E-01
   7137.33  5.3323362E-01
   7137.67  5.1250020E-01
   7138.00  4.9797054E-01
   7138.33  4.8889226E-01
   7138.67  4.8308808E-01
   7139.00  4.7942650E-01
   7139.33  4.7735175E-01
   7139.67  4.7660196E-01
   7140.00  4.7743298E-01
   7140.33  4.8047352E-01
   7140.67  4.8572355E-01
   7141.00  4.9320267E-01
   7141.33  5.0297439E-01
   7141.67  5.1442190E-01
   7142.00  5.2715284E-01
   7142.33  5.4076959E-01
   7142.67  5.5467780E-01
   7143.00  5.6847701E-01
   7143.33  5.8168640E-01
   7143.67  5.9402562E-01
   7144.00  6.0526035E-01
   7144.33  6.1503326E-01
   7144.67  6.2339546E-01
   7145.00  6.3031551E-01
   7145.33  6.3565375E-01
   7145.67  6.3969767E-01
   7146.00  6.4259994E-01
   7146.33  6.4447455E-01
   7146.67  6.4567829E-01
   7147.00  6.4641655E-01
   7147.33  6.4690750E-01
   7147.67  6.4742253E-01
   7148.00  6.4815761E-01
   7148.33  6.4936570E-01
   7148.67  6.5115342E-01
   7149.00  6.5361742E-01
   7149.33  6.5691103E-01
   7149.67  6.6094732E-01
   7150.00  6.6569071E-01
   7150.33  6.7114331E-01
   7150.67  6.7712199E-01
   7151.00  6.8352325E-01
   7151.33  6.9025713E-01
   7151.67  6.9716320E-01
   7152.00  7.0413998E-01
   7152.33  7.1106591E-01
   7152.67  7.1782960E-01
   7153.00  7.2432664E-01
   7153.33  7.3037968E-01
   7153.67  7.3590206E-01
   7154.00  7.4077030E-01
   7154.33  7.4473146E-01
   7154.67  7.4772815E-01
   7155.00  7.4962837E-01
   7155.33  7.5013890E-01
   7155.67  7.4930023E-01
   7156.00  7.4704060E-01
   7156.33  7.4312983E-01
   7156.67  7.3775081E-01
   7157.00  7.3094259E-01
   7157.33  7.2262733E-01
   7157.67  7.1310418E-01
   7158.00  7.0251397E-01
   7158.33  6.9093311E-01
   7158.67  6.7867036E-01
   7159.00  6.6589578E-01
   7159.33  6.5275465E-01
   7159.67  6.3945393E-01
   7160.00  6.2611701E-01
   7160.33  6.1287283E-01
   7160.67  5.9980451E-01
   7161.00  5.8697349E-01
   7161.33  5.7446884E-01
   7161.67  5.6228840E-01
   7162.00  5.5044867E-01
   7162.33  5.3900255E-01
   7162.67  5.2790869E-01
   7163.00  5.1716664E-01
   7163.33  5.0681689E-01
   7163.67  4.9681042E-01
   7164.00  4.8714169E-01
   7164.33  4.7784471E-01
   7164.67  4.6887119E-01
   7165.00  4.6021583E-01
   7165.33  4.5191191E-01
   7165.67  4.4391564E-01
   7166.00  4.3622408E-01
   7166.33  4.2887296E-01
   7166.67  4.2182204E-01
   7167.00  4.1506711E-01
   7167.33  4.0863830E-01
   7167.67  4.0249297E-01
   7168.00  3.9662620E-01
   7168.33  3.9106659E-01
   7168.67  3.8577334E-01
   7169.00  3.8073969E-01
   7169.33  3.7598864E-01
   7169.67  3.7148139E-01
   7170.00  3.6721291E-01
   7170.33  3.6320902E-01
   7170.67  3.5944433E-01
   7171.00  3.5593435E-01
   7171.33  3.5275985E-01
   7171.67  3.4997463E-01
   7172.00  3.4770040E-01
