    FDMNES
    energy     <xanes>
   7097.00  4.4476485E-03
   7097.33  4.5411584E-03
   7097.67  4.6383509E-03
   7098.00  4.7394467E-03
   7098.33  4.8452512E-03
   7098.67  4.9555528E-03
   7099.00  5.0706456E-03
   7099.33  5.1915546E-03
   7099.67  5.3180560E-03
   7100.00  5.4505522E-03
   7100.33  5.5903811E-03
   7100.67  5.7373186E-03
   7101.00  5.8919327E-03
   7101.33  6.0560250E-03
   7101.67  6.2293978E-03
   7102.00  6.4128858E-03
   7102.33  6.6090076E-03
   7102.67  6.8176557E-03
   7103.00  7.0401155E-03
   7103.33  7.2800801E-03
   7103.67  7.5376793E-03
   7104.00  7.8150132E-03
   7104.33  8.1178356E-03
   7104.67  8.4468740E-03
   7105.00  8.8058277E-03
   7105.33  9.2043981E-03
   7105.67  9.6448659E-03
   7106.00  1.0134421E-02
   7106.33  1.0691253E-02
   7106.67  1.1322044E-02
   7107.00  1.2042774E-02
   7107.33  1.2893015E-02
   7107.67  1.3893970E-02
   7108.00  1.5088753E-02
   7108.33  1.6584792E-02
   7108.67  1.8464748E-02
   7109.00  2.0886043E-02
   7109.33  2.4265626E-02
   7109.67  2.9076089E-02
   7110.00  3.6246787E-02
   7110.33  4.8427793E-02
   7110.67  6.8091507E-02
   7111.00  9.4414191E-02
   7111.33  1.1876242E-01
   7111.67  1.3759471E-01
   7112.00  1.5072750E-01
   7112.33  1.6367457E-01
   7112.67  1.8072425E-01
   7113.00  1.9536332E-01
   7113.33  1.8782391E-01
   7113.67  1.5762847E-01
   7114.00  1.2059938E-01
   7114.33  9.3036706E-02
   7114.67  7.5458254E-02
   7115.00  6.5234020E-02
   7115.33  6.0314463E-02
   7115.67  5.8547628E-02
   7116.00  5.9226768E-02
   7116.33  6.2202876E-02
   7116.67  6.7098268E-02
   7117.00  7.4036638E-02
   7117.33  8.3823705E-02
   7117.67  9.6955753E-02
   7118.00  1.1432647E-01
   7118.33  1.3812094E-01
   7118.67  1.6919975E-01
   7119.00  2.0715155E-01
   7119.33  2.4896097E-01
   7119.67  2.9262976E-01
   7120.00  3.3818624E-01
   7120.33  3.8313410E-01
   7120.67  4.2516266E-01
   7121.00  4.5978710E-01
   7121.33  4.7356668E-01
   7121.67  4.6331814E-01
   7122.00  4.3612982E-01
   7122.33  4.0570961E-01
   7122.67  3.8295430E-01
   7123.00  3.7245971E-01
   7123.33  3.7728632E-01
   7123.67  3.9375803E-01
   7124.00  4.1821385E-01
   7124.33  4.4541171E-01
   7124.67  4.6927972E-01
   7125.00  4.8582740E-01
   7125.33  4.9218283E-01
   7125.67  4.9075966E-01
   7126.00  4.8379117E-01
   7126.33  4.7514192E-01
   7126.67  4.6936229E-01
   7127.00  4.6866043E-01
   7127.33  4.7415206E-01
   7127.67  4.8382685E-01
   7128.00  4.9552568E-01
   7128.33  5.0634275E-01
   7128.67  5.1468984E-01
   7129.00  5.2066100E-01
   7129.33  5.2566850E-01
   7129.67  5.3186103E-01
   7130.00  5.4064884E-01
   7130.33  5.5313912E-01
   7130.67  5.6855661E-01
   7131.00  5.8600179E-01
   7131.33  6.0426524E-01
   7131.67  6.2196359E-01
   7132.00  6.3802898E-01
   7132.33  6.5097556E-01
   7132.67  6.6046547E-01
   7133.00  6.6661180E-01
   7133.33  6.7010659E-01
   7133.67  6.7267705E-01
   7134.00  6.7542589E-01
   7134.33  6.7934932E-01
   7134.67  6.8481159E-01
   7135.00  6.9202893E-01
   7135.33  7.0105283E-01
   7135.67  7.1069512E-01
   7136.00  7.1923605E-01
   7136.33  7.2356742E-01
   7136.67  7.2207932E-01
   7137.00  7.1461846E-01
   7137.33  7.0271629E-01
   7137.67  6.8986934E-01
   7138.00  6.7809913E-01
   7138.33  6.6879365E-01
   7138.67  6.6174242E-01
   7139.00  6.5651396E-01
   7139.33  6.5242127E-01
   7139.67  6.4833856E-01
   7140.00  6.4340164E-01
   7140.33  6.3663659E-01
   7140.67  6.2797498E-01
   7141.00  6.1766139E-01
   7141.33  6.0632294E-01
   7141.67  5.9505187E-01
   7142.00  5.8459985E-01
   7142.33  5.7559738E-01
   7142.67  5.6789787E-01
   7143.00  5.6131142E-01
   7143.33  5.5567287E-01
   7143.67  5.5063545E-01
   7144.00  5.4602971E-01
   7144.33  5.4173675E-01
   7144.67  5.3761667E-01
   7145.00  5.3361796E-01
   7145.33  5.2973302E-01
   7145.67  5.2595651E-01
   7146.00  5.2230063E-01
   7146.33  5.1878824E-01
   7146.67  5.1539632E-01
   7147.00  5.1210768E-01
   7147.33  5.0890270E-01
   7147.67  5.0573969E-01
   7148.00  5.0259203E-01
   7148.33  4.9943125E-01
   7148.67  4.9623871E-01
   7149.00  4.9300523E-01
   7149.33  4.8972858E-01
   7149.67  4.8642993E-01
   7150.00  4.8313003E-01
   7150.33  4.7985522E-01
   7150.67  4.7661613E-01
   7151.00  4.7341321E-01
   7151.33  4.7023567E-01
   7151.67  4.6705338E-01
   7152.00  4.6383484E-01
   7152.33  4.6052945E-01
   7152.67  4.5710827E-01
   7153.00  4.5354600E-01
   7153.33  4.4981103E-01
   7153.67  4.4593580E-01
   7154.00  4.4195482E-01
   7154.33  4.3792557E-01
   7154.67  4.3393540E-01
   7155.00  4.3006576E-01
   7155.33  4.2643883E-01
   7155.67  4.2311131E-01
   7156.00  4.2013775E-01
   7156.33  4.1760436E-01
   7156.67  4.1546987E-01
   7157.00  4.1371902E-01
   7157.33  4.1235511E-01
   7157.67  4.1127715E-01
   7158.00  4.1042649E-01
   7158.33  4.0975027E-01
   7158.67  4.0915749E-01
   7159.00  4.0859036E-01
   7159.33  4.0798777E-01
   7159.67  4.0731156E-01
   7160.00  4.0653941E-01
   7160.33  4.0564742E-01
   7160.67  4.0465216E-01
   7161.00  4.0356532E-01
   7161.33  4.0240041E-01
   7161.67  4.0119521E-01
   7162.00  3.9997835E-01
   7162.33  3.9878843E-01
   7162.67  3.9765683E-01
   7163.00  3.9660855E-01
   7163.33  3.9567767E-01
   7163.67  3.9486324E-01
   7164.00  3.9416953E-01
   7164.33  3.9360751E-01
   7164.67  3.9315058E-01
   7165.00  3.9278402E-01
   7165.33  3.9249696E-01
   7165.67  3.9226065E-01
   7166.00  3.9206013E-01
   7166.33  3.9188642E-01
   7166.67  3.9173257E-01
   7167.00  3.9160215E-01
   7167.33  3.9151114E-01
   7167.67  3.9147315E-01
   7168.00  3.9150764E-01
   7168.33  3.9165236E-01
   7168.67  3.9192105E-01
   7169.00  3.9233443E-01
   7169.33  3.9293294E-01
   7169.67  3.9370901E-01
   7170.00  3.9466695E-01
   7170.33  3.9582454E-01
   7170.67  3.9714223E-01
   7171.00  3.9859002E-01
   7171.33  4.0011113E-01
   7171.67  4.0157542E-01
   7172.00  4.0282050E-01
