    FDMNES
    energy     <xanes>
   7097.00  4.3622255E-03
   7097.33  4.4497529E-03
   7097.67  4.5405701E-03
   7098.00  4.6348671E-03
   7098.33  4.7333509E-03
   7098.67  4.8358234E-03
   7099.00  4.9425355E-03
   7099.33  5.0543805E-03
   7099.67  5.1711473E-03
   7100.00  5.2931773E-03
   7100.33  5.4216269E-03
   7100.67  5.5562816E-03
   7101.00  5.6976204E-03
   7101.33  5.8471871E-03
   7101.67  6.0047857E-03
   7102.00  6.1711155E-03
   7102.33  6.3483167E-03
   7102.67  6.5362630E-03
   7103.00  6.7360251E-03
   7103.33  6.9507152E-03
   7103.67  7.1803968E-03
   7104.00  7.4268099E-03
   7104.33  7.6947656E-03
   7104.67  7.9848109E-03
   7105.00  8.2999977E-03
   7105.33  8.6483814E-03
   7105.67  9.0317737E-03
   7106.00  9.4560866E-03
   7106.33  9.9363404E-03
   7106.67  1.0477945E-02
   7107.00  1.1094022E-02
   7107.33  1.1817139E-02
   7107.67  1.2664641E-02
   7108.00  1.3671976E-02
   7108.33  1.4927650E-02
   7108.67  1.6499985E-02
   7109.00  1.8519472E-02
   7109.33  2.1333057E-02
   7109.67  2.5338364E-02
   7110.00  3.1319508E-02
   7110.33  4.1499677E-02
   7110.67  5.7703881E-02
   7111.00  7.7925977E-02
   7111.33  9.3294553E-02
   7111.67  1.0842377E-01
   7112.00  1.2867360E-01
   7112.33  1.5152587E-01
   7112.67  1.5942131E-01
   7113.00  1.4939888E-01
   7113.33  1.3758537E-01
   7113.67  1.2447437E-01
   7114.00  1.0344669E-01
   7114.33  8.2752148E-02
   7114.67  6.9346146E-02
   7115.00  6.2271309E-02
   7115.33  5.9849763E-02
   7115.67  6.0264034E-02
   7116.00  6.3009165E-02
   7116.33  6.8181609E-02
   7116.67  7.5581924E-02
   7117.00  8.5318353E-02
   7117.33  9.7647575E-02
   7117.67  1.1182152E-01
   7118.00  1.2696421E-01
   7118.33  1.4160623E-01
   7118.67  1.5454791E-01
   7119.00  1.6527753E-01
   7119.33  1.7367497E-01
   7119.67  1.8069721E-01
   7120.00  1.8719158E-01
   7120.33  1.9427651E-01
   7120.67  2.0283815E-01
   7121.00  2.1354130E-01
   7121.33  2.2718543E-01
   7121.67  2.4341322E-01
   7122.00  2.6182165E-01
   7122.33  2.8215669E-01
   7122.67  3.0412722E-01
   7123.00  3.2780415E-01
   7123.33  3.5280393E-01
   7123.67  3.7750497E-01
   7124.00  4.0107569E-01
   7124.33  4.2469595E-01
   7124.67  4.5037763E-01
   7125.00  4.7910615E-01
   7125.33  5.1201337E-01
   7125.67  5.4938517E-01
   7126.00  5.9135040E-01
   7126.33  6.3597517E-01
   7126.67  6.7866848E-01
   7127.00  7.1661838E-01
   7127.33  7.4730524E-01
   7127.67  7.7050320E-01
   7128.00  7.8610090E-01
   7128.33  7.9394675E-01
   7128.67  7.9586565E-01
   7129.00  7.9272124E-01
   7129.33  7.8490039E-01
   7129.67  7.7344568E-01
   7130.00  7.5867978E-01
   7130.33  7.4107783E-01
   7130.67  7.2248120E-01
   7131.00  7.0477559E-01
   7131.33  6.9081527E-01
   7131.67  6.8185187E-01
   7132.00  6.7788685E-01
   7132.33  6.7756615E-01
   7132.67  6.7794638E-01
   7133.00  6.7745825E-01
   7133.33  6.7551903E-01
   7133.67  6.7283377E-01
   7134.00  6.6987433E-01
   7134.33  6.6666535E-01
   7134.67  6.6281927E-01
   7135.00  6.5788122E-01
   7135.33  6.5137097E-01
   7135.67  6.4356966E-01
   7136.00  6.3486599E-01
   7136.33  6.2584229E-01
   7136.67  6.1712807E-01
   7137.00  6.0910908E-01
   7137.33  6.0217204E-01
   7137.67  5.9628761E-01
   7138.00  5.9142911E-01
   7138.33  5.8760145E-01
   7138.67  5.8453416E-01
   7139.00  5.8208613E-01
   7139.33  5.8016909E-01
   7139.67  5.7858712E-01
   7140.00  5.7723257E-01
   7140.33  5.7601789E-01
   7140.67  5.7484895E-01
   7141.00  5.7367478E-01
   7141.33  5.7244224E-01
   7141.67  5.7111726E-01
   7142.00  5.6966409E-01
   7142.33  5.6801294E-01
   7142.67  5.6613032E-01
   7143.00  5.6396437E-01
   7143.33  5.6141194E-01
   7143.67  5.5846261E-01
   7144.00  5.5507976E-01
   7144.33  5.5118026E-01
   7144.67  5.4681808E-01
   7145.00  5.4200865E-01
   7145.33  5.3674008E-01
   7145.67  5.3111894E-01
   7146.00  5.2519922E-01
   7146.33  5.1901628E-01
   7146.67  5.1266839E-01
   7147.00  5.0621743E-01
   7147.33  4.9972968E-01
   7147.67  4.9327500E-01
   7148.00  4.8690411E-01
   7148.33  4.8068379E-01
   7148.67  4.7463714E-01
   7149.00  4.6879073E-01
   7149.33  4.6319664E-01
   7149.67  4.5784684E-01
   7150.00  4.5275726E-01
   7150.33  4.4798003E-01
   7150.67  4.4349485E-01
   7151.00  4.3930901E-01
   7151.33  4.3545874E-01
   7151.67  4.3189401E-01
   7152.00  4.2859500E-01
   7152.33  4.2555883E-01
   7152.67  4.2271761E-01
   7153.00  4.2003522E-01
   7153.33  4.1747884E-01
   7153.67  4.1498218E-01
   7154.00  4.1249546E-01
   7154.33  4.0995060E-01
   7154.67  4.0729149E-01
   7155.00  4.0446455E-01
   7155.33  4.0138242E-01
   7155.67  3.9802298E-01
   7156.00  3.9435271E-01
   7156.33  3.9030743E-01
   7156.67  3.8593137E-01
   7157.00  3.8124943E-01
   7157.33  3.7628322E-01
   7157.67  3.7113798E-01
   7158.00  3.6588803E-01
   7158.33  3.6062433E-01
   7158.67  3.5544165E-01
   7159.00  3.5041675E-01
   7159.33  3.4566167E-01
   7159.67  3.4121958E-01
   7160.00  3.3714553E-01
   7160.33  3.3354713E-01
   7160.67  3.3041721E-01
   7161.00  3.2778742E-01
   7161.33  3.2574948E-01
   7161.67  3.2425138E-01
   7162.00  3.2329564E-01
   7162.33  3.2294229E-01
   7162.67  3.2310865E-01
   7163.00  3.2377551E-01
   7163.33  3.2497581E-01
   7163.67  3.2662235E-01
   7164.00  3.2869158E-01
   7164.33  3.3120670E-01
   7164.67  3.3409208E-01
   7165.00  3.3732621E-01
   7165.33  3.4092661E-01
   7165.67  3.4483087E-01
   7166.00  3.4902116E-01
   7166.33  3.5351090E-01
   7166.67  3.5824765E-01
   7167.00  3.6321503E-01
   7167.33  3.6842083E-01
   7167.67  3.7381992E-01
   7168.00  3.7939555E-01
   7168.33  3.8514644E-01
   7168.67  3.9103039E-01
   7169.00  3.9702564E-01
   7169.33  4.0311443E-01
   7169.67  4.0925339E-01
   7170.00  4.1540740E-01
   7170.33  4.2151946E-01
   7170.67  4.2752680E-01
   7171.00  4.3335032E-01
   7171.33  4.3880536E-01
   7171.67  4.4368349E-01
   7172.00  4.4766713E-01
