    FDMNES
    energy     <xanes>
   7097.00  4.8692580E-03
   7097.33  4.9781499E-03
   7097.67  5.0916313E-03
   7098.00  5.2099928E-03
   7098.33  5.3342638E-03
   7098.67  5.4642011E-03
   7099.00  5.6001958E-03
   7099.33  5.7435736E-03
   7099.67  5.8940800E-03
   7100.00  6.0522554E-03
   7100.33  6.2198516E-03
   7100.67  6.3966200E-03
   7101.00  6.5833309E-03
   7101.33  6.7823715E-03
   7101.67  6.9935385E-03
   7102.00  7.2179725E-03
   7102.33  7.4590506E-03
   7102.67  7.7167038E-03
   7103.00  7.9927008E-03
   7103.33  8.2920459E-03
   7103.67  8.6150094E-03
   7104.00  8.9644942E-03
   7104.33  9.3483620E-03
   7104.67  9.7677184E-03
   7105.00  1.0227681E-02
   7105.33  1.0741570E-02
   7105.67  1.1312617E-02
   7106.00  1.1950730E-02
   7106.33  1.2680850E-02
   7106.67  1.3512122E-02
   7107.00  1.4466301E-02
   7107.33  1.5597068E-02
   7107.67  1.6932535E-02
   7108.00  1.8529971E-02
   7108.33  2.0531280E-02
   7108.67  2.3041534E-02
   7109.00  2.6260465E-02
   7109.33  3.0710161E-02
   7109.67  3.6954006E-02
   7110.00  4.6090543E-02
   7110.33  6.1255366E-02
   7110.67  8.5869608E-02
   7111.00  1.2169822E-01
   7111.33  1.6198034E-01
   7111.67  1.9596265E-01
   7112.00  2.2704456E-01
   7112.33  2.7049145E-01
   7112.67  3.0615478E-01
   7113.00  2.9160632E-01
   7113.33  2.3266749E-01
   7113.67  1.7929881E-01
   7114.00  1.4271947E-01
   7114.33  1.2163742E-01
   7114.67  1.0954523E-01
   7115.00  1.0371697E-01
   7115.33  1.0310966E-01
   7115.67  1.0658644E-01
   7116.00  1.1410411E-01
   7116.33  1.2640689E-01
   7116.67  1.4349234E-01
   7117.00  1.6533250E-01
   7117.33  1.8821711E-01
   7117.67  2.0474726E-01
   7118.00  2.1310207E-01
   7118.33  2.1751647E-01
   7118.67  2.2177168E-01
   7119.00  2.2671014E-01
   7119.33  2.3468682E-01
   7119.67  2.4679211E-01
   7120.00  2.6190812E-01
   7120.33  2.7737670E-01
   7120.67  2.9157739E-01
   7121.00  3.0480756E-01
   7121.33  3.1869311E-01
   7121.67  3.3500639E-01
   7122.00  3.5511938E-01
   7122.33  3.8112704E-01
   7122.67  4.1280021E-01
   7123.00  4.4874506E-01
   7123.33  4.8564723E-01
   7123.67  5.1903320E-01
   7124.00  5.4594805E-01
   7124.33  5.6499430E-01
   7124.67  5.7917211E-01
   7125.00  5.9068618E-01
   7125.33  6.0115505E-01
   7125.67  6.1138060E-01
   7126.00  6.2105251E-01
   7126.33  6.2888114E-01
   7126.67  6.3466478E-01
   7127.00  6.3872721E-01
   7127.33  6.4036318E-01
   7127.67  6.3903885E-01
   7128.00  6.3520407E-01
   7128.33  6.3042442E-01
   7128.67  6.2562581E-01
   7129.00  6.1988757E-01
   7129.33  6.1159068E-01
   7129.67  6.0156896E-01
   7130.00  5.9154944E-01
   7130.33  5.8349004E-01
   7130.67  5.7780556E-01
   7131.00  5.7432750E-01
   7131.33  5.7263737E-01
   7131.67  5.7173299E-01
   7132.00  5.7097510E-01
   7132.33  5.6997460E-01
   7132.67  5.6890203E-01
   7133.00  5.6793887E-01
   7133.33  5.6717653E-01
   7133.67  5.6665587E-01
   7134.00  5.6646706E-01
   7134.33  5.6677511E-01
   7134.67  5.6760026E-01
   7135.00  5.6895488E-01
   7135.33  5.7082979E-01
   7135.67  5.7301913E-01
   7136.00  5.7536743E-01
   7136.33  5.7772620E-01
   7136.67  5.8001715E-01
   7137.00  5.8222705E-01
   7137.33  5.8434720E-01
   7137.67  5.8635863E-01
   7138.00  5.8819843E-01
   7138.33  5.8972761E-01
   7138.67  5.9086563E-01
   7139.00  5.9152132E-01
   7139.33  5.9154328E-01
   7139.67  5.9096538E-01
   7140.00  5.8979610E-01
   7140.33  5.8802000E-01
   7140.67  5.8579976E-01
   7141.00  5.8324734E-01
   7141.33  5.8049681E-01
   7141.67  5.7774018E-01
   7142.00  5.7512074E-01
   7142.33  5.7281784E-01
   7142.67  5.7089852E-01
   7143.00  5.6941341E-01
   7143.33  5.6843819E-01
   7143.67  5.6789289E-01
   7144.00  5.6772627E-01
   7144.33  5.6788490E-01
   7144.67  5.6821849E-01
   7145.00  5.6861467E-01
   7145.33  5.6892101E-01
   7145.67  5.6899963E-01
   7146.00  5.6872673E-01
   7146.33  5.6791178E-01
   7146.67  5.6651051E-01
   7147.00  5.6445992E-01
   7147.33  5.6163427E-01
   7147.67  5.5811459E-01
   7148.00  5.5391919E-01
   7148.33  5.4900916E-01
   7148.67  5.4351932E-01
   7149.00  5.3750549E-01
   7149.33  5.3098200E-01
   7149.67  5.2408106E-01
   7150.00  5.1687308E-01
   7150.33  5.0942191E-01
   7150.67  5.0184418E-01
   7151.00  4.9421259E-01
   7151.33  4.8660177E-01
   7151.67  4.7906929E-01
   7152.00  4.7165942E-01
   7152.33  4.6443622E-01
   7152.67  4.5741437E-01
   7153.00  4.5061912E-01
   7153.33  4.4410571E-01
   7153.67  4.3786312E-01
   7154.00  4.3190618E-01
   7154.33  4.2628196E-01
   7154.67  4.2095705E-01
   7155.00  4.1593417E-01
   7155.33  4.1125379E-01
   7155.67  4.0687178E-01
   7156.00  4.0277850E-01
   7156.33  3.9899706E-01
   7156.67  3.9548268E-01
   7157.00  3.9222894E-01
   7157.33  3.8926341E-01
   7157.67  3.8655271E-01
   7158.00  3.8409841E-01
   7158.33  3.8193722E-01
   7158.67  3.8004201E-01
   7159.00  3.7841749E-01
   7159.33  3.7710061E-01
   7159.67  3.7605471E-01
   7160.00  3.7527387E-01
   7160.33  3.7477989E-01
   7160.67  3.7452338E-01
   7161.00  3.7448322E-01
   7161.33  3.7465506E-01
   7161.67  3.7498616E-01
   7162.00  3.7545183E-01
   7162.33  3.7603871E-01
   7162.67  3.7671057E-01
   7163.00  3.7745255E-01
   7163.33  3.7826110E-01
   7163.67  3.7912464E-01
   7164.00  3.8004465E-01
   7164.33  3.8103669E-01
   7164.67  3.8210601E-01
   7165.00  3.8326759E-01
   7165.33  3.8455577E-01
   7165.67  3.8597726E-01
   7166.00  3.8754839E-01
   7166.33  3.8930573E-01
   7166.67  3.9124030E-01
   7167.00  3.9335809E-01
   7167.33  3.9568248E-01
   7167.67  3.9818356E-01
   7168.00  4.0085160E-01
   7168.33  4.0368999E-01
   7168.67  4.0665965E-01
   7169.00  4.0974016E-01
   7169.33  4.1291562E-01
   7169.67  4.1614621E-01
   7170.00  4.1940413E-01
   7170.33  4.2265189E-01
   7170.67  4.2584689E-01
   7171.00  4.2894075E-01
   7171.33  4.3182901E-01
   7171.67  4.3440082E-01
   7172.00  4.3649166E-01
