    FDMNES
    energy     <xanes>
   7097.00  4.8875931E-03
   7097.33  4.9967826E-03
   7097.67  5.1105381E-03
   7098.00  5.2291461E-03
   7098.33  5.3536255E-03
   7098.67  5.4837302E-03
   7099.00  5.6198443E-03
   7099.33  5.7632767E-03
   7099.67  5.9137690E-03
   7100.00  6.0718502E-03
   7100.33  6.2392450E-03
   7100.67  6.4156985E-03
   7101.00  6.6019630E-03
   7101.33  6.8003812E-03
   7101.67  7.0107395E-03
   7102.00  7.2341487E-03
   7102.33  7.4739120E-03
   7102.67  7.7299425E-03
   7103.00  8.0039579E-03
   7103.33  8.3008368E-03
   7103.67  8.6208164E-03
   7104.00  8.9667090E-03
   7104.33  9.3461565E-03
   7104.67  9.7601979E-03
   7105.00  1.0213785E-02
   7105.33  1.0719835E-02
   7105.67  1.1281442E-02
   7106.00  1.1908192E-02
   7106.33  1.2624259E-02
   7106.67  1.3438489E-02
   7107.00  1.4371991E-02
   7107.33  1.5476935E-02
   7107.67  1.6780816E-02
   7108.00  1.8339674E-02
   7108.33  2.0292709E-02
   7108.67  2.2744537E-02
   7109.00  2.5894366E-02
   7109.33  3.0266222E-02
   7109.67  3.6438714E-02
   7110.00  4.5545547E-02
   7110.33  6.0822235E-02
   7110.67  8.5532396E-02
   7111.00  1.1993094E-01
   7111.33  1.5509922E-01
   7111.67  1.8284091E-01
   7112.00  2.0057662E-01
   7112.33  2.3169933E-01
   7112.67  2.8083565E-01
   7113.00  3.0406863E-01
   7113.33  2.5582059E-01
   7113.67  1.9515770E-01
   7114.00  1.4970796E-01
   7114.33  1.2290959E-01
   7114.67  1.0711667E-01
   7115.00  9.8453591E-02
   7115.33  9.5260387E-02
   7115.67  9.5990840E-02
   7116.00  1.0047180E-01
   7116.33  1.0972316E-01
   7116.67  1.2434933E-01
   7117.00  1.4520350E-01
   7117.33  1.7152919E-01
   7117.67  1.9980105E-01
   7118.00  2.2750446E-01
   7118.33  2.4620949E-01
   7118.67  2.5529057E-01
   7119.00  2.5934239E-01
   7119.33  2.6333404E-01
   7119.67  2.7171223E-01
   7120.00  2.8638677E-01
   7120.33  3.0554042E-01
   7120.67  3.2402349E-01
   7121.00  3.3968090E-01
   7121.33  3.5305537E-01
   7121.67  3.6677852E-01
   7122.00  3.8267045E-01
   7122.33  4.0343565E-01
   7122.67  4.3123731E-01
   7123.00  4.6683754E-01
   7123.33  5.0828142E-01
   7123.67  5.4947501E-01
   7124.00  5.8506125E-01
   7124.33  6.0992675E-01
   7124.67  6.2594422E-01
   7125.00  6.3613086E-01
   7125.33  6.4368198E-01
   7125.67  6.5098978E-01
   7126.00  6.5838153E-01
   7126.33  6.6456756E-01
   7126.67  6.6860543E-01
   7127.00  6.7110669E-01
   7127.33  6.7149376E-01
   7127.67  6.6626892E-01
   7128.00  6.5365045E-01
   7128.33  6.3502852E-01
   7128.67  6.1548621E-01
   7129.00  5.9854602E-01
   7129.33  5.8696777E-01
   7129.67  5.7994351E-01
   7130.00  5.7588889E-01
   7130.33  5.7284457E-01
   7130.67  5.6973481E-01
   7131.00  5.6671769E-01
   7131.33  5.6444246E-01
   7131.67  5.6315329E-01
   7132.00  5.6278805E-01
   7132.33  5.6315186E-01
   7132.67  5.6408094E-01
   7133.00  5.6565884E-01
   7133.33  5.6785533E-01
   7133.67  5.7031620E-01
   7134.00  5.7280262E-01
   7134.33  5.7510294E-01
   7134.67  5.7714395E-01
   7135.00  5.7891732E-01
   7135.33  5.8043903E-01
   7135.67  5.8178227E-01
   7136.00  5.8294653E-01
   7136.33  5.8384839E-01
   7136.67  5.8444653E-01
   7137.00  5.8471475E-01
   7137.33  5.8466202E-01
   7137.67  5.8444225E-01
   7138.00  5.8418493E-01
   7138.33  5.8403815E-01
   7138.67  5.8406592E-01
   7139.00  5.8426625E-01
   7139.33  5.8457936E-01
   7139.67  5.8486827E-01
   7140.00  5.8500103E-01
   7140.33  5.8477118E-01
   7140.67  5.8405957E-01
   7141.00  5.8275413E-01
   7141.33  5.8069242E-01
   7141.67  5.7795467E-01
   7142.00  5.7460224E-01
   7142.33  5.7071131E-01
   7142.67  5.6652330E-01
   7143.00  5.6220700E-01
   7143.33  5.5795330E-01
   7143.67  5.5390471E-01
   7144.00  5.5015362E-01
   7144.33  5.4681042E-01
   7144.67  5.4385375E-01
   7145.00  5.4127595E-01
   7145.33  5.3908362E-01
   7145.67  5.3717409E-01
   7146.00  5.3548016E-01
   7146.33  5.3392195E-01
   7146.67  5.3237426E-01
   7147.00  5.3073462E-01
   7147.33  5.2885492E-01
   7147.67  5.2664830E-01
   7148.00  5.2403208E-01
   7148.33  5.2087534E-01
   7148.67  5.1719958E-01
   7149.00  5.1299785E-01
   7149.33  5.0822538E-01
   7149.67  5.0298667E-01
   7150.00  4.9732922E-01
   7150.33  4.9127143E-01
   7150.67  4.8492370E-01
   7151.00  4.7834321E-01
   7151.33  4.7158189E-01
   7151.67  4.6473445E-01
   7152.00  4.5785623E-01
   7152.33  4.5101382E-01
   7152.67  4.4427037E-01
   7153.00  4.3768119E-01
   7153.33  4.3133176E-01
   7153.67  4.2524902E-01
   7154.00  4.1947161E-01
   7154.33  4.1407465E-01
   7154.67  4.0903542E-01
   7155.00  4.0436036E-01
   7155.33  4.0009060E-01
   7155.67  3.9616727E-01
   7156.00  3.9257296E-01
   7156.33  3.8932183E-01
   7156.67  3.8635518E-01
   7157.00  3.8366092E-01
   7157.33  3.8125680E-01
   7157.67  3.7909902E-01
   7158.00  3.7718296E-01
   7158.33  3.7553922E-01
   7158.67  3.7414270E-01
   7159.00  3.7299958E-01
   7159.33  3.7214937E-01
   7159.67  3.7156478E-01
   7160.00  3.7124773E-01
   7160.33  3.7122890E-01
   7160.67  3.7146665E-01
   7161.00  3.7194943E-01
   7161.33  3.7269141E-01
   7161.67  3.7364737E-01
   7162.00  3.7479743E-01
   7162.33  3.7613663E-01
   7162.67  3.7761838E-01
   7163.00  3.7922162E-01
   7163.33  3.8093537E-01
   7163.67  3.8272544E-01
   7164.00  3.8457476E-01
   7164.33  3.8647125E-01
   7164.67  3.8839525E-01
   7165.00  3.9033646E-01
   7165.33  3.9228577E-01
   7165.67  3.9423431E-01
   7166.00  3.9617691E-01
   7166.33  3.9810813E-01
   7166.67  4.0002730E-01
   7167.00  4.0193548E-01
   7167.33  4.0383654E-01
   7167.67  4.0573948E-01
   7168.00  4.0765379E-01
   7168.33  4.0959514E-01
   7168.67  4.1157240E-01
   7169.00  4.1359445E-01
   7169.33  4.1567591E-01
   7169.67  4.1781237E-01
   7170.00  4.1999940E-01
   7170.33  4.2222779E-01
   7170.67  4.2446729E-01
   7171.00  4.2668267E-01
   7171.33  4.2879678E-01
   7171.67  4.3070923E-01
   7172.00  4.3228102E-01
