    FDMNES
    energy     <xanes>
   7097.00  4.9678073E-03
   7097.33  5.0807318E-03
   7097.67  5.1986615E-03
   7098.00  5.3219324E-03
   7098.33  5.4516988E-03
   7098.67  5.5877210E-03
   7099.00  5.7304574E-03
   7099.33  5.8814169E-03
   7099.67  6.0403558E-03
   7100.00  6.2079168E-03
   7100.33  6.3861266E-03
   7100.67  6.5747618E-03
   7101.00  6.7747543E-03
   7101.33  6.9889155E-03
   7101.67  7.2170984E-03
   7102.00  7.4607074E-03
   7102.33  7.7237990E-03
   7102.67  8.0064281E-03
   7103.00  8.3108143E-03
   7103.33  8.6431025E-03
   7103.67  9.0038391E-03
   7104.00  9.3967464E-03
   7104.33  9.8317220E-03
   7104.67  1.0310514E-02
   7105.00  1.0839855E-02
   7105.33  1.1437009E-02
   7105.67  1.2106829E-02
   7106.00  1.2862762E-02
   7106.33  1.3738339E-02
   7106.67  1.4747287E-02
   7107.00  1.5920426E-02
   7107.33  1.7333539E-02
   7107.67  1.9030296E-02
   7108.00  2.1097004E-02
   7108.33  2.3748922E-02
   7108.67  2.7161019E-02
   7109.00  3.1664160E-02
   7109.33  3.8143042E-02
   7109.67  4.7645032E-02
   7110.00  6.2240439E-02
   7110.33  8.7889522E-02
   7110.67  1.3012261E-01
   7111.00  1.8555739E-01
   7111.33  2.2540151E-01
   7111.67  2.4147468E-01
   7112.00  2.4333156E-01
   7112.33  2.4009779E-01
   7112.67  2.3743886E-01
   7113.00  2.3745730E-01
   7113.33  2.4148249E-01
   7113.67  2.4849908E-01
   7114.00  2.5672392E-01
   7114.33  2.6251122E-01
   7114.67  2.6285624E-01
   7115.00  2.5667300E-01
   7115.33  2.4457629E-01
   7115.67  2.2989755E-01
   7116.00  2.1481547E-01
   7116.33  2.0112681E-01
   7116.67  1.8928488E-01
   7117.00  1.7919627E-01
   7117.33  1.7057450E-01
   7117.67  1.6281069E-01
   7118.00  1.5577177E-01
   7118.33  1.4981387E-01
   7118.67  1.4528623E-01
   7119.00  1.4253743E-01
   7119.33  1.4196371E-01
   7119.67  1.4320697E-01
   7120.00  1.4605781E-01
   7120.33  1.5047170E-01
   7120.67  1.5616823E-01
   7121.00  1.6315008E-01
   7121.33  1.7167116E-01
   7121.67  1.8169946E-01
   7122.00  1.9337714E-01
   7122.33  2.0709930E-01
   7122.67  2.2281717E-01
   7123.00  2.4066319E-01
   7123.33  2.6095531E-01
   7123.67  2.8323919E-01
   7124.00  3.0706752E-01
   7124.33  3.3169974E-01
   7124.67  3.5609748E-01
   7125.00  3.7953173E-01
   7125.33  4.0130651E-01
   7125.67  4.2158503E-01
   7126.00  4.4068748E-01
   7126.33  4.5911818E-01
   7126.67  4.7755315E-01
   7127.00  4.9640999E-01
   7127.33  5.1607120E-01
   7127.67  5.3649182E-01
   7128.00  5.5750506E-01
   7128.33  5.7873051E-01
   7128.67  5.9958027E-01
   7129.00  6.1951766E-01
   7129.33  6.3777728E-01
   7129.67  6.5411554E-01
   7130.00  6.6833518E-01
   7130.33  6.8015906E-01
   7130.67  6.9005364E-01
   7131.00  6.9831911E-01
   7131.33  7.0523333E-01
   7131.67  7.1136878E-01
   7132.00  7.1701136E-01
   7132.33  7.2227874E-01
   7132.67  7.2710086E-01
   7133.00  7.3111121E-01
   7133.33  7.3334989E-01
   7133.67  7.3296572E-01
   7134.00  7.2899551E-01
   7134.33  7.2000886E-01
   7134.67  7.0631907E-01
   7135.00  6.8838912E-01
   7135.33  6.6708781E-01
   7135.67  6.4444834E-01
   7136.00  6.2189619E-01
   7136.33  6.0098097E-01
   7136.67  5.8244372E-01
   7137.00  5.6672418E-01
   7137.33  5.5437484E-01
   7137.67  5.4493996E-01
   7138.00  5.3821798E-01
   7138.33  5.3419271E-01
   7138.67  5.3221803E-01
   7139.00  5.3199846E-01
   7139.33  5.3338340E-01
   7139.67  5.3590412E-01
   7140.00  5.3934092E-01
   7140.33  5.4353617E-01
   7140.67  5.4816170E-01
   7141.00  5.5299505E-01
   7141.33  5.5774314E-01
   7141.67  5.6210565E-01
   7142.00  5.6580502E-01
   7142.33  5.6840577E-01
   7142.67  5.6976199E-01
   7143.00  5.6970967E-01
   7143.33  5.6797650E-01
   7143.67  5.6479033E-01
   7144.00  5.6028276E-01
   7144.33  5.5456040E-01
   7144.67  5.4805797E-01
   7145.00  5.4104944E-01
   7145.33  5.3382493E-01
   7145.67  5.2669125E-01
   7146.00  5.1984494E-01
   7146.33  5.1352112E-01
   7146.67  5.0779075E-01
   7147.00  5.0273103E-01
   7147.33  4.9848919E-01
   7147.67  4.9499799E-01
   7148.00  4.9225405E-01
   7148.33  4.9032671E-01
   7148.67  4.8909258E-01
   7149.00  4.8851522E-01
   7149.33  4.8861752E-01
   7149.67  4.8926138E-01
   7150.00  4.9038655E-01
   7150.33  4.9196807E-01
   7150.67  4.9387619E-01
   7151.00  4.9604268E-01
   7151.33  4.9841328E-01
   7151.67  5.0089391E-01
   7152.00  5.0342961E-01
   7152.33  5.0596536E-01
   7152.67  5.0845622E-01
   7153.00  5.1087167E-01
   7153.33  5.1317311E-01
   7153.67  5.1535727E-01
   7154.00  5.1741753E-01
   7154.33  5.1933798E-01
   7154.67  5.2114006E-01
   7155.00  5.2283259E-01
   7155.33  5.2441705E-01
   7155.67  5.2592144E-01
   7156.00  5.2736096E-01
   7156.33  5.2874895E-01
   7156.67  5.3010720E-01
   7157.00  5.3143727E-01
   7157.33  5.3273155E-01
   7157.67  5.3400030E-01
   7158.00  5.3525097E-01
   7158.33  5.3648837E-01
   7158.67  5.3771592E-01
   7159.00  5.3893182E-01
   7159.33  5.4012850E-01
   7159.67  5.4129932E-01
   7160.00  5.4243432E-01
   7160.33  5.4351318E-01
   7160.67  5.4452551E-01
   7161.00  5.4545521E-01
   7161.33  5.4626891E-01
   7161.67  5.4695716E-01
   7162.00  5.4749924E-01
   7162.33  5.4784977E-01
   7162.67  5.4801342E-01
   7163.00  5.4798390E-01
   7163.33  5.4772512E-01
   7163.67  5.4724495E-01
   7164.00  5.4652933E-01
   7164.33  5.4553609E-01
   7164.67  5.4428999E-01
   7165.00  5.4278988E-01
   7165.33  5.4100878E-01
   7165.67  5.3898767E-01
   7166.00  5.3673850E-01
   7166.33  5.3425325E-01
   7166.67  5.3158099E-01
   7167.00  5.2874401E-01
   7167.33  5.2575308E-01
   7167.67  5.2265583E-01
   7168.00  5.1948037E-01
   7168.33  5.1625459E-01
   7168.67  5.1301729E-01
   7169.00  5.0979665E-01
   7169.33  5.0663047E-01
   7169.67  5.0354300E-01
   7170.00  5.0055860E-01
   7170.33  4.9772011E-01
   7170.67  4.9503869E-01
   7171.00  4.9254169E-01
   7171.33  4.9030170E-01
   7171.67  4.8836167E-01
   7172.00  4.8680854E-01
