    FDMNES
    energy     <xanes>
   7097.00  4.1318498E-03
   7097.33  4.2101514E-03
   7097.67  4.2912447E-03
   7098.00  4.3752865E-03
   7098.33  4.4628708E-03
   7098.67  4.5538250E-03
   7099.00  4.6483572E-03
   7099.33  4.7472163E-03
   7099.67  4.8502202E-03
   7100.00  4.9576535E-03
   7100.33  5.0704861E-03
   7100.67  5.1885361E-03
   7101.00  5.3122060E-03
   7101.33  5.4427958E-03
   7101.67  5.5801450E-03
   7102.00  5.7248491E-03
   7102.33  5.8787247E-03
   7102.67  6.0416843E-03
   7103.00  6.2146557E-03
   7103.33  6.4003180E-03
   7103.67  6.5987772E-03
   7104.00  6.8115786E-03
   7104.33  7.0429532E-03
   7104.67  7.2935037E-03
   7105.00  7.5660285E-03
   7105.33  7.8678359E-03
   7105.67  8.2008540E-03
   7106.00  8.5707339E-03
   7106.33  8.9917053E-03
   7106.67  9.4695979E-03
   7107.00  1.0017640E-02
   7107.33  1.0668542E-02
   7107.67  1.1441695E-02
   7108.00  1.2375355E-02
   7108.33  1.3565498E-02
   7108.67  1.5093067E-02
   7109.00  1.7111200E-02
   7109.33  2.0033314E-02
   7109.67  2.4365520E-02
   7110.00  3.1112688E-02
   7110.33  4.3170598E-02
   7110.67  6.3024900E-02
   7111.00  8.7850702E-02
   7111.33  1.0138872E-01
   7111.67  1.0110325E-01
   7112.00  9.4098879E-02
   7112.33  8.9035546E-02
   7112.67  9.1574055E-02
   7113.00  1.0015569E-01
   7113.33  1.0067971E-01
   7113.67  9.0679694E-02
   7114.00  7.8248605E-02
   7114.33  6.6227522E-02
   7114.67  5.6041698E-02
   7115.00  4.8618316E-02
   7115.33  4.4421795E-02
   7115.67  4.2420022E-02
   7116.00  4.1838651E-02
   7116.33  4.1887558E-02
   7116.67  4.2038948E-02
   7117.00  4.2388245E-02
   7117.33  4.3304770E-02
   7117.67  4.4858947E-02
   7118.00  4.7023161E-02
   7118.33  4.9838899E-02
   7118.67  5.3278613E-02
   7119.00  5.7489101E-02
   7119.33  6.2912945E-02
   7119.67  6.9710417E-02
   7120.00  7.8058167E-02
   7120.33  8.8417938E-02
   7120.67  1.0095841E-01
   7121.00  1.1614130E-01
   7121.33  1.3489678E-01
   7121.67  1.5687687E-01
   7122.00  1.8125738E-01
   7122.33  2.0666414E-01
   7122.67  2.3215057E-01
   7123.00  2.5751789E-01
   7123.33  2.8287001E-01
   7123.67  3.0888891E-01
   7124.00  3.3666176E-01
   7124.33  3.6825943E-01
   7124.67  4.0481789E-01
   7125.00  4.4675483E-01
   7125.33  4.9232900E-01
   7125.67  5.3712891E-01
   7126.00  5.7906675E-01
   7126.33  6.1650618E-01
   7126.67  6.4798126E-01
   7127.00  6.7270828E-01
   7127.33  6.9239275E-01
   7127.67  7.1042161E-01
   7128.00  7.2796372E-01
   7128.33  7.4507211E-01
   7128.67  7.6082042E-01
   7129.00  7.7446175E-01
   7129.33  7.8609485E-01
   7129.67  7.9707008E-01
   7130.00  8.0807070E-01
   7130.33  8.1890605E-01
   7130.67  8.2860554E-01
   7131.00  8.3631426E-01
   7131.33  8.4140505E-01
   7131.67  8.4462379E-01
   7132.00  8.4684675E-01
   7132.33  8.4926676E-01
   7132.67  8.5243849E-01
   7133.00  8.5594518E-01
   7133.33  8.5827896E-01
   7133.67  8.5808525E-01
   7134.00  8.5461602E-01
   7134.33  8.4709228E-01
   7134.67  8.3582316E-01
   7135.00  8.2083550E-01
   7135.33  8.0233662E-01
   7135.67  7.8208549E-01
   7136.00  7.6138981E-01
   7136.33  7.4123201E-01
   7136.67  7.2181155E-01
   7137.00  7.0311554E-01
   7137.33  6.8516604E-01
   7137.67  6.6784029E-01
   7138.00  6.5113363E-01
   7138.33  6.3515516E-01
   7138.67  6.1988374E-01
   7139.00  6.0538806E-01
   7139.33  5.9186314E-01
   7139.67  5.7928592E-01
   7140.00  5.6772141E-01
   7140.33  5.5735967E-01
   7140.67  5.4809367E-01
   7141.00  5.3992598E-01
   7141.33  5.3297427E-01
   7141.67  5.2706423E-01
   7142.00  5.2215416E-01
   7142.33  5.1829338E-01
   7142.67  5.1526728E-01
   7143.00  5.1298437E-01
   7143.33  5.1142193E-01
   7143.67  5.1040374E-01
   7144.00  5.0985154E-01
   7144.33  5.0972295E-01
   7144.67  5.0988040E-01
   7145.00  5.1024451E-01
   7145.33  5.1073606E-01
   7145.67  5.1124963E-01
   7146.00  5.1171120E-01
   7146.33  5.1202350E-01
   7146.67  5.1212486E-01
   7147.00  5.1194585E-01
   7147.33  5.1135351E-01
   7147.67  5.1030585E-01
   7148.00  5.0873272E-01
   7148.33  5.0647783E-01
   7148.67  5.0353931E-01
   7149.00  4.9985696E-01
   7149.33  4.9528509E-01
   7149.67  4.8991893E-01
   7150.00  4.8379725E-01
   7150.33  4.7693342E-01
   7150.67  4.6955484E-01
   7151.00  4.6181048E-01
   7151.33  4.5384648E-01
   7151.67  4.4582481E-01
   7152.00  4.3782814E-01
   7152.33  4.2991688E-01
   7152.67  4.2208316E-01
   7153.00  4.1431368E-01
   7153.33  4.0662297E-01
   7153.67  3.9904974E-01
   7154.00  3.9167027E-01
   7154.33  3.8463493E-01
   7154.67  3.7801633E-01
   7155.00  3.7189220E-01
   7155.33  3.6638876E-01
   7155.67  3.6145503E-01
   7156.00  3.5707923E-01
   7156.33  3.5329126E-01
   7156.67  3.4997935E-01
   7157.00  3.4710251E-01
   7157.33  3.4466682E-01
   7157.67  3.4259525E-01
   7158.00  3.4087679E-01
   7158.33  3.3955215E-01
   7158.67  3.3858124E-01
   7159.00  3.3797164E-01
   7159.33  3.3777776E-01
   7159.67  3.3795568E-01
   7160.00  3.3850566E-01
   7160.33  3.3947530E-01
   7160.67  3.4082104E-01
   7161.00  3.4254522E-01
   7161.33  3.4469584E-01
   7161.67  3.4722316E-01
   7162.00  3.5012064E-01
   7162.33  3.5341534E-01
   7162.67  3.5703483E-01
   7163.00  3.6094593E-01
   7163.33  3.6512920E-01
   7163.67  3.6949457E-01
   7164.00  3.7398518E-01
   7164.33  3.7853869E-01
   7164.67  3.8307871E-01
   7165.00  3.8755050E-01
   7165.33  3.9188761E-01
   7165.67  3.9606940E-01
   7166.00  4.0007668E-01
   7166.33  4.0387409E-01
   7166.67  4.0748562E-01
   7167.00  4.1091963E-01
   7167.33  4.1416858E-01
   7167.67  4.1726609E-01
   7168.00  4.2022232E-01
   7168.33  4.2303143E-01
   7168.67  4.2571844E-01
   7169.00  4.2828940E-01
   7169.33  4.3073636E-01
   7169.67  4.3307786E-01
   7170.00  4.3531706E-01
   7170.33  4.3744327E-01
   7170.67  4.3946679E-01
   7171.00  4.4137901E-01
   7171.33  4.4313663E-01
   7171.67  4.4469731E-01
   7172.00  4.4597612E-01
