    FDMNES
    energy     <xanes>
   7097.00  4.2990412E-03
   7097.33  4.3909476E-03
   7097.67  4.4867914E-03
   7098.00  4.5868410E-03
   7098.33  4.6920126E-03
   7098.67  4.8021261E-03
   7099.00  4.9175531E-03
   7099.33  5.0395041E-03
   7099.67  5.1678040E-03
   7100.00  5.3029839E-03
   7100.33  5.4466933E-03
   7100.67  5.5987896E-03
   7101.00  5.7600602E-03
   7101.33  5.9328381E-03
   7101.67  6.1170732E-03
   7102.00  6.3139848E-03
   7102.33  6.5270244E-03
   7102.67  6.7563689E-03
   7103.00  7.0040085E-03
   7103.33  7.2753368E-03
   7103.67  7.5710726E-03
   7104.00  7.8946789E-03
   7104.33  8.2551785E-03
   7104.67  8.6546162E-03
   7105.00  9.0995216E-03
   7105.33  9.6063537E-03
   7105.67  1.0180624E-02
   7106.00  1.0835995E-02
   7106.33  1.1606103E-02
   7106.67  1.2506577E-02
   7107.00  1.3570307E-02
   7107.33  1.4877650E-02
   7107.67  1.6479171E-02
   7108.00  1.8471608E-02
   7108.33  2.1096171E-02
   7108.67  2.4559809E-02
   7109.00  2.9249228E-02
   7109.33  3.6201228E-02
   7109.67  4.6672464E-02
   7110.00  6.3141686E-02
   7110.33  9.2809119E-02
   7110.67  1.4302638E-01
   7111.00  2.1258051E-01
   7111.33  2.6855958E-01
   7111.67  2.8581214E-01
   7112.00  2.6428561E-01
   7112.33  2.1097340E-01
   7112.67  1.5738328E-01
   7113.00  1.1987237E-01
   7113.33  1.0019312E-01
   7113.67  9.1759190E-02
   7114.00  9.1264547E-02
   7114.33  9.2543499E-02
   7114.67  8.6458014E-02
   7115.00  7.3381060E-02
   7115.33  6.0308411E-02
   7115.67  5.0733168E-02
   7116.00  4.4541877E-02
   7116.33  4.0981918E-02
   7116.67  3.8918537E-02
   7117.00  3.7860418E-02
   7117.33  3.7500737E-02
   7117.67  3.7581933E-02
   7118.00  3.8094382E-02
   7118.33  3.9139266E-02
   7118.67  4.0649628E-02
   7119.00  4.2575126E-02
   7119.33  4.4927398E-02
   7119.67  4.7693796E-02
   7120.00  5.0961678E-02
   7120.33  5.4993577E-02
   7120.67  5.9963900E-02
   7121.00  6.6130960E-02
   7121.33  7.3972666E-02
   7121.67  8.3522752E-02
   7122.00  9.4858827E-02
   7122.33  1.0822921E-01
   7122.67  1.2366887E-01
   7123.00  1.4175776E-01
   7123.33  1.6359883E-01
   7123.67  1.8885363E-01
   7124.00  2.1715255E-01
   7124.33  2.4913951E-01
   7124.67  2.8570707E-01
   7125.00  3.2629449E-01
   7125.33  3.6558480E-01
   7125.67  3.9829491E-01
   7126.00  4.2359875E-01
   7126.33  4.4261579E-01
   7126.67  4.5763761E-01
   7127.00  4.6977576E-01
   7127.33  4.8328274E-01
   7127.67  5.0494138E-01
   7128.00  5.3922072E-01
   7128.33  5.8844417E-01
   7128.67  6.4731235E-01
   7129.00  7.1036307E-01
   7129.33  7.6894565E-01
   7129.67  8.1523818E-01
   7130.00  8.4462187E-01
   7130.33  8.5531250E-01
   7130.67  8.5483590E-01
   7131.00  8.4883464E-01
   7131.33  8.4187600E-01
   7131.67  8.3612511E-01
   7132.00  8.3143983E-01
   7132.33  8.2625437E-01
   7132.67  8.1970139E-01
   7133.00  8.1234418E-01
   7133.33  8.0528874E-01
   7133.67  7.9861008E-01
   7134.00  7.9164861E-01
   7134.33  7.8433538E-01
   7134.67  7.7861712E-01
   7135.00  7.7669497E-01
   7135.33  7.8017942E-01
   7135.67  7.8673113E-01
   7136.00  7.9335734E-01
   7136.33  7.9666315E-01
   7136.67  7.9605908E-01
   7137.00  7.9221572E-01
   7137.33  7.8621837E-01
   7137.67  7.7930492E-01
   7138.00  7.7186015E-01
   7138.33  7.6386409E-01
   7138.67  7.5521848E-01
   7139.00  7.4577410E-01
   7139.33  7.3532822E-01
   7139.67  7.2402777E-01
   7140.00  7.1200807E-01
   7140.33  6.9947367E-01
   7140.67  6.8682569E-01
   7141.00  6.7439547E-01
   7141.33  6.6265111E-01
   7141.67  6.5189304E-01
   7142.00  6.4240942E-01
   7142.33  6.3462525E-01
   7142.67  6.2848195E-01
   7143.00  6.2401958E-01
   7143.33  6.2139382E-01
   7143.67  6.2022851E-01
   7144.00  6.2026130E-01
   7144.33  6.2114172E-01
   7144.67  6.2221225E-01
   7145.00  6.2295363E-01
   7145.33  6.2271471E-01
   7145.67  6.2123370E-01
   7146.00  6.1837277E-01
   7146.33  6.1399179E-01
   7146.67  6.0841875E-01
   7147.00  6.0183063E-01
   7147.33  5.9432640E-01
   7147.67  5.8617132E-01
   7148.00  5.7746705E-01
   7148.33  5.6823824E-01
   7148.67  5.5860784E-01
   7149.00  5.4862908E-01
   7149.33  5.3833798E-01
   7149.67  5.2785604E-01
   7150.00  5.1725673E-01
   7150.33  5.0660242E-01
   7150.67  4.9596591E-01
   7151.00  4.8541124E-01
   7151.33  4.7503865E-01
   7151.67  4.6491137E-01
   7152.00  4.5510183E-01
   7152.33  4.4574102E-01
   7152.67  4.3685176E-01
   7153.00  4.2848325E-01
   7153.33  4.2073356E-01
   7153.67  4.1352703E-01
   7154.00  4.0682998E-01
   7154.33  4.0062012E-01
   7154.67  3.9472816E-01
   7155.00  3.8903869E-01
   7155.33  3.8342275E-01
   7155.67  3.7773869E-01
   7156.00  3.7188199E-01
   7156.33  3.6571604E-01
   7156.67  3.5920263E-01
   7157.00  3.5230972E-01
   7157.33  3.4499274E-01
   7157.67  3.3734515E-01
   7158.00  3.2943828E-01
   7158.33  3.2136639E-01
   7158.67  3.1328210E-01
   7159.00  3.0530665E-01
   7159.33  2.9761013E-01
   7159.67  2.9029491E-01
   7160.00  2.8347106E-01
   7160.33  2.7734167E-01
   7160.67  2.7195651E-01
   7161.00  2.6742563E-01
   7161.33  2.6399468E-01
   7161.67  2.6164791E-01
   7162.00  2.6045870E-01
   7162.33  2.6063387E-01
   7162.67  2.6203334E-01
   7163.00  2.6463279E-01
   7163.33  2.6850451E-01
   7163.67  2.7339641E-01
   7164.00  2.7918464E-01
   7164.33  2.8579053E-01
   7164.67  2.9293736E-01
   7165.00  3.0046190E-01
   7165.33  3.0820643E-01
   7165.67  3.1598344E-01
   7166.00  3.2367389E-01
   7166.33  3.3114281E-01
   7166.67  3.3833531E-01
   7167.00  3.4520605E-01
   7167.33  3.5168251E-01
   7167.67  3.5780218E-01
   7168.00  3.6357379E-01
   7168.33  3.6897971E-01
   7168.67  3.7409546E-01
   7169.00  3.7895805E-01
   7169.33  3.8358839E-01
   7169.67  3.8805573E-01
   7170.00  3.9238836E-01
   7170.33  3.9658771E-01
   7170.67  4.0066012E-01
   7171.00  4.0457226E-01
   7171.33  4.0821174E-01
   7171.67  4.1145398E-01
   7172.00  4.1410158E-01
