    FDMNES
    energy     <xanes>
   7097.00  4.1635656E-03
   7097.33  4.2540978E-03
   7097.67  4.3485878E-03
   7098.00  4.4473058E-03
   7098.33  4.5511732E-03
   7098.67  4.6600083E-03
   7099.00  4.7741834E-03
   7099.33  4.8949121E-03
   7099.67  5.0220146E-03
   7100.00  5.1560193E-03
   7100.33  5.2985718E-03
   7100.67  5.4495183E-03
   7101.00  5.6096349E-03
   7101.33  5.7812323E-03
   7101.67  5.9642360E-03
   7102.00  6.1598333E-03
   7102.33  6.3714082E-03
   7102.67  6.5990841E-03
   7103.00  6.8447706E-03
   7103.33  7.1136840E-03
   7103.67  7.4064214E-03
   7104.00  7.7262472E-03
   7104.33  8.0817353E-03
   7104.67  8.4746347E-03
   7105.00  8.9109724E-03
   7105.33  9.4060477E-03
   7105.67  9.9645867E-03
   7106.00  1.0598891E-02
   7106.33  1.1339402E-02
   7106.67  1.2199392E-02
   7107.00  1.3207642E-02
   7107.33  1.4434616E-02
   7107.67  1.5922509E-02
   7108.00  1.7753323E-02
   7108.33  2.0131184E-02
   7108.67  2.3225032E-02
   7109.00  2.7352125E-02
   7109.33  3.3359346E-02
   7109.67  4.2251388E-02
   7110.00  5.6007847E-02
   7110.33  8.0329973E-02
   7110.67  1.2068257E-01
   7111.00  1.7483624E-01
   7111.33  2.1784744E-01
   7111.67  2.4023288E-01
   7112.00  2.4834076E-01
   7112.33  2.4689005E-01
   7112.67  2.3499702E-01
   7113.00  2.1155626E-01
   7113.33  1.8135799E-01
   7113.67  1.5235902E-01
   7114.00  1.2811410E-01
   7114.33  1.1033867E-01
   7114.67  9.7487299E-02
   7115.00  8.8340843E-02
   7115.33  8.1952561E-02
   7115.67  7.7227130E-02
   7116.00  7.3944716E-02
   7116.33  7.2211927E-02
   7116.67  7.1670902E-02
   7117.00  7.2143913E-02
   7117.33  7.3692132E-02
   7117.67  7.6279762E-02
   7118.00  7.9989145E-02
   7118.33  8.5036401E-02
   7118.67  9.1047056E-02
   7119.00  9.7198950E-02
   7119.33  1.0200905E-01
   7119.67  1.0544728E-01
   7120.00  1.0862599E-01
   7120.33  1.1286644E-01
   7120.67  1.1854255E-01
   7121.00  1.2588085E-01
   7121.33  1.3545940E-01
   7121.67  1.4743663E-01
   7122.00  1.6215868E-01
   7122.33  1.8038037E-01
   7122.67  2.0181713E-01
   7123.00  2.2601929E-01
   7123.33  2.5206825E-01
   7123.67  2.7870267E-01
   7124.00  3.0534184E-01
   7124.33  3.3124903E-01
   7124.67  3.5560230E-01
   7125.00  3.7748144E-01
   7125.33  3.9541658E-01
   7125.67  4.0881639E-01
   7126.00  4.1674118E-01
   7126.33  4.1819120E-01
   7126.67  4.1541898E-01
   7127.00  4.1015065E-01
   7127.33  4.0269093E-01
   7127.67  3.9260251E-01
   7128.00  3.7985605E-01
   7128.33  3.6628636E-01
   7128.67  3.5537647E-01
   7129.00  3.4982213E-01
   7129.33  3.5225526E-01
   7129.67  3.6188774E-01
   7130.00  3.7777981E-01
   7130.33  3.9875014E-01
   7130.67  4.2227387E-01
   7131.00  4.4641480E-01
   7131.33  4.6793129E-01
   7131.67  4.8413199E-01
   7132.00  4.9381018E-01
   7132.33  4.9730227E-01
   7132.67  4.9797301E-01
   7133.00  4.9811350E-01
   7133.33  4.9942297E-01
   7133.67  5.0185736E-01
   7134.00  5.0456917E-01
   7134.33  5.0610032E-01
   7134.67  5.0564308E-01
   7135.00  5.0306747E-01
   7135.33  4.9871567E-01
   7135.67  4.9359846E-01
   7136.00  4.8844870E-01
   7136.33  4.8427018E-01
   7136.67  4.8177008E-01
   7137.00  4.8142653E-01
   7137.33  4.8372230E-01
   7137.67  4.8815995E-01
   7138.00  4.9433552E-01
   7138.33  5.0189026E-01
   7138.67  5.1039746E-01
   7139.00  5.1993213E-01
   7139.33  5.3097963E-01
   7139.67  5.4360835E-01
   7140.00  5.5773198E-01
   7140.33  5.7296933E-01
   7140.67  5.8837467E-01
   7141.00  6.0313061E-01
   7141.33  6.1611841E-01
   7141.67  6.2682678E-01
   7142.00  6.3497628E-01
   7142.33  6.4041809E-01
   7142.67  6.4401469E-01
   7143.00  6.4638933E-01
   7143.33  6.4815901E-01
   7143.67  6.4994418E-01
   7144.00  6.5214083E-01
   7144.33  6.5524516E-01
   7144.67  6.5946153E-01
   7145.00  6.6496700E-01
   7145.33  6.7205298E-01
   7145.67  6.8057185E-01
   7146.00  6.9046228E-01
   7146.33  7.0164942E-01
   7146.67  7.1358645E-01
   7147.00  7.2580360E-01
   7147.33  7.3765690E-01
   7147.67  7.4865782E-01
   7148.00  7.5850328E-01
   7148.33  7.6689803E-01
   7148.67  7.7406896E-01
   7149.00  7.8016126E-01
   7149.33  7.8523419E-01
   7149.67  7.8949617E-01
   7150.00  7.9293549E-01
   7150.33  7.9532165E-01
   7150.67  7.9659440E-01
   7151.00  7.9659734E-01
   7151.33  7.9502050E-01
   7151.67  7.9198137E-01
   7152.00  7.8748329E-01
   7152.33  7.8140913E-01
   7152.67  7.7404470E-01
   7153.00  7.6551520E-01
   7153.33  7.5586094E-01
   7153.67  7.4538080E-01
   7154.00  7.3422289E-01
   7154.33  7.2248479E-01
   7154.67  7.1037559E-01
   7155.00  6.9800347E-01
   7155.33  6.8545537E-01
   7155.67  6.7283877E-01
   7156.00  6.6021743E-01
   7156.33  6.4766334E-01
   7156.67  6.3522820E-01
   7157.00  6.2296193E-01
   7157.33  6.1095391E-01
   7157.67  5.9923637E-01
   7158.00  5.8785526E-01
   7158.33  5.7690404E-01
   7158.67  5.6637269E-01
   7159.00  5.5628681E-01
   7159.33  5.4672489E-01
   7159.67  5.3763686E-01
   7160.00  5.2901699E-01
   7160.33  5.2090475E-01
   7160.67  5.1321946E-01
   7161.00  5.0593065E-01
   7161.33  4.9903287E-01
   7161.67  4.9242261E-01
   7162.00  4.8604568E-01
   7162.33  4.7986830E-01
   7162.67  4.7383182E-01
   7163.00  4.6792572E-01
   7163.33  4.6217557E-01
   7163.67  4.5658343E-01
   7164.00  4.5116355E-01
   7164.33  4.4593959E-01
   7164.67  4.4087506E-01
   7165.00  4.3595197E-01
   7165.33  4.3116529E-01
   7165.67  4.2648838E-01
   7166.00  4.2192244E-01
   7166.33  4.1749640E-01
   7166.67  4.1321848E-01
   7167.00  4.0911400E-01
   7167.33  4.0523816E-01
   7167.67  4.0159158E-01
   7168.00  3.9819223E-01
   7168.33  3.9508876E-01
   7168.67  3.9225997E-01
   7169.00  3.8971385E-01
   7169.33  3.8749457E-01
   7169.67  3.8557333E-01
   7170.00  3.8395628E-01
   7170.33  3.8268745E-01
   7170.67  3.8172855E-01
   7171.00  3.8107171E-01
   7171.33  3.8072180E-01
   7171.67  3.8057450E-01
   7172.00  3.8052352E-01
