    FDMNES
    energy     <xanes>
   7097.00  4.9503753E-03
   7097.33  5.0704649E-03
   7097.67  5.1963853E-03
   7098.00  5.3285595E-03
   7098.33  5.4683842E-03
   7098.67  5.6156222E-03
   7099.00  5.7708588E-03
   7099.33  5.9359529E-03
   7099.67  6.1106730E-03
   7100.00  6.2958520E-03
   7100.33  6.4940317E-03
   7100.67  6.7050226E-03
   7101.00  6.9300478E-03
   7101.33  7.1726956E-03
   7101.67  7.4328972E-03
   7102.00  7.7125171E-03
   7102.33  8.0168177E-03
   7102.67  8.3460224E-03
   7103.00  8.7031042E-03
   7103.33  9.0961440E-03
   7103.67  9.5260469E-03
   7104.00  9.9978187E-03
   7104.33  1.0524595E-02
   7104.67  1.1108891E-02
   7105.00  1.1759732E-02
   7105.33  1.2500064E-02
   7105.67  1.3336414E-02
   7106.00  1.4286553E-02
   7106.33  1.5394535E-02
   7106.67  1.6677826E-02
   7107.00  1.8175825E-02
   7107.33  1.9984813E-02
   7107.67  2.2156654E-02
   7108.00  2.4794747E-02
   7108.33  2.8153439E-02
   7108.67  3.2419677E-02
   7109.00  3.7945198E-02
   7109.33  4.5638782E-02
   7109.67  5.6447591E-02
   7110.00  7.2198145E-02
   7110.33  9.8088625E-02
   7110.67  1.4042377E-01
   7111.00  2.0612398E-01
   7111.33  2.9517468E-01
   7111.67  3.8583742E-01
   7112.00  4.5976361E-01
   7112.33  5.2156048E-01
   7112.67  5.5768100E-01
   7113.00  5.2860061E-01
   7113.33  4.2635212E-01
   7113.67  3.1714735E-01
   7114.00  2.3569866E-01
   7114.33  1.8842149E-01
   7114.67  1.6332855E-01
   7115.00  1.5522647E-01
   7115.33  1.6010920E-01
   7115.67  1.6569065E-01
   7116.00  1.6199625E-01
   7116.33  1.4846879E-01
   7116.67  1.3360766E-01
   7117.00  1.2161501E-01
   7117.33  1.1428872E-01
   7117.67  1.1057677E-01
   7118.00  1.0957463E-01
   7118.33  1.1002792E-01
   7118.67  1.1075124E-01
   7119.00  1.1191454E-01
   7119.33  1.1397168E-01
   7119.67  1.1636599E-01
   7120.00  1.1831535E-01
   7120.33  1.1924518E-01
   7120.67  1.1993161E-01
   7121.00  1.2109152E-01
   7121.33  1.2296999E-01
   7121.67  1.2589654E-01
   7122.00  1.3038597E-01
   7122.33  1.3699056E-01
   7122.67  1.4560580E-01
   7123.00  1.5623706E-01
   7123.33  1.6891357E-01
   7123.67  1.8298293E-01
   7124.00  1.9800583E-01
   7124.33  2.1351632E-01
   7124.67  2.2872307E-01
   7125.00  2.4267344E-01
   7125.33  2.5412645E-01
   7125.67  2.6346250E-01
   7126.00  2.7164357E-01
   7126.33  2.8016362E-01
   7126.67  2.9032821E-01
   7127.00  3.0280647E-01
   7127.33  3.1760489E-01
   7127.67  3.3313961E-01
   7128.00  3.4787633E-01
   7128.33  3.5997012E-01
   7128.67  3.6894696E-01
   7129.00  3.7491394E-01
   7129.33  3.7842328E-01
   7129.67  3.8093102E-01
   7130.00  3.8342502E-01
   7130.33  3.8691931E-01
   7130.67  3.9187856E-01
   7131.00  3.9856306E-01
   7131.33  4.0732470E-01
   7131.67  4.1796942E-01
   7132.00  4.3053962E-01
   7132.33  4.4539686E-01
   7132.67  4.6243129E-01
   7133.00  4.8173773E-01
   7133.33  5.0356911E-01
   7133.67  5.2731369E-01
   7134.00  5.5228660E-01
   7134.33  5.7701323E-01
   7134.67  5.9935690E-01
   7135.00  6.1714517E-01
   7135.33  6.2735184E-01
   7135.67  6.2986575E-01
   7136.00  6.2522338E-01
   7136.33  6.1469959E-01
   7136.67  6.0146317E-01
   7137.00  5.8749310E-01
   7137.33  5.7455400E-01
   7137.67  5.6339378E-01
   7138.00  5.5426338E-01
   7138.33  5.4738488E-01
   7138.67  5.4234233E-01
   7139.00  5.3899212E-01
   7139.33  5.3741353E-01
   7139.67  5.3733235E-01
   7140.00  5.3867765E-01
   7140.33  5.4148083E-01
   7140.67  5.4538491E-01
   7141.00  5.5018921E-01
   7141.33  5.5575054E-01
   7141.67  5.6181115E-01
   7142.00  5.6828761E-01
   7142.33  5.7520962E-01
   7142.67  5.8256796E-01
   7143.00  5.9042074E-01
   7143.33  5.9891051E-01
   7143.67  6.0802498E-01
   7144.00  6.1778682E-01
   7144.33  6.2825611E-01
   7144.67  6.3930682E-01
   7145.00  6.5088488E-01
   7145.33  6.6295475E-01
   7145.67  6.7532593E-01
   7146.00  6.8783751E-01
   7146.33  7.0023859E-01
   7146.67  7.1225768E-01
   7147.00  7.2363012E-01
   7147.33  7.3393030E-01
   7147.67  7.4300382E-01
   7148.00  7.5066394E-01
   7148.33  7.5657167E-01
   7148.67  7.6086069E-01
   7149.00  7.6354038E-01
   7149.33  7.6448948E-01
   7149.67  7.6401977E-01
   7150.00  7.6225911E-01
   7150.33  7.5923264E-01
   7150.67  7.5525461E-01
   7151.00  7.5047377E-01
   7151.33  7.4498167E-01
   7151.67  7.3902544E-01
   7152.00  7.3274149E-01
   7152.33  7.2624757E-01
   7152.67  7.1968591E-01
   7153.00  7.1314058E-01
   7153.33  7.0670082E-01
   7153.67  7.0041293E-01
   7154.00  6.9431376E-01
   7154.33  6.8846122E-01
   7154.67  6.8284901E-01
   7155.00  6.7749080E-01
   7155.33  6.7243185E-01
   7155.67  6.6764772E-01
   7156.00  6.6314394E-01
   7156.33  6.5895881E-01
   7156.67  6.5505549E-01
   7157.00  6.5142919E-01
   7157.33  6.4810240E-01
   7157.67  6.4502481E-01
   7158.00  6.4217614E-01
   7158.33  6.3955024E-01
   7158.67  6.3708430E-01
   7159.00  6.3474044E-01
   7159.33  6.3247983E-01
   7159.67  6.3024504E-01
   7160.00  6.2799231E-01
   7160.33  6.2565667E-01
   7160.67  6.2319164E-01
   7161.00  6.2055140E-01
   7161.33  6.1766689E-01
   7161.67  6.1453465E-01
   7162.00  6.1113419E-01
   7162.33  6.0741183E-01
   7162.67  6.0339166E-01
   7163.00  5.9906903E-01
   7163.33  5.9441212E-01
   7163.67  5.8947417E-01
   7164.00  5.8427073E-01
   7164.33  5.7879552E-01
   7164.67  5.7311355E-01
   7165.00  5.6726356E-01
   7165.33  5.6128372E-01
   7165.67  5.5524566E-01
   7166.00  5.4919854E-01
   7166.33  5.4319989E-01
   7166.67  5.3728780E-01
   7167.00  5.3149202E-01
   7167.33  5.2585593E-01
   7167.67  5.2037935E-01
   7168.00  5.1507320E-01
   7168.33  5.0997206E-01
   7168.67  5.0506873E-01
   7169.00  5.0037560E-01
   7169.33  4.9593281E-01
   7169.67  4.9172789E-01
   7170.00  4.8777711E-01
   7170.33  4.8413615E-01
   7170.67  4.8079418E-01
   7171.00  4.7777413E-01
   7171.33  4.7515383E-01
   7171.67  4.7293818E-01
   7172.00  4.7118156E-01
