    FDMNES
    energy     <xanes>
   7097.00  4.8648414E-03
   7097.33  4.9796867E-03
   7097.67  5.0998095E-03
   7098.00  5.2255770E-03
   7098.33  5.3582285E-03
   7098.67  5.4975296E-03
   7099.00  5.6439859E-03
   7099.33  5.7992336E-03
   7099.67  5.9630401E-03
   7100.00  6.1361221E-03
   7100.33  6.3207007E-03
   7100.67  6.5165764E-03
   7101.00  6.7247992E-03
   7101.33  6.9484863E-03
   7101.67  7.1875402E-03
   7102.00  7.4435605E-03
   7102.33  7.7211016E-03
   7102.67  8.0203200E-03
   7103.00  8.3437720E-03
   7103.33  8.6984454E-03
   7103.67  9.0851009E-03
   7104.00  9.5080700E-03
   7104.33  9.9787503E-03
   7104.67  1.0499360E-02
   7105.00  1.1077802E-02
   7105.33  1.1734182E-02
   7105.67  1.2474445E-02
   7106.00  1.3314469E-02
   7106.33  1.4293628E-02
   7106.67  1.5428406E-02
   7107.00  1.6755222E-02
   7107.33  1.8363288E-02
   7107.67  2.0304140E-02
   7108.00  2.2679014E-02
   7108.33  2.5739434E-02
   7108.67  2.9687425E-02
   7109.00  3.4903601E-02
   7109.33  4.2399074E-02
   7109.67  5.3347894E-02
   7110.00  7.0059699E-02
   7110.33  9.9161595E-02
   7110.67  1.4700302E-01
   7111.00  2.1141432E-01
   7111.33  2.6556155E-01
   7111.67  2.9945043E-01
   7112.00  3.2154754E-01
   7112.33  3.3696284E-01
   7112.67  3.3996840E-01
   7113.00  3.4098735E-01
   7113.33  3.4472841E-01
   7113.67  3.3139084E-01
   7114.00  2.9234934E-01
   7114.33  2.3911271E-01
   7114.67  1.9118573E-01
   7115.00  1.5449441E-01
   7115.33  1.2959162E-01
   7115.67  1.1231932E-01
   7116.00  1.0056892E-01
   7116.33  9.3182117E-02
   7116.67  8.8674985E-02
   7117.00  8.6468973E-02
   7117.33  8.6230689E-02
   7117.67  8.7221443E-02
   7118.00  8.9048703E-02
   7118.33  9.1495485E-02
   7118.67  9.4371038E-02
   7119.00  9.7542007E-02
   7119.33  1.0056900E-01
   7119.67  1.0297492E-01
   7120.00  1.0482220E-01
   7120.33  1.0686104E-01
   7120.67  1.1001890E-01
   7121.00  1.1501939E-01
   7121.33  1.2280866E-01
   7121.67  1.3360852E-01
   7122.00  1.4795915E-01
   7122.33  1.6705709E-01
   7122.67  1.9049245E-01
   7123.00  2.1729115E-01
   7123.33  2.4485585E-01
   7123.67  2.6973243E-01
   7124.00  2.9031253E-01
   7124.33  3.0693365E-01
   7124.67  3.2238797E-01
   7125.00  3.3860275E-01
   7125.33  3.5691637E-01
   7125.67  3.7679401E-01
   7126.00  3.9763194E-01
   7126.33  4.1968490E-01
   7126.67  4.4374907E-01
   7127.00  4.7034314E-01
   7127.33  4.9906584E-01
   7127.67  5.2781099E-01
   7128.00  5.5463319E-01
   7128.33  5.7758637E-01
   7128.67  5.9724763E-01
   7129.00  6.1513628E-01
   7129.33  6.3401513E-01
   7129.67  6.5613316E-01
   7130.00  6.8224331E-01
   7130.33  7.1109742E-01
   7130.67  7.3832548E-01
   7131.00  7.5960153E-01
   7131.33  7.6988567E-01
   7131.67  7.6982934E-01
   7132.00  7.6217858E-01
   7132.33  7.5256251E-01
   7132.67  7.4699002E-01
   7133.00  7.4822836E-01
   7133.33  7.5690847E-01
   7133.67  7.6923055E-01
   7134.00  7.8210498E-01
   7134.33  7.9328874E-01
   7134.67  8.0284333E-01
   7135.00  8.1098585E-01
   7135.33  8.1719383E-01
   7135.67  8.2103453E-01
   7136.00  8.2194309E-01
   7136.33  8.1890443E-01
   7136.67  8.1209987E-01
   7137.00  8.0183241E-01
   7137.33  7.8883770E-01
   7137.67  7.7486066E-01
   7138.00  7.6107619E-01
   7138.33  7.4860105E-01
   7138.67  7.3772242E-01
   7139.00  7.2839766E-01
   7139.33  7.2030396E-01
   7139.67  7.1250908E-01
   7140.00  7.0417341E-01
   7140.33  6.9412394E-01
   7140.67  6.8184158E-01
   7141.00  6.6718839E-01
   7141.33  6.5047994E-01
   7141.67  6.3310285E-01
   7142.00  6.1622917E-01
   7142.33  6.0120874E-01
   7142.67  5.8845987E-01
   7143.00  5.7804294E-01
   7143.33  5.6980610E-01
   7143.67  5.6281261E-01
   7144.00  5.5642658E-01
   7144.33  5.5008780E-01
   7144.67  5.4353660E-01
   7145.00  5.3679248E-01
   7145.33  5.3004307E-01
   7145.67  5.2352346E-01
   7146.00  5.1739545E-01
   7146.33  5.1182383E-01
   7146.67  5.0676008E-01
   7147.00  5.0215306E-01
   7147.33  4.9794204E-01
   7147.67  4.9397960E-01
   7148.00  4.9020679E-01
   7148.33  4.8661493E-01
   7148.67  4.8319999E-01
   7149.00  4.8000740E-01
   7149.33  4.7714691E-01
   7149.67  4.7465470E-01
   7150.00  4.7257896E-01
   7150.33  4.7100220E-01
   7150.67  4.6985991E-01
   7151.00  4.6911734E-01
   7151.33  4.6875302E-01
   7151.67  4.6865104E-01
   7152.00  4.6875348E-01
   7152.33  4.6903518E-01
   7152.67  4.6946900E-01
   7153.00  4.7008450E-01
   7153.33  4.7098560E-01
   7153.67  4.7223808E-01
   7154.00  4.7392822E-01
   7154.33  4.7620010E-01
   7154.67  4.7902207E-01
   7155.00  4.8237107E-01
   7155.33  4.8620568E-01
   7155.67  4.9029955E-01
   7156.00  4.9444962E-01
   7156.33  4.9835058E-01
   7156.67  5.0173634E-01
   7157.00  5.0436318E-01
   7157.33  5.0585353E-01
   7157.67  5.0613688E-01
   7158.00  5.0509872E-01
   7158.33  5.0250357E-01
   7158.67  4.9854092E-01
   7159.00  4.9328625E-01
   7159.33  4.8674841E-01
   7159.67  4.7927543E-01
   7160.00  4.7107353E-01
   7160.33  4.6233946E-01
   7160.67  4.5338560E-01
   7161.00  4.4441610E-01
   7161.33  4.3567111E-01
   7161.67  4.2730882E-01
   7162.00  4.1945191E-01
   7162.33  4.1227667E-01
   7162.67  4.0577070E-01
   7163.00  3.9997200E-01
   7163.33  3.9499150E-01
   7163.67  3.9072963E-01
   7164.00  3.8715846E-01
   7164.33  3.8430483E-01
   7164.67  3.8202093E-01
   7165.00  3.8024218E-01
   7165.33  3.7894638E-01
   7165.67  3.7801022E-01
   7166.00  3.7738289E-01
   7166.33  3.7704869E-01
   7166.67  3.7693845E-01
   7167.00  3.7703081E-01
   7167.33  3.7733331E-01
   7167.67  3.7781254E-01
   7168.00  3.7846130E-01
   7168.33  3.7929106E-01
   7168.67  3.8027209E-01
   7169.00  3.8139471E-01
   7169.33  3.8266116E-01
   7169.67  3.8403844E-01
   7170.00  3.8550938E-01
   7170.33  3.8705964E-01
   7170.67  3.8865222E-01
   7171.00  3.9025554E-01
   7171.33  3.9180916E-01
   7171.67  3.9322538E-01
   7172.00  3.9438553E-01
