    FDMNES
    energy     <xanes>
   7097.00  4.8678942E-03
   7097.33  4.9828888E-03
   7097.67  5.1031713E-03
   7098.00  5.2291100E-03
   7098.33  5.3619468E-03
   7098.67  5.5014471E-03
   7099.00  5.6481181E-03
   7099.33  5.8035994E-03
   7099.67  5.9676585E-03
   7100.00  6.1410141E-03
   7100.33  6.3258927E-03
   7100.67  6.5220949E-03
   7101.00  6.7306736E-03
   7101.33  6.9547541E-03
   7101.67  7.1942394E-03
   7102.00  7.4507339E-03
   7102.33  7.7288043E-03
   7102.67  8.0286085E-03
   7103.00  8.3527107E-03
   7103.33  8.7081189E-03
   7103.67  9.0955974E-03
   7104.00  9.5194912E-03
   7104.33  9.9912328E-03
   7104.67  1.0513050E-02
   7105.00  1.1092870E-02
   7105.33  1.1750866E-02
   7105.67  1.2493005E-02
   7106.00  1.3335221E-02
   7106.33  1.4317025E-02
   7106.67  1.5454968E-02
   7107.00  1.6785608E-02
   7107.33  1.8398498E-02
   7107.67  2.0345404E-02
   7108.00  2.2727996E-02
   7108.33  2.5798900E-02
   7108.67  2.9761176E-02
   7109.00  3.4997392E-02
   7109.33  4.2524093E-02
   7109.67  5.3522625E-02
   7110.00  7.0317323E-02
   7110.33  9.9577075E-02
   7110.67  1.4766990E-01
   7111.00  2.1229389E-01
   7111.33  2.6626769E-01
   7111.67  2.9984118E-01
   7112.00  3.2169434E-01
   7112.33  3.3738131E-01
   7112.67  3.4069617E-01
   7113.00  3.4145762E-01
   7113.33  3.4519942E-01
   7113.67  3.3247895E-01
   7114.00  2.9409438E-01
   7114.33  2.4091461E-01
   7114.67  1.9269375E-01
   7115.00  1.5559369E-01
   7115.33  1.3032375E-01
   7115.67  1.1279940E-01
   7116.00  1.0088866E-01
   7116.33  9.3398882E-02
   7116.67  8.8813783E-02
   7117.00  8.6545488E-02
   7117.33  8.6262938E-02
   7117.67  8.7230306E-02
   7118.00  8.9052810E-02
   7118.33  9.1498144E-02
   7118.67  9.4359522E-02
   7119.00  9.7503548E-02
   7119.33  1.0050201E-01
   7119.67  1.0287736E-01
   7120.00  1.0468190E-01
   7120.33  1.0666615E-01
   7120.67  1.0976909E-01
   7121.00  1.1471460E-01
   7121.33  1.2243593E-01
   7121.67  1.3313970E-01
   7122.00  1.4735508E-01
   7122.33  1.6628155E-01
   7122.67  1.8955123E-01
   7123.00  2.1624437E-01
   7123.33  2.4384769E-01
   7123.67  2.6889554E-01
   7124.00  2.8970219E-01
   7124.33  3.0649285E-01
   7124.67  3.2200965E-01
   7125.00  3.3818147E-01
   7125.33  3.5638578E-01
   7125.67  3.7613799E-01
   7126.00  3.9683495E-01
   7126.33  4.1870839E-01
   7126.67  4.4256659E-01
   7127.00  4.6896037E-01
   7127.33  4.9754009E-01
   7127.67  5.2622659E-01
   7128.00  5.5308020E-01
   7128.33  5.7614286E-01
   7128.67  5.9595464E-01
   7129.00  6.1401202E-01
   7129.33  6.3304021E-01
   7129.67  6.5525861E-01
   7130.00  6.8142250E-01
   7130.33  7.1032198E-01
   7130.67  7.3762692E-01
   7131.00  7.5901461E-01
   7131.33  7.6941930E-01
   7131.67  7.6946607E-01
   7132.00  7.6189423E-01
   7132.33  7.5233475E-01
   7132.67  7.4681513E-01
   7133.00  7.4812927E-01
   7133.33  7.5694944E-01
   7133.67  7.6946875E-01
   7134.00  7.8255014E-01
   7134.33  7.9388041E-01
   7134.67  8.0352527E-01
   7135.00  8.1173500E-01
   7135.33  8.1801034E-01
   7135.67  8.2192420E-01
   7136.00  8.2291837E-01
   7136.33  8.1998272E-01
   7136.67  8.1327660E-01
   7137.00  8.0306949E-01
   7137.33  7.9005657E-01
   7137.67  7.7598987E-01
   7138.00  7.6206570E-01
   7138.33  7.4943327E-01
   7138.67  7.3841175E-01
   7139.00  7.2897685E-01
   7139.33  7.2082656E-01
   7139.67  7.1303321E-01
   7140.00  7.0476247E-01
   7140.33  6.9484641E-01
   7140.67  6.8274319E-01
   7141.00  6.6828992E-01
   7141.33  6.5176243E-01
   7141.67  6.3451773E-01
   7142.00  6.1771514E-01
   7142.33  6.0269992E-01
   7142.67  5.8991161E-01
   7143.00  5.7942528E-01
   7143.33  5.7110343E-01
   7143.67  5.6402375E-01
   7144.00  5.5755724E-01
   7144.33  5.5114755E-01
   7144.67  5.4453282E-01
   7145.00  5.3773017E-01
   7145.33  5.3092495E-01
   7145.67  5.2435015E-01
   7146.00  5.1816676E-01
   7146.33  5.1253940E-01
   7146.67  5.0742038E-01
   7147.00  5.0275987E-01
   7147.33  4.9849931E-01
   7147.67  4.9449128E-01
   7148.00  4.9067661E-01
   7148.33  4.8704791E-01
   7148.67  4.8359960E-01
   7149.00  4.8037535E-01
   7149.33  4.7748290E-01
   7149.67  4.7495720E-01
   7150.00  4.7284603E-01
   7150.33  4.7123215E-01
   7150.67  4.7005230E-01
   7151.00  4.6927282E-01
   7151.33  4.6887352E-01
   7151.67  4.6873855E-01
   7152.00  4.6880926E-01
   7152.33  4.6905842E-01
   7152.67  4.6945596E-01
   7153.00  4.7002863E-01
   7153.33  4.7087664E-01
   7153.67  4.7206606E-01
   7154.00  4.7368441E-01
   7154.33  4.7587904E-01
   7154.67  4.7862499E-01
   7155.00  4.8190545E-01
   7155.33  4.8568774E-01
   7155.67  4.8974852E-01
   7156.00  4.9388693E-01
   7156.33  4.9780057E-01
   7156.67  5.0121817E-01
   7157.00  5.0389227E-01
   7157.33  5.0544149E-01
   7157.67  5.0578916E-01
   7158.00  5.0481733E-01
   7158.33  5.0228748E-01
   7158.67  4.9838732E-01
   7159.00  4.9319112E-01
   7159.33  4.8670605E-01
   7159.67  4.7928007E-01
   7160.00  4.7111828E-01
   7160.33  4.6241607E-01
   7160.67  4.5348700E-01
   7161.00  4.4453501E-01
   7161.33  4.3579825E-01
   7161.67  4.2743626E-01
   7162.00  4.1957344E-01
   7162.33  4.1238796E-01
   7162.67  4.0586886E-01
   7163.00  4.0005332E-01
   7163.33  3.9505241E-01
   7163.67  3.9076805E-01
   7164.00  3.8717314E-01
   7164.33  3.8429517E-01
   7164.67  3.8198675E-01
   7165.00  3.8018367E-01
   7165.33  3.7886422E-01
   7165.67  3.7790536E-01
   7166.00  3.7725655E-01
   7166.33  3.7690262E-01
   7166.67  3.7677455E-01
   7167.00  3.7685120E-01
   7167.33  3.7714074E-01
   7167.67  3.7760975E-01
   7168.00  3.7825129E-01
   7168.33  3.7907738E-01
   7168.67  3.8005790E-01
   7169.00  3.8118305E-01
   7169.33  3.8245515E-01
   7169.67  3.8384047E-01
   7170.00  3.8532136E-01
   7170.33  3.8688298E-01
   7170.67  3.8848744E-01
   7171.00  3.9010250E-01
   7171.33  3.9166688E-01
   7171.67  3.9309228E-01
   7172.00  3.9425951E-01
