    FDMNES
    energy     <xanes>
   7097.00  5.3806461E-03
   7097.33  5.5206389E-03
   7097.67  5.6674707E-03
   7098.00  5.8216285E-03
   7098.33  5.9847358E-03
   7098.67  6.1565015E-03
   7099.00  6.3375959E-03
   7099.33  6.5301676E-03
   7099.67  6.7339265E-03
   7100.00  6.9498207E-03
   7100.33  7.1807697E-03
   7100.67  7.4265230E-03
   7101.00  7.6884638E-03
   7101.33  7.9706854E-03
   7101.67  8.2730607E-03
   7102.00  8.5976840E-03
   7102.33  8.9505133E-03
   7102.67  9.3317297E-03
   7103.00  9.7446486E-03
   7103.33  1.0198346E-02
   7103.67  1.0693730E-02
   7104.00  1.1236343E-02
   7104.33  1.1840816E-02
   7104.67  1.2509781E-02
   7105.00  1.3253162E-02
   7105.33  1.4096304E-02
   7105.67  1.5046149E-02
   7106.00  1.6122108E-02
   7106.33  1.7372465E-02
   7106.67  1.8815939E-02
   7107.00  2.0495353E-02
   7107.33  2.2515599E-02
   7107.67  2.4932594E-02
   7108.00  2.7858575E-02
   7108.33  3.1570199E-02
   7108.67  3.6270957E-02
   7109.00  4.2345170E-02
   7109.33  5.0789718E-02
   7109.67  6.2655488E-02
   7110.00  7.9977959E-02
   7110.33  1.0856549E-01
   7110.67  1.5531099E-01
   7111.00  2.2693948E-01
   7111.33  3.2099166E-01
   7111.67  4.1092450E-01
   7112.00  4.6612484E-01
   7112.33  4.7996276E-01
   7112.67  4.9421170E-01
   7113.00  5.3032584E-01
   7113.33  5.6809623E-01
   7113.67  5.4945978E-01
   7114.00  4.7601578E-01
   7114.33  3.8537836E-01
   7114.67  3.0140221E-01
   7115.00  2.3442348E-01
   7115.33  1.8855252E-01
   7115.67  1.5696123E-01
   7116.00  1.3553780E-01
   7116.33  1.2184265E-01
   7116.67  1.1306592E-01
   7117.00  1.0821325E-01
   7117.33  1.0698641E-01
   7117.67  1.0858964E-01
   7118.00  1.1273796E-01
   7118.33  1.1899811E-01
   7118.67  1.2588197E-01
   7119.00  1.3203906E-01
   7119.33  1.3669579E-01
   7119.67  1.4075256E-01
   7120.00  1.4429422E-01
   7120.33  1.4698186E-01
   7120.67  1.5028338E-01
   7121.00  1.5610364E-01
   7121.33  1.6578710E-01
   7121.67  1.7776595E-01
   7122.00  1.9115202E-01
   7122.33  2.0717293E-01
   7122.67  2.2705118E-01
   7123.00  2.5170162E-01
   7123.33  2.8321877E-01
   7123.67  3.2143004E-01
   7124.00  3.6454190E-01
   7124.33  4.0883538E-01
   7124.67  4.5151088E-01
   7125.00  4.9226970E-01
   7125.33  5.3163161E-01
   7125.67  5.6941840E-01
   7126.00  6.0347655E-01
   7126.33  6.2942582E-01
   7126.67  6.4624580E-01
   7127.00  6.5488373E-01
   7127.33  6.5802439E-01
   7127.67  6.5905086E-01
   7128.00  6.5915764E-01
   7128.33  6.5980318E-01
   7128.67  6.6299964E-01
   7129.00  6.7014965E-01
   7129.33  6.8144625E-01
   7129.67  6.9359812E-01
   7130.00  7.0297791E-01
   7130.33  7.0602128E-01
   7130.67  7.0379235E-01
   7131.00  6.9800812E-01
   7131.33  6.8996138E-01
   7131.67  6.8067514E-01
   7132.00  6.7076991E-01
   7132.33  6.6142018E-01
   7132.67  6.5378094E-01
   7133.00  6.4843079E-01
   7133.33  6.4543680E-01
   7133.67  6.4366474E-01
   7134.00  6.4222577E-01
   7134.33  6.4037356E-01
   7134.67  6.3802484E-01
   7135.00  6.3523600E-01
   7135.33  6.3179001E-01
   7135.67  6.2756801E-01
   7136.00  6.2261775E-01
   7136.33  6.1716603E-01
   7136.67  6.1167516E-01
   7137.00  6.0653057E-01
   7137.33  6.0229991E-01
   7137.67  5.9930079E-01
   7138.00  5.9774221E-01
   7138.33  5.9782335E-01
   7138.67  5.9913108E-01
   7139.00  6.0125894E-01
   7139.33  6.0352157E-01
   7139.67  6.0510680E-01
   7140.00  6.0546436E-01
   7140.33  6.0413941E-01
   7140.67  6.0145904E-01
   7141.00  5.9771135E-01
   7141.33  5.9308453E-01
   7141.67  5.8775644E-01
   7142.00  5.8162299E-01
   7142.33  5.7434096E-01
   7142.67  5.6587165E-01
   7143.00  5.5620175E-01
   7143.33  5.4537474E-01
   7143.67  5.3386866E-01
   7144.00  5.2207457E-01
   7144.33  5.1049187E-01
   7144.67  4.9950127E-01
   7145.00  4.8933337E-01
   7145.33  4.8020848E-01
   7145.67  4.7196157E-01
   7146.00  4.6447427E-01
   7146.33  4.5766283E-01
   7146.67  4.5132851E-01
   7147.00  4.4541177E-01
   7147.33  4.3993894E-01
   7147.67  4.3487034E-01
   7148.00  4.3022102E-01
   7148.33  4.2604856E-01
   7148.67  4.2229675E-01
   7149.00  4.1896012E-01
   7149.33  4.1606784E-01
   7149.67  4.1353066E-01
   7150.00  4.1130255E-01
   7150.33  4.0935008E-01
   7150.67  4.0757072E-01
   7151.00  4.0590113E-01
   7151.33  4.0427943E-01
   7151.67  4.0265366E-01
   7152.00  4.0101245E-01
   7152.33  3.9939022E-01
   7152.67  3.9787225E-01
   7153.00  3.9657433E-01
   7153.33  3.9570980E-01
   7153.67  3.9539838E-01
   7154.00  3.9575778E-01
   7154.33  3.9695394E-01
   7154.67  3.9887737E-01
   7155.00  4.0144092E-01
   7155.33  4.0452968E-01
   7155.67  4.0785954E-01
   7156.00  4.1121756E-01
   7156.33  4.1433177E-01
   7156.67  4.1700985E-01
   7157.00  4.1909721E-01
   7157.33  4.2037382E-01
   7157.67  4.2086039E-01
   7158.00  4.2054698E-01
   7158.33  4.1938125E-01
   7158.67  4.1754809E-01
   7159.00  4.1515042E-01
   7159.33  4.1226449E-01
   7159.67  4.0906767E-01
   7160.00  4.0564863E-01
   7160.33  4.0206589E-01
   7160.67  3.9838649E-01
   7161.00  3.9463489E-01
   7161.33  3.9082083E-01
   7161.67  3.8696713E-01
   7162.00  3.8309464E-01
   7162.33  3.7924178E-01
   7162.67  3.7545595E-01
   7163.00  3.7179123E-01
   7163.33  3.6834119E-01
   7163.67  3.6514377E-01
   7164.00  3.6224453E-01
   7164.33  3.5973351E-01
   7164.67  3.5759937E-01
   7165.00  3.5585442E-01
   7165.33  3.5454621E-01
   7165.67  3.5361269E-01
   7166.00  3.5303491E-01
   7166.33  3.5282573E-01
   7166.67  3.5291307E-01
   7167.00  3.5327069E-01
   7167.33  3.5390151E-01
   7167.67  3.5475262E-01
   7168.00  3.5580900E-01
   7168.33  3.5708258E-01
   7168.67  3.5854192E-01
   7169.00  3.6018312E-01
   7169.33  3.6202432E-01
   7169.67  3.6403676E-01
   7170.00  3.6621077E-01
   7170.33  3.6854548E-01
   7170.67  3.7099173E-01
   7171.00  3.7350614E-01
   7171.33  3.7599977E-01
   7171.67  3.7831605E-01
   7172.00  3.8024549E-01
