    FDMNES
    energy     <xanes>
   7097.00  5.4383316E-03
   7097.33  5.5824764E-03
   7097.67  5.7337878E-03
   7098.00  5.8927840E-03
   7098.33  6.0611798E-03
   7098.67  6.2386816E-03
   7099.00  6.4260060E-03
   7099.33  6.6254322E-03
   7099.67  6.8366722E-03
   7100.00  7.0607442E-03
   7100.33  7.3007610E-03
   7100.67  7.5564840E-03
   7101.00  7.8294068E-03
   7101.33  8.1239187E-03
   7101.67  8.4399264E-03
   7102.00  8.7797055E-03
   7102.33  9.1496871E-03
   7102.67  9.5501345E-03
   7103.00  9.9846762E-03
   7103.33  1.0463185E-02
   7103.67  1.0986763E-02
   7104.00  1.1561527E-02
   7104.33  1.2203543E-02
   7104.67  1.2915905E-02
   7105.00  1.3709683E-02
   7105.33  1.4613029E-02
   7105.67  1.5634054E-02
   7106.00  1.6794709E-02
   7106.33  1.8149412E-02
   7106.67  1.9720173E-02
   7107.00  2.1556269E-02
   7107.33  2.3778256E-02
   7107.67  2.6452868E-02
   7108.00  2.9712404E-02
   7108.33  3.3883608E-02
   7108.67  3.9215497E-02
   7109.00  4.6176645E-02
   7109.33  5.5990937E-02
   7109.67  6.9992410E-02
   7110.00  9.0777313E-02
   7110.33  1.2584797E-01
   7110.67  1.8442920E-01
   7111.00  2.7508691E-01
   7111.33  3.8240485E-01
   7111.67  4.5764436E-01
   7112.00  4.8494518E-01
   7112.33  4.8819441E-01
   7112.67  5.0488073E-01
   7113.00  5.4529588E-01
   7113.33  5.7594211E-01
   7113.67  5.4423003E-01
   7114.00  4.6349760E-01
   7114.33  3.7219205E-01
   7114.67  2.9074312E-01
   7115.00  2.2724398E-01
   7115.33  1.8399603E-01
   7115.67  1.5397239E-01
   7116.00  1.3329946E-01
   7116.33  1.1971780E-01
   7116.67  1.1067579E-01
   7117.00  1.0534775E-01
   7117.33  1.0349221E-01
   7117.67  1.0425290E-01
   7118.00  1.0728298E-01
   7118.33  1.1242297E-01
   7118.67  1.1899787E-01
   7119.00  1.2634827E-01
   7119.33  1.3330653E-01
   7119.67  1.3900616E-01
   7120.00  1.4287089E-01
   7120.33  1.4484045E-01
   7120.67  1.4699143E-01
   7121.00  1.5115242E-01
   7121.33  1.5858273E-01
   7121.67  1.6895435E-01
   7122.00  1.8263895E-01
   7122.33  2.0083060E-01
   7122.67  2.2334843E-01
   7123.00  2.5046191E-01
   7123.33  2.8401515E-01
   7123.67  3.2357927E-01
   7124.00  3.6653988E-01
   7124.33  4.0813303E-01
   7124.67  4.4720658E-01
   7125.00  4.8404772E-01
   7125.33  5.1428782E-01
   7125.67  5.3418110E-01
   7126.00  5.4449624E-01
   7126.33  5.4954888E-01
   7126.67  5.5504780E-01
   7127.00  5.6456453E-01
   7127.33  5.8103892E-01
   7127.67  6.0345948E-01
   7128.00  6.3066999E-01
   7128.33  6.6151832E-01
   7128.67  6.9378918E-01
   7129.00  7.2566287E-01
   7129.33  7.5505953E-01
   7129.67  7.8005069E-01
   7130.00  7.9735237E-01
   7130.33  8.0233314E-01
   7130.67  7.9702661E-01
   7131.00  7.8432075E-01
   7131.33  7.6662984E-01
   7131.67  7.4617691E-01
   7132.00  7.2405839E-01
   7132.33  7.0193228E-01
   7132.67  6.8139679E-01
   7133.00  6.6281027E-01
   7133.33  6.4554367E-01
   7133.67  6.2903039E-01
   7134.00  6.1407724E-01
   7134.33  6.0256786E-01
   7134.67  5.9484965E-01
   7135.00  5.9071913E-01
   7135.33  5.9006362E-01
   7135.67  5.9190321E-01
   7136.00  5.9521706E-01
   7136.33  5.9810716E-01
   7136.67  5.9903303E-01
   7137.00  5.9762823E-01
   7137.33  5.9436128E-01
   7137.67  5.9054737E-01
   7138.00  5.8696545E-01
   7138.33  5.8429039E-01
   7138.67  5.8277357E-01
   7139.00  5.8258836E-01
   7139.33  5.8387470E-01
   7139.67  5.8613394E-01
   7140.00  5.8889126E-01
   7140.33  5.9156566E-01
   7140.67  5.9369437E-01
   7141.00  5.9489132E-01
   7141.33  5.9438147E-01
   7141.67  5.9160738E-01
   7142.00  5.8597315E-01
   7142.33  5.7680441E-01
   7142.67  5.6491913E-01
   7143.00  5.5119796E-01
   7143.33  5.3683277E-01
   7143.67  5.2298727E-01
   7144.00  5.1025297E-01
   7144.33  4.9906622E-01
   7144.67  4.8919148E-01
   7145.00  4.8044333E-01
   7145.33  4.7269028E-01
   7145.67  4.6562981E-01
   7146.00  4.5916312E-01
   7146.33  4.5331664E-01
   7146.67  4.4803196E-01
   7147.00  4.4333145E-01
   7147.33  4.3931219E-01
   7147.67  4.3590660E-01
   7148.00  4.3309853E-01
   7148.33  4.3090796E-01
   7148.67  4.2919628E-01
   7149.00  4.2789359E-01
   7149.33  4.2694227E-01
   7149.67  4.2619315E-01
   7150.00  4.2554650E-01
   7150.33  4.2488626E-01
   7150.67  4.2411377E-01
   7151.00  4.2316751E-01
   7151.33  4.2199422E-01
   7151.67  4.2064933E-01
   7152.00  4.1920866E-01
   7152.33  4.1781867E-01
   7152.67  4.1665449E-01
   7153.00  4.1588342E-01
   7153.33  4.1575492E-01
   7153.67  4.1632170E-01
   7154.00  4.1762355E-01
   7154.33  4.1970399E-01
   7154.67  4.2234696E-01
   7155.00  4.2539232E-01
   7155.33  4.2865242E-01
   7155.67  4.3190127E-01
   7156.00  4.3499335E-01
   7156.33  4.3776385E-01
   7156.67  4.4015974E-01
   7157.00  4.4213003E-01
   7157.33  4.4357577E-01
   7157.67  4.4452381E-01
   7158.00  4.4494723E-01
   7158.33  4.4473842E-01
   7158.67  4.4392178E-01
   7159.00  4.4245307E-01
   7159.33  4.4019453E-01
   7159.67  4.3719675E-01
   7160.00  4.3344761E-01
   7160.33  4.2887554E-01
   7160.67  4.2363560E-01
   7161.00  4.1781697E-01
   7161.33  4.1150138E-01
   7161.67  4.0490623E-01
   7162.00  3.9818032E-01
   7162.33  3.9149417E-01
   7162.67  3.8499340E-01
   7163.00  3.7879053E-01
   7163.33  3.7303360E-01
   7163.67  3.6773291E-01
   7164.00  3.6292011E-01
   7164.33  3.5867561E-01
   7164.67  3.5493348E-01
   7165.00  3.5168061E-01
   7165.33  3.4895285E-01
   7165.67  3.4666675E-01
   7166.00  3.4480178E-01
   7166.33  3.4338583E-01
   7166.67  3.4234833E-01
   7167.00  3.4167220E-01
   7167.33  3.4138101E-01
   7167.67  3.4141315E-01
   7168.00  3.4175231E-01
   7168.33  3.4241483E-01
   7168.67  3.4334531E-01
   7169.00  3.4452735E-01
   7169.33  3.4597085E-01
   7169.67  3.4762624E-01
   7170.00  3.4947339E-01
   7170.33  3.5150409E-01
   7170.67  3.5365970E-01
   7171.00  3.5589352E-01
   7171.33  3.5811868E-01
   7171.67  3.6018618E-01
   7172.00  3.6190249E-01
