    FDMNES
    energy     <xanes>
   7097.00  4.3027162E-03
   7097.33  4.3926478E-03
   7097.67  4.4862849E-03
   7098.00  4.5838694E-03
   7098.33  4.6862456E-03
   7098.67  4.7932289E-03
   7099.00  4.9051507E-03
   7099.33  5.0231128E-03
   7099.67  5.1469299E-03
   7100.00  5.2770691E-03
   7100.33  5.4150120E-03
   7100.67  5.5605928E-03
   7101.00  5.7144942E-03
   7101.33  5.8787793E-03
   7101.67  6.0533480E-03
   7102.00  6.2392406E-03
   7102.33  6.4394557E-03
   7102.67  6.6540613E-03
   7103.00  6.8847243E-03
   7103.33  7.1360371E-03
   7103.67  7.4084733E-03
   7104.00  7.7048733E-03
   7104.33  8.0327421E-03
   7104.67  8.3935422E-03
   7105.00  8.7925010E-03
   7105.33  9.2429370E-03
   7105.67  9.7488626E-03
   7106.00  1.0320899E-02
   7106.33  1.0985380E-02
   7106.67  1.1753577E-02
   7107.00  1.2650147E-02
   7107.33  1.3735436E-02
   7107.67  1.5044891E-02
   7108.00  1.6647626E-02
   7108.33  1.8715031E-02
   7108.67  2.1385088E-02
   7109.00  2.4916009E-02
   7109.33  2.9988678E-02
   7109.67  3.7378659E-02
   7110.00  4.8599583E-02
   7110.33  6.8040475E-02
   7110.67  1.0096724E-01
   7111.00  1.5210930E-01
   7111.33  2.1603613E-01
   7111.67  2.4719487E-01
   7112.00  2.2087608E-01
   7112.33  1.9087529E-01
   7112.67  1.8556084E-01
   7113.00  1.8409566E-01
   7113.33  1.6034288E-01
   7113.67  1.3269263E-01
   7114.00  1.1303071E-01
   7114.33  1.0132672E-01
   7114.67  9.0569797E-02
   7115.00  7.6281412E-02
   7115.33  6.1534362E-02
   7115.67  5.1447592E-02
   7116.00  4.5426674E-02
   7116.33  4.2184753E-02
   7116.67  4.0445138E-02
   7117.00  3.9768174E-02
   7117.33  3.9965412E-02
   7117.67  4.0780396E-02
   7118.00  4.2143056E-02
   7118.33  4.4118631E-02
   7118.67  4.6715310E-02
   7119.00  5.0034007E-02
   7119.33  5.4299667E-02
   7119.67  5.9481838E-02
   7120.00  6.5568652E-02
   7120.33  7.2545173E-02
   7120.67  8.0144887E-02
   7121.00  8.8279401E-02
   7121.33  9.7181045E-02
   7121.67  1.0736583E-01
   7122.00  1.1972244E-01
   7122.33  1.3585358E-01
   7122.67  1.5627107E-01
   7123.00  1.8129794E-01
   7123.33  2.1097372E-01
   7123.67  2.4319561E-01
   7124.00  2.7582919E-01
   7124.33  3.0568770E-01
   7124.67  3.3052352E-01
   7125.00  3.4899430E-01
   7125.33  3.6082888E-01
   7125.67  3.7045443E-01
   7126.00  3.8314683E-01
   7126.33  4.0603042E-01
   7126.67  4.4000854E-01
   7127.00  4.8132129E-01
   7127.33  5.2198493E-01
   7127.67  5.5782773E-01
   7128.00  5.8907879E-01
   7128.33  6.1612358E-01
   7128.67  6.3935119E-01
   7129.00  6.5863260E-01
   7129.33  6.7457311E-01
   7129.67  6.8984849E-01
   7130.00  7.0662516E-01
   7130.33  7.2625356E-01
   7130.67  7.4720693E-01
   7131.00  7.6761743E-01
   7131.33  7.8600178E-01
   7131.67  8.0315438E-01
   7132.00  8.2045314E-01
   7132.33  8.3933241E-01
   7132.67  8.5953102E-01
   7133.00  8.7979038E-01
   7133.33  8.9765960E-01
   7133.67  9.1153944E-01
   7134.00  9.2064251E-01
   7134.33  9.2384356E-01
   7134.67  9.2094147E-01
   7135.00  9.1125931E-01
   7135.33  8.9432313E-01
   7135.67  8.7248598E-01
   7136.00  8.4753239E-01
   7136.33  8.2135472E-01
   7136.67  7.9572092E-01
   7137.00  7.7161175E-01
   7137.33  7.4997920E-01
   7137.67  7.3082546E-01
   7138.00  7.1416454E-01
   7138.33  7.0014314E-01
   7138.67  6.8822501E-01
   7139.00  6.7817054E-01
   7139.33  6.6989842E-01
   7139.67  6.6295732E-01
   7140.00  6.5716180E-01
   7140.33  6.5244934E-01
   7140.67  6.4852993E-01
   7141.00  6.4524173E-01
   7141.33  6.4239553E-01
   7141.67  6.3960717E-01
   7142.00  6.3647686E-01
   7142.33  6.3232123E-01
   7142.67  6.2676870E-01
   7143.00  6.1973918E-01
   7143.33  6.1163711E-01
   7143.67  6.0356440E-01
   7144.00  5.9631987E-01
   7144.33  5.9058917E-01
   7144.67  5.8627618E-01
   7145.00  5.8323575E-01
   7145.33  5.8135592E-01
   7145.67  5.8028093E-01
   7146.00  5.7985121E-01
   7146.33  5.7997893E-01
   7146.67  5.8047509E-01
   7147.00  5.8123401E-01
   7147.33  5.8213798E-01
   7147.67  5.8302145E-01
   7148.00  5.8374069E-01
   7148.33  5.8404609E-01
   7148.67  5.8376331E-01
   7149.00  5.8273212E-01
   7149.33  5.8068764E-01
   7149.67  5.7763398E-01
   7150.00  5.7352474E-01
   7150.33  5.6823440E-01
   7150.67  5.6196240E-01
   7151.00  5.5481047E-01
   7151.33  5.4684344E-01
   7151.67  5.3833105E-01
   7152.00  5.2943210E-01
   7152.33  5.2029484E-01
   7152.67  5.1109641E-01
   7153.00  5.0193995E-01
   7153.33  4.9293345E-01
   7153.67  4.8411949E-01
   7154.00  4.7551662E-01
   7154.33  4.6714337E-01
   7154.67  4.5894687E-01
   7155.00  4.5089417E-01
   7155.33  4.4295484E-01
   7155.67  4.3507438E-01
   7156.00  4.2722238E-01
   7156.33  4.1937290E-01
   7156.67  4.1151127E-01
   7157.00  4.0363564E-01
   7157.33  3.9575490E-01
   7157.67  3.8789131E-01
   7158.00  3.8007327E-01
   7158.33  3.7235489E-01
   7158.67  3.6477818E-01
   7159.00  3.5739605E-01
   7159.33  3.5030922E-01
   7159.67  3.4355840E-01
   7160.00  3.3721057E-01
   7160.33  3.3140667E-01
   7160.67  3.2616740E-01
   7161.00  3.2156064E-01
   7161.33  3.1774604E-01
   7161.67  3.1469464E-01
   7162.00  3.1244550E-01
   7162.33  3.1113338E-01
   7162.67  3.1066507E-01
   7163.00  3.1102404E-01
   7163.33  3.1226262E-01
   7163.67  3.1422579E-01
   7164.00  3.1685056E-01
   7164.33  3.2010862E-01
   7164.67  3.2381090E-01
   7165.00  3.2784545E-01
   7165.33  3.3210819E-01
   7165.67  3.3646708E-01
   7166.00  3.4084493E-01
   7166.33  3.4516234E-01
   7166.67  3.4937543E-01
   7167.00  3.5345881E-01
   7167.33  3.5738429E-01
   7167.67  3.6117492E-01
   7168.00  3.6484458E-01
   7168.33  3.6840344E-01
   7168.67  3.7188647E-01
   7169.00  3.7530963E-01
   7169.33  3.7868501E-01
   7169.67  3.8203090E-01
   7170.00  3.8535208E-01
   7170.33  3.8864058E-01
   7170.67  3.9187955E-01
   7171.00  3.9503470E-01
   7171.33  3.9801376E-01
   7171.67  4.0069712E-01
   7172.00  4.0290010E-01
