    FDMNES
    energy     <xanes>
   7097.00  5.5546426E-03
   7097.33  5.6998453E-03
   7097.67  5.8522645E-03
   7098.00  6.0124199E-03
   7098.33  6.1820338E-03
   7098.67  6.3608056E-03
   7099.00  6.5494508E-03
   7099.33  6.7502511E-03
   7099.67  6.9629066E-03
   7100.00  7.1884273E-03
   7100.33  7.4299145E-03
   7100.67  7.6871069E-03
   7101.00  7.9614739E-03
   7101.33  8.2573579E-03
   7101.67  8.5746199E-03
   7102.00  8.9154733E-03
   7102.33  9.2862170E-03
   7102.67  9.6870158E-03
   7103.00  1.0121345E-02
   7103.33  1.0598739E-02
   7103.67  1.1120069E-02
   7104.00  1.1691076E-02
   7104.33  1.2326960E-02
   7104.67  1.3030244E-02
   7105.00  1.3811018E-02
   7105.33  1.4695155E-02
   7105.67  1.5689189E-02
   7106.00  1.6812325E-02
   7106.33  1.8112508E-02
   7106.67  1.9606795E-02
   7107.00  2.1335846E-02
   7107.33  2.3399326E-02
   7107.67  2.5845615E-02
   7108.00  2.8774698E-02
   7108.33  3.2431376E-02
   7108.67  3.6977893E-02
   7109.00  4.2723917E-02
   7109.33  5.0455520E-02
   7109.67  6.0913666E-02
   7110.00  7.5515179E-02
   7110.33  9.8173797E-02
   7110.67  1.3324077E-01
   7111.00  1.8541820E-01
   7111.33  2.5738169E-01
   7111.67  3.4699816E-01
   7112.00  4.7027205E-01
   7112.33  6.6954162E-01
   7112.67  8.8302337E-01
   7113.00  9.4616244E-01
   7113.33  7.9274213E-01
   7113.67  5.7546142E-01
   7114.00  3.9292837E-01
   7114.33  2.8145083E-01
   7114.67  2.1299230E-01
   7115.00  1.7136756E-01
   7115.33  1.4768562E-01
   7115.67  1.3473105E-01
   7116.00  1.3073361E-01
   7116.33  1.3662112E-01
   7116.67  1.5047388E-01
   7117.00  1.6741274E-01
   7117.33  1.8019018E-01
   7117.67  1.8631218E-01
   7118.00  1.8303961E-01
   7118.33  1.7352532E-01
   7118.67  1.6495248E-01
   7119.00  1.5891837E-01
   7119.33  1.5397920E-01
   7119.67  1.4888084E-01
   7120.00  1.4424765E-01
   7120.33  1.4133430E-01
   7120.67  1.4082768E-01
   7121.00  1.4344701E-01
   7121.33  1.5018621E-01
   7121.67  1.6069397E-01
   7122.00  1.7498367E-01
   7122.33  1.9352035E-01
   7122.67  2.1544000E-01
   7123.00  2.3983487E-01
   7123.33  2.6511674E-01
   7123.67  2.8914581E-01
   7124.00  3.1030878E-01
   7124.33  3.2691703E-01
   7124.67  3.3885385E-01
   7125.00  3.4556595E-01
   7125.33  3.4641856E-01
   7125.67  3.4376223E-01
   7126.00  3.3987913E-01
   7126.33  3.3720955E-01
   7126.67  3.3706597E-01
   7127.00  3.4015834E-01
   7127.33  3.4745223E-01
   7127.67  3.5878674E-01
   7128.00  3.7414708E-01
   7128.33  3.9320122E-01
   7128.67  4.1395048E-01
   7129.00  4.3476234E-01
   7129.33  4.5433912E-01
   7129.67  4.7304074E-01
   7130.00  4.9166699E-01
   7130.33  5.1106060E-01
   7130.67  5.3146844E-01
   7131.00  5.5297652E-01
   7131.33  5.7567971E-01
   7131.67  5.9909268E-01
   7132.00  6.2249366E-01
   7132.33  6.4440133E-01
   7132.67  6.6344646E-01
   7133.00  6.7843210E-01
   7133.33  6.8771057E-01
   7133.67  6.9138367E-01
   7134.00  6.8936349E-01
   7134.33  6.8126363E-01
   7134.67  6.6842450E-01
   7135.00  6.5167273E-01
   7135.33  6.3185416E-01
   7135.67  6.1060786E-01
   7136.00  5.8900012E-01
   7136.33  5.6815686E-01
   7136.67  5.4877880E-01
   7137.00  5.3140356E-01
   7137.33  5.1694682E-01
   7137.67  5.0567441E-01
   7138.00  4.9801460E-01
   7138.33  4.9470832E-01
   7138.67  4.9518300E-01
   7139.00  4.9910003E-01
   7139.33  5.0620226E-01
   7139.67  5.1540401E-01
   7140.00  5.2605917E-01
   7140.33  5.3756401E-01
   7140.67  5.4923944E-01
   7141.00  5.6069604E-01
   7141.33  5.7154617E-01
   7141.67  5.8166711E-01
   7142.00  5.9097579E-01
   7142.33  5.9932105E-01
   7142.67  6.0679662E-01
   7143.00  6.1340198E-01
   7143.33  6.1904470E-01
   7143.67  6.2388323E-01
   7144.00  6.2800587E-01
   7144.33  6.3150232E-01
   7144.67  6.3465195E-01
   7145.00  6.3766033E-01
   7145.33  6.4078923E-01
   7145.67  6.4425231E-01
   7146.00  6.4818959E-01
   7146.33  6.5274569E-01
   7146.67  6.5786089E-01
   7147.00  6.6350210E-01
   7147.33  6.6963922E-01
   7147.67  6.7608552E-01
   7148.00  6.8269749E-01
   7148.33  6.8928055E-01
   7148.67  6.9563333E-01
   7149.00  7.0158002E-01
   7149.33  7.0685256E-01
   7149.67  7.1135827E-01
   7150.00  7.1498693E-01
   7150.33  7.1752608E-01
   7150.67  7.1903635E-01
   7151.00  7.1949758E-01
   7151.33  7.1879736E-01
   7151.67  7.1712075E-01
   7152.00  7.1454253E-01
   7152.33  7.1107415E-01
   7152.67  7.0693988E-01
   7153.00  7.0225009E-01
   7153.33  6.9707026E-01
   7153.67  6.9155599E-01
   7154.00  6.8577328E-01
   7154.33  6.7974083E-01
   7154.67  6.7350115E-01
   7155.00  6.6704832E-01
   7155.33  6.6033625E-01
   7155.67  6.5337791E-01
   7156.00  6.4616934E-01
   7156.33  6.3869178E-01
   7156.67  6.3100121E-01
   7157.00  6.2312584E-01
   7157.33  6.1507712E-01
   7157.67  6.0689850E-01
   7158.00  5.9860565E-01
   7158.33  5.9020169E-01
   7158.67  5.8171778E-01
   7159.00  5.7317791E-01
   7159.33  5.6462208E-01
   7159.67  5.5611099E-01
   7160.00  5.4770440E-01
   7160.33  5.3949459E-01
   7160.67  5.3152670E-01
   7161.00  5.2385521E-01
   7161.33  5.1657770E-01
   7161.67  5.0969134E-01
   7162.00  5.0322228E-01
   7162.33  4.9724679E-01
   7162.67  4.9172242E-01
   7163.00  4.8665328E-01
   7163.33  4.8209283E-01
   7163.67  4.7797251E-01
   7164.00  4.7427442E-01
   7164.33  4.7101639E-01
   7164.67  4.6810694E-01
   7165.00  4.6550184E-01
   7165.33  4.6317406E-01
   7165.67  4.6103032E-01
   7166.00  4.5901537E-01
   7166.33  4.5707327E-01
   7166.67  4.5513416E-01
   7167.00  4.5314928E-01
   7167.33  4.5105433E-01
   7167.67  4.4880918E-01
   7168.00  4.4637697E-01
   7168.33  4.4370401E-01
   7168.67  4.4080319E-01
   7169.00  4.3767228E-01
   7169.33  4.3429202E-01
   7169.67  4.3071104E-01
   7170.00  4.2695828E-01
   7170.33  4.2306623E-01
   7170.67  4.1911689E-01
   7171.00  4.1518740E-01
   7171.33  4.1142581E-01
   7171.67  4.0801839E-01
   7172.00  4.0521173E-01
