    FDMNES
    energy     <xanes>
   7097.00  5.1922748E-03
   7097.33  5.3142055E-03
   7097.67  5.4416702E-03
   7098.00  5.5750426E-03
   7098.33  5.7156017E-03
   7098.67  5.8630842E-03
   7099.00  6.0179979E-03
   7099.33  6.1820129E-03
   7099.67  6.3548578E-03
   7100.00  6.5372414E-03
   7100.33  6.7313994E-03
   7100.67  6.9370768E-03
   7101.00  7.1552925E-03
   7101.33  7.3891313E-03
   7101.67  7.6384077E-03
   7102.00  7.9046407E-03
   7102.33  8.1922418E-03
   7102.67  8.5012144E-03
   7103.00  8.8339230E-03
   7103.33  9.1969608E-03
   7103.67  9.5907903E-03
   7104.00  1.0019294E-02
   7104.33  1.0492885E-02
   7104.67  1.1013128E-02
   7105.00  1.1586848E-02
   7105.33  1.2231694E-02
   7105.67  1.2952002E-02
   7106.00  1.3760878E-02
   7106.33  1.4691220E-02
   7106.67  1.5754957E-02
   7107.00  1.6980531E-02
   7107.33  1.8438049E-02
   7107.67  2.0163571E-02
   7108.00  2.2230964E-02
   7108.33  2.4823192E-02
   7108.67  2.8073895E-02
   7109.00  3.2238206E-02
   7109.33  3.7983656E-02
   7109.67  4.6029211E-02
   7110.00  5.7782311E-02
   7110.33  7.7274588E-02
   7110.67  1.0890147E-01
   7111.00  1.5447251E-01
   7111.33  2.0197896E-01
   7111.67  2.3875888E-01
   7112.00  2.6574440E-01
   7112.33  2.8757134E-01
   7112.67  3.1511350E-01
   7113.00  3.5878331E-01
   7113.33  4.1681497E-01
   7113.67  4.5391408E-01
   7114.00  4.4070808E-01
   7114.33  3.8842341E-01
   7114.67  3.3756815E-01
   7115.00  3.0156934E-01
   7115.33  2.8212302E-01
   7115.67  2.7048575E-01
   7116.00  2.5875609E-01
   7116.33  2.3940034E-01
   7116.67  2.1423396E-01
   7117.00  1.8935110E-01
   7117.33  1.7080539E-01
   7117.67  1.5810306E-01
   7118.00  1.5012510E-01
   7118.33  1.4650294E-01
   7118.67  1.4580401E-01
   7119.00  1.4694917E-01
   7119.33  1.4929503E-01
   7119.67  1.5297292E-01
   7120.00  1.5854304E-01
   7120.33  1.6634230E-01
   7120.67  1.7504091E-01
   7121.00  1.8303627E-01
   7121.33  1.8871461E-01
   7121.67  1.9291855E-01
   7122.00  1.9779894E-01
   7122.33  2.0573983E-01
   7122.67  2.1563032E-01
   7123.00  2.2591290E-01
   7123.33  2.3722322E-01
   7123.67  2.4995372E-01
   7124.00  2.6271325E-01
   7124.33  2.7391045E-01
   7124.67  2.8300608E-01
   7125.00  2.9021716E-01
   7125.33  2.9685168E-01
   7125.67  3.0476069E-01
   7126.00  3.1515041E-01
   7126.33  3.2921007E-01
   7126.67  3.4675920E-01
   7127.00  3.6755413E-01
   7127.33  3.9112151E-01
   7127.67  4.1661305E-01
   7128.00  4.4414951E-01
   7128.33  4.7293527E-01
   7128.67  4.9860398E-01
   7129.00  5.1727825E-01
   7129.33  5.3120507E-01
   7129.67  5.4978241E-01
   7130.00  5.7820624E-01
   7130.33  6.1886994E-01
   7130.67  6.6883599E-01
   7131.00  7.2575358E-01
   7131.33  7.8529548E-01
   7131.67  8.4011223E-01
   7132.00  8.8351763E-01
   7132.33  9.0830662E-01
   7132.67  9.1677104E-01
   7133.00  9.1258675E-01
   7133.33  8.9934692E-01
   7133.67  8.8063816E-01
   7134.00  8.5718600E-01
   7134.33  8.2868901E-01
   7134.67  7.9674209E-01
   7135.00  7.6309996E-01
   7135.33  7.2997728E-01
   7135.67  6.9881904E-01
   7136.00  6.7029140E-01
   7136.33  6.4505655E-01
   7136.67  6.2278762E-01
   7137.00  6.0341873E-01
   7137.33  5.8713232E-01
   7137.67  5.7336303E-01
   7138.00  5.6190649E-01
   7138.33  5.5281749E-01
   7138.67  5.4567821E-01
   7139.00  5.4038361E-01
   7139.33  5.3700163E-01
   7139.67  5.3508379E-01
   7140.00  5.3431077E-01
   7140.33  5.3423118E-01
   7140.67  5.3410634E-01
   7141.00  5.3333807E-01
   7141.33  5.3118553E-01
   7141.67  5.2749586E-01
   7142.00  5.2231210E-01
   7142.33  5.1588410E-01
   7142.67  5.0895684E-01
   7143.00  5.0206593E-01
   7143.33  4.9579036E-01
   7143.67  4.9040601E-01
   7144.00  4.8607169E-01
   7144.33  4.8297324E-01
   7144.67  4.8091288E-01
   7145.00  4.7978320E-01
   7145.33  4.7952462E-01
   7145.67  4.7987533E-01
   7146.00  4.8069872E-01
   7146.33  4.8189292E-01
   7146.67  4.8329634E-01
   7147.00  4.8482444E-01
   7147.33  4.8640597E-01
   7147.67  4.8797782E-01
   7148.00  4.8950002E-01
   7148.33  4.9093769E-01
   7148.67  4.9230861E-01
   7149.00  4.9363115E-01
   7149.33  4.9492269E-01
   7149.67  4.9620011E-01
   7150.00  4.9746788E-01
   7150.33  4.9872039E-01
   7150.67  4.9994477E-01
   7151.00  5.0112491E-01
   7151.33  5.0224162E-01
   7151.67  5.0330647E-01
   7152.00  5.0433813E-01
   7152.33  5.0537121E-01
   7152.67  5.0644587E-01
   7153.00  5.0759453E-01
   7153.33  5.0885826E-01
   7153.67  5.1023829E-01
   7154.00  5.1173463E-01
   7154.33  5.1334824E-01
   7154.67  5.1504876E-01
   7155.00  5.1682457E-01
   7155.33  5.1868343E-01
   7155.67  5.2063399E-01
   7156.00  5.2270942E-01
   7156.33  5.2498972E-01
   7156.67  5.2752126E-01
   7157.00  5.3036320E-01
   7157.33  5.3361762E-01
   7157.67  5.3726907E-01
   7158.00  5.4131605E-01
   7158.33  5.4576738E-01
   7158.67  5.5050760E-01
   7159.00  5.5545382E-01
   7159.33  5.6050378E-01
   7159.67  5.6551696E-01
   7160.00  5.7037302E-01
   7160.33  5.7489810E-01
   7160.67  5.7900762E-01
   7161.00  5.8261530E-01
   7161.33  5.8557467E-01
   7161.67  5.8791567E-01
   7162.00  5.8962302E-01
   7162.33  5.9061844E-01
   7162.67  5.9099900E-01
   7163.00  5.9078958E-01
   7163.33  5.8995739E-01
   7163.67  5.8861266E-01
   7164.00  5.8679380E-01
   7164.33  5.8449805E-01
   7164.67  5.8182827E-01
   7165.00  5.7882459E-01
   7165.33  5.7549718E-01
   7165.67  5.7192824E-01
   7166.00  5.6815640E-01
   7166.33  5.6420267E-01
   7166.67  5.6012340E-01
   7167.00  5.5594547E-01
   7167.33  5.5168581E-01
   7167.67  5.4737726E-01
   7168.00  5.4303877E-01
   7168.33  5.3868325E-01
   7168.67  5.3432374E-01
   7169.00  5.2997033E-01
   7169.33  5.2563809E-01
   7169.67  5.2133911E-01
   7170.00  5.1708939E-01
   7170.33  5.1292382E-01
   7170.67  5.0887053E-01
   7171.00  5.0497731E-01
   7171.33  5.0136371E-01
   7171.67  4.9815260E-01
   7172.00  4.9553948E-01
