    FDMNES
    energy     <xanes>
   7097.00  5.2126783E-03
   7097.33  5.3357761E-03
   7097.67  5.4644941E-03
   7098.00  5.5992139E-03
   7098.33  5.7412385E-03
   7098.67  5.8903034E-03
   7099.00  6.0469286E-03
   7099.33  6.2128178E-03
   7099.67  6.3877000E-03
   7100.00  6.5723018E-03
   7100.33  6.7689091E-03
   7100.67  6.9772692E-03
   7101.00  7.1984294E-03
   7101.33  7.4355505E-03
   7101.67  7.6884548E-03
   7102.00  7.9587076E-03
   7102.33  8.2508408E-03
   7102.67  8.5648777E-03
   7103.00  8.9032616E-03
   7103.33  9.2727869E-03
   7103.67  9.6739626E-03
   7104.00  1.0110815E-02
   7104.33  1.0594112E-02
   7104.67  1.1125531E-02
   7105.00  1.1712176E-02
   7105.33  1.2372384E-02
   7105.67  1.3110765E-02
   7106.00  1.3941030E-02
   7106.33  1.4897548E-02
   7106.67  1.5993004E-02
   7107.00  1.7257347E-02
   7107.33  1.8764347E-02
   7107.67  2.0552522E-02
   7108.00  2.2700356E-02
   7108.33  2.5402394E-02
   7108.67  2.8802850E-02
   7109.00  3.3176749E-02
   7109.33  3.9246419E-02
   7109.67  4.7802762E-02
   7110.00  6.0396831E-02
   7110.33  8.1447535E-02
   7110.67  1.1531227E-01
   7111.00  1.6172601E-01
   7111.33  2.0653348E-01
   7111.67  2.4689450E-01
   7112.00  2.8275398E-01
   7112.33  3.0732918E-01
   7112.67  3.3517813E-01
   7113.00  3.8028364E-01
   7113.33  4.3353987E-01
   7113.67  4.5315633E-01
   7114.00  4.2245154E-01
   7114.33  3.6820944E-01
   7114.67  3.2257502E-01
   7115.00  2.9261056E-01
   7115.33  2.7728856E-01
   7115.67  2.6724897E-01
   7116.00  2.5439601E-01
   7116.33  2.3277170E-01
   7116.67  2.0709812E-01
   7117.00  1.8351248E-01
   7117.33  1.6612985E-01
   7117.67  1.5401433E-01
   7118.00  1.4658392E-01
   7118.33  1.4358229E-01
   7118.67  1.4309950E-01
   7119.00  1.4388810E-01
   7119.33  1.4566089E-01
   7119.67  1.4895166E-01
   7120.00  1.5434973E-01
   7120.33  1.6163606E-01
   7120.67  1.6835619E-01
   7121.00  1.7236967E-01
   7121.33  1.7330256E-01
   7121.67  1.7427492E-01
   7122.00  1.7805556E-01
   7122.33  1.8646809E-01
   7122.67  1.9768875E-01
   7123.00  2.1007943E-01
   7123.33  2.2363053E-01
   7123.67  2.3847541E-01
   7124.00  2.5403450E-01
   7124.33  2.6939425E-01
   7124.67  2.8364132E-01
   7125.00  2.9642168E-01
   7125.33  3.0807156E-01
   7125.67  3.1974575E-01
   7126.00  3.3235080E-01
   7126.33  3.4689295E-01
   7126.67  3.6362515E-01
   7127.00  3.8279187E-01
   7127.33  4.0495761E-01
   7127.67  4.2991653E-01
   7128.00  4.5774208E-01
   7128.33  4.8883721E-01
   7128.67  5.2166340E-01
   7129.00  5.5315115E-01
   7129.33  5.8013727E-01
   7129.67  6.0742168E-01
   7130.00  6.4185348E-01
   7130.33  6.8895059E-01
   7130.67  7.4565299E-01
   7131.00  8.0714512E-01
   7131.33  8.6461341E-01
   7131.67  9.0928751E-01
   7132.00  9.3546899E-01
   7132.33  9.3915919E-01
   7132.67  9.2626701E-01
   7133.00  9.0178436E-01
   7133.33  8.7111081E-01
   7133.67  8.3919908E-01
   7134.00  8.0718803E-01
   7134.33  7.7460351E-01
   7134.67  7.4134410E-01
   7135.00  7.0805311E-01
   7135.33  6.7617863E-01
   7135.67  6.4684709E-01
   7136.00  6.2084065E-01
   7136.33  5.9907277E-01
   7136.67  5.8110682E-01
   7137.00  5.6676584E-01
   7137.33  5.5613379E-01
   7137.67  5.4841884E-01
   7138.00  5.4328714E-01
   7138.33  5.4062861E-01
   7138.67  5.3979494E-01
   7139.00  5.4047822E-01
   7139.33  5.4247411E-01
   7139.67  5.4527225E-01
   7140.00  5.4852073E-01
   7140.33  5.5174073E-01
   7140.67  5.5441388E-01
   7141.00  5.5611198E-01
   7141.33  5.5627898E-01
   7141.67  5.5489655E-01
   7142.00  5.5198312E-01
   7142.33  5.4757228E-01
   7142.67  5.4214241E-01
   7143.00  5.3597097E-01
   7143.33  5.2927931E-01
   7143.67  5.2236242E-01
   7144.00  5.1540177E-01
   7144.33  5.0860917E-01
   7144.67  5.0214064E-01
   7145.00  4.9612770E-01
   7145.33  4.9076744E-01
   7145.67  4.8607516E-01
   7146.00  4.8209488E-01
   7146.33  4.7893358E-01
   7146.67  4.7648365E-01
   7147.00  4.7471015E-01
   7147.33  4.7362799E-01
   7147.67  4.7307563E-01
   7148.00  4.7297460E-01
   7148.33  4.7328979E-01
   7148.67  4.7389901E-01
   7149.00  4.7473619E-01
   7149.33  4.7575220E-01
   7149.67  4.7687283E-01
   7150.00  4.7806443E-01
   7150.33  4.7931330E-01
   7150.67  4.8061863E-01
   7151.00  4.8198986E-01
   7151.33  4.8343899E-01
   7151.67  4.8496054E-01
   7152.00  4.8655678E-01
   7152.33  4.8823419E-01
   7152.67  4.8997252E-01
   7153.00  4.9175501E-01
   7153.33  4.9355863E-01
   7153.67  4.9535405E-01
   7154.00  4.9712137E-01
   7154.33  4.9884152E-01
   7154.67  5.0052072E-01
   7155.00  5.0217341E-01
   7155.33  5.0383272E-01
   7155.67  5.0554512E-01
   7156.00  5.0736064E-01
   7156.33  5.0936711E-01
   7156.67  5.1161546E-01
   7157.00  5.1416883E-01
   7157.33  5.1714370E-01
   7157.67  5.2055038E-01
   7158.00  5.2442224E-01
   7158.33  5.2883454E-01
   7158.67  5.3371151E-01
   7159.00  5.3901451E-01
   7159.33  5.4471922E-01
   7159.67  5.5068522E-01
   7160.00  5.5680553E-01
   7160.33  5.6294112E-01
   7160.67  5.6894702E-01
   7161.00  5.7470342E-01
   7161.33  5.8003722E-01
   7161.67  5.8488913E-01
   7162.00  5.8918401E-01
   7162.33  5.9277924E-01
   7162.67  5.9570898E-01
   7163.00  5.9794961E-01
   7163.33  5.9939908E-01
   7163.67  6.0014200E-01
   7164.00  6.0018115E-01
   7164.33  5.9943811E-01
   7164.67  5.9801308E-01
   7165.00  5.9592071E-01
   7165.33  5.9310276E-01
   7165.67  5.8967087E-01
   7166.00  5.8565999E-01
   7166.33  5.8105457E-01
   7166.67  5.7598395E-01
   7167.00  5.7051326E-01
   7167.33  5.6468793E-01
   7167.67  5.5864448E-01
   7168.00  5.5246674E-01
   7168.33  5.4623817E-01
   7168.67  5.4004760E-01
   7169.00  5.3396049E-01
   7169.33  5.2806342E-01
   7169.67  5.2238791E-01
   7170.00  5.1697021E-01
   7170.33  5.1188069E-01
   7170.67  5.0711339E-01
   7171.00  5.0269933E-01
   7171.33  4.9874793E-01
   7171.67  4.9532043E-01
   7172.00  4.9256966E-01
