    FDMNES
    energy     <xanes>
   7097.00  4.9752803E-03
   7097.33  5.0875702E-03
   7097.67  5.2048260E-03
   7098.00  5.3273788E-03
   7098.33  5.4563692E-03
   7098.67  5.5915552E-03
   7099.00  5.7333860E-03
   7099.33  5.8833468E-03
   7099.67  6.0411875E-03
   7100.00  6.2075334E-03
   7100.33  6.3843679E-03
   7100.67  6.5714534E-03
   7101.00  6.7696871E-03
   7101.33  6.9817975E-03
   7101.67  7.2076057E-03
   7102.00  7.4484459E-03
   7102.33  7.7082084E-03
   7102.67  7.9868754E-03
   7103.00  8.2865176E-03
   7103.33  8.6129299E-03
   7103.67  8.9664867E-03
   7104.00  9.3505772E-03
   7104.33  9.7743156E-03
   7104.67  1.0239020E-02
   7105.00  1.0750620E-02
   7105.33  1.1324490E-02
   7105.67  1.1964308E-02
   7106.00  1.2681396E-02
   7106.33  1.3504236E-02
   7106.67  1.4442943E-02
   7107.00  1.5521919E-02
   7107.33  1.6801376E-02
   7107.67  1.8311795E-02
   7108.00  2.0116036E-02
   7108.33  2.2369870E-02
   7108.67  2.5185953E-02
   7109.00  2.8780186E-02
   7109.33  3.3718221E-02
   7109.67  4.0609352E-02
   7110.00  5.0647475E-02
   7110.33  6.7196110E-02
   7110.67  9.3269243E-02
   7111.00  1.2779854E-01
   7111.33  1.6255751E-01
   7111.67  2.0068162E-01
   7112.00  2.4328150E-01
   7112.33  2.7625987E-01
   7112.67  2.9128475E-01
   7113.00  3.0233982E-01
   7113.33  3.3782718E-01
   7113.67  3.9562429E-01
   7114.00  4.3378479E-01
   7114.33  4.1827885E-01
   7114.67  3.7505181E-01
   7115.00  3.1998275E-01
   7115.33  2.6958683E-01
   7115.67  2.3001697E-01
   7116.00  2.0130968E-01
   7116.33  1.8248060E-01
   7116.67  1.6920352E-01
   7117.00  1.5755821E-01
   7117.33  1.4382026E-01
   7117.67  1.2967418E-01
   7118.00  1.1803667E-01
   7118.33  1.1046612E-01
   7118.67  1.0582411E-01
   7119.00  1.0348644E-01
   7119.33  1.0344202E-01
   7119.67  1.0537270E-01
   7120.00  1.0887442E-01
   7120.33  1.1222665E-01
   7120.67  1.1353573E-01
   7121.00  1.1323346E-01
   7121.33  1.1320398E-01
   7121.67  1.1469276E-01
   7122.00  1.1838072E-01
   7122.33  1.2535253E-01
   7122.67  1.3608862E-01
   7123.00  1.5142258E-01
   7123.33  1.7259701E-01
   7123.67  1.9746706E-01
   7124.00  2.2177920E-01
   7124.33  2.3942436E-01
   7124.67  2.5112175E-01
   7125.00  2.6040349E-01
   7125.33  2.7098523E-01
   7125.67  2.8435238E-01
   7126.00  3.0090507E-01
   7126.33  3.2121115E-01
   7126.67  3.4522558E-01
   7127.00  3.7319650E-01
   7127.33  4.0407770E-01
   7127.67  4.3378839E-01
   7128.00  4.5899841E-01
   7128.33  4.7775640E-01
   7128.67  4.9250050E-01
   7129.00  5.0566697E-01
   7129.33  5.1984200E-01
   7129.67  5.3629784E-01
   7130.00  5.5520324E-01
   7130.33  5.7586172E-01
   7130.67  5.9648942E-01
   7131.00  6.1577390E-01
   7131.33  6.3278580E-01
   7131.67  6.4842423E-01
   7132.00  6.6403700E-01
   7132.33  6.8141082E-01
   7132.67  7.0120507E-01
   7133.00  7.2351812E-01
   7133.33  7.4854600E-01
   7133.67  7.7622141E-01
   7134.00  8.0720463E-01
   7134.33  8.4302315E-01
   7134.67  8.8343297E-01
   7135.00  9.2709562E-01
   7135.33  9.6954109E-01
   7135.67  1.0042061E+00
   7136.00  1.0254740E+00
   7136.33  1.0277436E+00
   7136.67  1.0138761E+00
   7137.00  9.8686627E-01
   7137.33  9.4993079E-01
   7137.67  9.0818887E-01
   7138.00  8.6452547E-01
   7138.33  8.2173289E-01
   7138.67  7.8172294E-01
   7139.00  7.4567898E-01
   7139.33  7.1496602E-01
   7139.67  6.8917618E-01
   7140.00  6.6806572E-01
   7140.33  6.5146436E-01
   7140.67  6.3788050E-01
   7141.00  6.2630432E-01
   7141.33  6.1561624E-01
   7141.67  6.0465787E-01
   7142.00  5.9280248E-01
   7142.33  5.7959336E-01
   7142.67  5.6531431E-01
   7143.00  5.5034906E-01
   7143.33  5.3527511E-01
   7143.67  5.2067833E-01
   7144.00  5.0696444E-01
   7144.33  4.9461693E-01
   7144.67  4.8366102E-01
   7145.00  4.7414163E-01
   7145.33  4.6618994E-01
   7145.67  4.5952014E-01
   7146.00  4.5400709E-01
   7146.33  4.4962064E-01
   7146.67  4.4609036E-01
   7147.00  4.4331024E-01
   7147.33  4.4126387E-01
   7147.67  4.3979698E-01
   7148.00  4.3886233E-01
   7148.33  4.3847811E-01
   7148.67  4.3854862E-01
   7149.00  4.3903851E-01
   7149.33  4.3995690E-01
   7149.67  4.4123862E-01
   7150.00  4.4287459E-01
   7150.33  4.4490447E-01
   7150.67  4.4728707E-01
   7151.00  4.5002706E-01
   7151.33  4.5317451E-01
   7151.67  4.5668240E-01
   7152.00  4.6053887E-01
   7152.33  4.6475149E-01
   7152.67  4.6922248E-01
   7153.00  4.7387642E-01
   7153.33  4.7860099E-01
   7153.67  4.8323594E-01
   7154.00  4.8762969E-01
   7154.33  4.9153264E-01
   7154.67  4.9480002E-01
   7155.00  4.9727456E-01
   7155.33  4.9869289E-01
   7155.67  4.9908548E-01
   7156.00  4.9843533E-01
   7156.33  4.9666907E-01
   7156.67  4.9403156E-01
   7157.00  4.9067216E-01
   7157.33  4.8673289E-01
   7157.67  4.8249547E-01
   7158.00  4.7813818E-01
   7158.33  4.7385247E-01
   7158.67  4.6977979E-01
   7159.00  4.6601917E-01
   7159.33  4.6270280E-01
   7159.67  4.5983342E-01
   7160.00  4.5743537E-01
   7160.33  4.5558081E-01
   7160.67  4.5421207E-01
   7161.00  4.5332067E-01
   7161.33  4.5294096E-01
   7161.67  4.5298784E-01
   7162.00  4.5343383E-01
   7162.33  4.5428850E-01
   7162.67  4.5546823E-01
   7163.00  4.5693700E-01
   7163.33  4.5867581E-01
   7163.67  4.6061098E-01
   7164.00  4.6271109E-01
   7164.33  4.6495741E-01
   7164.67  4.6730008E-01
   7165.00  4.6971308E-01
   7165.33  4.7217588E-01
   7165.67  4.7466069E-01
   7166.00  4.7715222E-01
   7166.33  4.7963759E-01
   7166.67  4.8211096E-01
   7167.00  4.8457091E-01
   7167.33  4.8701850E-01
   7167.67  4.8945968E-01
   7168.00  4.9189850E-01
   7168.33  4.9434140E-01
   7168.67  4.9679284E-01
   7169.00  4.9925148E-01
   7169.33  5.0171056E-01
   7169.67  5.0415791E-01
   7170.00  5.0657823E-01
   7170.33  5.0894166E-01
   7170.67  5.1122396E-01
   7171.00  5.1339159E-01
   7171.33  5.1537060E-01
   7171.67  5.1710252E-01
   7172.00  5.1849675E-01
