    FDMNES
    energy     <xanes>
   7097.00  4.4252974E-03
   7097.33  4.5201420E-03
   7097.67  4.6188739E-03
   7098.00  4.7217365E-03
   7098.33  4.8295968E-03
   7098.67  4.9422451E-03
   7099.00  5.0600084E-03
   7099.33  5.1840010E-03
   7099.67  5.3140035E-03
   7100.00  5.4504670E-03
   7100.33  5.5948612E-03
   7100.67  5.7469709E-03
   7101.00  5.9074388E-03
   7101.33  6.0782639E-03
   7101.67  6.2592683E-03
   7102.00  6.4514030E-03
   7102.33  6.6574920E-03
   7102.67  6.8774692E-03
   7103.00  7.1128096E-03
   7103.33  7.3676947E-03
   7103.67  7.6423439E-03
   7104.00  7.9391815E-03
   7104.33  8.2647825E-03
   7104.67  8.6200758E-03
   7105.00  9.0093558E-03
   7105.33  9.4438046E-03
   7105.67  9.9261921E-03
   7106.00  1.0464917E-02
   7106.33  1.1081137E-02
   7106.67  1.1782876E-02
   7107.00  1.2588981E-02
   7107.33  1.3546063E-02
   7107.67  1.4679784E-02
   7108.00  1.6041910E-02
   7108.33  1.7761807E-02
   7108.67  1.9942113E-02
   7109.00  2.2778332E-02
   7109.33  2.6793070E-02
   7109.67  3.2599284E-02
   7110.00  4.1410405E-02
   7110.33  5.6715041E-02
   7110.67  8.1716624E-02
   7111.00  1.1451234E-01
   7111.33  1.3925246E-01
   7111.67  1.4730865E-01
   7112.00  1.4233394E-01
   7112.33  1.3634585E-01
   7112.67  1.3587161E-01
   7113.00  1.4536195E-01
   7113.33  1.7319378E-01
   7113.67  2.1899552E-01
   7114.00  2.6413674E-01
   7114.33  2.6862353E-01
   7114.67  2.5084056E-01
   7115.00  2.2215750E-01
   7115.33  1.8231984E-01
   7115.67  1.4696957E-01
   7116.00  1.2378465E-01
   7116.33  1.1377668E-01
   7116.67  1.1197953E-01
   7117.00  1.1656262E-01
   7117.33  1.2836770E-01
   7117.67  1.4554330E-01
   7118.00  1.6458446E-01
   7118.33  1.7896197E-01
   7118.67  1.8506731E-01
   7119.00  1.8338795E-01
   7119.33  1.7823389E-01
   7119.67  1.7507745E-01
   7120.00  1.7558569E-01
   7120.33  1.7941452E-01
   7120.67  1.8494931E-01
   7121.00  1.9142686E-01
   7121.33  1.9815569E-01
   7121.67  2.0467331E-01
   7122.00  2.1092537E-01
   7122.33  2.1740519E-01
   7122.67  2.2467008E-01
   7123.00  2.3283964E-01
   7123.33  2.4235460E-01
   7123.67  2.5381503E-01
   7124.00  2.6766037E-01
   7124.33  2.8414558E-01
   7124.67  3.0281892E-01
   7125.00  3.2345096E-01
   7125.33  3.4516620E-01
   7125.67  3.6596127E-01
   7126.00  3.8392607E-01
   7126.33  3.9664195E-01
   7126.67  4.0444363E-01
   7127.00  4.0916298E-01
   7127.33  4.1418965E-01
   7127.67  4.2196287E-01
   7128.00  4.3333092E-01
   7128.33  4.4890715E-01
   7128.67  4.6809200E-01
   7129.00  4.9072978E-01
   7129.33  5.1678537E-01
   7129.67  5.4459237E-01
   7130.00  5.7198603E-01
   7130.33  5.9573327E-01
   7130.67  6.1525200E-01
   7131.00  6.3192210E-01
   7131.33  6.4891652E-01
   7131.67  6.6934624E-01
   7132.00  6.9454190E-01
   7132.33  7.2408763E-01
   7132.67  7.5484765E-01
   7133.00  7.8410087E-01
   7133.33  8.0806637E-01
   7133.67  8.2484169E-01
   7134.00  8.3380190E-01
   7134.33  8.3551910E-01
   7134.67  8.3357549E-01
   7135.00  8.3041654E-01
   7135.33  8.2741870E-01
   7135.67  8.2376717E-01
   7136.00  8.1808351E-01
   7136.33  8.0909204E-01
   7136.67  7.9738475E-01
   7137.00  7.8369224E-01
   7137.33  7.6872780E-01
   7137.67  7.5311569E-01
   7138.00  7.3694191E-01
   7138.33  7.2003378E-01
   7138.67  7.0242582E-01
   7139.00  6.8425654E-01
   7139.33  6.6592185E-01
   7139.67  6.4803970E-01
   7140.00  6.3113995E-01
   7140.33  6.1587649E-01
   7140.67  6.0228867E-01
   7141.00  5.9035752E-01
   7141.33  5.8004457E-01
   7141.67  5.7081607E-01
   7142.00  5.6233613E-01
   7142.33  5.5433260E-01
   7142.67  5.4659450E-01
   7143.00  5.3916223E-01
   7143.33  5.3231306E-01
   7143.67  5.2626162E-01
   7144.00  5.2120661E-01
   7144.33  5.1739419E-01
   7144.67  5.1463933E-01
   7145.00  5.1279477E-01
   7145.33  5.1169882E-01
   7145.67  5.1101477E-01
   7146.00  5.1057227E-01
   7146.33  5.1029083E-01
   7146.67  5.1017501E-01
   7147.00  5.1032381E-01
   7147.33  5.1095241E-01
   7147.67  5.1215916E-01
   7148.00  5.1401835E-01
   7148.33  5.1659943E-01
   7148.67  5.1971432E-01
   7149.00  5.2320758E-01
   7149.33  5.2688838E-01
   7149.67  5.3054634E-01
   7150.00  5.3404608E-01
   7150.33  5.3722107E-01
   7150.67  5.3999057E-01
   7151.00  5.4225028E-01
   7151.33  5.4378876E-01
   7151.67  5.4456381E-01
   7152.00  5.4447874E-01
   7152.33  5.4330210E-01
   7152.67  5.4105869E-01
   7153.00  5.3768829E-01
   7153.33  5.3301242E-01
   7153.67  5.2718759E-01
   7154.00  5.2026022E-01
   7154.33  5.1219743E-01
   7154.67  5.0325546E-01
   7155.00  4.9356984E-01
   7155.33  4.8324776E-01
   7155.67  4.7255281E-01
   7156.00  4.6165691E-01
   7156.33  4.5075860E-01
   7156.67  4.4004535E-01
   7157.00  4.2965974E-01
   7157.33  4.1980022E-01
   7157.67  4.1052061E-01
   7158.00  4.0189384E-01
   7158.33  3.9406560E-01
   7158.67  3.8697736E-01
   7159.00  3.8063943E-01
   7159.33  3.7514655E-01
   7159.67  3.7040022E-01
   7160.00  3.6639402E-01
   7160.33  3.6320843E-01
   7160.67  3.6073843E-01
   7161.00  3.5896818E-01
   7161.33  3.5795562E-01
   7161.67  3.5757690E-01
   7162.00  3.5778539E-01
   7162.33  3.5858356E-01
   7162.67  3.5983477E-01
   7163.00  3.6147315E-01
   7163.33  3.6345779E-01
   7163.67  3.6567165E-01
   7164.00  3.6804986E-01
   7164.33  3.7053178E-01
   7164.67  3.7303742E-01
   7165.00  3.7551142E-01
   7165.33  3.7788276E-01
   7165.67  3.8010970E-01
   7166.00  3.8215281E-01
   7166.33  3.8394808E-01
   7166.67  3.8549975E-01
   7167.00  3.8680088E-01
   7167.33  3.8783135E-01
   7167.67  3.8865327E-01
   7168.00  3.8931249E-01
   7168.33  3.8986943E-01
   7168.67  3.9041950E-01
   7169.00  3.9103731E-01
   7169.33  3.9182275E-01
   7169.67  3.9282463E-01
   7170.00  3.9408522E-01
   7170.33  3.9566728E-01
   7170.67  3.9753258E-01
   7171.00  3.9964756E-01
   7171.33  4.0193601E-01
   7171.67  4.0418283E-01
   7172.00  4.0612067E-01
