    FDMNES
    energy     <xanes>
   7097.00  4.4518080E-03
   7097.33  4.5450902E-03
   7097.67  4.6421089E-03
   7098.00  4.7430958E-03
   7098.33  4.8488811E-03
   7098.67  4.9592615E-03
   7099.00  5.0745489E-03
   7099.33  5.1958109E-03
   7099.67  5.3228362E-03
   7100.00  5.4560574E-03
   7100.33  5.5968850E-03
   7100.67  5.7451152E-03
   7101.00  5.9013683E-03
   7101.33  6.0675706E-03
   7101.67  6.2435608E-03
   7102.00  6.4302651E-03
   7102.33  6.6304227E-03
   7102.67  6.8439946E-03
   7103.00  7.0724334E-03
   7103.33  7.3198338E-03
   7103.67  7.5864646E-03
   7104.00  7.8747462E-03
   7104.33  8.1911981E-03
   7104.67  8.5368501E-03
   7105.00  8.9160540E-03
   7105.33  9.3400657E-03
   7105.67  9.8118790E-03
   7106.00  1.0340128E-02
   7106.33  1.0946435E-02
   7106.67  1.1639351E-02
   7107.00  1.2438423E-02
   7107.33  1.3391750E-02
   7107.67  1.4526140E-02
   7108.00  1.5894972E-02
   7108.33  1.7630656E-02
   7108.67  1.9836124E-02
   7109.00  2.2705295E-02
   7109.33  2.6747648E-02
   7109.67  3.2530682E-02
   7110.00  4.1161492E-02
   7110.33  5.5838345E-02
   7110.67  8.0332827E-02
   7111.00  1.1744369E-01
   7111.33  1.6073673E-01
   7111.67  1.9278781E-01
   7112.00  2.0453149E-01
   7112.33  2.0177166E-01
   7112.67  1.8782409E-01
   7113.00  1.6506095E-01
   7113.33  1.4324658E-01
   7113.67  1.2421720E-01
   7114.00  1.0609913E-01
   7114.33  9.0657258E-02
   7114.67  7.9369611E-02
   7115.00  7.1704421E-02
   7115.33  6.6751041E-02
   7115.67  6.3724510E-02
   7116.00  6.2526603E-02
   7116.33  6.3163634E-02
   7116.67  6.5206318E-02
   7117.00  6.8471215E-02
   7117.33  7.2802138E-02
   7117.67  7.7777274E-02
   7118.00  8.3362159E-02
   7118.33  9.0101799E-02
   7118.67  9.8472477E-02
   7119.00  1.0890359E-01
   7119.33  1.2208744E-01
   7119.67  1.3804598E-01
   7120.00  1.5703544E-01
   7120.33  1.7977836E-01
   7120.67  2.0625834E-01
   7121.00  2.3683274E-01
   7121.33  2.7203460E-01
   7121.67  3.1057700E-01
   7122.00  3.5106015E-01
   7122.33  3.9116617E-01
   7122.67  4.2845907E-01
   7123.00  4.6071957E-01
   7123.33  4.8439590E-01
   7123.67  4.9965358E-01
   7124.00  5.0827710E-01
   7124.33  5.1307187E-01
   7124.67  5.1715312E-01
   7125.00  5.2163740E-01
   7125.33  5.2630203E-01
   7125.67  5.3032458E-01
   7126.00  5.3338589E-01
   7126.33  5.3541724E-01
   7126.67  5.3679665E-01
   7127.00  5.3802119E-01
   7127.33  5.4012880E-01
   7127.67  5.4417363E-01
   7128.00  5.5110811E-01
   7128.33  5.6197961E-01
   7128.67  5.7605504E-01
   7129.00  5.9231556E-01
   7129.33  6.0900598E-01
   7129.67  6.2424214E-01
   7130.00  6.3703163E-01
   7130.33  6.4696073E-01
   7130.67  6.5500316E-01
   7131.00  6.6165342E-01
   7131.33  6.6666774E-01
   7131.67  6.6958333E-01
   7132.00  6.6983748E-01
   7132.33  6.6706431E-01
   7132.67  6.6256071E-01
   7133.00  6.5773595E-01
   7133.33  6.5432065E-01
   7133.67  6.5284596E-01
   7134.00  6.5284182E-01
   7134.33  6.5270840E-01
   7134.67  6.5082609E-01
   7135.00  6.4676002E-01
   7135.33  6.4103617E-01
   7135.67  6.3495653E-01
   7136.00  6.2923132E-01
   7136.33  6.2434636E-01
   7136.67  6.2026858E-01
   7137.00  6.1691765E-01
   7137.33  6.1422781E-01
   7137.67  6.1200010E-01
   7138.00  6.1016281E-01
   7138.33  6.0871831E-01
   7138.67  6.0761312E-01
   7139.00  6.0685079E-01
   7139.33  6.0647899E-01
   7139.67  6.0644942E-01
   7140.00  6.0674639E-01
   7140.33  6.0737316E-01
   7140.67  6.0824386E-01
   7141.00  6.0930402E-01
   7141.33  6.1049015E-01
   7141.67  6.1169478E-01
   7142.00  6.1282347E-01
   7142.33  6.1372355E-01
   7142.67  6.1427912E-01
   7143.00  6.1436664E-01
   7143.33  6.1378095E-01
   7143.67  6.1249456E-01
   7144.00  6.1044924E-01
   7144.33  6.0752466E-01
   7144.67  6.0385020E-01
   7145.00  5.9949325E-01
   7145.33  5.9449147E-01
   7145.67  5.8904124E-01
   7146.00  5.8324970E-01
   7146.33  5.7720198E-01
   7146.67  5.7102298E-01
   7147.00  5.6478108E-01
   7147.33  5.5854018E-01
   7147.67  5.5234939E-01
   7148.00  5.4624173E-01
   7148.33  5.4026018E-01
   7148.67  5.3441234E-01
   7149.00  5.2871341E-01
   7149.33  5.2320000E-01
   7149.67  5.1786789E-01
   7150.00  5.1273207E-01
   7150.33  5.0783969E-01
   7150.67  5.0318677E-01
   7151.00  4.9879580E-01
   7151.33  4.9473167E-01
   7151.67  4.9098601E-01
   7152.00  4.8758015E-01
   7152.33  4.8457870E-01
   7152.67  4.8194827E-01
   7153.00  4.7968833E-01
   7153.33  4.7782130E-01
   7153.67  4.7625937E-01
   7154.00  4.7494845E-01
   7154.33  4.7382327E-01
   7154.67  4.7275110E-01
   7155.00  4.7161879E-01
   7155.33  4.7025940E-01
   7155.67  4.6855433E-01
   7156.00  4.6638938E-01
   7156.33  4.6358793E-01
   7156.67  4.6015952E-01
   7157.00  4.5609730E-01
   7157.33  4.5137914E-01
   7157.67  4.4619000E-01
   7158.00  4.4066713E-01
   7158.33  4.3498317E-01
   7158.67  4.2935685E-01
   7159.00  4.2395233E-01
   7159.33  4.1898486E-01
   7159.67  4.1453521E-01
   7160.00  4.1068005E-01
   7160.33  4.0754958E-01
   7160.67  4.0507548E-01
   7161.00  4.0324380E-01
   7161.33  4.0209413E-01
   7161.67  4.0150063E-01
   7162.00  4.0141489E-01
   7162.33  4.0183233E-01
   7162.67  4.0263376E-01
   7163.00  4.0376319E-01
   7163.33  4.0518429E-01
   7163.67  4.0679320E-01
   7164.00  4.0852742E-01
   7164.33  4.1032269E-01
   7164.67  4.1210760E-01
   7165.00  4.1383480E-01
   7165.33  4.1544761E-01
   7165.67  4.1692690E-01
   7166.00  4.1825456E-01
   7166.33  4.1939923E-01
   7166.67  4.2037914E-01
   7167.00  4.2119727E-01
   7167.33  4.2184025E-01
   7167.67  4.2233534E-01
   7168.00  4.2269002E-01
   7168.33  4.2289657E-01
   7168.67  4.2297943E-01
   7169.00  4.2294460E-01
   7169.33  4.2278405E-01
   7169.67  4.2251755E-01
   7170.00  4.2215128E-01
   7170.33  4.2168406E-01
   7170.67  4.2114197E-01
   7171.00  4.2054374E-01
   7171.33  4.1991938E-01
   7171.67  4.1932431E-01
   7172.00  4.1882207E-01
