    FDMNES
    energy     <xanes>
   7097.00  5.2535352E-03
   7097.33  5.3858712E-03
   7097.67  5.5245143E-03
   7098.00  5.6699018E-03
   7098.33  5.8235104E-03
   7098.67  5.9850539E-03
   7099.00  6.1551284E-03
   7099.33  6.3356701E-03
   7099.67  6.5263851E-03
   7100.00  6.7281060E-03
   7100.33  6.9434347E-03
   7100.67  7.1720965E-03
   7101.00  7.4152886E-03
   7101.33  7.6766091E-03
   7101.67  7.9558633E-03
   7102.00  8.2548323E-03
   7102.33  8.5786651E-03
   7102.67  8.9273800E-03
   7103.00  9.3037384E-03
   7103.33  9.7154220E-03
   7103.67  1.0162962E-02
   7104.00  1.0650860E-02
   7104.33  1.1191187E-02
   7104.67  1.1785690E-02
   7105.00  1.2442197E-02
   7105.33  1.3180978E-02
   7105.67  1.4006789E-02
   7106.00  1.4934424E-02
   7106.33  1.6001095E-02
   7106.67  1.7219647E-02
   7107.00  1.8621481E-02
   7107.33  2.0284070E-02
   7107.67  2.2245359E-02
   7108.00  2.4584427E-02
   7108.33  2.7496773E-02
   7108.67  3.1118776E-02
   7109.00  3.5712627E-02
   7109.33  4.1959488E-02
   7109.67  5.0564978E-02
   7110.00  6.2906879E-02
   7110.33  8.2902049E-02
   7110.67  1.1486329E-01
   7111.00  1.6193677E-01
   7111.33  2.2036456E-01
   7111.67  2.6087968E-01
   7112.00  2.6807453E-01
   7112.33  2.9008350E-01
   7112.67  3.5147650E-01
   7113.00  4.6310090E-01
   7113.33  5.9685660E-01
   7113.67  6.5943536E-01
   7114.00  6.6144404E-01
   7114.33  6.3435056E-01
   7114.67  5.5979728E-01
   7115.00  4.5188185E-01
   7115.33  3.6192602E-01
   7115.67  3.0315523E-01
   7116.00  2.7066688E-01
   7116.33  2.5764061E-01
   7116.67  2.5071577E-01
   7117.00  2.4081792E-01
   7117.33  2.2475485E-01
   7117.67  2.0784262E-01
   7118.00  1.9399139E-01
   7118.33  1.8534265E-01
   7118.67  1.7963765E-01
   7119.00  1.7386670E-01
   7119.33  1.6548558E-01
   7119.67  1.5539654E-01
   7120.00  1.4495641E-01
   7120.33  1.3527687E-01
   7120.67  1.2690779E-01
   7121.00  1.2046587E-01
   7121.33  1.1663636E-01
   7121.67  1.1490389E-01
   7122.00  1.1492945E-01
   7122.33  1.1655320E-01
   7122.67  1.1923767E-01
   7123.00  1.2271123E-01
   7123.33  1.2685597E-01
   7123.67  1.3149498E-01
   7124.00  1.3655904E-01
   7124.33  1.4202657E-01
   7124.67  1.4785151E-01
   7125.00  1.5415555E-01
   7125.33  1.6147119E-01
   7125.67  1.7035668E-01
   7126.00  1.8123301E-01
   7126.33  1.9417902E-01
   7126.67  2.0815891E-01
   7127.00  2.2226598E-01
   7127.33  2.3548766E-01
   7127.67  2.4743245E-01
   7128.00  2.5817418E-01
   7128.33  2.6849011E-01
   7128.67  2.7999523E-01
   7129.00  2.9431753E-01
   7129.33  3.1379032E-01
   7129.67  3.3933895E-01
   7130.00  3.7214520E-01
   7130.33  4.1429289E-01
   7130.67  4.6432572E-01
   7131.00  5.2003720E-01
   7131.33  5.7860858E-01
   7131.67  6.3863086E-01
   7132.00  7.0115265E-01
   7132.33  7.6871494E-01
   7132.67  8.4171593E-01
   7133.00  9.1867981E-01
   7133.33  9.9314159E-01
   7133.67  1.0542166E+00
   7134.00  1.0911093E+00
   7134.33  1.0921116E+00
   7134.67  1.0627909E+00
   7135.00  1.0106124E+00
   7135.33  9.4486519E-01
   7135.67  8.7608383E-01
   7136.00  8.0942019E-01
   7136.33  7.4886706E-01
   7136.67  6.9505875E-01
   7137.00  6.4818719E-01
   7137.33  6.0878450E-01
   7137.67  5.7552755E-01
   7138.00  5.4798940E-01
   7138.33  5.2636594E-01
   7138.67  5.0954699E-01
   7139.00  4.9711367E-01
   7139.33  4.8900110E-01
   7139.67  4.8414802E-01
   7140.00  4.8206791E-01
   7140.33  4.8254015E-01
   7140.67  4.8488999E-01
   7141.00  4.8889263E-01
   7141.33  4.9459387E-01
   7141.67  5.0175547E-01
   7142.00  5.1037365E-01
   7142.33  5.2062574E-01
   7142.67  5.3228541E-01
   7143.00  5.4525826E-01
   7143.33  5.5949588E-01
   7143.67  5.7458334E-01
   7144.00  5.9022597E-01
   7144.33  6.0605307E-01
   7144.67  6.2162914E-01
   7145.00  6.3660541E-01
   7145.33  6.5049771E-01
   7145.67  6.6313742E-01
   7146.00  6.7435164E-01
   7146.33  6.8384101E-01
   7146.67  6.9178000E-01
   7147.00  6.9820990E-01
   7147.33  7.0304685E-01
   7147.67  7.0659138E-01
   7148.00  7.0895928E-01
   7148.33  7.1013881E-01
   7148.67  7.1036435E-01
   7149.00  7.0971530E-01
   7149.33  7.0818250E-01
   7149.67  7.0595058E-01
   7150.00  7.0308812E-01
   7150.33  6.9960626E-01
   7150.67  6.9566340E-01
   7151.00  6.9133615E-01
   7151.33  6.8666750E-01
   7151.67  6.8177092E-01
   7152.00  6.7670313E-01
   7152.33  6.7151083E-01
   7152.67  6.6626886E-01
   7153.00  6.6102493E-01
   7153.33  6.5583186E-01
   7153.67  6.5072227E-01
   7154.00  6.4572252E-01
   7154.33  6.4087227E-01
   7154.67  6.3617011E-01
   7155.00  6.3162489E-01
   7155.33  6.2726292E-01
   7155.67  6.2306337E-01
   7156.00  6.1902116E-01
   7156.33  6.1514420E-01
   7156.67  6.1139940E-01
   7157.00  6.0777296E-01
   7157.33  6.0426354E-01
   7157.67  6.0084060E-01
   7158.00  5.9748553E-01
   7158.33  5.9418053E-01
   7158.67  5.9089583E-01
   7159.00  5.8761034E-01
   7159.33  5.8429489E-01
   7159.67  5.8092464E-01
   7160.00  5.7747329E-01
   7160.33  5.7389351E-01
   7160.67  5.7016459E-01
   7161.00  5.6625565E-01
   7161.33  5.6210274E-01
   7161.67  5.5769699E-01
   7162.00  5.5301134E-01
   7162.33  5.4798124E-01
   7162.67  5.4262510E-01
   7163.00  5.3693337E-01
   7163.33  5.3086247E-01
   7163.67  5.2446464E-01
   7164.00  5.1775817E-01
   7164.33  5.1073946E-01
   7164.67  5.0348372E-01
   7165.00  4.9603217E-01
   7165.33  4.8842016E-01
   7165.67  4.8072219E-01
   7166.00  4.7298807E-01
   7166.33  4.6527582E-01
   7166.67  4.5763396E-01
   7167.00  4.5010365E-01
   7167.33  4.4274636E-01
   7167.67  4.3557830E-01
   7168.00  4.2862471E-01
   7168.33  4.2193620E-01
   7168.67  4.1549671E-01
   7169.00  4.0931591E-01
   7169.33  4.0343846E-01
   7169.67  3.9783457E-01
   7170.00  3.9250536E-01
   7170.33  3.8749132E-01
   7170.67  3.8277140E-01
   7171.00  3.7836963E-01
   7171.33  3.7439050E-01
   7171.67  3.7090559E-01
   7172.00  3.6807461E-01
