    FDMNES
    energy     <xanes>
   7097.00  5.1463064E-03
   7097.33  5.2739484E-03
   7097.67  5.4077077E-03
   7098.00  5.5480186E-03
   7098.33  5.6963319E-03
   7098.67  5.8523863E-03
   7099.00  6.0167809E-03
   7099.33  6.1914359E-03
   7099.67  6.3760925E-03
   7100.00  6.5715992E-03
   7100.33  6.7805679E-03
   7100.67  7.0027775E-03
   7101.00  7.2394688E-03
   7101.33  7.4943102E-03
   7101.67  7.7671963E-03
   7102.00  8.0600119E-03
   7102.33  8.3781111E-03
   7102.67  8.7216770E-03
   7103.00  9.0937070E-03
   7103.33  9.5023920E-03
   7103.67  9.9485977E-03
   7104.00  1.0437369E-02
   7104.33  1.0981996E-02
   7104.67  1.1584979E-02
   7105.00  1.2255443E-02
   7105.33  1.3016636E-02
   7105.67  1.3875210E-02
   7106.00  1.4849279E-02
   7106.33  1.5983830E-02
   7106.67  1.7297106E-02
   7107.00  1.8830002E-02
   7107.33  2.0682722E-02
   7107.67  2.2911375E-02
   7108.00  2.5627134E-02
   7108.33  2.9105446E-02
   7108.67  3.3560608E-02
   7109.00  3.9396690E-02
   7109.33  4.7677896E-02
   7109.67  5.9599096E-02
   7110.00  7.7497469E-02
   7110.33  1.0806761E-01
   7110.67  1.5829564E-01
   7111.00  2.2978333E-01
   7111.33  3.0655859E-01
   7111.67  3.7382948E-01
   7112.00  4.1202865E-01
   7112.33  3.9379477E-01
   7112.67  3.6068104E-01
   7113.00  3.5325362E-01
   7113.33  3.7565986E-01
   7113.67  3.8642911E-01
   7114.00  3.6054950E-01
   7114.33  3.1371421E-01
   7114.67  2.7778427E-01
   7115.00  2.6268551E-01
   7115.33  2.6835712E-01
   7115.67  2.7820395E-01
   7116.00  2.7709095E-01
   7116.33  2.5858029E-01
   7116.67  2.3335998E-01
   7117.00  2.0882486E-01
   7117.33  1.8900163E-01
   7117.67  1.7346290E-01
   7118.00  1.6134837E-01
   7118.33  1.5181450E-01
   7118.67  1.4374948E-01
   7119.00  1.3686741E-01
   7119.33  1.3125896E-01
   7119.67  1.2672034E-01
   7120.00  1.2325709E-01
   7120.33  1.2110206E-01
   7120.67  1.2002402E-01
   7121.00  1.1988007E-01
   7121.33  1.2080600E-01
   7121.67  1.2293299E-01
   7122.00  1.2650481E-01
   7122.33  1.3185654E-01
   7122.67  1.3878754E-01
   7123.00  1.4721918E-01
   7123.33  1.5704289E-01
   7123.67  1.6752413E-01
   7124.00  1.7797409E-01
   7124.33  1.8783040E-01
   7124.67  1.9745886E-01
   7125.00  2.0754459E-01
   7125.33  2.1896166E-01
   7125.67  2.3204403E-01
   7126.00  2.4705146E-01
   7126.33  2.6441210E-01
   7126.67  2.8390571E-01
   7127.00  3.0544753E-01
   7127.33  3.2893279E-01
   7127.67  3.5362690E-01
   7128.00  3.7922124E-01
   7128.33  4.0593695E-01
   7128.67  4.3386164E-01
   7129.00  4.6300755E-01
   7129.33  4.9370877E-01
   7129.67  5.2639148E-01
   7130.00  5.6157203E-01
   7130.33  5.9945406E-01
   7130.67  6.3892585E-01
   7131.00  6.7926047E-01
   7131.33  7.2019712E-01
   7131.67  7.6177015E-01
   7132.00  8.0387803E-01
   7132.33  8.4561648E-01
   7132.67  8.8512586E-01
   7133.00  9.1979225E-01
   7133.33  9.4450183E-01
   7133.67  9.5652358E-01
   7134.00  9.5407274E-01
   7134.33  9.3581113E-01
   7134.67  9.0584972E-01
   7135.00  8.6680716E-01
   7135.33  8.2104326E-01
   7135.67  7.7229588E-01
   7136.00  7.2291391E-01
   7136.33  6.7536959E-01
   7136.67  6.3116288E-01
   7137.00  5.9139368E-01
   7137.33  5.5771582E-01
   7137.67  5.3013274E-01
   7138.00  5.0895129E-01
   7138.33  4.9492283E-01
   7138.67  4.8674712E-01
   7139.00  4.8366661E-01
   7139.33  4.8506196E-01
   7139.67  4.8926573E-01
   7140.00  4.9536977E-01
   7140.33  5.0265825E-01
   7140.67  5.1040982E-01
   7141.00  5.1830568E-01
   7141.33  5.2612851E-01
   7141.67  5.3378651E-01
   7142.00  5.4123814E-01
   7142.33  5.4842628E-01
   7142.67  5.5536165E-01
   7143.00  5.6203558E-01
   7143.33  5.6841986E-01
   7143.67  5.7456892E-01
   7144.00  5.8051597E-01
   7144.33  5.8629396E-01
   7144.67  5.9198087E-01
   7145.00  5.9762827E-01
   7145.33  6.0329511E-01
   7145.67  6.0902768E-01
   7146.00  6.1485658E-01
   7146.33  6.2081496E-01
   7146.67  6.2689150E-01
   7147.00  6.3308102E-01
   7147.33  6.3938046E-01
   7147.67  6.4574759E-01
   7148.00  6.5214156E-01
   7148.33  6.5849037E-01
   7148.67  6.6470925E-01
   7149.00  6.7070264E-01
   7149.33  6.7629310E-01
   7149.67  6.8137371E-01
   7150.00  6.8580803E-01
   7150.33  6.8934098E-01
   7150.67  6.9193123E-01
   7151.00  6.9347546E-01
   7151.33  6.9374109E-01
   7151.67  6.9281841E-01
   7152.00  6.9069612E-01
   7152.33  6.8725230E-01
   7152.67  6.8269666E-01
   7153.00  6.7710879E-01
   7153.33  6.7049418E-01
   7153.67  6.6310410E-01
   7154.00  6.5505744E-01
   7154.33  6.4643131E-01
   7154.67  6.3743133E-01
   7155.00  6.2817267E-01
   7155.33  6.1876368E-01
   7155.67  6.0933742E-01
   7156.00  5.9998760E-01
   7156.33  5.9083766E-01
   7156.67  5.8195772E-01
   7157.00  5.7341977E-01
   7157.33  5.6535073E-01
   7157.67  5.5776275E-01
   7158.00  5.5070128E-01
   7158.33  5.4427539E-01
   7158.67  5.3843605E-01
   7159.00  5.3318833E-01
   7159.33  5.2859367E-01
   7159.67  5.2454977E-01
   7160.00  5.2101638E-01
   7160.33  5.1798573E-01
   7160.67  5.1532310E-01
   7161.00  5.1295170E-01
   7161.33  5.1080050E-01
   7161.67  5.0874734E-01
   7162.00  5.0670960E-01
   7162.33  5.0458743E-01
   7162.67  5.0231109E-01
   7163.00  4.9982604E-01
   7163.33  4.9705585E-01
   7163.67  4.9400859E-01
   7164.00  4.9068046E-01
   7164.33  4.8704882E-01
   7164.67  4.8317195E-01
   7165.00  4.7907972E-01
   7165.33  4.7478939E-01
   7165.67  4.7036246E-01
   7166.00  4.6583123E-01
   7166.33  4.6121953E-01
   7166.67  4.5656324E-01
   7167.00  4.5188163E-01
   7167.33  4.4719207E-01
   7167.67  4.4251004E-01
   7168.00  4.3784798E-01
   7168.33  4.3322984E-01
   7168.67  4.2866770E-01
   7169.00  4.2417277E-01
   7169.33  4.1977138E-01
   7169.67  4.1547359E-01
   7170.00  4.1130037E-01
   7170.33  4.0729941E-01
   7170.67  4.0348655E-01
   7171.00  3.9990156E-01
   7171.33  3.9664971E-01
   7171.67  3.9380610E-01
   7172.00  3.9150701E-01
