    FDMNES
    energy     <xanes>
   7097.00  4.3036549E-03
   7097.33  4.3919404E-03
   7097.67  4.4837001E-03
   7098.00  4.5791490E-03
   7098.33  4.6790590E-03
   7098.67  4.7832412E-03
   7099.00  4.8919865E-03
   7099.33  5.0062894E-03
   7099.67  5.1259558E-03
   7100.00  5.2513913E-03
   7100.33  5.3839146E-03
   7100.67  5.5233423E-03
   7101.00  5.6702605E-03
   7101.33  5.8264802E-03
   7101.67  5.9918655E-03
   7102.00  6.1672998E-03
   7102.33  6.3553794E-03
   7102.67  6.5560991E-03
   7103.00  6.7708614E-03
   7103.33  7.0035914E-03
   7103.67  7.2546098E-03
   7104.00  7.5262901E-03
   7104.33  7.8249769E-03
   7104.67  8.1518013E-03
   7105.00  8.5111150E-03
   7105.33  8.9140955E-03
   7105.67  9.3639952E-03
   7106.00  9.8696693E-03
   7106.33  1.0453182E-02
   7106.67  1.1123938E-02
   7107.00  1.1902678E-02
   7107.33  1.2840375E-02
   7107.67  1.3967457E-02
   7108.00  1.5343376E-02
   7108.33  1.7116534E-02
   7108.67  1.9410606E-02
   7109.00  2.2458414E-02
   7109.33  2.6883847E-02
   7109.67  3.3435165E-02
   7110.00  4.3589639E-02
   7110.33  6.1586457E-02
   7110.67  9.1199899E-02
   7111.00  1.2955519E-01
   7111.33  1.5800115E-01
   7111.67  1.7264753E-01
   7112.00  1.7927685E-01
   7112.33  1.7596484E-01
   7112.67  1.6175710E-01
   7113.00  1.3757222E-01
   7113.33  1.1536057E-01
   7113.67  1.0365762E-01
   7114.00  9.7396407E-02
   7114.33  8.6478067E-02
   7114.67  7.1668079E-02
   7115.00  5.9668567E-02
   7115.33  5.2970788E-02
   7115.67  4.9521594E-02
   7116.00  4.8262403E-02
   7116.33  4.8636061E-02
   7116.67  4.9876237E-02
   7117.00  5.1445715E-02
   7117.33  5.2959784E-02
   7117.67  5.4628398E-02
   7118.00  5.6859183E-02
   7118.33  6.0105456E-02
   7118.67  6.4437896E-02
   7119.00  7.0001594E-02
   7119.33  7.7247250E-02
   7119.67  8.6401443E-02
   7120.00  9.7921096E-02
   7120.33  1.1277001E-01
   7120.67  1.3115120E-01
   7121.00  1.5335212E-01
   7121.33  1.7922509E-01
   7121.67  2.0584528E-01
   7122.00  2.2947295E-01
   7122.33  2.4583061E-01
   7122.67  2.5622763E-01
   7123.00  2.6361643E-01
   7123.33  2.7207581E-01
   7123.67  2.8481829E-01
   7124.00  3.0394745E-01
   7124.33  3.3226044E-01
   7124.67  3.6877127E-01
   7125.00  4.0934456E-01
   7125.33  4.4312886E-01
   7125.67  4.6470195E-01
   7126.00  4.7750598E-01
   7126.33  4.8989215E-01
   7126.67  5.0775246E-01
   7127.00  5.3269604E-01
   7127.33  5.6608085E-01
   7127.67  6.0889723E-01
   7128.00  6.6404055E-01
   7128.33  7.3303225E-01
   7128.67  8.0581842E-01
   7129.00  8.7061595E-01
   7129.33  9.1631727E-01
   7129.67  9.4598696E-01
   7130.00  9.6441873E-01
   7130.33  9.7517919E-01
   7130.67  9.8070941E-01
   7131.00  9.8075227E-01
   7131.33  9.7397913E-01
   7131.67  9.6169251E-01
   7132.00  9.4535795E-01
   7132.33  9.2656917E-01
   7132.67  9.0680256E-01
   7133.00  8.8643136E-01
   7133.33  8.6533977E-01
   7133.67  8.4368099E-01
   7134.00  8.2212024E-01
   7134.33  8.0216330E-01
   7134.67  7.8431564E-01
   7135.00  7.6805704E-01
   7135.33  7.5214081E-01
   7135.67  7.3551400E-01
   7136.00  7.1789733E-01
   7136.33  6.9938600E-01
   7136.67  6.8048440E-01
   7137.00  6.6153929E-01
   7137.33  6.4293788E-01
   7137.67  6.2492758E-01
   7138.00  6.0769892E-01
   7138.33  5.9154713E-01
   7138.67  5.7649893E-01
   7139.00  5.6265975E-01
   7139.33  5.5028803E-01
   7139.67  5.3928015E-01
   7140.00  5.2965101E-01
   7140.33  5.2153691E-01
   7140.67  5.1468876E-01
   7141.00  5.0901186E-01
   7141.33  5.0452148E-01
   7141.67  5.0099075E-01
   7142.00  4.9836507E-01
   7142.33  4.9669971E-01
   7142.67  4.9584326E-01
   7143.00  4.9575853E-01
   7143.33  4.9648010E-01
   7143.67  4.9783669E-01
   7144.00  4.9973426E-01
   7144.33  5.0211333E-01
   7144.67  5.0482045E-01
   7145.00  5.0776946E-01
   7145.33  5.1087424E-01
   7145.67  5.1401941E-01
   7146.00  5.1713048E-01
   7146.33  5.2012067E-01
   7146.67  5.2294145E-01
   7147.00  5.2554250E-01
   7147.33  5.2781550E-01
   7147.67  5.2971153E-01
   7148.00  5.3116404E-01
   7148.33  5.3202903E-01
   7148.67  5.3228547E-01
   7149.00  5.3185677E-01
   7149.33  5.3056166E-01
   7149.67  5.2842392E-01
   7150.00  5.2539718E-01
   7150.33  5.2133569E-01
   7150.67  5.1635120E-01
   7151.00  5.1046319E-01
   7151.33  5.0361183E-01
   7151.67  4.9597281E-01
   7152.00  4.8762269E-01
   7152.33  4.7859861E-01
   7152.67  4.6908677E-01
   7153.00  4.5917506E-01
   7153.33  4.4892517E-01
   7153.67  4.3847290E-01
   7154.00  4.2790369E-01
   7154.33  4.1730557E-01
   7154.67  4.0676438E-01
   7155.00  3.9634751E-01
   7155.33  3.8615598E-01
   7155.67  3.7624058E-01
   7156.00  3.6666722E-01
   7156.33  3.5756486E-01
   7156.67  3.4895664E-01
   7157.00  3.4090581E-01
   7157.33  3.3356175E-01
   7157.67  3.2691341E-01
   7158.00  3.2101587E-01
   7158.33  3.1603054E-01
   7158.67  3.1191144E-01
   7159.00  3.0870147E-01
   7159.33  3.0656072E-01
   7159.67  3.0540088E-01
   7160.00  3.0523869E-01
   7160.33  3.0620431E-01
   7160.67  3.0815583E-01
   7161.00  3.1105726E-01
   7161.33  3.1494654E-01
   7161.67  3.1960384E-01
   7162.00  3.2490431E-01
   7162.33  3.3074066E-01
   7162.67  3.3687275E-01
   7163.00  3.4313965E-01
   7163.33  3.4935848E-01
   7163.67  3.5539114E-01
   7164.00  3.6114417E-01
   7164.33  3.6650299E-01
   7164.67  3.7148126E-01
   7165.00  3.7607652E-01
   7165.33  3.8025766E-01
   7165.67  3.8409533E-01
   7166.00  3.8761164E-01
   7166.33  3.9079082E-01
   7166.67  3.9368491E-01
   7167.00  3.9630050E-01
   7167.33  3.9860552E-01
   7167.67  4.0063382E-01
   7168.00  4.0238467E-01
   7168.33  4.0382705E-01
   7168.67  4.0500666E-01
   7169.00  4.0594145E-01
   7169.33  4.0663565E-01
   7169.67  4.0715646E-01
   7170.00  4.0754429E-01
   7170.33  4.0783955E-01
   7170.67  4.0810237E-01
   7171.00  4.0836965E-01
   7171.33  4.0867269E-01
   7171.67  4.0900350E-01
   7172.00  4.0932289E-01
