    FDMNES
    energy     <xanes>
   7097.00  4.4468685E-03
   7097.33  4.5397085E-03
   7097.67  4.6362623E-03
   7098.00  4.7367616E-03
   7098.33  4.8420345E-03
   7098.67  4.9518815E-03
   7099.00  5.0666161E-03
   7099.33  5.1873068E-03
   7099.67  5.3137485E-03
   7100.00  5.4463785E-03
   7100.33  5.5866155E-03
   7100.67  5.7342659E-03
   7101.00  5.8899621E-03
   7101.33  6.0556540E-03
   7101.67  6.2311999E-03
   7102.00  6.4175533E-03
   7102.33  6.6175124E-03
   7102.67  6.8310774E-03
   7103.00  7.0597636E-03
   7103.33  7.3078059E-03
   7103.67  7.5755593E-03
   7104.00  7.8655914E-03
   7104.33  8.1847596E-03
   7104.67  8.5343033E-03
   7105.00  8.9189426E-03
   7105.33  9.3507915E-03
   7105.67  9.8334190E-03
   7106.00  1.0376472E-02
   7106.33  1.1003982E-02
   7106.67  1.1726329E-02
   7107.00  1.2566288E-02
   7107.33  1.3579860E-02
   7107.67  1.4801005E-02
   7108.00  1.6295885E-02
   7108.33  1.8230089E-02
   7108.67  2.0744235E-02
   7109.00  2.4103346E-02
   7109.33  2.9022112E-02
   7109.67  3.6375625E-02
   7110.00  4.7898178E-02
   7110.33  6.8558996E-02
   7110.67  1.0238462E-01
   7111.00  1.4381873E-01
   7111.33  1.6773196E-01
   7111.67  1.7516808E-01
   7112.00  1.7588970E-01
   7112.33  1.7039390E-01
   7112.67  1.5768288E-01
   7113.00  1.3989823E-01
   7113.33  1.2831391E-01
   7113.67  1.2649022E-01
   7114.00  1.2129065E-01
   7114.33  1.0067479E-01
   7114.67  8.0041542E-02
   7115.00  6.6338800E-02
   7115.33  5.9232914E-02
   7115.67  5.5771479E-02
   7116.00  5.4699485E-02
   7116.33  5.5179221E-02
   7116.67  5.6327230E-02
   7117.00  5.7921396E-02
   7117.33  6.0201480E-02
   7117.67  6.3356959E-02
   7118.00  6.7579934E-02
   7118.33  7.3212511E-02
   7118.67  8.0293404E-02
   7119.00  8.9116408E-02
   7119.33  1.0055637E-01
   7119.67  1.1509730E-01
   7120.00  1.3337747E-01
   7120.33  1.5628274E-01
   7120.67  1.8275124E-01
   7121.00  2.1107684E-01
   7121.33  2.3744269E-01
   7121.67  2.5800817E-01
   7122.00  2.7097537E-01
   7122.33  2.7715450E-01
   7122.67  2.8151450E-01
   7123.00  2.8767380E-01
   7123.33  2.9918507E-01
   7123.67  3.1707334E-01
   7124.00  3.4204278E-01
   7124.33  3.7538737E-01
   7124.67  4.1513626E-01
   7125.00  4.5752562E-01
   7125.33  4.9388521E-01
   7125.67  5.1976382E-01
   7126.00  5.3892250E-01
   7126.33  5.6110399E-01
   7126.67  5.9070080E-01
   7127.00  6.2630194E-01
   7127.33  6.6775897E-01
   7127.67  7.1912214E-01
   7128.00  7.8381296E-01
   7128.33  8.5727083E-01
   7128.67  9.2321324E-01
   7129.00  9.6869905E-01
   7129.33  9.8591053E-01
   7129.67  9.8454904E-01
   7130.00  9.7332814E-01
   7130.33  9.5990368E-01
   7130.67  9.4819672E-01
   7131.00  9.3827524E-01
   7131.33  9.2771684E-01
   7131.67  9.1320600E-01
   7132.00  8.9251203E-01
   7132.33  8.6474024E-01
   7132.67  8.3334097E-01
   7133.00  8.0092296E-01
   7133.33  7.6886315E-01
   7133.67  7.3790847E-01
   7134.00  7.0953050E-01
   7134.33  6.8582201E-01
   7134.67  6.6611896E-01
   7135.00  6.4912594E-01
   7135.33  6.3360964E-01
   7135.67  6.1901664E-01
   7136.00  6.0562509E-01
   7136.33  5.9393676E-01
   7136.67  5.8370381E-01
   7137.00  5.7464748E-01
   7137.33  5.6647572E-01
   7137.67  5.5875679E-01
   7138.00  5.5128931E-01
   7138.33  5.4395617E-01
   7138.67  5.3671243E-01
   7139.00  5.2960477E-01
   7139.33  5.2278453E-01
   7139.67  5.1637613E-01
   7140.00  5.1050964E-01
   7140.33  5.0537928E-01
   7140.67  5.0093835E-01
   7141.00  4.9713479E-01
   7141.33  4.9390379E-01
   7141.67  4.9102664E-01
   7142.00  4.8838525E-01
   7142.33  4.8591490E-01
   7142.67  4.8359162E-01
   7143.00  4.8147345E-01
   7143.33  4.7971930E-01
   7143.67  4.7842782E-01
   7144.00  4.7771009E-01
   7144.33  4.7776059E-01
   7144.67  4.7858048E-01
   7145.00  4.8021447E-01
   7145.33  4.8275808E-01
   7145.67  4.8601714E-01
   7146.00  4.8982677E-01
   7146.33  4.9393172E-01
   7146.67  4.9794503E-01
   7147.00  5.0155427E-01
   7147.33  5.0435618E-01
   7147.67  5.0626267E-01
   7148.00  5.0724178E-01
   7148.33  5.0724090E-01
   7148.67  5.0646970E-01
   7149.00  5.0500983E-01
   7149.33  5.0283931E-01
   7149.67  5.0004190E-01
   7150.00  4.9658566E-01
   7150.33  4.9231949E-01
   7150.67  4.8727064E-01
   7151.00  4.8140264E-01
   7151.33  4.7460896E-01
   7151.67  4.6704013E-01
   7152.00  4.5878008E-01
   7152.33  4.4989085E-01
   7152.67  4.4058531E-01
   7153.00  4.3099061E-01
   7153.33  4.2123493E-01
   7153.67  4.1147261E-01
   7154.00  4.0181260E-01
   7154.33  3.9239910E-01
   7154.67  3.8330852E-01
   7155.00  3.7461982E-01
   7155.33  3.6647619E-01
   7155.67  3.5889168E-01
   7156.00  3.5192450E-01
   7156.33  3.4572039E-01
   7156.67  3.4024959E-01
   7157.00  3.3555417E-01
   7157.33  3.3177725E-01
   7157.67  3.2885197E-01
   7158.00  3.2680599E-01
   7158.33  3.2578136E-01
   7158.67  3.2568645E-01
   7159.00  3.2653051E-01
   7159.33  3.2842090E-01
   7159.67  3.3120221E-01
   7160.00  3.3481235E-01
   7160.33  3.3923403E-01
   7160.67  3.4423416E-01
   7161.00  3.4966788E-01
   7161.33  3.5538516E-01
   7161.67  3.6117278E-01
   7162.00  3.6688650E-01
   7162.33  3.7236707E-01
   7162.67  3.7755134E-01
   7163.00  3.8239426E-01
   7163.33  3.8682761E-01
   7163.67  3.9090543E-01
   7164.00  3.9465139E-01
   7164.33  3.9806644E-01
   7164.67  4.0123135E-01
   7165.00  4.0418136E-01
   7165.33  4.0692627E-01
   7165.67  4.0950951E-01
   7166.00  4.1193828E-01
   7166.33  4.1419046E-01
   7166.67  4.1627411E-01
   7167.00  4.1817537E-01
   7167.33  4.1985419E-01
   7167.67  4.2132637E-01
   7168.00  4.2259259E-01
   7168.33  4.2364171E-01
   7168.67  4.2452435E-01
   7169.00  4.2527290E-01
   7169.33  4.2592332E-01
   7169.67  4.2653934E-01
   7170.00  4.2716724E-01
   7170.33  4.2786408E-01
   7170.67  4.2865932E-01
   7171.00  4.2956745E-01
   7171.33  4.3058314E-01
   7171.67  4.3161634E-01
   7172.00  4.3253821E-01
