    FDMNES
    energy     <xanes>
   7097.00  4.2706734E-03
   7097.33  4.3577742E-03
   7097.67  4.4482440E-03
   7098.00  4.5422863E-03
   7098.33  4.6406410E-03
   7098.67  4.7431181E-03
   7099.00  4.8499911E-03
   7099.33  4.9622075E-03
   7099.67  5.0795699E-03
   7100.00  5.2024569E-03
   7100.33  5.3321162E-03
   7100.67  5.4683568E-03
   7101.00  5.6117222E-03
   7101.33  5.7639126E-03
   7101.67  5.9247759E-03
   7102.00  6.0951259E-03
   7102.33  6.2773801E-03
   7102.67  6.4714998E-03
   7103.00  6.6787687E-03
   7103.33  6.9028127E-03
   7103.67  7.1438809E-03
   7104.00  7.4041345E-03
   7104.33  7.6893920E-03
   7104.67  8.0006276E-03
   7105.00  8.3417900E-03
   7105.33  8.7230734E-03
   7105.67  9.1473680E-03
   7106.00  9.6227039E-03
   7106.33  1.0169157E-02
   7106.67  1.0795229E-02
   7107.00  1.1519799E-02
   7107.33  1.2389377E-02
   7107.67  1.3431888E-02
   7108.00  1.4701998E-02
   7108.33  1.6336575E-02
   7108.67  1.8451273E-02
   7109.00  2.1264265E-02
   7109.33  2.5363439E-02
   7109.67  3.1466103E-02
   7110.00  4.0994939E-02
   7110.33  5.8062840E-02
   7110.67  8.6374166E-02
   7111.00  1.2239166E-01
   7111.33  1.4161983E-01
   7111.67  1.4357824E-01
   7112.00  1.4193639E-01
   7112.33  1.3806867E-01
   7112.67  1.2922187E-01
   7113.00  1.1957192E-01
   7113.33  1.1809777E-01
   7113.67  1.1712636E-01
   7114.00  1.0555076E-01
   7114.33  8.5064807E-02
   7114.67  6.8527343E-02
   7115.00  5.8515387E-02
   7115.33  5.3665778E-02
   7115.67  5.1584371E-02
   7116.00  5.1382386E-02
   7116.33  5.2579278E-02
   7116.67  5.4481082E-02
   7117.00  5.6662908E-02
   7117.33  5.8952759E-02
   7117.67  6.1524635E-02
   7118.00  6.4624346E-02
   7118.33  6.8622728E-02
   7118.67  7.3725292E-02
   7119.00  8.0260525E-02
   7119.33  8.8905344E-02
   7119.67  9.9937530E-02
   7120.00  1.1386892E-01
   7120.33  1.3182703E-01
   7120.67  1.5408022E-01
   7121.00  1.8116357E-01
   7121.33  2.1388149E-01
   7121.67  2.5050554E-01
   7122.00  2.8838749E-01
   7122.33  3.2269250E-01
   7122.67  3.5120325E-01
   7123.00  3.7559338E-01
   7123.33  4.0080215E-01
   7123.67  4.2993394E-01
   7124.00  4.6246853E-01
   7124.33  4.9468003E-01
   7124.67  5.2136043E-01
   7125.00  5.3833272E-01
   7125.33  5.4205324E-01
   7125.67  5.3761471E-01
   7126.00  5.3178110E-01
   7126.33  5.3278092E-01
   7126.67  5.4390364E-01
   7127.00  5.6514860E-01
   7127.33  5.9333724E-01
   7127.67  6.2178482E-01
   7128.00  6.4711058E-01
   7128.33  6.6926931E-01
   7128.67  6.9171396E-01
   7129.00  7.1676518E-01
   7129.33  7.4488995E-01
   7129.67  7.7226863E-01
   7130.00  7.9438462E-01
   7130.33  8.0691038E-01
   7130.67  8.1118987E-01
   7131.00  8.0868558E-01
   7131.33  8.0030094E-01
   7131.67  7.8828040E-01
   7132.00  7.7429309E-01
   7132.33  7.6024799E-01
   7132.67  7.4744048E-01
   7133.00  7.3632098E-01
   7133.33  7.2697957E-01
   7133.67  7.1867310E-01
   7134.00  7.1092016E-01
   7134.33  7.0343373E-01
   7134.67  6.9591084E-01
   7135.00  6.8809953E-01
   7135.33  6.7993086E-01
   7135.67  6.7180349E-01
   7136.00  6.6414839E-01
   7136.33  6.5739442E-01
   7136.67  6.5141615E-01
   7137.00  6.4592921E-01
   7137.33  6.4045011E-01
   7137.67  6.3450541E-01
   7138.00  6.2779990E-01
   7138.33  6.2005974E-01
   7138.67  6.1143675E-01
   7139.00  6.0209282E-01
   7139.33  5.9227412E-01
   7139.67  5.8240031E-01
   7140.00  5.7279627E-01
   7140.33  5.6388049E-01
   7140.67  5.5584375E-01
   7141.00  5.4883837E-01
   7141.33  5.4308417E-01
   7141.67  5.3844006E-01
   7142.00  5.3486218E-01
   7142.33  5.3238198E-01
   7142.67  5.3078904E-01
   7143.00  5.3003537E-01
   7143.33  5.3019269E-01
   7143.67  5.3113408E-01
   7144.00  5.3282879E-01
   7144.33  5.3532587E-01
   7144.67  5.3847640E-01
   7145.00  5.4219547E-01
   7145.33  5.4639741E-01
   7145.67  5.5085552E-01
   7146.00  5.5540523E-01
   7146.33  5.5983780E-01
   7146.67  5.6398053E-01
   7147.00  5.6768565E-01
   7147.33  5.7071972E-01
   7147.67  5.7304140E-01
   7148.00  5.7458677E-01
   7148.33  5.7519839E-01
   7148.67  5.7493741E-01
   7149.00  5.7376933E-01
   7149.33  5.7153215E-01
   7149.67  5.6830010E-01
   7150.00  5.6403850E-01
   7150.33  5.5858201E-01
   7150.67  5.5205096E-01
   7151.00  5.4446083E-01
   7151.33  5.3574216E-01
   7151.67  5.2612236E-01
   7152.00  5.1571481E-01
   7152.33  5.0458255E-01
   7152.67  4.9295635E-01
   7153.00  4.8096249E-01
   7153.33  4.6870434E-01
   7153.67  4.5632703E-01
   7154.00  4.4391879E-01
   7154.33  4.3157848E-01
   7154.67  4.1937936E-01
   7155.00  4.0738651E-01
   7155.33  3.9570902E-01
   7155.67  3.8438653E-01
   7156.00  3.7348394E-01
   7156.33  3.6313744E-01
   7156.67  3.5335686E-01
   7157.00  3.4420072E-01
   7157.33  3.3581820E-01
   7157.67  3.2818110E-01
   7158.00  3.2133496E-01
   7158.33  3.1543141E-01
   7158.67  3.1040259E-01
   7159.00  3.0626834E-01
   7159.33  3.0314572E-01
   7159.67  3.0090341E-01
   7160.00  2.9950520E-01
   7160.33  2.9898492E-01
   7160.67  2.9916510E-01
   7161.00  2.9997168E-01
   7161.33  3.0138603E-01
   7161.67  3.0325577E-01
   7162.00  3.0551266E-01
   7162.33  3.0812838E-01
   7162.67  3.1100053E-01
   7163.00  3.1406972E-01
   7163.33  3.1727287E-01
   7163.67  3.2051610E-01
   7164.00  3.2373878E-01
   7164.33  3.2687642E-01
   7164.67  3.2989939E-01
   7165.00  3.3278945E-01
   7165.33  3.3552917E-01
   7165.67  3.3815474E-01
   7166.00  3.4069515E-01
   7166.33  3.4318775E-01
   7166.67  3.4568393E-01
   7167.00  3.4822156E-01
   7167.33  3.5084933E-01
   7167.67  3.5358767E-01
   7168.00  3.5645581E-01
   7168.33  3.5948777E-01
   7168.67  3.6267456E-01
   7169.00  3.6601896E-01
   7169.33  3.6953764E-01
   7169.67  3.7320097E-01
   7170.00  3.7699281E-01
   7170.33  3.8089588E-01
   7170.67  3.8485112E-01
   7171.00  3.8879661E-01
   7171.33  3.9259839E-01
   7171.67  3.9606414E-01
   7172.00  3.9892594E-01
