    FDMNES
    energy     <xanes>
   7097.00  4.9548610E-03
   7097.33  5.0657491E-03
   7097.67  5.1813017E-03
   7098.00  5.3018126E-03
   7098.33  5.4283249E-03
   7098.67  5.5605891E-03
   7099.00  5.6989995E-03
   7099.33  5.8448976E-03
   7099.67  5.9980211E-03
   7100.00  6.1589139E-03
   7100.33  6.3293451E-03
   7100.67  6.5090569E-03
   7101.00  6.6988233E-03
   7101.33  6.9010497E-03
   7101.67  7.1155222E-03
   7102.00  7.3433848E-03
   7102.33  7.5880338E-03
   7102.67  7.8493882E-03
   7103.00  8.1292201E-03
   7103.33  8.4325554E-03
   7103.67  8.7596531E-03
   7104.00  9.1134234E-03
   7104.33  9.5017615E-03
   7104.67  9.9257740E-03
   7105.00  1.0390609E-02
   7105.33  1.0909680E-02
   7105.67  1.1486288E-02
   7106.00  1.2130486E-02
   7106.33  1.2867604E-02
   7106.67  1.3707190E-02
   7107.00  1.4671731E-02
   7107.33  1.5816834E-02
   7107.67  1.7172883E-02
   7108.00  1.8801288E-02
   7108.33  2.0855351E-02
   7108.67  2.3455696E-02
   7109.00  2.6832178E-02
   7109.33  3.1598301E-02
   7109.67  3.8469050E-02
   7110.00  4.8857553E-02
   7110.33  6.6779547E-02
   7110.67  9.5468071E-02
   7111.00  1.3088288E-01
   7111.33  1.5597195E-01
   7111.67  1.7697874E-01
   7112.00  2.0228662E-01
   7112.33  2.1508216E-01
   7112.67  2.0563931E-01
   7113.00  1.9997065E-01
   7113.33  2.2363321E-01
   7113.67  2.6040321E-01
   7114.00  2.6860190E-01
   7114.33  2.2579724E-01
   7114.67  1.7850304E-01
   7115.00  1.4560292E-01
   7115.33  1.2801195E-01
   7115.67  1.1945032E-01
   7116.00  1.1744511E-01
   7116.33  1.2107424E-01
   7116.67  1.2898800E-01
   7117.00  1.4084928E-01
   7117.33  1.5657678E-01
   7117.67  1.7480800E-01
   7118.00  1.9452549E-01
   7118.33  2.1475875E-01
   7118.67  2.3483436E-01
   7119.00  2.5480017E-01
   7119.33  2.7521750E-01
   7119.67  2.9534589E-01
   7120.00  3.1275618E-01
   7120.33  3.2532688E-01
   7120.67  3.3626257E-01
   7121.00  3.4831184E-01
   7121.33  3.6255590E-01
   7121.67  3.7814383E-01
   7122.00  3.9448903E-01
   7122.33  4.1144750E-01
   7122.67  4.2973168E-01
   7123.00  4.5085699E-01
   7123.33  4.7732189E-01
   7123.67  5.0954313E-01
   7124.00  5.4712040E-01
   7124.33  5.8790545E-01
   7124.67  6.2689637E-01
   7125.00  6.5960489E-01
   7125.33  6.8139276E-01
   7125.67  6.9303859E-01
   7126.00  6.9577515E-01
   7126.33  6.9050061E-01
   7126.67  6.7946851E-01
   7127.00  6.6368612E-01
   7127.33  6.4464275E-01
   7127.67  6.2557970E-01
   7128.00  6.0896029E-01
   7128.33  5.9683608E-01
   7128.67  5.8874732E-01
   7129.00  5.8407389E-01
   7129.33  5.8223648E-01
   7129.67  5.8206760E-01
   7130.00  5.8289436E-01
   7130.33  5.8402642E-01
   7130.67  5.8480333E-01
   7131.00  5.8486057E-01
   7131.33  5.8392031E-01
   7131.67  5.8212701E-01
   7132.00  5.7959684E-01
   7132.33  5.7644861E-01
   7132.67  5.7296810E-01
   7133.00  5.6933448E-01
   7133.33  5.6571248E-01
   7133.67  5.6220523E-01
   7134.00  5.5885730E-01
   7134.33  5.5569958E-01
   7134.67  5.5268040E-01
   7135.00  5.4975956E-01
   7135.33  5.4695841E-01
   7135.67  5.4431829E-01
   7136.00  5.4189363E-01
   7136.33  5.3977731E-01
   7136.67  5.3798271E-01
   7137.00  5.3653894E-01
   7137.33  5.3550874E-01
   7137.67  5.3483995E-01
   7138.00  5.3450538E-01
   7138.33  5.3448046E-01
   7138.67  5.3464687E-01
   7139.00  5.3492231E-01
   7139.33  5.3522118E-01
   7139.67  5.3548217E-01
   7140.00  5.3568816E-01
   7140.33  5.3584943E-01
   7140.67  5.3601134E-01
   7141.00  5.3621791E-01
   7141.33  5.3653042E-01
   7141.67  5.3697257E-01
   7142.00  5.3755621E-01
   7142.33  5.3828641E-01
   7142.67  5.3911041E-01
   7143.00  5.3998094E-01
   7143.33  5.4082980E-01
   7143.67  5.4159154E-01
   7144.00  5.4221412E-01
   7144.33  5.4262865E-01
   7144.67  5.4283310E-01
   7145.00  5.4282221E-01
   7145.33  5.4257758E-01
   7145.67  5.4213938E-01
   7146.00  5.4151960E-01
   7146.33  5.4070370E-01
   7146.67  5.3970884E-01
   7147.00  5.3852086E-01
   7147.33  5.3708627E-01
   7147.67  5.3540142E-01
   7148.00  5.3344037E-01
   7148.33  5.3113836E-01
   7148.67  5.2851183E-01
   7149.00  5.2554728E-01
   7149.33  5.2219084E-01
   7149.67  5.1847917E-01
   7150.00  5.1440722E-01
   7150.33  5.0992439E-01
   7150.67  5.0507420E-01
   7151.00  4.9985852E-01
   7151.33  4.9423980E-01
   7151.67  4.8827710E-01
   7152.00  4.8198976E-01
   7152.33  4.7537442E-01
   7152.67  4.6851549E-01
   7153.00  4.6145800E-01
   7153.33  4.5423718E-01
   7153.67  4.4693750E-01
   7154.00  4.3961898E-01
   7154.33  4.3235217E-01
   7154.67  4.2519593E-01
   7155.00  4.1820632E-01
   7155.33  4.1147742E-01
   7155.67  4.0504452E-01
   7156.00  3.9896197E-01
   7156.33  3.9334150E-01
   7156.67  3.8818729E-01
   7157.00  3.8354259E-01
   7157.33  3.7951970E-01
   7157.67  3.7608324E-01
   7158.00  3.7325404E-01
   7158.33  3.7112278E-01
   7158.67  3.6961140E-01
   7159.00  3.6870801E-01
   7159.33  3.6845789E-01
   7159.67  3.6874657E-01
   7160.00  3.6952681E-01
   7160.33  3.7078610E-01
   7160.67  3.7239831E-01
   7161.00  3.7429868E-01
   7161.33  3.7644005E-01
   7161.67  3.7872735E-01
   7162.00  3.8110949E-01
   7162.33  3.8354381E-01
   7162.67  3.8598829E-01
   7163.00  3.8842065E-01
   7163.33  3.9081978E-01
   7163.67  3.9317571E-01
   7164.00  3.9547763E-01
   7164.33  3.9771584E-01
   7164.67  3.9990288E-01
   7165.00  4.0204595E-01
   7165.33  4.0415292E-01
   7165.67  4.0624410E-01
   7166.00  4.0833708E-01
   7166.33  4.1045945E-01
   7166.67  4.1263491E-01
   7167.00  4.1488687E-01
   7167.33  4.1725517E-01
   7167.67  4.1975154E-01
   7168.00  4.2239255E-01
   7168.33  4.2521065E-01
   7168.67  4.2818960E-01
   7169.00  4.3132314E-01
   7169.33  4.3461236E-01
   7169.67  4.3801412E-01
   7170.00  4.4149772E-01
   7170.33  4.4502144E-01
   7170.67  4.4852218E-01
   7171.00  4.5193597E-01
   7171.33  4.5513691E-01
   7171.67  4.5799142E-01
   7172.00  4.6031345E-01
