    FDMNES
    energy     <xanes>
   7097.00  5.4821412E-03
   7097.33  5.6246768E-03
   7097.67  5.7743177E-03
   7098.00  5.9315813E-03
   7098.33  6.0981735E-03
   7098.67  6.2738076E-03
   7099.00  6.4591997E-03
   7099.33  6.6566202E-03
   7099.67  6.8657889E-03
   7100.00  7.0877237E-03
   7100.33  7.3255290E-03
   7100.67  7.5789743E-03
   7101.00  7.8495531E-03
   7101.33  8.1416462E-03
   7101.67  8.4551680E-03
   7102.00  8.7923931E-03
   7102.33  9.1597417E-03
   7102.67  9.5574819E-03
   7103.00  9.9892366E-03
   7103.33  1.0464858E-02
   7103.67  1.0985440E-02
   7104.00  1.1557082E-02
   7104.33  1.2195789E-02
   7104.67  1.2904620E-02
   7105.00  1.3694572E-02
   7105.33  1.4593620E-02
   7105.67  1.5609742E-02
   7106.00  1.6764651E-02
   7106.33  1.8112204E-02
   7106.67  1.9673947E-02
   7107.00  2.1498370E-02
   7107.33  2.3704148E-02
   7107.67  2.6356381E-02
   7108.00  2.9584618E-02
   7108.33  3.3709031E-02
   7108.67  3.8972945E-02
   7109.00  4.5835895E-02
   7109.33  5.5502805E-02
   7109.67  6.9300550E-02
   7110.00  8.9820026E-02
   7110.33  1.2441645E-01
   7110.67  1.8027146E-01
   7111.00  2.5705188E-01
   7111.33  3.3403668E-01
   7111.67  4.0887965E-01
   7112.00  4.9664839E-01
   7112.33  6.0205696E-01
   7112.67  6.6369375E-01
   7113.00  6.3406210E-01
   7113.33  5.4421725E-01
   7113.67  4.5557823E-01
   7114.00  3.8648660E-01
   7114.33  3.2961752E-01
   7114.67  2.7586137E-01
   7115.00  2.2888027E-01
   7115.33  1.9496046E-01
   7115.67  1.7291141E-01
   7116.00  1.6015735E-01
   7116.33  1.5408736E-01
   7116.67  1.5317244E-01
   7117.00  1.5775877E-01
   7117.33  1.6626148E-01
   7117.67  1.7473764E-01
   7118.00  1.8163375E-01
   7118.33  1.8589933E-01
   7118.67  1.8489475E-01
   7119.00  1.7586687E-01
   7119.33  1.6217606E-01
   7119.67  1.5092891E-01
   7120.00  1.4374480E-01
   7120.33  1.3970836E-01
   7120.67  1.3704545E-01
   7121.00  1.3498613E-01
   7121.33  1.3304035E-01
   7121.67  1.3177495E-01
   7122.00  1.3260951E-01
   7122.33  1.3722471E-01
   7122.67  1.4526835E-01
   7123.00  1.5650284E-01
   7123.33  1.7132236E-01
   7123.67  1.8936812E-01
   7124.00  2.1022038E-01
   7124.33  2.3261292E-01
   7124.67  2.5436962E-01
   7125.00  2.7433319E-01
   7125.33  2.9217135E-01
   7125.67  3.0884708E-01
   7126.00  3.2508617E-01
   7126.33  3.4108829E-01
   7126.67  3.5605951E-01
   7127.00  3.6966655E-01
   7127.33  3.8336806E-01
   7127.67  3.9903443E-01
   7128.00  4.1728939E-01
   7128.33  4.3766385E-01
   7128.67  4.5816826E-01
   7129.00  4.7745669E-01
   7129.33  4.9507763E-01
   7129.67  5.1196392E-01
   7130.00  5.2863669E-01
   7130.33  5.4546898E-01
   7130.67  5.6335488E-01
   7131.00  5.8395679E-01
   7131.33  6.1036708E-01
   7131.67  6.4363008E-01
   7132.00  6.8383155E-01
   7132.33  7.2992014E-01
   7132.67  7.7749180E-01
   7133.00  8.2153890E-01
   7133.33  8.5364523E-01
   7133.67  8.6939039E-01
   7134.00  8.6711540E-01
   7134.33  8.4739350E-01
   7134.67  8.1758581E-01
   7135.00  7.8251643E-01
   7135.33  7.4621357E-01
   7135.67  7.1119457E-01
   7136.00  6.7852664E-01
   7136.33  6.4926311E-01
   7136.67  6.2332533E-01
   7137.00  6.0069474E-01
   7137.33  5.8146861E-01
   7137.67  5.6489461E-01
   7138.00  5.5071592E-01
   7138.33  5.3902436E-01
   7138.67  5.2943747E-01
   7139.00  5.2188043E-01
   7139.33  5.1646118E-01
   7139.67  5.1270536E-01
   7140.00  5.1030348E-01
   7140.33  5.0892480E-01
   7140.67  5.0803101E-01
   7141.00  5.0739330E-01
   7141.33  5.0703120E-01
   7141.67  5.0715836E-01
   7142.00  5.0809360E-01
   7142.33  5.1033127E-01
   7142.67  5.1394937E-01
   7143.00  5.1900726E-01
   7143.33  5.2561485E-01
   7143.67  5.3344850E-01
   7144.00  5.4234178E-01
   7144.33  5.5217771E-01
   7144.67  5.6258861E-01
   7145.00  5.7330091E-01
   7145.33  5.8392763E-01
   7145.67  5.9407121E-01
   7146.00  6.0341723E-01
   7146.33  6.1160595E-01
   7146.67  6.1875883E-01
   7147.00  6.2506244E-01
   7147.33  6.3083212E-01
   7147.67  6.3654271E-01
   7148.00  6.4248859E-01
   7148.33  6.4894330E-01
   7148.67  6.5592146E-01
   7149.00  6.6337756E-01
   7149.33  6.7120489E-01
   7149.67  6.7913676E-01
   7150.00  6.8693797E-01
   7150.33  6.9426534E-01
   7150.67  7.0089221E-01
   7151.00  7.0661035E-01
   7151.33  7.1110090E-01
   7151.67  7.1439521E-01
   7152.00  7.1646390E-01
   7152.33  7.1717877E-01
   7152.67  7.1674825E-01
   7153.00  7.1523036E-01
   7153.33  7.1255491E-01
   7153.67  7.0888905E-01
   7154.00  7.0425011E-01
   7154.33  6.9852605E-01
   7154.67  6.9184387E-01
   7155.00  6.8421670E-01
   7155.33  6.7556400E-01
   7155.67  6.6605964E-01
   7156.00  6.5578200E-01
   7156.33  6.4477590E-01
   7156.67  6.3327720E-01
   7157.00  6.2143376E-01
   7157.33  6.0940436E-01
   7157.67  5.9738917E-01
   7158.00  5.8553831E-01
   7158.33  5.7405910E-01
   7158.67  5.6305828E-01
   7159.00  5.5264168E-01
   7159.33  5.4298972E-01
   7159.67  5.3408572E-01
   7160.00  5.2596855E-01
   7160.33  5.1875989E-01
   7160.67  5.1235808E-01
   7161.00  5.0674871E-01
   7161.33  5.0199538E-01
   7161.67  4.9795863E-01
   7162.00  4.9459280E-01
   7162.33  4.9191251E-01
   7162.67  4.8977022E-01
   7163.00  4.8809823E-01
   7163.33  4.8685891E-01
   7163.67  4.8590916E-01
   7164.00  4.8515880E-01
   7164.33  4.8450212E-01
   7164.67  4.8380169E-01
   7165.00  4.8294189E-01
   7165.33  4.8175082E-01
   7165.67  4.8014495E-01
   7166.00  4.7804398E-01
   7166.33  4.7532196E-01
   7166.67  4.7203677E-01
   7167.00  4.6821651E-01
   7167.33  4.6387473E-01
   7167.67  4.5917033E-01
   7168.00  4.5420160E-01
   7168.33  4.4906537E-01
   7168.67  4.4388670E-01
   7169.00  4.3874423E-01
   7169.33  4.3372425E-01
   7169.67  4.2886407E-01
   7170.00  4.2419153E-01
   7170.33  4.1975221E-01
   7170.67  4.1553553E-01
   7171.00  4.1156170E-01
   7171.33  4.0791960E-01
   7171.67  4.0469226E-01
   7172.00  4.0205433E-01
