    FDMNES
    energy     <xanes>
   7097.00  5.4435438E-03
   7097.33  5.5788367E-03
   7097.67  5.7205072E-03
   7098.00  5.8689991E-03
   7098.33  6.0258099E-03
   7098.67  6.1906549E-03
   7099.00  6.3641435E-03
   7099.33  6.5482479E-03
   7099.67  6.7426825E-03
   7100.00  6.9483064E-03
   7100.33  7.1677887E-03
   7100.67  7.4008768E-03
   7101.00  7.6488219E-03
   7101.33  7.9153530E-03
   7101.67  8.2003274E-03
   7102.00  8.5056382E-03
   7102.33  8.8367000E-03
   7102.67  9.1936501E-03
   7103.00  9.5794887E-03
   7103.33  1.0002459E-02
   7103.67  1.0463369E-02
   7104.00  1.0967252E-02
   7104.33  1.1527427E-02
   7104.67  1.2146317E-02
   7105.00  1.2833009E-02
   7105.33  1.3610727E-02
   7105.67  1.4486014E-02
   7106.00  1.5476902E-02
   7106.33  1.6628265E-02
   7106.67  1.7958221E-02
   7107.00  1.9507562E-02
   7107.33  2.1376390E-02
   7107.67  2.3620962E-02
   7108.00  2.6352880E-02
   7108.33  2.9849222E-02
   7108.67  3.4327764E-02
   7109.00  4.0199762E-02
   7109.33  4.8553038E-02
   7109.67  6.0627322E-02
   7110.00  7.8858375E-02
   7110.33  1.1028994E-01
   7110.67  1.6255975E-01
   7111.00  2.3745000E-01
   7111.33  3.0689422E-01
   7111.67  3.4226519E-01
   7112.00  3.4847597E-01
   7112.33  3.4254106E-01
   7112.67  3.5345593E-01
   7113.00  3.9303123E-01
   7113.33  4.4260405E-01
   7113.67  4.5427302E-01
   7114.00  4.1693718E-01
   7114.33  3.5744523E-01
   7114.67  3.0597254E-01
   7115.00  2.6951152E-01
   7115.33  2.4693880E-01
   7115.67  2.3055663E-01
   7116.00  2.1451047E-01
   7116.33  1.9320843E-01
   7116.67  1.6975858E-01
   7117.00  1.4970342E-01
   7117.33  1.3656376E-01
   7117.67  1.2881144E-01
   7118.00  1.2500662E-01
   7118.33  1.2374693E-01
   7118.67  1.2365399E-01
   7119.00  1.2470852E-01
   7119.33  1.2773365E-01
   7119.67  1.3320604E-01
   7120.00  1.4180383E-01
   7120.33  1.5450248E-01
   7120.67  1.7049596E-01
   7121.00  1.8890112E-01
   7121.33  2.0940843E-01
   7121.67  2.3303533E-01
   7122.00  2.6212116E-01
   7122.33  2.9920890E-01
   7122.67  3.3871669E-01
   7123.00  3.6869203E-01
   7123.33  3.7648441E-01
   7123.67  3.7545307E-01
   7124.00  3.8093590E-01
   7124.33  4.0266756E-01
   7124.67  4.3714083E-01
   7125.00  4.7817671E-01
   7125.33  5.1548275E-01
   7125.67  5.4244384E-01
   7126.00  5.5913577E-01
   7126.33  5.7018615E-01
   7126.67  5.8139139E-01
   7127.00  5.9436885E-01
   7127.33  6.0822436E-01
   7127.67  6.2083818E-01
   7128.00  6.3097490E-01
   7128.33  6.3867415E-01
   7128.67  6.4643906E-01
   7129.00  6.5661112E-01
   7129.33  6.7132718E-01
   7129.67  6.8986330E-01
   7130.00  7.1067228E-01
   7130.33  7.3096806E-01
   7130.67  7.4805191E-01
   7131.00  7.6024768E-01
   7131.33  7.6616298E-01
   7131.67  7.6710948E-01
   7132.00  7.6436766E-01
   7132.33  7.5968665E-01
   7132.67  7.5543956E-01
   7133.00  7.5344233E-01
   7133.33  7.5601795E-01
   7133.67  7.6371916E-01
   7134.00  7.7638803E-01
   7134.33  7.9239301E-01
   7134.67  8.0713584E-01
   7135.00  8.1558905E-01
   7135.33  8.1050134E-01
   7135.67  7.9047627E-01
   7136.00  7.5668494E-01
   7136.33  7.1274573E-01
   7136.67  6.6557002E-01
   7137.00  6.1925429E-01
   7137.33  5.7737551E-01
   7137.67  5.4092722E-01
   7138.00  5.1028305E-01
   7138.33  4.8594213E-01
   7138.67  4.6664228E-01
   7139.00  4.5179498E-01
   7139.33  4.4119052E-01
   7139.67  4.3375201E-01
   7140.00  4.2904433E-01
   7140.33  4.2695195E-01
   7140.67  4.2687929E-01
   7141.00  4.2863470E-01
   7141.33  4.3226805E-01
   7141.67  4.3745834E-01
   7142.00  4.4411503E-01
   7142.33  4.5224623E-01
   7142.67  4.6140237E-01
   7143.00  4.7117340E-01
   7143.33  4.8084315E-01
   7143.67  4.8953700E-01
   7144.00  4.9649739E-01
   7144.33  5.0080428E-01
   7144.67  5.0260287E-01
   7145.00  5.0216610E-01
   7145.33  4.9994764E-01
   7145.67  4.9690854E-01
   7146.00  4.9360152E-01
   7146.33  4.9052036E-01
   7146.67  4.8794079E-01
   7147.00  4.8601643E-01
   7147.33  4.8494190E-01
   7147.67  4.8467268E-01
   7148.00  4.8522832E-01
   7148.33  4.8671717E-01
   7148.67  4.8902280E-01
   7149.00  4.9211736E-01
   7149.33  4.9603302E-01
   7149.67  5.0058440E-01
   7150.00  5.0566084E-01
   7150.33  5.1114940E-01
   7150.67  5.1682643E-01
   7151.00  5.2253804E-01
   7151.33  5.2810484E-01
   7151.67  5.3341046E-01
   7152.00  5.3837114E-01
   7152.33  5.4287239E-01
   7152.67  5.4693196E-01
   7153.00  5.5053845E-01
   7153.33  5.5363469E-01
   7153.67  5.5628430E-01
   7154.00  5.5849502E-01
   7154.33  5.6022143E-01
   7154.67  5.6152358E-01
   7155.00  5.6240394E-01
   7155.33  5.6280779E-01
   7155.67  5.6278349E-01
   7156.00  5.6232714E-01
   7156.33  5.6138127E-01
   7156.67  5.6000001E-01
   7157.00  5.5818572E-01
   7157.33  5.5589065E-01
   7157.67  5.5317804E-01
   7158.00  5.5006048E-01
   7158.33  5.4650972E-01
   7158.67  5.4259994E-01
   7159.00  5.3835852E-01
   7159.33  5.3378513E-01
   7159.67  5.2895807E-01
   7160.00  5.2391540E-01
   7160.33  5.1868075E-01
   7160.67  5.1332177E-01
   7161.00  5.0787865E-01
   7161.33  5.0239008E-01
   7161.67  4.9690144E-01
   7162.00  4.9144523E-01
   7162.33  4.8606189E-01
   7162.67  4.8076802E-01
   7163.00  4.7558438E-01
   7163.33  4.7056311E-01
   7163.67  4.6571535E-01
   7164.00  4.6105235E-01
   7164.33  4.5660552E-01
   7164.67  4.5235720E-01
   7165.00  4.4831189E-01
   7165.33  4.4449817E-01
   7165.67  4.4089165E-01
   7166.00  4.3749369E-01
   7166.33  4.3433000E-01
   7166.67  4.3137129E-01
   7167.00  4.2861744E-01
   7167.33  4.2609800E-01
   7167.67  4.2379210E-01
   7168.00  4.2170491E-01
   7168.33  4.1987045E-01
   7168.67  4.1826542E-01
   7169.00  4.1689164E-01
   7169.33  4.1577370E-01
   7169.67  4.1486926E-01
   7170.00  4.1416283E-01
   7170.33  4.1365820E-01
   7170.67  4.1331004E-01
   7171.00  4.1309435E-01
   7171.33  4.1298964E-01
   7171.67  4.1294177E-01
   7172.00  4.1290903E-01
