    FDMNES
    energy     <xanes>
   7097.00  4.0096810E-03
   7097.33  4.0888219E-03
   7097.67  4.1710646E-03
   7098.00  4.2566063E-03
   7098.33  4.3461454E-03
   7098.67  4.4395213E-03
   7099.00  4.5370037E-03
   7099.33  4.6395007E-03
   7099.67  4.7468507E-03
   7100.00  4.8594340E-03
   7100.33  4.9784679E-03
   7100.67  5.1038069E-03
   7101.00  5.2360075E-03
   7101.33  5.3767617E-03
   7101.67  5.5259788E-03
   7102.00  5.6845083E-03
   7102.33  5.8548083E-03
   7102.67  6.0369287E-03
   7103.00  6.2322351E-03
   7103.33  6.4444962E-03
   7103.67  6.6741020E-03
   7104.00  6.9233891E-03
   7104.33  7.1985334E-03
   7104.67  7.5007551E-03
   7105.00  7.8343764E-03
   7105.33  8.2104029E-03
   7105.67  8.6321994E-03
   7106.00  9.1085957E-03
   7106.33  9.6614629E-03
   7106.67  1.0300277E-02
   7107.00  1.1045635E-02
   7107.33  1.1947908E-02
   7107.67  1.3036900E-02
   7108.00  1.4370518E-02
   7108.33  1.6092235E-02
   7108.67  1.8317760E-02
   7109.00  2.1263194E-02
   7109.33  2.5497570E-02
   7109.67  3.1667119E-02
   7110.00  4.1030328E-02
   7110.33  5.7217804E-02
   7110.67  8.4427050E-02
   7111.00  1.2558424E-01
   7111.33  1.7596045E-01
   7111.67  2.1979065E-01
   7112.00  2.3486843E-01
   7112.33  1.9940647E-01
   7112.67  1.4472030E-01
   7113.00  1.0056379E-01
   7113.33  7.4981697E-02
   7113.67  6.0522535E-02
   7114.00  5.3717904E-02
   7114.33  5.2879726E-02
   7114.67  5.2797102E-02
   7115.00  4.8020962E-02
   7115.33  4.0928623E-02
   7115.67  3.6180538E-02
   7116.00  3.3684736E-02
   7116.33  3.2638387E-02
   7116.67  3.2247181E-02
   7117.00  3.2242655E-02
   7117.33  3.2498965E-02
   7117.67  3.2898856E-02
   7118.00  3.3436567E-02
   7118.33  3.4208391E-02
   7118.67  3.5293280E-02
   7119.00  3.6799606E-02
   7119.33  3.8920537E-02
   7119.67  4.1639183E-02
   7120.00  4.4873877E-02
   7120.33  4.8469101E-02
   7120.67  5.2412559E-02
   7121.00  5.7047966E-02
   7121.33  6.3007791E-02
   7121.67  7.0507237E-02
   7122.00  7.9806284E-02
   7122.33  9.1502294E-02
   7122.67  1.0549362E-01
   7123.00  1.2139568E-01
   7123.33  1.3842150E-01
   7123.67  1.5609639E-01
   7124.00  1.7472296E-01
   7124.33  1.9518870E-01
   7124.67  2.1821879E-01
   7125.00  2.4403938E-01
   7125.33  2.7226071E-01
   7125.67  3.0194598E-01
   7126.00  3.3244563E-01
   7126.33  3.6234213E-01
   7126.67  3.8950528E-01
   7127.00  4.1102966E-01
   7127.33  4.2247409E-01
   7127.67  4.2580563E-01
   7128.00  4.2675064E-01
   7128.33  4.3540341E-01
   7128.67  4.5840594E-01
   7129.00  4.9933909E-01
   7129.33  5.6159766E-01
   7129.67  6.4033926E-01
   7130.00  7.3031210E-01
   7130.33  8.2233916E-01
   7130.67  9.0451491E-01
   7131.00  9.6577802E-01
   7131.33  9.9146755E-01
   7131.67  9.8646105E-01
   7132.00  9.6258481E-01
   7132.33  9.3407425E-01
   7132.67  9.0889580E-01
   7133.00  8.8839770E-01
   7133.33  8.7306975E-01
   7133.67  8.6309371E-01
   7134.00  8.5982689E-01
   7134.33  8.6504196E-01
   7134.67  8.7599456E-01
   7135.00  8.8902302E-01
   7135.33  8.9963696E-01
   7135.67  9.0602680E-01
   7136.00  9.0793080E-01
   7136.33  9.0519259E-01
   7136.67  8.9884118E-01
   7137.00  8.8935967E-01
   7137.33  8.7705840E-01
   7137.67  8.6289887E-01
   7138.00  8.4739375E-01
   7138.33  8.3090727E-01
   7138.67  8.1384571E-01
   7139.00  7.9632833E-01
   7139.33  7.7833814E-01
   7139.67  7.5994106E-01
   7140.00  7.4120026E-01
   7140.33  7.2227931E-01
   7140.67  7.0350273E-01
   7141.00  6.8519607E-01
   7141.33  6.6784865E-01
   7141.67  6.5166681E-01
   7142.00  6.3684115E-01
   7142.33  6.2369946E-01
   7142.67  6.1213235E-01
   7143.00  6.0216997E-01
   7143.33  5.9398555E-01
   7143.67  5.8731417E-01
   7144.00  5.8208379E-01
   7144.33  5.7836830E-01
   7144.67  5.7589484E-01
   7145.00  5.7456395E-01
   7145.33  5.7436835E-01
   7145.67  5.7502140E-01
   7146.00  5.7635691E-01
   7146.33  5.7819864E-01
   7146.67  5.8021849E-01
   7147.00  5.8216242E-01
   7147.33  5.8368934E-01
   7147.67  5.8458937E-01
   7148.00  5.8470387E-01
   7148.33  5.8383420E-01
   7148.67  5.8210592E-01
   7149.00  5.7960425E-01
   7149.33  5.7639986E-01
   7149.67  5.7271806E-01
   7150.00  5.6864512E-01
   7150.33  5.6416909E-01
   7150.67  5.5930404E-01
   7151.00  5.5398422E-01
   7151.33  5.4802467E-01
   7151.67  5.4136905E-01
   7152.00  5.3392080E-01
   7152.33  5.2549582E-01
   7152.67  5.1618427E-01
   7153.00  5.0602350E-01
   7153.33  4.9501477E-01
   7153.67  4.8338540E-01
   7154.00  4.7126563E-01
   7154.33  4.5875645E-01
   7154.67  4.4602147E-01
   7155.00  4.3314070E-01
   7155.33  4.2017177E-01
   7155.67  4.0717529E-01
   7156.00  3.9419155E-01
   7156.33  3.8127452E-01
   7156.67  3.6847108E-01
   7157.00  3.5583729E-01
   7157.33  3.4347857E-01
   7157.67  3.3144893E-01
   7158.00  3.1982229E-01
   7158.33  3.0873570E-01
   7158.67  2.9819350E-01
   7159.00  2.8824261E-01
   7159.33  2.7901249E-01
   7159.67  2.7047290E-01
   7160.00  2.6267105E-01
   7160.33  2.5576817E-01
   7160.67  2.4973235E-01
   7161.00  2.4462610E-01
   7161.33  2.4064763E-01
   7161.67  2.3773349E-01
   7162.00  2.3591705E-01
   7162.33  2.3535635E-01
   7162.67  2.3590288E-01
   7163.00  2.3752570E-01
   7163.33  2.4029448E-01
   7163.67  2.4399797E-01
   7164.00  2.4854562E-01
   7164.33  2.5390738E-01
   7164.67  2.5986398E-01
   7165.00  2.6630585E-01
   7165.33  2.7316099E-01
   7165.67  2.8028132E-01
   7166.00  2.8759393E-01
   7166.33  2.9504683E-01
   7166.67  3.0257057E-01
   7167.00  3.1012643E-01
   7167.33  3.1767885E-01
   7167.67  3.2520188E-01
   7168.00  3.3267705E-01
   7168.33  3.4007719E-01
   7168.67  3.4739313E-01
   7169.00  3.5460928E-01
   7169.33  3.6169072E-01
   7169.67  3.6862933E-01
   7170.00  3.7540126E-01
   7170.33  3.8194617E-01
   7170.67  3.8823996E-01
   7171.00  3.9421994E-01
   7171.33  3.9971299E-01
   7171.67  4.0456054E-01
   7172.00  4.0848986E-01
