    FDMNES
    energy     <xanes>
   7097.00  5.2610225E-03
   7097.33  5.3829145E-03
   7097.67  5.5102018E-03
   7098.00  5.6432391E-03
   7098.33  5.7832580E-03
   7098.67  5.9299885E-03
   7099.00  6.0839101E-03
   7099.33  6.2466190E-03
   7099.67  6.4178337E-03
   7100.00  6.5982177E-03
   7100.33  6.7898919E-03
   7100.67  6.9925825E-03
   7101.00  7.2072359E-03
   7101.33  7.4367521E-03
   7101.67  7.6809105E-03
   7102.00  7.9411081E-03
   7102.33  8.2214509E-03
   7102.67  8.5218714E-03
   7103.00  8.8445206E-03
   7103.33  9.1954626E-03
   7103.67  9.5750107E-03
   7104.00  9.9866513E-03
   7104.33  1.0439827E-02
   7104.67  1.0935769E-02
   7105.00  1.1480506E-02
   7105.33  1.2089776E-02
   7105.67  1.2767089E-02
   7106.00  1.3523803E-02
   7106.33  1.4388618E-02
   7106.67  1.5371196E-02
   7107.00  1.6495561E-02
   7107.33  1.7821132E-02
   7107.67  1.9376607E-02
   7108.00  2.1222216E-02
   7108.33  2.3506886E-02
   7108.67  2.6333356E-02
   7109.00  2.9899423E-02
   7109.33  3.4717592E-02
   7109.67  4.1311899E-02
   7110.00  5.0704100E-02
   7110.33  6.5803758E-02
   7110.67  8.9909700E-02
   7111.00  1.2516930E-01
   7111.33  1.6442073E-01
   7111.67  2.0357960E-01
   7112.00  2.4628641E-01
   7112.33  2.8207952E-01
   7112.67  3.1337232E-01
   7113.00  3.5164154E-01
   7113.33  3.8935980E-01
   7113.67  4.1215779E-01
   7114.00  4.1643682E-01
   7114.33  3.9729073E-01
   7114.67  3.6279134E-01
   7115.00  3.2229878E-01
   7115.33  2.8862258E-01
   7115.67  2.6704321E-01
   7116.00  2.5676027E-01
   7116.33  2.5252561E-01
   7116.67  2.4421539E-01
   7117.00  2.2733735E-01
   7117.33  2.0672426E-01
   7117.67  1.8992865E-01
   7118.00  1.7894346E-01
   7118.33  1.7364598E-01
   7118.67  1.7133891E-01
   7119.00  1.7001367E-01
   7119.33  1.6836252E-01
   7119.67  1.6691823E-01
   7120.00  1.6652334E-01
   7120.33  1.6745901E-01
   7120.67  1.6857581E-01
   7121.00  1.6869247E-01
   7121.33  1.6737670E-01
   7121.67  1.6617414E-01
   7122.00  1.6673733E-01
   7122.33  1.7096664E-01
   7122.67  1.7929634E-01
   7123.00  1.9217819E-01
   7123.33  2.1068642E-01
   7123.67  2.3430791E-01
   7124.00  2.6236878E-01
   7124.33  2.9286742E-01
   7124.67  3.2193232E-01
   7125.00  3.4680175E-01
   7125.33  3.6620616E-01
   7125.67  3.8313422E-01
   7126.00  4.0063513E-01
   7126.33  4.2194950E-01
   7126.67  4.4782652E-01
   7127.00  4.7794769E-01
   7127.33  5.1115818E-01
   7127.67  5.4518024E-01
   7128.00  5.7875267E-01
   7128.33  6.1128637E-01
   7128.67  6.4329369E-01
   7129.00  6.7524873E-01
   7129.33  7.0723852E-01
   7129.67  7.3854004E-01
   7130.00  7.6806680E-01
   7130.33  7.9429923E-01
   7130.67  8.1685820E-01
   7131.00  8.3551298E-01
   7131.33  8.4998045E-01
   7131.67  8.6113839E-01
   7132.00  8.6927973E-01
   7132.33  8.7410177E-01
   7132.67  8.7569754E-01
   7133.00  8.7364218E-01
   7133.33  8.6690676E-01
   7133.67  8.5571405E-01
   7134.00  8.4009692E-01
   7134.33  8.1992179E-01
   7134.67  7.9633369E-01
   7135.00  7.7001131E-01
   7135.33  7.4154974E-01
   7135.67  7.1197030E-01
   7136.00  6.8186879E-01
   7136.33  6.5186549E-01
   7136.67  6.2251063E-01
   7137.00  5.9428891E-01
   7137.33  5.6801280E-01
   7137.67  5.4407939E-01
   7138.00  5.2297402E-01
   7138.33  5.0551936E-01
   7138.67  4.9148027E-01
   7139.00  4.8078359E-01
   7139.33  4.7351217E-01
   7139.67  4.6884018E-01
   7140.00  4.6632610E-01
   7140.33  4.6566993E-01
   7140.67  4.6622433E-01
   7141.00  4.6767496E-01
   7141.33  4.6980101E-01
   7141.67  4.7229780E-01
   7142.00  4.7500915E-01
   7142.33  4.7779073E-01
   7142.67  4.8049900E-01
   7143.00  4.8302359E-01
   7143.33  4.8520451E-01
   7143.67  4.8697159E-01
   7144.00  4.8824809E-01
   7144.33  4.8889077E-01
   7144.67  4.8892546E-01
   7145.00  4.8835743E-01
   7145.33  4.8716948E-01
   7145.67  4.8552374E-01
   7146.00  4.8353177E-01
   7146.33  4.8133095E-01
   7146.67  4.7912504E-01
   7147.00  4.7707445E-01
   7147.33  4.7540310E-01
   7147.67  4.7423501E-01
   7148.00  4.7369414E-01
   7148.33  4.7399162E-01
   7148.67  4.7512074E-01
   7149.00  4.7712951E-01
   7149.33  4.8015610E-01
   7149.67  4.8407923E-01
   7150.00  4.8886548E-01
   7150.33  4.9454092E-01
   7150.67  5.0089201E-01
   7151.00  5.0780082E-01
   7151.33  5.1517441E-01
   7151.67  5.2280834E-01
   7152.00  5.3057067E-01
   7152.33  5.3831310E-01
   7152.67  5.4590268E-01
   7153.00  5.5323572E-01
   7153.33  5.6017133E-01
   7153.67  5.6668620E-01
   7154.00  5.7274469E-01
   7154.33  5.7826974E-01
   7154.67  5.8332468E-01
   7155.00  5.8792692E-01
   7155.33  5.9205690E-01
   7155.67  5.9580959E-01
   7156.00  5.9922592E-01
   7156.33  6.0231972E-01
   7156.67  6.0517463E-01
   7157.00  6.0782688E-01
   7157.33  6.1028881E-01
   7157.67  6.1260217E-01
   7158.00  6.1477184E-01
   7158.33  6.1676730E-01
   7158.67  6.1857703E-01
   7159.00  6.2015852E-01
   7159.33  6.2140882E-01
   7159.67  6.2228512E-01
   7160.00  6.2271338E-01
   7160.33  6.2254234E-01
   7160.67  6.2176481E-01
   7161.00  6.2033365E-01
   7161.33  6.1813653E-01
   7161.67  6.1526839E-01
   7162.00  6.1176812E-01
   7162.33  6.0763521E-01
   7162.67  6.0302891E-01
   7163.00  5.9803526E-01
   7163.33  5.9272128E-01
   7163.67  5.8722276E-01
   7164.00  5.8162745E-01
   7164.33  5.7603119E-01
   7164.67  5.7050245E-01
   7165.00  5.6508046E-01
   7165.33  5.5981196E-01
   7165.67  5.5469619E-01
   7166.00  5.4973859E-01
   7166.33  5.4495638E-01
   7166.67  5.4031978E-01
   7167.00  5.3581501E-01
   7167.33  5.3143662E-01
   7167.67  5.2714997E-01
   7168.00  5.2293792E-01
   7168.33  5.1878786E-01
   7168.67  5.1467508E-01
   7169.00  5.1058797E-01
   7169.33  5.0652144E-01
   7169.67  5.0247415E-01
   7170.00  4.9845307E-01
   7170.33  4.9447627E-01
   7170.67  4.9056733E-01
   7171.00  4.8677159E-01
   7171.33  4.8320488E-01
   7171.67  4.8000358E-01
   7172.00  4.7737573E-01
