    FDMNES
    energy     <xanes>
   7097.00  5.0383961E-03
   7097.33  5.1611518E-03
   7097.67  5.2897091E-03
   7098.00  5.4244766E-03
   7098.33  5.5668245E-03
   7098.67  5.7165004E-03
   7099.00  5.8740672E-03
   7099.33  6.0413356E-03
   7099.67  6.2180548E-03
   7100.00  6.4050210E-03
   7100.33  6.6046934E-03
   7100.67  6.8168557E-03
   7101.00  7.0426715E-03
   7101.33  7.2855897E-03
   7101.67  7.5455018E-03
   7102.00  7.8241746E-03
   7102.33  8.1266363E-03
   7102.67  8.4530482E-03
   7103.00  8.8062199E-03
   7103.33  9.1938385E-03
   7103.67  9.6167060E-03
   7104.00  1.0079553E-02
   7104.33  1.0594849E-02
   7104.67  1.1164936E-02
   7105.00  1.1798375E-02
   7105.33  1.2516997E-02
   7105.67  1.3327057E-02
   7106.00  1.4245586E-02
   7106.33  1.5314892E-02
   7106.67  1.6552206E-02
   7107.00  1.7996098E-02
   7107.33  1.9741110E-02
   7107.67  2.1840514E-02
   7108.00  2.4399739E-02
   7108.33  2.7680279E-02
   7108.67  3.1887308E-02
   7109.00  3.7407876E-02
   7109.33  4.5264472E-02
   7109.67  5.6617951E-02
   7110.00  7.3744012E-02
   7110.33  1.0315613E-01
   7110.67  1.5134097E-01
   7111.00  2.1800534E-01
   7111.33  2.8327484E-01
   7111.67  3.3837157E-01
   7112.00  3.7750015E-01
   7112.33  3.8006828E-01
   7112.67  3.6374932E-01
   7113.00  3.5209750E-01
   7113.33  3.4276165E-01
   7113.67  3.2658663E-01
   7114.00  3.0165433E-01
   7114.33  2.7515645E-01
   7114.67  2.5667494E-01
   7115.00  2.4877376E-01
   7115.33  2.4846389E-01
   7115.67  2.4710563E-01
   7116.00  2.3970357E-01
   7116.33  2.2559463E-01
   7116.67  2.0932877E-01
   7117.00  1.9373063E-01
   7117.33  1.8043178E-01
   7117.67  1.6911571E-01
   7118.00  1.5934137E-01
   7118.33  1.5087298E-01
   7118.67  1.4346697E-01
   7119.00  1.3715116E-01
   7119.33  1.3207136E-01
   7119.67  1.2801590E-01
   7120.00  1.2488583E-01
   7120.33  1.2278064E-01
   7120.67  1.2178907E-01
   7121.00  1.2215364E-01
   7121.33  1.2417409E-01
   7121.67  1.2760862E-01
   7122.00  1.3243259E-01
   7122.33  1.3893981E-01
   7122.67  1.4719775E-01
   7123.00  1.5753787E-01
   7123.33  1.7077946E-01
   7123.67  1.8712845E-01
   7124.00  2.0690686E-01
   7124.33  2.3029411E-01
   7124.67  2.5519246E-01
   7125.00  2.7887421E-01
   7125.33  2.9835431E-01
   7125.67  3.1461927E-01
   7126.00  3.2964729E-01
   7126.33  3.4399598E-01
   7126.67  3.5598080E-01
   7127.00  3.6500325E-01
   7127.33  3.7366531E-01
   7127.67  3.8509034E-01
   7128.00  4.0069126E-01
   7128.33  4.2213387E-01
   7128.67  4.4952744E-01
   7129.00  4.8308833E-01
   7129.33  5.2276182E-01
   7129.67  5.6587701E-01
   7130.00  6.0999385E-01
   7130.33  6.5187316E-01
   7130.67  6.8923103E-01
   7131.00  7.2057432E-01
   7131.33  7.4446705E-01
   7131.67  7.6254743E-01
   7132.00  7.7639342E-01
   7132.33  7.8771062E-01
   7132.67  7.9802797E-01
   7133.00  8.0751727E-01
   7133.33  8.1509541E-01
   7133.67  8.1916894E-01
   7134.00  8.1798482E-01
   7134.33  8.0921166E-01
   7134.67  7.9316072E-01
   7135.00  7.7010520E-01
   7135.33  7.4027528E-01
   7135.67  7.0595802E-01
   7136.00  6.6881506E-01
   7136.33  6.3091059E-01
   7136.67  5.9442491E-01
   7137.00  5.6091907E-01
   7137.33  5.3233258E-01
   7137.67  5.0897049E-01
   7138.00  4.9111345E-01
   7138.33  4.7928034E-01
   7138.67  4.7225863E-01
   7139.00  4.6939421E-01
   7139.33  4.7026864E-01
   7139.67  4.7367560E-01
   7140.00  4.7902996E-01
   7140.33  4.8595788E-01
   7140.67  4.9387130E-01
   7141.00  5.0250400E-01
   7141.33  5.1167875E-01
   7141.67  5.2114751E-01
   7142.00  5.3077171E-01
   7142.33  5.4040954E-01
   7142.67  5.4993983E-01
   7143.00  5.5928473E-01
   7143.33  5.6835674E-01
   7143.67  5.7716257E-01
   7144.00  5.8570283E-01
   7144.33  5.9396231E-01
   7144.67  6.0199340E-01
   7145.00  6.0981072E-01
   7145.33  6.1739567E-01
   7145.67  6.2476561E-01
   7146.00  6.3189766E-01
   7146.33  6.3871027E-01
   7146.67  6.4517166E-01
   7147.00  6.5120780E-01
   7147.33  6.5664998E-01
   7147.67  6.6144743E-01
   7148.00  6.6549458E-01
   7148.33  6.6856442E-01
   7148.67  6.7065961E-01
   7149.00  6.7170841E-01
   7149.33  6.7152257E-01
   7149.67  6.7022565E-01
   7150.00  6.6783255E-01
   7150.33  6.6426243E-01
   7150.67  6.5973385E-01
   7151.00  6.5434853E-01
   7151.33  6.4815765E-01
   7151.67  6.4140666E-01
   7152.00  6.3423207E-01
   7152.33  6.2675098E-01
   7152.67  6.1913404E-01
   7153.00  6.1148380E-01
   7153.33  6.0390998E-01
   7153.67  5.9648756E-01
   7154.00  5.8927623E-01
   7154.33  5.8236896E-01
   7154.67  5.7578515E-01
   7155.00  5.6956867E-01
   7155.33  5.6382277E-01
   7155.67  5.5854815E-01
   7156.00  5.5379235E-01
   7156.33  5.4968243E-01
   7156.67  5.4619812E-01
   7157.00  5.4337686E-01
   7157.33  5.4133562E-01
   7157.67  5.3999760E-01
   7158.00  5.3935013E-01
   7158.33  5.3942832E-01
   7158.67  5.4006907E-01
   7159.00  5.4117516E-01
   7159.33  5.4265268E-01
   7159.67  5.4431304E-01
   7160.00  5.4602989E-01
   7160.33  5.4765621E-01
   7160.67  5.4908322E-01
   7161.00  5.5022522E-01
   7161.33  5.5095265E-01
   7161.67  5.5123971E-01
   7162.00  5.5102984E-01
   7162.33  5.5019341E-01
   7162.67  5.4874838E-01
   7163.00  5.4665742E-01
   7163.33  5.4380446E-01
   7163.67  5.4026279E-01
   7164.00  5.3604309E-01
   7164.33  5.3110468E-01
   7164.67  5.2559533E-01
   7165.00  5.1959296E-01
   7165.33  5.1315606E-01
   7165.67  5.0644756E-01
   7166.00  4.9956343E-01
   7166.33  4.9259453E-01
   7166.67  4.8563504E-01
   7167.00  4.7874772E-01
   7167.33  4.7200555E-01
   7167.67  4.6542613E-01
   7168.00  4.5902802E-01
   7168.33  4.5285132E-01
   7168.67  4.4688214E-01
   7169.00  4.4112789E-01
   7169.33  4.3562526E-01
   7169.67  4.3035677E-01
   7170.00  4.2533391E-01
   7170.33  4.2060666E-01
   7170.67  4.1616679E-01
   7171.00  4.1204650E-01
   7171.33  4.0835494E-01
   7171.67  4.0515300E-01
   7172.00  4.0257599E-01
