    FDMNES
    energy     <xanes>
   7097.00  4.8240322E-03
   7097.33  4.9375008E-03
   7097.67  5.0561824E-03
   7098.00  5.1804392E-03
   7098.33  5.3114941E-03
   7098.67  5.4491144E-03
   7099.00  5.5937982E-03
   7099.33  5.7471579E-03
   7099.67  5.9089615E-03
   7100.00  6.0799131E-03
   7100.33  6.2621981E-03
   7100.67  6.4556142E-03
   7101.00  6.6611897E-03
   7101.33  6.8819842E-03
   7101.67  7.1178895E-03
   7102.00  7.3704660E-03
   7102.33  7.6441669E-03
   7102.67  7.9391207E-03
   7103.00  8.2578065E-03
   7103.33  8.6070210E-03
   7103.67  8.9874536E-03
   7104.00  9.4032723E-03
   7104.33  9.8654796E-03
   7104.67  1.0376108E-02
   7105.00  1.0942680E-02
   7105.33  1.1584397E-02
   7105.67  1.2306680E-02
   7106.00  1.3124423E-02
   7106.33  1.4074632E-02
   7106.67  1.5172142E-02
   7107.00  1.6450383E-02
   7107.33  1.7991254E-02
   7107.67  1.9840041E-02
   7108.00  2.2086758E-02
   7108.33  2.4954151E-02
   7108.67  2.8613205E-02
   7109.00  3.3386651E-02
   7109.33  4.0122410E-02
   7109.67  4.9762294E-02
   7110.00  6.4146495E-02
   7110.33  8.8510686E-02
   7110.67  1.2803507E-01
   7111.00  1.8292533E-01
   7111.33  2.4010081E-01
   7111.67  2.9005778E-01
   7112.00  3.3128790E-01
   7112.33  3.8318573E-01
   7112.67  4.3824377E-01
   7113.00  4.4580126E-01
   7113.33  3.6573468E-01
   7113.67  2.7240827E-01
   7114.00  2.0388107E-01
   7114.33  1.6714767E-01
   7114.67  1.5363527E-01
   7115.00  1.5963302E-01
   7115.33  1.7558590E-01
   7115.67  1.7863084E-01
   7116.00  1.6141900E-01
   7116.33  1.3691970E-01
   7116.67  1.1625837E-01
   7117.00  1.0104148E-01
   7117.33  9.2149475E-02
   7117.67  8.8052759E-02
   7118.00  8.7178051E-02
   7118.33  8.7757282E-02
   7118.67  8.8633763E-02
   7119.00  8.9657391E-02
   7119.33  9.0770503E-02
   7119.67  9.1959070E-02
   7120.00  9.3372194E-02
   7120.33  9.5116465E-02
   7120.67  9.7305163E-02
   7121.00  1.0048648E-01
   7121.33  1.0590733E-01
   7121.67  1.1452209E-01
   7122.00  1.2714908E-01
   7122.33  1.4493061E-01
   7122.67  1.6753232E-01
   7123.00  1.9430406E-01
   7123.33  2.2316977E-01
   7123.67  2.5222679E-01
   7124.00  2.8136066E-01
   7124.33  3.0921140E-01
   7124.67  3.3291402E-01
   7125.00  3.5012690E-01
   7125.33  3.5944543E-01
   7125.67  3.6335307E-01
   7126.00  3.6418141E-01
   7126.33  3.6564774E-01
   7126.67  3.7144070E-01
   7127.00  3.8367409E-01
   7127.33  4.0366374E-01
   7127.67  4.2904766E-01
   7128.00  4.5786014E-01
   7128.33  4.8856417E-01
   7128.67  5.1950266E-01
   7129.00  5.4902827E-01
   7129.33  5.7665009E-01
   7129.67  6.0633018E-01
   7130.00  6.4176499E-01
   7130.33  6.8328042E-01
   7130.67  7.2492364E-01
   7131.00  7.6116947E-01
   7131.33  7.8604359E-01
   7131.67  7.9856970E-01
   7132.00  7.9856475E-01
   7132.33  7.8696969E-01
   7132.67  7.6979748E-01
   7133.00  7.5131671E-01
   7133.33  7.3462112E-01
   7133.67  7.2017358E-01
   7134.00  7.0789962E-01
   7134.33  6.9799498E-01
   7134.67  6.9009860E-01
   7135.00  6.8405880E-01
   7135.33  6.7993549E-01
   7135.67  6.7753801E-01
   7136.00  6.7705108E-01
   7136.33  6.7895220E-01
   7136.67  6.8286985E-01
   7137.00  6.8827032E-01
   7137.33  6.9410088E-01
   7137.67  6.9910362E-01
   7138.00  7.0258865E-01
   7138.33  7.0418866E-01
   7138.67  7.0442944E-01
   7139.00  7.0367598E-01
   7139.33  7.0220550E-01
   7139.67  7.0040234E-01
   7140.00  6.9854443E-01
   7140.33  6.9699985E-01
   7140.67  6.9599472E-01
   7141.00  6.9562488E-01
   7141.33  6.9586842E-01
   7141.67  6.9634201E-01
   7142.00  6.9662154E-01
   7142.33  6.9599994E-01
   7142.67  6.9393987E-01
   7143.00  6.8993922E-01
   7143.33  6.8322269E-01
   7143.67  6.7378081E-01
   7144.00  6.6151116E-01
   7144.33  6.4621120E-01
   7144.67  6.2869409E-01
   7145.00  6.0965867E-01
   7145.33  5.9011608E-01
   7145.67  5.7126702E-01
   7146.00  5.5395989E-01
   7146.33  5.3911723E-01
   7146.67  5.2675993E-01
   7147.00  5.1694564E-01
   7147.33  5.0985261E-01
   7147.67  5.0490512E-01
   7148.00  5.0181495E-01
   7148.33  5.0042381E-01
   7148.67  5.0021671E-01
   7149.00  5.0093685E-01
   7149.33  5.0239297E-01
   7149.67  5.0426527E-01
   7150.00  5.0638252E-01
   7150.33  5.0860117E-01
   7150.67  5.1081263E-01
   7151.00  5.1298764E-01
   7151.33  5.1516256E-01
   7151.67  5.1743961E-01
   7152.00  5.1993540E-01
   7152.33  5.2283207E-01
   7152.67  5.2618959E-01
   7153.00  5.3004908E-01
   7153.33  5.3444947E-01
   7153.67  5.3923336E-01
   7154.00  5.4426271E-01
   7154.33  5.4933968E-01
   7154.67  5.5423698E-01
   7155.00  5.5877818E-01
   7155.33  5.6273511E-01
   7155.67  5.6605844E-01
   7156.00  5.6868588E-01
   7156.33  5.7048401E-01
   7156.67  5.7152344E-01
   7157.00  5.7179146E-01
   7157.33  5.7117453E-01
   7157.67  5.6975342E-01
   7158.00  5.6751288E-01
   7158.33  5.6433568E-01
   7158.67  5.6032475E-01
   7159.00  5.5549444E-01
   7159.33  5.4978658E-01
   7159.67  5.4336516E-01
   7160.00  5.3630875E-01
   7160.33  5.2866449E-01
   7160.67  5.2062644E-01
   7161.00  5.1231226E-01
   7161.33  5.0384551E-01
   7161.67  4.9538349E-01
   7162.00  4.8703729E-01
   7162.33  4.7894524E-01
   7162.67  4.7116501E-01
   7163.00  4.6375110E-01
   7163.33  4.5679921E-01
   7163.67  4.5028298E-01
   7164.00  4.4420998E-01
   7164.33  4.3862982E-01
   7164.67  4.3346987E-01
   7165.00  4.2870815E-01
   7165.33  4.2436197E-01
   7165.67  4.2035602E-01
   7166.00  4.1666727E-01
   7166.33  4.1330997E-01
   7166.67  4.1022976E-01
   7167.00  4.0741427E-01
   7167.33  4.0488185E-01
   7167.67  4.0258911E-01
   7168.00  4.0052634E-01
   7168.33  3.9870899E-01
   7168.67  3.9709755E-01
   7169.00  3.9568248E-01
   7169.33  3.9447829E-01
   7169.67  3.9345551E-01
   7170.00  3.9261116E-01
   7170.33  3.9196540E-01
   7170.67  3.9149433E-01
   7171.00  3.9119349E-01
   7171.33  3.9106550E-01
   7171.67  3.9104790E-01
   7172.00  3.9107224E-01
