    FDMNES
    energy     <xanes>
   7097.00  5.7440292E-03
   7097.33  5.8994461E-03
   7097.67  6.0628159E-03
   7098.00  6.2347248E-03
   7098.33  6.4170935E-03
   7098.67  6.6096096E-03
   7099.00  6.8130845E-03
   7099.33  7.0300790E-03
   7099.67  7.2602875E-03
   7100.00  7.5048632E-03
   7100.33  7.7673102E-03
   7100.67  8.0473778E-03
   7101.00  8.3467550E-03
   7101.33  8.6703859E-03
   7101.67  9.0181775E-03
   7102.00  9.3926943E-03
   7102.33  9.8011692E-03
   7102.67  1.0243892E-02
   7103.00  1.0724926E-02
   7103.33  1.1255327E-02
   7103.67  1.1836269E-02
   7104.00  1.2474535E-02
   7104.33  1.3187957E-02
   7104.67  1.3979778E-02
   7105.00  1.4862077E-02
   7105.33  1.5865633E-02
   7105.67  1.6998764E-02
   7106.00  1.8284835E-02
   7106.33  1.9781890E-02
   7106.67  2.1511765E-02
   7107.00  2.3524954E-02
   7107.33  2.5944897E-02
   7107.67  2.8834492E-02
   7108.00  3.2321257E-02
   7108.33  3.6717510E-02
   7108.67  4.2239013E-02
   7109.00  4.9293632E-02
   7109.33  5.8919742E-02
   7109.67  7.2124214E-02
   7110.00  9.0826439E-02
   7110.33  1.2037761E-01
   7110.67  1.6726650E-01
   7111.00  2.4062336E-01
   7111.33  3.5421712E-01
   7111.67  5.0704297E-01
   7112.00  6.8080889E-01
   7112.33  7.8925283E-01
   7112.67  7.9011283E-01
   7113.00  7.2613083E-01
   7113.33  6.4886903E-01
   7113.67  5.7536875E-01
   7114.00  5.0007629E-01
   7114.33  4.2013856E-01
   7114.67  3.4758432E-01
   7115.00  2.8952369E-01
   7115.33  2.4771035E-01
   7115.67  2.1699172E-01
   7116.00  1.9469748E-01
   7116.33  1.7923220E-01
   7116.67  1.6824874E-01
   7117.00  1.6078426E-01
   7117.33  1.5591384E-01
   7117.67  1.5165348E-01
   7118.00  1.4671558E-01
   7118.33  1.4100447E-01
   7118.67  1.3568851E-01
   7119.00  1.3135035E-01
   7119.33  1.2808351E-01
   7119.67  1.2550614E-01
   7120.00  1.2350028E-01
   7120.33  1.2219073E-01
   7120.67  1.2141346E-01
   7121.00  1.2078873E-01
   7121.33  1.1992069E-01
   7121.67  1.1903661E-01
   7122.00  1.1865300E-01
   7122.33  1.1930593E-01
   7122.67  1.2085610E-01
   7123.00  1.2310307E-01
   7123.33  1.2591885E-01
   7123.67  1.2917818E-01
   7124.00  1.3292392E-01
   7124.33  1.3737077E-01
   7124.67  1.4265917E-01
   7125.00  1.4904521E-01
   7125.33  1.5711182E-01
   7125.67  1.6720547E-01
   7126.00  1.7994234E-01
   7126.33  1.9679439E-01
   7126.67  2.1873530E-01
   7127.00  2.4724172E-01
   7127.33  2.8469118E-01
   7127.67  3.2984202E-01
   7128.00  3.8023067E-01
   7128.33  4.3054759E-01
   7128.67  4.7552903E-01
   7129.00  5.1318044E-01
   7129.33  5.4414778E-01
   7129.67  5.7283351E-01
   7130.00  6.0229840E-01
   7130.33  6.3516018E-01
   7130.67  6.7175978E-01
   7131.00  7.1177417E-01
   7131.33  7.5426648E-01
   7131.67  7.9689740E-01
   7132.00  8.3729807E-01
   7132.33  8.7173110E-01
   7132.67  8.9806079E-01
   7133.00  9.1457987E-01
   7133.33  9.1913182E-01
   7133.67  9.1347636E-01
   7134.00  8.9875388E-01
   7134.33  8.7586861E-01
   7134.67  8.4765405E-01
   7135.00  8.1563048E-01
   7135.33  7.8101741E-01
   7135.67  7.4536200E-01
   7136.00  7.0964465E-01
   7136.33  6.7514821E-01
   7136.67  6.4291927E-01
   7137.00  6.1390133E-01
   7137.33  5.8934005E-01
   7137.67  5.6884931E-01
   7138.00  5.5197654E-01
   7138.33  5.3820277E-01
   7138.67  5.2643506E-01
   7139.00  5.1636996E-01
   7139.33  5.0824939E-01
   7139.67  5.0208505E-01
   7140.00  4.9808278E-01
   7140.33  4.9669806E-01
   7140.67  4.9769427E-01
   7141.00  5.0103057E-01
   7141.33  5.0684723E-01
   7141.67  5.1465568E-01
   7142.00  5.2422380E-01
   7142.33  5.3541921E-01
   7142.67  5.4771784E-01
   7143.00  5.6081507E-01
   7143.33  5.7441698E-01
   7143.67  5.8813564E-01
   7144.00  6.0170857E-01
   7144.33  6.1481025E-01
   7144.67  6.2725632E-01
   7145.00  6.3887163E-01
   7145.33  6.4935933E-01
   7145.67  6.5870741E-01
   7146.00  6.6682508E-01
   7146.33  6.7347616E-01
   7146.67  6.7878220E-01
   7147.00  6.8273062E-01
   7147.33  6.8516859E-01
   7147.67  6.8631173E-01
   7148.00  6.8622657E-01
   7148.33  6.8487793E-01
   7148.67  6.8253653E-01
   7149.00  6.7933081E-01
   7149.33  6.7534443E-01
   7149.67  6.7084608E-01
   7150.00  6.6598270E-01
   7150.33  6.6088713E-01
   7150.67  6.5572824E-01
   7151.00  6.5061118E-01
   7151.33  6.4565098E-01
   7151.67  6.4090049E-01
   7152.00  6.3640008E-01
   7152.33  6.3221213E-01
   7152.67  6.2831481E-01
   7153.00  6.2471247E-01
   7153.33  6.2144491E-01
   7153.67  6.1847921E-01
   7154.00  6.1582172E-01
   7154.33  6.1352170E-01
   7154.67  6.1154689E-01
   7155.00  6.0989705E-01
   7155.33  6.0859855E-01
   7155.67  6.0758267E-01
   7156.00  6.0680817E-01
   7156.33  6.0623064E-01
   7156.67  6.0574636E-01
   7157.00  6.0527710E-01
   7157.33  6.0471787E-01
   7157.67  6.0398603E-01
   7158.00  6.0300936E-01
   7158.33  6.0167749E-01
   7158.67  5.9997645E-01
   7159.00  5.9787538E-01
   7159.33  5.9530363E-01
   7159.67  5.9231363E-01
   7160.00  5.8891913E-01
   7160.33  5.8510238E-01
   7160.67  5.8094740E-01
   7161.00  5.7648304E-01
   7161.33  5.7171017E-01
   7161.67  5.6670853E-01
   7162.00  5.6151640E-01
   7162.33  5.5615371E-01
   7162.67  5.5067167E-01
   7163.00  5.4509259E-01
   7163.33  5.3942653E-01
   7163.67  5.3369647E-01
   7164.00  5.2790902E-01
   7164.33  5.2205977E-01
   7164.67  5.1615367E-01
   7165.00  5.1018644E-01
   7165.33  5.0414285E-01
   7165.67  4.9802494E-01
   7166.00  4.9182759E-01
   7166.33  4.8553449E-01
   7166.67  4.7915326E-01
   7167.00  4.7268419E-01
   7167.33  4.6612030E-01
   7167.67  4.5948019E-01
   7168.00  4.5277439E-01
   7168.33  4.4600982E-01
   7168.67  4.3920678E-01
   7169.00  4.3238296E-01
   7169.33  4.2556667E-01
   7169.67  4.1879055E-01
   7170.00  4.1208909E-01
   7170.33  4.0552615E-01
   7170.67  3.9915076E-01
   7171.00  3.9304108E-01
   7171.33  3.8738785E-01
   7171.67  3.8237560E-01
   7172.00  3.7829478E-01
