    FDMNES
    energy     <xanes>
   7097.00  4.3646377E-03
   7097.33  4.4646994E-03
   7097.67  4.5694345E-03
   7098.00  4.6791862E-03
   7098.33  4.7950831E-03
   7098.67  4.9169451E-03
   7099.00  5.0452548E-03
   7099.33  5.1815314E-03
   7099.67  5.3256122E-03
   7100.00  5.4781989E-03
   7100.33  5.6414032E-03
   7100.67  5.8151218E-03
   7101.00  6.0004134E-03
   7101.33  6.2003290E-03
   7101.67  6.4149160E-03
   7102.00  6.6458448E-03
   7102.33  6.8977316E-03
   7102.67  7.1709805E-03
   7103.00  7.4683722E-03
   7103.33  7.7972955E-03
   7103.67  8.1589966E-03
   7104.00  8.5584203E-03
   7104.33  9.0082521E-03
   7104.67  9.5118075E-03
   7105.00  1.0078642E-02
   7105.33  1.0732575E-02
   7105.67  1.1482416E-02
   7106.00  1.2348745E-02
   7106.33  1.3381920E-02
   7106.67  1.4607189E-02
   7107.00  1.6075943E-02
   7107.33  1.7913667E-02
   7107.67  2.0204561E-02
   7108.00  2.3107354E-02
   7108.33  2.7020573E-02
   7108.67  3.2307331E-02
   7109.00  3.9647127E-02
   7109.33  5.0893814E-02
   7109.67  6.8426011E-02
   7110.00  9.6984999E-02
   7110.33  1.5033387E-01
   7110.67  2.4001293E-01
   7111.00  3.4816676E-01
   7111.33  3.7530307E-01
   7111.67  3.2017291E-01
   7112.00  2.5450315E-01
   7112.33  2.1301560E-01
   7112.67  1.8109107E-01
   7113.00  1.5293555E-01
   7113.33  1.2653505E-01
   7113.67  1.0343008E-01
   7114.00  8.6087319E-02
   7114.33  7.6420992E-02
   7114.67  7.1791477E-02
   7115.00  6.7374194E-02
   7115.33  6.0469838E-02
   7115.67  5.4967810E-02
   7116.00  5.1825954E-02
   7116.33  4.9196571E-02
   7116.67  4.6376527E-02
   7117.00  4.4116098E-02
   7117.33  4.2674627E-02
   7117.67  4.1823089E-02
   7118.00  4.1705079E-02
   7118.33  4.2608060E-02
   7118.67  4.4481829E-02
   7119.00  4.7403080E-02
   7119.33  5.1768748E-02
   7119.67  5.7835541E-02
   7120.00  6.6032245E-02
   7120.33  7.7228171E-02
   7120.67  9.1678222E-02
   7121.00  1.0890152E-01
   7121.33  1.2353198E-01
   7121.67  1.2760477E-01
   7122.00  1.1990306E-01
   7122.33  1.0830228E-01
   7122.67  1.0068606E-01
   7123.00  9.8761338E-02
   7123.33  1.0299324E-01
   7123.67  1.1221050E-01
   7124.00  1.2631622E-01
   7124.33  1.4628249E-01
   7124.67  1.7208575E-01
   7125.00  2.0420855E-01
   7125.33  2.4297626E-01
   7125.67  2.8440703E-01
   7126.00  3.2245109E-01
   7126.33  3.4868710E-01
   7126.67  3.6415127E-01
   7127.00  3.7204125E-01
   7127.33  3.7276999E-01
   7127.67  3.6885704E-01
   7128.00  3.6436476E-01
   7128.33  3.6385729E-01
   7128.67  3.6918049E-01
   7129.00  3.8155557E-01
   7129.33  4.0227833E-01
   7129.67  4.2963034E-01
   7130.00  4.6272382E-01
   7130.33  5.0201407E-01
   7130.67  5.4781007E-01
   7131.00  6.0141218E-01
   7131.33  6.6487674E-01
   7131.67  7.3602638E-01
   7132.00  8.0882001E-01
   7132.33  8.6241839E-01
   7132.67  8.8077439E-01
   7133.00  8.7208269E-01
   7133.33  8.6324748E-01
   7133.67  8.7003950E-01
   7134.00  8.9605885E-01
   7134.33  9.4564511E-01
   7134.67  1.0181220E+00
   7135.00  1.1127791E+00
   7135.33  1.2167773E+00
   7135.67  1.2900682E+00
   7136.00  1.2922203E+00
   7136.33  1.2083123E+00
   7136.67  1.0912494E+00
   7137.00  9.7696063E-01
   7137.33  8.8518731E-01
   7137.67  8.1402026E-01
   7138.00  7.5981900E-01
   7138.33  7.1979517E-01
   7138.67  6.8905995E-01
   7139.00  6.6563949E-01
   7139.33  6.4870288E-01
   7139.67  6.3653053E-01
   7140.00  6.2855695E-01
   7140.33  6.2480826E-01
   7140.67  6.2451714E-01
   7141.00  6.2749204E-01
   7141.33  6.3391520E-01
   7141.67  6.4317641E-01
   7142.00  6.5501774E-01
   7142.33  6.6928135E-01
   7142.67  6.8510328E-01
   7143.00  7.0183767E-01
   7143.33  7.1853163E-01
   7143.67  7.3402514E-01
   7144.00  7.4722342E-01
   7144.33  7.5646837E-01
   7144.67  7.6125885E-01
   7145.00  7.6116921E-01
   7145.33  7.5564803E-01
   7145.67  7.4590983E-01
   7146.00  7.3280629E-01
   7146.33  7.1722734E-01
   7146.67  7.0059047E-01
   7147.00  6.8374228E-01
   7147.33  6.6751432E-01
   7147.67  6.5231918E-01
   7148.00  6.3836769E-01
   7148.33  6.2589233E-01
   7148.67  6.1464991E-01
   7149.00  6.0448572E-01
   7149.33  5.9525960E-01
   7149.67  5.8657936E-01
   7150.00  5.7818388E-01
   7150.33  5.6977322E-01
   7150.67  5.6108058E-01
   7151.00  5.5191129E-01
   7151.33  5.4199542E-01
   7151.67  5.3127333E-01
   7152.00  5.1966850E-01
   7152.33  5.0704016E-01
   7152.67  4.9351843E-01
   7153.00  4.7914623E-01
   7153.33  4.6392151E-01
   7153.67  4.4807142E-01
   7154.00  4.3173535E-01
   7154.33  4.1507937E-01
   7154.67  3.9835738E-01
   7155.00  3.8176143E-01
   7155.33  3.6557228E-01
   7155.67  3.4998741E-01
   7156.00  3.3521115E-01
   7156.33  3.2158797E-01
   7156.67  3.0916809E-01
   7157.00  2.9806581E-01
   7157.33  2.8853664E-01
   7157.67  2.8043001E-01
   7158.00  2.7372657E-01
   7158.33  2.6853417E-01
   7158.67  2.6459630E-01
   7159.00  2.6182305E-01
   7159.33  2.6023180E-01
   7159.67  2.5957272E-01
   7160.00  2.5974552E-01
   7160.33  2.6073019E-01
   7160.67  2.6233705E-01
   7161.00  2.6449188E-01
   7161.33  2.6718192E-01
   7161.67  2.7029012E-01
   7162.00  2.7378176E-01
   7162.33  2.7768032E-01
   7162.67  2.8193277E-01
   7163.00  2.8653652E-01
   7163.33  2.9152434E-01
   7163.67  2.9681912E-01
   7164.00  3.0235738E-01
   7164.33  3.0802888E-01
   7164.67  3.1364013E-01
   7165.00  3.1900997E-01
   7165.33  3.2387406E-01
   7165.67  3.2812472E-01
   7166.00  3.3168252E-01
   7166.33  3.3445365E-01
   7166.67  3.3660488E-01
   7167.00  3.3825300E-01
   7167.33  3.3951955E-01
   7167.67  3.4061629E-01
   7168.00  3.4167797E-01
   7168.33  3.4285170E-01
   7168.67  3.4423092E-01
   7169.00  3.4588166E-01
   7169.33  3.4789270E-01
   7169.67  3.5024513E-01
   7170.00  3.5293625E-01
   7170.33  3.5597719E-01
   7170.67  3.5927189E-01
   7171.00  3.6274116E-01
   7171.33  3.6624100E-01
   7171.67  3.6951949E-01
   7172.00  3.7226582E-01
