    FDMNES
    energy     <xanes>
   7097.00  4.7424334E-03
   7097.33  4.8614150E-03
   7097.67  4.9864087E-03
   7098.00  5.1178766E-03
   7098.33  5.2573051E-03
   7098.67  5.4044895E-03
   7099.00  5.5600840E-03
   7099.33  5.7261084E-03
   7099.67  5.9023868E-03
   7100.00  6.0898752E-03
   7100.33  6.2914064E-03
   7100.67  6.5068915E-03
   7101.00  6.7377797E-03
   7101.33  6.9881956E-03
   7101.67  7.2582642E-03
   7102.00  7.5502798E-03
   7102.33  7.8705232E-03
   7102.67  8.2196171E-03
   7103.00  8.6013885E-03
   7103.33  9.0259392E-03
   7103.67  9.4950553E-03
   7104.00  1.0015544E-02
   7104.33  1.0604797E-02
   7104.67  1.1267439E-02
   7105.00  1.2016604E-02
   7105.33  1.2884958E-02
   7105.67  1.3884610E-02
   7106.00  1.5043750E-02
   7106.33  1.6431252E-02
   7106.67  1.8081479E-02
   7107.00  2.0064385E-02
   7107.33  2.2550601E-02
   7107.67  2.5653677E-02
   7108.00  2.9587837E-02
   7108.33  3.4890216E-02
   7108.67  4.2046159E-02
   7109.00  5.1964045E-02
   7109.33  6.7118436E-02
   7109.67  9.0666603E-02
   7110.00  1.2888428E-01
   7110.33  1.9967205E-01
   7110.67  3.1527525E-01
   7111.00  4.4533504E-01
   7111.33  5.0073707E-01
   7111.67  4.9929697E-01
   7112.00  4.3400388E-01
   7112.33  3.3912775E-01
   7112.67  2.6854489E-01
   7113.00  2.1835941E-01
   7113.33  1.7772991E-01
   7113.67  1.4445644E-01
   7114.00  1.1829049E-01
   7114.33  9.8879744E-02
   7114.67  8.5481403E-02
   7115.00  7.7825151E-02
   7115.33  7.2380756E-02
   7115.67  6.5117566E-02
   7116.00  5.8090732E-02
   7116.33  5.3875969E-02
   7116.67  5.0761585E-02
   7117.00  4.7464694E-02
   7117.33  4.4498627E-02
   7117.67  4.2443851E-02
   7118.00  4.1372924E-02
   7118.33  4.1368198E-02
   7118.67  4.2261380E-02
   7119.00  4.4021306E-02
   7119.33  4.6789569E-02
   7119.67  5.0615456E-02
   7120.00  5.5781908E-02
   7120.33  6.3021565E-02
   7120.67  7.2729860E-02
   7121.00  8.5439215E-02
   7121.33  1.0150830E-01
   7121.67  1.1759515E-01
   7122.00  1.2744523E-01
   7122.33  1.2494324E-01
   7122.67  1.1734372E-01
   7123.00  1.1129635E-01
   7123.33  1.0945169E-01
   7123.67  1.1129923E-01
   7124.00  1.1731535E-01
   7124.33  1.2875624E-01
   7124.67  1.4556829E-01
   7125.00  1.6830800E-01
   7125.33  1.9841022E-01
   7125.67  2.3488977E-01
   7126.00  2.7589154E-01
   7126.33  3.1576166E-01
   7126.67  3.4691185E-01
   7127.00  3.6599615E-01
   7127.33  3.7388027E-01
   7127.67  3.7437409E-01
   7128.00  3.6986710E-01
   7128.33  3.6564041E-01
   7128.67  3.6595865E-01
   7129.00  3.7245349E-01
   7129.33  3.8717564E-01
   7129.67  4.0964347E-01
   7130.00  4.3931519E-01
   7130.33  4.7590204E-01
   7130.67  5.1788516E-01
   7131.00  5.6517637E-01
   7131.33  6.1900994E-01
   7131.67  6.7924067E-01
   7132.00  7.4514223E-01
   7132.33  8.1038921E-01
   7132.67  8.5894025E-01
   7133.00  8.7716715E-01
   7133.33  8.6962997E-01
   7133.67  8.6260136E-01
   7134.00  8.6805366E-01
   7134.33  8.9153075E-01
   7134.67  9.3245574E-01
   7135.00  9.9359900E-01
   7135.33  1.0816893E+00
   7135.67  1.1901600E+00
   7136.00  1.2974381E+00
   7136.33  1.3436953E+00
   7136.67  1.2982086E+00
   7137.00  1.1839341E+00
   7137.33  1.0548695E+00
   7137.67  9.4452547E-01
   7138.00  8.5827812E-01
   7138.33  7.9501883E-01
   7138.67  7.4680073E-01
   7139.00  7.0990719E-01
   7139.33  6.8237823E-01
   7139.67  6.6127770E-01
   7140.00  6.4556577E-01
   7140.33  6.3501477E-01
   7140.67  6.2852040E-01
   7141.00  6.2575993E-01
   7141.33  6.2688494E-01
   7141.67  6.3125524E-01
   7142.00  6.3872130E-01
   7142.33  6.4945335E-01
   7142.67  6.6281087E-01
   7143.00  6.7842810E-01
   7143.33  6.9585283E-01
   7143.67  7.1391313E-01
   7144.00  7.3148625E-01
   7144.33  7.4671643E-01
   7144.67  7.5816132E-01
   7145.00  7.6453212E-01
   7145.33  7.6413096E-01
   7145.67  7.5762388E-01
   7146.00  7.4565222E-01
   7146.33  7.2906798E-01
   7146.67  7.1003629E-01
   7147.00  6.8991346E-01
   7147.33  6.7000285E-01
   7147.67  6.5115488E-01
   7148.00  6.3380385E-01
   7148.33  6.1837210E-01
   7148.67  6.0462202E-01
   7149.00  5.9240660E-01
   7149.33  5.8164135E-01
   7149.67  5.7188498E-01
   7150.00  5.6289133E-01
   7150.33  5.5443986E-01
   7150.67  5.4620520E-01
   7151.00  5.3798210E-01
   7151.33  5.2953813E-01
   7151.67  5.2072677E-01
   7152.00  5.1143200E-01
   7152.33  5.0148119E-01
   7152.67  4.9088417E-01
   7153.00  4.7961812E-01
   7153.33  4.6761020E-01
   7153.67  4.5497062E-01
   7154.00  4.4173522E-01
   7154.33  4.2790084E-01
   7154.67  4.1362837E-01
   7155.00  3.9904180E-01
   7155.33  3.8431854E-01
   7155.67  3.6968297E-01
   7156.00  3.5532388E-01
   7156.33  3.4153185E-01
   7156.67  3.2846333E-01
   7157.00  3.1629005E-01
   7157.33  3.0531755E-01
   7157.67  2.9553577E-01
   7158.00  2.8700364E-01
   7158.33  2.7989797E-01
   7158.67  2.7403340E-01
   7159.00  2.6935903E-01
   7159.33  2.6593089E-01
   7159.67  2.6351340E-01
   7160.00  2.6201899E-01
   7160.33  2.6144999E-01
   7160.67  2.6161019E-01
   7161.00  2.6242837E-01
   7161.33  2.6390819E-01
   7161.67  2.6592297E-01
   7162.00  2.6844119E-01
   7162.33  2.7150026E-01
   7162.67  2.7502847E-01
   7163.00  2.7902335E-01
   7163.33  2.8353987E-01
   7163.67  2.8849889E-01
   7164.00  2.9385184E-01
   7164.33  2.9952753E-01
   7164.67  3.0532329E-01
   7165.00  3.1105700E-01
   7165.33  3.1646495E-01
   7165.67  3.2138238E-01
   7166.00  3.2568653E-01
   7166.33  3.2922525E-01
   7166.67  3.3210072E-01
   7167.00  3.3438432E-01
   7167.33  3.3614271E-01
   7167.67  3.3757868E-01
   7168.00  3.3881591E-01
   7168.33  3.3997824E-01
   7168.67  3.4118713E-01
   7169.00  3.4252220E-01
   7169.33  3.4407982E-01
   7169.67  3.4588395E-01
   7170.00  3.4795756E-01
   7170.33  3.5033753E-01
   7170.67  3.5296237E-01
   7171.00  3.5577737E-01
   7171.33  3.5867258E-01
   7171.67  3.6142277E-01
   7172.00  3.6374850E-01
