    FDMNES
    energy     <xanes>
   7097.00  4.3069950E-03
   7097.33  4.3918813E-03
   7097.67  4.4799590E-03
   7098.00  4.5714183E-03
   7098.33  4.6669559E-03
   7098.67  4.7663886E-03
   7099.00  4.8699724E-03
   7099.33  4.9785985E-03
   7099.67  5.0920780E-03
   7100.00  5.2107663E-03
   7100.33  5.3358382E-03
   7100.67  5.4671134E-03
   7101.00  5.6051051E-03
   7101.33  5.7514196E-03
   7101.67  5.9059195E-03
   7102.00  6.0693808E-03
   7102.33  6.2441035E-03
   7102.67  6.4300718E-03
   7103.00  6.6285279E-03
   7103.33  6.8429615E-03
   7103.67  7.0736680E-03
   7104.00  7.3227801E-03
   7104.33  7.5960008E-03
   7104.67  7.8944189E-03
   7105.00  8.2220370E-03
   7105.33  8.5891156E-03
   7105.67  8.9988905E-03
   7106.00  9.4597928E-03
   7106.33  9.9927936E-03
   7106.67  1.0607627E-02
   7107.00  1.1325043E-02
   7107.33  1.2196134E-02
   7107.67  1.3254138E-02
   7108.00  1.4562798E-02
   7108.33  1.6282833E-02
   7108.67  1.8559872E-02
   7109.00  2.1668176E-02
   7109.33  2.6359045E-02
   7109.67  3.3602610E-02
   7110.00  4.5337394E-02
   7110.33  6.7151721E-02
   7110.67  1.0314661E-01
   7111.00  1.4359317E-01
   7111.33  1.4914503E-01
   7111.67  1.2784860E-01
   7112.00  1.0233760E-01
   7112.33  8.6278275E-02
   7112.67  7.9269979E-02
   7113.00  7.7496333E-02
   7113.33  7.4283149E-02
   7113.67  6.5748776E-02
   7114.00  5.6070504E-02
   7114.33  4.9176154E-02
   7114.67  4.4185584E-02
   7115.00  4.1192402E-02
   7115.33  4.0348140E-02
   7115.67  4.1046248E-02
   7116.00  4.2955287E-02
   7116.33  4.5576838E-02
   7116.67  4.7968798E-02
   7117.00  4.9545687E-02
   7117.33  5.0389169E-02
   7117.67  5.1375998E-02
   7118.00  5.3097322E-02
   7118.33  5.6058640E-02
   7118.67  6.0311145E-02
   7119.00  6.6011585E-02
   7119.33  7.3642976E-02
   7119.67  8.3387275E-02
   7120.00  9.5666432E-02
   7120.33  1.1126905E-01
   7120.67  1.2980054E-01
   7121.00  1.5080740E-01
   7121.33  1.7445464E-01
   7121.67  2.0146585E-01
   7122.00  2.3294889E-01
   7122.33  2.7012366E-01
   7122.67  3.1242521E-01
   7123.00  3.6004305E-01
   7123.33  4.1402289E-01
   7123.67  4.7350272E-01
   7124.00  5.3754273E-01
   7124.33  6.0407605E-01
   7124.67  6.6897498E-01
   7125.00  7.2762879E-01
   7125.33  7.7072607E-01
   7125.67  7.9044547E-01
   7126.00  7.8165873E-01
   7126.33  7.4766919E-01
   7126.67  7.0673689E-01
   7127.00  6.7065248E-01
   7127.33  6.4772069E-01
   7127.67  6.3632460E-01
   7128.00  6.3328610E-01
   7128.33  6.3573392E-01
   7128.67  6.4127895E-01
   7129.00  6.4902595E-01
   7129.33  6.5773413E-01
   7129.67  6.6602449E-01
   7130.00  6.7402027E-01
   7130.33  6.8424144E-01
   7130.67  6.9962035E-01
   7131.00  7.2176300E-01
   7131.33  7.5041285E-01
   7131.67  7.8047490E-01
   7132.00  8.0642892E-01
   7132.33  8.2119411E-01
   7132.67  8.2347192E-01
   7133.00  8.1440594E-01
   7133.33  7.9728093E-01
   7133.67  7.7831368E-01
   7134.00  7.6133866E-01
   7134.33  7.4891155E-01
   7134.67  7.3926530E-01
   7135.00  7.2904544E-01
   7135.33  7.1406473E-01
   7135.67  6.9534540E-01
   7136.00  6.7595038E-01
   7136.33  6.5873988E-01
   7136.67  6.4398121E-01
   7137.00  6.3127018E-01
   7137.33  6.2018513E-01
   7137.67  6.1008125E-01
   7138.00  6.0069730E-01
   7138.33  5.9192396E-01
   7138.67  5.8361197E-01
   7139.00  5.7574139E-01
   7139.33  5.6838182E-01
   7139.67  5.6151458E-01
   7140.00  5.5518481E-01
   7140.33  5.4952527E-01
   7140.67  5.4451791E-01
   7141.00  5.4020644E-01
   7141.33  5.3674063E-01
   7141.67  5.3407501E-01
   7142.00  5.3221419E-01
   7142.33  5.3122403E-01
   7142.67  5.3094424E-01
   7143.00  5.3129004E-01
   7143.33  5.3218186E-01
   7143.67  5.3338157E-01
   7144.00  5.3473187E-01
   7144.33  5.3605234E-01
   7144.67  5.3715913E-01
   7145.00  5.3788430E-01
   7145.33  5.3796842E-01
   7145.67  5.3731985E-01
   7146.00  5.3583007E-01
   7146.33  5.3330264E-01
   7146.67  5.2982513E-01
   7147.00  5.2541642E-01
   7147.33  5.2003516E-01
   7147.67  5.1389588E-01
   7148.00  5.0711274E-01
   7148.33  4.9977173E-01
   7148.67  4.9208897E-01
   7149.00  4.8419426E-01
   7149.33  4.7621803E-01
   7149.67  4.6828901E-01
   7150.00  4.6048768E-01
   7150.33  4.5290870E-01
   7150.67  4.4557648E-01
   7151.00  4.3851960E-01
   7151.33  4.3179535E-01
   7151.67  4.2537748E-01
   7152.00  4.1927062E-01
   7152.33  4.1351563E-01
   7152.67  4.0807294E-01
   7153.00  4.0294190E-01
   7153.33  3.9816443E-01
   7153.67  3.9370545E-01
   7154.00  3.8956299E-01
   7154.33  3.8576874E-01
   7154.67  3.8227214E-01
   7155.00  3.7905330E-01
   7155.33  3.7611425E-01
   7155.67  3.7339847E-01
   7156.00  3.7088257E-01
   7156.33  3.6855418E-01
   7156.67  3.6635460E-01
   7157.00  3.6425106E-01
   7157.33  3.6221533E-01
   7157.67  3.6020920E-01
   7158.00  3.5821284E-01
   7158.33  3.5621270E-01
   7158.67  3.5420738E-01
   7159.00  3.5220607E-01
   7159.33  3.5023746E-01
   7159.67  3.4833850E-01
   7160.00  3.4655473E-01
   7160.33  3.4496975E-01
   7160.67  3.4362782E-01
   7161.00  3.4258559E-01
   7161.33  3.4194793E-01
   7161.67  3.4171863E-01
   7162.00  3.4192852E-01
   7162.33  3.4265693E-01
   7162.67  3.4385209E-01
   7163.00  3.4550704E-01
   7163.33  3.4765484E-01
   7163.67  3.5020272E-01
   7164.00  3.5311148E-01
   7164.33  3.5636585E-01
   7164.67  3.5986746E-01
   7165.00  3.6357489E-01
   7165.33  3.6747226E-01
   7165.67  3.7151136E-01
   7166.00  3.7567756E-01
   7166.33  3.7997911E-01
   7166.67  3.8440281E-01
   7167.00  3.8895343E-01
   7167.33  3.9364995E-01
   7167.67  3.9846621E-01
   7168.00  4.0338857E-01
   7168.33  4.0841126E-01
   7168.67  4.1349811E-01
   7169.00  4.1862042E-01
   7169.33  4.2373844E-01
   7169.67  4.2880916E-01
   7170.00  4.3379398E-01
   7170.33  4.3863667E-01
   7170.67  4.4331290E-01
   7171.00  4.4777327E-01
   7171.33  4.5188895E-01
   7171.67  4.5553739E-01
   7172.00  4.5850724E-01
