    FDMNES
    energy     <xanes>
   7097.00  4.8221936E-03
   7097.33  4.9307124E-03
   7097.67  5.0439069E-03
   7098.00  5.1620792E-03
   7098.33  5.2862877E-03
   7098.67  5.4162921E-03
   7099.00  5.5524998E-03
   7099.33  5.6962789E-03
   7099.67  5.8473782E-03
   7100.00  6.0063613E-03
   7100.33  6.1750415E-03
   7100.67  6.3531742E-03
   7101.00  6.5415634E-03
   7101.33  6.7426854E-03
   7101.67  6.9563423E-03
   7102.00  7.1837239E-03
   7102.33  7.4283370E-03
   7102.67  7.6901210E-03
   7103.00  7.9709167E-03
   7103.33  8.2759187E-03
   7103.67  8.6054116E-03
   7104.00  8.9624054E-03
   7104.33  9.3550456E-03
   7104.67  9.7844635E-03
   7105.00  1.0255942E-02
   7105.33  1.0783233E-02
   7105.67  1.1369628E-02
   7106.00  1.2025304E-02
   7106.33  1.2775917E-02
   7106.67  1.3630778E-02
   7107.00  1.4612193E-02
   7107.33  1.5775297E-02
   7107.67  1.7148971E-02
   7108.00  1.8792281E-02
   7108.33  2.0852144E-02
   7108.67  2.3439172E-02
   7109.00  2.6764724E-02
   7109.33  3.1387301E-02
   7109.67  3.7931675E-02
   7110.00  4.7627185E-02
   7110.33  6.3967568E-02
   7110.67  9.0097852E-02
   7111.00  1.2429104E-01
   7111.33  1.5318591E-01
   7111.67  1.7788729E-01
   7112.00  2.1016246E-01
   7112.33  2.5332915E-01
   7112.67  2.7964415E-01
   7113.00  2.7527013E-01
   7113.33  2.4887232E-01
   7113.67  2.1697691E-01
   7114.00  1.8923461E-01
   7114.33  1.7705752E-01
   7114.67  1.8151058E-01
   7115.00  2.0116686E-01
   7115.33  2.2934005E-01
   7115.67  2.4922805E-01
   7116.00  2.5159380E-01
   7116.33  2.4403803E-01
   7116.67  2.4396863E-01
   7117.00  2.5534758E-01
   7117.33  2.6906798E-01
   7117.67  2.7549366E-01
   7118.00  2.7588746E-01
   7118.33  2.7294558E-01
   7118.67  2.6855220E-01
   7119.00  2.6413234E-01
   7119.33  2.5936639E-01
   7119.67  2.5231077E-01
   7120.00  2.4261210E-01
   7120.33  2.3222836E-01
   7120.67  2.2386345E-01
   7121.00  2.1917563E-01
   7121.33  2.1981667E-01
   7121.67  2.2559242E-01
   7122.00  2.3644643E-01
   7122.33  2.5195817E-01
   7122.67  2.6931924E-01
   7123.00  2.8580389E-01
   7123.33  2.9835378E-01
   7123.67  3.0680121E-01
   7124.00  3.1225237E-01
   7124.33  3.1672128E-01
   7124.67  3.2229624E-01
   7125.00  3.3001949E-01
   7125.33  3.4029577E-01
   7125.67  3.5160835E-01
   7126.00  3.6228486E-01
   7126.33  3.7125333E-01
   7126.67  3.7926188E-01
   7127.00  3.8682934E-01
   7127.33  3.9422271E-01
   7127.67  4.0175848E-01
   7128.00  4.0963562E-01
   7128.33  4.1793633E-01
   7128.67  4.2677797E-01
   7129.00  4.3678601E-01
   7129.33  4.4956566E-01
   7129.67  4.6608053E-01
   7130.00  4.8669326E-01
   7130.33  5.1077678E-01
   7130.67  5.3573371E-01
   7131.00  5.5966843E-01
   7131.33  5.8124049E-01
   7131.67  6.0089068E-01
   7132.00  6.1897783E-01
   7132.33  6.3483362E-01
   7132.67  6.4713192E-01
   7133.00  6.5435011E-01
   7133.33  6.5559085E-01
   7133.67  6.5365700E-01
   7134.00  6.5111638E-01
   7134.33  6.5017460E-01
   7134.67  6.5099832E-01
   7135.00  6.5258155E-01
   7135.33  6.5271297E-01
   7135.67  6.4971745E-01
   7136.00  6.4297881E-01
   7136.33  6.3264884E-01
   7136.67  6.2042010E-01
   7137.00  6.0739752E-01
   7137.33  5.9449469E-01
   7137.67  5.8215723E-01
   7138.00  5.7053265E-01
   7138.33  5.5975227E-01
   7138.67  5.4973903E-01
   7139.00  5.4054884E-01
   7139.33  5.3242224E-01
   7139.67  5.2538709E-01
   7140.00  5.1955239E-01
   7140.33  5.1517835E-01
   7140.67  5.1218357E-01
   7141.00  5.1061452E-01
   7141.33  5.1062345E-01
   7141.67  5.1189324E-01
   7142.00  5.1423485E-01
   7142.33  5.1754470E-01
   7142.67  5.2158965E-01
   7143.00  5.2635970E-01
   7143.33  5.3205068E-01
   7143.67  5.3871499E-01
   7144.00  5.4648702E-01
   7144.33  5.5564302E-01
   7144.67  5.6605896E-01
   7145.00  5.7766111E-01
   7145.33  5.9037057E-01
   7145.67  6.0374156E-01
   7146.00  6.1740708E-01
   7146.33  6.3081786E-01
   7146.67  6.4340983E-01
   7147.00  6.5466984E-01
   7147.33  6.6383049E-01
   7147.67  6.7072356E-01
   7148.00  6.7516694E-01
   7148.33  6.7686230E-01
   7148.67  6.7634025E-01
   7149.00  6.7390522E-01
   7149.33  6.6975607E-01
   7149.67  6.6446037E-01
   7150.00  6.5831779E-01
   7150.33  6.5157338E-01
   7150.67  6.4456228E-01
   7151.00  6.3747273E-01
   7151.33  6.3048587E-01
   7151.67  6.2371954E-01
   7152.00  6.1726093E-01
   7152.33  6.1123956E-01
   7152.67  6.0567123E-01
   7153.00  6.0060211E-01
   7153.33  5.9614854E-01
   7153.67  5.9228190E-01
   7154.00  5.8902579E-01
   7154.33  5.8646703E-01
   7154.67  5.8451267E-01
   7155.00  5.8312714E-01
   7155.33  5.8230387E-01
   7155.67  5.8188271E-01
   7156.00  5.8176063E-01
   7156.33  5.8182330E-01
   7156.67  5.8190944E-01
   7157.00  5.8190174E-01
   7157.33  5.8164926E-01
   7157.67  5.8107936E-01
   7158.00  5.8013484E-01
   7158.33  5.7872993E-01
   7158.67  5.7690826E-01
   7159.00  5.7468483E-01
   7159.33  5.7205196E-01
   7159.67  5.6910952E-01
   7160.00  5.6591572E-01
   7160.33  5.6251859E-01
   7160.67  5.5900460E-01
   7161.00  5.5541842E-01
   7161.33  5.5179058E-01
   7161.67  5.4814201E-01
   7162.00  5.4447406E-01
   7162.33  5.4077507E-01
   7162.67  5.3703837E-01
   7163.00  5.3325799E-01
   7163.33  5.2942486E-01
   7163.67  5.2554521E-01
   7164.00  5.2162072E-01
   7164.33  5.1764845E-01
   7164.67  5.1363697E-01
   7165.00  5.0958900E-01
   7165.33  5.0550330E-01
   7165.67  5.0138859E-01
   7166.00  4.9724962E-01
   7166.33  4.9308953E-01
   7166.67  4.8892259E-01
   7167.00  4.8476556E-01
   7167.33  4.8063663E-01
   7167.67  4.7654096E-01
   7168.00  4.7248576E-01
   7168.33  4.6848806E-01
   7168.67  4.6455191E-01
   7169.00  4.6068504E-01
   7169.33  4.5690558E-01
   7169.67  4.5321379E-01
   7170.00  4.4962070E-01
   7170.33  4.4615728E-01
   7170.67  4.4283253E-01
   7171.00  4.3967727E-01
   7171.33  4.3678043E-01
   7171.67  4.3422129E-01
   7172.00  4.3213757E-01
