    FDMNES
    energy     <xanes>
   7097.00  3.9649805E-03
   7097.33  4.0440686E-03
   7097.67  4.1262252E-03
   7098.00  4.2116338E-03
   7098.33  4.3009645E-03
   7098.67  4.3940401E-03
   7099.00  4.4911040E-03
   7099.33  4.5930070E-03
   7099.67  4.6995596E-03
   7100.00  4.8110926E-03
   7100.33  4.9287109E-03
   7100.67  5.0522203E-03
   7101.00  5.1820826E-03
   7101.33  5.3197726E-03
   7101.67  5.4651084E-03
   7102.00  5.6187567E-03
   7102.33  5.7827516E-03
   7102.67  5.9569626E-03
   7103.00  6.1423914E-03
   7103.33  6.3419570E-03
   7103.67  6.5556693E-03
   7104.00  6.7851080E-03
   7104.33  7.0346755E-03
   7104.67  7.3047290E-03
   7105.00  7.5979161E-03
   7105.33  7.9213101E-03
   7105.67  8.2761298E-03
   7106.00  8.6671769E-03
   7106.33  9.1068052E-03
   7106.67  9.5985017E-03
   7107.00  1.0151954E-02
   7107.33  1.0791378E-02
   7107.67  1.1526973E-02
   7108.00  1.2381506E-02
   7108.33  1.3411272E-02
   7108.67  1.4650655E-02
   7109.00  1.6167452E-02
   7109.33  1.8133964E-02
   7109.67  2.0705732E-02
   7110.00  2.4182786E-02
   7110.33  2.9402945E-02
   7110.67  3.7426257E-02
   7111.00  5.0026706E-02
   7111.33  7.0107790E-02
   7111.67  9.2697219E-02
   7112.00  1.0501533E-01
   7112.33  1.1286872E-01
   7112.67  1.3376317E-01
   7113.00  1.6204311E-01
   7113.33  1.8882938E-01
   7113.67  2.0120074E-01
   7114.00  1.9317436E-01
   7114.33  2.0670341E-01
   7114.67  2.4394789E-01
   7115.00  2.7045041E-01
   7115.33  2.6228907E-01
   7115.67  2.2872778E-01
   7116.00  1.7896528E-01
   7116.33  1.3493864E-01
   7116.67  1.0422711E-01
   7117.00  8.4711318E-02
   7117.33  7.3463369E-02
   7117.67  6.7066831E-02
   7118.00  6.5213606E-02
   7118.33  6.7935990E-02
   7118.67  7.3504409E-02
   7119.00  8.0452229E-02
   7119.33  8.7800919E-02
   7119.67  9.4767445E-02
   7120.00  1.0079848E-01
   7120.33  1.0668319E-01
   7120.67  1.1320876E-01
   7121.00  1.2016497E-01
   7121.33  1.2807607E-01
   7121.67  1.3795106E-01
   7122.00  1.5016651E-01
   7122.33  1.6489737E-01
   7122.67  1.8192659E-01
   7123.00  2.0091357E-01
   7123.33  2.2155011E-01
   7123.67  2.4331400E-01
   7124.00  2.6484813E-01
   7124.33  2.8332942E-01
   7124.67  2.9771969E-01
   7125.00  3.0802982E-01
   7125.33  3.1508719E-01
   7125.67  3.2164626E-01
   7126.00  3.2991029E-01
   7126.33  3.4164264E-01
   7126.67  3.5572886E-01
   7127.00  3.7034532E-01
   7127.33  3.8361086E-01
   7127.67  3.9528820E-01
   7128.00  4.0597127E-01
   7128.33  4.1710394E-01
   7128.67  4.2982386E-01
   7129.00  4.4415706E-01
   7129.33  4.5898376E-01
   7129.67  4.7250407E-01
   7130.00  4.8336899E-01
   7130.33  4.9017140E-01
   7130.67  4.9331829E-01
   7131.00  4.9366653E-01
   7131.33  4.9292350E-01
   7131.67  4.9237635E-01
   7132.00  4.9123978E-01
   7132.33  4.8784624E-01
   7132.67  4.8294839E-01
   7133.00  4.7832583E-01
   7133.33  4.7622132E-01
   7133.67  4.7690253E-01
   7134.00  4.7963551E-01
   7134.33  4.8296258E-01
   7134.67  4.8532667E-01
   7135.00  4.8588577E-01
   7135.33  4.8405037E-01
   7135.67  4.8035984E-01
   7136.00  4.7538763E-01
   7136.33  4.6989716E-01
   7136.67  4.6467936E-01
   7137.00  4.6016424E-01
   7137.33  4.5673110E-01
   7137.67  4.5446005E-01
   7138.00  4.5355522E-01
   7138.33  4.5442861E-01
   7138.67  4.5694378E-01
   7139.00  4.6095699E-01
   7139.33  4.6625141E-01
   7139.67  4.7222592E-01
   7140.00  4.7852567E-01
   7140.33  4.8495103E-01
   7140.67  4.9157791E-01
   7141.00  4.9869511E-01
   7141.33  5.0684606E-01
   7141.67  5.1625793E-01
   7142.00  5.2707459E-01
   7142.33  5.3950029E-01
   7142.67  5.5332324E-01
   7143.00  5.6850983E-01
   7143.33  5.8511461E-01
   7143.67  6.0269932E-01
   7144.00  6.2083250E-01
   7144.33  6.3878302E-01
   7144.67  6.5577800E-01
   7145.00  6.7123295E-01
   7145.33  6.8447876E-01
   7145.67  6.9564079E-01
   7146.00  7.0480249E-01
   7146.33  7.1195018E-01
   7146.67  7.1754529E-01
   7147.00  7.2176590E-01
   7147.33  7.2461678E-01
   7147.67  7.2636085E-01
   7148.00  7.2707824E-01
   7148.33  7.2676844E-01
   7148.67  7.2571671E-01
   7149.00  7.2412188E-01
   7149.33  7.2219520E-01
   7149.67  7.2021835E-01
   7150.00  7.1841128E-01
   7150.33  7.1707834E-01
   7150.67  7.1637996E-01
   7151.00  7.1644709E-01
   7151.33  7.1746363E-01
   7151.67  7.1931813E-01
   7152.00  7.2194000E-01
   7152.33  7.2525505E-01
   7152.67  7.2897192E-01
   7153.00  7.3286773E-01
   7153.33  7.3664131E-01
   7153.67  7.4000980E-01
   7154.00  7.4272960E-01
   7154.33  7.4443572E-01
   7154.67  7.4503589E-01
   7155.00  7.4439801E-01
   7155.33  7.4225314E-01
   7155.67  7.3872175E-01
   7156.00  7.3380445E-01
   7156.33  7.2737892E-01
   7156.67  7.1970178E-01
   7157.00  7.1087929E-01
   7157.33  7.0093862E-01
   7157.67  6.9017619E-01
   7158.00  6.7874132E-01
   7158.33  6.6672801E-01
   7158.67  6.5433379E-01
   7159.00  6.4165168E-01
   7159.33  6.2874351E-01
   7159.67  6.1570986E-01
   7160.00  6.0261850E-01
   7160.33  5.8956031E-01
   7160.67  5.7662695E-01
   7161.00  5.6390837E-01
   7161.33  5.5155506E-01
   7161.67  5.3963389E-01
   7162.00  5.2822723E-01
   7162.33  5.1748330E-01
   7162.67  5.0737432E-01
   7163.00  4.9791506E-01
   7163.33  4.8917562E-01
   7163.67  4.8104329E-01
   7164.00  4.7347774E-01
   7164.33  4.6648783E-01
   7164.67  4.5995276E-01
   7165.00  4.5382675E-01
   7165.33  4.4810778E-01
   7165.67  4.4271352E-01
   7166.00  4.3762241E-01
   7166.33  4.3285840E-01
   7166.67  4.2838589E-01
   7167.00  4.2421395E-01
   7167.33  4.2039895E-01
   7167.67  4.1692125E-01
   7168.00  4.1379801E-01
   7168.33  4.1109267E-01
   7168.67  4.0877046E-01
   7169.00  4.0683605E-01
   7169.33  4.0533622E-01
   7169.67  4.0421403E-01
   7170.00  4.0345668E-01
   7170.33  4.0308519E-01
   7170.67  4.0302549E-01
   7171.00  4.0324041E-01
   7171.33  4.0369022E-01
   7171.67  4.0423659E-01
   7172.00  4.0473327E-01
