    FDMNES
    energy     <xanes>
   7097.00  4.6040240E-03
   7097.33  4.7074503E-03
   7097.67  4.8156214E-03
   7098.00  4.9288725E-03
   7098.33  5.0483267E-03
   7098.67  5.1737804E-03
   7099.00  5.3056977E-03
   7099.33  5.4455682E-03
   7099.67  5.5931936E-03
   7100.00  5.7492352E-03
   7100.33  5.9157264E-03
   7100.67  6.0925053E-03
   7101.00  6.2805467E-03
   7101.33  6.4827238E-03
   7101.67  6.6989787E-03
   7102.00  6.9308087E-03
   7102.33  7.1824447E-03
   7102.67  7.4540853E-03
   7103.00  7.7481456E-03
   7103.33  8.0711814E-03
   7103.67  8.4240004E-03
   7104.00  8.8107433E-03
   7104.33  9.2422378E-03
   7104.67  9.7207727E-03
   7105.00  1.0254020E-02
   7105.33  1.0861399E-02
   7105.67  1.1549044E-02
   7106.00  1.2332698E-02
   7106.33  1.3251266E-02
   7106.67  1.4322036E-02
   7107.00  1.5582200E-02
   7107.33  1.7122873E-02
   7107.67  1.8999821E-02
   7108.00  2.1321061E-02
   7108.33  2.4356671E-02
   7108.67  2.8336968E-02
   7109.00  3.3695987E-02
   7109.33  4.1606567E-02
   7109.67  5.3514490E-02
   7110.00  7.2289078E-02
   7110.33  1.0609575E-01
   7110.67  1.6069788E-01
   7111.00  2.2296302E-01
   7111.33  2.5005089E-01
   7111.67  2.6260576E-01
   7112.00  2.7675562E-01
   7112.33  2.7713873E-01
   7112.67  2.7309592E-01
   7113.00  2.8352737E-01
   7113.33  2.8421702E-01
   7113.67  2.4299958E-01
   7114.00  1.8887913E-01
   7114.33  1.5600270E-01
   7114.67  1.4149431E-01
   7115.00  1.3889103E-01
   7115.33  1.4483961E-01
   7115.67  1.5884660E-01
   7116.00  1.7370343E-01
   7116.33  1.6768897E-01
   7116.67  1.4695883E-01
   7117.00  1.2623849E-01
   7117.33  1.1244617E-01
   7117.67  1.0403459E-01
   7118.00  9.9642161E-02
   7118.33  9.8487218E-02
   7118.67  9.9489960E-02
   7119.00  1.0235687E-01
   7119.33  1.0745468E-01
   7119.67  1.1435836E-01
   7120.00  1.2194187E-01
   7120.33  1.2843441E-01
   7120.67  1.3259912E-01
   7121.00  1.3356635E-01
   7121.33  1.3266199E-01
   7121.67  1.3306830E-01
   7122.00  1.3601826E-01
   7122.33  1.4200743E-01
   7122.67  1.5052608E-01
   7123.00  1.6146283E-01
   7123.33  1.7494307E-01
   7123.67  1.9039286E-01
   7124.00  2.0748126E-01
   7124.33  2.2600633E-01
   7124.67  2.4546771E-01
   7125.00  2.6534935E-01
   7125.33  2.8425574E-01
   7125.67  3.0037996E-01
   7126.00  3.1242617E-01
   7126.33  3.2006936E-01
   7126.67  3.2581854E-01
   7127.00  3.3171782E-01
   7127.33  3.3899988E-01
   7127.67  3.4716685E-01
   7128.00  3.5564254E-01
   7128.33  3.6417934E-01
   7128.67  3.7302358E-01
   7129.00  3.8256585E-01
   7129.33  3.9313256E-01
   7129.67  4.0408473E-01
   7130.00  4.1418945E-01
   7130.33  4.2138036E-01
   7130.67  4.2523698E-01
   7131.00  4.2644654E-01
   7131.33  4.2656084E-01
   7131.67  4.2728965E-01
   7132.00  4.2952228E-01
   7132.33  4.3398940E-01
   7132.67  4.4050152E-01
   7133.00  4.4891625E-01
   7133.33  4.5925353E-01
   7133.67  4.7123528E-01
   7134.00  4.8484570E-01
   7134.33  5.0004021E-01
   7134.67  5.1609431E-01
   7135.00  5.3231250E-01
   7135.33  5.4761367E-01
   7135.67  5.6107983E-01
   7136.00  5.7197765E-01
   7136.33  5.7946860E-01
   7136.67  5.8400301E-01
   7137.00  5.8600960E-01
   7137.33  5.8602903E-01
   7137.67  5.8511035E-01
   7138.00  5.8387872E-01
   7138.33  5.8292082E-01
   7138.67  5.8258192E-01
   7139.00  5.8307183E-01
   7139.33  5.8466666E-01
   7139.67  5.8732327E-01
   7140.00  5.9106008E-01
   7140.33  5.9597114E-01
   7140.67  6.0180731E-01
   7141.00  6.0838825E-01
   7141.33  6.1550518E-01
   7141.67  6.2280385E-01
   7142.00  6.3002907E-01
   7142.33  6.3686749E-01
   7142.67  6.4316024E-01
   7143.00  6.4882043E-01
   7143.33  6.5379771E-01
   7143.67  6.5833296E-01
   7144.00  6.6266301E-01
   7144.33  6.6715498E-01
   7144.67  6.7216658E-01
   7145.00  6.7799990E-01
   7145.33  6.8508226E-01
   7145.67  6.9346522E-01
   7146.00  7.0321889E-01
   7146.33  7.1447622E-01
   7146.67  7.2690926E-01
   7147.00  7.4027897E-01
   7147.33  7.5426339E-01
   7147.67  7.6830251E-01
   7148.00  7.8191620E-01
   7148.33  7.9438320E-01
   7148.67  8.0523921E-01
   7149.00  8.1401295E-01
   7149.33  8.1992248E-01
   7149.67  8.2295291E-01
   7150.00  8.2294508E-01
   7150.33  8.1949051E-01
   7150.67  8.1311426E-01
   7151.00  8.0405607E-01
   7151.33  7.9241201E-01
   7151.67  7.7892169E-01
   7152.00  7.6399380E-01
   7152.33  7.4797784E-01
   7152.67  7.3143719E-01
   7153.00  7.1470984E-01
   7153.33  6.9813615E-01
   7153.67  6.8193878E-01
   7154.00  6.6627696E-01
   7154.33  6.5138537E-01
   7154.67  6.3728808E-01
   7155.00  6.2404929E-01
   7155.33  6.1182859E-01
   7155.67  6.0053609E-01
   7156.00  5.9017816E-01
   7156.33  5.8086717E-01
   7156.67  5.7247561E-01
   7157.00  5.6499128E-01
   7157.33  5.5851032E-01
   7157.67  5.5290767E-01
   7158.00  5.4817579E-01
   7158.33  5.4442008E-01
   7158.67  5.4153466E-01
   7159.00  5.3952396E-01
   7159.33  5.3849937E-01
   7159.67  5.3834158E-01
   7160.00  5.3902576E-01
   7160.33  5.4059282E-01
   7160.67  5.4284900E-01
   7161.00  5.4567513E-01
   7161.33  5.4893805E-01
   7161.67  5.5238076E-01
   7162.00  5.5581811E-01
   7162.33  5.5901171E-01
   7162.67  5.6179782E-01
   7163.00  5.6404067E-01
   7163.33  5.6553948E-01
   7163.67  5.6630721E-01
   7164.00  5.6632524E-01
   7164.33  5.6552333E-01
   7164.67  5.6405393E-01
   7165.00  5.6198720E-01
   7165.33  5.5934571E-01
   7165.67  5.5628207E-01
   7166.00  5.5287044E-01
   7166.33  5.4915675E-01
   7166.67  5.4524493E-01
   7167.00  5.4118787E-01
   7167.33  5.3702720E-01
   7167.67  5.3281981E-01
   7168.00  5.2859956E-01
   7168.33  5.2440446E-01
   7168.67  5.2026970E-01
   7169.00  5.1623162E-01
   7169.33  5.1233950E-01
   7169.67  5.0860498E-01
   7170.00  5.0505321E-01
   7170.33  5.0174114E-01
   7170.67  4.9867314E-01
   7171.00  4.9587753E-01
   7171.33  4.9343322E-01
   7171.67  4.9135841E-01
   7172.00  4.8971662E-01
