    FDMNES
    energy     <xanes>
   7097.00  4.9059420E-03
   7097.33  5.0268844E-03
   7097.67  5.1538109E-03
   7098.00  5.2871632E-03
   7098.33  5.4283886E-03
   7098.67  5.5772546E-03
   7099.00  5.7343763E-03
   7099.33  5.9016898E-03
   7099.67  6.0789737E-03
   7100.00  6.2671084E-03
   7100.33  6.4687577E-03
   7100.67  6.6837528E-03
   7101.00  6.9133952E-03
   7101.33  7.1614732E-03
   7101.67  7.4279599E-03
   7102.00  7.7148561E-03
   7102.33  8.0277643E-03
   7102.67  8.3669969E-03
   7103.00  8.7357749E-03
   7103.33  9.1427885E-03
   7103.67  9.5891388E-03
   7104.00  1.0080312E-02
   7104.33  1.0630606E-02
   7104.67  1.1242995E-02
   7105.00  1.1927508E-02
   7105.33  1.2709501E-02
   7105.67  1.3596658E-02
   7106.00  1.4609073E-02
   7106.33  1.5796366E-02
   7106.67  1.7179273E-02
   7107.00  1.8803363E-02
   7107.33  2.0779829E-02
   7107.67  2.3171462E-02
   7108.00  2.6101580E-02
   7108.33  2.9874359E-02
   7108.67  3.4723851E-02
   7109.00  4.1088815E-02
   7109.33  5.0114721E-02
   7109.67  6.3053352E-02
   7110.00  8.2332937E-02
   7110.33  1.1486086E-01
   7110.67  1.6809770E-01
   7111.00  2.4596402E-01
   7111.33  3.4120434E-01
   7111.67  4.4634113E-01
   7112.00  5.4442484E-01
   7112.33  5.8157277E-01
   7112.67  5.3394844E-01
   7113.00  4.3102309E-01
   7113.33  3.3066753E-01
   7113.67  2.5536909E-01
   7114.00  2.0384601E-01
   7114.33  1.7147286E-01
   7114.67  1.5023684E-01
   7115.00  1.3672700E-01
   7115.33  1.2907042E-01
   7115.67  1.2509988E-01
   7116.00  1.2354022E-01
   7116.33  1.2171679E-01
   7116.67  1.1753484E-01
   7117.00  1.1186686E-01
   7117.33  1.0689154E-01
   7117.67  1.0337637E-01
   7118.00  1.0130173E-01
   7118.33  1.0059986E-01
   7118.67  1.0115719E-01
   7119.00  1.0334185E-01
   7119.33  1.0779086E-01
   7119.67  1.1429951E-01
   7120.00  1.2216269E-01
   7120.33  1.2856228E-01
   7120.67  1.3146353E-01
   7121.00  1.3201245E-01
   7121.33  1.3273054E-01
   7121.67  1.3520478E-01
   7122.00  1.4014028E-01
   7122.33  1.4828149E-01
   7122.67  1.5931496E-01
   7123.00  1.7289793E-01
   7123.33  1.8839860E-01
   7123.67  2.0480508E-01
   7124.00  2.2189834E-01
   7124.33  2.3969082E-01
   7124.67  2.5739955E-01
   7125.00  2.7393813E-01
   7125.33  2.8822394E-01
   7125.67  3.0081368E-01
   7126.00  3.1262989E-01
   7126.33  3.2463720E-01
   7126.67  3.3674846E-01
   7127.00  3.4770631E-01
   7127.33  3.5469489E-01
   7127.67  3.5669703E-01
   7128.00  3.5442358E-01
   7128.33  3.5037908E-01
   7128.67  3.4799223E-01
   7129.00  3.4935187E-01
   7129.33  3.5602250E-01
   7129.67  3.6656852E-01
   7130.00  3.7889133E-01
   7130.33  3.8993846E-01
   7130.67  3.9817114E-01
   7131.00  4.0352464E-01
   7131.33  4.0648271E-01
   7131.67  4.0844781E-01
   7132.00  4.1062096E-01
   7132.33  4.1472988E-01
   7132.67  4.2189372E-01
   7133.00  4.3280823E-01
   7133.33  4.4803691E-01
   7133.67  4.6654134E-01
   7134.00  4.8736122E-01
   7134.33  5.0838807E-01
   7134.67  5.2622780E-01
   7135.00  5.3795951E-01
   7135.33  5.4095256E-01
   7135.67  5.3679568E-01
   7136.00  5.2706855E-01
   7136.33  5.1343920E-01
   7136.67  4.9835397E-01
   7137.00  4.8341986E-01
   7137.33  4.7053640E-01
   7137.67  4.6080842E-01
   7138.00  4.5503410E-01
   7138.33  4.5428969E-01
   7138.67  4.5814962E-01
   7139.00  4.6649617E-01
   7139.33  4.7952949E-01
   7139.67  4.9625128E-01
   7140.00  5.1609282E-01
   7140.33  5.3835514E-01
   7140.67  5.6136810E-01
   7141.00  5.8361325E-01
   7141.33  6.0286783E-01
   7141.67  6.1785964E-01
   7142.00  6.2776650E-01
   7142.33  6.3182887E-01
   7142.67  6.3141051E-01
   7143.00  6.2753237E-01
   7143.33  6.2119508E-01
   7143.67  6.1380558E-01
   7144.00  6.0617542E-01
   7144.33  5.9910568E-01
   7144.67  5.9306299E-01
   7145.00  5.8836290E-01
   7145.33  5.8545558E-01
   7145.67  5.8431055E-01
   7146.00  5.8503429E-01
   7146.33  5.8796864E-01
   7146.67  5.9294258E-01
   7147.00  6.0000658E-01
   7147.33  6.0946083E-01
   7147.67  6.2103583E-01
   7148.00  6.3469044E-01
   7148.33  6.5057397E-01
   7148.67  6.6827467E-01
   7149.00  6.8758714E-01
   7149.33  7.0834365E-01
   7149.67  7.2994923E-01
   7150.00  7.5194683E-01
   7150.33  7.7369734E-01
   7150.67  7.9456725E-01
   7151.00  8.1399096E-01
   7151.33  8.3113197E-01
   7151.67  8.4582084E-01
   7152.00  8.5782578E-01
   7152.33  8.6664094E-01
   7152.67  8.7258430E-01
   7153.00  8.7570746E-01
   7153.33  8.7581532E-01
   7153.67  8.7344746E-01
   7154.00  8.6881450E-01
   7154.33  8.6193639E-01
   7154.67  8.5334246E-01
   7155.00  8.4327096E-01
   7155.33  8.3183486E-01
   7155.67  8.1942878E-01
   7156.00  8.0624218E-01
   7156.33  7.9240754E-01
   7156.67  7.7818099E-01
   7157.00  7.6369130E-01
   7157.33  7.4904057E-01
   7157.67  7.3434061E-01
   7158.00  7.1965216E-01
   7158.33  7.0502846E-01
   7158.67  6.9048291E-01
   7159.00  6.7601557E-01
   7159.33  6.6162122E-01
   7159.67  6.4727827E-01
   7160.00  6.3298482E-01
   7160.33  6.1876901E-01
   7160.67  6.0468197E-01
   7161.00  5.9081331E-01
   7161.33  5.7733717E-01
   7161.67  5.6434398E-01
   7162.00  5.5194031E-01
   7162.33  5.4031927E-01
   7162.67  5.2946119E-01
   7163.00  5.1939191E-01
   7163.33  5.1021789E-01
   7163.67  5.0183276E-01
   7164.00  4.9422597E-01
   7164.33  4.8748029E-01
   7164.67  4.8148954E-01
   7165.00  4.7624679E-01
   7165.33  4.7183672E-01
   7165.67  4.6815889E-01
   7166.00  4.6520534E-01
   7166.33  4.6303595E-01
   7166.67  4.6151088E-01
   7167.00  4.6057124E-01
   7167.33  4.6019642E-01
   7167.67  4.6022580E-01
   7168.00  4.6056695E-01
   7168.33  4.6113151E-01
   7168.67  4.6178033E-01
   7169.00  4.6241800E-01
   7169.33  4.6292608E-01
   7169.67  4.6322710E-01
   7170.00  4.6325544E-01
   7170.33  4.6291391E-01
   7170.67  4.6221705E-01
   7171.00  4.6117476E-01
   7171.33  4.5982164E-01
   7171.67  4.5835645E-01
   7172.00  4.5701066E-01
