    FDMNES
    energy     <xanes>
   7097.00  4.5671065E-03
   7097.33  4.6613454E-03
   7097.67  4.7592809E-03
   7098.00  4.8611365E-03
   7098.33  4.9677238E-03
   7098.67  5.0788336E-03
   7099.00  5.1947654E-03
   7099.33  5.3165566E-03
   7099.67  5.4439888E-03
   7100.00  5.5774751E-03
   7100.33  5.7183787E-03
   7100.67  5.8664864E-03
   7101.00  6.0223886E-03
   7101.33  6.1879385E-03
   7101.67  6.3629623E-03
   7102.00  6.5483414E-03
   7102.33  6.7467033E-03
   7102.67  6.9579939E-03
   7103.00  7.1836009E-03
   7103.33  7.4274558E-03
   7103.67  7.6898147E-03
   7104.00  7.9730138E-03
   7104.33  8.2833588E-03
   7104.67  8.6218984E-03
   7105.00  8.9929181E-03
   7105.33  9.4074984E-03
   7105.67  9.8688201E-03
   7106.00  1.0385682E-02
   7106.33  1.0980107E-02
   7106.67  1.1661652E-02
   7107.00  1.2451376E-02
   7107.33  1.3401263E-02
   7107.67  1.4543552E-02
   7108.00  1.5941005E-02
   7108.33  1.7751565E-02
   7108.67  2.0113566E-02
   7109.00  2.3288227E-02
   7109.33  2.7986538E-02
   7109.67  3.5105039E-02
   7110.00  4.6430795E-02
   7110.33  6.7127535E-02
   7110.67  1.0139636E-01
   7111.00  1.4242165E-01
   7111.33  1.5624063E-01
   7111.67  1.4438119E-01
   7112.00  1.2669851E-01
   7112.33  1.1152846E-01
   7112.67  9.8563471E-02
   7113.00  8.9125818E-02
   7113.33  8.2470349E-02
   7113.67  7.6757341E-02
   7114.00  7.1641067E-02
   7114.33  6.6972849E-02
   7114.67  6.3955968E-02
   7115.00  6.3728383E-02
   7115.33  6.7115164E-02
   7115.67  7.4035999E-02
   7116.00  8.5160251E-02
   7116.33  1.0232913E-01
   7116.67  1.2532923E-01
   7117.00  1.5225912E-01
   7117.33  1.7828830E-01
   7117.67  2.0158861E-01
   7118.00  2.2435576E-01
   7118.33  2.4708000E-01
   7118.67  2.6306375E-01
   7119.00  2.6593364E-01
   7119.33  2.5627312E-01
   7119.67  2.4384909E-01
   7120.00  2.3401415E-01
   7120.33  2.2986142E-01
   7120.67  2.3106427E-01
   7121.00  2.3723992E-01
   7121.33  2.4849474E-01
   7121.67  2.6446221E-01
   7122.00  2.8578942E-01
   7122.33  3.1329035E-01
   7122.67  3.4447311E-01
   7123.00  3.7623210E-01
   7123.33  4.0489970E-01
   7123.67  4.3073728E-01
   7124.00  4.5621384E-01
   7124.33  4.8289947E-01
   7124.67  5.0949497E-01
   7125.00  5.3641902E-01
   7125.33  5.6599031E-01
   7125.67  5.9858660E-01
   7126.00  6.3240515E-01
   7126.33  6.6345969E-01
   7126.67  6.8885642E-01
   7127.00  7.0560672E-01
   7127.33  7.0967930E-01
   7127.67  7.0362182E-01
   7128.00  6.9270842E-01
   7128.33  6.8469991E-01
   7128.67  6.8199935E-01
   7129.00  6.8281020E-01
   7129.33  6.8360323E-01
   7129.67  6.8297038E-01
   7130.00  6.8214008E-01
   7130.33  6.8341493E-01
   7130.67  6.8714148E-01
   7131.00  6.9240761E-01
   7131.33  6.9781174E-01
   7131.67  7.0275408E-01
   7132.00  7.0704294E-01
   7132.33  7.0909488E-01
   7132.67  7.0683519E-01
   7133.00  6.9943589E-01
   7133.33  6.8845009E-01
   7133.67  6.7764435E-01
   7134.00  6.6885583E-01
   7134.33  6.6250751E-01
   7134.67  6.5772460E-01
   7135.00  6.5428301E-01
   7135.33  6.5169341E-01
   7135.67  6.4847596E-01
   7136.00  6.4368085E-01
   7136.33  6.3724647E-01
   7136.67  6.3022630E-01
   7137.00  6.2316500E-01
   7137.33  6.1611367E-01
   7137.67  6.0867782E-01
   7138.00  6.0038993E-01
   7138.33  5.9057648E-01
   7138.67  5.7906699E-01
   7139.00  5.6576687E-01
   7139.33  5.5064872E-01
   7139.67  5.3441151E-01
   7140.00  5.1769923E-01
   7140.33  5.0143349E-01
   7140.67  4.8636142E-01
   7141.00  4.7294056E-01
   7141.33  4.6156262E-01
   7141.67  4.5181915E-01
   7142.00  4.4339775E-01
   7142.33  4.3602132E-01
   7142.67  4.2926007E-01
   7143.00  4.2294696E-01
   7143.33  4.1704682E-01
   7143.67  4.1152738E-01
   7144.00  4.0644608E-01
   7144.33  4.0195137E-01
   7144.67  3.9804967E-01
   7145.00  3.9477934E-01
   7145.33  3.9223483E-01
   7145.67  3.9032307E-01
   7146.00  3.8902121E-01
   7146.33  3.8836427E-01
   7146.67  3.8822031E-01
   7147.00  3.8849755E-01
   7147.33  3.8905488E-01
   7147.67  3.8964676E-01
   7148.00  3.9011985E-01
   7148.33  3.9039577E-01
   7148.67  3.9059897E-01
   7149.00  3.9090490E-01
   7149.33  3.9155637E-01
   7149.67  3.9262551E-01
   7150.00  3.9408618E-01
   7150.33  3.9579246E-01
   7150.67  3.9744554E-01
   7151.00  3.9878374E-01
   7151.33  3.9945587E-01
   7151.67  3.9936252E-01
   7152.00  3.9847355E-01
   7152.33  3.9679933E-01
   7152.67  3.9462612E-01
   7153.00  3.9216614E-01
   7153.33  3.8967248E-01
   7153.67  3.8738698E-01
   7154.00  3.8548596E-01
   7154.33  3.8420822E-01
   7154.67  3.8361710E-01
   7155.00  3.8379984E-01
   7155.33  3.8493603E-01
   7155.67  3.8696558E-01
   7156.00  3.8990638E-01
   7156.33  3.9386578E-01
   7156.67  3.9869353E-01
   7157.00  4.0433027E-01
   7157.33  4.1076000E-01
   7157.67  4.1775239E-01
   7158.00  4.2515660E-01
   7158.33  4.3279545E-01
   7158.67  4.4041966E-01
   7159.00  4.4782921E-01
   7159.33  4.5473587E-01
   7159.67  4.6098502E-01
   7160.00  4.6642766E-01
   7160.33  4.7082159E-01
   7160.67  4.7421360E-01
   7161.00  4.7658786E-01
   7161.33  4.7785045E-01
   7161.67  4.7819919E-01
   7162.00  4.7772588E-01
   7162.33  4.7647797E-01
   7162.67  4.7469701E-01
   7163.00  4.7252800E-01
   7163.33  4.7011877E-01
   7163.67  4.6766708E-01
   7164.00  4.6530809E-01
   7164.33  4.6320420E-01
   7164.67  4.6142860E-01
   7165.00  4.6003977E-01
   7165.33  4.5912772E-01
   7165.67  4.5865017E-01
   7166.00  4.5860210E-01
   7166.33  4.5902046E-01
   7166.67  4.5983483E-01
   7167.00  4.6102812E-01
   7167.33  4.6262330E-01
   7167.67  4.6455060E-01
   7168.00  4.6678321E-01
   7168.33  4.6931379E-01
   7168.67  4.7205571E-01
   7169.00  4.7495142E-01
   7169.33  4.7793294E-01
   7169.67  4.8090759E-01
   7170.00  4.8380488E-01
   7170.33  4.8653133E-01
   7170.67  4.8904479E-01
   7171.00  4.9130493E-01
   7171.33  4.9323970E-01
   7171.67  4.9485114E-01
   7172.00  4.9610581E-01
