    FDMNES
    energy     <xanes>
   7097.00  4.9680013E-03
   7097.33  5.0893683E-03
   7097.67  5.2164492E-03
   7098.00  5.3496417E-03
   7098.33  5.4902863E-03
   7098.67  5.6381267E-03
   7099.00  5.7937070E-03
   7099.33  5.9587897E-03
   7099.67  6.1331146E-03
   7100.00  6.3174455E-03
   7100.33  6.5141597E-03
   7100.67  6.7230208E-03
   7101.00  6.9451338E-03
   7101.33  7.1838034E-03
   7101.67  7.4388780E-03
   7102.00  7.7120145E-03
   7102.33  8.0079756E-03
   7102.67  8.3268290E-03
   7103.00  8.6711691E-03
   7103.33  9.0481683E-03
   7103.67  9.4584194E-03
   7104.00  9.9062074E-03
   7104.33  1.0402944E-02
   7104.67  1.0950478E-02
   7105.00  1.1556384E-02
   7105.33  1.2240160E-02
   7105.67  1.3006805E-02
   7106.00  1.3870973E-02
   7106.33  1.4869340E-02
   7106.67  1.6015625E-02
   7107.00  1.7341995E-02
   7107.33  1.8927689E-02
   7107.67  2.0814770E-02
   7108.00  2.3088698E-02
   7108.33  2.5962158E-02
   7108.67  2.9597574E-02
   7109.00  3.4305938E-02
   7109.33  4.0915659E-02
   7109.67  5.0379457E-02
   7110.00  6.4585636E-02
   7110.33  8.8868698E-02
   7110.67  1.2705360E-01
   7111.00  1.7137386E-01
   7111.33  1.9374305E-01
   7111.67  2.0675266E-01
   7112.00  2.2986621E-01
   7112.33  2.7992485E-01
   7112.67  3.6993535E-01
   7113.00  5.0550045E-01
   7113.33  6.4083958E-01
   7113.67  6.6654455E-01
   7114.00  5.6551744E-01
   7114.33  4.3626484E-01
   7114.67  3.4125887E-01
   7115.00  2.7844305E-01
   7115.33  2.3317935E-01
   7115.67  1.9693060E-01
   7116.00  1.7110920E-01
   7116.33  1.5647128E-01
   7116.67  1.4958849E-01
   7117.00  1.4887636E-01
   7117.33  1.5267001E-01
   7117.67  1.5754833E-01
   7118.00  1.6183829E-01
   7118.33  1.6464262E-01
   7118.67  1.6533460E-01
   7119.00  1.6259801E-01
   7119.33  1.5370506E-01
   7119.67  1.3910453E-01
   7120.00  1.2243139E-01
   7120.33  1.0925041E-01
   7120.67  1.0072267E-01
   7121.00  9.6092541E-02
   7121.33  9.4494658E-02
   7121.67  9.4721122E-02
   7122.00  9.6240043E-02
   7122.33  9.8714855E-02
   7122.67  1.0184672E-01
   7123.00  1.0561087E-01
   7123.33  1.0997771E-01
   7123.67  1.1464295E-01
   7124.00  1.1967824E-01
   7124.33  1.2593018E-01
   7124.67  1.3412762E-01
   7125.00  1.4470909E-01
   7125.33  1.5771261E-01
   7125.67  1.7190517E-01
   7126.00  1.8680389E-01
   7126.33  2.0335155E-01
   7126.67  2.2268833E-01
   7127.00  2.4543493E-01
   7127.33  2.7231189E-01
   7127.67  3.0107744E-01
   7128.00  3.2706513E-01
   7128.33  3.4453905E-01
   7128.67  3.5573050E-01
   7129.00  3.6554932E-01
   7129.33  3.7997908E-01
   7129.67  4.0136734E-01
   7130.00  4.2997138E-01
   7130.33  4.6461103E-01
   7130.67  5.0148423E-01
   7131.00  5.3843581E-01
   7131.33  5.7533362E-01
   7131.67  6.1457350E-01
   7132.00  6.5873583E-01
   7132.33  7.1028095E-01
   7132.67  7.6713509E-01
   7133.00  8.2568657E-01
   7133.33  8.8059989E-01
   7133.67  9.2951109E-01
   7134.00  9.7176606E-01
   7134.33  1.0052321E+00
   7134.67  1.0276825E+00
   7135.00  1.0355225E+00
   7135.33  1.0251739E+00
   7135.67  1.0017620E+00
   7136.00  9.6960140E-01
   7136.33  9.3193686E-01
   7136.67  8.9141039E-01
   7137.00  8.4898657E-01
   7137.33  8.0559741E-01
   7137.67  7.6265189E-01
   7138.00  7.2143426E-01
   7138.33  6.8373171E-01
   7138.67  6.5019412E-01
   7139.00  6.2141030E-01
   7139.33  5.9849077E-01
   7139.67  5.8107757E-01
   7140.00  5.6923344E-01
   7140.33  5.6329308E-01
   7140.67  5.6173716E-01
   7141.00  5.6344124E-01
   7141.33  5.6711682E-01
   7141.67  5.7115727E-01
   7142.00  5.7467227E-01
   7142.33  5.7693727E-01
   7142.67  5.7797571E-01
   7143.00  5.7799517E-01
   7143.33  5.7739337E-01
   7143.67  5.7677440E-01
   7144.00  5.7650960E-01
   7144.33  5.7686938E-01
   7144.67  5.7769671E-01
   7145.00  5.7874649E-01
   7145.33  5.7967854E-01
   7145.67  5.8029345E-01
   7146.00  5.8057872E-01
   7146.33  5.8070112E-01
   7146.67  5.8100010E-01
   7147.00  5.8177618E-01
   7147.33  5.8342010E-01
   7147.67  5.8601990E-01
   7148.00  5.8962806E-01
   7148.33  5.9430845E-01
   7148.67  5.9979355E-01
   7149.00  6.0589930E-01
   7149.33  6.1240102E-01
   7149.67  6.1894972E-01
   7150.00  6.2527864E-01
   7150.33  6.3101124E-01
   7150.67  6.3590820E-01
   7151.00  6.3971826E-01
   7151.33  6.4200695E-01
   7151.67  6.4273260E-01
   7152.00  6.4178613E-01
   7152.33  6.3894820E-01
   7152.67  6.3455533E-01
   7153.00  6.2880648E-01
   7153.33  6.2184775E-01
   7153.67  6.1409870E-01
   7154.00  6.0578909E-01
   7154.33  5.9709887E-01
   7154.67  5.8822476E-01
   7155.00  5.7924834E-01
   7155.33  5.7021039E-01
   7155.67  5.6113313E-01
   7156.00  5.5201999E-01
   7156.33  5.4287439E-01
   7156.67  5.3372153E-01
   7157.00  5.2459692E-01
   7157.33  5.1557252E-01
   7157.67  5.0671554E-01
   7158.00  4.9810295E-01
   7158.33  4.8987124E-01
   7158.67  4.8207306E-01
   7159.00  4.7479080E-01
   7159.33  4.6819192E-01
   7159.67  4.6227683E-01
   7160.00  4.5709715E-01
   7160.33  4.5279123E-01
   7160.67  4.4927739E-01
   7161.00  4.4654347E-01
   7161.33  4.4463321E-01
   7161.67  4.4337101E-01
   7162.00  4.4265848E-01
   7162.33  4.4240519E-01
   7162.67  4.4239374E-01
   7163.00  4.4248058E-01
   7163.33  4.4251671E-01
   7163.67  4.4239919E-01
   7164.00  4.4206731E-01
   7164.33  4.4145712E-01
   7164.67  4.4059938E-01
   7165.00  4.3950950E-01
   7165.33  4.3818223E-01
   7165.67  4.3665614E-01
   7166.00  4.3492886E-01
   7166.33  4.3295828E-01
   7166.67  4.3075795E-01
   7167.00  4.2832508E-01
   7167.33  4.2562674E-01
   7167.67  4.2270044E-01
   7168.00  4.1957327E-01
   7168.33  4.1628324E-01
   7168.67  4.1292444E-01
   7169.00  4.0957006E-01
   7169.33  4.0631670E-01
   7169.67  4.0322982E-01
   7170.00  4.0036237E-01
   7170.33  3.9778958E-01
   7170.67  3.9550143E-01
   7171.00  3.9350555E-01
   7171.33  3.9184045E-01
   7171.67  3.9047217E-01
   7172.00  3.8940649E-01
