    FDMNES
    energy     <xanes>
   7097.00  4.3904973E-03
   7097.33  4.4813731E-03
   7097.67  4.5758108E-03
   7098.00  4.6740254E-03
   7098.33  4.7767984E-03
   7098.67  4.8839277E-03
   7099.00  4.9957009E-03
   7099.33  5.1131162E-03
   7099.67  5.2359616E-03
   7100.00  5.3646330E-03
   7100.33  5.5004398E-03
   7100.67  5.6431734E-03
   7101.00  5.7933979E-03
   7101.33  5.9528880E-03
   7101.67  6.1214696E-03
   7102.00  6.2999806E-03
   7102.33  6.4909269E-03
   7102.67  6.6942410E-03
   7103.00  6.9112330E-03
   7103.33  7.1456294E-03
   7103.67  7.3976397E-03
   7104.00  7.6694491E-03
   7104.33  7.9669813E-03
   7104.67  8.2911505E-03
   7105.00  8.6459161E-03
   7105.33  9.0415574E-03
   7105.67  9.4808657E-03
   7106.00  9.9718399E-03
   7106.33  1.0534561E-02
   7106.67  1.1177357E-02
   7107.00  1.1918974E-02
   7107.33  1.2805727E-02
   7107.67  1.3865250E-02
   7108.00  1.5151924E-02
   7108.33  1.6802190E-02
   7108.67  1.8931629E-02
   7109.00  2.1758731E-02
   7109.33  2.5873446E-02
   7109.67  3.1999110E-02
   7110.00  4.1571816E-02
   7110.33  5.8747874E-02
   7110.67  8.7320291E-02
   7111.00  1.2440796E-01
   7111.33  1.4681596E-01
   7111.67  1.4168415E-01
   7112.00  1.2426330E-01
   7112.33  1.1295714E-01
   7112.67  1.0634546E-01
   7113.00  1.0311675E-01
   7113.33  1.0316843E-01
   7113.67  1.0216896E-01
   7114.00  9.6138828E-02
   7114.33  8.4147701E-02
   7114.67  7.2722131E-02
   7115.00  6.6263887E-02
   7115.33  6.6166147E-02
   7115.67  7.1180692E-02
   7116.00  8.1466714E-02
   7116.33  9.8904011E-02
   7116.67  1.2392390E-01
   7117.00  1.5600496E-01
   7117.33  1.9009570E-01
   7117.67  2.1666624E-01
   7118.00  2.3054501E-01
   7118.33  2.3263078E-01
   7118.67  2.3102972E-01
   7119.00  2.3090052E-01
   7119.33  2.3630580E-01
   7119.67  2.4758283E-01
   7120.00  2.6344275E-01
   7120.33  2.8052473E-01
   7120.67  2.9512355E-01
   7121.00  3.0553724E-01
   7121.33  3.1126640E-01
   7121.67  3.1435943E-01
   7122.00  3.1664871E-01
   7122.33  3.2048998E-01
   7122.67  3.2708317E-01
   7123.00  3.3639840E-01
   7123.33  3.4748453E-01
   7123.67  3.5867966E-01
   7124.00  3.6920443E-01
   7124.33  3.7918350E-01
   7124.67  3.8947286E-01
   7125.00  4.0082176E-01
   7125.33  4.1447893E-01
   7125.67  4.3080845E-01
   7126.00  4.4948395E-01
   7126.33  4.6900380E-01
   7126.67  4.8693952E-01
   7127.00  5.0185135E-01
   7127.33  5.1337770E-01
   7127.67  5.2336765E-01
   7128.00  5.3327055E-01
   7128.33  5.4337486E-01
   7128.67  5.5184599E-01
   7129.00  5.5678981E-01
   7129.33  5.5720346E-01
   7129.67  5.5522305E-01
   7130.00  5.5276048E-01
   7130.33  5.5128208E-01
   7130.67  5.5082342E-01
   7131.00  5.5104146E-01
   7131.33  5.5206252E-01
   7131.67  5.5511534E-01
   7132.00  5.6222341E-01
   7132.33  5.7596163E-01
   7132.67  5.9523631E-01
   7133.00  6.1790706E-01
   7133.33  6.4067182E-01
   7133.67  6.6125675E-01
   7134.00  6.7988011E-01
   7134.33  6.9868305E-01
   7134.67  7.1875268E-01
   7135.00  7.3932063E-01
   7135.33  7.5870220E-01
   7135.67  7.7555372E-01
   7136.00  7.8864796E-01
   7136.33  7.9604619E-01
   7136.67  7.9758738E-01
   7137.00  7.9322892E-01
   7137.33  7.8294411E-01
   7137.67  7.6844146E-01
   7138.00  7.5069171E-01
   7138.33  7.3043019E-01
   7138.67  7.0877990E-01
   7139.00  6.8637920E-01
   7139.33  6.6395142E-01
   7139.67  6.4221590E-01
   7140.00  6.2170007E-01
   7140.33  6.0298796E-01
   7140.67  5.8600420E-01
   7141.00  5.7070750E-01
   7141.33  5.5714614E-01
   7141.67  5.4494907E-01
   7142.00  5.3397014E-01
   7142.33  5.2418484E-01
   7142.67  5.1531248E-01
   7143.00  5.0722526E-01
   7143.33  4.9984572E-01
   7143.67  4.9294403E-01
   7144.00  4.8641931E-01
   7144.33  4.8027182E-01
   7144.67  4.7453067E-01
   7145.00  4.6934628E-01
   7145.33  4.6507332E-01
   7145.67  4.6189249E-01
   7146.00  4.6001662E-01
   7146.33  4.5979421E-01
   7146.67  4.6109024E-01
   7147.00  4.6385421E-01
   7147.33  4.6812466E-01
   7147.67  4.7356925E-01
   7148.00  4.8002087E-01
   7148.33  4.8735180E-01
   7148.67  4.9519472E-01
   7149.00  5.0328262E-01
   7149.33  5.1126603E-01
   7149.67  5.1881609E-01
   7150.00  5.2565704E-01
   7150.33  5.3137825E-01
   7150.67  5.3587688E-01
   7151.00  5.3901754E-01
   7151.33  5.4054053E-01
   7151.67  5.4064756E-01
   7152.00  5.3943687E-01
   7152.33  5.3695444E-01
   7152.67  5.3358640E-01
   7153.00  5.2956770E-01
   7153.33  5.2513397E-01
   7153.67  5.2061038E-01
   7154.00  5.1621140E-01
   7154.33  5.1217432E-01
   7154.67  5.0859276E-01
   7155.00  5.0552965E-01
   7155.33  5.0306619E-01
   7155.67  5.0109551E-01
   7156.00  4.9954973E-01
   7156.33  4.9836314E-01
   7156.67  4.9737184E-01
   7157.00  4.9646069E-01
   7157.33  4.9548186E-01
   7157.67  4.9430261E-01
   7158.00  4.9281025E-01
   7158.33  4.9084178E-01
   7158.67  4.8838057E-01
   7159.00  4.8541221E-01
   7159.33  4.8192283E-01
   7159.67  4.7807887E-01
   7160.00  4.7401792E-01
   7160.33  4.6992802E-01
   7160.67  4.6599365E-01
   7161.00  4.6233718E-01
   7161.33  4.5909419E-01
   7161.67  4.5624367E-01
   7162.00  4.5375629E-01
   7162.33  4.5158532E-01
   7162.67  4.4958599E-01
   7163.00  4.4765934E-01
   7163.33  4.4569488E-01
   7163.67  4.4361272E-01
   7164.00  4.4136537E-01
   7164.33  4.3890683E-01
   7164.67  4.3627228E-01
   7165.00  4.3349449E-01
   7165.33  4.3061829E-01
   7165.67  4.2771999E-01
   7166.00  4.2485737E-01
   7166.33  4.2210662E-01
   7166.67  4.1951162E-01
   7167.00  4.1711323E-01
   7167.33  4.1497855E-01
   7167.67  4.1310530E-01
   7168.00  4.1150896E-01
   7168.33  4.1023587E-01
   7168.67  4.0925304E-01
   7169.00  4.0855767E-01
   7169.33  4.0817544E-01
   7169.67  4.0805579E-01
   7170.00  4.0817986E-01
   7170.33  4.0854658E-01
   7170.67  4.0909319E-01
   7171.00  4.0978057E-01
   7171.33  4.1055725E-01
   7171.67  4.1132229E-01
   7172.00  4.1196858E-01
