    FDMNES
    energy     <xanes>
   7097.00  4.9149368E-03
   7097.33  5.0325066E-03
   7097.67  5.1554231E-03
   7098.00  5.2840514E-03
   7098.33  5.4196345E-03
   7098.67  5.5619247E-03
   7099.00  5.7114220E-03
   7099.33  5.8697589E-03
   7099.67  6.0366864E-03
   7100.00  6.2129095E-03
   7100.33  6.4006321E-03
   7100.67  6.5996331E-03
   7101.00  6.8109400E-03
   7101.33  7.0376286E-03
   7101.67  7.2795705E-03
   7102.00  7.5383236E-03
   7102.33  7.8183556E-03
   7102.67  8.1197752E-03
   7103.00  8.4450602E-03
   7103.33  8.8010253E-03
   7103.67  9.1883486E-03
   7104.00  9.6112088E-03
   7104.33  1.0080655E-02
   7104.67  1.0598741E-02
   7105.00  1.1173053E-02
   7105.33  1.1822957E-02
   7105.67  1.2554015E-02
   7106.00  1.3381371E-02
   7106.33  1.4342651E-02
   7106.67  1.5453251E-02
   7107.00  1.6747558E-02
   7107.33  1.8309814E-02
   7107.67  2.0187556E-02
   7108.00  2.2474662E-02
   7108.33  2.5403564E-02
   7108.67  2.9155511E-02
   7109.00  3.4071432E-02
   7109.33  4.1047554E-02
   7109.67  5.1086008E-02
   7110.00  6.6142534E-02
   7110.33  9.1813119E-02
   7110.67  1.3399067E-01
   7111.00  1.9413924E-01
   7111.33  2.5826215E-01
   7111.67  3.1915176E-01
   7112.00  3.7368540E-01
   7112.33  4.0745455E-01
   7112.67  3.9443002E-01
   7113.00  3.2410928E-01
   7113.33  2.4581230E-01
   7113.67  1.9064022E-01
   7114.00  1.5537613E-01
   7114.33  1.3511552E-01
   7114.67  1.2318908E-01
   7115.00  1.1725203E-01
   7115.33  1.1569329E-01
   7115.67  1.1151790E-01
   7116.00  1.0376154E-01
   7116.33  9.6633881E-02
   7116.67  9.2518073E-02
   7117.00  9.1983342E-02
   7117.33  9.5798901E-02
   7117.67  1.0375381E-01
   7118.00  1.1552967E-01
   7118.33  1.2911098E-01
   7118.67  1.4116570E-01
   7119.00  1.5060761E-01
   7119.33  1.5817495E-01
   7119.67  1.6488084E-01
   7120.00  1.7048183E-01
   7120.33  1.7542417E-01
   7120.67  1.8175759E-01
   7121.00  1.9252374E-01
   7121.33  2.1223977E-01
   7121.67  2.4197458E-01
   7122.00  2.8238899E-01
   7122.33  3.3436427E-01
   7122.67  3.9363190E-01
   7123.00  4.5353475E-01
   7123.33  5.0382793E-01
   7123.67  5.4432308E-01
   7124.00  5.7624956E-01
   7124.33  5.9518578E-01
   7124.67  6.0156197E-01
   7125.00  5.9936008E-01
   7125.33  5.9531437E-01
   7125.67  5.9460685E-01
   7126.00  5.9870252E-01
   7126.33  6.0809626E-01
   7126.67  6.2179257E-01
   7127.00  6.3923322E-01
   7127.33  6.5943808E-01
   7127.67  6.8094596E-01
   7128.00  7.0350478E-01
   7128.33  7.2619690E-01
   7128.67  7.4513732E-01
   7129.00  7.5525716E-01
   7129.33  7.5168019E-01
   7129.67  7.3934469E-01
   7130.00  7.2437600E-01
   7130.33  7.1181751E-01
   7130.67  7.0220524E-01
   7131.00  6.9426183E-01
   7131.33  6.8500500E-01
   7131.67  6.7140527E-01
   7132.00  6.5218310E-01
   7132.33  6.2878832E-01
   7132.67  6.0604842E-01
   7133.00  5.8743361E-01
   7133.33  5.7610815E-01
   7133.67  5.7171659E-01
   7134.00  5.7329860E-01
   7134.33  5.7927214E-01
   7134.67  5.8705334E-01
   7135.00  5.9553820E-01
   7135.33  6.0453994E-01
   7135.67  6.1413278E-01
   7136.00  6.2403708E-01
   7136.33  6.3320369E-01
   7136.67  6.4043005E-01
   7137.00  6.4479447E-01
   7137.33  6.4536069E-01
   7137.67  6.4273705E-01
   7138.00  6.3755808E-01
   7138.33  6.3053109E-01
   7138.67  6.2266469E-01
   7139.00  6.1447097E-01
   7139.33  6.0630328E-01
   7139.67  5.9818215E-01
   7140.00  5.8983549E-01
   7140.33  5.8059826E-01
   7140.67  5.6998205E-01
   7141.00  5.5767724E-01
   7141.33  5.4345921E-01
   7141.67  5.2785181E-01
   7142.00  5.1126425E-01
   7142.33  4.9414632E-01
   7142.67  4.7703186E-01
   7143.00  4.6029056E-01
   7143.33  4.4440876E-01
   7143.67  4.2963883E-01
   7144.00  4.1622931E-01
   7144.33  4.0458093E-01
   7144.67  3.9460569E-01
   7145.00  3.8632830E-01
   7145.33  3.7992734E-01
   7145.67  3.7512336E-01
   7146.00  3.7183656E-01
   7146.33  3.7013889E-01
   7146.67  3.6974487E-01
   7147.00  3.7055952E-01
   7147.33  3.7260185E-01
   7147.67  3.7560518E-01
   7148.00  3.7944409E-01
   7148.33  3.8403693E-01
   7148.67  3.8911804E-01
   7149.00  3.9452662E-01
   7149.33  4.0010316E-01
   7149.67  4.0567568E-01
   7150.00  4.1114011E-01
   7150.33  4.1638319E-01
   7150.67  4.2138207E-01
   7151.00  4.2612896E-01
   7151.33  4.3061176E-01
   7151.67  4.3488371E-01
   7152.00  4.3895214E-01
   7152.33  4.4276611E-01
   7152.67  4.4629330E-01
   7153.00  4.4945892E-01
   7153.33  4.5211215E-01
   7153.67  4.5423017E-01
   7154.00  4.5576694E-01
   7154.33  4.5662038E-01
   7154.67  4.5686134E-01
   7155.00  4.5649303E-01
   7155.33  4.5544291E-01
   7155.67  4.5378445E-01
   7156.00  4.5151205E-01
   7156.33  4.4854299E-01
   7156.67  4.4495879E-01
   7157.00  4.4077743E-01
   7157.33  4.3597419E-01
   7157.67  4.3069276E-01
   7158.00  4.2502338E-01
   7158.33  4.1906469E-01
   7158.67  4.1299582E-01
   7159.00  4.0694732E-01
   7159.33  4.0108718E-01
   7159.67  3.9552556E-01
   7160.00  3.9035501E-01
   7160.33  3.8571205E-01
   7160.67  3.8158139E-01
   7161.00  3.7797343E-01
   7161.33  3.7493551E-01
   7161.67  3.7236625E-01
   7162.00  3.7022178E-01
   7162.33  3.6848713E-01
   7162.67  3.6705517E-01
   7163.00  3.6587725E-01
   7163.33  3.6492796E-01
   7163.67  3.6414192E-01
   7164.00  3.6349723E-01
   7164.33  3.6299445E-01
   7164.67  3.6260984E-01
   7165.00  3.6234103E-01
   7165.33  3.6220408E-01
   7165.67  3.6218977E-01
   7166.00  3.6230620E-01
   7166.33  3.6258419E-01
   7166.67  3.6302010E-01
   7167.00  3.6362505E-01
   7167.33  3.6443115E-01
   7167.67  3.6542120E-01
   7168.00  3.6659563E-01
   7168.33  3.6797353E-01
   7168.67  3.6952559E-01
   7169.00  3.7124465E-01
   7169.33  3.7314147E-01
   7169.67  3.7518628E-01
   7170.00  3.7736864E-01
   7170.33  3.7968674E-01
   7170.67  3.8209809E-01
   7171.00  3.8456362E-01
   7171.33  3.8699928E-01
   7171.67  3.8925759E-01
   7172.00  3.9113872E-01
