    FDMNES
    energy     <xanes>
   7097.00  4.4987661E-03
   7097.33  4.5948405E-03
   7097.67  4.6949820E-03
   7098.00  4.7994600E-03
   7098.33  4.9092071E-03
   7098.67  5.0240253E-03
   7099.00  5.1442835E-03
   7099.33  5.2712014E-03
   7099.67  5.4045798E-03
   7100.00  5.5449390E-03
   7100.33  5.6939205E-03
   7100.67  5.8513468E-03
   7101.00  6.0179768E-03
   7101.33  6.1960981E-03
   7101.67  6.3856040E-03
   7102.00  6.5876490E-03
   7102.33  6.8055560E-03
   7102.67  7.0394007E-03
   7103.00  7.2910277E-03
   7103.33  7.5655170E-03
   7103.67  7.8633838E-03
   7104.00  8.1877588E-03
   7104.33  8.5469187E-03
   7104.67  8.9424470E-03
   7105.00  9.3800770E-03
   7105.33  9.8744307E-03
   7105.67  1.0429838E-02
   7106.00  1.1057882E-02
   7106.33  1.1787302E-02
   7106.67  1.2630228E-02
   7107.00  1.3613378E-02
   7107.33  1.4802196E-02
   7107.67  1.6234746E-02
   7108.00  1.7985578E-02
   7108.33  2.0239747E-02
   7108.67  2.3145968E-02
   7109.00  2.6983597E-02
   7109.33  3.2492365E-02
   7109.67  4.0524090E-02
   7110.00  5.2748698E-02
   7110.33  7.3965058E-02
   7110.67  1.0906254E-01
   7111.00  1.5795762E-01
   7111.33  2.0381097E-01
   7111.67  2.4023922E-01
   7112.00  2.7020037E-01
   7112.33  2.7501189E-01
   7112.67  2.5321160E-01
   7113.00  2.2434267E-01
   7113.33  1.9321223E-01
   7113.67  1.5532165E-01
   7114.00  1.1827004E-01
   7114.33  9.3035757E-02
   7114.67  7.7505545E-02
   7115.00  6.7110308E-02
   7115.33  5.9261507E-02
   7115.67  5.3846019E-02
   7116.00  5.0652014E-02
   7116.33  4.9460075E-02
   7116.67  4.9891620E-02
   7117.00  5.1945681E-02
   7117.33  5.5662943E-02
   7117.67  6.0215669E-02
   7118.00  6.4796837E-02
   7118.33  6.9264822E-02
   7118.67  7.4679464E-02
   7119.00  8.1990366E-02
   7119.33  9.1803099E-02
   7119.67  1.0327569E-01
   7120.00  1.1556662E-01
   7120.33  1.2785800E-01
   7120.67  1.3970582E-01
   7121.00  1.5093924E-01
   7121.33  1.6148217E-01
   7121.67  1.7171474E-01
   7122.00  1.8222845E-01
   7122.33  1.9437904E-01
   7122.67  2.0964552E-01
   7123.00  2.2960571E-01
   7123.33  2.5641159E-01
   7123.67  2.8915781E-01
   7124.00  3.2583302E-01
   7124.33  3.6311102E-01
   7124.67  3.9854237E-01
   7125.00  4.3068292E-01
   7125.33  4.5828452E-01
   7125.67  4.8317827E-01
   7126.00  5.0595552E-01
   7126.33  5.2323609E-01
   7126.67  5.3176999E-01
   7127.00  5.3128411E-01
   7127.33  5.2523667E-01
   7127.67  5.1943437E-01
   7128.00  5.1710530E-01
   7128.33  5.2171029E-01
   7128.67  5.3429767E-01
   7129.00  5.5478149E-01
   7129.33  5.8067052E-01
   7129.67  6.0613759E-01
   7130.00  6.2735670E-01
   7130.33  6.4238183E-01
   7130.67  6.5399588E-01
   7131.00  6.6503549E-01
   7131.33  6.7814538E-01
   7131.67  6.9351986E-01
   7132.00  7.0995909E-01
   7132.33  7.2469235E-01
   7132.67  7.3499138E-01
   7133.00  7.3901174E-01
   7133.33  7.3570696E-01
   7133.67  7.2827274E-01
   7134.00  7.2044653E-01
   7134.33  7.1751697E-01
   7134.67  7.2191154E-01
   7135.00  7.3385970E-01
   7135.33  7.5240826E-01
   7135.67  7.7397898E-01
   7136.00  7.9542532E-01
   7136.33  8.1229500E-01
   7136.67  8.2216117E-01
   7137.00  8.2418123E-01
   7137.33  8.1840785E-01
   7137.67  8.0772287E-01
   7138.00  7.9395094E-01
   7138.33  7.7865097E-01
   7138.67  7.6317333E-01
   7139.00  7.4813919E-01
   7139.33  7.3401706E-01
   7139.67  7.2078450E-01
   7140.00  7.0834640E-01
   7140.33  6.9655658E-01
   7140.67  6.8509774E-01
   7141.00  6.7375715E-01
   7141.33  6.6230354E-01
   7141.67  6.5065761E-01
   7142.00  6.3891122E-01
   7142.33  6.2745083E-01
   7142.67  6.1681762E-01
   7143.00  6.0755087E-01
   7143.33  6.0038014E-01
   7143.67  5.9530491E-01
   7144.00  5.9229370E-01
   7144.33  5.9131123E-01
   7144.67  5.9169863E-01
   7145.00  5.9299330E-01
   7145.33  5.9462963E-01
   7145.67  5.9593596E-01
   7146.00  5.9638260E-01
   7146.33  5.9525384E-01
   7146.67  5.9233652E-01
   7147.00  5.8746264E-01
   7147.33  5.8040312E-01
   7147.67  5.7161564E-01
   7148.00  5.6138726E-01
   7148.33  5.4996394E-01
   7148.67  5.3785716E-01
   7149.00  5.2535357E-01
   7149.33  5.1269889E-01
   7149.67  5.0008854E-01
   7150.00  4.8761870E-01
   7150.33  4.7539229E-01
   7150.67  4.6343489E-01
   7151.00  4.5177970E-01
   7151.33  4.4049798E-01
   7151.67  4.2957412E-01
   7152.00  4.1903145E-01
   7152.33  4.0895369E-01
   7152.67  3.9932660E-01
   7153.00  3.9018125E-01
   7153.33  3.8160999E-01
   7153.67  3.7356394E-01
   7154.00  3.6604205E-01
   7154.33  3.5909009E-01
   7154.67  3.5261417E-01
   7155.00  3.4658229E-01
   7155.33  3.4100434E-01
   7155.67  3.3578889E-01
   7156.00  3.3090190E-01
   7156.33  3.2634113E-01
   7156.67  3.2203347E-01
   7157.00  3.1795008E-01
   7157.33  3.1408900E-01
   7157.67  3.1041383E-01
   7158.00  3.0693331E-01
   7158.33  3.0371526E-01
   7158.67  3.0080376E-01
   7159.00  2.9828776E-01
   7159.33  2.9635645E-01
   7159.67  2.9507813E-01
   7160.00  2.9456347E-01
   7160.33  2.9503080E-01
   7160.67  2.9644636E-01
   7161.00  2.9884001E-01
   7161.33  3.0231747E-01
   7161.67  3.0668089E-01
   7162.00  3.1181875E-01
   7162.33  3.1763343E-01
   7162.67  3.2387159E-01
   7163.00  3.3039435E-01
   7163.33  3.3707662E-01
   7163.67  3.4378786E-01
   7164.00  3.5046000E-01
   7164.33  3.5703604E-01
   7164.67  3.6350847E-01
   7165.00  3.6987622E-01
   7165.33  3.7613468E-01
   7165.67  3.8230584E-01
   7166.00  3.8839579E-01
   7166.33  3.9439714E-01
   7166.67  4.0031671E-01
   7167.00  4.0614876E-01
   7167.33  4.1187247E-01
   7167.67  4.1748870E-01
   7168.00  4.2298851E-01
   7168.33  4.2834990E-01
   7168.67  4.3358531E-01
   7169.00  4.3869365E-01
   7169.33  4.4365671E-01
   7169.67  4.4848449E-01
   7170.00  4.5316596E-01
   7170.33  4.5765845E-01
   7170.67  4.6194850E-01
   7171.00  4.6599179E-01
   7171.33  4.6966731E-01
   7171.67  4.7288305E-01
   7172.00  4.7547915E-01
