    FDMNES
    energy     <xanes>
   7097.00  4.4031809E-03
   7097.33  4.5037716E-03
   7097.67  4.6090237E-03
   7098.00  4.7192760E-03
   7098.33  4.8356486E-03
   7098.67  4.9579566E-03
   7099.00  5.0866753E-03
   7099.33  5.2233074E-03
   7099.67  5.3676829E-03
   7100.00  5.5204901E-03
   7100.33  5.6838102E-03
   7100.67  5.8575275E-03
   7101.00  6.0426761E-03
   7101.33  6.2422495E-03
   7101.67  6.4562725E-03
   7102.00  6.6863683E-03
   7102.33  6.9370421E-03
   7102.67  7.2086526E-03
   7103.00  7.5038856E-03
   7103.33  7.8299067E-03
   7103.67  8.1878610E-03
   7104.00  8.5824900E-03
   7104.33  9.0260001E-03
   7104.67  9.5214598E-03
   7105.00  1.0077949E-02
   7105.33  1.0718165E-02
   7105.67  1.1450237E-02
   7106.00  1.2293502E-02
   7106.33  1.3295329E-02
   7106.67  1.4478827E-02
   7107.00  1.5891541E-02
   7107.33  1.7649514E-02
   7107.67  1.9828663E-02
   7108.00  2.2572809E-02
   7108.33  2.6241883E-02
   7108.67  3.1155864E-02
   7109.00  3.7912941E-02
   7109.33  4.8133306E-02
   7109.67  6.3849144E-02
   7110.00  8.9096515E-02
   7110.33  1.3563402E-01
   7110.67  2.1445899E-01
   7111.00  3.1558296E-01
   7111.33  3.5909510E-01
   7111.67  3.3790093E-01
   7112.00  2.9960045E-01
   7112.33  2.6011279E-01
   7112.67  2.1484079E-01
   7113.00  1.6916869E-01
   7113.33  1.3044505E-01
   7113.67  1.0186398E-01
   7114.00  8.3455174E-02
   7114.33  7.3643813E-02
   7114.67  6.8564512E-02
   7115.00  6.4215675E-02
   7115.33  5.8062687E-02
   7115.67  5.3374888E-02
   7116.00  5.0898681E-02
   7116.33  4.8570224E-02
   7116.67  4.5376727E-02
   7117.00  4.2302004E-02
   7117.33  4.0462713E-02
   7117.67  3.9852890E-02
   7118.00  4.0326062E-02
   7118.33  4.1827032E-02
   7118.67  4.4133460E-02
   7119.00  4.7190608E-02
   7119.33  5.1067254E-02
   7119.67  5.5822955E-02
   7120.00  6.1868318E-02
   7120.33  7.0216887E-02
   7120.67  8.1560827E-02
   7121.00  9.6690771E-02
   7121.33  1.1516116E-01
   7121.67  1.3081193E-01
   7122.00  1.3735688E-01
   7122.33  1.3457925E-01
   7122.67  1.2975422E-01
   7123.00  1.2684201E-01
   7123.33  1.2878749E-01
   7123.67  1.3597146E-01
   7124.00  1.4862004E-01
   7124.33  1.6761971E-01
   7124.67  1.9266268E-01
   7125.00  2.2423089E-01
   7125.33  2.6309409E-01
   7125.67  3.0558786E-01
   7126.00  3.4531587E-01
   7126.33  3.7219080E-01
   7126.67  3.8593926E-01
   7127.00  3.8960893E-01
   7127.33  3.8481276E-01
   7127.67  3.7645971E-01
   7128.00  3.7002105E-01
   7128.33  3.7084280E-01
   7128.67  3.7973811E-01
   7129.00  3.9679707E-01
   7129.33  4.2226417E-01
   7129.67  4.5427462E-01
   7130.00  4.9217758E-01
   7130.33  5.3625542E-01
   7130.67  5.8601596E-01
   7131.00  6.4219579E-01
   7131.33  7.0651825E-01
   7131.67  7.7540978E-01
   7132.00  8.3832478E-01
   7132.33  8.7025229E-01
   7132.67  8.6772649E-01
   7133.00  8.4894844E-01
   7133.33  8.3898793E-01
   7133.67  8.4646829E-01
   7134.00  8.7246837E-01
   7134.33  9.2009848E-01
   7134.67  9.8927082E-01
   7135.00  1.0811927E+00
   7135.33  1.1891296E+00
   7135.67  1.2781127E+00
   7136.00  1.3038465E+00
   7136.33  1.2347995E+00
   7136.67  1.1191741E+00
   7137.00  9.9913003E-01
   7137.33  9.0100507E-01
   7137.67  8.2511191E-01
   7138.00  7.6778736E-01
   7138.33  7.2586751E-01
   7138.67  6.9386429E-01
   7139.00  6.6953188E-01
   7139.33  6.5186685E-01
   7139.67  6.3903961E-01
   7140.00  6.3047187E-01
   7140.33  6.2624599E-01
   7140.67  6.2567288E-01
   7141.00  6.2866451E-01
   7141.33  6.3558374E-01
   7141.67  6.4586564E-01
   7142.00  6.5927599E-01
   7142.33  6.7559647E-01
   7142.67  6.9355854E-01
   7143.00  7.1201203E-01
   7143.33  7.2913169E-01
   7143.67  7.4318648E-01
   7144.00  7.5266654E-01
   7144.33  7.5561187E-01
   7144.67  7.5239110E-01
   7145.00  7.4345135E-01
   7145.33  7.2942161E-01
   7145.67  7.1241783E-01
   7146.00  6.9376751E-01
   7146.33  6.7473974E-01
   7146.67  6.5633128E-01
   7147.00  6.3907484E-01
   7147.33  6.2350463E-01
   7147.67  6.0955221E-01
   7148.00  5.9717860E-01
   7148.33  5.8642015E-01
   7148.67  5.7689387E-01
   7149.00  5.6839090E-01
   7149.33  5.6074579E-01
   7149.67  5.5359213E-01
   7150.00  5.4669153E-01
   7150.33  5.3976724E-01
   7150.67  5.3256451E-01
   7151.00  5.2488613E-01
   7151.33  5.1644514E-01
   7151.67  5.0715184E-01
   7152.00  4.9688853E-01
   7152.33  4.8543882E-01
   7152.67  4.7290157E-01
   7153.00  4.5929152E-01
   7153.33  4.4456240E-01
   7153.67  4.2898824E-01
   7154.00  4.1275992E-01
   7154.33  3.9613583E-01
   7154.67  3.7950263E-01
   7155.00  3.6315162E-01
   7155.33  3.4748273E-01
   7155.67  3.3270638E-01
   7156.00  3.1902564E-01
   7156.33  3.0677460E-01
   7156.67  2.9590075E-01
   7157.00  2.8644365E-01
   7157.33  2.7857273E-01
   7157.67  2.7206060E-01
   7158.00  2.6683909E-01
   7158.33  2.6296075E-01
   7158.67  2.6017119E-01
   7159.00  2.5837984E-01
   7159.33  2.5759774E-01
   7159.67  2.5761835E-01
   7160.00  2.5836623E-01
   7160.33  2.5984328E-01
   7160.67  2.6190076E-01
   7161.00  2.6449112E-01
   7161.33  2.6763196E-01
   7161.67  2.7122926E-01
   7162.00  2.7526483E-01
   7162.33  2.7977888E-01
   7162.67  2.8470263E-01
   7163.00  2.9000900E-01
   7163.33  2.9567485E-01
   7163.67  3.0154920E-01
   7164.00  3.0749489E-01
   7164.33  3.1330076E-01
   7164.67  3.1877885E-01
   7165.00  3.2377847E-01
   7165.33  3.2810839E-01
   7165.67  3.3180539E-01
   7166.00  3.3489903E-01
   7166.33  3.3741541E-01
   7166.67  3.3954475E-01
   7167.00  3.4140537E-01
   7167.33  3.4311433E-01
   7167.67  3.4480759E-01
   7168.00  3.4657159E-01
   7168.33  3.4850704E-01
   7168.67  3.5065599E-01
   7169.00  3.5305522E-01
   7169.33  3.5576392E-01
   7169.67  3.5875209E-01
   7170.00  3.6200735E-01
   7170.33  3.6552502E-01
   7170.67  3.6921705E-01
   7171.00  3.7300565E-01
   7171.33  3.7674261E-01
   7171.67  3.8019483E-01
   7172.00  3.8306463E-01
