    FDMNES
    energy     <xanes>
   7097.00  4.0388648E-03
   7097.33  4.1178722E-03
   7097.67  4.1998355E-03
   7098.00  4.2849309E-03
   7098.33  4.3738034E-03
   7098.67  4.4662837E-03
   7099.00  4.5626084E-03
   7099.33  4.6636023E-03
   7099.67  4.7690896E-03
   7100.00  4.8793981E-03
   7100.33  4.9956127E-03
   7100.67  5.1175635E-03
   7101.00  5.2457210E-03
   7101.33  5.3815624E-03
   7101.67  5.5249518E-03
   7102.00  5.6765942E-03
   7102.33  5.8385888E-03
   7102.67  6.0108976E-03
   7103.00  6.1946329E-03
   7103.33  6.3929397E-03
   7103.67  6.6060282E-03
   7104.00  6.8357677E-03
   7104.33  7.0871956E-03
   7104.67  7.3611406E-03
   7105.00  7.6610052E-03
   7105.33  7.9955788E-03
   7105.67  8.3673065E-03
   7106.00  8.7830542E-03
   7106.33  9.2599912E-03
   7106.67  9.8052255E-03
   7107.00  1.0434680E-02
   7107.33  1.1187546E-02
   7107.67  1.2086735E-02
   7108.00  1.3177338E-02
   7108.33  1.4571833E-02
   7108.67  1.6362476E-02
   7109.00  1.8723230E-02
   7109.33  2.2118945E-02
   7109.67  2.7100610E-02
   7110.00  3.4755751E-02
   7110.33  4.8220208E-02
   7110.67  7.0494179E-02
   7111.00  1.0018518E-01
   7111.33  1.2127784E-01
   7111.67  1.2804117E-01
   7112.00  1.3423303E-01
   7112.33  1.4985463E-01
   7112.67  1.5628286E-01
   7113.00  1.3897113E-01
   7113.33  1.1555788E-01
   7113.67  9.8438644E-02
   7114.00  8.2561638E-02
   7114.33  6.7219753E-02
   7114.67  5.5289233E-02
   7115.00  4.6912370E-02
   7115.33  4.0727838E-02
   7115.67  3.6413126E-02
   7116.00  3.3908781E-02
   7116.33  3.2896435E-02
   7116.67  3.2806419E-02
   7117.00  3.3369100E-02
   7117.33  3.4311584E-02
   7117.67  3.5306023E-02
   7118.00  3.6251318E-02
   7118.33  3.7273378E-02
   7118.67  3.8605290E-02
   7119.00  4.0438315E-02
   7119.33  4.3034227E-02
   7119.67  4.6477458E-02
   7120.00  5.0945663E-02
   7120.33  5.6886996E-02
   7120.67  6.4539986E-02
   7121.00  7.4369321E-02
   7121.33  8.7435655E-02
   7121.67  1.0419048E-01
   7122.00  1.2521178E-01
   7122.33  1.5080658E-01
   7122.67  1.7805685E-01
   7123.00  2.0332311E-01
   7123.33  2.2399995E-01
   7123.67  2.4307616E-01
   7124.00  2.6384613E-01
   7124.33  2.8932295E-01
   7124.67  3.1961992E-01
   7125.00  3.5548216E-01
   7125.33  4.0047178E-01
   7125.67  4.5628138E-01
   7126.00  5.2323220E-01
   7126.33  5.9779665E-01
   7126.67  6.6802119E-01
   7127.00  7.1979750E-01
   7127.33  7.3850826E-01
   7127.67  7.3905603E-01
   7128.00  7.3879821E-01
   7128.33  7.4444623E-01
   7128.67  7.5206642E-01
   7129.00  7.5912775E-01
   7129.33  7.6458600E-01
   7129.67  7.6919708E-01
   7130.00  7.7280371E-01
   7130.33  7.7086576E-01
   7130.67  7.5856054E-01
   7131.00  7.3773780E-01
   7131.33  7.1894183E-01
   7131.67  7.1053774E-01
   7132.00  7.1466305E-01
   7132.33  7.3099036E-01
   7132.67  7.5443957E-01
   7133.00  7.8129505E-01
   7133.33  8.0730435E-01
   7133.67  8.2950413E-01
   7134.00  8.4695630E-01
   7134.33  8.5989303E-01
   7134.67  8.6926217E-01
   7135.00  8.7370150E-01
   7135.33  8.7002895E-01
   7135.67  8.5853773E-01
   7136.00  8.4042940E-01
   7136.33  8.1746755E-01
   7136.67  7.9237489E-01
   7137.00  7.6655026E-01
   7137.33  7.4112329E-01
   7137.67  7.1671501E-01
   7138.00  6.9368608E-01
   7138.33  6.7251815E-01
   7138.67  6.5318372E-01
   7139.00  6.3578866E-01
   7139.33  6.2066560E-01
   7139.67  6.0759583E-01
   7140.00  5.9656146E-01
   7140.33  5.8770893E-01
   7140.67  5.8060169E-01
   7141.00  5.7499089E-01
   7141.33  5.7065329E-01
   7141.67  5.6705854E-01
   7142.00  5.6391012E-01
   7142.33  5.6099220E-01
   7142.67  5.5818798E-01
   7143.00  5.5553390E-01
   7143.33  5.5317733E-01
   7143.67  5.5122095E-01
   7144.00  5.4978278E-01
   7144.33  5.4909146E-01
   7144.67  5.4922674E-01
   7145.00  5.5033641E-01
   7145.33  5.5270785E-01
   7145.67  5.5626568E-01
   7146.00  5.6095781E-01
   7146.33  5.6669428E-01
   7146.67  5.7303653E-01
   7147.00  5.7965096E-01
   7147.33  5.8609881E-01
   7147.67  5.9197774E-01
   7148.00  5.9693785E-01
   7148.33  6.0040678E-01
   7148.67  6.0216613E-01
   7149.00  6.0193886E-01
   7149.33  5.9916412E-01
   7149.67  5.9393649E-01
   7150.00  5.8623887E-01
   7150.33  5.7598594E-01
   7150.67  5.6384621E-01
   7151.00  5.5020995E-01
   7151.33  5.3535817E-01
   7151.67  5.1973921E-01
   7152.00  5.0353429E-01
   7152.33  4.8685410E-01
   7152.67  4.6994325E-01
   7153.00  4.5301638E-01
   7153.33  4.3639012E-01
   7153.67  4.2030090E-01
   7154.00  4.0493842E-01
   7154.33  3.9057488E-01
   7154.67  3.7720672E-01
   7155.00  3.6489333E-01
   7155.33  3.5381449E-01
   7155.67  3.4385681E-01
   7156.00  3.3502989E-01
   7156.33  3.2747320E-01
   7156.67  3.2102905E-01
   7157.00  3.1566829E-01
   7157.33  3.1145872E-01
   7157.67  3.0817736E-01
   7158.00  3.0571420E-01
   7158.33  3.0399563E-01
   7158.67  3.0276541E-01
   7159.00  3.0187645E-01
   7159.33  3.0120535E-01
   7159.67  3.0062655E-01
   7160.00  3.0010148E-01
   7160.33  2.9965440E-01
   7160.67  2.9935033E-01
   7161.00  2.9928502E-01
   7161.33  2.9963007E-01
   7161.67  3.0046983E-01
   7162.00  3.0191452E-01
   7162.33  3.0415774E-01
   7162.67  3.0717069E-01
   7163.00  3.1096082E-01
   7163.33  3.1556389E-01
   7163.67  3.2075489E-01
   7164.00  3.2635960E-01
   7164.33  3.3214703E-01
   7164.67  3.3782200E-01
   7165.00  3.4316091E-01
   7165.33  3.4788877E-01
   7165.67  3.5195224E-01
   7166.00  3.5532337E-01
   7166.33  3.5796969E-01
   7166.67  3.6008359E-01
   7167.00  3.6178844E-01
   7167.33  3.6320243E-01
   7167.67  3.6449659E-01
   7168.00  3.6577197E-01
   7168.33  3.6713154E-01
   7168.67  3.6863359E-01
   7169.00  3.7031676E-01
   7169.33  3.7223190E-01
   7169.67  3.7435916E-01
   7170.00  3.7669013E-01
   7170.33  3.7922310E-01
   7170.67  3.8189476E-01
   7171.00  3.8465170E-01
   7171.33  3.8739230E-01
   7171.67  3.8994337E-01
   7172.00  3.9207812E-01
