    FDMNES
    energy     <xanes>
   7097.00  3.9266782E-03
   7097.33  4.0041266E-03
   7097.67  4.0845737E-03
   7098.00  4.1682060E-03
   7098.33  4.2556913E-03
   7098.67  4.3468678E-03
   7099.00  4.4419883E-03
   7099.33  4.5419147E-03
   7099.67  4.6464813E-03
   7100.00  4.7560409E-03
   7100.33  4.8717383E-03
   7100.67  4.9934176E-03
   7101.00  5.1215892E-03
   7101.33  5.2578267E-03
   7101.67  5.4020157E-03
   7102.00  5.5549253E-03
   7102.33  5.7188117E-03
   7102.67  5.8936726E-03
   7103.00  6.0807265E-03
   7103.33  6.2833797E-03
   7103.67  6.5019065E-03
   7104.00  6.7383591E-03
   7104.33  6.9982240E-03
   7104.67  7.2824555E-03
   7105.00  7.5947881E-03
   7105.33  7.9448208E-03
   7105.67  8.3352697E-03
   7106.00  8.7736481E-03
   7106.33  9.2786948E-03
   7106.67  9.8581675E-03
   7107.00  1.0529394E-02
   7107.33  1.1334958E-02
   7107.67  1.2299574E-02
   7108.00  1.3471900E-02
   7108.33  1.4973123E-02
   7108.67  1.6901659E-02
   7109.00  1.9443026E-02
   7109.33  2.3091504E-02
   7109.67  2.8426923E-02
   7110.00  3.6591890E-02
   7110.33  5.0884115E-02
   7110.67  7.4580553E-02
   7111.00  1.0680940E-01
   7111.33  1.3262476E-01
   7111.67  1.4719648E-01
   7112.00  1.5501421E-01
   7112.33  1.5299115E-01
   7112.67  1.3859140E-01
   7113.00  1.2133416E-01
   7113.33  1.1645329E-01
   7113.67  1.2549451E-01
   7114.00  1.3904497E-01
   7114.33  1.3945628E-01
   7114.67  1.3095125E-01
   7115.00  1.1674353E-01
   7115.33  9.2658461E-02
   7115.67  7.0399436E-02
   7116.00  5.5956343E-02
   7116.33  4.8311231E-02
   7116.67  4.3868400E-02
   7117.00  4.1139459E-02
   7117.33  3.9362462E-02
   7117.67  3.8079880E-02
   7118.00  3.7183577E-02
   7118.33  3.6707910E-02
   7118.67  3.6646358E-02
   7119.00  3.7042919E-02
   7119.33  3.8014631E-02
   7119.67  3.9558562E-02
   7120.00  4.1745942E-02
   7120.33  4.4789023E-02
   7120.67  4.8743932E-02
   7121.00  5.3762338E-02
   7121.33  6.0199583E-02
   7121.67  6.8043949E-02
   7122.00  7.7234713E-02
   7122.33  8.7461429E-02
   7122.67  9.8360448E-02
   7123.00  1.1058023E-01
   7123.33  1.2518866E-01
   7123.67  1.4150665E-01
   7124.00  1.5897051E-01
   7124.33  1.7839406E-01
   7124.67  2.0087524E-01
   7125.00  2.2699757E-01
   7125.33  2.5736144E-01
   7125.67  2.9077823E-01
   7126.00  3.2565119E-01
   7126.33  3.5942036E-01
   7126.67  3.8942687E-01
   7127.00  4.1280087E-01
   7127.33  4.2561254E-01
   7127.67  4.2942072E-01
   7128.00  4.2812323E-01
   7128.33  4.2862604E-01
   7128.67  4.3553622E-01
   7129.00  4.4975644E-01
   7129.33  4.7159074E-01
   7129.67  5.0019289E-01
   7130.00  5.3615251E-01
   7130.33  5.8074600E-01
   7130.67  6.3159860E-01
   7131.00  6.8547574E-01
   7131.33  7.3709283E-01
   7131.67  7.8313376E-01
   7132.00  8.2293869E-01
   7132.33  8.5647988E-01
   7132.67  8.8452706E-01
   7133.00  9.0597792E-01
   7133.33  9.1802793E-01
   7133.67  9.2146728E-01
   7134.00  9.1840130E-01
   7134.33  9.1274582E-01
   7134.67  9.0814624E-01
   7135.00  9.0501705E-01
   7135.33  9.0086279E-01
   7135.67  8.9300741E-01
   7136.00  8.8091254E-01
   7136.33  8.6569185E-01
   7136.67  8.4965478E-01
   7137.00  8.3393621E-01
   7137.33  8.1914462E-01
   7137.67  8.0507093E-01
   7138.00  7.9139359E-01
   7138.33  7.7771596E-01
   7138.67  7.6377751E-01
   7139.00  7.4951157E-01
   7139.33  7.3496181E-01
   7139.67  7.2032897E-01
   7140.00  7.0578373E-01
   7140.33  6.9155977E-01
   7140.67  6.7781621E-01
   7141.00  6.6472663E-01
   7141.33  6.5262094E-01
   7141.67  6.4163651E-01
   7142.00  6.3200116E-01
   7142.33  6.2417259E-01
   7142.67  6.1816926E-01
   7143.00  6.1414405E-01
   7143.33  6.1246716E-01
   7143.67  6.1283792E-01
   7144.00  6.1506102E-01
   7144.33  6.1889113E-01
   7144.67  6.2355894E-01
   7145.00  6.2851158E-01
   7145.33  6.3316127E-01
   7145.67  6.3720400E-01
   7146.00  6.4055166E-01
   7146.33  6.4319923E-01
   7146.67  6.4537350E-01
   7147.00  6.4718672E-01
   7147.33  6.4868711E-01
   7147.67  6.4992092E-01
   7148.00  6.5085988E-01
   7148.33  6.5143967E-01
   7148.67  6.5170055E-01
   7149.00  6.5164430E-01
   7149.33  6.5119309E-01
   7149.67  6.5030732E-01
   7150.00  6.4887959E-01
   7150.33  6.4666687E-01
   7150.67  6.4358899E-01
   7151.00  6.3952136E-01
   7151.33  6.3423514E-01
   7151.67  6.2785314E-01
   7152.00  6.2043279E-01
   7152.33  6.1199724E-01
   7152.67  6.0284741E-01
   7153.00  5.9316319E-01
   7153.33  5.8310337E-01
   7153.67  5.7287059E-01
   7154.00  5.6255871E-01
   7154.33  5.5222082E-01
   7154.67  5.4186484E-01
   7155.00  5.3146293E-01
   7155.33  5.2094024E-01
   7155.67  5.1022503E-01
   7156.00  4.9923138E-01
   7156.33  4.8780378E-01
   7156.67  4.7588663E-01
   7157.00  4.6340810E-01
   7157.33  4.5025278E-01
   7157.67  4.3652696E-01
   7158.00  4.2232524E-01
   7158.33  4.0779675E-01
   7158.67  3.9322716E-01
   7159.00  3.7885519E-01
   7159.33  3.6500178E-01
   7159.67  3.5182850E-01
   7160.00  3.3948178E-01
   7160.33  3.2820555E-01
   7160.67  3.1796689E-01
   7161.00  3.0881809E-01
   7161.33  3.0094502E-01
   7161.67  2.9423662E-01
   7162.00  2.8870721E-01
   7162.33  2.8450413E-01
   7162.67  2.8146770E-01
   7163.00  2.7957162E-01
   7163.33  2.7889740E-01
   7163.67  2.7923318E-01
   7164.00  2.8049422E-01
   7164.33  2.8266025E-01
   7164.67  2.8549095E-01
   7165.00  2.8885674E-01
   7165.33  2.9265102E-01
   7165.67  2.9667790E-01
   7166.00  3.0082240E-01
   7166.33  3.0497298E-01
   7166.67  3.0904547E-01
   7167.00  3.1299364E-01
   7167.33  3.1677542E-01
   7167.67  3.2041469E-01
   7168.00  3.2393381E-01
   7168.33  3.2736215E-01
   7168.67  3.3075714E-01
   7169.00  3.3416070E-01
   7169.33  3.3762454E-01
   7169.67  3.4117711E-01
   7170.00  3.4483705E-01
   7170.33  3.4862272E-01
   7170.67  3.5249860E-01
   7171.00  3.5641567E-01
   7171.33  3.6024883E-01
   7171.67  3.6378302E-01
   7172.00  3.6671955E-01
