    FDMNES
    energy     <xanes>
   7097.00  4.7535018E-03
   7097.33  4.8561886E-03
   7097.67  4.9632129E-03
   7098.00  5.0748546E-03
   7098.33  5.1920948E-03
   7098.67  5.3147103E-03
   7099.00  5.4430787E-03
   7099.33  5.5784690E-03
   7099.67  5.7206485E-03
   7100.00  5.8701406E-03
   7100.33  6.0286284E-03
   7100.67  6.1958863E-03
   7101.00  6.3726621E-03
   7101.33  6.5612563E-03
   7101.67  6.7614882E-03
   7102.00  6.9744652E-03
   7102.33  7.2034482E-03
   7102.67  7.4483853E-03
   7103.00  7.7109905E-03
   7103.33  7.9960965E-03
   7103.67  8.3039718E-03
   7104.00  8.6374171E-03
   7104.33  9.0040065E-03
   7104.67  9.4047882E-03
   7105.00  9.8446650E-03
   7105.33  1.0336396E-02
   7105.67  1.0883002E-02
   7106.00  1.1493878E-02
   7106.33  1.2192712E-02
   7106.67  1.2987968E-02
   7107.00  1.3900063E-02
   7107.33  1.4979459E-02
   7107.67  1.6252122E-02
   7108.00  1.7771447E-02
   7108.33  1.9670090E-02
   7108.67  2.2046195E-02
   7109.00  2.5087666E-02
   7109.33  2.9289455E-02
   7109.67  3.5197219E-02
   7110.00  4.3885106E-02
   7110.33  5.8436199E-02
   7110.67  8.2017413E-02
   7111.00  1.1478485E-01
   7111.33  1.4397675E-01
   7111.67  1.5749633E-01
   7112.00  1.6353781E-01
   7112.33  1.8735546E-01
   7112.67  2.3597279E-01
   7113.00  2.9890409E-01
   7113.33  3.3783746E-01
   7113.67  3.5038855E-01
   7114.00  3.3097480E-01
   7114.33  2.7209475E-01
   7114.67  2.0945881E-01
   7115.00  1.6905071E-01
   7115.33  1.5872075E-01
   7115.67  1.6646292E-01
   7116.00  1.7676757E-01
   7116.33  1.7378269E-01
   7116.67  1.6627838E-01
   7117.00  1.6191242E-01
   7117.33  1.6379341E-01
   7117.67  1.7071647E-01
   7118.00  1.8019794E-01
   7118.33  1.8656901E-01
   7118.67  1.8607910E-01
   7119.00  1.7929583E-01
   7119.33  1.7095602E-01
   7119.67  1.6554947E-01
   7120.00  1.6346508E-01
   7120.33  1.6269945E-01
   7120.67  1.6196035E-01
   7121.00  1.6164251E-01
   7121.33  1.6133735E-01
   7121.67  1.5945546E-01
   7122.00  1.5557318E-01
   7122.33  1.5152419E-01
   7122.67  1.5024857E-01
   7123.00  1.5377725E-01
   7123.33  1.6430768E-01
   7123.67  1.8138934E-01
   7124.00  2.0342050E-01
   7124.33  2.2421447E-01
   7124.67  2.3681732E-01
   7125.00  2.4224263E-01
   7125.33  2.4722306E-01
   7125.67  2.5386941E-01
   7126.00  2.6091671E-01
   7126.33  2.6770132E-01
   7126.67  2.7438367E-01
   7127.00  2.8103517E-01
   7127.33  2.8799921E-01
   7127.67  2.9586040E-01
   7128.00  3.0520864E-01
   7128.33  3.1684743E-01
   7128.67  3.3088473E-01
   7129.00  3.4756499E-01
   7129.33  3.6769547E-01
   7129.67  3.9176205E-01
   7130.00  4.2085494E-01
   7130.33  4.5669818E-01
   7130.67  4.9864095E-01
   7131.00  5.4617345E-01
   7131.33  5.9874185E-01
   7131.67  6.5406481E-01
   7132.00  7.1026030E-01
   7132.33  7.6525443E-01
   7132.67  8.1849352E-01
   7133.00  8.7044271E-01
   7133.33  9.2157757E-01
   7133.67  9.7110888E-01
   7134.00  1.0165893E+00
   7134.33  1.0525206E+00
   7134.67  1.0754055E+00
   7135.00  1.0832552E+00
   7135.33  1.0757901E+00
   7135.67  1.0585680E+00
   7136.00  1.0345738E+00
   7136.33  1.0053494E+00
   7136.67  9.7287846E-01
   7137.00  9.3838327E-01
   7137.33  9.0334778E-01
   7137.67  8.6926794E-01
   7138.00  8.3711991E-01
   7138.33  8.0800190E-01
   7138.67  7.8194609E-01
   7139.00  7.5902802E-01
   7139.33  7.3957449E-01
   7139.67  7.2307730E-01
   7140.00  7.0941497E-01
   7140.33  6.9877094E-01
   7140.67  6.9063047E-01
   7141.00  6.8479239E-01
   7141.33  6.8117939E-01
   7141.67  6.7909888E-01
   7142.00  6.7806749E-01
   7142.33  6.7746603E-01
   7142.67  6.7650524E-01
   7143.00  6.7452942E-01
   7143.33  6.7062708E-01
   7143.67  6.6449675E-01
   7144.00  6.5590112E-01
   7144.33  6.4454564E-01
   7144.67  6.3106631E-01
   7145.00  6.1593971E-01
   7145.33  5.9966624E-01
   7145.67  5.8298531E-01
   7146.00  5.6638310E-01
   7146.33  5.5041075E-01
   7146.67  5.3536380E-01
   7147.00  5.2146229E-01
   7147.33  5.0902512E-01
   7147.67  4.9795293E-01
   7148.00  4.8824536E-01
   7148.33  4.8001471E-01
   7148.67  4.7296814E-01
   7149.00  4.6695391E-01
   7149.33  4.6189219E-01
   7149.67  4.5750639E-01
   7150.00  4.5368068E-01
   7150.33  4.5038528E-01
   7150.67  4.4752178E-01
   7151.00  4.4508036E-01
   7151.33  4.4311451E-01
   7151.67  4.4158111E-01
   7152.00  4.4048984E-01
   7152.33  4.3990174E-01
   7152.67  4.3975334E-01
   7153.00  4.4002321E-01
   7153.33  4.4071371E-01
   7153.67  4.4171536E-01
   7154.00  4.4296319E-01
   7154.33  4.4439590E-01
   7154.67  4.4591293E-01
   7155.00  4.4745377E-01
   7155.33  4.4896106E-01
   7155.67  4.5040846E-01
   7156.00  4.5179031E-01
   7156.33  4.5311559E-01
   7156.67  4.5442488E-01
   7157.00  4.5575808E-01
   7157.33  4.5717764E-01
   7157.67  4.5872756E-01
   7158.00  4.6045065E-01
   7158.33  4.6241693E-01
   7158.67  4.6463227E-01
   7159.00  4.6711527E-01
   7159.33  4.6991023E-01
   7159.67  4.7297908E-01
   7160.00  4.7630853E-01
   7160.33  4.7989908E-01
   7160.67  4.8367913E-01
   7161.00  4.8760273E-01
   7161.33  4.9161835E-01
   7161.67  4.9565076E-01
   7162.00  4.9964490E-01
   7162.33  5.0351757E-01
   7162.67  5.0720885E-01
   7163.00  5.1065807E-01
   7163.33  5.1376380E-01
   7163.67  5.1651351E-01
   7164.00  5.1887170E-01
   7164.33  5.2075400E-01
   7164.67  5.2219481E-01
   7165.00  5.2318841E-01
   7165.33  5.2368292E-01
   7165.67  5.2374790E-01
   7166.00  5.2340316E-01
   7166.33  5.2263180E-01
   7166.67  5.2151760E-01
   7167.00  5.2009476E-01
   7167.33  5.1837430E-01
   7167.67  5.1643573E-01
   7168.00  5.1431824E-01
   7168.33  5.1204744E-01
   7168.67  5.0968100E-01
   7169.00  5.0725323E-01
   7169.33  5.0479328E-01
   7169.67  5.0233026E-01
   7170.00  4.9988317E-01
   7170.33  4.9747815E-01
   7170.67  4.9513505E-01
   7171.00  4.9288207E-01
   7171.33  4.9078811E-01
   7171.67  4.8892601E-01
   7172.00  4.8741320E-01
