    FDMNES
    energy     <xanes>
   7097.00  4.5249430E-03
   7097.33  4.6213795E-03
   7097.67  4.7217976E-03
   7098.00  4.8264531E-03
   7098.33  4.9362462E-03
   7098.67  5.0509723E-03
   7099.00  5.1709799E-03
   7099.33  5.2974375E-03
   7099.67  5.4301369E-03
   7100.00  5.5695663E-03
   7100.33  5.7172873E-03
   7100.67  5.8731081E-03
   7101.00  6.0377372E-03
   7101.33  6.2133353E-03
   7101.67  6.3997726E-03
   7102.00  6.5981221E-03
   7102.33  6.8115030E-03
   7102.67  7.0399505E-03
   7103.00  7.2851751E-03
   7103.33  7.5519232E-03
   7103.67  7.8406362E-03
   7104.00  8.1542189E-03
   7104.33  8.5003883E-03
   7104.67  8.8805911E-03
   7105.00  9.3001692E-03
   7105.33  9.7727881E-03
   7105.67  1.0302522E-02
   7106.00  1.0900270E-02
   7106.33  1.1593128E-02
   7106.67  1.2392791E-02
   7107.00  1.3324854E-02
   7107.33  1.4452149E-02
   7107.67  1.5812418E-02
   7108.00  1.7479175E-02
   7108.33  1.9635815E-02
   7108.67  2.2435444E-02
   7109.00  2.6165820E-02
   7109.33  3.1597040E-02
   7109.67  3.9650344E-02
   7110.00  5.2143702E-02
   7110.33  7.4338216E-02
   7110.67  1.1144529E-01
   7111.00  1.6192660E-01
   7111.33  2.0075295E-01
   7111.67  2.1449191E-01
   7112.00  2.1349866E-01
   7112.33  2.0012521E-01
   7112.67  1.7742277E-01
   7113.00  1.5254119E-01
   7113.33  1.3197526E-01
   7113.67  1.1707735E-01
   7114.00  1.0549761E-01
   7114.33  9.3760131E-02
   7114.67  8.4519495E-02
   7115.00  7.9952316E-02
   7115.33  7.8397308E-02
   7115.67  7.6007712E-02
   7116.00  7.2525342E-02
   7116.33  7.0541571E-02
   7116.67  7.1041968E-02
   7117.00  7.3940050E-02
   7117.33  7.9199872E-02
   7117.67  8.6185186E-02
   7118.00  9.4513529E-02
   7118.33  1.0436439E-01
   7118.67  1.1609251E-01
   7119.00  1.2997083E-01
   7119.33  1.4607558E-01
   7119.67  1.6360519E-01
   7120.00  1.8201776E-01
   7120.33  2.0087681E-01
   7120.67  2.1982444E-01
   7121.00  2.3871574E-01
   7121.33  2.5754410E-01
   7121.67  2.7650143E-01
   7122.00  2.9576171E-01
   7122.33  3.1532605E-01
   7122.67  3.3483849E-01
   7123.00  3.5398008E-01
   7123.33  3.7258906E-01
   7123.67  3.9113398E-01
   7124.00  4.1026007E-01
   7124.33  4.3048564E-01
   7124.67  4.5082380E-01
   7125.00  4.6951368E-01
   7125.33  4.8412675E-01
   7125.67  4.9436369E-01
   7126.00  5.0051873E-01
   7126.33  5.0329471E-01
   7126.67  5.0486885E-01
   7127.00  5.0701338E-01
   7127.33  5.1139154E-01
   7127.67  5.1795705E-01
   7128.00  5.2617025E-01
   7128.33  5.3540138E-01
   7128.67  5.4505269E-01
   7129.00  5.5492062E-01
   7129.33  5.6502481E-01
   7129.67  5.7561044E-01
   7130.00  5.8699433E-01
   7130.33  5.9946099E-01
   7130.67  6.1280976E-01
   7131.00  6.2706434E-01
   7131.33  6.4294803E-01
   7131.67  6.6127968E-01
   7132.00  6.8269881E-01
   7132.33  7.0722835E-01
   7132.67  7.3288051E-01
   7133.00  7.5775290E-01
   7133.33  7.7978464E-01
   7133.67  7.9812347E-01
   7134.00  8.1145911E-01
   7134.33  8.1711269E-01
   7134.67  8.1560273E-01
   7135.00  8.0839369E-01
   7135.33  7.9747664E-01
   7135.67  7.8516038E-01
   7136.00  7.7241014E-01
   7136.33  7.5977018E-01
   7136.67  7.4739437E-01
   7137.00  7.3529212E-01
   7137.33  7.2344582E-01
   7137.67  7.1176967E-01
   7138.00  7.0022490E-01
   7138.33  6.8879897E-01
   7138.67  6.7747612E-01
   7139.00  6.6627226E-01
   7139.33  6.5524256E-01
   7139.67  6.4441890E-01
   7140.00  6.3385450E-01
   7140.33  6.2365810E-01
   7140.67  6.1385971E-01
   7141.00  6.0452076E-01
   7141.33  5.9577706E-01
   7141.67  5.8762901E-01
   7142.00  5.8012318E-01
   7142.33  5.7336039E-01
   7142.67  5.6724931E-01
   7143.00  5.6178224E-01
   7143.33  5.5703108E-01
   7143.67  5.5290464E-01
   7144.00  5.4938548E-01
   7144.33  5.4651097E-01
   7144.67  5.4415793E-01
   7145.00  5.4227009E-01
   7145.33  5.4082397E-01
   7145.67  5.3970266E-01
   7146.00  5.3886349E-01
   7146.33  5.3829992E-01
   7146.67  5.3794375E-01
   7147.00  5.3776281E-01
   7147.33  5.3773298E-01
   7147.67  5.3778771E-01
   7148.00  5.3787514E-01
   7148.33  5.3792026E-01
   7148.67  5.3784951E-01
   7149.00  5.3759194E-01
   7149.33  5.3703150E-01
   7149.67  5.3612772E-01
   7150.00  5.3483019E-01
   7150.33  5.3304429E-01
   7150.67  5.3080087E-01
   7151.00  5.2809396E-01
   7151.33  5.2487756E-01
   7151.67  5.2123276E-01
   7152.00  5.1718916E-01
   7152.33  5.1274521E-01
   7152.67  5.0799570E-01
   7153.00  5.0298925E-01
   7153.33  4.9776099E-01
   7153.67  4.9239596E-01
   7154.00  4.8694427E-01
   7154.33  4.8145418E-01
   7154.67  4.7597384E-01
   7155.00  4.7053481E-01
   7155.33  4.6517926E-01
   7155.67  4.5992363E-01
   7156.00  4.5477791E-01
   7156.33  4.4975797E-01
   7156.67  4.4484885E-01
   7157.00  4.4005051E-01
   7157.33  4.3537971E-01
   7157.67  4.3082982E-01
   7158.00  4.2641205E-01
   7158.33  4.2216309E-01
   7158.67  4.1808699E-01
   7159.00  4.1420663E-01
   7159.33  4.1057933E-01
   7159.67  4.0720831E-01
   7160.00  4.0412106E-01
   7160.33  4.0138529E-01
   7160.67  3.9898663E-01
   7161.00  3.9694530E-01
   7161.33  3.9532797E-01
   7161.67  3.9409767E-01
   7162.00  3.9325592E-01
   7162.33  3.9284561E-01
   7162.67  3.9280435E-01
   7163.00  3.9310845E-01
   7163.33  3.9375915E-01
   7163.67  3.9467801E-01
   7164.00  3.9582627E-01
   7164.33  3.9717373E-01
   7164.67  3.9863970E-01
   7165.00  4.0017132E-01
   7165.33  4.0170826E-01
   7165.67  4.0319399E-01
   7166.00  4.0458826E-01
   7166.33  4.0584108E-01
   7166.67  4.0694965E-01
   7167.00  4.0791084E-01
   7167.33  4.0871795E-01
   7167.67  4.0941238E-01
   7168.00  4.1002396E-01
   7168.33  4.1058872E-01
   7168.67  4.1115637E-01
   7169.00  4.1176497E-01
   7169.33  4.1246608E-01
   7169.67  4.1328471E-01
   7170.00  4.1424403E-01
   7170.33  4.1537897E-01
   7170.67  4.1666827E-01
   7171.00  4.1809126E-01
   7171.33  4.1959798E-01
   7171.67  4.2105797E-01
   7172.00  4.2230699E-01
