    FDMNES
    energy     <xanes>
   7097.00  4.4597609E-03
   7097.33  4.5442249E-03
   7097.67  4.6316648E-03
   7098.00  4.7222410E-03
   7098.33  4.8165743E-03
   7098.67  4.9144705E-03
   7099.00  5.0161386E-03
   7099.33  5.1223507E-03
   7099.67  5.2328978E-03
   7100.00  5.3480596E-03
   7100.33  5.4688192E-03
   7100.67  5.5949591E-03
   7101.00  5.7268655E-03
   7101.33  5.8658275E-03
   7101.67  6.0116344E-03
   7102.00  6.1648414E-03
   7102.33  6.3272023E-03
   7102.67  6.4985506E-03
   7103.00  6.6797242E-03
   7103.33  6.8732258E-03
   7103.67  7.0790218E-03
   7104.00  7.2984574E-03
   7104.33  7.5353325E-03
   7104.67  7.7899674E-03
   7105.00  8.0646991E-03
   7105.33  8.3657935E-03
   7105.67  8.6945159E-03
   7106.00  9.0553699E-03
   7106.33  9.4599106E-03
   7106.67  9.9121306E-03
   7107.00  1.0422016E-02
   7107.33  1.1014488E-02
   7107.67  1.1702656E-02
   7108.00  1.2513566E-02
   7108.33  1.3514869E-02
   7108.67  1.4758602E-02
   7109.00  1.6344169E-02
   7109.33  1.8535090E-02
   7109.67  2.1630225E-02
   7110.00  2.6218084E-02
   7110.33  3.4007567E-02
   7110.67  4.6933475E-02
   7111.00  6.5905381E-02
   7111.33  8.5050014E-02
   7111.67  9.1579576E-02
   7112.00  8.3916204E-02
   7112.33  8.0637036E-02
   7112.67  8.9734655E-02
   7113.00  1.1141768E-01
   7113.33  1.3120219E-01
   7113.67  1.1758499E-01
   7114.00  8.6325123E-02
   7114.33  6.4805849E-02
   7114.67  5.2447355E-02
   7115.00  4.5719157E-02
   7115.33  4.2453261E-02
   7115.67  4.1103450E-02
   7116.00  4.1189580E-02
   7116.33  4.2510157E-02
   7116.67  4.4756528E-02
   7117.00  4.7912860E-02
   7117.33  5.2243390E-02
   7117.67  5.7857002E-02
   7118.00  6.4906803E-02
   7118.33  7.3537400E-02
   7118.67  8.3575672E-02
   7119.00  9.5234003E-02
   7119.33  1.0865698E-01
   7119.67  1.2280709E-01
   7120.00  1.3674894E-01
   7120.33  1.5087026E-01
   7120.67  1.6766657E-01
   7121.00  1.8969923E-01
   7121.33  2.2050842E-01
   7121.67  2.6070317E-01
   7122.00  3.0877364E-01
   7122.33  3.5743298E-01
   7122.67  4.0086764E-01
   7123.00  4.4651234E-01
   7123.33  5.1376951E-01
   7123.67  5.9972910E-01
   7124.00  6.8112932E-01
   7124.33  7.2785832E-01
   7124.67  7.5202569E-01
   7125.00  7.7649220E-01
   7125.33  8.1008412E-01
   7125.67  8.3302878E-01
   7126.00  8.3427038E-01
   7126.33  8.2056007E-01
   7126.67  8.0579463E-01
   7127.00  7.9668693E-01
   7127.33  7.9843762E-01
   7127.67  8.0687654E-01
   7128.00  8.1563457E-01
   7128.33  8.1745292E-01
   7128.67  8.1066262E-01
   7129.00  7.9628686E-01
   7129.33  7.7700703E-01
   7129.67  7.5715275E-01
   7130.00  7.3887497E-01
   7130.33  7.2233698E-01
   7130.67  7.0636355E-01
   7131.00  6.9106184E-01
   7131.33  6.7725936E-01
   7131.67  6.6491661E-01
   7132.00  6.5372963E-01
   7132.33  6.4358916E-01
   7132.67  6.3445382E-01
   7133.00  6.2630055E-01
   7133.33  6.1882918E-01
   7133.67  6.1148233E-01
   7134.00  6.0404484E-01
   7134.33  5.9664631E-01
   7134.67  5.8981981E-01
   7135.00  5.8421875E-01
   7135.33  5.8051406E-01
   7135.67  5.7829715E-01
   7136.00  5.7720371E-01
   7136.33  5.7719991E-01
   7136.67  5.7828977E-01
   7137.00  5.8058604E-01
   7137.33  5.8416898E-01
   7137.67  5.8856856E-01
   7138.00  5.9332722E-01
   7138.33  5.9776807E-01
   7138.67  6.0128197E-01
   7139.00  6.0338161E-01
   7139.33  6.0338001E-01
   7139.67  6.0119749E-01
   7140.00  5.9668799E-01
   7140.33  5.8952307E-01
   7140.67  5.8010652E-01
   7141.00  5.6864577E-01
   7141.33  5.5529223E-01
   7141.67  5.4071234E-01
   7142.00  5.2533275E-01
   7142.33  5.0959595E-01
   7142.67  4.9395511E-01
   7143.00  4.7867943E-01
   7143.33  4.6403401E-01
   7143.67  4.5001577E-01
   7144.00  4.3658899E-01
   7144.33  4.2367914E-01
   7144.67  4.1103028E-01
   7145.00  3.9845234E-01
   7145.33  3.8573499E-01
   7145.67  3.7278758E-01
   7146.00  3.5963258E-01
   7146.33  3.4644322E-01
   7146.67  3.3352004E-01
   7147.00  3.2115449E-01
   7147.33  3.0979327E-01
   7147.67  2.9960956E-01
   7148.00  2.9077349E-01
   7148.33  2.8356518E-01
   7148.67  2.7780861E-01
   7149.00  2.7344964E-01
   7149.33  2.7055086E-01
   7149.67  2.6883512E-01
   7150.00  2.6820144E-01
   7150.33  2.6865657E-01
   7150.67  2.6996942E-01
   7151.00  2.7204387E-01
   7151.33  2.7484017E-01
   7151.67  2.7814413E-01
   7152.00  2.8183003E-01
   7152.33  2.8577536E-01
   7152.67  2.8980213E-01
   7153.00  2.9379101E-01
   7153.33  2.9761160E-01
   7153.67  3.0120861E-01
   7154.00  3.0454501E-01
   7154.33  3.0757370E-01
   7154.67  3.1035661E-01
   7155.00  3.1295782E-01
   7155.33  3.1549477E-01
   7155.67  3.1814616E-01
   7156.00  3.2108298E-01
   7156.33  3.2456644E-01
   7156.67  3.2870654E-01
   7157.00  3.3360584E-01
   7157.33  3.3942250E-01
   7157.67  3.4604319E-01
   7158.00  3.5341267E-01
   7158.33  3.6151071E-01
   7158.67  3.7013089E-01
   7159.00  3.7915632E-01
   7159.33  3.8848214E-01
   7159.67  3.9793880E-01
   7160.00  4.0741347E-01
   7160.33  4.1677038E-01
   7160.67  4.2591425E-01
   7161.00  4.3476854E-01
   7161.33  4.4322793E-01
   7161.67  4.5131122E-01
   7162.00  4.5903082E-01
   7162.33  4.6640173E-01
   7162.67  4.7352818E-01
   7163.00  4.8046044E-01
   7163.33  4.8723096E-01
   7163.67  4.9389179E-01
   7164.00  5.0045344E-01
   7164.33  5.0689801E-01
   7164.67  5.1322081E-01
   7165.00  5.1939962E-01
   7165.33  5.2538405E-01
   7165.67  5.3116741E-01
   7166.00  5.3672724E-01
   7166.33  5.4200891E-01
   7166.67  5.4701961E-01
   7167.00  5.5173663E-01
   7167.33  5.5608859E-01
   7167.67  5.6007922E-01
   7168.00  5.6367282E-01
   7168.33  5.6677242E-01
   7168.67  5.6939637E-01
   7169.00  5.7152301E-01
   7169.33  5.7308095E-01
   7169.67  5.7414644E-01
   7170.00  5.7474867E-01
   7170.33  5.7489079E-01
   7170.67  5.7469655E-01
   7171.00  5.7424005E-01
   7171.33  5.7360230E-01
   7171.67  5.7293208E-01
   7172.00  5.7236683E-01
