    FDMNES
    energy     <xanes>
   7097.00  4.4345275E-03
   7097.33  4.5289983E-03
   7097.67  4.6274505E-03
   7098.00  4.7301503E-03
   7098.33  4.8380150E-03
   7098.67  4.9508548E-03
   7099.00  5.0690363E-03
   7099.33  5.1937651E-03
   7099.67  5.3248541E-03
   7100.00  5.4628249E-03
   7100.33  5.6093112E-03
   7100.67  5.7641547E-03
   7101.00  5.9281247E-03
   7101.33  6.1035195E-03
   7101.67  6.2902664E-03
   7102.00  6.4895517E-03
   7102.33  6.7047569E-03
   7102.67  6.9360236E-03
   7103.00  7.1852808E-03
   7103.33  7.4577855E-03
   7103.67  7.7541956E-03
   7104.00  8.0778573E-03
   7104.33  8.4375256E-03
   7104.67  8.8351273E-03
   7105.00  9.2769585E-03
   7105.33  9.7789329E-03
   7105.67  1.0346306E-02
   7106.00  1.0992237E-02
   7106.33  1.1749171E-02
   7106.67  1.2632104E-02
   7107.00  1.3672708E-02
   7107.33  1.4948434E-02
   7107.67  1.6507963E-02
   7108.00  1.8444544E-02
   7108.33  2.0990824E-02
   7108.67  2.4346599E-02
   7109.00  2.8885414E-02
   7109.33  3.5609509E-02
   7109.67  4.5735848E-02
   7110.00  6.1665151E-02
   7110.33  9.0352294E-02
   7110.67  1.3866453E-01
   7111.00  2.0442631E-01
   7111.33  2.5809582E-01
   7111.67  2.8140831E-01
   7112.00  2.5890873E-01
   7112.33  2.0262966E-01
   7112.67  1.5132638E-01
   7113.00  1.1441677E-01
   7113.33  9.1853561E-02
   7113.67  7.7191805E-02
   7114.00  6.6330550E-02
   7114.33  5.7519001E-02
   7114.67  5.1263251E-02
   7115.00  4.7592998E-02
   7115.33  4.6100271E-02
   7115.67  4.5977242E-02
   7116.00  4.6915509E-02
   7116.33  4.8804650E-02
   7116.67  5.1442326E-02
   7117.00  5.4858228E-02
   7117.33  5.9365167E-02
   7117.67  6.5147081E-02
   7118.00  7.2452589E-02
   7118.33  8.1580235E-02
   7118.67  9.1936810E-02
   7119.00  1.0260230E-01
   7119.33  1.1198959E-01
   7119.67  1.1932982E-01
   7120.00  1.2465560E-01
   7120.33  1.2849081E-01
   7120.67  1.3198423E-01
   7121.00  1.3599415E-01
   7121.33  1.4156181E-01
   7121.67  1.4917578E-01
   7122.00  1.5921617E-01
   7122.33  1.7221487E-01
   7122.67  1.8778829E-01
   7123.00  2.0573044E-01
   7123.33  2.2600046E-01
   7123.67  2.4811503E-01
   7124.00  2.7198672E-01
   7124.33  2.9786981E-01
   7124.67  3.2563497E-01
   7125.00  3.5512487E-01
   7125.33  3.8510293E-01
   7125.67  4.1234574E-01
   7126.00  4.3356341E-01
   7126.33  4.4693757E-01
   7126.67  4.5750399E-01
   7127.00  4.7054884E-01
   7127.33  4.9087118E-01
   7127.67  5.1859629E-01
   7128.00  5.5329539E-01
   7128.33  5.9494084E-01
   7128.67  6.4131111E-01
   7129.00  6.9030707E-01
   7129.33  7.3932392E-01
   7129.67  7.8650876E-01
   7130.00  8.3062413E-01
   7130.33  8.6912319E-01
   7130.67  9.0009511E-01
   7131.00  9.2144486E-01
   7131.33  9.3022630E-01
   7131.67  9.2776648E-01
   7132.00  9.1532921E-01
   7132.33  8.9470500E-01
   7132.67  8.7010100E-01
   7133.00  8.4436926E-01
   7133.33  8.2101400E-01
   7133.67  8.0265973E-01
   7134.00  7.9086996E-01
   7134.33  7.8667684E-01
   7134.67  7.8796267E-01
   7135.00  7.9299853E-01
   7135.33  7.9970034E-01
   7135.67  8.0565719E-01
   7136.00  8.0921818E-01
   7136.33  8.0856475E-01
   7136.67  8.0361396E-01
   7137.00  7.9451150E-01
   7137.33  7.8152747E-01
   7137.67  7.6607898E-01
   7138.00  7.4900513E-01
   7138.33  7.3098576E-01
   7138.67  7.1264662E-01
   7139.00  6.9425676E-01
   7139.33  6.7604196E-01
   7139.67  6.5819715E-01
   7140.00  6.4099688E-01
   7140.33  6.2505384E-01
   7140.67  6.1083432E-01
   7141.00  5.9887710E-01
   7141.33  5.9002487E-01
   7141.67  5.8415459E-01
   7142.00  5.8118589E-01
   7142.33  5.8105034E-01
   7142.67  5.8283459E-01
   7143.00  5.8595800E-01
   7143.33  5.8988643E-01
   7143.67  5.9404126E-01
   7144.00  5.9811810E-01
   7144.33  6.0183034E-01
   7144.67  6.0504779E-01
   7145.00  6.0765541E-01
   7145.33  6.0944432E-01
   7145.67  6.1039795E-01
   7146.00  6.1043447E-01
   7146.33  6.0935438E-01
   7146.67  6.0723663E-01
   7147.00  6.0407132E-01
   7147.33  5.9975335E-01
   7147.67  5.9446978E-01
   7148.00  5.8829666E-01
   7148.33  5.8124739E-01
   7148.67  5.7354507E-01
   7149.00  5.6530274E-01
   7149.33  5.5659946E-01
   7149.67  5.4760970E-01
   7150.00  5.3843108E-01
   7150.33  5.2915569E-01
   7150.67  5.1988560E-01
   7151.00  5.1068860E-01
   7151.33  5.0165046E-01
   7151.67  4.9280920E-01
   7152.00  4.8419715E-01
   7152.33  4.7586751E-01
   7152.67  4.6779744E-01
   7153.00  4.5998572E-01
   7153.33  4.5245551E-01
   7153.67  4.4516012E-01
   7154.00  4.3807779E-01
   7154.33  4.3119841E-01
   7154.67  4.2446146E-01
   7155.00  4.1783019E-01
   7155.33  4.1126403E-01
   7155.67  4.0470540E-01
   7156.00  3.9811207E-01
   7156.33  3.9142884E-01
   7156.67  3.8462861E-01
   7157.00  3.7768917E-01
   7157.33  3.7057982E-01
   7157.67  3.6332558E-01
   7158.00  3.5594772E-01
   7158.33  3.4847930E-01
   7158.67  3.4099112E-01
   7159.00  3.3354750E-01
   7159.33  3.2625119E-01
   7159.67  3.1918210E-01
   7160.00  3.1242801E-01
   7160.33  3.0614572E-01
   7160.67  3.0038655E-01
   7161.00  2.9523705E-01
   7161.33  2.9088161E-01
   7161.67  2.8732239E-01
   7162.00  2.8462935E-01
   7162.33  2.8298020E-01
   7162.67  2.8229424E-01
   7163.00  2.8258386E-01
   7163.33  2.8394988E-01
   7163.67  2.8623077E-01
   7164.00  2.8937566E-01
   7164.33  2.9339970E-01
   7164.67  2.9810211E-01
   7165.00  3.0338363E-01
   7165.33  3.0918091E-01
   7165.67  3.1531860E-01
   7166.00  3.2170266E-01
   7166.33  3.2825432E-01
   7166.67  3.3486966E-01
   7167.00  3.4148339E-01
   7167.33  3.4802361E-01
   7167.67  3.5445255E-01
   7168.00  3.6074301E-01
   7168.33  3.6685340E-01
   7168.67  3.7279014E-01
   7169.00  3.7854619E-01
   7169.33  3.8409426E-01
   7169.67  3.8945511E-01
   7170.00  3.9462560E-01
   7170.33  3.9957226E-01
   7170.67  4.0429997E-01
   7171.00  4.0877489E-01
   7171.33  4.1287962E-01
   7171.67  4.1650491E-01
   7172.00  4.1944946E-01
