    FDMNES
    energy     <xanes>
   7097.00  4.7299538E-03
   7097.33  4.8342122E-03
   7097.67  4.9428033E-03
   7098.00  5.0559993E-03
   7098.33  5.1747688E-03
   7098.67  5.2988799E-03
   7099.00  5.4286994E-03
   7099.33  5.5654745E-03
   7099.67  5.7089638E-03
   7100.00  5.8596751E-03
   7100.33  6.0192578E-03
   7100.67  6.1874788E-03
   7101.00  6.3650655E-03
   7101.33  6.5542717E-03
   7101.67  6.7549134E-03
   7102.00  6.9680763E-03
   7102.33  7.1969666E-03
   7102.67  7.4415442E-03
   7103.00  7.7035129E-03
   7103.33  7.9876717E-03
   7103.67  8.2943468E-03
   7104.00  8.6263863E-03
   7104.33  8.9914569E-03
   7104.67  9.3908066E-03
   7105.00  9.8295972E-03
   7105.33  1.0321171E-02
   7105.67  1.0869212E-02
   7106.00  1.1484130E-02
   7106.33  1.2191990E-02
   7106.67  1.3003619E-02
   7107.00  1.3943311E-02
   7107.33  1.5071002E-02
   7107.67  1.6422295E-02
   7108.00  1.8067251E-02
   7108.33  2.0181511E-02
   7108.67  2.2913140E-02
   7109.00  2.6542234E-02
   7109.33  3.1825071E-02
   7109.67  3.9687876E-02
   7110.00  5.1969747E-02
   7110.33  7.3957421E-02
   7110.67  1.1003356E-01
   7111.00  1.5439635E-01
   7111.33  1.7814276E-01
   7111.67  1.8137822E-01
   7112.00  1.7481247E-01
   7112.33  1.6423289E-01
   7112.67  1.5697344E-01
   7113.00  1.5398229E-01
   7113.33  1.5370943E-01
   7113.67  1.4884402E-01
   7114.00  1.3323210E-01
   7114.33  1.1332224E-01
   7114.67  9.8877026E-02
   7115.00  9.1401773E-02
   7115.33  9.0552707E-02
   7115.67  9.4723020E-02
   7116.00  1.0387722E-01
   7116.33  1.1927890E-01
   7116.67  1.4057809E-01
   7117.00  1.6711525E-01
   7117.33  1.9843706E-01
   7117.67  2.3183507E-01
   7118.00  2.6302033E-01
   7118.33  2.8551868E-01
   7118.67  2.9971741E-01
   7119.00  3.1028214E-01
   7119.33  3.2166657E-01
   7119.67  3.3382830E-01
   7120.00  3.4530722E-01
   7120.33  3.5469873E-01
   7120.67  3.6214168E-01
   7121.00  3.6818122E-01
   7121.33  3.7367388E-01
   7121.67  3.7947553E-01
   7122.00  3.8600008E-01
   7122.33  3.9367057E-01
   7122.67  4.0263190E-01
   7123.00  4.1300692E-01
   7123.33  4.2464799E-01
   7123.67  4.3700572E-01
   7124.00  4.5012814E-01
   7124.33  4.6433780E-01
   7124.67  4.7938253E-01
   7125.00  4.9502243E-01
   7125.33  5.1111959E-01
   7125.67  5.2707988E-01
   7126.00  5.4157372E-01
   7126.33  5.5229988E-01
   7126.67  5.5941099E-01
   7127.00  5.6431553E-01
   7127.33  5.6892310E-01
   7127.67  5.7424466E-01
   7128.00  5.8028023E-01
   7128.33  5.8653206E-01
   7128.67  5.9230312E-01
   7129.00  5.9715141E-01
   7129.33  6.0085180E-01
   7129.67  6.0364926E-01
   7130.00  6.0528293E-01
   7130.33  6.0484154E-01
   7130.67  6.0236024E-01
   7131.00  5.9853603E-01
   7131.33  5.9493397E-01
   7131.67  5.9304171E-01
   7132.00  5.9357568E-01
   7132.33  5.9678554E-01
   7132.67  6.0157165E-01
   7133.00  6.0690416E-01
   7133.33  6.1139403E-01
   7133.67  6.1400514E-01
   7134.00  6.1410214E-01
   7134.33  6.1123248E-01
   7134.67  6.0634027E-01
   7135.00  6.0034169E-01
   7135.33  5.9428226E-01
   7135.67  5.8889661E-01
   7136.00  5.8452236E-01
   7136.33  5.8139966E-01
   7136.67  5.7922196E-01
   7137.00  5.7767294E-01
   7137.33  5.7628413E-01
   7137.67  5.7456263E-01
   7138.00  5.7223279E-01
   7138.33  5.6914293E-01
   7138.67  5.6556828E-01
   7139.00  5.6177985E-01
   7139.33  5.5809325E-01
   7139.67  5.5469994E-01
   7140.00  5.5166732E-01
   7140.33  5.4901296E-01
   7140.67  5.4661153E-01
   7141.00  5.4438649E-01
   7141.33  5.4228840E-01
   7141.67  5.4027507E-01
   7142.00  5.3834316E-01
   7142.33  5.3650721E-01
   7142.67  5.3475320E-01
   7143.00  5.3306419E-01
   7143.33  5.3140457E-01
   7143.67  5.2971584E-01
   7144.00  5.2794448E-01
   7144.33  5.2601371E-01
   7144.67  5.2389654E-01
   7145.00  5.2157200E-01
   7145.33  5.1901069E-01
   7145.67  5.1625436E-01
   7146.00  5.1332529E-01
   7146.33  5.1023275E-01
   7146.67  5.0701806E-01
   7147.00  5.0369808E-01
   7147.33  5.0028056E-01
   7147.67  4.9679112E-01
   7148.00  4.9324225E-01
   7148.33  4.8964205E-01
   7148.67  4.8600485E-01
   7149.00  4.8233980E-01
   7149.33  4.7865692E-01
   7149.67  4.7495897E-01
   7150.00  4.7124041E-01
   7150.33  4.6749151E-01
   7150.67  4.6371330E-01
   7151.00  4.5990892E-01
   7151.33  4.5608765E-01
   7151.67  4.5227183E-01
   7152.00  4.4848570E-01
   7152.33  4.4477057E-01
   7152.67  4.4115780E-01
   7153.00  4.3768714E-01
   7153.33  4.3443598E-01
   7153.67  4.3143206E-01
   7154.00  4.2871630E-01
   7154.33  4.2637295E-01
   7154.67  4.2439577E-01
   7155.00  4.2280634E-01
   7155.33  4.2166860E-01
   7155.67  4.2093399E-01
   7156.00  4.2059409E-01
   7156.33  4.2067607E-01
   7156.67  4.2110455E-01
   7157.00  4.2184872E-01
   7157.33  4.2290157E-01
   7157.67  4.2418467E-01
   7158.00  4.2566006E-01
   7158.33  4.2730514E-01
   7158.67  4.2906637E-01
   7159.00  4.3092126E-01
   7159.33  4.3286098E-01
   7159.67  4.3486303E-01
   7160.00  4.3691729E-01
   7160.33  4.3901579E-01
   7160.67  4.4114018E-01
   7161.00  4.4327820E-01
   7161.33  4.4541477E-01
   7161.67  4.4753773E-01
   7162.00  4.4963642E-01
   7162.33  4.5168374E-01
   7162.67  4.5365601E-01
   7163.00  4.5552441E-01
   7163.33  4.5723508E-01
   7163.67  4.5876790E-01
   7164.00  4.6009137E-01
   7164.33  4.6114122E-01
   7164.67  4.6191838E-01
   7165.00  4.6240234E-01
   7165.33  4.6253726E-01
   7165.67  4.6235307E-01
   7166.00  4.6184901E-01
   7166.33  4.6099342E-01
   7166.67  4.5984099E-01
   7167.00  4.5841115E-01
   7167.33  4.5670290E-01
   7167.67  4.5478455E-01
   7168.00  4.5269278E-01
   7168.33  4.5045855E-01
   7168.67  4.4814747E-01
   7169.00  4.4580281E-01
   7169.33  4.4347509E-01
   7169.67  4.4120825E-01
   7170.00  4.3903866E-01
   7170.33  4.3702098E-01
   7170.67  4.3517045E-01
   7171.00  4.3351082E-01
   7171.33  4.3209464E-01
   7171.67  4.3092162E-01
   7172.00  4.3001496E-01
