    FDMNES
    energy     <xanes>
   7097.00  5.4502961E-03
   7097.33  5.5922785E-03
   7097.67  5.7413495E-03
   7098.00  5.8980272E-03
   7098.33  6.0640162E-03
   7098.67  6.2390330E-03
   7099.00  6.4237955E-03
   7099.33  6.6205756E-03
   7099.67  6.8290983E-03
   7100.00  7.0503860E-03
   7100.33  7.2875509E-03
   7100.67  7.5403715E-03
   7101.00  7.8103519E-03
   7101.33  8.1018948E-03
   7101.67  8.4149315E-03
   7102.00  8.7517608E-03
   7102.33  9.1188563E-03
   7102.67  9.5165202E-03
   7103.00  9.9484311E-03
   7103.33  1.0424566E-02
   7103.67  1.0946096E-02
   7104.00  1.1519248E-02
   7104.33  1.2160328E-02
   7104.67  1.2872573E-02
   7105.00  1.3667301E-02
   7105.33  1.4573226E-02
   7105.67  1.5598803E-02
   7106.00  1.6766581E-02
   7106.33  1.8132389E-02
   7106.67  1.9719163E-02
   7107.00  2.1577830E-02
   7107.33  2.3832877E-02
   7107.67  2.6554031E-02
   7108.00  2.9878904E-02
   7108.33  3.4147359E-02
   7108.67  3.9620608E-02
   7109.00  4.6789331E-02
   7109.33  5.6936196E-02
   7109.67  7.1466801E-02
   7110.00  9.3114842E-02
   7110.33  1.2975061E-01
   7110.67  1.9073455E-01
   7111.00  2.8392472E-01
   7111.33  3.9564926E-01
   7111.67  4.8089200E-01
   7112.00  5.2633860E-01
   7112.33  5.4939632E-01
   7112.67  5.5120601E-01
   7113.00  5.2312022E-01
   7113.33  4.6274121E-01
   7113.67  3.8656323E-01
   7114.00  3.1501414E-01
   7114.33  2.6490787E-01
   7114.67  2.3444950E-01
   7115.00  2.2038835E-01
   7115.33  2.1949858E-01
   7115.67  2.2351951E-01
   7116.00  2.2532064E-01
   7116.33  2.1941227E-01
   7116.67  2.0850682E-01
   7117.00  1.9637694E-01
   7117.33  1.8649106E-01
   7117.67  1.7954537E-01
   7118.00  1.7496247E-01
   7118.33  1.7164925E-01
   7118.67  1.6859147E-01
   7119.00  1.6532890E-01
   7119.33  1.6077355E-01
   7119.67  1.5449976E-01
   7120.00  1.4758277E-01
   7120.33  1.4230707E-01
   7120.67  1.3972419E-01
   7121.00  1.4019040E-01
   7121.33  1.4415835E-01
   7121.67  1.5117979E-01
   7122.00  1.6128648E-01
   7122.33  1.7476565E-01
   7122.67  1.9092993E-01
   7123.00  2.0946251E-01
   7123.33  2.2925937E-01
   7123.67  2.4742640E-01
   7124.00  2.6161981E-01
   7124.33  2.7108050E-01
   7124.67  2.7880173E-01
   7125.00  2.8731860E-01
   7125.33  2.9888300E-01
   7125.67  3.1374381E-01
   7126.00  3.3155632E-01
   7126.33  3.5150053E-01
   7126.67  3.7189975E-01
   7127.00  3.9139288E-01
   7127.33  4.0845199E-01
   7127.67  4.2344341E-01
   7128.00  4.3788088E-01
   7128.33  4.5390174E-01
   7128.67  4.7196143E-01
   7129.00  4.9156521E-01
   7129.33  5.1176795E-01
   7129.67  5.3159140E-01
   7130.00  5.5071129E-01
   7130.33  5.6961954E-01
   7130.67  5.8961537E-01
   7131.00  6.1187671E-01
   7131.33  6.3765756E-01
   7131.67  6.6645091E-01
   7132.00  6.9706744E-01
   7132.33  7.2654230E-01
   7132.67  7.5119560E-01
   7133.00  7.6809111E-01
   7133.33  7.7420571E-01
   7133.67  7.7072505E-01
   7134.00  7.5847382E-01
   7134.33  7.3788401E-01
   7134.67  7.1167772E-01
   7135.00  6.8175666E-01
   7135.33  6.5021979E-01
   7135.67  6.1915382E-01
   7136.00  5.8974457E-01
   7136.33  5.6320733E-01
   7136.67  5.3972046E-01
   7137.00  5.1949139E-01
   7137.33  5.0302561E-01
   7137.67  4.8991634E-01
   7138.00  4.8016235E-01
   7138.33  4.7417856E-01
   7138.67  4.7149733E-01
   7139.00  4.7198448E-01
   7139.33  4.7567299E-01
   7139.67  4.8170020E-01
   7140.00  4.8952880E-01
   7140.33  4.9865108E-01
   7140.67  5.0833149E-01
   7141.00  5.1813931E-01
   7141.33  5.2762067E-01
   7141.67  5.3646189E-01
   7142.00  5.4440599E-01
   7142.33  5.5109500E-01
   7142.67  5.5661033E-01
   7143.00  5.6108373E-01
   7143.33  5.6479294E-01
   7143.67  5.6831421E-01
   7144.00  5.7205990E-01
   7144.33  5.7646222E-01
   7144.67  5.8162948E-01
   7145.00  5.8758431E-01
   7145.33  5.9433080E-01
   7145.67  6.0162827E-01
   7146.00  6.0932205E-01
   7146.33  6.1725504E-01
   7146.67  6.2522534E-01
   7147.00  6.3309244E-01
   7147.33  6.4067084E-01
   7147.67  6.4785489E-01
   7148.00  6.5454836E-01
   7148.33  6.6060151E-01
   7148.67  6.6604855E-01
   7149.00  6.7087885E-01
   7149.33  6.7501058E-01
   7149.67  6.7852824E-01
   7150.00  6.8144953E-01
   7150.33  6.8373845E-01
   7150.67  6.8551168E-01
   7151.00  6.8681533E-01
   7151.33  6.8765319E-01
   7151.67  6.8812731E-01
   7152.00  6.8827080E-01
   7152.33  6.8806828E-01
   7152.67  6.8756294E-01
   7153.00  6.8674430E-01
   7153.33  6.8554355E-01
   7153.67  6.8396605E-01
   7154.00  6.8197480E-01
   7154.33  6.7946422E-01
   7154.67  6.7644586E-01
   7155.00  6.7289175E-01
   7155.33  6.6871605E-01
   7155.67  6.6398988E-01
   7156.00  6.5873147E-01
   7156.33  6.5291863E-01
   7156.67  6.4666992E-01
   7157.00  6.4004547E-01
   7157.33  6.3308455E-01
   7157.67  6.2590180E-01
   7158.00  6.1855958E-01
   7158.33  6.1110903E-01
   7158.67  6.0361390E-01
   7159.00  5.9611004E-01
   7159.33  5.8863321E-01
   7159.67  5.8120609E-01
   7160.00  5.7384724E-01
   7160.33  5.6658700E-01
   7160.67  5.5943458E-01
   7161.00  5.5241014E-01
   7161.33  5.4556444E-01
   7161.67  5.3891298E-01
   7162.00  5.3248578E-01
   7162.33  5.2635056E-01
   7162.67  5.2051028E-01
   7163.00  5.1499373E-01
   7163.33  5.0987332E-01
   7163.67  5.0512611E-01
   7164.00  5.0076267E-01
   7164.33  4.9683193E-01
   7164.67  4.9327401E-01
   7165.00  4.9006777E-01
   7165.33  4.8721232E-01
   7165.67  4.8461038E-01
   7166.00  4.8219454E-01
   7166.33  4.7987417E-01
   7166.67  4.7751828E-01
   7167.00  4.7501890E-01
   7167.33  4.7221594E-01
   7167.67  4.6902522E-01
   7168.00  4.6536337E-01
   7168.33  4.6109667E-01
   7168.67  4.5626479E-01
   7169.00  4.5087689E-01
   7169.33  4.4491714E-01
   7169.67  4.3853276E-01
   7170.00  4.3182044E-01
   7170.33  4.2489241E-01
   7170.67  4.1793268E-01
   7171.00  4.1110268E-01
   7171.33  4.0468463E-01
   7171.67  3.9896601E-01
   7172.00  3.9432095E-01
