    FDMNES
    energy     <xanes>
   7097.00  5.5314981E-03
   7097.33  5.6809322E-03
   7097.67  5.8380784E-03
   7098.00  6.0035134E-03
   7098.33  6.1791142E-03
   7098.67  6.3645903E-03
   7099.00  6.5607448E-03
   7099.33  6.7700932E-03
   7099.67  6.9923590E-03
   7100.00  7.2286912E-03
   7100.33  7.4825549E-03
   7100.67  7.7537404E-03
   7101.00  8.0439456E-03
   7101.33  8.3580991E-03
   7101.67  8.6961736E-03
   7102.00  9.0607745E-03
   7102.33  9.4591879E-03
   7102.67  9.8918213E-03
   7103.00  1.0362859E-02
   7103.33  1.0883589E-02
   7103.67  1.1455428E-02
   7104.00  1.2085483E-02
   7104.33  1.2792288E-02
   7104.67  1.3579652E-02
   7105.00  1.4460529E-02
   7105.33  1.5467692E-02
   7105.67  1.6610964E-02
   7106.00  1.7916218E-02
   7106.33  1.9447374E-02
   7106.67  2.1230938E-02
   7107.00  2.3325405E-02
   7107.33  2.5873613E-02
   7107.67  2.8955863E-02
   7108.00  3.2730252E-02
   7108.33  3.7586992E-02
   7108.67  4.3826095E-02
   7109.00  5.2010588E-02
   7109.33  6.3611208E-02
   7109.67  8.0237273E-02
   7110.00  1.0501922E-01
   7110.33  1.4701640E-01
   7110.67  2.1749308E-01
   7111.00  3.2714673E-01
   7111.33  4.5342839E-01
   7111.67  5.3372535E-01
   7112.00  5.8161790E-01
   7112.33  6.4037365E-01
   7112.67  6.7285811E-01
   7113.00  6.4481033E-01
   7113.33  5.6146105E-01
   7113.67  4.6275167E-01
   7114.00  3.7285770E-01
   7114.33  3.0546706E-01
   7114.67  2.5670920E-01
   7115.00  2.2274813E-01
   7115.33  2.0145490E-01
   7115.67  1.8952702E-01
   7116.00  1.8624486E-01
   7116.33  1.8986069E-01
   7116.67  1.9183236E-01
   7117.00  1.8651576E-01
   7117.33  1.7605939E-01
   7117.67  1.6611341E-01
   7118.00  1.5833581E-01
   7118.33  1.5280186E-01
   7118.67  1.4859760E-01
   7119.00  1.4540148E-01
   7119.33  1.4273091E-01
   7119.67  1.3979078E-01
   7120.00  1.3636824E-01
   7120.33  1.3259725E-01
   7120.67  1.2897076E-01
   7121.00  1.2619604E-01
   7121.33  1.2480380E-01
   7121.67  1.2427786E-01
   7122.00  1.2425261E-01
   7122.33  1.2458944E-01
   7122.67  1.2528311E-01
   7123.00  1.2655037E-01
   7123.33  1.2892412E-01
   7123.67  1.3261685E-01
   7124.00  1.3779606E-01
   7124.33  1.4489738E-01
   7124.67  1.5390025E-01
   7125.00  1.6474132E-01
   7125.33  1.7731989E-01
   7125.67  1.9132605E-01
   7126.00  2.0729526E-01
   7126.33  2.2702544E-01
   7126.67  2.5130337E-01
   7127.00  2.8021762E-01
   7127.33  3.1288336E-01
   7127.67  3.4647061E-01
   7128.00  3.7895696E-01
   7128.33  4.0926980E-01
   7128.67  4.3822027E-01
   7129.00  4.6620486E-01
   7129.33  4.9328991E-01
   7129.67  5.2042757E-01
   7130.00  5.4898491E-01
   7130.33  5.8063835E-01
   7130.67  6.1530590E-01
   7131.00  6.5236590E-01
   7131.33  6.9079489E-01
   7131.67  7.2932382E-01
   7132.00  7.6713814E-01
   7132.33  8.0280125E-01
   7132.67  8.3444575E-01
   7133.00  8.5917304E-01
   7133.33  8.7121022E-01
   7133.67  8.6822393E-01
   7134.00  8.4947055E-01
   7134.33  8.1643663E-01
   7134.67  7.7614212E-01
   7135.00  7.3282596E-01
   7135.33  6.8977773E-01
   7135.67  6.4881911E-01
   7136.00  6.1094888E-01
   7136.33  5.7751787E-01
   7136.67  5.4870058E-01
   7137.00  5.2491938E-01
   7137.33  5.0701804E-01
   7137.67  4.9398217E-01
   7138.00  4.8489722E-01
   7138.33  4.7832420E-01
   7138.67  4.7212315E-01
   7139.00  4.6530310E-01
   7139.33  4.5797105E-01
   7139.67  4.5153616E-01
   7140.00  4.4742744E-01
   7140.33  4.4729220E-01
   7140.67  4.5110169E-01
   7141.00  4.5864626E-01
   7141.33  4.6964261E-01
   7141.67  4.8280715E-01
   7142.00  4.9731105E-01
   7142.33  5.1228729E-01
   7142.67  5.2690498E-01
   7143.00  5.4066421E-01
   7143.33  5.5305609E-01
   7143.67  5.6409932E-01
   7144.00  5.7382378E-01
   7144.33  5.8223915E-01
   7144.67  5.8972225E-01
   7145.00  5.9649565E-01
   7145.33  6.0275848E-01
   7145.67  6.0879253E-01
   7146.00  6.1474619E-01
   7146.33  6.2073361E-01
   7146.67  6.2679532E-01
   7147.00  6.3291969E-01
   7147.33  6.3905300E-01
   7147.67  6.4511785E-01
   7148.00  6.5105452E-01
   7148.33  6.5678462E-01
   7148.67  6.6227641E-01
   7149.00  6.6747241E-01
   7149.33  6.7224634E-01
   7149.67  6.7655555E-01
   7150.00  6.8032687E-01
   7150.33  6.8343254E-01
   7150.67  6.8595311E-01
   7151.00  6.8795357E-01
   7151.33  6.8952644E-01
   7151.67  6.9090343E-01
   7152.00  6.9225866E-01
   7152.33  6.9382049E-01
   7152.67  6.9575125E-01
   7153.00  6.9817560E-01
   7153.33  7.0125447E-01
   7153.67  7.0493031E-01
   7154.00  7.0915277E-01
   7154.33  7.1384202E-01
   7154.67  7.1874375E-01
   7155.00  7.2363809E-01
   7155.33  7.2819535E-01
   7155.67  7.3214522E-01
   7156.00  7.3523104E-01
   7156.33  7.3704299E-01
   7156.67  7.3750666E-01
   7157.00  7.3648916E-01
   7157.33  7.3370497E-01
   7157.67  7.2932815E-01
   7158.00  7.2338591E-01
   7158.33  7.1576756E-01
   7158.67  7.0677413E-01
   7159.00  6.9652806E-01
   7159.33  6.8505261E-01
   7159.67  6.7265528E-01
   7160.00  6.5948528E-01
   7160.33  6.4564183E-01
   7160.67  6.3137898E-01
   7161.00  6.1685001E-01
   7161.33  6.0220056E-01
   7161.67  5.8757868E-01
   7162.00  5.7308293E-01
   7162.33  5.5883824E-01
   7162.67  5.4489922E-01
   7163.00  5.3132816E-01
   7163.33  5.1824303E-01
   7163.67  5.0564763E-01
   7164.00  4.9358730E-01
   7164.33  4.8218010E-01
   7164.67  4.7138991E-01
   7165.00  4.6124008E-01
   7165.33  4.5182901E-01
   7165.67  4.4308120E-01
   7166.00  4.3499380E-01
   7166.33  4.2763181E-01
   7166.67  4.2088730E-01
   7167.00  4.1473122E-01
   7167.33  4.0919441E-01
   7167.67  4.0416552E-01
   7168.00  3.9960434E-01
   7168.33  3.9551333E-01
   7168.67  3.9178899E-01
   7169.00  3.8838658E-01
   7169.33  3.8528760E-01
   7169.67  3.8240880E-01
   7170.00  3.7971190E-01
   7170.33  3.7717652E-01
   7170.67  3.7475637E-01
   7171.00  3.7244178E-01
   7171.33  3.7026803E-01
   7171.67  3.6829331E-01
   7172.00  3.6663205E-01
