    FDMNES
    energy     <xanes>
   7097.00  4.2223619E-03
   7097.33  4.3041490E-03
   7097.67  4.3888629E-03
   7098.00  4.4766632E-03
   7098.33  4.5681633E-03
   7098.67  4.6631741E-03
   7099.00  4.7619035E-03
   7099.33  4.8651156E-03
   7099.67  4.9726066E-03
   7100.00  5.0846549E-03
   7100.33  5.2022345E-03
   7100.67  5.3251329E-03
   7101.00  5.4537346E-03
   7101.33  5.5893176E-03
   7101.67  5.7316763E-03
   7102.00  5.8813627E-03
   7102.33  6.0401167E-03
   7102.67  6.2077763E-03
   7103.00  6.3851746E-03
   7103.33  6.5747958E-03
   7103.67  6.7766108E-03
   7104.00  6.9919579E-03
   7104.33  7.2246149E-03
   7104.67  7.4749096E-03
   7105.00  7.7451756E-03
   7105.33  8.0416660E-03
   7105.67  8.3656770E-03
   7106.00  8.7217446E-03
   7106.33  9.1215040E-03
   7106.67  9.5691057E-03
   7107.00  1.0074782E-02
   7107.33  1.0664098E-02
   7107.67  1.1351039E-02
   7108.00  1.2164186E-02
   7108.33  1.3175394E-02
   7108.67  1.4442549E-02
   7109.00  1.6076233E-02
   7109.33  1.8373567E-02
   7109.67  2.1688539E-02
   7110.00  2.6723068E-02
   7110.33  3.5499146E-02
   7110.67  4.9849453E-02
   7111.00  6.8377076E-02
   7111.33  8.1287528E-02
   7111.67  8.7547730E-02
   7112.00  8.8186047E-02
   7112.33  8.1698488E-02
   7112.67  7.5751505E-02
   7113.00  7.1429021E-02
   7113.33  6.5407544E-02
   7113.67  5.9664396E-02
   7114.00  5.6038076E-02
   7114.33  5.4842601E-02
   7114.67  5.5325623E-02
   7115.00  5.7180784E-02
   7115.33  6.0379020E-02
   7115.67  6.4783250E-02
   7116.00  7.0514708E-02
   7116.33  7.7950399E-02
   7116.67  8.7088918E-02
   7117.00  9.8085933E-02
   7117.33  1.1131065E-01
   7117.67  1.2640562E-01
   7118.00  1.4297264E-01
   7118.33  1.6069900E-01
   7118.67  1.7970283E-01
   7119.00  2.0039394E-01
   7119.33  2.2306832E-01
   7119.67  2.4739783E-01
   7120.00  2.7347951E-01
   7120.33  3.0217199E-01
   7120.67  3.3421804E-01
   7121.00  3.7032785E-01
   7121.33  4.0921043E-01
   7121.67  4.4352049E-01
   7122.00  4.6473241E-01
   7122.33  4.6720453E-01
   7122.67  4.5892193E-01
   7123.00  4.4665232E-01
   7123.33  4.3570610E-01
   7123.67  4.2893449E-01
   7124.00  4.2823832E-01
   7124.33  4.3519175E-01
   7124.67  4.4706768E-01
   7125.00  4.6152693E-01
   7125.33  4.7707284E-01
   7125.67  4.9304287E-01
   7126.00  5.0936745E-01
   7126.33  5.2599318E-01
   7126.67  5.4243701E-01
   7127.00  5.5791987E-01
   7127.33  5.7089247E-01
   7127.67  5.8028753E-01
   7128.00  5.8526753E-01
   7128.33  5.8505430E-01
   7128.67  5.8095290E-01
   7129.00  5.7410226E-01
   7129.33  5.6577836E-01
   7129.67  5.5730990E-01
   7130.00  5.4937229E-01
   7130.33  5.4263492E-01
   7130.67  5.3745121E-01
   7131.00  5.3425394E-01
   7131.33  5.3353585E-01
   7131.67  5.3453690E-01
   7132.00  5.3643177E-01
   7132.33  5.3831267E-01
   7132.67  5.3957588E-01
   7133.00  5.3995608E-01
   7133.33  5.3928709E-01
   7133.67  5.3784551E-01
   7134.00  5.3586161E-01
   7134.33  5.3359906E-01
   7134.67  5.3135778E-01
   7135.00  5.2932505E-01
   7135.33  5.2769365E-01
   7135.67  5.2646979E-01
   7136.00  5.2560799E-01
   7136.33  5.2498951E-01
   7136.67  5.2438612E-01
   7137.00  5.2363101E-01
   7137.33  5.2255252E-01
   7137.67  5.2114381E-01
   7138.00  5.1945203E-01
   7138.33  5.1759547E-01
   7138.67  5.1577774E-01
   7139.00  5.1416229E-01
   7139.33  5.1295615E-01
   7139.67  5.1222327E-01
   7140.00  5.1200976E-01
   7140.33  5.1238220E-01
   7140.67  5.1323161E-01
   7141.00  5.1449517E-01
   7141.33  5.1612377E-01
   7141.67  5.1798101E-01
   7142.00  5.1998756E-01
   7142.33  5.2207037E-01
   7142.67  5.2415775E-01
   7143.00  5.2621510E-01
   7143.33  5.2822020E-01
   7143.67  5.3016908E-01
   7144.00  5.3204659E-01
   7144.33  5.3383585E-01
   7144.67  5.3556323E-01
   7145.00  5.3726096E-01
   7145.33  5.3898768E-01
   7145.67  5.4081084E-01
   7146.00  5.4279939E-01
   7146.33  5.4506919E-01
   7146.67  5.4767134E-01
   7147.00  5.5066909E-01
   7147.33  5.5417916E-01
   7147.67  5.5818143E-01
   7148.00  5.6268150E-01
   7148.33  5.6771152E-01
   7148.67  5.7314953E-01
   7149.00  5.7891356E-01
   7149.33  5.8490644E-01
   7149.67  5.9095896E-01
   7150.00  5.9693894E-01
   7150.33  6.0267286E-01
   7150.67  6.0806460E-01
   7151.00  6.1303144E-01
   7151.33  6.1744452E-01
   7151.67  6.2132516E-01
   7152.00  6.2465657E-01
   7152.33  6.2736398E-01
   7152.67  6.2951940E-01
   7153.00  6.3112765E-01
   7153.33  6.3212707E-01
   7153.67  6.3258877E-01
   7154.00  6.3250773E-01
   7154.33  6.3179571E-01
   7154.67  6.3050873E-01
   7155.00  6.2864490E-01
   7155.33  6.2614111E-01
   7155.67  6.2309213E-01
   7156.00  6.1953304E-01
   7156.33  6.1546588E-01
   7156.67  6.1102248E-01
   7157.00  6.0627715E-01
   7157.33  6.0129374E-01
   7157.67  5.9618569E-01
   7158.00  5.9102307E-01
   7158.33  5.8588345E-01
   7158.67  5.8082923E-01
   7159.00  5.7590638E-01
   7159.33  5.7117922E-01
   7159.67  5.6665727E-01
   7160.00  5.6235808E-01
   7160.33  5.5832000E-01
   7160.67  5.5451306E-01
   7161.00  5.5092944E-01
   7161.33  5.4757808E-01
   7161.67  5.4440869E-01
   7162.00  5.4139567E-01
   7162.33  5.3851822E-01
   7162.67  5.3572078E-01
   7163.00  5.3296989E-01
   7163.33  5.3022855E-01
   7163.67  5.2745850E-01
   7164.00  5.2462972E-01
   7164.33  5.2169868E-01
   7164.67  5.1864823E-01
   7165.00  5.1545693E-01
   7165.33  5.1208265E-01
   7165.67  5.0852884E-01
   7166.00  5.0478572E-01
   7166.33  5.0082302E-01
   7166.67  4.9666564E-01
   7167.00  4.9231887E-01
   7167.33  4.8777072E-01
   7167.67  4.8305928E-01
   7168.00  4.7820323E-01
   7168.33  4.7321509E-01
   7168.67  4.6814220E-01
   7169.00  4.6301653E-01
   7169.33  4.5787657E-01
   7169.67  4.5276578E-01
   7170.00  4.4772224E-01
   7170.33  4.4280855E-01
   7170.67  4.3806590E-01
   7171.00  4.3355421E-01
   7171.33  4.2941409E-01
   7171.67  4.2576643E-01
   7172.00  4.2281043E-01
