    FDMNES
    energy     <xanes>
   7097.00  5.1070411E-03
   7097.33  5.2363716E-03
   7097.67  5.3719824E-03
   7098.00  5.5143264E-03
   7098.33  5.6649041E-03
   7098.67  5.8234575E-03
   7099.00  5.9906141E-03
   7099.33  6.1683713E-03
   7099.67  6.3564792E-03
   7100.00  6.5558332E-03
   7100.33  6.7691686E-03
   7100.67  6.9962856E-03
   7101.00  7.2385058E-03
   7101.33  7.4997037E-03
   7101.67  7.7798220E-03
   7102.00  8.0808915E-03
   7102.33  8.4086291E-03
   7102.67  8.7633257E-03
   7103.00  9.1482568E-03
   7103.33  9.5722912E-03
   7103.67  1.0036543E-02
   7104.00  1.0546623E-02
   7104.33  1.1117180E-02
   7104.67  1.1751320E-02
   7105.00  1.2459413E-02
   7105.33  1.3267688E-02
   7105.67  1.4184384E-02
   7106.00  1.5230675E-02
   7106.33  1.6458858E-02
   7106.67  1.7891882E-02
   7107.00  1.9579283E-02
   7107.33  2.1642223E-02
   7107.67  2.4153385E-02
   7108.00  2.7253805E-02
   7108.33  3.1294354E-02
   7108.67  3.6565130E-02
   7109.00  4.3610359E-02
   7109.33  5.3880664E-02
   7109.67  6.9090328E-02
   7110.00  9.2616930E-02
   7110.33  1.3429166E-01
   7110.67  2.0473769E-01
   7111.00  3.0475457E-01
   7111.33  3.8620226E-01
   7111.67  4.1063400E-01
   7112.00  3.9697975E-01
   7112.33  3.6720852E-01
   7112.67  3.3567987E-01
   7113.00  3.1523166E-01
   7113.33  3.1854088E-01
   7113.67  3.3373059E-01
   7114.00  3.3197232E-01
   7114.33  2.9178874E-01
   7114.67  2.4049687E-01
   7115.00  1.9576282E-01
   7115.33  1.6414293E-01
   7115.67  1.4287335E-01
   7116.00  1.2972198E-01
   7116.33  1.2308014E-01
   7116.67  1.2055503E-01
   7117.00  1.2104857E-01
   7117.33  1.2360324E-01
   7117.67  1.2688760E-01
   7118.00  1.3025318E-01
   7118.33  1.3369314E-01
   7118.67  1.3775049E-01
   7119.00  1.4284461E-01
   7119.33  1.4944615E-01
   7119.67  1.5789929E-01
   7120.00  1.6866555E-01
   7120.33  1.8216540E-01
   7120.67  1.9780760E-01
   7121.00  2.1495650E-01
   7121.33  2.3260907E-01
   7121.67  2.5011002E-01
   7122.00  2.6770406E-01
   7122.33  2.8593022E-01
   7122.67  3.0443979E-01
   7123.00  3.2243242E-01
   7123.33  3.3892744E-01
   7123.67  3.5397831E-01
   7124.00  3.6797547E-01
   7124.33  3.8176238E-01
   7124.67  3.9667757E-01
   7125.00  4.1378561E-01
   7125.33  4.3361549E-01
   7125.67  4.5466247E-01
   7126.00  4.7514906E-01
   7126.33  4.9256247E-01
   7126.67  5.0567030E-01
   7127.00  5.1416324E-01
   7127.33  5.1862313E-01
   7127.67  5.2096276E-01
   7128.00  5.2189824E-01
   7128.33  5.2139962E-01
   7128.67  5.1963318E-01
   7129.00  5.1706908E-01
   7129.33  5.1468021E-01
   7129.67  5.1307699E-01
   7130.00  5.1246675E-01
   7130.33  5.1334681E-01
   7130.67  5.1595766E-01
   7131.00  5.2043064E-01
   7131.33  5.2678850E-01
   7131.67  5.3447936E-01
   7132.00  5.4332063E-01
   7132.33  5.5348483E-01
   7132.67  5.6480981E-01
   7133.00  5.7671428E-01
   7133.33  5.8691784E-01
   7133.67  5.9200604E-01
   7134.00  5.8903171E-01
   7134.33  5.7634983E-01
   7134.67  5.5826734E-01
   7135.00  5.3874878E-01
   7135.33  5.2160861E-01
   7135.67  5.0843162E-01
   7136.00  4.9987386E-01
   7136.33  4.9674383E-01
   7136.67  4.9828468E-01
   7137.00  5.0414514E-01
   7137.33  5.1415110E-01
   7137.67  5.2699121E-01
   7138.00  5.4178861E-01
   7138.33  5.5750484E-01
   7138.67  5.7287298E-01
   7139.00  5.8699682E-01
   7139.33  5.9887015E-01
   7139.67  6.0841025E-01
   7140.00  6.1566667E-01
   7140.33  6.2074058E-01
   7140.67  6.2438619E-01
   7141.00  6.2707706E-01
   7141.33  6.2929947E-01
   7141.67  6.3162209E-01
   7142.00  6.3443189E-01
   7142.33  6.3814302E-01
   7142.67  6.4276781E-01
   7143.00  6.4822311E-01
   7143.33  6.5427547E-01
   7143.67  6.6037696E-01
   7144.00  6.6602558E-01
   7144.33  6.7050796E-01
   7144.67  6.7349707E-01
   7145.00  6.7478463E-01
   7145.33  6.7416651E-01
   7145.67  6.7209251E-01
   7146.00  6.6888143E-01
   7146.33  6.6486499E-01
   7146.67  6.6055201E-01
   7147.00  6.5627520E-01
   7147.33  6.5241351E-01
   7147.67  6.4918979E-01
   7148.00  6.4677362E-01
   7148.33  6.4539344E-01
   7148.67  6.4496306E-01
   7149.00  6.4544981E-01
   7149.33  6.4685977E-01
   7149.67  6.4893909E-01
   7150.00  6.5152283E-01
   7150.33  6.5442528E-01
   7150.67  6.5737283E-01
   7151.00  6.6015860E-01
   7151.33  6.6250128E-01
   7151.67  6.6423996E-01
   7152.00  6.6522097E-01
   7152.33  6.6519260E-01
   7152.67  6.6417546E-01
   7153.00  6.6213138E-01
   7153.33  6.5893301E-01
   7153.67  6.5475206E-01
   7154.00  6.4965287E-01
   7154.33  6.4363042E-01
   7154.67  6.3690057E-01
   7155.00  6.2956638E-01
   7155.33  6.2168671E-01
   7155.67  6.1343611E-01
   7156.00  6.0490491E-01
   7156.33  5.9616190E-01
   7156.67  5.8730624E-01
   7157.00  5.7838898E-01
   7157.33  5.6945285E-01
   7157.67  5.6052997E-01
   7158.00  5.5163520E-01
   7158.33  5.4278245E-01
   7158.67  5.3397362E-01
   7159.00  5.2521352E-01
   7159.33  5.1651665E-01
   7159.67  5.0789047E-01
   7160.00  4.9935513E-01
   7160.33  4.9095781E-01
   7160.67  4.8272216E-01
   7161.00  4.7468173E-01
   7161.33  4.6690057E-01
   7161.67  4.5938187E-01
   7162.00  4.5214961E-01
   7162.33  4.4526347E-01
   7162.67  4.3869675E-01
   7163.00  4.3245160E-01
   7163.33  4.2656119E-01
   7163.67  4.2097165E-01
   7164.00  4.1566489E-01
   7164.33  4.1064687E-01
   7164.67  4.0585613E-01
   7165.00  4.0126545E-01
   7165.33  3.9686201E-01
   7165.67  3.9259351E-01
   7166.00  3.8843932E-01
   7166.33  3.8439173E-01
   7166.67  3.8042479E-01
   7167.00  3.7653493E-01
   7167.33  3.7273767E-01
   7167.67  3.6903695E-01
   7168.00  3.6545097E-01
   7168.33  3.6202261E-01
   7168.67  3.5876198E-01
   7169.00  3.5569413E-01
   7169.33  3.5287663E-01
   7169.67  3.5031071E-01
   7170.00  3.4801955E-01
   7170.33  3.4606297E-01
   7170.67  3.4441928E-01
   7171.00  3.4309343E-01
   7171.33  3.4211353E-01
   7171.67  3.4140167E-01
   7172.00  3.4089066E-01
