    FDMNES
    energy     <xanes>
   7097.00  5.0723553E-03
   7097.33  5.1873234E-03
   7097.67  5.3071607E-03
   7098.00  5.4321750E-03
   7098.33  5.5634572E-03
   7098.67  5.7007484E-03
   7099.00  5.8444624E-03
   7099.33  5.9960039E-03
   7099.67  6.1551018E-03
   7100.00  6.3223280E-03
   7100.33  6.4995385E-03
   7100.67  6.6864690E-03
   7101.00  6.8839360E-03
   7101.33  7.0944701E-03
   7101.67  7.3178577E-03
   7102.00  7.5553114E-03
   7102.33  7.8104188E-03
   7102.67  8.0831172E-03
   7103.00  8.3752973E-03
   7103.33  8.6923000E-03
   7103.67  9.0344480E-03
   7104.00  9.4048748E-03
   7104.33  9.8120451E-03
   7104.67  1.0257248E-02
   7105.00  1.0746097E-02
   7105.33  1.1293157E-02
   7105.67  1.1902245E-02
   7106.00  1.2584511E-02
   7106.33  1.3367956E-02
   7106.67  1.4263700E-02
   7107.00  1.5297240E-02
   7107.33  1.6531524E-02
   7107.67  1.8002477E-02
   7108.00  1.9781611E-02
   7108.33  2.2047665E-02
   7108.67  2.4945944E-02
   7109.00  2.8751813E-02
   7109.33  3.4202692E-02
   7109.67  4.2174293E-02
   7110.00  5.4398443E-02
   7110.33  7.5846954E-02
   7110.67  1.1094027E-01
   7111.00  1.5599134E-01
   7111.33  1.8690910E-01
   7111.67  2.0268287E-01
   7112.00  2.1511692E-01
   7112.33  2.2602954E-01
   7112.67  2.2229958E-01
   7113.00  1.9961269E-01
   7113.33  1.7184316E-01
   7113.67  1.4906091E-01
   7114.00  1.3246861E-01
   7114.33  1.2257287E-01
   7114.67  1.1786807E-01
   7115.00  1.1762306E-01
   7115.33  1.2180256E-01
   7115.67  1.2976455E-01
   7116.00  1.4159297E-01
   7116.33  1.5806572E-01
   7116.67  1.7896116E-01
   7117.00  2.0415250E-01
   7117.33  2.3229522E-01
   7117.67  2.5876654E-01
   7118.00  2.7873892E-01
   7118.33  2.8829952E-01
   7118.67  2.9281737E-01
   7119.00  2.9965015E-01
   7119.33  3.1486635E-01
   7119.67  3.3788782E-01
   7120.00  3.6756237E-01
   7120.33  4.0239435E-01
   7120.67  4.3839699E-01
   7121.00  4.7164170E-01
   7121.33  4.9771299E-01
   7121.67  5.1649417E-01
   7122.00  5.2935487E-01
   7122.33  5.3956411E-01
   7122.67  5.5128271E-01
   7123.00  5.6652493E-01
   7123.33  5.8590349E-01
   7123.67  6.0717601E-01
   7124.00  6.2795221E-01
   7124.33  6.4490082E-01
   7124.67  6.5633233E-01
   7125.00  6.6180499E-01
   7125.33  6.6199490E-01
   7125.67  6.5944678E-01
   7126.00  6.5508529E-01
   7126.33  6.4839485E-01
   7126.67  6.3879204E-01
   7127.00  6.2586407E-01
   7127.33  6.0961323E-01
   7127.67  5.9170512E-01
   7128.00  5.7373558E-01
   7128.33  5.5782246E-01
   7128.67  5.4509732E-01
   7129.00  5.3605244E-01
   7129.33  5.3095037E-01
   7129.67  5.2865103E-01
   7130.00  5.2839356E-01
   7130.33  5.2949702E-01
   7130.67  5.3117058E-01
   7131.00  5.3304988E-01
   7131.33  5.3488485E-01
   7131.67  5.3655666E-01
   7132.00  5.3799610E-01
   7132.33  5.3907660E-01
   7132.67  5.3973929E-01
   7133.00  5.3989732E-01
   7133.33  5.3942763E-01
   7133.67  5.3841198E-01
   7134.00  5.3690675E-01
   7134.33  5.3497681E-01
   7134.67  5.3281790E-01
   7135.00  5.3056702E-01
   7135.33  5.2837239E-01
   7135.67  5.2632830E-01
   7136.00  5.2447968E-01
   7136.33  5.2285835E-01
   7136.67  5.2140821E-01
   7137.00  5.2008561E-01
   7137.33  5.1884333E-01
   7137.67  5.1762365E-01
   7138.00  5.1639839E-01
   7138.33  5.1515244E-01
   7138.67  5.1389441E-01
   7139.00  5.1263764E-01
   7139.33  5.1141090E-01
   7139.67  5.1024315E-01
   7140.00  5.0914999E-01
   7140.33  5.0814871E-01
   7140.67  5.0723400E-01
   7141.00  5.0640807E-01
   7141.33  5.0568024E-01
   7141.67  5.0503409E-01
   7142.00  5.0446311E-01
   7142.33  5.0396791E-01
   7142.67  5.0353364E-01
   7143.00  5.0315669E-01
   7143.33  5.0284314E-01
   7143.67  5.0258819E-01
   7144.00  5.0239510E-01
   7144.33  5.0227521E-01
   7144.67  5.0222082E-01
   7145.00  5.0222898E-01
   7145.33  5.0229845E-01
   7145.67  5.0240906E-01
   7146.00  5.0254493E-01
   7146.33  5.0268208E-01
   7146.67  5.0279213E-01
   7147.00  5.0285013E-01
   7147.33  5.0281781E-01
   7147.67  5.0267956E-01
   7148.00  5.0241691E-01
   7148.33  5.0199574E-01
   7148.67  5.0142279E-01
   7149.00  5.0069291E-01
   7149.33  4.9978398E-01
   7149.67  4.9871755E-01
   7150.00  4.9749823E-01
   7150.33  4.9611652E-01
   7150.67  4.9460170E-01
   7151.00  4.9296532E-01
   7151.33  4.9120876E-01
   7151.67  4.8936089E-01
   7152.00  4.8743551E-01
   7152.33  4.8544051E-01
   7152.67  4.8339880E-01
   7153.00  4.8132124E-01
   7153.33  4.7921092E-01
   7153.67  4.7707401E-01
   7154.00  4.7491152E-01
   7154.33  4.7272071E-01
   7154.67  4.7050494E-01
   7155.00  4.6826397E-01
   7155.33  4.6599302E-01
   7155.67  4.6369412E-01
   7156.00  4.6136684E-01
   7156.33  4.5900711E-01
   7156.67  4.5661856E-01
   7157.00  4.5420282E-01
   7157.33  4.5176069E-01
   7157.67  4.4929988E-01
   7158.00  4.4682534E-01
   7158.33  4.4434395E-01
   7158.67  4.4186634E-01
   7159.00  4.3940234E-01
   7159.33  4.3696740E-01
   7159.67  4.3457310E-01
   7160.00  4.3223622E-01
   7160.33  4.2998731E-01
   7160.67  4.2783689E-01
   7161.00  4.2580272E-01
   7161.33  4.2392155E-01
   7161.67  4.2219519E-01
   7162.00  4.2063918E-01
   7162.33  4.1929375E-01
   7162.67  4.1815010E-01
   7163.00  4.1721828E-01
   7163.33  4.1653445E-01
   7163.67  4.1607641E-01
   7164.00  4.1584670E-01
   7164.33  4.1587465E-01
   7164.67  4.1612966E-01
   7165.00  4.1660775E-01
   7165.33  4.1732854E-01
   7165.67  4.1825522E-01
   7166.00  4.1937769E-01
   7166.33  4.2070587E-01
   7166.67  4.2220301E-01
   7167.00  4.2385640E-01
   7167.33  4.2566783E-01
   7167.67  4.2760324E-01
   7168.00  4.2964836E-01
   7168.33  4.3179880E-01
   7168.67  4.3402697E-01
   7169.00  4.3631841E-01
   7169.33  4.3866023E-01
   7169.67  4.4102705E-01
   7170.00  4.4340038E-01
   7170.33  4.4575316E-01
   7170.67  4.4805711E-01
   7171.00  4.5027833E-01
   7171.33  4.5234229E-01
   7171.67  4.5417359E-01
   7172.00  4.5565843E-01
