    FDMNES
    energy     <xanes>
   7097.00  4.5210126E-03
   7097.33  4.6084945E-03
   7097.67  4.6991574E-03
   7098.00  4.7931801E-03
   7098.33  4.8912388E-03
   7098.67  4.9931359E-03
   7099.00  5.0991074E-03
   7099.33  5.2100035E-03
   7099.67  5.3256143E-03
   7100.00  5.4462601E-03
   7100.33  5.5730383E-03
   7100.67  5.7057357E-03
   7101.00  5.8448024E-03
   7101.33  5.9917004E-03
   7101.67  6.1462361E-03
   7102.00  6.3090689E-03
   7102.33  6.4822275E-03
   7102.67  6.6655901E-03
   7103.00  6.8601748E-03
   7103.33  7.0689456E-03
   7103.67  7.2919783E-03
   7104.00  7.5309507E-03
   7104.33  7.7904935E-03
   7104.67  8.0711945E-03
   7105.00  8.3760591E-03
   7105.33  8.7129884E-03
   7105.67  9.0839420E-03
   7106.00  9.4949205E-03
   7106.33  9.9611057E-03
   7106.67  1.0488486E-02
   7107.00  1.1090946E-02
   7107.33  1.1802895E-02
   7107.67  1.2644236E-02
   7108.00  1.3654594E-02
   7108.33  1.4933318E-02
   7108.67  1.6562668E-02
   7109.00  1.8698462E-02
   7109.33  2.1759505E-02
   7109.67  2.6250098E-02
   7110.00  3.3169844E-02
   7110.33  4.5422815E-02
   7110.67  6.5879432E-02
   7111.00  9.3441034E-02
   7111.33  1.1185525E-01
   7111.67  1.0999145E-01
   7112.00  9.8341480E-02
   7112.33  9.4516878E-02
   7112.67  1.0078233E-01
   7113.00  1.1466025E-01
   7113.33  1.1669635E-01
   7113.67  1.0007781E-01
   7114.00  7.9177868E-02
   7114.33  6.3873738E-02
   7114.67  5.3030241E-02
   7115.00  4.5846046E-02
   7115.33  4.2009298E-02
   7115.67  4.0215008E-02
   7116.00  3.9892197E-02
   7116.33  4.0806797E-02
   7116.67  4.2659522E-02
   7117.00  4.5437379E-02
   7117.33  4.9400289E-02
   7117.67  5.4711031E-02
   7118.00  6.1760030E-02
   7118.33  7.1403809E-02
   7118.67  8.3767775E-02
   7119.00  9.8533960E-02
   7119.33  1.1414963E-01
   7119.67  1.3035470E-01
   7120.00  1.5081065E-01
   7120.33  1.7905296E-01
   7120.67  2.1065316E-01
   7121.00  2.4233980E-01
   7121.33  2.7822400E-01
   7121.67  3.2359830E-01
   7122.00  3.7680737E-01
   7122.33  4.2626523E-01
   7122.67  4.6124790E-01
   7123.00  4.8110949E-01
   7123.33  4.9195821E-01
   7123.67  5.0309751E-01
   7124.00  5.2083786E-01
   7124.33  5.5142159E-01
   7124.67  5.9338944E-01
   7125.00  6.4370647E-01
   7125.33  6.9822319E-01
   7125.67  7.5186244E-01
   7126.00  7.9992961E-01
   7126.33  8.3414358E-01
   7126.67  8.5188654E-01
   7127.00  8.5509060E-01
   7127.33  8.5032631E-01
   7127.67  8.4551948E-01
   7128.00  8.4069690E-01
   7128.33  8.2825272E-01
   7128.67  8.0634405E-01
   7129.00  7.7932325E-01
   7129.33  7.5425215E-01
   7129.67  7.3530281E-01
   7130.00  7.2384526E-01
   7130.33  7.2028542E-01
   7130.67  7.2157700E-01
   7131.00  7.2533160E-01
   7131.33  7.2971507E-01
   7131.67  7.3424431E-01
   7132.00  7.3927546E-01
   7132.33  7.4502882E-01
   7132.67  7.5002123E-01
   7133.00  7.5153252E-01
   7133.33  7.4531771E-01
   7133.67  7.3108189E-01
   7134.00  7.1037101E-01
   7134.33  6.8618822E-01
   7134.67  6.6210297E-01
   7135.00  6.3988642E-01
   7135.33  6.2076172E-01
   7135.67  6.0429199E-01
   7136.00  5.8991329E-01
   7136.33  5.7689137E-01
   7136.67  5.6424836E-01
   7137.00  5.5150787E-01
   7137.33  5.3847348E-01
   7137.67  5.2541651E-01
   7138.00  5.1274677E-01
   7138.33  5.0110053E-01
   7138.67  4.9079445E-01
   7139.00  4.8207917E-01
   7139.33  4.7530515E-01
   7139.67  4.7022491E-01
   7140.00  4.6669231E-01
   7140.33  4.6459329E-01
   7140.67  4.6344721E-01
   7141.00  4.6299192E-01
   7141.33  4.6303092E-01
   7141.67  4.6332487E-01
   7142.00  4.6375931E-01
   7142.33  4.6423219E-01
   7142.67  4.6463514E-01
   7143.00  4.6486480E-01
   7143.33  4.6473785E-01
   7143.67  4.6413224E-01
   7144.00  4.6290815E-01
   7144.33  4.6082759E-01
   7144.67  4.5788718E-01
   7145.00  4.5405207E-01
   7145.33  4.4924682E-01
   7145.67  4.4370261E-01
   7146.00  4.3759807E-01
   7146.33  4.3116859E-01
   7146.67  4.2475851E-01
   7147.00  4.1863283E-01
   7147.33  4.1312675E-01
   7147.67  4.0835257E-01
   7148.00  4.0438264E-01
   7148.33  4.0131755E-01
   7148.67  3.9899628E-01
   7149.00  3.9734729E-01
   7149.33  3.9635776E-01
   7149.67  3.9584918E-01
   7150.00  3.9572454E-01
   7150.33  3.9589712E-01
   7150.67  3.9615696E-01
   7151.00  3.9628612E-01
   7151.33  3.9592999E-01
   7151.67  3.9485794E-01
   7152.00  3.9288784E-01
   7152.33  3.8981252E-01
   7152.67  3.8583087E-01
   7153.00  3.8111667E-01
   7153.33  3.7589111E-01
   7153.67  3.7052382E-01
   7154.00  3.6527699E-01
   7154.33  3.6047131E-01
   7154.67  3.5627867E-01
   7155.00  3.5283646E-01
   7155.33  3.5034213E-01
   7155.67  3.4871198E-01
   7156.00  3.4791625E-01
   7156.33  3.4797253E-01
   7156.67  3.4868143E-01
   7157.00  3.4994445E-01
   7157.33  3.5170499E-01
   7157.67  3.5380965E-01
   7158.00  3.5619200E-01
   7158.33  3.5882825E-01
   7158.67  3.6166598E-01
   7159.00  3.6470448E-01
   7159.33  3.6798847E-01
   7159.67  3.7152045E-01
   7160.00  3.7533035E-01
   7160.33  3.7949265E-01
   7160.67  3.8399921E-01
   7161.00  3.8887022E-01
   7161.33  3.9416763E-01
   7161.67  3.9984842E-01
   7162.00  4.0590549E-01
   7162.33  4.1235288E-01
   7162.67  4.1910411E-01
   7163.00  4.2611676E-01
   7163.33  4.3335565E-01
   7163.67  4.4072153E-01
   7164.00  4.4814010E-01
   7164.33  4.5551020E-01
   7164.67  4.6273530E-01
   7165.00  4.6972721E-01
   7165.33  4.7634982E-01
   7165.67  4.8256670E-01
   7166.00  4.8833223E-01
   7166.33  4.9356465E-01
   7166.67  4.9833535E-01
   7167.00  5.0268004E-01
   7167.33  5.0661860E-01
   7167.67  5.1027669E-01
   7168.00  5.1372671E-01
   7168.33  5.1703039E-01
   7168.67  5.2026679E-01
   7169.00  5.2347312E-01
   7169.33  5.2666966E-01
   7169.67  5.2985551E-01
   7170.00  5.3301266E-01
   7170.33  5.3609722E-01
   7170.67  5.3906830E-01
   7171.00  5.4187396E-01
   7171.33  5.4441115E-01
   7171.67  5.4661507E-01
   7172.00  5.4838798E-01
