    FDMNES
    energy     <xanes>
   7097.00  4.5298543E-03
   7097.33  4.6248977E-03
   7097.67  4.7236978E-03
   7098.00  4.8264804E-03
   7098.33  4.9340671E-03
   7098.67  5.0462425E-03
   7099.00  5.1633068E-03
   7099.33  5.2863060E-03
   7099.67  5.4150119E-03
   7100.00  5.5498349E-03
   7100.33  5.6921401E-03
   7100.67  5.8416983E-03
   7101.00  5.9990888E-03
   7101.33  6.1661486E-03
   7101.67  6.3426753E-03
   7102.00  6.5295193E-03
   7102.33  6.7292481E-03
   7102.67  6.9417505E-03
   7103.00  7.1683359E-03
   7103.33  7.4127681E-03
   7103.67  7.6751782E-03
   7104.00  7.9577066E-03
   7104.33  8.2662194E-03
   7104.67  8.6014614E-03
   7105.00  8.9672094E-03
   7105.33  9.3733698E-03
   7105.67  9.8222905E-03
   7106.00  1.0321339E-02
   7106.33  1.0889154E-02
   7106.67  1.1532656E-02
   7107.00  1.2268316E-02
   7107.33  1.3136921E-02
   7107.67  1.4160557E-02
   7108.00  1.5383974E-02
   7108.33  1.6918650E-02
   7108.67  1.8850873E-02
   7109.00  2.1344435E-02
   7109.33  2.4832048E-02
   7109.67  2.9801565E-02
   7110.00  3.7209915E-02
   7110.33  4.9824541E-02
   7110.67  7.0768439E-02
   7111.00  1.0164509E-01
   7111.33  1.3493417E-01
   7111.67  1.5522529E-01
   7112.00  1.5595279E-01
   7112.33  1.4872068E-01
   7112.67  1.4516424E-01
   7113.00  1.4459705E-01
   7113.33  1.3981259E-01
   7113.67  1.2594738E-01
   7114.00  1.0589060E-01
   7114.33  8.7819783E-02
   7114.67  7.6139271E-02
   7115.00  7.0914404E-02
   7115.33  7.1733388E-02
   7115.67  7.7526046E-02
   7116.00  8.8624379E-02
   7116.33  1.0622654E-01
   7116.67  1.2924433E-01
   7117.00  1.5599167E-01
   7117.33  1.8039779E-01
   7117.67  1.9773360E-01
   7118.00  2.1237467E-01
   7118.33  2.3600429E-01
   7118.67  2.7426647E-01
   7119.00  3.2258254E-01
   7119.33  3.5925047E-01
   7119.67  3.7099931E-01
   7120.00  3.6462487E-01
   7120.33  3.5323313E-01
   7120.67  3.4330214E-01
   7121.00  3.3483085E-01
   7121.33  3.2742585E-01
   7121.67  3.2272977E-01
   7122.00  3.2258070E-01
   7122.33  3.2763624E-01
   7122.67  3.3641590E-01
   7123.00  3.4908744E-01
   7123.33  3.6723306E-01
   7123.67  3.9029474E-01
   7124.00  4.1674952E-01
   7124.33  4.4327258E-01
   7124.67  4.6579355E-01
   7125.00  4.8135882E-01
   7125.33  4.8836023E-01
   7125.67  4.9015538E-01
   7126.00  4.8966794E-01
   7126.33  4.9045263E-01
   7126.67  4.9457833E-01
   7127.00  5.0210006E-01
   7127.33  5.1184331E-01
   7127.67  5.2251413E-01
   7128.00  5.3444312E-01
   7128.33  5.4892060E-01
   7128.67  5.6600803E-01
   7129.00  5.8475825E-01
   7129.33  6.0245949E-01
   7129.67  6.1635573E-01
   7130.00  6.2486091E-01
   7130.33  6.2634709E-01
   7130.67  6.2178127E-01
   7131.00  6.1267486E-01
   7131.33  6.0211124E-01
   7131.67  5.9376281E-01
   7132.00  5.8975873E-01
   7132.33  5.9160628E-01
   7132.67  5.9778631E-01
   7133.00  6.0642990E-01
   7133.33  6.1463635E-01
   7133.67  6.1988113E-01
   7134.00  6.2084981E-01
   7134.33  6.1696691E-01
   7134.67  6.1045871E-01
   7135.00  6.0355062E-01
   7135.33  5.9852542E-01
   7135.67  5.9595644E-01
   7136.00  5.9581872E-01
   7136.33  5.9824659E-01
   7136.67  6.0288544E-01
   7137.00  6.0954656E-01
   7137.33  6.1764190E-01
   7137.67  6.2553758E-01
   7138.00  6.3159293E-01
   7138.33  6.3362973E-01
   7138.67  6.3118447E-01
   7139.00  6.2431879E-01
   7139.33  6.1339086E-01
   7139.67  6.0001834E-01
   7140.00  5.8522873E-01
   7140.33  5.7010134E-01
   7140.67  5.5568917E-01
   7141.00  5.4274178E-01
   7141.33  5.3213387E-01
   7141.67  5.2384445E-01
   7142.00  5.1778474E-01
   7142.33  5.1385784E-01
   7142.67  5.1139432E-01
   7143.00  5.1003790E-01
   7143.33  5.0954596E-01
   7143.67  5.0958566E-01
   7144.00  5.1002181E-01
   7144.33  5.1076793E-01
   7144.67  5.1166468E-01
   7145.00  5.1257485E-01
   7145.33  5.1326331E-01
   7145.67  5.1349656E-01
   7146.00  5.1303758E-01
   7146.33  5.1152335E-01
   7146.67  5.0891961E-01
   7147.00  5.0520056E-01
   7147.33  5.0034203E-01
   7147.67  4.9469845E-01
   7148.00  4.8851572E-01
   7148.33  4.8204600E-01
   7148.67  4.7556725E-01
   7149.00  4.6924631E-01
   7149.33  4.6326139E-01
   7149.67  4.5766590E-01
   7150.00  4.5250498E-01
   7150.33  4.4786091E-01
   7150.67  4.4369109E-01
   7151.00  4.4000887E-01
   7151.33  4.3689389E-01
   7151.67  4.3429886E-01
   7152.00  4.3223438E-01
   7152.33  4.3077614E-01
   7152.67  4.2985022E-01
   7153.00  4.2943030E-01
   7153.33  4.2951518E-01
   7153.67  4.2997403E-01
   7154.00  4.3074161E-01
   7154.33  4.3178684E-01
   7154.67  4.3304625E-01
   7155.00  4.3451932E-01
   7155.33  4.3626189E-01
   7155.67  4.3828472E-01
   7156.00  4.4062107E-01
   7156.33  4.4333852E-01
   7156.67  4.4640133E-01
   7157.00  4.4980174E-01
   7157.33  4.5356078E-01
   7157.67  4.5761208E-01
   7158.00  4.6192306E-01
   7158.33  4.6645871E-01
   7158.67  4.7110005E-01
   7159.00  4.7574149E-01
   7159.33  4.8022690E-01
   7159.67  4.8443391E-01
   7160.00  4.8825908E-01
   7160.33  4.9155288E-01
   7160.67  4.9431203E-01
   7161.00  4.9650135E-01
   7161.33  4.9802088E-01
   7161.67  4.9893284E-01
   7162.00  4.9923792E-01
   7162.33  4.9887805E-01
   7162.67  4.9796162E-01
   7163.00  4.9653420E-01
   7163.33  4.9461162E-01
   7163.67  4.9233424E-01
   7164.00  4.8978080E-01
   7164.33  4.8701825E-01
   7164.67  4.8415118E-01
   7165.00  4.8123855E-01
   7165.33  4.7833671E-01
   7165.67  4.7548613E-01
   7166.00  4.7271348E-01
   7166.33  4.7005416E-01
   7166.67  4.6751142E-01
   7167.00  4.6509471E-01
   7167.33  4.6282897E-01
   7167.67  4.6070397E-01
   7168.00  4.5872479E-01
   7168.33  4.5691612E-01
   7168.67  4.5526441E-01
   7169.00  4.5377329E-01
   7169.33  4.5246528E-01
   7169.67  4.5132050E-01
   7170.00  4.5033835E-01
   7170.33  4.4953633E-01
   7170.67  4.4888888E-01
   7171.00  4.4838764E-01
   7171.33  4.4803258E-01
   7171.67  4.4778174E-01
   7172.00  4.4760444E-01
