    FDMNES
    energy     <xanes>
   7097.00  5.1160813E-03
   7097.33  5.2385520E-03
   7097.67  5.3666337E-03
   7098.00  5.5007071E-03
   7098.33  5.6420720E-03
   7098.67  5.7904637E-03
   7099.00  5.9464001E-03
   7099.33  6.1115800E-03
   7099.67  6.2857312E-03
   7100.00  6.4695770E-03
   7100.33  6.6653948E-03
   7100.67  6.8729300E-03
   7101.00  7.0932240E-03
   7101.33  7.3294233E-03
   7101.67  7.5813471E-03
   7102.00  7.8505508E-03
   7102.33  8.1415437E-03
   7102.67  8.4543440E-03
   7103.00  8.7913809E-03
   7103.33  9.1594141E-03
   7103.67  9.5589491E-03
   7104.00  9.9939952E-03
   7104.33  1.0475281E-02
   7104.67  1.1004497E-02
   7105.00  1.1588748E-02
   7105.33  1.2246382E-02
   7105.67  1.2982110E-02
   7106.00  1.3809784E-02
   7106.33  1.4764134E-02
   7106.67  1.5858391E-02
   7107.00  1.7123409E-02
   7107.33  1.8635305E-02
   7107.67  2.0435636E-02
   7108.00  2.2608275E-02
   7108.33  2.5362534E-02
   7108.67  2.8862977E-02
   7109.00  3.3423632E-02
   7109.33  3.9884162E-02
   7109.67  4.9228204E-02
   7110.00  6.3408192E-02
   7110.33  8.8043773E-02
   7110.67  1.2812816E-01
   7111.00  1.7857654E-01
   7111.33  2.0356429E-01
   7111.67  2.0594075E-01
   7112.00  2.1720095E-01
   7112.33  2.5630380E-01
   7112.67  3.0175952E-01
   7113.00  3.3265491E-01
   7113.33  3.5145109E-01
   7113.67  3.6085542E-01
   7114.00  3.8078923E-01
   7114.33  4.2693487E-01
   7114.67  4.5852528E-01
   7115.00  4.3874711E-01
   7115.33  3.7255454E-01
   7115.67  3.1222852E-01
   7116.00  2.8128722E-01
   7116.33  2.8244782E-01
   7116.67  2.9411783E-01
   7117.00  2.9746042E-01
   7117.33  2.8190418E-01
   7117.67  2.5636410E-01
   7118.00  2.2996629E-01
   7118.33  2.0886631E-01
   7118.67  1.9307319E-01
   7119.00  1.8181620E-01
   7119.33  1.7424355E-01
   7119.67  1.6841613E-01
   7120.00  1.6329207E-01
   7120.33  1.5805462E-01
   7120.67  1.5205494E-01
   7121.00  1.4521995E-01
   7121.33  1.3901189E-01
   7121.67  1.3514715E-01
   7122.00  1.3399165E-01
   7122.33  1.3522553E-01
   7122.67  1.3794190E-01
   7123.00  1.4176890E-01
   7123.33  1.4641292E-01
   7123.67  1.5140811E-01
   7124.00  1.5679723E-01
   7124.33  1.6330082E-01
   7124.67  1.7147155E-01
   7125.00  1.8167275E-01
   7125.33  1.9435296E-01
   7125.67  2.0928034E-01
   7126.00  2.2661204E-01
   7126.33  2.4723470E-01
   7126.67  2.7145475E-01
   7127.00  2.9972637E-01
   7127.33  3.3127076E-01
   7127.67  3.6078758E-01
   7128.00  3.8339508E-01
   7128.33  3.9765623E-01
   7128.67  4.0932065E-01
   7129.00  4.2286722E-01
   7129.33  4.4185276E-01
   7129.67  4.6647210E-01
   7130.00  4.9642982E-01
   7130.33  5.3161884E-01
   7130.67  5.7142433E-01
   7131.00  6.1648222E-01
   7131.33  6.6788430E-01
   7131.67  7.2395897E-01
   7132.00  7.8292002E-01
   7132.33  8.4248246E-01
   7132.67  9.0048772E-01
   7133.00  9.5552356E-01
   7133.33  1.0062750E+00
   7133.67  1.0532855E+00
   7134.00  1.0957568E+00
   7134.33  1.1263637E+00
   7134.67  1.1340436E+00
   7135.00  1.1094169E+00
   7135.33  1.0499561E+00
   7135.67  9.7302943E-01
   7136.00  8.9135199E-01
   7136.33  8.1466319E-01
   7136.67  7.4566729E-01
   7137.00  6.8455746E-01
   7137.33  6.3148148E-01
   7137.67  5.8474570E-01
   7138.00  5.4387791E-01
   7138.33  5.0927110E-01
   7138.67  4.8007850E-01
   7139.00  4.5617740E-01
   7139.33  4.3797589E-01
   7139.67  4.2448947E-01
   7140.00  4.1531188E-01
   7140.33  4.1034587E-01
   7140.67  4.0851322E-01
   7141.00  4.0929646E-01
   7141.33  4.1239896E-01
   7141.67  4.1709537E-01
   7142.00  4.2306980E-01
   7142.33  4.3017945E-01
   7142.67  4.3811507E-01
   7143.00  4.4676052E-01
   7143.33  4.5606187E-01
   7143.67  4.6578820E-01
   7144.00  4.7575226E-01
   7144.33  4.8565438E-01
   7144.67  4.9513984E-01
   7145.00  5.0387287E-01
   7145.33  5.1134868E-01
   7145.67  5.1743018E-01
   7146.00  5.2198955E-01
   7146.33  5.2484332E-01
   7146.67  5.2635201E-01
   7147.00  5.2677731E-01
   7147.33  5.2643747E-01
   7147.67  5.2585956E-01
   7148.00  5.2541693E-01
   7148.33  5.2557782E-01
   7148.67  5.2663367E-01
   7149.00  5.2885181E-01
   7149.33  5.3263507E-01
   7149.67  5.3792930E-01
   7150.00  5.4473393E-01
   7150.33  5.5307045E-01
   7150.67  5.6243994E-01
   7151.00  5.7242390E-01
   7151.33  5.8246830E-01
   7151.67  5.9204843E-01
   7152.00  6.0082322E-01
   7152.33  6.0843371E-01
   7152.67  6.1495775E-01
   7153.00  6.2046198E-01
   7153.33  6.2498980E-01
   7153.67  6.2882681E-01
   7154.00  6.3211394E-01
   7154.33  6.3493231E-01
   7154.67  6.3742742E-01
   7155.00  6.3964817E-01
   7155.33  6.4158928E-01
   7155.67  6.4328100E-01
   7156.00  6.4470730E-01
   7156.33  6.4580216E-01
   7156.67  6.4656934E-01
   7157.00  6.4698284E-01
   7157.33  6.4697309E-01
   7157.67  6.4657568E-01
   7158.00  6.4579008E-01
   7158.33  6.4457791E-01
   7158.67  6.4300325E-01
   7159.00  6.4108372E-01
   7159.33  6.3880014E-01
   7159.67  6.3621309E-01
   7160.00  6.3333868E-01
   7160.33  6.3016055E-01
   7160.67  6.2672717E-01
   7161.00  6.2304967E-01
   7161.33  6.1910583E-01
   7161.67  6.1492535E-01
   7162.00  6.1050569E-01
   7162.33  6.0581298E-01
   7162.67  6.0087307E-01
   7163.00  5.9568239E-01
   7163.33  5.9020767E-01
   7163.67  5.8448383E-01
   7164.00  5.7851902E-01
   7164.33  5.7229805E-01
   7164.67  5.6586358E-01
   7165.00  5.5922768E-01
   7165.33  5.5237852E-01
   7165.67  5.4535003E-01
   7166.00  5.3815164E-01
   7166.33  5.3077586E-01
   7166.67  5.2325793E-01
   7167.00  5.1561737E-01
   7167.33  5.0787314E-01
   7167.67  5.0007435E-01
   7168.00  4.9225843E-01
   7168.33  4.8447671E-01
   7168.67  4.7677563E-01
   7169.00  4.6920060E-01
   7169.33  4.6182851E-01
   7169.67  4.5469137E-01
   7170.00  4.4783453E-01
   7170.33  4.4135126E-01
   7170.67  4.3525645E-01
   7171.00  4.2960507E-01
   7171.33  4.2454936E-01
   7171.67  4.2016991E-01
   7172.00  4.1665203E-01
