    FDMNES
    energy     <xanes>
   7097.00  5.4537533E-03
   7097.33  5.5943340E-03
   7097.67  5.7417652E-03
   7098.00  5.8965385E-03
   7098.33  6.0602869E-03
   7098.67  6.2327254E-03
   7099.00  6.4145344E-03
   7099.33  6.6078843E-03
   7099.67  6.8124977E-03
   7100.00  7.0293439E-03
   7100.33  7.2613905E-03
   7100.67  7.5084126E-03
   7101.00  7.7718390E-03
   7101.33  8.0558668E-03
   7101.67  8.3604226E-03
   7102.00  8.6876990E-03
   7102.33  9.0438799E-03
   7102.67  9.4292646E-03
   7103.00  9.8473864E-03
   7103.33  1.0307826E-02
   7103.67  1.0811767E-02
   7104.00  1.1365259E-02
   7104.33  1.1984111E-02
   7104.67  1.2671653E-02
   7105.00  1.3439065E-02
   7105.33  1.4314648E-02
   7105.67  1.5307277E-02
   7106.00  1.6439806E-02
   7106.33  1.7768713E-02
   7106.67  1.9318843E-02
   7107.00  2.1143830E-02
   7107.33  2.3374962E-02
   7107.67  2.6091534E-02
   7108.00  2.9447412E-02
   7108.33  3.3826282E-02
   7108.67  3.9549565E-02
   7109.00  4.7221888E-02
   7109.33  5.8465994E-02
   7109.67  7.5240235E-02
   7110.00  1.0141799E-01
   7110.33  1.4811582E-01
   7110.67  2.2487002E-01
   7111.00  3.2129571E-01
   7111.33  3.7912855E-01
   7111.67  4.0199107E-01
   7112.00  4.2215647E-01
   7112.33  4.4454370E-01
   7112.67  4.4795298E-01
   7113.00  4.2117192E-01
   7113.33  3.7497845E-01
   7113.67  3.2351186E-01
   7114.00  2.7139772E-01
   7114.33  2.2742630E-01
   7114.67  1.9560197E-01
   7115.00  1.7483659E-01
   7115.33  1.6190966E-01
   7115.67  1.5205199E-01
   7116.00  1.4366471E-01
   7116.33  1.3739007E-01
   7116.67  1.3407116E-01
   7117.00  1.3402932E-01
   7117.33  1.3710567E-01
   7117.67  1.4185221E-01
   7118.00  1.4729341E-01
   7118.33  1.5270282E-01
   7118.67  1.5826387E-01
   7119.00  1.6464343E-01
   7119.33  1.7202413E-01
   7119.67  1.8027801E-01
   7120.00  1.9046438E-01
   7120.33  2.0438057E-01
   7120.67  2.2206268E-01
   7121.00  2.4341051E-01
   7121.33  2.6924449E-01
   7121.67  2.9961993E-01
   7122.00  3.3448801E-01
   7122.33  3.7290560E-01
   7122.67  4.1164994E-01
   7123.00  4.4813081E-01
   7123.33  4.7923140E-01
   7123.67  5.0323066E-01
   7124.00  5.1960718E-01
   7124.33  5.3064904E-01
   7124.67  5.4146934E-01
   7125.00  5.5477731E-01
   7125.33  5.7221520E-01
   7125.67  5.9298842E-01
   7126.00  6.1572206E-01
   7126.33  6.3730255E-01
   7126.67  6.5402592E-01
   7127.00  6.6362608E-01
   7127.33  6.6614728E-01
   7127.67  6.6602659E-01
   7128.00  6.6636597E-01
   7128.33  6.7033954E-01
   7128.67  6.7940406E-01
   7129.00  6.9383987E-01
   7129.33  7.1289663E-01
   7129.67  7.3372724E-01
   7130.00  7.5315738E-01
   7130.33  7.6492170E-01
   7130.67  7.6478975E-01
   7131.00  7.5104257E-01
   7131.33  7.2435479E-01
   7131.67  6.9154752E-01
   7132.00  6.5789050E-01
   7132.33  6.2844486E-01
   7132.67  6.0491795E-01
   7133.00  5.8777409E-01
   7133.33  5.7726888E-01
   7133.67  5.7113653E-01
   7134.00  5.6771556E-01
   7134.33  5.6588061E-01
   7134.67  5.6508293E-01
   7135.00  5.6547795E-01
   7135.33  5.6744954E-01
   7135.67  5.7063263E-01
   7136.00  5.7446900E-01
   7136.33  5.7798320E-01
   7136.67  5.8031444E-01
   7137.00  5.8113270E-01
   7137.33  5.8049781E-01
   7137.67  5.7904878E-01
   7138.00  5.7713955E-01
   7138.33  5.7497407E-01
   7138.67  5.7262206E-01
   7139.00  5.7002396E-01
   7139.33  5.6708960E-01
   7139.67  5.6393017E-01
   7140.00  5.6071799E-01
   7140.33  5.5770403E-01
   7140.67  5.5498425E-01
   7141.00  5.5249223E-01
   7141.33  5.4993686E-01
   7141.67  5.4688273E-01
   7142.00  5.4290025E-01
   7142.33  5.3735612E-01
   7142.67  5.3011413E-01
   7143.00  5.2111111E-01
   7143.33  5.1037544E-01
   7143.67  4.9860159E-01
   7144.00  4.8634773E-01
   7144.33  4.7428079E-01
   7144.67  4.6289393E-01
   7145.00  4.5247225E-01
   7145.33  4.4331462E-01
   7145.67  4.3530142E-01
   7146.00  4.2838749E-01
   7146.33  4.2262286E-01
   7146.67  4.1781065E-01
   7147.00  4.1391222E-01
   7147.33  4.1101686E-01
   7147.67  4.0900396E-01
   7148.00  4.0786424E-01
   7148.33  4.0767771E-01
   7148.67  4.0828465E-01
   7149.00  4.0960977E-01
   7149.33  4.1160086E-01
   7149.67  4.1401294E-01
   7150.00  4.1666748E-01
   7150.33  4.1933973E-01
   7150.67  4.2180272E-01
   7151.00  4.2388337E-01
   7151.33  4.2535969E-01
   7151.67  4.2621617E-01
   7152.00  4.2645176E-01
   7152.33  4.2608102E-01
   7152.67  4.2532376E-01
   7153.00  4.2433598E-01
   7153.33  4.2327080E-01
   7153.67  4.2223217E-01
   7154.00  4.2123049E-01
   7154.33  4.2019738E-01
   7154.67  4.1901781E-01
   7155.00  4.1757699E-01
   7155.33  4.1571132E-01
   7155.67  4.1339330E-01
   7156.00  4.1059995E-01
   7156.33  4.0729246E-01
   7156.67  4.0358301E-01
   7157.00  3.9953460E-01
   7157.33  3.9519154E-01
   7157.67  3.9065925E-01
   7158.00  3.8599273E-01
   7158.33  3.8123559E-01
   7158.67  3.7644266E-01
   7159.00  3.7164920E-01
   7159.33  3.6690228E-01
   7159.67  3.6224405E-01
   7160.00  3.5772149E-01
   7160.33  3.5342218E-01
   7160.67  3.4938934E-01
   7161.00  3.4568212E-01
   7161.33  3.4241657E-01
   7161.67  3.3960459E-01
   7162.00  3.3729052E-01
   7162.33  3.3558140E-01
   7162.67  3.3443295E-01
   7163.00  3.3384823E-01
   7163.33  3.3387761E-01
   7163.67  3.3441529E-01
   7164.00  3.3542154E-01
   7164.33  3.3689303E-01
   7164.67  3.3871464E-01
   7165.00  3.4083000E-01
   7165.33  3.4320602E-01
   7165.67  3.4576082E-01
   7166.00  3.4845898E-01
   7166.33  3.5128645E-01
   7166.67  3.5421306E-01
   7167.00  3.5723306E-01
   7167.33  3.6035745E-01
   7167.67  3.6357729E-01
   7168.00  3.6689548E-01
   7168.33  3.7032772E-01
   7168.67  3.7386234E-01
   7169.00  3.7749758E-01
   7169.33  3.8123973E-01
   7169.67  3.8506627E-01
   7170.00  3.8896279E-01
   7170.33  3.9291061E-01
   7170.67  3.9686612E-01
   7171.00  4.0077724E-01
   7171.33  4.0452112E-01
   7171.67  4.0792376E-01
   7172.00  4.1073112E-01
