    FDMNES
    energy     <xanes>
   7097.00  5.1658877E-03
   7097.33  5.2944336E-03
   7097.67  5.4290825E-03
   7098.00  5.5702639E-03
   7098.33  5.7194187E-03
   7098.67  5.8762811E-03
   7099.00  6.0414425E-03
   7099.33  6.2168066E-03
   7099.67  6.4021090E-03
   7100.00  6.5981864E-03
   7100.33  6.8076235E-03
   7100.67  7.0301921E-03
   7101.00  7.2671144E-03
   7101.33  7.5220148E-03
   7101.67  7.7947779E-03
   7102.00  8.0872589E-03
   7102.33  8.4047407E-03
   7102.67  8.7473900E-03
   7103.00  9.1181566E-03
   7103.33  9.5251134E-03
   7103.67  9.9690983E-03
   7104.00  1.0455075E-02
   7104.33  1.0996133E-02
   7104.67  1.1594720E-02
   7105.00  1.2259816E-02
   7105.33  1.3014317E-02
   7105.67  1.3864765E-02
   7106.00  1.4829006E-02
   7106.33  1.5951376E-02
   7106.67  1.7249895E-02
   7107.00  1.8764951E-02
   7107.33  2.0595562E-02
   7107.67  2.2797498E-02
   7108.00  2.5481230E-02
   7108.33  2.8920964E-02
   7108.67  3.3332479E-02
   7109.00  3.9123390E-02
   7109.33  4.7373202E-02
   7109.67  5.9317075E-02
   7110.00  7.7383297E-02
   7110.33  1.0853872E-01
   7110.67  1.5962225E-01
   7111.00  2.2925359E-01
   7111.33  2.8977919E-01
   7111.67  3.2730585E-01
   7112.00  3.4976234E-01
   7112.33  3.7319181E-01
   7112.67  4.0304053E-01
   7113.00  4.4004237E-01
   7113.33  4.7002508E-01
   7113.67  4.6103559E-01
   7114.00  4.0431493E-01
   7114.33  3.2932093E-01
   7114.67  2.6588257E-01
   7115.00  2.1955645E-01
   7115.33  1.8920875E-01
   7115.67  1.6803583E-01
   7116.00  1.5220015E-01
   7116.33  1.3895211E-01
   7116.67  1.2746583E-01
   7117.00  1.1861935E-01
   7117.33  1.1313481E-01
   7117.67  1.0992856E-01
   7118.00  1.0836265E-01
   7118.33  1.0832303E-01
   7118.67  1.0945768E-01
   7119.00  1.1122330E-01
   7119.33  1.1275999E-01
   7119.67  1.1423705E-01
   7120.00  1.1667169E-01
   7120.33  1.2147609E-01
   7120.67  1.2885697E-01
   7121.00  1.3863682E-01
   7121.33  1.5057107E-01
   7121.67  1.6435614E-01
   7122.00  1.8065963E-01
   7122.33  2.0101958E-01
   7122.67  2.2480155E-01
   7123.00  2.5023106E-01
   7123.33  2.7486262E-01
   7123.67  2.9783497E-01
   7124.00  3.1961731E-01
   7124.33  3.4094468E-01
   7124.67  3.6151099E-01
   7125.00  3.8008325E-01
   7125.33  3.9533550E-01
   7125.67  4.0860401E-01
   7126.00  4.2199713E-01
   7126.33  4.3822996E-01
   7126.67  4.5807691E-01
   7127.00  4.8107881E-01
   7127.33  5.0556271E-01
   7127.67  5.2918610E-01
   7128.00  5.5076097E-01
   7128.33  5.7005468E-01
   7128.67  5.8895748E-01
   7129.00  6.0988244E-01
   7129.33  6.3625556E-01
   7129.67  6.6852179E-01
   7130.00  7.0505719E-01
   7130.33  7.4096596E-01
   7130.67  7.6998168E-01
   7131.00  7.8741245E-01
   7131.33  7.8922455E-01
   7131.67  7.7965026E-01
   7132.00  7.6402008E-01
   7132.33  7.4928376E-01
   7132.67  7.3991450E-01
   7133.00  7.3726098E-01
   7133.33  7.4132781E-01
   7133.67  7.4902655E-01
   7134.00  7.5770177E-01
   7134.33  7.6448694E-01
   7134.67  7.6808880E-01
   7135.00  7.6777127E-01
   7135.33  7.6256576E-01
   7135.67  7.5344104E-01
   7136.00  7.4143398E-01
   7136.33  7.2778417E-01
   7136.67  7.1378212E-01
   7137.00  7.0000801E-01
   7137.33  6.8693939E-01
   7137.67  6.7477331E-01
   7138.00  6.6370478E-01
   7138.33  6.5406677E-01
   7138.67  6.4578730E-01
   7139.00  6.3884610E-01
   7139.33  6.3324249E-01
   7139.67  6.2856724E-01
   7140.00  6.2455978E-01
   7140.33  6.2100625E-01
   7140.67  6.1771093E-01
   7141.00  6.1469604E-01
   7141.33  6.1222833E-01
   7141.67  6.1056759E-01
   7142.00  6.0997393E-01
   7142.33  6.1074348E-01
   7142.67  6.1258273E-01
   7143.00  6.1509105E-01
   7143.33  6.1747848E-01
   7143.67  6.1876375E-01
   7144.00  6.1808524E-01
   7144.33  6.1434593E-01
   7144.67  6.0762570E-01
   7145.00  5.9818212E-01
   7145.33  5.8651711E-01
   7145.67  5.7383870E-01
   7146.00  5.6094517E-01
   7146.33  5.4865054E-01
   7146.67  5.3738052E-01
   7147.00  5.2736230E-01
   7147.33  5.1884575E-01
   7147.67  5.1161123E-01
   7148.00  5.0555050E-01
   7148.33  5.0062283E-01
   7148.67  4.9651592E-01
   7149.00  4.9306751E-01
   7149.33  4.9015602E-01
   7149.67  4.8756073E-01
   7150.00  4.8516821E-01
   7150.33  4.8289426E-01
   7150.67  4.8066569E-01
   7151.00  4.7845689E-01
   7151.33  4.7626328E-01
   7151.67  4.7409883E-01
   7152.00  4.7199537E-01
   7152.33  4.7002982E-01
   7152.67  4.6827722E-01
   7153.00  4.6683634E-01
   7153.33  4.6589198E-01
   7153.67  4.6551590E-01
   7154.00  4.6579747E-01
   7154.33  4.6688673E-01
   7154.67  4.6868973E-01
   7155.00  4.7114435E-01
   7155.33  4.7417802E-01
   7155.67  4.7753389E-01
   7156.00  4.8101609E-01
   7156.33  4.8436624E-01
   7156.67  4.8736416E-01
   7157.00  4.8982947E-01
   7157.33  4.9149377E-01
   7157.67  4.9229955E-01
   7158.00  4.9214494E-01
   7158.33  4.9080541E-01
   7158.67  4.8834926E-01
   7159.00  4.8475029E-01
   7159.33  4.7987757E-01
   7159.67  4.7393568E-01
   7160.00  4.6702447E-01
   7160.33  4.5921211E-01
   7160.67  4.5081379E-01
   7161.00  4.4203886E-01
   7161.33  4.3312762E-01
   7161.67  4.2433602E-01
   7162.00  4.1583577E-01
   7162.33  4.0783203E-01
   7162.67  4.0038119E-01
   7163.00  3.9355412E-01
   7163.33  3.8748359E-01
   7163.67  3.8210237E-01
   7164.00  3.7740456E-01
   7164.33  3.7344602E-01
   7164.67  3.7010365E-01
   7165.00  3.6733423E-01
   7165.33  3.6514512E-01
   7165.67  3.6341205E-01
   7166.00  3.6208455E-01
   7166.33  3.6115095E-01
   7166.67  3.6051686E-01
   7167.00  3.6014379E-01
   7167.33  3.6002157E-01
   7167.67  3.6009145E-01
   7168.00  3.6033182E-01
   7168.33  3.6074136E-01
   7168.67  3.6128645E-01
   7169.00  3.6195774E-01
   7169.33  3.6276123E-01
   7169.67  3.6367546E-01
   7170.00  3.6469510E-01
   7170.33  3.6582451E-01
   7170.67  3.6703849E-01
   7171.00  3.6831690E-01
   7171.33  3.6961643E-01
   7171.67  3.7084268E-01
   7172.00  3.7186833E-01
