    FDMNES
    energy     <xanes>
   7097.00  4.9279728E-03
   7097.33  5.0399390E-03
   7097.67  5.1567132E-03
   7098.00  5.2786012E-03
   7098.33  5.4066819E-03
   7098.67  5.5407003E-03
   7099.00  5.6810648E-03
   7099.33  5.8291616E-03
   7099.67  5.9847195E-03
   7100.00  6.1482981E-03
   7100.33  6.3217191E-03
   7100.67  6.5047091E-03
   7101.00  6.6980566E-03
   7101.33  6.9042215E-03
   7101.67  7.1229609E-03
   7102.00  7.3554231E-03
   7102.33  7.6050418E-03
   7102.67  7.8716775E-03
   7103.00  8.1570718E-03
   7103.33  8.4662162E-03
   7103.67  8.7992411E-03
   7104.00  9.1589249E-03
   7104.33  9.5529052E-03
   7104.67  9.9819783E-03
   7105.00  1.0450874E-02
   7105.33  1.0972086E-02
   7105.67  1.1548094E-02
   7106.00  1.2187675E-02
   7106.33  1.2913234E-02
   7106.67  1.3731855E-02
   7107.00  1.4661957E-02
   7107.33  1.5749443E-02
   7107.67  1.7016081E-02
   7108.00  1.8508438E-02
   7108.33  2.0342719E-02
   7108.67  2.2601252E-02
   7109.00  2.5444529E-02
   7109.33  2.9297201E-02
   7109.67  3.4625022E-02
   7110.00  4.2350856E-02
   7110.33  5.5072722E-02
   7110.67  7.4774919E-02
   7111.00  9.8781236E-02
   7111.33  1.1681157E-01
   7111.67  1.3277015E-01
   7112.00  1.5424761E-01
   7112.33  1.7160094E-01
   7112.67  1.8883800E-01
   7113.00  2.2810401E-01
   7113.33  2.9539235E-01
   7113.67  3.5574282E-01
   7114.00  3.7467530E-01
   7114.33  3.6549854E-01
   7114.67  3.6352672E-01
   7115.00  3.7152156E-01
   7115.33  4.0309669E-01
   7115.67  4.5398819E-01
   7116.00  4.7946200E-01
   7116.33  4.2306407E-01
   7116.67  3.3127655E-01
   7117.00  2.4980169E-01
   7117.33  1.9513082E-01
   7117.67  1.5929938E-01
   7118.00  1.3717465E-01
   7118.33  1.2614382E-01
   7118.67  1.2235240E-01
   7119.00  1.2264166E-01
   7119.33  1.2412488E-01
   7119.67  1.2838008E-01
   7120.00  1.3789560E-01
   7120.33  1.5482213E-01
   7120.67  1.7868006E-01
   7121.00  2.0878486E-01
   7121.33  2.4226204E-01
   7121.67  2.7238093E-01
   7122.00  2.9322403E-01
   7122.33  3.0035177E-01
   7122.67  2.9789550E-01
   7123.00  2.9001748E-01
   7123.33  2.8053876E-01
   7123.67  2.7193559E-01
   7124.00  2.6520652E-01
   7124.33  2.6134287E-01
   7124.67  2.6067575E-01
   7125.00  2.6389539E-01
   7125.33  2.7239191E-01
   7125.67  2.8630214E-01
   7126.00  3.0572161E-01
   7126.33  3.2953610E-01
   7126.67  3.5400481E-01
   7127.00  3.7653279E-01
   7127.33  3.9557769E-01
   7127.67  4.1222437E-01
   7128.00  4.2752184E-01
   7128.33  4.4231655E-01
   7128.67  4.5712138E-01
   7129.00  4.7199692E-01
   7129.33  4.8657792E-01
   7129.67  5.0024186E-01
   7130.00  5.1241152E-01
   7130.33  5.2268619E-01
   7130.67  5.3218025E-01
   7131.00  5.4259953E-01
   7131.33  5.5648473E-01
   7131.67  5.7499377E-01
   7132.00  5.9879488E-01
   7132.33  6.2762571E-01
   7132.67  6.5832470E-01
   7133.00  6.8842894E-01
   7133.33  7.1569392E-01
   7133.67  7.3956141E-01
   7134.00  7.5979697E-01
   7134.33  7.7607372E-01
   7134.67  7.8930667E-01
   7135.00  8.0006894E-01
   7135.33  8.0874693E-01
   7135.67  8.1597841E-01
   7136.00  8.2191953E-01
   7136.33  8.2640693E-01
   7136.67  8.2946615E-01
   7137.00  8.3093334E-01
   7137.33  8.3041295E-01
   7137.67  8.2802374E-01
   7138.00  8.2376094E-01
   7138.33  8.1749120E-01
   7138.67  8.0960435E-01
   7139.00  8.0027789E-01
   7139.33  7.8957466E-01
   7139.67  7.7785177E-01
   7140.00  7.6526639E-01
   7140.33  7.5189069E-01
   7140.67  7.3795211E-01
   7141.00  7.2355833E-01
   7141.33  7.0877985E-01
   7141.67  6.9376157E-01
   7142.00  6.7858322E-01
   7142.33  6.6332063E-01
   7142.67  6.4807037E-01
   7143.00  6.3292026E-01
   7143.33  6.1799173E-01
   7143.67  6.0331607E-01
   7144.00  5.8893120E-01
   7144.33  5.7494226E-01
   7144.67  5.6138047E-01
   7145.00  5.4831296E-01
   7145.33  5.3588266E-01
   7145.67  5.2407985E-01
   7146.00  5.1294636E-01
   7146.33  5.0260494E-01
   7146.67  4.9298898E-01
   7147.00  4.8410858E-01
   7147.33  4.7606076E-01
   7147.67  4.6875364E-01
   7148.00  4.6218764E-01
   7148.33  4.5645809E-01
   7148.67  4.5147741E-01
   7149.00  4.4725178E-01
   7149.33  4.4388084E-01
   7149.67  4.4126332E-01
   7150.00  4.3937532E-01
   7150.33  4.3824475E-01
   7150.67  4.3770283E-01
   7151.00  4.3765685E-01
   7151.33  4.3802864E-01
   7151.67  4.3863711E-01
   7152.00  4.3936321E-01
   7152.33  4.4006410E-01
   7152.67  4.4060151E-01
   7153.00  4.4085666E-01
   7153.33  4.4065597E-01
   7153.67  4.3994977E-01
   7154.00  4.3867606E-01
   7154.33  4.3672742E-01
   7154.67  4.3419788E-01
   7155.00  4.3114766E-01
   7155.33  4.2763338E-01
   7155.67  4.2384481E-01
   7156.00  4.1991868E-01
   7156.33  4.1602369E-01
   7156.67  4.1230894E-01
   7157.00  4.0888156E-01
   7157.33  4.0587261E-01
   7157.67  4.0326823E-01
   7158.00  4.0105336E-01
   7158.33  3.9920687E-01
   7158.67  3.9759042E-01
   7159.00  3.9610491E-01
   7159.33  3.9463662E-01
   7159.67  3.9308588E-01
   7160.00  3.9139279E-01
   7160.33  3.8950150E-01
   7160.67  3.8745100E-01
   7161.00  3.8529477E-01
   7161.33  3.8312663E-01
   7161.67  3.8106518E-01
   7162.00  3.7921683E-01
   7162.33  3.7774011E-01
   7162.67  3.7669176E-01
   7163.00  3.7613294E-01
   7163.33  3.7617259E-01
   7163.67  3.7675718E-01
   7164.00  3.7787857E-01
   7164.33  3.7957448E-01
   7164.67  3.8174221E-01
   7165.00  3.8434195E-01
   7165.33  3.8737067E-01
   7165.67  3.9072700E-01
   7166.00  3.9436392E-01
   7166.33  3.9825563E-01
   7166.67  4.0232064E-01
   7167.00  4.0651374E-01
   7167.33  4.1079201E-01
   7167.67  4.1509379E-01
   7168.00  4.1937438E-01
   7168.33  4.2357367E-01
   7168.67  4.2765160E-01
   7169.00  4.3156833E-01
   7169.33  4.3525598E-01
   7169.67  4.3870339E-01
   7170.00  4.4188483E-01
   7170.33  4.4474210E-01
   7170.67  4.4729699E-01
   7171.00  4.4954213E-01
   7171.33  4.5143121E-01
   7171.67  4.5299118E-01
   7172.00  4.5420478E-01
