    FDMNES
    energy     <xanes>
   7097.00  5.1423540E-03
   7097.33  5.2660000E-03
   7097.67  5.3953174E-03
   7098.00  5.5306967E-03
   7098.33  5.6734627E-03
   7098.67  5.8233580E-03
   7099.00  5.9809195E-03
   7099.33  6.1478921E-03
   7099.67  6.3240197E-03
   7100.00  6.5100625E-03
   7100.33  6.7083853E-03
   7100.67  6.9187668E-03
   7101.00  7.1423206E-03
   7101.33  7.3823630E-03
   7101.67  7.6387823E-03
   7102.00  7.9132778E-03
   7102.33  8.2106961E-03
   7102.67  8.5312018E-03
   7103.00  8.8775192E-03
   7103.33  9.2570997E-03
   7103.67  9.6707700E-03
   7104.00  1.0123170E-02
   7104.33  1.0626503E-02
   7104.67  1.1183202E-02
   7105.00  1.1801792E-02
   7105.33  1.2503936E-02
   7105.67  1.3296189E-02
   7106.00  1.4195816E-02
   7106.33  1.5245559E-02
   7106.67  1.6463635E-02
   7107.00  1.7889884E-02
   7107.33  1.9621713E-02
   7107.67  2.1715733E-02
   7108.00  2.4282433E-02
   7108.33  2.7595115E-02
   7108.67  3.1870243E-02
   7109.00  3.7512292E-02
   7109.33  4.5581213E-02
   7109.67  5.7258007E-02
   7110.00  7.4834613E-02
   7110.33  1.0491044E-01
   7110.67  1.5538866E-01
   7111.00  2.3357613E-01
   7111.33  3.3731318E-01
   7111.67  4.3696610E-01
   7112.00  4.7396398E-01
   7112.33  3.9417797E-01
   7112.67  2.8770884E-01
   7113.00  2.0669473E-01
   7113.33  1.5811776E-01
   7113.67  1.2748242E-01
   7114.00  1.0812456E-01
   7114.33  9.6488310E-02
   7114.67  8.9003216E-02
   7115.00  8.4173719E-02
   7115.33  8.1753567E-02
   7115.67  8.1398977E-02
   7116.00  8.3046428E-02
   7116.33  8.7052960E-02
   7116.67  9.3512749E-02
   7117.00  1.0294825E-01
   7117.33  1.1661730E-01
   7117.67  1.3462245E-01
   7118.00  1.5638346E-01
   7118.33  1.7902970E-01
   7118.67  1.9843683E-01
   7119.00  2.1163926E-01
   7119.33  2.1748194E-01
   7119.67  2.2268494E-01
   7120.00  2.3324847E-01
   7120.33  2.5417486E-01
   7120.67  2.8551014E-01
   7121.00  3.2700872E-01
   7121.33  3.7743510E-01
   7121.67  4.3118902E-01
   7122.00  4.8406794E-01
   7122.33  5.3380138E-01
   7122.67  5.8218058E-01
   7123.00  6.3001234E-01
   7123.33  6.7351574E-01
   7123.67  7.0707449E-01
   7124.00  7.2812800E-01
   7124.33  7.3723740E-01
   7124.67  7.3812310E-01
   7125.00  7.3098748E-01
   7125.33  7.1522543E-01
   7125.67  6.9456165E-01
   7126.00  6.7234701E-01
   7126.33  6.5149779E-01
   7126.67  6.3280994E-01
   7127.00  6.1627680E-01
   7127.33  6.0183498E-01
   7127.67  5.8861901E-01
   7128.00  5.7581933E-01
   7128.33  5.6253437E-01
   7128.67  5.4855173E-01
   7129.00  5.3414650E-01
   7129.33  5.1986070E-01
   7129.67  5.0610750E-01
   7130.00  4.9315539E-01
   7130.33  4.8149655E-01
   7130.67  4.7144762E-01
   7131.00  4.6343588E-01
   7131.33  4.5815685E-01
   7131.67  4.5546574E-01
   7132.00  4.5529614E-01
   7132.33  4.5765149E-01
   7132.67  4.6181537E-01
   7133.00  4.6735455E-01
   7133.33  4.7389300E-01
   7133.67  4.8093261E-01
   7134.00  4.8827741E-01
   7134.33  4.9595024E-01
   7134.67  5.0415502E-01
   7135.00  5.1326275E-01
   7135.33  5.2391789E-01
   7135.67  5.3623050E-01
   7136.00  5.5013289E-01
   7136.33  5.6526909E-01
   7136.67  5.8067623E-01
   7137.00  5.9554443E-01
   7137.33  6.0883314E-01
   7137.67  6.2007570E-01
   7138.00  6.2895364E-01
   7138.33  6.3506526E-01
   7138.67  6.3886761E-01
   7139.00  6.4060430E-01
   7139.33  6.4044107E-01
   7139.67  6.3901514E-01
   7140.00  6.3664558E-01
   7140.33  6.3352616E-01
   7140.67  6.2992057E-01
   7141.00  6.2592270E-01
   7141.33  6.2155363E-01
   7141.67  6.1688777E-01
   7142.00  6.1194507E-01
   7142.33  6.0671802E-01
   7142.67  6.0126661E-01
   7143.00  5.9561937E-01
   7143.33  5.8979485E-01
   7143.67  5.8385768E-01
   7144.00  5.7785265E-01
   7144.33  5.7183747E-01
   7144.67  5.6587756E-01
   7145.00  5.6003015E-01
   7145.33  5.5438189E-01
   7145.67  5.4896882E-01
   7146.00  5.4383252E-01
   7146.33  5.3904756E-01
   7146.67  5.3459475E-01
   7147.00  5.3047806E-01
   7147.33  5.2672842E-01
   7147.67  5.2328188E-01
   7148.00  5.2011003E-01
   7148.33  5.1720006E-01
   7148.67  5.1447360E-01
   7149.00  5.1188640E-01
   7149.33  5.0939898E-01
   7149.67  5.0695279E-01
   7150.00  5.0451050E-01
   7150.33  5.0202766E-01
   7150.67  4.9947236E-01
   7151.00  4.9681570E-01
   7151.33  4.9400863E-01
   7151.67  4.9103626E-01
   7152.00  4.8787258E-01
   7152.33  4.8446235E-01
   7152.67  4.8080926E-01
   7153.00  4.7689699E-01
   7153.33  4.7267661E-01
   7153.67  4.6817297E-01
   7154.00  4.6338302E-01
   7154.33  4.5827489E-01
   7154.67  4.5289647E-01
   7155.00  4.4726560E-01
   7155.33  4.4138246E-01
   7155.67  4.3531005E-01
   7156.00  4.2908219E-01
   7156.33  4.2272692E-01
   7156.67  4.1630289E-01
   7157.00  4.0984904E-01
   7157.33  4.0341130E-01
   7157.67  3.9703088E-01
   7158.00  3.9074360E-01
   7158.33  3.8460466E-01
   7158.67  3.7863367E-01
   7159.00  3.7286001E-01
   7159.33  3.6734162E-01
   7159.67  3.6207340E-01
   7160.00  3.5707377E-01
   7160.33  3.5239986E-01
   7160.67  3.4803306E-01
   7161.00  3.4398587E-01
   7161.33  3.4031254E-01
   7161.67  3.3698300E-01
   7162.00  3.3400644E-01
   7162.33  3.3143797E-01
   7162.67  3.2924231E-01
   7163.00  3.2742945E-01
   7163.33  3.2606231E-01
   7163.67  3.2510619E-01
   7164.00  3.2457438E-01
   7164.33  3.2453791E-01
   7164.67  3.2495815E-01
   7165.00  3.2584867E-01
   7165.33  3.2728357E-01
   7165.67  3.2921125E-01
   7166.00  3.3163428E-01
   7166.33  3.3461039E-01
   7166.67  3.3806642E-01
   7167.00  3.4198538E-01
   7167.33  3.4639378E-01
   7167.67  3.5120016E-01
   7168.00  3.5636553E-01
   7168.33  3.6187565E-01
   7168.67  3.6763281E-01
   7169.00  3.7358145E-01
   7169.33  3.7966831E-01
   7169.67  3.8580612E-01
   7170.00  3.9193112E-01
   7170.33  3.9795510E-01
   7170.67  4.0380509E-01
   7171.00  4.0939554E-01
   7171.33  4.1454132E-01
   7171.67  4.1907618E-01
   7172.00  4.2273698E-01
