    FDMNES
    energy     <xanes>
   7097.00  4.4371582E-03
   7097.33  4.5332389E-03
   7097.67  4.6334937E-03
   7098.00  4.7382042E-03
   7098.33  4.8483364E-03
   7098.67  4.9636934E-03
   7099.00  5.0846615E-03
   7099.33  5.2125076E-03
   7099.67  5.3470340E-03
   7100.00  5.4887855E-03
   7100.33  5.6394709E-03
   7100.67  5.7989144E-03
   7101.00  5.9679103E-03
   7101.33  6.1488415E-03
   7101.67  6.3416040E-03
   7102.00  6.5474023E-03
   7102.33  6.7696950E-03
   7102.67  7.0085607E-03
   7103.00  7.2659143E-03
   7103.33  7.5470257E-03
   7103.67  7.8524102E-03
   7104.00  8.1852918E-03
   7104.33  8.5542001E-03
   7104.67  8.9606999E-03
   7105.00  9.4106249E-03
   7105.33  9.9188782E-03
   7105.67  1.0489679E-02
   7106.00  1.1134610E-02
   7106.33  1.1882456E-02
   7106.67  1.2744803E-02
   7107.00  1.3747705E-02
   7107.33  1.4954951E-02
   7107.67  1.6401828E-02
   7108.00  1.8158335E-02
   7108.33  2.0397325E-02
   7108.67  2.3250351E-02
   7109.00  2.6964858E-02
   7109.33  3.2186660E-02
   7109.67  3.9617765E-02
   7110.00  5.0621191E-02
   7110.33  6.9080904E-02
   7110.67  9.9246304E-02
   7111.00  1.4328750E-01
   7111.33  1.9453475E-01
   7111.67  2.5174414E-01
   7112.00  3.1573744E-01
   7112.33  3.4942840E-01
   7112.67  3.2354522E-01
   7113.00  2.6009224E-01
   7113.33  2.0082033E-01
   7113.67  1.5890158E-01
   7114.00  1.3179437E-01
   7114.33  1.1335948E-01
   7114.67  9.7665881E-02
   7115.00  8.4218945E-02
   7115.33  7.4232844E-02
   7115.67  6.7810177E-02
   7116.00  6.4483477E-02
   7116.33  6.3725972E-02
   7116.67  6.4689531E-02
   7117.00  6.7103483E-02
   7117.33  7.0978603E-02
   7117.67  7.6108310E-02
   7118.00  8.2457565E-02
   7118.33  8.9989540E-02
   7118.67  9.8069500E-02
   7119.00  1.0592266E-01
   7119.33  1.1293155E-01
   7119.67  1.1985955E-01
   7120.00  1.2747651E-01
   7120.33  1.3632635E-01
   7120.67  1.4645311E-01
   7121.00  1.5786398E-01
   7121.33  1.7059060E-01
   7121.67  1.8451658E-01
   7122.00  1.9985028E-01
   7122.33  2.1702255E-01
   7122.67  2.3591358E-01
   7123.00  2.5658885E-01
   7123.33  2.7942622E-01
   7123.67  3.0411676E-01
   7124.00  3.2999268E-01
   7124.33  3.5518050E-01
   7124.67  3.7763286E-01
   7125.00  3.9641909E-01
   7125.33  4.1157211E-01
   7125.67  4.2483080E-01
   7126.00  4.3731301E-01
   7126.33  4.4948342E-01
   7126.67  4.6059846E-01
   7127.00  4.6927930E-01
   7127.33  4.7367563E-01
   7127.67  4.7410925E-01
   7128.00  4.7149378E-01
   7128.33  4.6707326E-01
   7128.67  4.6202017E-01
   7129.00  4.5663249E-01
   7129.33  4.5088340E-01
   7129.67  4.4473597E-01
   7130.00  4.3819592E-01
   7130.33  4.3146140E-01
   7130.67  4.2500694E-01
   7131.00  4.1927159E-01
   7131.33  4.1473974E-01
   7131.67  4.1136470E-01
   7132.00  4.0906566E-01
   7132.33  4.0782225E-01
   7132.67  4.0744905E-01
   7133.00  4.0798097E-01
   7133.33  4.0966903E-01
   7133.67  4.1253696E-01
   7134.00  4.1670088E-01
   7134.33  4.2243398E-01
   7134.67  4.2961772E-01
   7135.00  4.3826999E-01
   7135.33  4.4858208E-01
   7135.67  4.6039040E-01
   7136.00  4.7373055E-01
   7136.33  4.8884661E-01
   7136.67  5.0555497E-01
   7137.00  5.2380370E-01
   7137.33  5.4360060E-01
   7137.67  5.6448868E-01
   7138.00  5.8613189E-01
   7138.33  6.0808608E-01
   7138.67  6.2977451E-01
   7139.00  6.5071470E-01
   7139.33  6.7021766E-01
   7139.67  6.8800217E-01
   7140.00  7.0379390E-01
   7140.33  7.1714741E-01
   7140.67  7.2831618E-01
   7141.00  7.3739769E-01
   7141.33  7.4436387E-01
   7141.67  7.4966800E-01
   7142.00  7.5346044E-01
   7142.33  7.5573533E-01
   7142.67  7.5682891E-01
   7143.00  7.5688952E-01
   7143.33  7.5598981E-01
   7143.67  7.5442113E-01
   7144.00  7.5234074E-01
   7144.33  7.4987865E-01
   7144.67  7.4722798E-01
   7145.00  7.4449492E-01
   7145.33  7.4177547E-01
   7145.67  7.3913407E-01
   7146.00  7.3660909E-01
   7146.33  7.3424653E-01
   7146.67  7.3204048E-01
   7147.00  7.2998832E-01
   7147.33  7.2808605E-01
   7147.67  7.2627621E-01
   7148.00  7.2450922E-01
   7148.33  7.2271287E-01
   7148.67  7.2081856E-01
   7149.00  7.1876749E-01
   7149.33  7.1647031E-01
   7149.67  7.1390270E-01
   7150.00  7.1103003E-01
   7150.33  7.0778004E-01
   7150.67  7.0417323E-01
   7151.00  7.0019729E-01
   7151.33  6.9579705E-01
   7151.67  6.9101887E-01
   7152.00  6.8586878E-01
   7152.33  6.8031800E-01
   7152.67  6.7443623E-01
   7153.00  6.6825136E-01
   7153.33  6.6176617E-01
   7153.67  6.5505019E-01
   7154.00  6.4813172E-01
   7154.33  6.4101773E-01
   7154.67  6.3375509E-01
   7155.00  6.2636302E-01
   7155.33  6.1884710E-01
   7155.67  6.1123889E-01
   7156.00  6.0355650E-01
   7156.33  5.9582106E-01
   7156.67  5.8806956E-01
   7157.00  5.8033035E-01
   7157.33  5.7264244E-01
   7157.67  5.6503306E-01
   7158.00  5.5752972E-01
   7158.33  5.5017882E-01
   7158.67  5.4298832E-01
   7159.00  5.3597460E-01
   7159.33  5.2917727E-01
   7159.67  5.2258370E-01
   7160.00  5.1619407E-01
   7160.33  5.1002456E-01
   7160.67  5.0403680E-01
   7161.00  4.9821650E-01
   7161.33  4.9256428E-01
   7161.67  4.8704391E-01
   7162.00  4.8164254E-01
   7162.33  4.7636445E-01
   7162.67  4.7119365E-01
   7163.00  4.6613223E-01
   7163.33  4.6120301E-01
   7163.67  4.5640636E-01
   7164.00  4.5176030E-01
   7164.33  4.4731233E-01
   7164.67  4.4306928E-01
   7165.00  4.3905760E-01
   7165.33  4.3534158E-01
   7165.67  4.3191939E-01
   7166.00  4.2881663E-01
   7166.33  4.2610382E-01
   7166.67  4.2376128E-01
   7167.00  4.2180681E-01
   7167.33  4.2030881E-01
   7167.67  4.1923102E-01
   7168.00  4.1858337E-01
   7168.33  4.1842874E-01
   7168.67  4.1871581E-01
   7169.00  4.1944296E-01
   7169.33  4.2065550E-01
   7169.67  4.2228171E-01
   7170.00  4.2429715E-01
   7170.33  4.2670325E-01
   7170.67  4.2939471E-01
   7171.00  4.3229406E-01
   7171.33  4.3527027E-01
   7171.67  4.3808075E-01
   7172.00  4.4043096E-01
