    FDMNES
    energy     <xanes>
   7097.00  4.6953662E-03
   7097.33  4.7956126E-03
   7097.67  4.8999496E-03
   7098.00  5.0086272E-03
   7098.33  5.1225470E-03
   7098.67  5.2414789E-03
   7099.00  5.3657542E-03
   7099.33  5.4965205E-03
   7099.67  5.6335304E-03
   7100.00  5.7772337E-03
   7100.33  5.9291226E-03
   7100.67  6.0889419E-03
   7101.00  6.2573182E-03
   7101.33  6.4362433E-03
   7101.67  6.6254761E-03
   7102.00  6.8259175E-03
   7102.33  7.0403109E-03
   7102.67  7.2684793E-03
   7103.00  7.5117694E-03
   7103.33  7.7741077E-03
   7103.67  8.0554954E-03
   7104.00  8.3580450E-03
   7104.33  8.6876547E-03
   7104.67  9.0447745E-03
   7105.00  9.4329283E-03
   7105.33  9.8615553E-03
   7105.67  1.0332239E-02
   7106.00  1.0851363E-02
   7106.33  1.1435404E-02
   7106.67  1.2089018E-02
   7107.00  1.2825214E-02
   7107.33  1.3676644E-02
   7107.67  1.4657585E-02
   7108.00  1.5799766E-02
   7108.33  1.7182484E-02
   7108.67  1.8858635E-02
   7109.00  2.0932813E-02
   7109.33  2.3679963E-02
   7109.67  2.7388748E-02
   7110.00  3.2632402E-02
   7110.33  4.1056062E-02
   7110.67  5.4346728E-02
   7111.00  7.2585426E-02
   7111.33  8.7794815E-02
   7111.67  9.3646847E-02
   7112.00  9.6728701E-02
   7112.33  1.0639347E-01
   7112.67  1.2782739E-01
   7113.00  1.6693865E-01
   7113.33  2.2693903E-01
   7113.67  2.8291211E-01
   7114.00  3.1200834E-01
   7114.33  3.3367906E-01
   7114.67  3.8551221E-01
   7115.00  4.5069811E-01
   7115.33  4.2627063E-01
   7115.67  3.3122770E-01
   7116.00  2.4561578E-01
   7116.33  2.0615240E-01
   7116.67  2.0354768E-01
   7117.00  2.3112091E-01
   7117.33  2.7017989E-01
   7117.67  2.9531909E-01
   7118.00  3.0374755E-01
   7118.33  2.8634105E-01
   7118.67  2.4914745E-01
   7119.00  2.0950122E-01
   7119.33  1.8248233E-01
   7119.67  1.6865146E-01
   7120.00  1.6487662E-01
   7120.33  1.6492780E-01
   7120.67  1.6332269E-01
   7121.00  1.6056334E-01
   7121.33  1.5920293E-01
   7121.67  1.5943352E-01
   7122.00  1.6061978E-01
   7122.33  1.6257197E-01
   7122.67  1.6510798E-01
   7123.00  1.6781999E-01
   7123.33  1.7038295E-01
   7123.67  1.7327478E-01
   7124.00  1.7714830E-01
   7124.33  1.8285028E-01
   7124.67  1.9064291E-01
   7125.00  2.0016308E-01
   7125.33  2.0962049E-01
   7125.67  2.1713562E-01
   7126.00  2.2258902E-01
   7126.33  2.2772469E-01
   7126.67  2.3486859E-01
   7127.00  2.4550846E-01
   7127.33  2.6129687E-01
   7127.67  2.8198531E-01
   7128.00  3.0713037E-01
   7128.33  3.3579081E-01
   7128.67  3.6555519E-01
   7129.00  3.9454670E-01
   7129.33  4.2098193E-01
   7129.67  4.4510554E-01
   7130.00  4.6814306E-01
   7130.33  4.9257810E-01
   7130.67  5.2046367E-01
   7131.00  5.5273196E-01
   7131.33  5.8931578E-01
   7131.67  6.2768115E-01
   7132.00  6.6552123E-01
   7132.33  7.0031359E-01
   7132.67  7.3123689E-01
   7133.00  7.5807697E-01
   7133.33  7.8063756E-01
   7133.67  7.9975508E-01
   7134.00  8.1570863E-01
   7134.33  8.2875107E-01
   7134.67  8.4034586E-01
   7135.00  8.5182523E-01
   7135.33  8.6476428E-01
   7135.67  8.7957610E-01
   7136.00  8.9569988E-01
   7136.33  9.1107704E-01
   7136.67  9.2270380E-01
   7137.00  9.2757090E-01
   7137.33  9.2140558E-01
   7137.67  9.0378415E-01
   7138.00  8.7488325E-01
   7138.33  8.3563880E-01
   7138.67  7.9073079E-01
   7139.00  7.4361680E-01
   7139.33  6.9814671E-01
   7139.67  6.5683946E-01
   7140.00  6.2108102E-01
   7140.33  5.9229191E-01
   7140.67  5.6959395E-01
   7141.00  5.5252970E-01
   7141.33  5.4095750E-01
   7141.67  5.3348574E-01
   7142.00  5.2950903E-01
   7142.33  5.2876223E-01
   7142.67  5.3034423E-01
   7143.00  5.3385613E-01
   7143.33  5.3910117E-01
   7143.67  5.4556109E-01
   7144.00  5.5297455E-01
   7144.33  5.6107498E-01
   7144.67  5.6934210E-01
   7145.00  5.7727314E-01
   7145.33  5.8399276E-01
   7145.67  5.8879088E-01
   7146.00  5.9097084E-01
   7146.33  5.8954108E-01
   7146.67  5.8473178E-01
   7147.00  5.7680475E-01
   7147.33  5.6618843E-01
   7147.67  5.5417987E-01
   7148.00  5.4167638E-01
   7148.33  5.2965206E-01
   7148.67  5.1874188E-01
   7149.00  5.0932938E-01
   7149.33  5.0186152E-01
   7149.67  4.9617255E-01
   7150.00  4.9220716E-01
   7150.33  4.9003621E-01
   7150.67  4.8930294E-01
   7151.00  4.8985784E-01
   7151.33  4.9165713E-01
   7151.67  4.9438920E-01
   7152.00  4.9791533E-01
   7152.33  5.0216304E-01
   7152.67  5.0690655E-01
   7153.00  5.1202539E-01
   7153.33  5.1741168E-01
   7153.67  5.2289792E-01
   7154.00  5.2836736E-01
   7154.33  5.3366839E-01
   7154.67  5.3869667E-01
   7155.00  5.4336548E-01
   7155.33  5.4754492E-01
   7155.67  5.5124521E-01
   7156.00  5.5445782E-01
   7156.33  5.5715153E-01
   7156.67  5.5944500E-01
   7157.00  5.6141026E-01
   7157.33  5.6311299E-01
   7157.67  5.6467488E-01
   7158.00  5.6616338E-01
   7158.33  5.6763281E-01
   7158.67  5.6911335E-01
   7159.00  5.7060629E-01
   7159.33  5.7208921E-01
   7159.67  5.7352378E-01
   7160.00  5.7486773E-01
   7160.33  5.7605170E-01
   7160.67  5.7704627E-01
   7161.00  5.7781859E-01
   7161.33  5.7831090E-01
   7161.67  5.7854016E-01
   7162.00  5.7850308E-01
   7162.33  5.7817077E-01
   7162.67  5.7758318E-01
   7163.00  5.7674316E-01
   7163.33  5.7561754E-01
   7163.67  5.7423289E-01
   7164.00  5.7257954E-01
   7164.33  5.7060578E-01
   7164.67  5.6832635E-01
   7165.00  5.6572150E-01
   7165.33  5.6272810E-01
   7165.67  5.5937615E-01
   7166.00  5.5566251E-01
   7166.33  5.5155050E-01
   7166.67  5.4710476E-01
   7167.00  5.4235399E-01
   7167.33  5.3731124E-01
   7167.67  5.3206491E-01
   7168.00  5.2666971E-01
   7168.33  5.2118345E-01
   7168.67  5.1568265E-01
   7169.00  5.1021857E-01
   7169.33  5.0485138E-01
   7169.67  4.9960786E-01
   7170.00  4.9451168E-01
   7170.33  4.8960485E-01
   7170.67  4.8488946E-01
   7171.00  4.8039869E-01
   7171.33  4.7624773E-01
   7171.67  4.7256024E-01
   7172.00  4.6955525E-01
