    FDMNES
    energy     <xanes>
   7097.00  4.7673776E-03
   7097.33  4.8694287E-03
   7097.67  4.9756270E-03
   7098.00  5.0862235E-03
   7098.33  5.2021278E-03
   7098.67  5.3231024E-03
   7099.00  5.4494787E-03
   7099.33  5.5824103E-03
   7099.67  5.7216407E-03
   7100.00  5.8676173E-03
   7100.33  6.0218341E-03
   7100.67  6.1840237E-03
   7101.00  6.3548056E-03
   7101.33  6.5361639E-03
   7101.67  6.7278397E-03
   7102.00  6.9307178E-03
   7102.33  7.1475134E-03
   7102.67  7.3780210E-03
   7103.00  7.6235523E-03
   7103.33  7.8879620E-03
   7103.67  8.1712007E-03
   7104.00  8.4753042E-03
   7104.33  8.8060025E-03
   7104.67  9.1636420E-03
   7105.00  9.5515717E-03
   7105.33  9.9788317E-03
   7105.67  1.0446758E-02
   7106.00  1.0961298E-02
   7106.33  1.1537899E-02
   7106.67  1.2180506E-02
   7107.00  1.2900851E-02
   7107.33  1.3728484E-02
   7107.67  1.4675047E-02
   7108.00  1.5767512E-02
   7108.33  1.7072865E-02
   7108.67  1.8630392E-02
   7109.00  2.0518881E-02
   7109.33  2.2938810E-02
   7109.67  2.6067574E-02
   7110.00  3.0248698E-02
   7110.33  3.6431021E-02
   7110.67  4.5704984E-02
   7111.00  5.9586483E-02
   7111.33  8.0965280E-02
   7111.67  1.1146314E-01
   7112.00  1.4640251E-01
   7112.33  1.6081696E-01
   7112.67  1.5945172E-01
   7113.00  1.5832120E-01
   7113.33  1.5270439E-01
   7113.67  1.5508261E-01
   7114.00  1.7017213E-01
   7114.33  1.9029130E-01
   7114.67  2.2336383E-01
   7115.00  2.9136980E-01
   7115.33  4.0629107E-01
   7115.67  5.6214495E-01
   7116.00  6.7314040E-01
   7116.33  5.4603567E-01
   7116.67  3.7629217E-01
   7117.00  2.7266108E-01
   7117.33  2.3378524E-01
   7117.67  2.3348858E-01
   7118.00  2.6359642E-01
   7118.33  3.0702202E-01
   7118.67  3.2407560E-01
   7119.00  2.9917595E-01
   7119.33  2.5891318E-01
   7119.67  2.2951815E-01
   7120.00  2.1341417E-01
   7120.33  2.0571679E-01
   7120.67  1.9800554E-01
   7121.00  1.8867778E-01
   7121.33  1.8288463E-01
   7121.67  1.8150345E-01
   7122.00  1.8144435E-01
   7122.33  1.8113403E-01
   7122.67  1.8114638E-01
   7123.00  1.8088241E-01
   7123.33  1.7775505E-01
   7123.67  1.7135480E-01
   7124.00  1.6367272E-01
   7124.33  1.5818713E-01
   7124.67  1.5664827E-01
   7125.00  1.5925911E-01
   7125.33  1.6558911E-01
   7125.67  1.7420862E-01
   7126.00  1.8449872E-01
   7126.33  1.9626498E-01
   7126.67  2.0919986E-01
   7127.00  2.2319690E-01
   7127.33  2.3853218E-01
   7127.67  2.5549390E-01
   7128.00  2.7419764E-01
   7128.33  2.9401772E-01
   7128.67  3.1372496E-01
   7129.00  3.3300294E-01
   7129.33  3.5241742E-01
   7129.67  3.7288156E-01
   7130.00  3.9513874E-01
   7130.33  4.2023615E-01
   7130.67  4.4843819E-01
   7131.00  4.8007506E-01
   7131.33  5.1561850E-01
   7131.67  5.5400743E-01
   7132.00  5.9406797E-01
   7132.33  6.3395757E-01
   7132.67  6.7209008E-01
   7133.00  7.0774409E-01
   7133.33  7.4057129E-01
   7133.67  7.7138497E-01
   7134.00  8.0034651E-01
   7134.33  8.2636533E-01
   7134.67  8.4847267E-01
   7135.00  8.6602997E-01
   7135.33  8.7876047E-01
   7135.67  8.8781181E-01
   7136.00  8.9331013E-01
   7136.33  8.9427297E-01
   7136.67  8.9046259E-01
   7137.00  8.8146587E-01
   7137.33  8.6679307E-01
   7137.67  8.4797251E-01
   7138.00  8.2623454E-01
   7138.33  8.0291629E-01
   7138.67  7.7938276E-01
   7139.00  7.5641498E-01
   7139.33  7.3487343E-01
   7139.67  7.1509267E-01
   7140.00  6.9736841E-01
   7140.33  6.8222807E-01
   7140.67  6.6951376E-01
   7141.00  6.5922106E-01
   7141.33  6.5147290E-01
   7141.67  6.4569886E-01
   7142.00  6.4161192E-01
   7142.33  6.3907050E-01
   7142.67  6.3764779E-01
   7143.00  6.3717304E-01
   7143.33  6.3758149E-01
   7143.67  6.3862008E-01
   7144.00  6.4013338E-01
   7144.33  6.4190474E-01
   7144.67  6.4355529E-01
   7145.00  6.4468497E-01
   7145.33  6.4459254E-01
   7145.67  6.4281471E-01
   7146.00  6.3890506E-01
   7146.33  6.3224420E-01
   7146.67  6.2313922E-01
   7147.00  6.1185471E-01
   7147.33  5.9872945E-01
   7147.67  5.8464022E-01
   7148.00  5.7016973E-01
   7148.33  5.5595082E-01
   7148.67  5.4244672E-01
   7149.00  5.2998839E-01
   7149.33  5.1902998E-01
   7149.67  5.0959776E-01
   7150.00  5.0179212E-01
   7150.33  4.9587038E-01
   7150.67  4.9160201E-01
   7151.00  4.8891779E-01
   7151.33  4.8786589E-01
   7151.67  4.8808824E-01
   7152.00  4.8941229E-01
   7152.33  4.9173754E-01
   7152.67  4.9475171E-01
   7153.00  4.9830963E-01
   7153.33  5.0233037E-01
   7153.67  5.0667185E-01
   7154.00  5.1128621E-01
   7154.33  5.1617456E-01
   7154.67  5.2129336E-01
   7155.00  5.2663490E-01
   7155.33  5.3221169E-01
   7155.67  5.3796914E-01
   7156.00  5.4386212E-01
   7156.33  5.4982206E-01
   7156.67  5.5574560E-01
   7157.00  5.6153372E-01
   7157.33  5.6702287E-01
   7157.67  5.7210919E-01
   7158.00  5.7667867E-01
   7158.33  5.8053573E-01
   7158.67  5.8367089E-01
   7159.00  5.8603566E-01
   7159.33  5.8750904E-01
   7159.67  5.8820302E-01
   7160.00  5.8815216E-01
   7160.33  5.8733152E-01
   7160.67  5.8590139E-01
   7161.00  5.8393219E-01
   7161.33  5.8145172E-01
   7161.67  5.7860004E-01
   7162.00  5.7544459E-01
   7162.33  5.7202841E-01
   7162.67  5.6844516E-01
   7163.00  5.6474444E-01
   7163.33  5.6096863E-01
   7163.67  5.5716962E-01
   7164.00  5.5337908E-01
   7164.33  5.4963048E-01
   7164.67  5.4593886E-01
   7165.00  5.4231682E-01
   7165.33  5.3878544E-01
   7165.67  5.3533952E-01
   7166.00  5.3197568E-01
   7166.33  5.2869264E-01
   7166.67  5.2546910E-01
   7167.00  5.2229195E-01
   7167.33  5.1914579E-01
   7167.67  5.1600586E-01
   7168.00  5.1285199E-01
   7168.33  5.0965343E-01
   7168.67  5.0638877E-01
   7169.00  5.0303663E-01
   7169.33  4.9956177E-01
   7169.67  4.9596374E-01
   7170.00  4.9224063E-01
   7170.33  4.8839298E-01
   7170.67  4.8447267E-01
   7171.00  4.8053909E-01
   7171.33  4.7672628E-01
   7171.67  4.7323564E-01
   7172.00  4.7034117E-01
