    FDMNES
    energy     <xanes>
   7097.00  4.1200013E-03
   7097.33  4.2064165E-03
   7097.67  4.2963486E-03
   7098.00  4.3900242E-03
   7098.33  4.4882390E-03
   7098.67  4.5908134E-03
   7099.00  4.6980565E-03
   7099.33  4.8110037E-03
   7099.67  4.9294737E-03
   7100.00  5.0539017E-03
   7100.33  5.1856754E-03
   7100.67  5.3246312E-03
   7101.00  5.4714040E-03
   7101.33  5.6279222E-03
   7101.67  5.7940826E-03
   7102.00  5.9708528E-03
   7102.33  6.1610323E-03
   7102.67  6.3646762E-03
   7103.00  6.5833380E-03
   7103.33  6.8213076E-03
   7103.67  7.0790273E-03
   7104.00  7.3591577E-03
   7104.33  7.6687349E-03
   7104.67  8.0091597E-03
   7105.00  8.3853752E-03
   7105.33  8.8099764E-03
   7105.67  9.2868852E-03
   7106.00  9.8263137E-03
   7106.33  1.0453584E-02
   7106.67  1.1180015E-02
   7107.00  1.2029989E-02
   7107.33  1.3063342E-02
   7107.67  1.4317194E-02
   7108.00  1.5863303E-02
   7108.33  1.7881396E-02
   7108.67  2.0526751E-02
   7109.00  2.4091717E-02
   7109.33  2.9367858E-02
   7109.67  3.7338691E-02
   7110.00  4.9956619E-02
   7110.33  7.2787849E-02
   7110.67  1.0982214E-01
   7111.00  1.5230727E-01
   7111.33  1.7100802E-01
   7111.67  1.7913420E-01
   7112.00  1.8815526E-01
   7112.33  1.8293390E-01
   7112.67  1.5820273E-01
   7113.00  1.3056224E-01
   7113.33  1.1321877E-01
   7113.67  1.0540707E-01
   7114.00  1.0504655E-01
   7114.33  1.0588940E-01
   7114.67  9.7608907E-02
   7115.00  8.1957608E-02
   7115.33  6.9129957E-02
   7115.67  6.1306770E-02
   7116.00  5.7037018E-02
   7116.33  5.5042556E-02
   7116.67  5.4431428E-02
   7117.00  5.5050017E-02
   7117.33  5.6814674E-02
   7117.67  5.9136404E-02
   7118.00  6.1569982E-02
   7118.33  6.3855609E-02
   7118.67  6.6036885E-02
   7119.00  6.8303477E-02
   7119.33  7.1153012E-02
   7119.67  7.4987613E-02
   7120.00  8.0102597E-02
   7120.33  8.6953627E-02
   7120.67  9.5596856E-02
   7121.00  1.0624960E-01
   7121.33  1.1944923E-01
   7121.67  1.3519364E-01
   7122.00  1.5382252E-01
   7122.33  1.7635691E-01
   7122.67  2.0282254E-01
   7123.00  2.3285690E-01
   7123.33  2.6474439E-01
   7123.67  2.9580389E-01
   7124.00  3.2517371E-01
   7124.33  3.5237161E-01
   7124.67  3.7623586E-01
   7125.00  3.9444687E-01
   7125.33  4.0548957E-01
   7125.67  4.1526133E-01
   7126.00  4.2910837E-01
   7126.33  4.4909981E-01
   7126.67  4.7143648E-01
   7127.00  4.9233677E-01
   7127.33  5.0791814E-01
   7127.67  5.1850785E-01
   7128.00  5.2667687E-01
   7128.33  5.3673496E-01
   7128.67  5.5110172E-01
   7129.00  5.7002184E-01
   7129.33  5.9183438E-01
   7129.67  6.1256450E-01
   7130.00  6.2900237E-01
   7130.33  6.3819398E-01
   7130.67  6.4127422E-01
   7131.00  6.4024913E-01
   7131.33  6.3849718E-01
   7131.67  6.3970532E-01
   7132.00  6.4614651E-01
   7132.33  6.5922327E-01
   7132.67  6.7665374E-01
   7133.00  6.9630139E-01
   7133.33  7.1625993E-01
   7133.67  7.3572016E-01
   7134.00  7.5479477E-01
   7134.33  7.7446355E-01
   7134.67  7.9578466E-01
   7135.00  8.1861232E-01
   7135.33  8.4051732E-01
   7135.67  8.5794433E-01
   7136.00  8.6813823E-01
   7136.33  8.6863687E-01
   7136.67  8.6140940E-01
   7137.00  8.4848200E-01
   7137.33  8.3221755E-01
   7137.67  8.1525125E-01
   7138.00  7.9885142E-01
   7138.33  7.8398487E-01
   7138.67  7.7080603E-01
   7139.00  7.5937075E-01
   7139.33  7.4977311E-01
   7139.67  7.4152645E-01
   7140.00  7.3424836E-01
   7140.33  7.2740240E-01
   7140.67  7.2029540E-01
   7141.00  7.1243647E-01
   7141.33  7.0333419E-01
   7141.67  6.9311269E-01
   7142.00  6.8204153E-01
   7142.33  6.7063663E-01
   7142.67  6.5959005E-01
   7143.00  6.4942118E-01
   7143.33  6.4074411E-01
   7143.67  6.3361975E-01
   7144.00  6.2806280E-01
   7144.33  6.2410577E-01
   7144.67  6.2133199E-01
   7145.00  6.1950712E-01
   7145.33  6.1842766E-01
   7145.67  6.1775526E-01
   7146.00  6.1732323E-01
   7146.33  6.1701520E-01
   7146.67  6.1673786E-01
   7147.00  6.1644006E-01
   7147.33  6.1603991E-01
   7147.67  6.1544027E-01
   7148.00  6.1450547E-01
   7148.33  6.1296189E-01
   7148.67  6.1064456E-01
   7149.00  6.0736927E-01
   7149.33  6.0283866E-01
   7149.67  5.9712134E-01
   7150.00  5.9024130E-01
   7150.33  5.8218764E-01
   7150.67  5.7327915E-01
   7151.00  5.6370505E-01
   7151.33  5.5363534E-01
   7151.67  5.4332294E-01
   7152.00  5.3290187E-01
   7152.33  5.2248551E-01
   7152.67  5.1214448E-01
   7153.00  5.0191320E-01
   7153.33  4.9182620E-01
   7153.67  4.8187418E-01
   7154.00  4.7206091E-01
   7154.33  4.6241415E-01
   7154.67  4.5293307E-01
   7155.00  4.4363595E-01
   7155.33  4.3457286E-01
   7155.67  4.2574472E-01
   7156.00  4.1717536E-01
   7156.33  4.0892157E-01
   7156.67  4.0095515E-01
   7157.00  3.9327675E-01
   7157.33  3.8592341E-01
   7157.67  3.7885598E-01
   7158.00  3.7206887E-01
   7158.33  3.6558831E-01
   7158.67  3.5937540E-01
   7159.00  3.5343117E-01
   7159.33  3.4779793E-01
   7159.67  3.4245600E-01
   7160.00  3.3742365E-01
   7160.33  3.3276912E-01
   7160.67  3.2847962E-01
   7161.00  3.2457888E-01
   7161.33  3.2113752E-01
   7161.67  3.1810969E-01
   7162.00  3.1548580E-01
   7162.33  3.1328660E-01
   7162.67  3.1142533E-01
   7163.00  3.0985722E-01
   7163.33  3.0855841E-01
   7163.67  3.0745494E-01
   7164.00  3.0651586E-01
   7164.33  3.0573044E-01
   7164.67  3.0506027E-01
   7165.00  3.0449146E-01
   7165.33  3.0402438E-01
   7165.67  3.0364319E-01
   7166.00  3.0335058E-01
   7166.33  3.0317095E-01
   7166.67  3.0311296E-01
   7167.00  3.0320177E-01
   7167.33  3.0349470E-01
   7167.67  3.0400509E-01
   7168.00  3.0476162E-01
   7168.33  3.0582610E-01
   7168.67  3.0718317E-01
   7169.00  3.0884084E-01
   7169.33  3.1083656E-01
   7169.67  3.1312244E-01
   7170.00  3.1568079E-01
   7170.33  3.1850915E-01
   7170.67  3.2152784E-01
   7171.00  3.2467256E-01
   7171.33  3.2782185E-01
   7171.67  3.3076018E-01
   7172.00  3.3320967E-01
