    FDMNES
    energy     <xanes>
   7097.00  5.0796887E-03
   7097.33  5.1961121E-03
   7097.67  5.3176555E-03
   7098.00  5.4446569E-03
   7098.33  5.5782868E-03
   7098.67  5.7182915E-03
   7099.00  5.8651286E-03
   7099.33  6.0203193E-03
   7099.67  6.1836007E-03
   7100.00  6.3556094E-03
   7100.33  6.5383727E-03
   7100.67  6.7316396E-03
   7101.00  6.9363230E-03
   7101.33  7.1552076E-03
   7101.67  7.3881016E-03
   7102.00  7.6363621E-03
   7102.33  7.9039559E-03
   7102.67  8.1908558E-03
   7103.00  8.4991695E-03
   7103.33  8.8348046E-03
   7103.67  9.1981377E-03
   7104.00  9.5926240E-03
   7104.33  1.0027564E-02
   7104.67  1.0504308E-02
   7105.00  1.1028921E-02
   7105.33  1.1617125E-02
   7105.67  1.2272719E-02
   7106.00  1.3007330E-02
   7106.33  1.3850187E-02
   7106.67  1.4811783E-02
   7107.00  1.5917286E-02
   7107.33  1.7228749E-02
   7107.67  1.8777798E-02
   7108.00  2.0629388E-02
   7108.33  2.2944185E-02
   7108.67  2.5837981E-02
   7109.00  2.9531636E-02
   7109.33  3.4599777E-02
   7109.67  4.1648002E-02
   7110.00  5.1856406E-02
   7110.33  6.8614158E-02
   7110.67  9.5986543E-02
   7111.00  1.3759105E-01
   7111.33  1.8710674E-01
   7111.67  2.2608663E-01
   7112.00  2.4701381E-01
   7112.33  2.6275020E-01
   7112.67  2.8551993E-01
   7113.00  3.1203124E-01
   7113.33  3.4193345E-01
   7113.67  3.7492420E-01
   7114.00  3.9625306E-01
   7114.33  3.7155350E-01
   7114.67  3.1565714E-01
   7115.00  2.5988243E-01
   7115.33  2.2199790E-01
   7115.67  1.9839006E-01
   7116.00  1.8409370E-01
   7116.33  1.7365060E-01
   7116.67  1.6256299E-01
   7117.00  1.5068910E-01
   7117.33  1.4120937E-01
   7117.67  1.3584485E-01
   7118.00  1.3436802E-01
   7118.33  1.3571256E-01
   7118.67  1.3784831E-01
   7119.00  1.3968394E-01
   7119.33  1.4148475E-01
   7119.67  1.4492594E-01
   7120.00  1.5113176E-01
   7120.33  1.5973301E-01
   7120.67  1.6822937E-01
   7121.00  1.7553254E-01
   7121.33  1.8276289E-01
   7121.67  1.9183395E-01
   7122.00  2.0329008E-01
   7122.33  2.1658823E-01
   7122.67  2.3076737E-01
   7123.00  2.4613621E-01
   7123.33  2.6371346E-01
   7123.67  2.8336558E-01
   7124.00  3.0466715E-01
   7124.33  3.2713976E-01
   7124.67  3.5015862E-01
   7125.00  3.7324598E-01
   7125.33  3.9515818E-01
   7125.67  4.1441897E-01
   7126.00  4.3035153E-01
   7126.33  4.4372118E-01
   7126.67  4.5682886E-01
   7127.00  4.7106640E-01
   7127.33  4.8757434E-01
   7127.67  5.0617553E-01
   7128.00  5.2624264E-01
   7128.33  5.4706255E-01
   7128.67  5.6892801E-01
   7129.00  5.9324635E-01
   7129.33  6.2231474E-01
   7129.67  6.5612366E-01
   7130.00  6.9365697E-01
   7130.33  7.3269278E-01
   7130.67  7.7030874E-01
   7131.00  8.0451240E-01
   7131.33  8.3300276E-01
   7131.67  8.5503175E-01
   7132.00  8.6928368E-01
   7132.33  8.7337177E-01
   7132.67  8.6875368E-01
   7133.00  8.5755282E-01
   7133.33  8.4305149E-01
   7133.67  8.2882284E-01
   7134.00  8.1647041E-01
   7134.33  8.0630344E-01
   7134.67  7.9616984E-01
   7135.00  7.8396680E-01
   7135.33  7.6817512E-01
   7135.67  7.4978894E-01
   7136.00  7.2991549E-01
   7136.33  7.0965639E-01
   7136.67  6.8979205E-01
   7137.00  6.7071208E-01
   7137.33  6.5291336E-01
   7137.67  6.3659501E-01
   7138.00  6.2201269E-01
   7138.33  6.0956867E-01
   7138.67  5.9900783E-01
   7139.00  5.9020968E-01
   7139.33  5.8321993E-01
   7139.67  5.7775331E-01
   7140.00  5.7380813E-01
   7140.33  5.7159051E-01
   7140.67  5.7089458E-01
   7141.00  5.7167690E-01
   7141.33  5.7396272E-01
   7141.67  5.7727451E-01
   7142.00  5.8117420E-01
   7142.33  5.8494621E-01
   7142.67  5.8779453E-01
   7143.00  5.8907898E-01
   7143.33  5.8806751E-01
   7143.67  5.8496890E-01
   7144.00  5.8008277E-01
   7144.33  5.7385315E-01
   7144.67  5.6707911E-01
   7145.00  5.6023630E-01
   7145.33  5.5375347E-01
   7145.67  5.4779267E-01
   7146.00  5.4239494E-01
   7146.33  5.3755043E-01
   7146.67  5.3304671E-01
   7147.00  5.2873565E-01
   7147.33  5.2448343E-01
   7147.67  5.2021917E-01
   7148.00  5.1595993E-01
   7148.33  5.1180629E-01
   7148.67  5.0787692E-01
   7149.00  5.0428903E-01
   7149.33  5.0121773E-01
   7149.67  4.9868937E-01
   7150.00  4.9674755E-01
   7150.33  4.9549265E-01
   7150.67  4.9484307E-01
   7151.00  4.9476908E-01
   7151.33  4.9528101E-01
   7151.67  4.9624727E-01
   7152.00  4.9759937E-01
   7152.33  4.9927971E-01
   7152.67  5.0114494E-01
   7153.00  5.0309576E-01
   7153.33  5.0500664E-01
   7153.67  5.0676564E-01
   7154.00  5.0828727E-01
   7154.33  5.0945800E-01
   7154.67  5.1027287E-01
   7155.00  5.1071819E-01
   7155.33  5.1075748E-01
   7155.67  5.1046443E-01
   7156.00  5.0987278E-01
   7156.33  5.0899218E-01
   7156.67  5.0789172E-01
   7157.00  5.0659529E-01
   7157.33  5.0509675E-01
   7157.67  5.0342216E-01
   7158.00  5.0156590E-01
   7158.33  4.9949012E-01
   7158.67  4.9720315E-01
   7159.00  4.9469393E-01
   7159.33  4.9192947E-01
   7159.67  4.8894657E-01
   7160.00  4.8576452E-01
   7160.33  4.8239976E-01
   7160.67  4.7892404E-01
   7161.00  4.7539150E-01
   7161.33  4.7187608E-01
   7161.67  4.6845443E-01
   7162.00  4.6519515E-01
   7162.33  4.6220475E-01
   7162.67  4.5952267E-01
   7163.00  4.5719868E-01
   7163.33  4.5532413E-01
   7163.67  4.5386923E-01
   7164.00  4.5283161E-01
   7164.33  4.5223128E-01
   7164.67  4.5197624E-01
   7165.00  4.5202302E-01
   7165.33  4.5234194E-01
   7165.67  4.5283605E-01
   7166.00  4.5344635E-01
   7166.33  4.5411219E-01
   7166.67  4.5476740E-01
   7167.00  4.5536883E-01
   7167.33  4.5586673E-01
   7167.67  4.5624832E-01
   7168.00  4.5650386E-01
   7168.33  4.5661848E-01
   7168.67  4.5661980E-01
   7169.00  4.5652530E-01
   7169.33  4.5635401E-01
   7169.67  4.5614742E-01
   7170.00  4.5593112E-01
   7170.33  4.5573256E-01
   7170.67  4.5557175E-01
   7171.00  4.5546253E-01
   7171.33  4.5541885E-01
   7171.67  4.5542427E-01
   7172.00  4.5545389E-01
