    FDMNES
    energy     <xanes>
   7097.00  4.8709714E-03
   7097.33  4.9869408E-03
   7097.67  5.1083089E-03
   7098.00  5.2354546E-03
   7098.33  5.3696512E-03
   7098.67  5.5106629E-03
   7099.00  5.6590121E-03
   7099.33  5.8163821E-03
   7099.67  5.9825397E-03
   7100.00  6.1582253E-03
   7100.33  6.3457270E-03
   7100.67  6.5448457E-03
   7101.00  6.7566662E-03
   7101.33  6.9844020E-03
   7101.67  7.2279584E-03
   7102.00  7.4889871E-03
   7102.33  7.7721834E-03
   7102.67  8.0777120E-03
   7103.00  8.4082081E-03
   7103.33  8.7708705E-03
   7103.67  9.1664783E-03
   7104.00  9.5994852E-03
   7104.33  1.0081611E-02
   7104.67  1.0615111E-02
   7105.00  1.1208080E-02
   7105.33  1.1881123E-02
   7105.67  1.2640254E-02
   7106.00  1.3501652E-02
   7106.33  1.4505457E-02
   7106.67  1.5668250E-02
   7107.00  1.7026880E-02
   7107.33  1.8671624E-02
   7107.67  2.0653958E-02
   7108.00  2.3075388E-02
   7108.33  2.6187912E-02
   7108.67  3.0191643E-02
   7109.00  3.5464052E-02
   7109.33  4.3006035E-02
   7109.67  5.3970116E-02
   7110.00  7.0623044E-02
   7110.33  9.9472950E-02
   7110.67  1.4686661E-01
   7111.00  2.1105252E-01
   7111.33  2.6414060E-01
   7111.67  2.9608335E-01
   7112.00  3.1994725E-01
   7112.33  3.4940227E-01
   7112.67  3.7984874E-01
   7113.00  4.0162991E-01
   7113.33  4.0243532E-01
   7113.67  3.7312153E-01
   7114.00  3.1722144E-01
   7114.33  2.5671174E-01
   7114.67  2.0725644E-01
   7115.00  1.7091732E-01
   7115.33  1.4623121E-01
   7115.67  1.2822809E-01
   7116.00  1.1406722E-01
   7116.33  1.0238647E-01
   7116.67  9.3376914E-02
   7117.00  8.7424378E-02
   7117.33  8.4326503E-02
   7117.67  8.2833908E-02
   7118.00  8.2290928E-02
   7118.33  8.2347294E-02
   7118.67  8.2836403E-02
   7119.00  8.3855021E-02
   7119.33  8.5697389E-02
   7119.67  8.8375469E-02
   7120.00  9.1878381E-02
   7120.33  9.6229572E-02
   7120.67  1.0123552E-01
   7121.00  1.0707299E-01
   7121.33  1.1473907E-01
   7121.67  1.2491930E-01
   7122.00  1.3815828E-01
   7122.33  1.5535456E-01
   7122.67  1.7593453E-01
   7123.00  1.9878353E-01
   7123.33  2.2198827E-01
   7123.67  2.4416223E-01
   7124.00  2.6456993E-01
   7124.33  2.8220175E-01
   7124.67  2.9793506E-01
   7125.00  3.1373457E-01
   7125.33  3.3193875E-01
   7125.67  3.5216540E-01
   7126.00  3.7316904E-01
   7126.33  3.9435447E-01
   7126.67  4.1652381E-01
   7127.00  4.4045419E-01
   7127.33  4.6620005E-01
   7127.67  4.9253460E-01
   7128.00  5.1888966E-01
   7128.33  5.4552867E-01
   7128.67  5.7264464E-01
   7129.00  6.0008130E-01
   7129.33  6.2762733E-01
   7129.67  6.5477089E-01
   7130.00  6.8050039E-01
   7130.33  7.0234574E-01
   7130.67  7.1817566E-01
   7131.00  7.2628201E-01
   7131.33  7.2551832E-01
   7131.67  7.1899564E-01
   7132.00  7.0959006E-01
   7132.33  7.0027361E-01
   7132.67  6.9231159E-01
   7133.00  6.8526977E-01
   7133.33  6.7764757E-01
   7133.67  6.6849847E-01
   7134.00  6.5820284E-01
   7134.33  6.4843231E-01
   7134.67  6.4052718E-01
   7135.00  6.3484968E-01
   7135.33  6.3153749E-01
   7135.67  6.3023925E-01
   7136.00  6.3099412E-01
   7136.33  6.3393281E-01
   7136.67  6.3829295E-01
   7137.00  6.4335484E-01
   7137.33  6.4825775E-01
   7137.67  6.5250016E-01
   7138.00  6.5601589E-01
   7138.33  6.5904283E-01
   7138.67  6.6210615E-01
   7139.00  6.6556859E-01
   7139.33  6.6976060E-01
   7139.67  6.7467275E-01
   7140.00  6.8030125E-01
   7140.33  6.8674618E-01
   7140.67  6.9393089E-01
   7141.00  7.0177816E-01
   7141.33  7.0999389E-01
   7141.67  7.1789726E-01
   7142.00  7.2479179E-01
   7142.33  7.2965875E-01
   7142.67  7.3209865E-01
   7143.00  7.3176944E-01
   7143.33  7.2815107E-01
   7143.67  7.2170400E-01
   7144.00  7.1267099E-01
   7144.33  7.0117666E-01
   7144.67  6.8795512E-01
   7145.00  6.7343197E-01
   7145.33  6.5804405E-01
   7145.67  6.4245549E-01
   7146.00  6.2715701E-01
   7146.33  6.1276843E-01
   7146.67  5.9958745E-01
   7147.00  5.8782662E-01
   7147.33  5.7776156E-01
   7147.67  5.6913758E-01
   7148.00  5.6179534E-01
   7148.33  5.5558274E-01
   7148.67  5.5003913E-01
   7149.00  5.4487407E-01
   7149.33  5.3980510E-01
   7149.67  5.3461755E-01
   7150.00  5.2923126E-01
   7150.33  5.2364455E-01
   7150.67  5.1800569E-01
   7151.00  5.1247553E-01
   7151.33  5.0728190E-01
   7151.67  5.0254924E-01
   7152.00  4.9838376E-01
   7152.33  4.9494977E-01
   7152.67  4.9221203E-01
   7153.00  4.9018945E-01
   7153.33  4.8898012E-01
   7153.67  4.8849128E-01
   7154.00  4.8871360E-01
   7154.33  4.8971263E-01
   7154.67  4.9136768E-01
   7155.00  4.9363531E-01
   7155.33  4.9651297E-01
   7155.67  4.9983813E-01
   7156.00  5.0350798E-01
   7156.33  5.0740422E-01
   7156.67  5.1133254E-01
   7157.00  5.1512586E-01
   7157.33  5.1852962E-01
   7157.67  5.2136869E-01
   7158.00  5.2346297E-01
   7158.33  5.2451690E-01
   7158.67  5.2451445E-01
   7159.00  5.2338845E-01
   7159.33  5.2097327E-01
   7159.67  5.1744726E-01
   7160.00  5.1288032E-01
   7160.33  5.0727484E-01
   7160.67  5.0089483E-01
   7161.00  4.9388836E-01
   7161.33  4.8638227E-01
   7161.67  4.7860237E-01
   7162.00  4.7067901E-01
   7162.33  4.6275990E-01
   7162.67  4.5499109E-01
   7163.00  4.4748948E-01
   7163.33  4.4042314E-01
   7163.67  4.3384244E-01
   7164.00  4.2781260E-01
   7164.33  4.2245719E-01
   7164.67  4.1771903E-01
   7165.00  4.1359136E-01
   7165.33  4.1011862E-01
   7165.67  4.0718316E-01
   7166.00  4.0473805E-01
   7166.33  4.0277858E-01
   7166.67  4.0119216E-01
   7167.00  3.9992986E-01
   7167.33  3.9897190E-01
   7167.67  3.9823718E-01
   7168.00  3.9769096E-01
   7168.33  3.9731846E-01
   7168.67  3.9707291E-01
   7169.00  3.9693626E-01
   7169.33  3.9690511E-01
   7169.67  3.9695800E-01
   7170.00  3.9708948E-01
   7170.33  3.9730391E-01
   7170.67  3.9758699E-01
   7171.00  3.9793159E-01
   7171.33  3.9832512E-01
   7171.67  3.9872124E-01
   7172.00  3.9905856E-01
