    FDMNES
    energy     <xanes>
   7097.00  5.1749418E-03
   7097.33  5.3040183E-03
   7097.67  5.4392661E-03
   7098.00  5.5811234E-03
   7098.33  5.7310532E-03
   7098.67  5.8887923E-03
   7099.00  6.0549449E-03
   7099.33  6.2314492E-03
   7099.67  6.4180448E-03
   7100.00  6.6155892E-03
   7100.33  6.8267205E-03
   7100.67  7.0512186E-03
   7101.00  7.2903393E-03
   7101.33  7.5477925E-03
   7101.67  7.8234785E-03
   7102.00  8.1193089E-03
   7102.33  8.4407073E-03
   7102.67  8.7878723E-03
   7103.00  9.1638507E-03
   7103.33  9.5769563E-03
   7103.67  1.0028091E-02
   7104.00  1.0522392E-02
   7104.33  1.1073377E-02
   7104.67  1.1683626E-02
   7105.00  1.2362441E-02
   7105.33  1.3133503E-02
   7105.67  1.4003624E-02
   7106.00  1.4991264E-02
   7106.33  1.6142216E-02
   7106.67  1.7475001E-02
   7107.00  1.9031091E-02
   7107.33  2.0911937E-02
   7107.67  2.3173658E-02
   7108.00  2.5927465E-02
   7108.33  2.9447822E-02
   7108.67  3.3943166E-02
   7109.00  3.9805356E-02
   7109.33  4.8055898E-02
   7109.67  5.9800432E-02
   7110.00  7.7183103E-02
   7110.33  1.0631967E-01
   7110.67  1.5413852E-01
   7111.00  2.2593720E-01
   7111.33  3.1818852E-01
   7111.67  4.1038459E-01
   7112.00  4.7402601E-01
   7112.33  4.8732211E-01
   7112.67  4.7211928E-01
   7113.00  4.2519657E-01
   7113.33  3.4908537E-01
   7113.67  2.8181917E-01
   7114.00  2.3552187E-01
   7114.33  2.1235338E-01
   7114.67  2.0499164E-01
   7115.00  2.0504181E-01
   7115.33  2.0048193E-01
   7115.67  1.9102241E-01
   7116.00  1.8011421E-01
   7116.33  1.6699348E-01
   7116.67  1.5371206E-01
   7117.00  1.4310861E-01
   7117.33  1.3650585E-01
   7117.67  1.3249962E-01
   7118.00  1.2980482E-01
   7118.33  1.2738955E-01
   7118.67  1.2555170E-01
   7119.00  1.2519576E-01
   7119.33  1.2705067E-01
   7119.67  1.3036902E-01
   7120.00  1.3427612E-01
   7120.33  1.3808695E-01
   7120.67  1.4261531E-01
   7121.00  1.4949336E-01
   7121.33  1.6065124E-01
   7121.67  1.7625964E-01
   7122.00  1.9648876E-01
   7122.33  2.2161850E-01
   7122.67  2.5006615E-01
   7123.00  2.8022847E-01
   7123.33  3.0989541E-01
   7123.67  3.3791708E-01
   7124.00  3.6462585E-01
   7124.33  3.9116978E-01
   7124.67  4.1812460E-01
   7125.00  4.4485781E-01
   7125.33  4.6924128E-01
   7125.67  4.8924610E-01
   7126.00  5.0341548E-01
   7126.33  5.1066913E-01
   7126.67  5.1285309E-01
   7127.00  5.1136992E-01
   7127.33  5.0741959E-01
   7127.67  5.0236146E-01
   7128.00  4.9693614E-01
   7128.33  4.9195296E-01
   7128.67  4.8794864E-01
   7129.00  4.8527740E-01
   7129.33  4.8445771E-01
   7129.67  4.8561372E-01
   7130.00  4.8910885E-01
   7130.33  4.9571448E-01
   7130.67  5.0532498E-01
   7131.00  5.1786875E-01
   7131.33  5.3323095E-01
   7131.67  5.5040927E-01
   7132.00  5.6870062E-01
   7132.33  5.8722717E-01
   7132.67  6.0497406E-01
   7133.00  6.2107332E-01
   7133.33  6.3430773E-01
   7133.67  6.4437477E-01
   7134.00  6.5110997E-01
   7134.33  6.5460281E-01
   7134.67  6.5637014E-01
   7135.00  6.5769419E-01
   7135.33  6.5999326E-01
   7135.67  6.6386447E-01
   7136.00  6.6932436E-01
   7136.33  6.7596529E-01
   7136.67  6.8279948E-01
   7137.00  6.8908327E-01
   7137.33  6.9400874E-01
   7137.67  6.9739464E-01
   7138.00  6.9921026E-01
   7138.33  6.9946835E-01
   7138.67  6.9866328E-01
   7139.00  6.9710301E-01
   7139.33  6.9506613E-01
   7139.67  6.9287604E-01
   7140.00  6.9071231E-01
   7140.33  6.8872182E-01
   7140.67  6.8689457E-01
   7141.00  6.8520001E-01
   7141.33  6.8365517E-01
   7141.67  6.8228856E-01
   7142.00  6.8115725E-01
   7142.33  6.8036372E-01
   7142.67  6.7991680E-01
   7143.00  6.7983447E-01
   7143.33  6.8015712E-01
   7143.67  6.8081328E-01
   7144.00  6.8176854E-01
   7144.33  6.8300464E-01
   7144.67  6.8442964E-01
   7145.00  6.8597732E-01
   7145.33  6.8754695E-01
   7145.67  6.8899645E-01
   7146.00  6.9017609E-01
   7146.33  6.9083014E-01
   7146.67  6.9082239E-01
   7147.00  6.9001677E-01
   7147.33  6.8821339E-01
   7147.67  6.8552844E-01
   7148.00  6.8204029E-01
   7148.33  6.7782241E-01
   7148.67  6.7314248E-01
   7149.00  6.6815698E-01
   7149.33  6.6299688E-01
   7149.67  6.5778236E-01
   7150.00  6.5255696E-01
   7150.33  6.4732670E-01
   7150.67  6.4206563E-01
   7151.00  6.3672933E-01
   7151.33  6.3123061E-01
   7151.67  6.2551683E-01
   7152.00  6.1953260E-01
   7152.33  6.1318249E-01
   7152.67  6.0646991E-01
   7153.00  5.9938060E-01
   7153.33  5.9187198E-01
   7153.67  5.8401579E-01
   7154.00  5.7585047E-01
   7154.33  5.6740751E-01
   7154.67  5.5879415E-01
   7155.00  5.5008287E-01
   7155.33  5.4135970E-01
   7155.67  5.3271335E-01
   7156.00  5.2421650E-01
   7156.33  5.1597565E-01
   7156.67  5.0803011E-01
   7157.00  5.0042829E-01
   7157.33  4.9326232E-01
   7157.67  4.8651339E-01
   7158.00  4.8019508E-01
   7158.33  4.7436154E-01
   7158.67  4.6894159E-01
   7159.00  4.6390667E-01
   7159.33  4.5925078E-01
   7159.67  4.5487367E-01
   7160.00  4.5072278E-01
   7160.33  4.4675061E-01
   7160.67  4.4286730E-01
   7161.00  4.3901957E-01
   7161.33  4.3516118E-01
   7161.67  4.3126738E-01
   7162.00  4.2732860E-01
   7162.33  4.2334031E-01
   7162.67  4.1932203E-01
   7163.00  4.1529319E-01
   7163.33  4.1128198E-01
   7163.67  4.0731307E-01
   7164.00  4.0340721E-01
   7164.33  3.9959482E-01
   7164.67  3.9588149E-01
   7165.00  3.9227772E-01
   7165.33  3.8880589E-01
   7165.67  3.8545550E-01
   7166.00  3.8222947E-01
   7166.33  3.7914796E-01
   7166.67  3.7620029E-01
   7167.00  3.7339254E-01
   7167.33  3.7075316E-01
   7167.67  3.6827813E-01
   7168.00  3.6598605E-01
   7168.33  3.6392194E-01
   7168.67  3.6207291E-01
   7169.00  3.6045207E-01
   7169.33  3.5910652E-01
   7169.67  3.5801949E-01
   7170.00  3.5719891E-01
   7170.33  3.5668048E-01
   7170.67  3.5642251E-01
   7171.00  3.5640668E-01
   7171.33  3.5661427E-01
   7171.67  3.5693530E-01
   7172.00  3.5725296E-01
