    FDMNES
    energy     <xanes>
   7097.00  5.1234156E-03
   7097.33  5.2469788E-03
   7097.67  5.3763126E-03
   7098.00  5.5118200E-03
   7098.33  5.6548580E-03
   7098.67  5.8051714E-03
   7099.00  5.9633143E-03
   7099.33  6.1310770E-03
   7099.67  6.3082044E-03
   7100.00  6.4954797E-03
   7100.33  6.6953293E-03
   7100.67  6.9075310E-03
   7101.00  7.1332271E-03
   7101.33  7.3758145E-03
   7101.67  7.6351741E-03
   7102.00  7.9130379E-03
   7102.33  8.2143480E-03
   7102.67  8.5392454E-03
   7103.00  8.8904793E-03
   7103.33  9.2755879E-03
   7103.67  9.6953305E-03
   7104.00  1.0154325E-02
   7104.33  1.0664766E-02
   7104.67  1.1228897E-02
   7105.00  1.1855051E-02
   7105.33  1.2564501E-02
   7105.67  1.3363249E-02
   7106.00  1.4267802E-02
   7106.33  1.5319197E-02
   7106.67  1.6533927E-02
   7107.00  1.7949154E-02
   7107.33  1.9655995E-02
   7107.67  2.1705191E-02
   7108.00  2.4197547E-02
   7108.33  2.7382974E-02
   7108.67  3.1455680E-02
   7109.00  3.6782622E-02
   7109.33  4.4332362E-02
   7109.67  5.5198641E-02
   7110.00  7.1526041E-02
   7110.33  9.9432895E-02
   7110.67  1.4480939E-01
   7111.00  2.0653511E-01
   7111.33  2.6481130E-01
   7111.67  3.1319616E-01
   7112.00  3.5482840E-01
   7112.33  3.8576332E-01
   7112.67  4.0654875E-01
   7113.00  4.1954263E-01
   7113.33  4.1246975E-01
   7113.67  3.7819329E-01
   7114.00  3.2587843E-01
   7114.33  2.7459737E-01
   7114.67  2.3384405E-01
   7115.00  2.0453726E-01
   7115.33  1.8568250E-01
   7115.67  1.7287983E-01
   7116.00  1.6290977E-01
   7116.33  1.5254467E-01
   7116.67  1.4173238E-01
   7117.00  1.3249979E-01
   7117.33  1.2665669E-01
   7117.67  1.2343099E-01
   7118.00  1.2212055E-01
   7118.33  1.2244836E-01
   7118.67  1.2376168E-01
   7119.00  1.2536021E-01
   7119.33  1.2652065E-01
   7119.67  1.2738732E-01
   7120.00  1.2842240E-01
   7120.33  1.3005676E-01
   7120.67  1.3247559E-01
   7121.00  1.3586795E-01
   7121.33  1.4035753E-01
   7121.67  1.4594322E-01
   7122.00  1.5302839E-01
   7122.33  1.6265702E-01
   7122.67  1.7573023E-01
   7123.00  1.9323975E-01
   7123.33  2.1583478E-01
   7123.67  2.4126527E-01
   7124.00  2.6733352E-01
   7124.33  2.9224156E-01
   7124.67  3.1590967E-01
   7125.00  3.3878972E-01
   7125.33  3.6170462E-01
   7125.67  3.8540611E-01
   7126.00  4.0988384E-01
   7126.33  4.3391458E-01
   7126.67  4.5601292E-01
   7127.00  4.7558513E-01
   7127.33  4.9291873E-01
   7127.67  5.0961704E-01
   7128.00  5.2704068E-01
   7128.33  5.4678792E-01
   7128.67  5.6920842E-01
   7129.00  5.9406621E-01
   7129.33  6.2048822E-01
   7129.67  6.4662092E-01
   7130.00  6.7101438E-01
   7130.33  6.9232591E-01
   7130.67  7.1037994E-01
   7131.00  7.2456818E-01
   7131.33  7.3366781E-01
   7131.67  7.3847314E-01
   7132.00  7.4009320E-01
   7132.33  7.4036555E-01
   7132.67  7.4155777E-01
   7133.00  7.4496942E-01
   7133.33  7.5106759E-01
   7133.67  7.5799812E-01
   7134.00  7.6352225E-01
   7134.33  7.6489446E-01
   7134.67  7.6181582E-01
   7135.00  7.5489883E-01
   7135.33  7.4528367E-01
   7135.67  7.3472968E-01
   7136.00  7.2411118E-01
   7136.33  7.1383590E-01
   7136.67  7.0362350E-01
   7137.00  6.9305932E-01
   7137.33  6.8178701E-01
   7137.67  6.7012127E-01
   7138.00  6.5865739E-01
   7138.33  6.4839549E-01
   7138.67  6.3992686E-01
   7139.00  6.3361080E-01
   7139.33  6.2983176E-01
   7139.67  6.2815506E-01
   7140.00  6.2832464E-01
   7140.33  6.3017274E-01
   7140.67  6.3316344E-01
   7141.00  6.3701277E-01
   7141.33  6.4144548E-01
   7141.67  6.4599908E-01
   7142.00  6.5025908E-01
   7142.33  6.5356833E-01
   7142.67  6.5549586E-01
   7143.00  6.5569649E-01
   7143.33  6.5377165E-01
   7143.67  6.5007576E-01
   7144.00  6.4487948E-01
   7144.33  6.3844139E-01
   7144.67  6.3127709E-01
   7145.00  6.2364629E-01
   7145.33  6.1573097E-01
   7145.67  6.0769448E-01
   7146.00  5.9960316E-01
   7146.33  5.9150092E-01
   7146.67  5.8341983E-01
   7147.00  5.7538282E-01
   7147.33  5.6741938E-01
   7147.67  5.5955542E-01
   7148.00  5.5183790E-01
   7148.33  5.4435525E-01
   7148.67  5.3715075E-01
   7149.00  5.3029027E-01
   7149.33  5.2389551E-01
   7149.67  5.1796404E-01
   7150.00  5.1252433E-01
   7150.33  5.0765821E-01
   7150.67  5.0330417E-01
   7151.00  4.9945367E-01
   7151.33  4.9614862E-01
   7151.67  4.9330741E-01
   7152.00  4.9091484E-01
   7152.33  4.8901382E-01
   7152.67  4.8754697E-01
   7153.00  4.8651972E-01
   7153.33  4.8600122E-01
   7153.67  4.8594903E-01
   7154.00  4.8637091E-01
   7154.33  4.8732106E-01
   7154.67  4.8871202E-01
   7155.00  4.9049274E-01
   7155.33  4.9260348E-01
   7155.67  4.9487446E-01
   7156.00  4.9717150E-01
   7156.33  4.9931183E-01
   7156.67  5.0115448E-01
   7157.00  5.0258196E-01
   7157.33  5.0342576E-01
   7157.67  5.0368869E-01
   7158.00  5.0335023E-01
   7158.33  5.0234425E-01
   7158.67  5.0077808E-01
   7159.00  4.9869232E-01
   7159.33  4.9608184E-01
   7159.67  4.9305873E-01
   7160.00  4.8966775E-01
   7160.33  4.8591983E-01
   7160.67  4.8190360E-01
   7161.00  4.7766139E-01
   7161.33  4.7322544E-01
   7161.67  4.6867507E-01
   7162.00  4.6405588E-01
   7162.33  4.5941164E-01
   7162.67  4.5480260E-01
   7163.00  4.5028557E-01
   7163.33  4.4594138E-01
   7163.67  4.4180360E-01
   7164.00  4.3790945E-01
   7164.33  4.3432491E-01
   7164.67  4.3103443E-01
   7165.00  4.2804528E-01
   7165.33  4.2539376E-01
   7165.67  4.2303291E-01
   7166.00  4.2095117E-01
   7166.33  4.1916678E-01
   7166.67  4.1763200E-01
   7167.00  4.1633581E-01
   7167.33  4.1529760E-01
   7167.67  4.1448451E-01
   7168.00  4.1389829E-01
   7168.33  4.1356920E-01
   7168.67  4.1346541E-01
   7169.00  4.1358192E-01
   7169.33  4.1393486E-01
   7169.67  4.1448065E-01
   7170.00  4.1519754E-01
   7170.33  4.1606949E-01
   7170.67  4.1703783E-01
   7171.00  4.1806018E-01
   7171.33  4.1907512E-01
   7171.67  4.2000219E-01
   7172.00  4.2075312E-01
