    FDMNES
    energy     <xanes>
   7097.00  5.0445672E-03
   7097.33  5.1645345E-03
   7097.67  5.2900025E-03
   7098.00  5.4213492E-03
   7098.33  5.5598573E-03
   7098.67  5.7052746E-03
   7099.00  5.8581182E-03
   7099.33  6.0200729E-03
   7099.67  6.1908835E-03
   7100.00  6.3712774E-03
   7100.33  6.5635263E-03
   7100.67  6.7674003E-03
   7101.00  6.9839547E-03
   7101.33  7.2163511E-03
   7101.67  7.4644461E-03
   7102.00  7.7298293E-03
   7102.33  8.0170694E-03
   7102.67  8.3262456E-03
   7103.00  8.6598620E-03
   7103.33  9.0248297E-03
   7103.67  9.4217598E-03
   7104.00  9.8548185E-03
   7104.33  1.0335073E-02
   7104.67  1.0864405E-02
   7105.00  1.1450239E-02
   7105.33  1.2111632E-02
   7105.67  1.2853641E-02
   7106.00  1.3690739E-02
   7106.33  1.4659030E-02
   7106.67  1.5772276E-02
   7107.00  1.7062307E-02
   7107.33  1.8607237E-02
   7107.67  2.0448402E-02
   7108.00  2.2669191E-02
   7108.33  2.5475503E-02
   7108.67  2.9019065E-02
   7109.00  3.3587428E-02
   7109.33  3.9929822E-02
   7109.67  4.8847044E-02
   7110.00  6.1897092E-02
   7110.33  8.3497492E-02
   7110.67  1.1826282E-01
   7111.00  1.6793978E-01
   7111.33  2.2472198E-01
   7111.67  2.8213258E-01
   7112.00  3.3804966E-01
   7112.33  3.9437771E-01
   7112.67  4.4726255E-01
   7113.00  4.6877853E-01
   7113.33  4.2366853E-01
   7113.67  3.4963769E-01
   7114.00  2.8077464E-01
   7114.33  2.3178222E-01
   7114.67  1.9837366E-01
   7115.00  1.7703324E-01
   7115.33  1.6490471E-01
   7115.67  1.5710020E-01
   7116.00  1.5084753E-01
   7116.33  1.4489052E-01
   7116.67  1.3903828E-01
   7117.00  1.3298588E-01
   7117.33  1.2724770E-01
   7117.67  1.2326567E-01
   7118.00  1.2188651E-01
   7118.33  1.2325642E-01
   7118.67  1.2619645E-01
   7119.00  1.3011353E-01
   7119.33  1.3465233E-01
   7119.67  1.3890489E-01
   7120.00  1.4211053E-01
   7120.33  1.4456729E-01
   7120.67  1.4768496E-01
   7121.00  1.5193196E-01
   7121.33  1.5680085E-01
   7121.67  1.6204794E-01
   7122.00  1.6865239E-01
   7122.33  1.7872612E-01
   7122.67  1.9315470E-01
   7123.00  2.1176557E-01
   7123.33  2.3218619E-01
   7123.67  2.5131338E-01
   7124.00  2.6964989E-01
   7124.33  2.9020267E-01
   7124.67  3.1360859E-01
   7125.00  3.3822309E-01
   7125.33  3.6071139E-01
   7125.67  3.7951343E-01
   7126.00  3.9536686E-01
   7126.33  4.1068255E-01
   7126.67  4.2757650E-01
   7127.00  4.4672182E-01
   7127.33  4.6836850E-01
   7127.67  4.9209443E-01
   7128.00  5.1800154E-01
   7128.33  5.4664282E-01
   7128.67  5.7768364E-01
   7129.00  6.1063892E-01
   7129.33  6.4441509E-01
   7129.67  6.7750108E-01
   7130.00  7.0919125E-01
   7130.33  7.3935119E-01
   7130.67  7.6809308E-01
   7131.00  7.9431148E-01
   7131.33  8.1479866E-01
   7131.67  8.2786012E-01
   7132.00  8.3340745E-01
   7132.33  8.3332264E-01
   7132.67  8.3169778E-01
   7133.00  8.3067243E-01
   7133.33  8.3080292E-01
   7133.67  8.2955943E-01
   7134.00  8.2327892E-01
   7134.33  8.0794297E-01
   7134.67  7.8527631E-01
   7135.00  7.5820631E-01
   7135.33  7.3058425E-01
   7135.67  7.0546006E-01
   7136.00  6.8425545E-01
   7136.33  6.6800438E-01
   7136.67  6.5579984E-01
   7137.00  6.4697929E-01
   7137.33  6.4091340E-01
   7137.67  6.3635297E-01
   7138.00  6.3258379E-01
   7138.33  6.2899220E-01
   7138.67  6.2519021E-01
   7139.00  6.2108367E-01
   7139.33  6.1678038E-01
   7139.67  6.1262627E-01
   7140.00  6.0896046E-01
   7140.33  6.0623765E-01
   7140.67  6.0455409E-01
   7141.00  6.0390182E-01
   7141.33  6.0415495E-01
   7141.67  6.0482545E-01
   7142.00  6.0554124E-01
   7142.33  6.0587002E-01
   7142.67  6.0554954E-01
   7143.00  6.0437593E-01
   7143.33  6.0203142E-01
   7143.67  5.9853124E-01
   7144.00  5.9387796E-01
   7144.33  5.8811519E-01
   7144.67  5.8169936E-01
   7145.00  5.7499138E-01
   7145.33  5.6841765E-01
   7145.67  5.6228836E-01
   7146.00  5.5678606E-01
   7146.33  5.5210605E-01
   7146.67  5.4816660E-01
   7147.00  5.4492237E-01
   7147.33  5.4236152E-01
   7147.67  5.4030390E-01
   7148.00  5.3865368E-01
   7148.33  5.3733646E-01
   7148.67  5.3621246E-01
   7149.00  5.3520281E-01
   7149.33  5.3423374E-01
   7149.67  5.3324171E-01
   7150.00  5.3219243E-01
   7150.33  5.3105409E-01
   7150.67  5.2983212E-01
   7151.00  5.2853464E-01
   7151.33  5.2717597E-01
   7151.67  5.2579516E-01
   7152.00  5.2442855E-01
   7152.33  5.2313513E-01
   7152.67  5.2196332E-01
   7153.00  5.2096351E-01
   7153.33  5.2021938E-01
   7153.67  5.1974650E-01
   7154.00  5.1956703E-01
   7154.33  5.1971831E-01
   7154.67  5.2013323E-01
   7155.00  5.2076066E-01
   7155.33  5.2152802E-01
   7155.67  5.2230555E-01
   7156.00  5.2298167E-01
   7156.33  5.2338954E-01
   7156.67  5.2342251E-01
   7157.00  5.2297017E-01
   7157.33  5.2184340E-01
   7157.67  5.2002549E-01
   7158.00  5.1746094E-01
   7158.33  5.1401960E-01
   7158.67  5.0980435E-01
   7159.00  5.0485134E-01
   7159.33  4.9915436E-01
   7159.67  4.9290513E-01
   7160.00  4.8621862E-01
   7160.33  4.7921067E-01
   7160.67  4.7207832E-01
   7161.00  4.6495972E-01
   7161.33  4.5802660E-01
   7161.67  4.5138317E-01
   7162.00  4.4511043E-01
   7162.33  4.3934779E-01
   7162.67  4.3410452E-01
   7163.00  4.2941693E-01
   7163.33  4.2537670E-01
   7163.67  4.2190962E-01
   7164.00  4.1899846E-01
   7164.33  4.1667400E-01
   7164.67  4.1482418E-01
   7165.00  4.1340120E-01
   7165.33  4.1238968E-01
   7165.67  4.1168048E-01
   7166.00  4.1121877E-01
   7166.33  4.1096448E-01
   7166.67  4.1083494E-01
   7167.00  4.1078374E-01
   7167.33  4.1076786E-01
   7167.67  4.1074711E-01
   7168.00  4.1069932E-01
   7168.33  4.1060093E-01
   7168.67  4.1045257E-01
   7169.00  4.1026031E-01
   7169.33  4.1003725E-01
   7169.67  4.0981106E-01
   7170.00  4.0960652E-01
   7170.33  4.0945975E-01
   7170.67  4.0939012E-01
   7171.00  4.0941178E-01
   7171.33  4.0953543E-01
   7171.67  4.0971898E-01
   7172.00  4.0990489E-01
