    FDMNES
    energy     <xanes>
   7097.00  4.9584303E-03
   7097.33  5.0730458E-03
   7097.67  5.1927669E-03
   7098.00  5.3179331E-03
   7098.33  5.4497159E-03
   7098.67  5.5878650E-03
   7099.00  5.7328404E-03
   7099.33  5.8861654E-03
   7099.67  6.0475803E-03
   7100.00  6.2177244E-03
   7100.33  6.3986287E-03
   7100.67  6.5900445E-03
   7101.00  6.7928870E-03
   7101.33  7.0099452E-03
   7101.67  7.2410278E-03
   7102.00  7.4874925E-03
   7102.33  7.7533080E-03
   7102.67  8.0384429E-03
   7103.00  8.3450008E-03
   7103.33  8.6788807E-03
   7103.67  9.0404454E-03
   7104.00  9.4331326E-03
   7104.33  9.8662051E-03
   7104.67  1.0340980E-02
   7105.00  1.0863470E-02
   7105.33  1.1449289E-02
   7105.67  1.2102158E-02
   7106.00  1.2833579E-02
   7106.33  1.3672515E-02
   7106.67  1.4629297E-02
   7107.00  1.5728835E-02
   7107.33  1.7032642E-02
   7107.67  1.8572164E-02
   7108.00  2.0412106E-02
   7108.33  2.2712955E-02
   7108.67  2.5591968E-02
   7109.00  2.9273328E-02
   7109.33  3.4344152E-02
   7109.67  4.1438117E-02
   7110.00  5.1796566E-02
   7110.33  6.8990606E-02
   7110.67  9.7046094E-02
   7111.00  1.3791017E-01
   7111.33  1.8132660E-01
   7111.67  2.2008952E-01
   7112.00  2.4474413E-01
   7112.33  2.3877972E-01
   7112.67  2.2731135E-01
   7113.00  2.3469397E-01
   7113.33  2.6832887E-01
   7113.67  3.2035728E-01
   7114.00  3.8676156E-01
   7114.33  4.4454172E-01
   7114.67  4.5092632E-01
   7115.00  4.0740055E-01
   7115.33  3.5015742E-01
   7115.67  3.1089625E-01
   7116.00  2.9663511E-01
   7116.33  2.9808025E-01
   7116.67  2.8978220E-01
   7117.00  2.6106261E-01
   7117.33  2.2273390E-01
   7117.67  1.9007943E-01
   7118.00  1.6665945E-01
   7118.33  1.5232855E-01
   7118.67  1.4362072E-01
   7119.00  1.3860916E-01
   7119.33  1.3570759E-01
   7119.67  1.3350860E-01
   7120.00  1.3157190E-01
   7120.33  1.2985289E-01
   7120.67  1.2860581E-01
   7121.00  1.2806403E-01
   7121.33  1.2835166E-01
   7121.67  1.2944893E-01
   7122.00  1.3145003E-01
   7122.33  1.3407211E-01
   7122.67  1.3681945E-01
   7123.00  1.3996937E-01
   7123.33  1.4462758E-01
   7123.67  1.5153215E-01
   7124.00  1.6124687E-01
   7124.33  1.7454784E-01
   7124.67  1.9069731E-01
   7125.00  2.0839080E-01
   7125.33  2.2542316E-01
   7125.67  2.4120178E-01
   7126.00  2.5714008E-01
   7126.33  2.7596368E-01
   7126.67  2.9871888E-01
   7127.00  3.2519028E-01
   7127.33  3.5386892E-01
   7127.67  3.8202512E-01
   7128.00  4.0812030E-01
   7128.33  4.3196886E-01
   7128.67  4.5576431E-01
   7129.00  4.8142036E-01
   7129.33  5.1016524E-01
   7129.67  5.4092603E-01
   7130.00  5.7268198E-01
   7130.33  6.0467316E-01
   7130.67  6.3662870E-01
   7131.00  6.6861517E-01
   7131.33  7.0058018E-01
   7131.67  7.3194806E-01
   7132.00  7.6179768E-01
   7132.33  7.8864897E-01
   7132.67  8.1204103E-01
   7133.00  8.3164845E-01
   7133.33  8.4676392E-01
   7133.67  8.5750106E-01
   7134.00  8.6326454E-01
   7134.33  8.6264912E-01
   7134.67  8.5627019E-01
   7135.00  8.4477921E-01
   7135.33  8.2882370E-01
   7135.67  8.0974149E-01
   7136.00  7.8795358E-01
   7136.33  7.6367286E-01
   7136.67  7.3774839E-01
   7137.00  7.1066504E-01
   7137.33  6.8295925E-01
   7137.67  6.5549998E-01
   7138.00  6.2917339E-01
   7138.33  6.0540779E-01
   7138.67  5.8494640E-01
   7139.00  5.6839102E-01
   7139.33  5.5648052E-01
   7139.67  5.4839961E-01
   7140.00  5.4359912E-01
   7140.33  5.4163549E-01
   7140.67  5.4150562E-01
   7141.00  5.4276131E-01
   7141.33  5.4517403E-01
   7141.67  5.4837894E-01
   7142.00  5.5221896E-01
   7142.33  5.5657987E-01
   7142.67  5.6122698E-01
   7143.00  5.6600780E-01
   7143.33  5.7075642E-01
   7143.67  5.7534848E-01
   7144.00  5.7970977E-01
   7144.33  5.8375823E-01
   7144.67  5.8750968E-01
   7145.00  5.9095714E-01
   7145.33  5.9405471E-01
   7145.67  5.9683426E-01
   7146.00  5.9928841E-01
   7146.33  6.0135966E-01
   7146.67  6.0307793E-01
   7147.00  6.0444037E-01
   7147.33  6.0540473E-01
   7147.67  6.0601775E-01
   7148.00  6.0628030E-01
   7148.33  6.0614632E-01
   7148.67  6.0565297E-01
   7149.00  6.0479864E-01
   7149.33  6.0355056E-01
   7149.67  6.0197339E-01
   7150.00  6.0008915E-01
   7150.33  5.9789211E-01
   7150.67  5.9545478E-01
   7151.00  5.9281641E-01
   7151.33  5.9000807E-01
   7151.67  5.8710671E-01
   7152.00  5.8416855E-01
   7152.33  5.8125481E-01
   7152.67  5.7841414E-01
   7153.00  5.7568823E-01
   7153.33  5.7314275E-01
   7153.67  5.7079897E-01
   7154.00  5.6868749E-01
   7154.33  5.6686942E-01
   7154.67  5.6533244E-01
   7155.00  5.6408371E-01
   7155.33  5.6315217E-01
   7155.67  5.6248116E-01
   7156.00  5.6203957E-01
   7156.33  5.6179773E-01
   7156.67  5.6166550E-01
   7157.00  5.6157318E-01
   7157.33  5.6142279E-01
   7157.67  5.6112294E-01
   7158.00  5.6058953E-01
   7158.33  5.5968966E-01
   7158.67  5.5838441E-01
   7159.00  5.5661970E-01
   7159.33  5.5428811E-01
   7159.67  5.5142785E-01
   7160.00  5.4803800E-01
   7160.33  5.4408001E-01
   7160.67  5.3966286E-01
   7161.00  5.3483859E-01
   7161.33  5.2963685E-01
   7161.67  5.2418024E-01
   7162.00  5.1854151E-01
   7162.33  5.1279479E-01
   7162.67  5.0703838E-01
   7163.00  5.0134084E-01
   7163.33  4.9578764E-01
   7163.67  4.9042631E-01
   7164.00  4.8530654E-01
   7164.33  4.8051122E-01
   7164.67  4.7603770E-01
   7165.00  4.7190313E-01
   7165.33  4.6815807E-01
   7165.67  4.6475546E-01
   7166.00  4.6168505E-01
   7166.33  4.5896855E-01
   7166.67  4.5654512E-01
   7167.00  4.5439373E-01
   7167.33  4.5251825E-01
   7167.67  4.5085987E-01
   7168.00  4.4939331E-01
   7168.33  4.4810747E-01
   7168.67  4.4695083E-01
   7169.00  4.4589851E-01
   7169.33  4.4493206E-01
   7169.67  4.4401425E-01
   7170.00  4.4312292E-01
   7170.33  4.4223645E-01
   7170.67  4.4134030E-01
   7171.00  4.4043231E-01
   7171.33  4.3952820E-01
   7171.67  4.3867404E-01
   7172.00  4.3793995E-01
