    FDMNES
    energy     <xanes>
   7097.00  4.8609052E-03
   7097.33  4.9738137E-03
   7097.67  5.0917817E-03
   7098.00  5.2151554E-03
   7098.33  5.3451132E-03
   7098.67  5.4814233E-03
   7099.00  5.6245625E-03
   7099.33  5.7760838E-03
   7099.67  5.9357580E-03
   7100.00  6.1042624E-03
   7100.33  6.2837045E-03
   7100.67  6.4738901E-03
   7101.00  6.6758156E-03
   7101.33  6.8924449E-03
   7101.67  7.1236897E-03
   7102.00  7.3710794E-03
   7102.33  7.6389667E-03
   7102.67  7.9275277E-03
   7103.00  8.2392345E-03
   7103.33  8.5808266E-03
   7103.67  8.9531158E-03
   7104.00  9.3603575E-03
   7104.33  9.8137016E-03
   7104.67  1.0315515E-02
   7105.00  1.0873725E-02
   7105.33  1.1508408E-02
   7105.67  1.2225973E-02
   7106.00  1.3042779E-02
   7106.33  1.3999221E-02
   7106.67  1.5113387E-02
   7107.00  1.6423991E-02
   7107.33  1.8025677E-02
   7107.67  1.9976138E-02
   7108.00  2.2386620E-02
   7108.33  2.5533572E-02
   7108.67  2.9646668E-02
   7109.00  3.5154550E-02
   7109.33  4.3194215E-02
   7109.67  5.5094341E-02
   7110.00  7.3459216E-02
   7110.33  1.0594160E-01
   7110.67  1.6219784E-01
   7111.00  2.5037896E-01
   7111.33  3.4495203E-01
   7111.67  3.7080416E-01
   7112.00  3.1745882E-01
   7112.33  2.5274537E-01
   7112.67  2.0791421E-01
   7113.00  1.7614867E-01
   7113.33  1.4890076E-01
   7113.67  1.2898770E-01
   7114.00  1.1713765E-01
   7114.33  1.0910683E-01
   7114.67  9.9534330E-02
   7115.00  8.8758835E-02
   7115.33  7.9672216E-02
   7115.67  7.3124702E-02
   7116.00  6.8981864E-02
   7116.33  6.7106934E-02
   7116.67  6.6905851E-02
   7117.00  6.8132738E-02
   7117.33  7.0626316E-02
   7117.67  7.3963834E-02
   7118.00  7.8088495E-02
   7118.33  8.3363580E-02
   7118.67  9.0098637E-02
   7119.00  9.8812377E-02
   7119.33  1.1069503E-01
   7119.67  1.2634231E-01
   7120.00  1.4627331E-01
   7120.33  1.7078319E-01
   7120.67  1.9837971E-01
   7121.00  2.2798064E-01
   7121.33  2.5838250E-01
   7121.67  2.8886538E-01
   7122.00  3.2062385E-01
   7122.33  3.5756036E-01
   7122.67  4.0214543E-01
   7123.00  4.5547006E-01
   7123.33  5.1717583E-01
   7123.67  5.8135519E-01
   7124.00  6.4151944E-01
   7124.33  6.8949947E-01
   7124.67  7.2396998E-01
   7125.00  7.4605473E-01
   7125.33  7.5618606E-01
   7125.67  7.5630341E-01
   7126.00  7.4901739E-01
   7126.33  7.4016855E-01
   7126.67  7.3495990E-01
   7127.00  7.3545709E-01
   7127.33  7.4305189E-01
   7127.67  7.5585077E-01
   7128.00  7.7059340E-01
   7128.33  7.7997444E-01
   7128.67  7.7774289E-01
   7129.00  7.6209546E-01
   7129.33  7.3651327E-01
   7129.67  7.0869786E-01
   7130.00  6.8191604E-01
   7130.33  6.5741105E-01
   7130.67  6.3466407E-01
   7131.00  6.1346709E-01
   7131.33  5.9439982E-01
   7131.67  5.7822606E-01
   7132.00  5.6605988E-01
   7132.33  5.5967184E-01
   7132.67  5.5892584E-01
   7133.00  5.6348725E-01
   7133.33  5.7238958E-01
   7133.67  5.8274479E-01
   7134.00  5.9223063E-01
   7134.33  5.9836320E-01
   7134.67  6.0052662E-01
   7135.00  5.9852517E-01
   7135.33  5.9201901E-01
   7135.67  5.8221663E-01
   7136.00  5.7028725E-01
   7136.33  5.5792385E-01
   7136.67  5.4676953E-01
   7137.00  5.3771453E-01
   7137.33  5.3151108E-01
   7137.67  5.2784115E-01
   7138.00  5.2651114E-01
   7138.33  5.2744516E-01
   7138.67  5.3001484E-01
   7139.00  5.3387117E-01
   7139.33  5.3868049E-01
   7139.67  5.4386370E-01
   7140.00  5.4900070E-01
   7140.33  5.5355277E-01
   7140.67  5.5717500E-01
   7141.00  5.5960616E-01
   7141.33  5.6051535E-01
   7141.67  5.6007771E-01
   7142.00  5.5842155E-01
   7142.33  5.5567945E-01
   7142.67  5.5228208E-01
   7143.00  5.4849977E-01
   7143.33  5.4459206E-01
   7143.67  5.4076699E-01
   7144.00  5.3711754E-01
   7144.33  5.3369609E-01
   7144.67  5.3043596E-01
   7145.00  5.2726776E-01
   7145.33  5.2409350E-01
   7145.67  5.2081835E-01
   7146.00  5.1737378E-01
   7146.33  5.1367728E-01
   7146.67  5.0973334E-01
   7147.00  5.0554173E-01
   7147.33  5.0110550E-01
   7147.67  4.9651653E-01
   7148.00  4.9183399E-01
   7148.33  4.8709979E-01
   7148.67  4.8232935E-01
   7149.00  4.7749714E-01
   7149.33  4.7252687E-01
   7149.67  4.6735620E-01
   7150.00  4.6192093E-01
   7150.33  4.5612572E-01
   7150.67  4.4998132E-01
   7151.00  4.4348302E-01
   7151.33  4.3659882E-01
   7151.67  4.2939595E-01
   7152.00  4.2190532E-01
   7152.33  4.1414371E-01
   7152.67  4.0619984E-01
   7153.00  3.9813311E-01
   7153.33  3.9001584E-01
   7153.67  3.8193834E-01
   7154.00  3.7397554E-01
   7154.33  3.6623732E-01
   7154.67  3.5877759E-01
   7155.00  3.5165673E-01
   7155.33  3.4498283E-01
   7155.67  3.3874763E-01
   7156.00  3.3297138E-01
   7156.33  3.2772310E-01
   7156.67  3.2294817E-01
   7157.00  3.1864956E-01
   7157.33  3.1489306E-01
   7157.67  3.1162959E-01
   7158.00  3.0887468E-01
   7158.33  3.0671774E-01
   7158.67  3.0511612E-01
   7159.00  3.0408685E-01
   7159.33  3.0371212E-01
   7159.67  3.0391242E-01
   7160.00  3.0466701E-01
   7160.33  3.0599810E-01
   7160.67  3.0778395E-01
   7161.00  3.0996752E-01
   7161.33  3.1252114E-01
   7161.67  3.1533302E-01
   7162.00  3.1833831E-01
   7162.33  3.2147904E-01
   7162.67  3.2468862E-01
   7163.00  3.2793987E-01
   7163.33  3.3121411E-01
   7163.67  3.3449325E-01
   7164.00  3.3776849E-01
   7164.33  3.4103671E-01
   7164.67  3.4430459E-01
   7165.00  3.4758312E-01
   7165.33  3.5089494E-01
   7165.67  3.5425982E-01
   7166.00  3.5769947E-01
   7166.33  3.6125110E-01
   7166.67  3.6492336E-01
   7167.00  3.6872927E-01
   7167.33  3.7269454E-01
   7167.67  3.7680112E-01
   7168.00  3.8104168E-01
   7168.33  3.8541494E-01
   7168.67  3.8988357E-01
   7169.00  3.9442436E-01
   7169.33  3.9901293E-01
   7169.67  4.0361250E-01
   7170.00  4.0819450E-01
   7170.33  4.1271551E-01
   7170.67  4.1713780E-01
   7171.00  4.2140966E-01
   7171.33  4.2540449E-01
   7171.67  4.2897929E-01
   7172.00  4.3190550E-01
