    FDMNES
    energy     <xanes>
   7097.00  5.3274942E-03
   7097.33  5.4594098E-03
   7097.67  5.5975309E-03
   7098.00  5.7422847E-03
   7098.33  5.8951191E-03
   7098.67  6.0557485E-03
   7099.00  6.2247548E-03
   7099.33  6.4040340E-03
   7099.67  6.5932922E-03
   7100.00  6.7933413E-03
   7100.33  7.0067257E-03
   7100.67  7.2331693E-03
   7101.00  7.4738384E-03
   7101.33  7.7322462E-03
   7101.67  8.0081927E-03
   7102.00  8.3034107E-03
   7102.33  8.6229193E-03
   7102.67  8.9667216E-03
   7103.00  9.3374983E-03
   7103.33  9.7427206E-03
   7103.67  1.0182878E-02
   7104.00  1.0662327E-02
   7104.33  1.1192767E-02
   7104.67  1.1775833E-02
   7105.00  1.2419054E-02
   7105.33  1.3141961E-02
   7105.67  1.3948984E-02
   7106.00  1.4854208E-02
   7106.33  1.5893103E-02
   7106.67  1.7077447E-02
   7107.00  1.8436585E-02
   7107.33  2.0042889E-02
   7107.67  2.1930129E-02
   7108.00  2.4169715E-02
   7108.33  2.6937351E-02
   7108.67  3.0348192E-02
   7109.00  3.4624673E-02
   7109.33  4.0335903E-02
   7109.67  4.8029011E-02
   7110.00  5.8762807E-02
   7110.33  7.5509770E-02
   7110.67  1.0168143E-01
   7111.00  1.4067465E-01
   7111.33  1.9012617E-01
   7111.67  2.4003053E-01
   7112.00  2.9270020E-01
   7112.33  3.6554597E-01
   7112.67  4.6334462E-01
   7113.00  5.8034729E-01
   7113.33  6.7470173E-01
   7113.67  6.8603706E-01
   7114.00  6.0225377E-01
   7114.33  4.8004043E-01
   7114.67  3.8055982E-01
   7115.00  3.1204725E-01
   7115.33  2.6996444E-01
   7115.67  2.4355086E-01
   7116.00  2.2824783E-01
   7116.33  2.2072446E-01
   7116.67  2.1505035E-01
   7117.00  2.0675726E-01
   7117.33  1.9354417E-01
   7117.67  1.7800940E-01
   7118.00  1.6290528E-01
   7118.33  1.5099369E-01
   7118.67  1.4253884E-01
   7119.00  1.3703690E-01
   7119.33  1.3382722E-01
   7119.67  1.3185229E-01
   7120.00  1.3054267E-01
   7120.33  1.2936969E-01
   7120.67  1.2805850E-01
   7121.00  1.2663526E-01
   7121.33  1.2540203E-01
   7121.67  1.2482319E-01
   7122.00  1.2525909E-01
   7122.33  1.2699198E-01
   7122.67  1.2981954E-01
   7123.00  1.3369218E-01
   7123.33  1.3875432E-01
   7123.67  1.4495599E-01
   7124.00  1.5241425E-01
   7124.33  1.6149636E-01
   7124.67  1.7226992E-01
   7125.00  1.8500565E-01
   7125.33  2.0036262E-01
   7125.67  2.1839680E-01
   7126.00  2.3929491E-01
   7126.33  2.6332968E-01
   7126.67  2.8962161E-01
   7127.00  3.1742800E-01
   7127.33  3.4576877E-01
   7127.67  3.7365409E-01
   7128.00  4.0102487E-01
   7128.33  4.2948692E-01
   7128.67  4.6146537E-01
   7129.00  4.9885921E-01
   7129.33  5.4296319E-01
   7129.67  5.9090459E-01
   7130.00  6.3911080E-01
   7130.33  6.8290201E-01
   7130.67  7.2083951E-01
   7131.00  7.5372013E-01
   7131.33  7.8397095E-01
   7131.67  8.1490902E-01
   7132.00  8.4853298E-01
   7132.33  8.8652333E-01
   7132.67  9.2800428E-01
   7133.00  9.7099300E-01
   7133.33  1.0105664E+00
   7133.67  1.0406531E+00
   7134.00  1.0555757E+00
   7134.33  1.0486461E+00
   7134.67  1.0223796E+00
   7135.00  9.8014955E-01
   7135.33  9.2647588E-01
   7135.67  8.6822645E-01
   7136.00  8.0909046E-01
   7136.33  7.5221949E-01
   7136.67  6.9913778E-01
   7137.00  6.5080597E-01
   7137.33  6.0865513E-01
   7137.67  5.7249971E-01
   7138.00  5.4262832E-01
   7138.33  5.2000782E-01
   7138.67  5.0375426E-01
   7139.00  4.9356344E-01
   7139.33  4.8946896E-01
   7139.67  4.8987238E-01
   7140.00  4.9382248E-01
   7140.33  5.0044282E-01
   7140.67  5.0834816E-01
   7141.00  5.1677669E-01
   7141.33  5.2509220E-01
   7141.67  5.3295977E-01
   7142.00  5.4025455E-01
   7142.33  5.4687818E-01
   7142.67  5.5293418E-01
   7143.00  5.5844435E-01
   7143.33  5.6333546E-01
   7143.67  5.6763585E-01
   7144.00  5.7129060E-01
   7144.33  5.7414130E-01
   7144.67  5.7622208E-01
   7145.00  5.7750927E-01
   7145.33  5.7790990E-01
   7145.67  5.7754894E-01
   7146.00  5.7645640E-01
   7146.33  5.7460173E-01
   7146.67  5.7214612E-01
   7147.00  5.6916710E-01
   7147.33  5.6570866E-01
   7147.67  5.6192430E-01
   7148.00  5.5790025E-01
   7148.33  5.5371776E-01
   7148.67  5.4949121E-01
   7149.00  5.4530438E-01
   7149.33  5.4127470E-01
   7149.67  5.3747618E-01
   7150.00  5.3397773E-01
   7150.33  5.3089741E-01
   7150.67  5.2825317E-01
   7151.00  5.2609434E-01
   7151.33  5.2453633E-01
   7151.67  5.2355192E-01
   7152.00  5.2316885E-01
   7152.33  5.2349189E-01
   7152.67  5.2446362E-01
   7153.00  5.2609698E-01
   7153.33  5.2848011E-01
   7153.67  5.3151927E-01
   7154.00  5.3519083E-01
   7154.33  5.3951890E-01
   7154.67  5.4435445E-01
   7155.00  5.4960876E-01
   7155.33  5.5518860E-01
   7155.67  5.6090522E-01
   7156.00  5.6661579E-01
   7156.33  5.7212914E-01
   7156.67  5.7730624E-01
   7157.00  5.8202375E-01
   7157.33  5.8609054E-01
   7157.67  5.8949134E-01
   7158.00  5.9217740E-01
   7158.33  5.9402783E-01
   7158.67  5.9513356E-01
   7159.00  5.9551052E-01
   7159.33  5.9510627E-01
   7159.67  5.9405355E-01
   7160.00  5.9239686E-01
   7160.33  5.9012087E-01
   7160.67  5.8734564E-01
   7161.00  5.8410872E-01
   7161.33  5.8039334E-01
   7161.67  5.7628647E-01
   7162.00  5.7181110E-01
   7162.33  5.6694296E-01
   7162.67  5.6174537E-01
   7163.00  5.5623623E-01
   7163.33  5.5040057E-01
   7163.67  5.4429801E-01
   7164.00  5.3795125E-01
   7164.33  5.3136335E-01
   7164.67  5.2459477E-01
   7165.00  5.1767847E-01
   7165.33  5.1064356E-01
   7165.67  5.0354810E-01
   7166.00  4.9643252E-01
   7166.33  4.8934724E-01
   7166.67  4.8233349E-01
   7167.00  4.7542772E-01
   7167.33  4.6868851E-01
   7167.67  4.6213449E-01
   7168.00  4.5579530E-01
   7168.33  4.4973479E-01
   7168.67  4.4395296E-01
   7169.00  4.3847333E-01
   7169.33  4.3335884E-01
   7169.67  4.2858636E-01
   7170.00  4.2416873E-01
   7170.33  4.2016493E-01
   7170.67  4.1653992E-01
   7171.00  4.1330333E-01
   7171.33  4.1052337E-01
   7171.67  4.0818414E-01
   7172.00  4.0633099E-01
