    FDMNES
    energy     <xanes>
   7097.00  4.2557766E-03
   7097.33  4.3347081E-03
   7097.67  4.4163957E-03
   7098.00  4.5009911E-03
   7098.33  4.5890750E-03
   7098.67  4.6804726E-03
   7099.00  4.7753841E-03
   7099.33  4.8745378E-03
   7099.67  4.9777487E-03
   7100.00  5.0852885E-03
   7100.33  5.1980956E-03
   7100.67  5.3159823E-03
   7101.00  5.4393314E-03
   7101.33  5.5693916E-03
   7101.67  5.7059928E-03
   7102.00  5.8496966E-03
   7102.33  6.0022356E-03
   7102.67  6.1635027E-03
   7103.00  6.3343669E-03
   7103.33  6.5173614E-03
   7103.67  6.7125505E-03
   7104.00  6.9213697E-03
   7104.33  7.1477812E-03
   7104.67  7.3922922E-03
   7105.00  7.6574785E-03
   7105.33  7.9501095E-03
   7105.67  8.2718728E-03
   7106.00  8.6279164E-03
   7106.33  9.0312587E-03
   7106.67  9.4870453E-03
   7107.00  1.0007188E-02
   7107.33  1.0621202E-02
   7107.67  1.1346177E-02
   7108.00  1.2216137E-02
   7108.33  1.3316460E-02
   7108.67  1.4718151E-02
   7109.00  1.6556007E-02
   7109.33  1.9193865E-02
   7109.67  2.3075177E-02
   7110.00  2.9081501E-02
   7110.33  3.9744625E-02
   7110.67  5.7093228E-02
   7111.00  7.7694645E-02
   7111.33  8.4932986E-02
   7111.67  8.5250905E-02
   7112.00  9.3619931E-02
   7112.33  1.0782377E-01
   7112.67  1.1105607E-01
   7113.00  1.0648653E-01
   7113.33  9.9655601E-02
   7113.67  8.8204498E-02
   7114.00  7.5551675E-02
   7114.33  6.6982230E-02
   7114.67  5.8129642E-02
   7115.00  4.8005278E-02
   7115.33  4.0187600E-02
   7115.67  3.5421215E-02
   7116.00  3.2848917E-02
   7116.33  3.1769623E-02
   7116.67  3.1567740E-02
   7117.00  3.2056743E-02
   7117.33  3.3189390E-02
   7117.67  3.4790740E-02
   7118.00  3.6786913E-02
   7118.33  3.9294054E-02
   7118.67  4.2449492E-02
   7119.00  4.6420401E-02
   7119.33  5.1523839E-02
   7119.67  5.7865526E-02
   7120.00  6.5679749E-02
   7120.33  7.5413936E-02
   7120.67  8.6840175E-02
   7121.00  9.9644823E-02
   7121.33  1.1367942E-01
   7121.67  1.2923724E-01
   7122.00  1.4715669E-01
   7122.33  1.6885952E-01
   7122.67  1.9471130E-01
   7123.00  2.2520098E-01
   7123.33  2.6132368E-01
   7123.67  3.0236375E-01
   7124.00  3.4746700E-01
   7124.33  3.9454073E-01
   7124.67  4.4031131E-01
   7125.00  4.8337800E-01
   7125.33  5.2545545E-01
   7125.67  5.7059029E-01
   7126.00  6.2088764E-01
   7126.33  6.7709804E-01
   7126.67  7.3707081E-01
   7127.00  7.9929251E-01
   7127.33  8.6224138E-01
   7127.67  9.2150420E-01
   7128.00  9.6989806E-01
   7128.33  9.9716135E-01
   7128.67  1.0053247E+00
   7129.00  1.0002100E+00
   7129.33  9.8577972E-01
   7129.67  9.6350669E-01
   7130.00  9.3333847E-01
   7130.33  8.9681752E-01
   7130.67  8.5937737E-01
   7131.00  8.2542342E-01
   7131.33  7.9862642E-01
   7131.67  7.7698850E-01
   7132.00  7.5700041E-01
   7132.33  7.3552797E-01
   7132.67  7.1344999E-01
   7133.00  6.9255709E-01
   7133.33  6.7418787E-01
   7133.67  6.5832844E-01
   7134.00  6.4556477E-01
   7134.33  6.3827484E-01
   7134.67  6.3795271E-01
   7135.00  6.4439674E-01
   7135.33  6.5332440E-01
   7135.67  6.5934901E-01
   7136.00  6.6145384E-01
   7136.33  6.6083457E-01
   7136.67  6.5948705E-01
   7137.00  6.5828204E-01
   7137.33  6.5774930E-01
   7137.67  6.5791411E-01
   7138.00  6.5870653E-01
   7138.33  6.5999517E-01
   7138.67  6.6147699E-01
   7139.00  6.6293582E-01
   7139.33  6.6413324E-01
   7139.67  6.6497319E-01
   7140.00  6.6543514E-01
   7140.33  6.6554477E-01
   7140.67  6.6545038E-01
   7141.00  6.6522903E-01
   7141.33  6.6489466E-01
   7141.67  6.6438942E-01
   7142.00  6.6356729E-01
   7142.33  6.6213528E-01
   7142.67  6.5993395E-01
   7143.00  6.5679987E-01
   7143.33  6.5246195E-01
   7143.67  6.4697123E-01
   7144.00  6.4029282E-01
   7144.33  6.3227401E-01
   7144.67  6.2310460E-01
   7145.00  6.1286226E-01
   7145.33  6.0156585E-01
   7145.67  5.8949430E-01
   7146.00  5.7679558E-01
   7146.33  5.6359160E-01
   7146.67  5.5011477E-01
   7147.00  5.3650858E-01
   7147.33  5.2292539E-01
   7147.67  5.0949288E-01
   7148.00  4.9630343E-01
   7148.33  4.8345905E-01
   7148.67  4.7093892E-01
   7149.00  4.5872718E-01
   7149.33  4.4680079E-01
   7149.67  4.3504497E-01
   7150.00  4.2338341E-01
   7150.33  4.1174873E-01
   7150.67  4.0011592E-01
   7151.00  3.8852263E-01
   7151.33  3.7710181E-01
   7151.67  3.6600687E-01
   7152.00  3.5540695E-01
   7152.33  3.4557007E-01
   7152.67  3.3654812E-01
   7153.00  3.2840643E-01
   7153.33  3.2126456E-01
   7153.67  3.1495298E-01
   7154.00  3.0938012E-01
   7154.33  3.0448257E-01
   7154.67  3.0003072E-01
   7155.00  2.9589286E-01
   7155.33  2.9195240E-01
   7155.67  2.8807796E-01
   7156.00  2.8420692E-01
   7156.33  2.8030447E-01
   7156.67  2.7638907E-01
   7157.00  2.7250704E-01
   7157.33  2.6875252E-01
   7157.67  2.6520514E-01
   7158.00  2.6195352E-01
   7158.33  2.5914925E-01
   7158.67  2.5682891E-01
   7159.00  2.5505214E-01
   7159.33  2.5394887E-01
   7159.67  2.5348600E-01
   7160.00  2.5369047E-01
   7160.33  2.5467338E-01
   7160.67  2.5636965E-01
   7161.00  2.5879196E-01
   7161.33  2.6204056E-01
   7161.67  2.6603014E-01
   7162.00  2.7075852E-01
   7162.33  2.7630835E-01
   7162.67  2.8258668E-01
   7163.00  2.8958868E-01
   7163.33  2.9738091E-01
   7163.67  3.0583372E-01
   7164.00  3.1489405E-01
   7164.33  3.2454879E-01
   7164.67  3.3463866E-01
   7165.00  3.4507747E-01
   7165.33  3.5579567E-01
   7165.67  3.6666557E-01
   7166.00  3.7760954E-01
   7166.33  3.8854495E-01
   7166.67  3.9940017E-01
   7167.00  4.1011883E-01
   7167.33  4.2061611E-01
   7167.67  4.3085993E-01
   7168.00  4.4080324E-01
   7168.33  4.5034784E-01
   7168.67  4.5948379E-01
   7169.00  4.6816431E-01
   7169.33  4.7627273E-01
   7169.67  4.8382135E-01
   7170.00  4.9076826E-01
   7170.33  4.9698978E-01
   7170.67  5.0253192E-01
   7171.00  5.0737218E-01
   7171.33  5.1140164E-01
   7171.67  5.1469496E-01
   7172.00  5.1724596E-01
