    FDMNES
    energy     <xanes>
   7097.00  3.8045176E-03
   7097.33  3.8706792E-03
   7097.67  3.9391363E-03
   7098.00  4.0100178E-03
   7098.33  4.0838118E-03
   7098.67  4.1603760E-03
   7099.00  4.2398810E-03
   7099.33  4.3229413E-03
   7099.67  4.4094064E-03
   7100.00  4.4995083E-03
   7100.33  4.5940410E-03
   7100.67  4.6928520E-03
   7101.00  4.7962679E-03
   7101.33  4.9053474E-03
   7101.67  5.0199519E-03
   7102.00  5.1405595E-03
   7102.33  5.2686384E-03
   7102.67  5.4041003E-03
   7103.00  5.5476802E-03
   7103.33  5.7015176E-03
   7103.67  5.8656596E-03
   7104.00  6.0413077E-03
   7104.33  6.2317823E-03
   7104.67  6.4374764E-03
   7105.00  6.6605130E-03
   7105.33  6.9064873E-03
   7105.67  7.1767008E-03
   7106.00  7.4753058E-03
   7106.33  7.8128334E-03
   7106.67  8.1931888E-03
   7107.00  8.6256975E-03
   7107.33  9.1334833E-03
   7107.67  9.7291522E-03
   7108.00  1.0438237E-02
   7108.33  1.1324462E-02
   7108.67  1.2437719E-02
   7109.00  1.3872798E-02
   7109.33  1.5881193E-02
   7109.67  1.8750709E-02
   7110.00  2.3047070E-02
   7110.33  3.0396777E-02
   7110.67  4.2480522E-02
   7111.00  5.9717796E-02
   7111.33  7.8850196E-02
   7111.67  8.7890632E-02
   7112.00  8.0851105E-02
   7112.33  7.7824323E-02
   7112.67  7.9144600E-02
   7113.00  7.8480582E-02
   7113.33  7.9475170E-02
   7113.67  7.7396483E-02
   7114.00  7.5124815E-02
   7114.33  7.7862742E-02
   7114.67  7.6651309E-02
   7115.00  6.7658025E-02
   7115.33  6.2450057E-02
   7115.67  6.3471594E-02
   7116.00  6.7904774E-02
   7116.33  7.1480072E-02
   7116.67  7.0904948E-02
   7117.00  6.8281283E-02
   7117.33  6.7598049E-02
   7117.67  6.9381359E-02
   7118.00  7.3247380E-02
   7118.33  7.9628191E-02
   7118.67  8.8327463E-02
   7119.00  9.8813734E-02
   7119.33  1.0924549E-01
   7119.67  1.1696065E-01
   7120.00  1.2200041E-01
   7120.33  1.2648092E-01
   7120.67  1.3130545E-01
   7121.00  1.3663087E-01
   7121.33  1.4312657E-01
   7121.67  1.5121953E-01
   7122.00  1.6081603E-01
   7122.33  1.7186986E-01
   7122.67  1.8434356E-01
   7123.00  1.9724029E-01
   7123.33  2.0838192E-01
   7123.67  2.1836302E-01
   7124.00  2.2800353E-01
   7124.33  2.3713000E-01
   7124.67  2.4650289E-01
   7125.00  2.5743683E-01
   7125.33  2.7099699E-01
   7125.67  2.8668763E-01
   7126.00  3.0443271E-01
   7126.33  3.2467255E-01
   7126.67  3.4650701E-01
   7127.00  3.6857881E-01
   7127.33  3.8927441E-01
   7127.67  4.0831889E-01
   7128.00  4.2581934E-01
   7128.33  4.4106176E-01
   7128.67  4.5286428E-01
   7129.00  4.5992893E-01
   7129.33  4.6147849E-01
   7129.67  4.5994243E-01
   7130.00  4.5760569E-01
   7130.33  4.5665723E-01
   7130.67  4.5781825E-01
   7131.00  4.6119224E-01
   7131.33  4.6683872E-01
   7131.67  4.7415137E-01
   7132.00  4.8264112E-01
   7132.33  4.9113732E-01
   7132.67  4.9752891E-01
   7133.00  4.9997252E-01
   7133.33  4.9738591E-01
   7133.67  4.9197827E-01
   7134.00  4.8598802E-01
   7134.33  4.8175411E-01
   7134.67  4.8007123E-01
   7135.00  4.8092210E-01
   7135.33  4.8384581E-01
   7135.67  4.8755561E-01
   7136.00  4.9113734E-01
   7136.33  4.9370949E-01
   7136.67  4.9512267E-01
   7137.00  4.9556775E-01
   7137.33  4.9549747E-01
   7137.67  4.9546917E-01
   7138.00  4.9566557E-01
   7138.33  4.9591620E-01
   7138.67  4.9590976E-01
   7139.00  4.9549480E-01
   7139.33  4.9465833E-01
   7139.67  4.9368044E-01
   7140.00  4.9283314E-01
   7140.33  4.9246813E-01
   7140.67  4.9276184E-01
   7141.00  4.9386165E-01
   7141.33  4.9602418E-01
   7141.67  4.9923693E-01
   7142.00  5.0355768E-01
   7142.33  5.0917524E-01
   7142.67  5.1595191E-01
   7143.00  5.2384989E-01
   7143.33  5.3290062E-01
   7143.67  5.4285993E-01
   7144.00  5.5363734E-01
   7144.33  5.6522596E-01
   7144.67  5.7744491E-01
   7145.00  5.9019542E-01
   7145.33  6.0335296E-01
   7145.67  6.1662175E-01
   7146.00  6.2971690E-01
   7146.33  6.4217046E-01
   7146.67  6.5362526E-01
   7147.00  6.6372731E-01
   7147.33  6.7191732E-01
   7147.67  6.7817464E-01
   7148.00  6.8241298E-01
   7148.33  6.8442184E-01
   7148.67  6.8461222E-01
   7149.00  6.8319251E-01
   7149.33  6.8027548E-01
   7149.67  6.7631187E-01
   7150.00  6.7153019E-01
   7150.33  6.6606860E-01
   7150.67  6.6015252E-01
   7151.00  6.5389373E-01
   7151.33  6.4739370E-01
   7151.67  6.4079459E-01
   7152.00  6.3417413E-01
   7152.33  6.2759433E-01
   7152.67  6.2107280E-01
   7153.00  6.1460563E-01
   7153.33  6.0817565E-01
   7153.67  6.0175224E-01
   7154.00  5.9531834E-01
   7154.33  5.8886906E-01
   7154.67  5.8242999E-01
   7155.00  5.7604778E-01
   7155.33  5.6982511E-01
   7155.67  5.6385842E-01
   7156.00  5.5826258E-01
   7156.33  5.5324449E-01
   7156.67  5.4888063E-01
   7157.00  5.4528094E-01
   7157.33  5.4265846E-01
   7157.67  5.4097408E-01
   7158.00  5.4025440E-01
   7158.33  5.4060877E-01
   7158.67  5.4186585E-01
   7159.00  5.4395121E-01
   7159.33  5.4683908E-01
   7159.67  5.5030634E-01
   7160.00  5.5423334E-01
   7160.33  5.5852758E-01
   7160.67  5.6303055E-01
   7161.00  5.6765780E-01
   7161.33  5.7233669E-01
   7161.67  5.7700122E-01
   7162.00  5.8160934E-01
   7162.33  5.8610556E-01
   7162.67  5.9046107E-01
   7163.00  5.9463669E-01
   7163.33  5.9855227E-01
   7163.67  6.0218437E-01
   7164.00  6.0549116E-01
   7164.33  6.0838628E-01
   7164.67  6.1088639E-01
   7165.00  6.1297639E-01
   7165.33  6.1459666E-01
   7165.67  6.1579942E-01
   7166.00  6.1658735E-01
   7166.33  6.1691168E-01
   7166.67  6.1682478E-01
   7167.00  6.1632592E-01
   7167.33  6.1536252E-01
   7167.67  6.1398782E-01
   7168.00  6.1220790E-01
   7168.33  6.0998895E-01
   7168.67  6.0740455E-01
   7169.00  6.0448406E-01
   7169.33  6.0123335E-01
   7169.67  5.9773959E-01
   7170.00  5.9405211E-01
   7170.33  5.9021983E-01
   7170.67  5.8633524E-01
   7171.00  5.8247954E-01
   7171.33  5.7880331E-01
   7171.67  5.7549088E-01
   7172.00  5.7278826E-01
