    FDMNES
    energy     <xanes>
   7097.00  5.6818123E-03
   7097.33  5.8341670E-03
   7097.67  5.9942089E-03
   7098.00  6.1624953E-03
   7098.33  6.3408664E-03
   7098.67  6.5290062E-03
   7099.00  6.7276817E-03
   7099.33  6.9393331E-03
   7099.67  7.1636446E-03
   7100.00  7.4016988E-03
   7100.33  7.6568133E-03
   7100.67  7.9287131E-03
   7101.00  8.2189712E-03
   7101.33  8.5322325E-03
   7101.67  8.8683495E-03
   7102.00  9.2296883E-03
   7102.33  9.6229800E-03
   7102.67  1.0048394E-02
   7103.00  1.0509636E-02
   7103.33  1.1016874E-02
   7103.67  1.1571013E-02
   7104.00  1.2178147E-02
   7104.33  1.2854431E-02
   7104.67  1.3602476E-02
   7105.00  1.4432928E-02
   7105.33  1.5373129E-02
   7105.67  1.6429783E-02
   7106.00  1.7622972E-02
   7106.33  1.9002871E-02
   7106.67  2.0586764E-02
   7107.00  2.2416510E-02
   7107.33  2.4594703E-02
   7107.67  2.7169222E-02
   7108.00  3.0240211E-02
   7108.33  3.4051906E-02
   7108.67  3.8757569E-02
   7109.00  4.4650648E-02
   7109.33  5.2464106E-02
   7109.67  6.2831564E-02
   7110.00  7.6944883E-02
   7110.33  9.8015947E-02
   7110.67  1.2979783E-01
   7111.00  1.7872674E-01
   7111.33  2.5990292E-01
   7111.67  3.8367033E-01
   7112.00  5.5201384E-01
   7112.33  7.5256579E-01
   7112.67  9.2351032E-01
   7113.00  9.8574093E-01
   7113.33  8.5829173E-01
   7113.67  6.4809308E-01
   7114.00  4.6435887E-01
   7114.33  3.4552569E-01
   7114.67  2.6966396E-01
   7115.00  2.2247209E-01
   7115.33  1.9561604E-01
   7115.67  1.8040043E-01
   7116.00  1.7209581E-01
   7116.33  1.6652672E-01
   7116.67  1.6324382E-01
   7117.00  1.6293744E-01
   7117.33  1.6593834E-01
   7117.67  1.7191299E-01
   7118.00  1.7883394E-01
   7118.33  1.8414735E-01
   7118.67  1.8760319E-01
   7119.00  1.8914189E-01
   7119.33  1.8911710E-01
   7119.67  1.8863214E-01
   7120.00  1.8767250E-01
   7120.33  1.8482455E-01
   7120.67  1.7944309E-01
   7121.00  1.7273760E-01
   7121.33  1.6760213E-01
   7121.67  1.6568032E-01
   7122.00  1.6703309E-01
   7122.33  1.7063427E-01
   7122.67  1.7476602E-01
   7123.00  1.7902075E-01
   7123.33  1.8426337E-01
   7123.67  1.9111249E-01
   7124.00  1.9926329E-01
   7124.33  2.0777295E-01
   7124.67  2.1575017E-01
   7125.00  2.2251402E-01
   7125.33  2.2726544E-01
   7125.67  2.3091247E-01
   7126.00  2.3493584E-01
   7126.33  2.4116497E-01
   7126.67  2.5020282E-01
   7127.00  2.6225362E-01
   7127.33  2.7756681E-01
   7127.67  2.9560020E-01
   7128.00  3.1636610E-01
   7128.33  3.4048482E-01
   7128.67  3.6781618E-01
   7129.00  3.9838043E-01
   7129.33  4.3232734E-01
   7129.67  4.6854262E-01
   7130.00  5.0582449E-01
   7130.33  5.4234344E-01
   7130.67  5.7677914E-01
   7131.00  6.0852797E-01
   7131.33  6.3703424E-01
   7131.67  6.6257090E-01
   7132.00  6.8492281E-01
   7132.33  7.0325413E-01
   7132.67  7.1769429E-01
   7133.00  7.2822042E-01
   7133.33  7.3471602E-01
   7133.67  7.3810930E-01
   7134.00  7.3858788E-01
   7134.33  7.3539445E-01
   7134.67  7.2808378E-01
   7135.00  7.1591358E-01
   7135.33  6.9794003E-01
   7135.67  6.7543628E-01
   7136.00  6.4958569E-01
   7136.33  6.2184477E-01
   7136.67  5.9391705E-01
   7137.00  5.6679961E-01
   7137.33  5.4173101E-01
   7137.67  5.1951755E-01
   7138.00  5.0095033E-01
   7138.33  4.8711936E-01
   7138.67  4.7764422E-01
   7139.00  4.7237194E-01
   7139.33  4.7133683E-01
   7139.67  4.7342906E-01
   7140.00  4.7799800E-01
   7140.33  4.8442304E-01
   7140.67  4.9164327E-01
   7141.00  4.9896549E-01
   7141.33  5.0570454E-01
   7141.67  5.1168481E-01
   7142.00  5.1708812E-01
   7142.33  5.2252168E-01
   7142.67  5.2879722E-01
   7143.00  5.3659577E-01
   7143.33  5.4680812E-01
   7143.67  5.5952600E-01
   7144.00  5.7480989E-01
   7144.33  5.9270736E-01
   7144.67  6.1237787E-01
   7145.00  6.3315960E-01
   7145.33  6.5417697E-01
   7145.67  6.7450218E-01
   7146.00  6.9348371E-01
   7146.33  7.1037633E-01
   7146.67  7.2518951E-01
   7147.00  7.3793153E-01
   7147.33  7.4852893E-01
   7147.67  7.5746483E-01
   7148.00  7.6495711E-01
   7148.33  7.7107646E-01
   7148.67  7.7614751E-01
   7149.00  7.8027516E-01
   7149.33  7.8343374E-01
   7149.67  7.8578395E-01
   7150.00  7.8735734E-01
   7150.33  7.8809717E-01
   7150.67  7.8815028E-01
   7151.00  7.8757149E-01
   7151.33  7.8636061E-01
   7151.67  7.8466969E-01
   7152.00  7.8256770E-01
   7152.33  7.8008255E-01
   7152.67  7.7730961E-01
   7153.00  7.7427349E-01
   7153.33  7.7093763E-01
   7153.67  7.6729413E-01
   7154.00  7.6327721E-01
   7154.33  7.5871893E-01
   7154.67  7.5354957E-01
   7155.00  7.4765192E-01
   7155.33  7.4079222E-01
   7155.67  7.3298083E-01
   7156.00  7.2417243E-01
   7156.33  7.1424073E-01
   7156.67  7.0336645E-01
   7157.00  6.9164017E-01
   7157.33  6.7911655E-01
   7157.67  6.6605238E-01
   7158.00  6.5259993E-01
   7158.33  6.3890769E-01
   7158.67  6.2516713E-01
   7159.00  6.1150667E-01
   7159.33  5.9808159E-01
   7159.67  5.8497635E-01
   7160.00  5.7227525E-01
   7160.33  5.6012039E-01
   7160.67  5.4851154E-01
   7161.00  5.3748376E-01
   7161.33  5.2713663E-01
   7161.67  5.1740378E-01
   7162.00  5.0828321E-01
   7162.33  4.9983622E-01
   7162.67  4.9196343E-01
   7163.00  4.8463717E-01
   7163.33  4.7788258E-01
   7163.67  4.7159257E-01
   7164.00  4.6572646E-01
   7164.33  4.6027948E-01
   7164.67  4.5515080E-01
   7165.00  4.5029246E-01
   7165.33  4.4567441E-01
   7165.67  4.4121523E-01
   7166.00  4.3687179E-01
   7166.33  4.3260809E-01
   7166.67  4.2837924E-01
   7167.00  4.2416341E-01
   7167.33  4.1994633E-01
   7167.67  4.1572708E-01
   7168.00  4.1151196E-01
   7168.33  4.0730578E-01
   7168.67  4.0311005E-01
   7169.00  3.9893906E-01
   7169.33  3.9482495E-01
   7169.67  3.9078756E-01
   7170.00  3.8684918E-01
   7170.33  3.8305228E-01
   7170.67  3.7941212E-01
   7171.00  3.7596484E-01
   7171.33  3.7280877E-01
   7171.67  3.7002518E-01
   7172.00  3.6775541E-01
