    FDMNES
    energy     <xanes>
   7097.00  5.2537618E-03
   7097.33  5.3855848E-03
   7097.67  5.5236711E-03
   7098.00  5.6684607E-03
   7098.33  5.8214307E-03
   7098.67  5.9823077E-03
   7099.00  6.1516974E-03
   7099.33  6.3315517E-03
   7099.67  6.5215990E-03
   7100.00  6.7226969E-03
   7100.33  6.9374968E-03
   7100.67  7.1657657E-03
   7101.00  7.4087586E-03
   7101.33  7.6701973E-03
   7101.67  7.9499683E-03
   7102.00  8.2499820E-03
   7102.33  8.5756736E-03
   7102.67  8.9272296E-03
   7103.00  9.3076987E-03
   7103.33  9.7254140E-03
   7103.67  1.0181276E-02
   7104.00  1.0680443E-02
   7104.33  1.1236490E-02
   7104.67  1.1852041E-02
   7105.00  1.2536488E-02
   7105.33  1.3313739E-02
   7105.67  1.4190810E-02
   7106.00  1.5186524E-02
   7106.33  1.6347564E-02
   7106.67  1.7693319E-02
   7107.00  1.9266756E-02
   7107.33  2.1173079E-02
   7107.67  2.3472404E-02
   7108.00  2.6283007E-02
   7108.33  2.9898038E-02
   7108.67  3.4549029E-02
   7109.00  4.0671312E-02
   7109.33  4.9413031E-02
   7109.67  6.2074780E-02
   7110.00  8.1199184E-02
   7110.33  1.1406492E-01
   7110.67  1.6818567E-01
   7111.00  2.4512463E-01
   7111.33  3.3007323E-01
   7111.67  4.0357870E-01
   7112.00  4.3371034E-01
   7112.33  4.1545607E-01
   7112.67  3.8942145E-01
   7113.00  3.6537809E-01
   7113.33  3.4378164E-01
   7113.67  3.1832769E-01
   7114.00  2.8097998E-01
   7114.33  2.3564586E-01
   7114.67  1.9539311E-01
   7115.00  1.6417816E-01
   7115.33  1.4266752E-01
   7115.67  1.2825318E-01
   7116.00  1.1977661E-01
   7116.33  1.1687133E-01
   7116.67  1.1811007E-01
   7117.00  1.2278598E-01
   7117.33  1.3045039E-01
   7117.67  1.4034777E-01
   7118.00  1.5251923E-01
   7118.33  1.6718526E-01
   7118.67  1.8271303E-01
   7119.00  1.9718959E-01
   7119.33  2.0984383E-01
   7119.67  2.2177670E-01
   7120.00  2.3338358E-01
   7120.33  2.4445308E-01
   7120.67  2.5455273E-01
   7121.00  2.6445113E-01
   7121.33  2.7722533E-01
   7121.67  2.9571677E-01
   7122.00  3.2129415E-01
   7122.33  3.5407552E-01
   7122.67  3.9165713E-01
   7123.00  4.3226195E-01
   7123.33  4.7274203E-01
   7123.67  5.0929021E-01
   7124.00  5.3944001E-01
   7124.33  5.6196589E-01
   7124.67  5.7952750E-01
   7125.00  5.9386042E-01
   7125.33  6.0584459E-01
   7125.67  6.1646261E-01
   7126.00  6.2609973E-01
   7126.33  6.3367513E-01
   7126.67  6.3727140E-01
   7127.00  6.3545396E-01
   7127.33  6.2784503E-01
   7127.67  6.1691629E-01
   7128.00  6.0439104E-01
   7128.33  5.9210054E-01
   7128.67  5.8186704E-01
   7129.00  5.7511724E-01
   7129.33  5.7284512E-01
   7129.67  5.7277475E-01
   7130.00  5.7183748E-01
   7130.33  5.6636976E-01
   7130.67  5.5638600E-01
   7131.00  5.4361941E-01
   7131.33  5.3085356E-01
   7131.67  5.2016793E-01
   7132.00  5.1234510E-01
   7132.33  5.0774590E-01
   7132.67  5.0572942E-01
   7133.00  5.0624920E-01
   7133.33  5.0955862E-01
   7133.67  5.1445611E-01
   7134.00  5.1921590E-01
   7134.33  5.2146399E-01
   7134.67  5.2089175E-01
   7135.00  5.1840790E-01
   7135.33  5.1549739E-01
   7135.67  5.1326581E-01
   7136.00  5.1215343E-01
   7136.33  5.1259297E-01
   7136.67  5.1454374E-01
   7137.00  5.1797944E-01
   7137.33  5.2280166E-01
   7137.67  5.2840973E-01
   7138.00  5.3439960E-01
   7138.33  5.4046377E-01
   7138.67  5.4648226E-01
   7139.00  5.5248431E-01
   7139.33  5.5858655E-01
   7139.67  5.6488369E-01
   7140.00  5.7141766E-01
   7140.33  5.7816253E-01
   7140.67  5.8490397E-01
   7141.00  5.9138100E-01
   7141.33  5.9722612E-01
   7141.67  6.0227600E-01
   7142.00  6.0639747E-01
   7142.33  6.0939286E-01
   7142.67  6.1137156E-01
   7143.00  6.1232449E-01
   7143.33  6.1206843E-01
   7143.67  6.1063169E-01
   7144.00  6.0789520E-01
   7144.33  6.0357084E-01
   7144.67  5.9783362E-01
   7145.00  5.9081395E-01
   7145.33  5.8268015E-01
   7145.67  5.7395286E-01
   7146.00  5.6501071E-01
   7146.33  5.5629979E-01
   7146.67  5.4814258E-01
   7147.00  5.4076113E-01
   7147.33  5.3444267E-01
   7147.67  5.2915663E-01
   7148.00  5.2492979E-01
   7148.33  5.2187793E-01
   7148.67  5.1981633E-01
   7149.00  5.1867919E-01
   7149.33  5.1847957E-01
   7149.67  5.1901054E-01
   7150.00  5.2017611E-01
   7150.33  5.2192030E-01
   7150.67  5.2405016E-01
   7151.00  5.2644875E-01
   7151.33  5.2898907E-01
   7151.67  5.3150895E-01
   7152.00  5.3388396E-01
   7152.33  5.3594022E-01
   7152.67  5.3758418E-01
   7153.00  5.3871427E-01
   7153.33  5.3915007E-01
   7153.67  5.3888363E-01
   7154.00  5.3785556E-01
   7154.33  5.3591079E-01
   7154.67  5.3311858E-01
   7155.00  5.2947162E-01
   7155.33  5.2488741E-01
   7155.67  5.1952957E-01
   7156.00  5.1348090E-01
   7156.33  5.0680201E-01
   7156.67  4.9972204E-01
   7157.00  4.9239049E-01
   7157.33  4.8497232E-01
   7157.67  4.7763749E-01
   7158.00  4.7050316E-01
   7158.33  4.6371319E-01
   7158.67  4.5730340E-01
   7159.00  4.5131492E-01
   7159.33  4.4582113E-01
   7159.67  4.4076130E-01
   7160.00  4.3611910E-01
   7160.33  4.3191564E-01
   7160.67  4.2806985E-01
   7161.00  4.2455271E-01
   7161.33  4.2136462E-01
   7161.67  4.1843058E-01
   7162.00  4.1572072E-01
   7162.33  4.1323020E-01
   7162.67  4.1090785E-01
   7163.00  4.0873252E-01
   7163.33  4.0669778E-01
   7163.67  4.0477098E-01
   7164.00  4.0294322E-01
   7164.33  4.0122280E-01
   7164.67  3.9959985E-01
   7165.00  3.9807879E-01
   7165.33  3.9667947E-01
   7165.67  3.9539357E-01
   7166.00  3.9422260E-01
   7166.33  3.9317647E-01
   7166.67  3.9222998E-01
   7167.00  3.9136806E-01
   7167.33  3.9057722E-01
   7167.67  3.8982728E-01
   7168.00  3.8910109E-01
   7168.33  3.8838483E-01
   7168.67  3.8766948E-01
   7169.00  3.8695431E-01
   7169.33  3.8624601E-01
   7169.67  3.8555557E-01
   7170.00  3.8489618E-01
   7170.33  3.8429050E-01
   7170.67  3.8374832E-01
   7171.00  3.8328067E-01
   7171.33  3.8290559E-01
   7171.67  3.8261199E-01
   7172.00  3.8238960E-01
