    FDMNES
    energy     <xanes>
   7097.00  4.5001954E-03
   7097.33  4.5922382E-03
   7097.67  4.6877970E-03
   7098.00  4.7870761E-03
   7098.33  4.8908337E-03
   7098.67  4.9988593E-03
   7099.00  5.1114233E-03
   7099.33  5.2294839E-03
   7099.67  5.3528171E-03
   7100.00  5.4817902E-03
   7100.33  5.6176449E-03
   7100.67  5.7601537E-03
   7101.00  5.9098324E-03
   7101.33  6.0683400E-03
   7101.67  6.2354695E-03
   7102.00  6.4119750E-03
   7102.33  6.6001599E-03
   7102.67  6.7998948E-03
   7103.00  7.0123373E-03
   7103.33  7.2408463E-03
   7103.67  7.4855045E-03
   7104.00  7.7482034E-03
   7104.33  8.0341612E-03
   7104.67  8.3440080E-03
   7105.00  8.6810910E-03
   7105.33  9.0542248E-03
   7105.67  9.4654909E-03
   7106.00  9.9214667E-03
   7106.33  1.0438828E-02
   7106.67  1.1023860E-02
   7107.00  1.1691465E-02
   7107.33  1.2478596E-02
   7107.67  1.3405764E-02
   7108.00  1.4514303E-02
   7108.33  1.5907525E-02
   7108.67  1.7667721E-02
   7109.00  1.9951021E-02
   7109.33  2.3173048E-02
   7109.67  2.7816365E-02
   7110.00  3.4831988E-02
   7110.33  4.6976999E-02
   7110.67  6.7184672E-02
   7111.00  9.5645842E-02
   7111.33  1.2036244E-01
   7111.67  1.3412892E-01
   7112.00  1.3967568E-01
   7112.33  1.3451623E-01
   7112.67  1.2168089E-01
   7113.00  1.0507655E-01
   7113.33  9.0073913E-02
   7113.67  7.8780645E-02
   7114.00  7.1066132E-02
   7114.33  6.6426023E-02
   7114.67  6.3840989E-02
   7115.00  6.2980325E-02
   7115.33  6.3831312E-02
   7115.67  6.6151301E-02
   7116.00  7.0006989E-02
   7116.33  7.5770512E-02
   7116.67  8.3417841E-02
   7117.00  9.3145043E-02
   7117.33  1.0574034E-01
   7117.67  1.2192549E-01
   7118.00  1.4316675E-01
   7118.33  1.7259111E-01
   7118.67  2.1137742E-01
   7119.00  2.5989915E-01
   7119.33  3.1554576E-01
   7119.67  3.7046865E-01
   7120.00  4.1892577E-01
   7120.33  4.5452981E-01
   7120.67  4.7503367E-01
   7121.00  4.8063483E-01
   7121.33  4.7574397E-01
   7121.67  4.6883883E-01
   7122.00  4.6388403E-01
   7122.33  4.6238660E-01
   7122.67  4.6308627E-01
   7123.00  4.6497541E-01
   7123.33  4.6733409E-01
   7123.67  4.6992479E-01
   7124.00  4.7312393E-01
   7124.33  4.7808560E-01
   7124.67  4.8553570E-01
   7125.00  4.9577168E-01
   7125.33  5.0878670E-01
   7125.67  5.2341549E-01
   7126.00  5.3875410E-01
   7126.33  5.5400645E-01
   7126.67  5.6883662E-01
   7127.00  5.8317254E-01
   7127.33  5.9684666E-01
   7127.67  6.0936554E-01
   7128.00  6.1967063E-01
   7128.33  6.2584927E-01
   7128.67  6.2733136E-01
   7129.00  6.2380498E-01
   7129.33  6.1484665E-01
   7129.67  6.0159279E-01
   7130.00  5.8471842E-01
   7130.33  5.6509020E-01
   7130.67  5.4455634E-01
   7131.00  5.2440560E-01
   7131.33  5.0587786E-01
   7131.67  4.8933583E-01
   7132.00  4.7500298E-01
   7132.33  4.6335741E-01
   7132.67  4.5425289E-01
   7133.00  4.4774923E-01
   7133.33  4.4406014E-01
   7133.67  4.4259260E-01
   7134.00  4.4305713E-01
   7134.33  4.4541100E-01
   7134.67  4.4930340E-01
   7135.00  4.5463687E-01
   7135.33  4.6140839E-01
   7135.67  4.6921103E-01
   7136.00  4.7776961E-01
   7136.33  4.8678050E-01
   7136.67  4.9586593E-01
   7137.00  5.0480369E-01
   7137.33  5.1336390E-01
   7137.67  5.2144011E-01
   7138.00  5.2890503E-01
   7138.33  5.3550217E-01
   7138.67  5.4116851E-01
   7139.00  5.4578842E-01
   7139.33  5.4914258E-01
   7139.67  5.5137727E-01
   7140.00  5.5257201E-01
   7140.33  5.5279123E-01
   7140.67  5.5237750E-01
   7141.00  5.5155181E-01
   7141.33  5.5053817E-01
   7141.67  5.4956053E-01
   7142.00  5.4874893E-01
   7142.33  5.4823949E-01
   7142.67  5.4806058E-01
   7143.00  5.4824426E-01
   7143.33  5.4886185E-01
   7143.67  5.4987861E-01
   7144.00  5.5130009E-01
   7144.33  5.5317698E-01
   7144.67  5.5545117E-01
   7145.00  5.5810750E-01
   7145.33  5.6115556E-01
   7145.67  5.6449368E-01
   7146.00  5.6804899E-01
   7146.33  5.7172506E-01
   7146.67  5.7538015E-01
   7147.00  5.7889790E-01
   7147.33  5.8211471E-01
   7147.67  5.8495375E-01
   7148.00  5.8734651E-01
   7148.33  5.8919075E-01
   7148.67  5.9054913E-01
   7149.00  5.9145497E-01
   7149.33  5.9192570E-01
   7149.67  5.9208736E-01
   7150.00  5.9200365E-01
   7150.33  5.9170881E-01
   7150.67  5.9125573E-01
   7151.00  5.9064269E-01
   7151.33  5.8981411E-01
   7151.67  5.8874065E-01
   7152.00  5.8737226E-01
   7152.33  5.8561941E-01
   7152.67  5.8350846E-01
   7153.00  5.8106235E-01
   7153.33  5.7832032E-01
   7153.67  5.7542556E-01
   7154.00  5.7248932E-01
   7154.33  5.6965380E-01
   7154.67  5.6702454E-01
   7155.00  5.6468217E-01
   7155.33  5.6273755E-01
   7155.67  5.6118254E-01
   7156.00  5.6002493E-01
   7156.33  5.5929825E-01
   7156.67  5.5891759E-01
   7157.00  5.5883463E-01
   7157.33  5.5900493E-01
   7157.67  5.5931308E-01
   7158.00  5.5967471E-01
   7158.33  5.5997911E-01
   7158.67  5.6012993E-01
   7159.00  5.6004643E-01
   7159.33  5.5961010E-01
   7159.67  5.5880258E-01
   7160.00  5.5759465E-01
   7160.33  5.5592288E-01
   7160.67  5.5385291E-01
   7161.00  5.5141883E-01
   7161.33  5.4862968E-01
   7161.67  5.4557438E-01
   7162.00  5.4229437E-01
   7162.33  5.3880957E-01
   7162.67  5.3517970E-01
   7163.00  5.3143179E-01
   7163.33  5.2757886E-01
   7163.67  5.2365068E-01
   7164.00  5.1965840E-01
   7164.33  5.1560374E-01
   7164.67  5.1149929E-01
   7165.00  5.0734975E-01
   7165.33  5.0315715E-01
   7165.67  4.9893561E-01
   7166.00  4.9469558E-01
   7166.33  4.9045040E-01
   7166.67  4.8621505E-01
   7167.00  4.8200192E-01
   7167.33  4.7783006E-01
   7167.67  4.7370937E-01
   7168.00  4.6965221E-01
   7168.33  4.6568200E-01
   7168.67  4.6180185E-01
   7169.00  4.5802141E-01
   7169.33  4.5436447E-01
   7169.67  4.5082791E-01
   7170.00  4.4742235E-01
   7170.33  4.4418112E-01
   7170.67  4.4110674E-01
   7171.00  4.3822587E-01
   7171.33  4.3561880E-01
   7171.67  4.3334128E-01
   7172.00  4.3150036E-01
