    FDMNES
    energy     <xanes>
   7097.00  5.0637610E-03
   7097.33  5.1800984E-03
   7097.67  5.3016234E-03
   7098.00  5.4286824E-03
   7098.33  5.5624681E-03
   7098.67  5.7027287E-03
   7099.00  5.8499341E-03
   7099.33  6.0056379E-03
   7099.67  6.1695797E-03
   7100.00  6.3424142E-03
   7100.33  6.5262165E-03
   7100.67  6.7207396E-03
   7101.00  6.9269234E-03
   7101.33  7.1476240E-03
   7101.67  7.3826568E-03
   7102.00  7.6334208E-03
   7102.33  7.9039920E-03
   7102.67  8.1943574E-03
   7103.00  8.5066920E-03
   7103.33  8.8470770E-03
   7103.67  9.2159196E-03
   7104.00  9.6167897E-03
   7104.33  1.0059279E-02
   7104.67  1.0544811E-02
   7105.00  1.1079662E-02
   7105.33  1.1680090E-02
   7105.67  1.2350080E-02
   7106.00  1.3101714E-02
   7106.33  1.3965343E-02
   7106.67  1.4952025E-02
   7107.00  1.6088102E-02
   7107.33  1.7438543E-02
   7107.67  1.9037096E-02
   7108.00  2.0952756E-02
   7108.33  2.3356680E-02
   7108.67  2.6375578E-02
   7109.00  3.0251288E-02
   7109.33  3.5618932E-02
   7109.67  4.3173341E-02
   7110.00  5.4279447E-02
   7110.33  7.2881180E-02
   7110.67  1.0336536E-01
   7111.00  1.4657462E-01
   7111.33  1.8284463E-01
   7111.67  2.1432877E-01
   7112.00  2.5353898E-01
   7112.33  2.6901796E-01
   7112.67  2.7511791E-01
   7113.00  3.0961722E-01
   7113.33  3.8449303E-01
   7113.67  4.2305807E-01
   7114.00  3.6471027E-01
   7114.33  2.7134624E-01
   7114.67  2.1178516E-01
   7115.00  1.8780899E-01
   7115.33  1.9532361E-01
   7115.67  2.2915004E-01
   7116.00  2.8834877E-01
   7116.33  3.5499332E-01
   7116.67  3.8792313E-01
   7117.00  3.7239622E-01
   7117.33  3.2438246E-01
   7117.67  2.7431613E-01
   7118.00  2.3457288E-01
   7118.33  2.0901624E-01
   7118.67  1.9254915E-01
   7119.00  1.8080365E-01
   7119.33  1.6954025E-01
   7119.67  1.5770428E-01
   7120.00  1.4655493E-01
   7120.33  1.3733520E-01
   7120.67  1.2980808E-01
   7121.00  1.2395829E-01
   7121.33  1.2035838E-01
   7121.67  1.1901776E-01
   7122.00  1.1983165E-01
   7122.33  1.2262239E-01
   7122.67  1.2680224E-01
   7123.00  1.3221863E-01
   7123.33  1.3901775E-01
   7123.67  1.4716931E-01
   7124.00  1.5687198E-01
   7124.33  1.6884951E-01
   7124.67  1.8348136E-01
   7125.00  2.0107553E-01
   7125.33  2.2182996E-01
   7125.67  2.4487492E-01
   7126.00  2.6969501E-01
   7126.33  2.9589378E-01
   7126.67  3.2273227E-01
   7127.00  3.4934317E-01
   7127.33  3.7337996E-01
   7127.67  3.9269416E-01
   7128.00  4.0705396E-01
   7128.33  4.1898669E-01
   7128.67  4.3213814E-01
   7129.00  4.4822001E-01
   7129.33  4.6864987E-01
   7129.67  4.9345251E-01
   7130.00  5.2292489E-01
   7130.33  5.5765573E-01
   7130.67  5.9659799E-01
   7131.00  6.3903356E-01
   7131.33  6.8407397E-01
   7131.67  7.2975145E-01
   7132.00  7.7416259E-01
   7132.33  8.1417775E-01
   7132.67  8.4761177E-01
   7133.00  8.7268272E-01
   7133.33  8.8740189E-01
   7133.67  8.9363688E-01
   7134.00  8.9295883E-01
   7134.33  8.8698474E-01
   7134.67  8.7819026E-01
   7135.00  8.6763102E-01
   7135.33  8.5569962E-01
   7135.67  8.4250106E-01
   7136.00  8.2770297E-01
   7136.33  8.1063386E-01
   7136.67  7.9142078E-01
   7137.00  7.7033145E-01
   7137.33  7.4786898E-01
   7137.67  7.2491511E-01
   7138.00  7.0194652E-01
   7138.33  6.7937441E-01
   7138.67  6.5750434E-01
   7139.00  6.3677841E-01
   7139.33  6.1812264E-01
   7139.67  6.0202567E-01
   7140.00  5.8896481E-01
   7140.33  5.7965425E-01
   7140.67  5.7370165E-01
   7141.00  5.7094214E-01
   7141.33  5.7133354E-01
   7141.67  5.7389216E-01
   7142.00  5.7784565E-01
   7142.33  5.8205467E-01
   7142.67  5.8516707E-01
   7143.00  5.8614479E-01
   7143.33  5.8385869E-01
   7143.67  5.7858309E-01
   7144.00  5.7071929E-01
   7144.33  5.6078561E-01
   7144.67  5.4983056E-01
   7145.00  5.3848941E-01
   7145.33  5.2737688E-01
   7145.67  5.1688922E-01
   7146.00  5.0727615E-01
   7146.33  4.9886357E-01
   7146.67  4.9163212E-01
   7147.00  4.8563143E-01
   7147.33  4.8102706E-01
   7147.67  4.7763125E-01
   7148.00  4.7539304E-01
   7148.33  4.7437994E-01
   7148.67  4.7437597E-01
   7149.00  4.7530519E-01
   7149.33  4.7720412E-01
   7149.67  4.7992205E-01
   7150.00  4.8343979E-01
   7150.33  4.8784229E-01
   7150.67  4.9301296E-01
   7151.00  4.9891918E-01
   7151.33  5.0557371E-01
   7151.67  5.1278208E-01
   7152.00  5.2041479E-01
   7152.33  5.2831246E-01
   7152.67  5.3622162E-01
   7153.00  5.4394071E-01
   7153.33  5.5119476E-01
   7153.67  5.5783406E-01
   7154.00  5.6371755E-01
   7154.33  5.6862649E-01
   7154.67  5.7261670E-01
   7155.00  5.7568681E-01
   7155.33  5.7777334E-01
   7155.67  5.7907422E-01
   7156.00  5.7969149E-01
   7156.33  5.7969613E-01
   7156.67  5.7930600E-01
   7157.00  5.7864990E-01
   7157.33  5.7785403E-01
   7157.67  5.7705962E-01
   7158.00  5.7635806E-01
   7158.33  5.7585648E-01
   7158.67  5.7559337E-01
   7159.00  5.7560110E-01
   7159.33  5.7593120E-01
   7159.67  5.7654217E-01
   7160.00  5.7741395E-01
   7160.33  5.7853511E-01
   7160.67  5.7982357E-01
   7161.00  5.8122194E-01
   7161.33  5.8265773E-01
   7161.67  5.8404148E-01
   7162.00  5.8529302E-01
   7162.33  5.8628809E-01
   7162.67  5.8696200E-01
   7163.00  5.8724161E-01
   7163.33  5.8699765E-01
   7163.67  5.8623334E-01
   7164.00  5.8491724E-01
   7164.33  5.8296279E-01
   7164.67  5.8044808E-01
   7165.00  5.7739638E-01
   7165.33  5.7379152E-01
   7165.67  5.6975629E-01
   7166.00  5.6535293E-01
   7166.33  5.6062535E-01
   7166.67  5.5569193E-01
   7167.00  5.5062081E-01
   7167.33  5.4547568E-01
   7167.67  5.4032434E-01
   7168.00  5.3520533E-01
   7168.33  5.3015717E-01
   7168.67  5.2519112E-01
   7169.00  5.2031405E-01
   7169.33  5.1553111E-01
   7169.67  5.1082047E-01
   7170.00  5.0617548E-01
   7170.33  5.0160658E-01
   7170.67  4.9712649E-01
   7171.00  4.9277787E-01
   7171.33  4.8868705E-01
   7171.67  4.8501222E-01
   7172.00  4.8199743E-01
