    FDMNES
    energy     <xanes>
   7097.00  5.4428155E-03
   7097.33  5.5862627E-03
   7097.67  5.7368249E-03
   7098.00  5.8950106E-03
   7098.33  6.0625107E-03
   7098.67  6.2390225E-03
   7099.00  6.4252434E-03
   7099.33  6.6234069E-03
   7099.67  6.8332070E-03
   7100.00  7.0556242E-03
   7100.33  7.2936825E-03
   7100.67  7.5471074E-03
   7101.00  7.8173179E-03
   7101.33  8.1085284E-03
   7101.67  8.4205716E-03
   7102.00  8.7555720E-03
   7102.33  9.1196082E-03
   7102.67  9.5127844E-03
   7103.00  9.9384136E-03
   7103.33  1.0405632E-02
   7103.67  1.0915181E-02
   7104.00  1.1472489E-02
   7104.33  1.2092000E-02
   7104.67  1.2775948E-02
   7105.00  1.3533783E-02
   7105.33  1.4389857E-02
   7105.67  1.5350015E-02
   7106.00  1.6432068E-02
   7106.33  1.7680644E-02
   7106.67  1.9111054E-02
   7107.00  2.0760614E-02
   7107.33  2.2721038E-02
   7107.67  2.5035787E-02
   7108.00  2.7795809E-02
   7108.33  3.1224215E-02
   7108.67  3.5467162E-02
   7109.00  4.0805423E-02
   7109.33  4.7953441E-02
   7109.67  5.7585871E-02
   7110.00  7.0999116E-02
   7110.33  9.1801787E-02
   7110.67  1.2415409E-01
   7111.00  1.7293713E-01
   7111.33  2.4042787E-01
   7111.67  3.1664501E-01
   7112.00  4.0189479E-01
   7112.33  5.1503577E-01
   7112.67  6.5215446E-01
   7113.00  7.8598050E-01
   7113.33  8.2918236E-01
   7113.67  7.6087197E-01
   7114.00  6.2939617E-01
   7114.33  4.9532862E-01
   7114.67  3.9004049E-01
   7115.00  3.1543645E-01
   7115.33  2.6669759E-01
   7115.67  2.3366788E-01
   7116.00  2.1222506E-01
   7116.33  2.0050815E-01
   7116.67  1.9482944E-01
   7117.00  1.9165259E-01
   7117.33  1.8552255E-01
   7117.67  1.7530444E-01
   7118.00  1.6368286E-01
   7118.33  1.5419254E-01
   7118.67  1.4766854E-01
   7119.00  1.4386167E-01
   7119.33  1.4247305E-01
   7119.67  1.4220946E-01
   7120.00  1.4152791E-01
   7120.33  1.3858539E-01
   7120.67  1.3430351E-01
   7121.00  1.3062014E-01
   7121.33  1.2890714E-01
   7121.67  1.2892078E-01
   7122.00  1.3063676E-01
   7122.33  1.3413578E-01
   7122.67  1.3878045E-01
   7123.00  1.4408129E-01
   7123.33  1.4995912E-01
   7123.67  1.5693586E-01
   7124.00  1.6556719E-01
   7124.33  1.7629650E-01
   7124.67  1.8856660E-01
   7125.00  2.0179114E-01
   7125.33  2.1538791E-01
   7125.67  2.2899534E-01
   7126.00  2.4227488E-01
   7126.33  2.5425018E-01
   7126.67  2.6443878E-01
   7127.00  2.7322559E-01
   7127.33  2.8213090E-01
   7127.67  2.9304821E-01
   7128.00  3.0748420E-01
   7128.33  3.2737274E-01
   7128.67  3.5283860E-01
   7129.00  3.8391789E-01
   7129.33  4.2045112E-01
   7129.67  4.6027635E-01
   7130.00  5.0161848E-01
   7130.33  5.4224085E-01
   7130.67  5.8044530E-01
   7131.00  6.1530078E-01
   7131.33  6.4595571E-01
   7131.67  6.7289528E-01
   7132.00  6.9610882E-01
   7132.33  7.1465850E-01
   7132.67  7.2809351E-01
   7133.00  7.3560756E-01
   7133.33  7.3661225E-01
   7133.67  7.3340297E-01
   7134.00  7.2780238E-01
   7134.33  7.2126678E-01
   7134.67  7.1415317E-01
   7135.00  7.0556499E-01
   7135.33  6.9334910E-01
   7135.67  6.7640154E-01
   7136.00  6.5429009E-01
   7136.33  6.2724457E-01
   7136.67  5.9769555E-01
   7137.00  5.6766613E-01
   7137.33  5.3961348E-01
   7137.67  5.1503879E-01
   7138.00  4.9490108E-01
   7138.33  4.8038185E-01
   7138.67  4.7090413E-01
   7139.00  4.6616051E-01
   7139.33  4.6594007E-01
   7139.67  4.6872495E-01
   7140.00  4.7351981E-01
   7140.33  4.7934682E-01
   7140.67  4.8530336E-01
   7141.00  4.9106177E-01
   7141.33  4.9658530E-01
   7141.67  5.0214347E-01
   7142.00  5.0800125E-01
   7142.33  5.1446848E-01
   7142.67  5.2159929E-01
   7143.00  5.2941096E-01
   7143.33  5.3793556E-01
   7143.67  5.4700383E-01
   7144.00  5.5651818E-01
   7144.33  5.6639321E-01
   7144.67  5.7646615E-01
   7145.00  5.8665132E-01
   7145.33  5.9690302E-01
   7145.67  6.0722641E-01
   7146.00  6.1768372E-01
   7146.33  6.2841789E-01
   7146.67  6.3951460E-01
   7147.00  6.5104840E-01
   7147.33  6.6312276E-01
   7147.67  6.7566618E-01
   7148.00  6.8862388E-01
   7148.33  7.0194096E-01
   7148.67  7.1548375E-01
   7149.00  7.2916969E-01
   7149.33  7.4288418E-01
   7149.67  7.5647379E-01
   7150.00  7.6978742E-01
   7150.33  7.8257135E-01
   7150.67  7.9466234E-01
   7151.00  8.0584998E-01
   7151.33  8.1573454E-01
   7151.67  8.2420993E-01
   7152.00  8.3107703E-01
   7152.33  8.3591427E-01
   7152.67  8.3880600E-01
   7153.00  8.3968443E-01
   7153.33  8.3828408E-01
   7153.67  8.3491452E-01
   7154.00  8.2967205E-01
   7154.33  8.2249652E-01
   7154.67  8.1378782E-01
   7155.00  8.0371814E-01
   7155.33  7.9234594E-01
   7155.67  7.8001224E-01
   7156.00  7.6687559E-01
   7156.33  7.5302694E-01
   7156.67  7.3870438E-01
   7157.00  7.2403771E-01
   7157.33  7.0913818E-01
   7157.67  6.9415261E-01
   7158.00  6.7917318E-01
   7158.33  6.6430712E-01
   7158.67  6.4962666E-01
   7159.00  6.3519893E-01
   7159.33  6.2113507E-01
   7159.67  6.0745670E-01
   7160.00  5.9421032E-01
   7160.33  5.8150089E-01
   7160.67  5.6930437E-01
   7161.00  5.5764276E-01
   7161.33  5.4659571E-01
   7161.67  5.3608809E-01
   7162.00  5.2610242E-01
   7162.33  5.1667230E-01
   7162.67  5.0770004E-01
   7163.00  4.9914819E-01
   7163.33  4.9101207E-01
   7163.67  4.8319075E-01
   7164.00  4.7563835E-01
   7164.33  4.6833325E-01
   7164.67  4.6120669E-01
   7165.00  4.5423121E-01
   7165.33  4.4739941E-01
   7165.67  4.4068071E-01
   7166.00  4.3406930E-01
   7166.33  4.2757793E-01
   7166.67  4.2119852E-01
   7167.00  4.1493882E-01
   7167.33  4.0882148E-01
   7167.67  4.0284095E-01
   7168.00  3.9701294E-01
   7168.33  3.9137705E-01
   7168.67  3.8593231E-01
   7169.00  3.8069777E-01
   7169.33  3.7572282E-01
   7169.67  3.7099575E-01
   7170.00  3.6652885E-01
   7170.33  3.6236795E-01
   7170.67  3.5848977E-01
   7171.00  3.5490691E-01
   7171.33  3.5169281E-01
   7171.67  3.4888381E-01
   7172.00  3.4659327E-01
