    FDMNES
    energy     <xanes>
   7097.00  5.3156150E-03
   7097.33  5.4460777E-03
   7097.67  5.5826257E-03
   7098.00  5.7256746E-03
   7098.33  5.8766387E-03
   7098.67  6.0352334E-03
   7099.00  6.2020236E-03
   7099.33  6.3788570E-03
   7099.67  6.5654392E-03
   7100.00  6.7625561E-03
   7100.33  6.9726810E-03
   7100.67  7.1955333E-03
   7101.00  7.4322385E-03
   7101.33  7.6862008E-03
   7101.67  7.9572073E-03
   7102.00  8.2469238E-03
   7102.33  8.5601945E-03
   7102.67  8.8969913E-03
   7103.00  9.2598784E-03
   7103.33  9.6560308E-03
   7103.67  1.0085865E-02
   7104.00  1.0553520E-02
   7104.33  1.1070160E-02
   7104.67  1.1637242E-02
   7105.00  1.2261862E-02
   7105.33  1.2962490E-02
   7105.67  1.3743104E-02
   7106.00  1.4616820E-02
   7106.33  1.5616769E-02
   7106.67  1.6753455E-02
   7107.00  1.8053744E-02
   7107.33  1.9584006E-02
   7107.67  2.1373862E-02
   7108.00  2.3487079E-02
   7108.33  2.6080404E-02
   7108.67  2.9252165E-02
   7109.00  3.3194030E-02
   7109.33  3.8393939E-02
   7109.67  4.5303633E-02
   7110.00  5.4797615E-02
   7110.33  6.9298566E-02
   7110.67  9.1333973E-02
   7111.00  1.2249753E-01
   7111.33  1.5858920E-01
   7111.67  2.0093596E-01
   7112.00  2.6423783E-01
   7112.33  3.6820027E-01
   7112.67  5.0362389E-01
   7113.00  6.3585917E-01
   7113.33  7.0795831E-01
   7113.67  6.9606838E-01
   7114.00  6.0149846E-01
   7114.33  4.7640484E-01
   7114.67  3.7285493E-01
   7115.00  2.9889210E-01
   7115.33  2.5153018E-01
   7115.67  2.2101461E-01
   7116.00  2.0357337E-01
   7116.33  1.9732576E-01
   7116.67  1.9616211E-01
   7117.00  1.9388524E-01
   7117.33  1.8606335E-01
   7117.67  1.7477121E-01
   7118.00  1.6236413E-01
   7118.33  1.5142611E-01
   7118.67  1.4294756E-01
   7119.00  1.3672286E-01
   7119.33  1.3215135E-01
   7119.67  1.2846505E-01
   7120.00  1.2554346E-01
   7120.33  1.2362551E-01
   7120.67  1.2260952E-01
   7121.00  1.2234001E-01
   7121.33  1.2296066E-01
   7121.67  1.2461794E-01
   7122.00  1.2732873E-01
   7122.33  1.3100974E-01
   7122.67  1.3536674E-01
   7123.00  1.4032696E-01
   7123.33  1.4601357E-01
   7123.67  1.5255122E-01
   7124.00  1.6024641E-01
   7124.33  1.6975297E-01
   7124.67  1.8136735E-01
   7125.00  1.9555252E-01
   7125.33  2.1324936E-01
   7125.67  2.3443331E-01
   7126.00  2.5904022E-01
   7126.33  2.8670461E-01
   7126.67  3.1582845E-01
   7127.00  3.4524116E-01
   7127.33  3.7358611E-01
   7127.67  4.0014295E-01
   7128.00  4.2499747E-01
   7128.33  4.4972623E-01
   7128.67  4.7716354E-01
   7129.00  5.0955134E-01
   7129.33  5.4858595E-01
   7129.67  5.9264070E-01
   7130.00  6.4029974E-01
   7130.33  6.9035587E-01
   7130.67  7.4162726E-01
   7131.00  7.9373311E-01
   7131.33  8.4657157E-01
   7131.67  8.9977261E-01
   7132.00  9.5250271E-01
   7132.33  1.0019787E+00
   7132.67  1.0441118E+00
   7133.00  1.0738803E+00
   7133.33  1.0836562E+00
   7133.67  1.0731445E+00
   7134.00  1.0435204E+00
   7134.33  9.9741362E-01
   7134.67  9.4238648E-01
   7135.00  8.8292887E-01
   7135.33  8.2292649E-01
   7135.67  7.6499845E-01
   7136.00  7.1049992E-01
   7136.33  6.6095284E-01
   7136.67  6.1642321E-01
   7137.00  5.7729985E-01
   7137.33  5.4462881E-01
   7137.67  5.1782168E-01
   7138.00  4.9675977E-01
   7138.33  4.8164391E-01
   7138.67  4.7103287E-01
   7139.00  4.6412410E-01
   7139.33  4.6040238E-01
   7139.67  4.5888047E-01
   7140.00  4.5922998E-01
   7140.33  4.6145258E-01
   7140.67  4.6522256E-01
   7141.00  4.7044969E-01
   7141.33  4.7717024E-01
   7141.67  4.8505012E-01
   7142.00  4.9391474E-01
   7142.33  5.0362601E-01
   7142.67  5.1383497E-01
   7143.00  5.2431201E-01
   7143.33  5.3478663E-01
   7143.67  5.4499640E-01
   7144.00  5.5473092E-01
   7144.33  5.6368692E-01
   7144.67  5.7176975E-01
   7145.00  5.7885458E-01
   7145.33  5.8469631E-01
   7145.67  5.8936763E-01
   7146.00  5.9284414E-01
   7146.33  5.9498416E-01
   7146.67  5.9597742E-01
   7147.00  5.9588399E-01
   7147.33  5.9467610E-01
   7147.67  5.9259793E-01
   7148.00  5.8976877E-01
   7148.33  5.8626708E-01
   7148.67  5.8233073E-01
   7149.00  5.7810257E-01
   7149.33  5.7373088E-01
   7149.67  5.6939223E-01
   7150.00  5.6521939E-01
   7150.33  5.6138724E-01
   7150.67  5.5797618E-01
   7151.00  5.5507588E-01
   7151.33  5.5285327E-01
   7151.67  5.5130990E-01
   7152.00  5.5049758E-01
   7152.33  5.5055455E-01
   7152.67  5.5140255E-01
   7153.00  5.5303524E-01
   7153.33  5.5550911E-01
   7153.67  5.5865879E-01
   7154.00  5.6239383E-01
   7154.33  5.6663386E-01
   7154.67  5.7115895E-01
   7155.00  5.7581432E-01
   7155.33  5.8040791E-01
   7155.67  5.8476933E-01
   7156.00  5.8876274E-01
   7156.33  5.9219632E-01
   7156.67  5.9503882E-01
   7157.00  5.9724003E-01
   7157.33  5.9869096E-01
   7157.67  5.9947954E-01
   7158.00  5.9962836E-01
   7158.33  5.9910370E-01
   7158.67  5.9803119E-01
   7159.00  5.9645816E-01
   7159.33  5.9438504E-01
   7159.67  5.9192128E-01
   7160.00  5.8910933E-01
   7160.33  5.8595503E-01
   7160.67  5.8253486E-01
   7161.00  5.7887710E-01
   7161.33  5.7497901E-01
   7161.67  5.7088362E-01
   7162.00  5.6660125E-01
   7162.33  5.6211310E-01
   7162.67  5.5744615E-01
   7163.00  5.5260602E-01
   7163.33  5.4757661E-01
   7163.67  5.4238277E-01
   7164.00  5.3702808E-01
   7164.33  5.3149741E-01
   7164.67  5.2581745E-01
   7165.00  5.1999800E-01
   7165.33  5.1403888E-01
   7165.67  5.0797645E-01
   7166.00  5.0183290E-01
   7166.33  4.9563008E-01
   7166.67  4.8940561E-01
   7167.00  4.8318841E-01
   7167.33  4.7701868E-01
   7167.67  4.7092664E-01
   7168.00  4.6494391E-01
   7168.33  4.5912743E-01
   7168.67  4.5349860E-01
   7169.00  4.4808824E-01
   7169.33  4.4295624E-01
   7169.67  4.3809860E-01
   7170.00  4.3353846E-01
   7170.33  4.2934116E-01
   7170.67  4.2548986E-01
   7171.00  4.2200649E-01
   7171.33  4.1897563E-01
   7171.67  4.1640396E-01
   7172.00  4.1436061E-01
