    FDMNES
    energy     <xanes>
   7097.00  4.1913555E-03
   7097.33  4.2772453E-03
   7097.67  4.3665231E-03
   7098.00  4.4594011E-03
   7098.33  4.5566367E-03
   7098.67  4.6580495E-03
   7099.00  4.7639285E-03
   7099.33  4.8752540E-03
   7099.67  4.9918431E-03
   7100.00  5.1141016E-03
   7100.33  5.2433376E-03
   7100.67  5.3793838E-03
   7101.00  5.5228316E-03
   7101.33  5.6754926E-03
   7101.67  5.8372560E-03
   7102.00  6.0090237E-03
   7102.33  6.1934206E-03
   7102.67  6.3904862E-03
   7103.00  6.6016728E-03
   7103.33  6.8310046E-03
   7103.67  7.0788928E-03
   7104.00  7.3478385E-03
   7104.33  7.6444646E-03
   7104.67  7.9701120E-03
   7105.00  8.3294673E-03
   7105.33  8.7344711E-03
   7105.67  9.1889351E-03
   7106.00  9.7026575E-03
   7106.33  1.0299921E-02
   7106.67  1.0991872E-02
   7107.00  1.1802262E-02
   7107.33  1.2789389E-02
   7107.67  1.3990300E-02
   7108.00  1.5476156E-02
   7108.33  1.7425457E-02
   7108.67  1.9995297E-02
   7109.00  2.3480844E-02
   7109.33  2.8683207E-02
   7109.67  3.6608063E-02
   7110.00  4.9252551E-02
   7110.33  7.2332857E-02
   7110.67  1.1013586E-01
   7111.00  1.5452103E-01
   7111.33  1.7709733E-01
   7111.67  1.8341185E-01
   7112.00  1.6769185E-01
   7112.33  1.3402640E-01
   7112.67  1.0743166E-01
   7113.00  9.1685185E-02
   7113.33  8.3355790E-02
   7113.67  7.7792232E-02
   7114.00  7.3448884E-02
   7114.33  6.6097579E-02
   7114.67  5.6799894E-02
   7115.00  4.9615547E-02
   7115.33  4.5770626E-02
   7115.67  4.3931845E-02
   7116.00  4.3463375E-02
   7116.33  4.4069653E-02
   7116.67  4.5358102E-02
   7117.00  4.7116534E-02
   7117.33  4.9211970E-02
   7117.67  5.1645992E-02
   7118.00  5.4572878E-02
   7118.33  5.8225427E-02
   7118.67  6.2582421E-02
   7119.00  6.7656334E-02
   7119.33  7.3593511E-02
   7119.67  8.0447834E-02
   7120.00  8.8440040E-02
   7120.33  9.8103096E-02
   7120.67  1.0967924E-01
   7121.00  1.2360249E-01
   7121.33  1.4083753E-01
   7121.67  1.6169822E-01
   7122.00  1.8678785E-01
   7122.33  2.1727467E-01
   7122.67  2.5267456E-01
   7123.00  2.9240944E-01
   7123.33  3.3513881E-01
   7123.67  3.7831130E-01
   7124.00  4.2045481E-01
   7124.33  4.6032890E-01
   7124.67  4.9661732E-01
   7125.00  5.2652759E-01
   7125.33  5.4485451E-01
   7125.67  5.5139354E-01
   7126.00  5.4848628E-01
   7126.33  5.4133676E-01
   7126.67  5.3627458E-01
   7127.00  5.3688190E-01
   7127.33  5.4627469E-01
   7127.67  5.6377851E-01
   7128.00  5.8798385E-01
   7128.33  6.1504886E-01
   7128.67  6.3912766E-01
   7129.00  6.5721253E-01
   7129.33  6.6930780E-01
   7129.67  6.7954162E-01
   7130.00  6.9070030E-01
   7130.33  7.0438480E-01
   7130.67  7.1949337E-01
   7131.00  7.3439051E-01
   7131.33  7.4711053E-01
   7131.67  7.5720510E-01
   7132.00  7.6496577E-01
   7132.33  7.7108564E-01
   7132.67  7.7660991E-01
   7133.00  7.8197742E-01
   7133.33  7.8726918E-01
   7133.67  7.9224483E-01
   7134.00  7.9656600E-01
   7134.33  7.9972601E-01
   7134.67  8.0160170E-01
   7135.00  8.0211175E-01
   7135.33  8.0114145E-01
   7135.67  7.9900214E-01
   7136.00  7.9583520E-01
   7136.33  7.9166367E-01
   7136.67  7.8664861E-01
   7137.00  7.8071040E-01
   7137.33  7.7343120E-01
   7137.67  7.6454907E-01
   7138.00  7.5370900E-01
   7138.33  7.4041694E-01
   7138.67  7.2509780E-01
   7139.00  7.0821076E-01
   7139.33  6.9044985E-01
   7139.67  6.7276160E-01
   7140.00  6.5576825E-01
   7140.33  6.4012640E-01
   7140.67  6.2595378E-01
   7141.00  6.1332687E-01
   7141.33  6.0240338E-01
   7141.67  5.9288338E-01
   7142.00  5.8464182E-01
   7142.33  5.7767793E-01
   7142.67  5.7172891E-01
   7143.00  5.6670901E-01
   7143.33  5.6263963E-01
   7143.67  5.5934358E-01
   7144.00  5.5676731E-01
   7144.33  5.5493674E-01
   7144.67  5.5370819E-01
   7145.00  5.5302328E-01
   7145.33  5.5286565E-01
   7145.67  5.5309393E-01
   7146.00  5.5363160E-01
   7146.33  5.5441310E-01
   7146.67  5.5531813E-01
   7147.00  5.5626381E-01
   7147.33  5.5713704E-01
   7147.67  5.5785111E-01
   7148.00  5.5833508E-01
   7148.33  5.5846666E-01
   7148.67  5.5820149E-01
   7149.00  5.5747571E-01
   7149.33  5.5617104E-01
   7149.67  5.5433056E-01
   7150.00  5.5196846E-01
   7150.33  5.4908203E-01
   7150.67  5.4582047E-01
   7151.00  5.4227891E-01
   7151.33  5.3854894E-01
   7151.67  5.3474636E-01
   7152.00  5.3092563E-01
   7152.33  5.2711127E-01
   7152.67  5.2328292E-01
   7153.00  5.1939253E-01
   7153.33  5.1533769E-01
   7153.67  5.1103381E-01
   7154.00  5.0638945E-01
   7154.33  5.0125219E-01
   7154.67  4.9558674E-01
   7155.00  4.8932514E-01
   7155.33  4.8232455E-01
   7155.67  4.7462843E-01
   7156.00  4.6622240E-01
   7156.33  4.5702040E-01
   7156.67  4.4713609E-01
   7157.00  4.3661436E-01
   7157.33  4.2545734E-01
   7157.67  4.1382676E-01
   7158.00  4.0181522E-01
   7158.33  3.8951271E-01
   7158.67  3.7708671E-01
   7159.00  3.6466032E-01
   7159.33  3.5239823E-01
   7159.67  3.4042754E-01
   7160.00  3.2886847E-01
   7160.33  3.1791800E-01
   7160.67  3.0762263E-01
   7161.00  2.9806581E-01
   7161.33  2.8942554E-01
   7161.67  2.8164870E-01
   7162.00  2.7475582E-01
   7162.33  2.6886805E-01
   7162.67  2.6387156E-01
   7163.00  2.5975456E-01
   7163.33  2.5659923E-01
   7163.67  2.5426466E-01
   7164.00  2.5271713E-01
   7164.33  2.5201002E-01
   7164.67  2.5201162E-01
   7165.00  2.5268945E-01
   7165.33  2.5408743E-01
   7165.67  2.5609319E-01
   7166.00  2.5868151E-01
   7166.33  2.6189435E-01
   7166.67  2.6563549E-01
   7167.00  2.6988111E-01
   7167.33  2.7466070E-01
   7167.67  2.7988172E-01
   7168.00  2.8551241E-01
   7168.33  2.9155837E-01
   7168.67  2.9792861E-01
   7169.00  3.0458035E-01
   7169.33  3.1148652E-01
   7169.67  3.1855635E-01
   7170.00  3.2572902E-01
   7170.33  3.3292549E-01
   7170.67  3.4004254E-01
   7171.00  3.4696743E-01
   7171.33  3.5346146E-01
   7171.67  3.5925977E-01
   7172.00  3.6397467E-01
