    FDMNES
    energy     <xanes>
   7097.00  4.4850569E-03
   7097.33  4.5875555E-03
   7097.67  4.6946676E-03
   7098.00  4.8067076E-03
   7098.33  4.9247473E-03
   7098.67  5.0485721E-03
   7099.00  5.1786118E-03
   7099.33  5.3162714E-03
   7099.67  5.4613329E-03
   7100.00  5.6143995E-03
   7100.33  5.7773624E-03
   7100.67  5.9500226E-03
   7101.00  6.1332541E-03
   7101.33  6.3296826E-03
   7101.67  6.5391788E-03
   7102.00  6.7630563E-03
   7102.33  7.0051010E-03
   7102.67  7.2653641E-03
   7103.00  7.5459111E-03
   7103.33  7.8524570E-03
   7103.67  8.1854876E-03
   7104.00  8.5484358E-03
   7104.33  8.9504389E-03
   7104.67  9.3930287E-03
   7105.00  9.8823267E-03
   7105.33  1.0434065E-02
   7105.67  1.1052421E-02
   7106.00  1.1749367E-02
   7106.33  1.2554817E-02
   7106.67  1.3480306E-02
   7107.00  1.4552442E-02
   7107.33  1.5836655E-02
   7107.67  1.7368408E-02
   7108.00  1.9219006E-02
   7108.33  2.1565398E-02
   7108.67  2.4543007E-02
   7109.00  2.8408885E-02
   7109.33  3.3841322E-02
   7109.67  4.1601189E-02
   7110.00  5.3182830E-02
   7110.33  7.2870977E-02
   7110.67  1.0504125E-01
   7111.00  1.5017014E-01
   7111.33  1.9267234E-01
   7111.67  2.1849420E-01
   7112.00  2.4395726E-01
   7112.33  2.4735907E-01
   7112.67  2.3082729E-01
   7113.00  2.4364978E-01
   7113.33  3.1131930E-01
   7113.67  4.0143839E-01
   7114.00  4.2820363E-01
   7114.33  3.5177097E-01
   7114.67  2.8009771E-01
   7115.00  2.4672817E-01
   7115.33  2.3835086E-01
   7115.67  2.1783818E-01
   7116.00  1.7568622E-01
   7116.33  1.3497631E-01
   7116.67  1.0793022E-01
   7117.00  9.2038462E-02
   7117.33  8.3345700E-02
   7117.67  7.8805567E-02
   7118.00  7.7651025E-02
   7118.33  7.9688238E-02
   7118.67  8.4455040E-02
   7119.00  9.0795272E-02
   7119.33  9.5816295E-02
   7119.67  9.8461928E-02
   7120.00  9.9223986E-02
   7120.33  9.9580059E-02
   7120.67  1.0156525E-01
   7121.00  1.0626763E-01
   7121.33  1.1361176E-01
   7121.67  1.2198154E-01
   7122.00  1.3133002E-01
   7122.33  1.4235074E-01
   7122.67  1.5446778E-01
   7123.00  1.6764666E-01
   7123.33  1.8133874E-01
   7123.67  1.9398833E-01
   7124.00  2.0517855E-01
   7124.33  2.1539276E-01
   7124.67  2.2503273E-01
   7125.00  2.3437426E-01
   7125.33  2.4508682E-01
   7125.67  2.5905780E-01
   7126.00  2.7658637E-01
   7126.33  2.9538157E-01
   7126.67  3.1284875E-01
   7127.00  3.2957090E-01
   7127.33  3.4736268E-01
   7127.67  3.6581363E-01
   7128.00  3.8398634E-01
   7128.33  4.0220527E-01
   7128.67  4.2230606E-01
   7129.00  4.4634100E-01
   7129.33  4.7602489E-01
   7129.67  5.0815970E-01
   7130.00  5.3827462E-01
   7130.33  5.6112810E-01
   7130.67  5.7604509E-01
   7131.00  5.8433879E-01
   7131.33  5.8989472E-01
   7131.67  5.9827040E-01
   7132.00  6.1248038E-01
   7132.33  6.3463617E-01
   7132.67  6.6381076E-01
   7133.00  6.9884141E-01
   7133.33  7.3558490E-01
   7133.67  7.6310189E-01
   7134.00  7.6717264E-01
   7134.33  7.3307638E-01
   7134.67  6.7306238E-01
   7135.00  6.0314032E-01
   7135.33  5.3846759E-01
   7135.67  4.8429878E-01
   7136.00  4.4112742E-01
   7136.33  4.0890999E-01
   7136.67  3.8494697E-01
   7137.00  3.6818532E-01
   7137.33  3.5840116E-01
   7137.67  3.5397880E-01
   7138.00  3.5421879E-01
   7138.33  3.5872643E-01
   7138.67  3.6623194E-01
   7139.00  3.7619434E-01
   7139.33  3.8839166E-01
   7139.67  4.0223228E-01
   7140.00  4.1748090E-01
   7140.33  4.3405299E-01
   7140.67  4.5162958E-01
   7141.00  4.7012782E-01
   7141.33  4.8958345E-01
   7141.67  5.0970583E-01
   7142.00  5.3013081E-01
   7142.33  5.5011441E-01
   7142.67  5.6887419E-01
   7143.00  5.8576181E-01
   7143.33  5.9997184E-01
   7143.67  6.1163889E-01
   7144.00  6.2089179E-01
   7144.33  6.2789930E-01
   7144.67  6.3355238E-01
   7145.00  6.3850911E-01
   7145.33  6.4355474E-01
   7145.67  6.4932665E-01
   7146.00  6.5619384E-01
   7146.33  6.6449578E-01
   7146.67  6.7402657E-01
   7147.00  6.8465497E-01
   7147.33  6.9632237E-01
   7147.67  7.0873479E-01
   7148.00  7.2172041E-01
   7148.33  7.3504680E-01
   7148.67  7.4827872E-01
   7149.00  7.6096006E-01
   7149.33  7.7232135E-01
   7149.67  7.8188884E-01
   7150.00  7.8923034E-01
   7150.33  7.9374199E-01
   7150.67  7.9571980E-01
   7151.00  7.9533838E-01
   7151.33  7.9266822E-01
   7151.67  7.8834071E-01
   7152.00  7.8270008E-01
   7152.33  7.7603485E-01
   7152.67  7.6884267E-01
   7153.00  7.6142885E-01
   7153.33  7.5412498E-01
   7153.67  7.4718596E-01
   7154.00  7.4078486E-01
   7154.33  7.3512346E-01
   7154.67  7.3014208E-01
   7155.00  7.2578281E-01
   7155.33  7.2195899E-01
   7155.67  7.1840768E-01
   7156.00  7.1494160E-01
   7156.33  7.1133279E-01
   7156.67  7.0740781E-01
   7157.00  7.0305101E-01
   7157.33  6.9813626E-01
   7157.67  6.9273480E-01
   7158.00  6.8690226E-01
   7158.33  6.8069701E-01
   7158.67  6.7427356E-01
   7159.00  6.6772110E-01
   7159.33  6.6111049E-01
   7159.67  6.5448847E-01
   7160.00  6.4786014E-01
   7160.33  6.4119686E-01
   7160.67  6.3445847E-01
   7161.00  6.2760763E-01
   7161.33  6.2059846E-01
   7161.67  6.1344434E-01
   7162.00  6.0615989E-01
   7162.33  5.9876164E-01
   7162.67  5.9129415E-01
   7163.00  5.8377962E-01
   7163.33  5.7622675E-01
   7163.67  5.6863606E-01
   7164.00  5.6099082E-01
   7164.33  5.5324596E-01
   7164.67  5.4536921E-01
   7165.00  5.3732217E-01
   7165.33  5.2903920E-01
   7165.67  5.2052099E-01
   7166.00  5.1176239E-01
   7166.33  5.0275222E-01
   7166.67  4.9356172E-01
   7167.00  4.8424868E-01
   7167.33  4.7489435E-01
   7167.67  4.6560088E-01
   7168.00  4.5645417E-01
   7168.33  4.4757801E-01
   7168.67  4.3902305E-01
   7169.00  4.3084569E-01
   7169.33  4.2314986E-01
   7169.67  4.1591761E-01
   7170.00  4.0917035E-01
   7170.33  4.0298994E-01
   7170.67  3.9733110E-01
   7171.00  3.9221325E-01
   7171.33  3.8774763E-01
   7171.67  3.8394104E-01
   7172.00  3.8090019E-01
