    FDMNES
    energy     <xanes>
   7097.00  4.3959142E-03
   7097.33  4.4862835E-03
   7097.67  4.5803006E-03
   7098.00  4.6781992E-03
   7098.33  4.7808034E-03
   7098.67  4.8879264E-03
   7099.00  4.9998875E-03
   7099.33  5.1177589E-03
   7099.67  5.2413524E-03
   7100.00  5.3711181E-03
   7100.33  5.5084940E-03
   7100.67  5.6533108E-03
   7101.00  5.8062269E-03
   7101.33  5.9692426E-03
   7101.67  6.1422537E-03
   7102.00  6.3262665E-03
   7102.33  6.5241906E-03
   7102.67  6.7360912E-03
   7103.00  6.9635905E-03
   7103.33  7.2111609E-03
   7103.67  7.4792824E-03
   7104.00  7.7707461E-03
   7104.33  8.0929196E-03
   7104.67  8.4473101E-03
   7105.00  8.8391309E-03
   7105.33  9.2816417E-03
   7105.67  9.7790536E-03
   7106.00  1.0342196E-02
   7106.33  1.0997877E-02
   7106.67  1.1758236E-02
   7107.00  1.2649226E-02
   7107.33  1.3734452E-02
   7107.67  1.5053532E-02
   7108.00  1.6682744E-02
   7108.33  1.8812628E-02
   7108.67  2.1606592E-02
   7109.00  2.5370816E-02
   7109.33  3.0928123E-02
   7109.67  3.9280819E-02
   7110.00  5.2409191E-02
   7110.33  7.6050386E-02
   7110.67  1.1578718E-01
   7111.00  1.6950312E-01
   7111.33  2.1138563E-01
   7111.67  2.2057368E-01
   7112.00  1.9448115E-01
   7112.33  1.6032205E-01
   7112.67  1.3510047E-01
   7113.00  1.1449658E-01
   7113.33  9.7089219E-02
   7113.67  8.5231290E-02
   7114.00  7.7422913E-02
   7114.33  7.1598222E-02
   7114.67  6.7490980E-02
   7115.00  6.3043026E-02
   7115.33  5.6851200E-02
   7115.67  5.1438494E-02
   7116.00  4.7882188E-02
   7116.33  4.6258485E-02
   7116.67  4.5886838E-02
   7117.00  4.6395875E-02
   7117.33  4.7529520E-02
   7117.67  4.9126831E-02
   7118.00  5.1342696E-02
   7118.33  5.4619648E-02
   7118.67  5.9113277E-02
   7119.00  6.4943323E-02
   7119.33  7.2481939E-02
   7119.67  8.1950543E-02
   7120.00  9.3666795E-02
   7120.33  1.0766843E-01
   7120.67  1.2249271E-01
   7121.00  1.3678265E-01
   7121.33  1.5026356E-01
   7121.67  1.6467343E-01
   7122.00  1.8153871E-01
   7122.33  2.0223168E-01
   7122.67  2.2660217E-01
   7123.00  2.5463100E-01
   7123.33  2.8650952E-01
   7123.67  3.2122676E-01
   7124.00  3.5794216E-01
   7124.33  3.9561533E-01
   7124.67  4.3330884E-01
   7125.00  4.7067263E-01
   7125.33  5.0694009E-01
   7125.67  5.4086271E-01
   7126.00  5.7099473E-01
   7126.33  5.9576506E-01
   7126.67  6.1628157E-01
   7127.00  6.3376255E-01
   7127.33  6.4913723E-01
   7127.67  6.6304471E-01
   7128.00  6.7563299E-01
   7128.33  6.8762101E-01
   7128.67  7.0054186E-01
   7129.00  7.1516832E-01
   7129.33  7.3028474E-01
   7129.67  7.4224892E-01
   7130.00  7.4798009E-01
   7130.33  7.4566074E-01
   7130.67  7.3858119E-01
   7131.00  7.3015054E-01
   7131.33  7.2426082E-01
   7131.67  7.2299084E-01
   7132.00  7.2742367E-01
   7132.33  7.3854962E-01
   7132.67  7.5445070E-01
   7133.00  7.7278327E-01
   7133.33  7.8974012E-01
   7133.67  8.0243854E-01
   7134.00  8.0984389E-01
   7134.33  8.1190297E-01
   7134.67  8.1052085E-01
   7135.00  8.0666175E-01
   7135.33  8.0074320E-01
   7135.67  7.9328508E-01
   7136.00  7.8445318E-01
   7136.33  7.7436339E-01
   7136.67  7.6352661E-01
   7137.00  7.5232463E-01
   7137.33  7.4120693E-01
   7137.67  7.3052370E-01
   7138.00  7.2048305E-01
   7138.33  7.1129487E-01
   7138.67  7.0285666E-01
   7139.00  6.9508317E-01
   7139.33  6.8787204E-01
   7139.67  6.8095397E-01
   7140.00  6.7414038E-01
   7140.33  6.6720966E-01
   7140.67  6.5999577E-01
   7141.00  6.5237801E-01
   7141.33  6.4420566E-01
   7141.67  6.3552030E-01
   7142.00  6.2634157E-01
   7142.33  6.1665488E-01
   7142.67  6.0657761E-01
   7143.00  5.9617344E-01
   7143.33  5.8549853E-01
   7143.67  5.7468746E-01
   7144.00  5.6384520E-01
   7144.33  5.5311092E-01
   7144.67  5.4258169E-01
   7145.00  5.3231860E-01
   7145.33  5.2238049E-01
   7145.67  5.1271013E-01
   7146.00  5.0327361E-01
   7146.33  4.9406344E-01
   7146.67  4.8503511E-01
   7147.00  4.7619271E-01
   7147.33  4.6760022E-01
   7147.67  4.5929138E-01
   7148.00  4.5133893E-01
   7148.33  4.4390782E-01
   7148.67  4.3706019E-01
   7149.00  4.3089742E-01
   7149.33  4.2561649E-01
   7149.67  4.2118134E-01
   7150.00  4.1760468E-01
   7150.33  4.1494937E-01
   7150.67  4.1301604E-01
   7151.00  4.1168408E-01
   7151.33  4.1084161E-01
   7151.67  4.1026248E-01
   7152.00  4.0981121E-01
   7152.33  4.0935415E-01
   7152.67  4.0878749E-01
   7153.00  4.0805125E-01
   7153.33  4.0708006E-01
   7153.67  4.0587404E-01
   7154.00  4.0441510E-01
   7154.33  4.0265246E-01
   7154.67  4.0059112E-01
   7155.00  3.9819832E-01
   7155.33  3.9539703E-01
   7155.67  3.9221760E-01
   7156.00  3.8866165E-01
   7156.33  3.8470884E-01
   7156.67  3.8046186E-01
   7157.00  3.7598992E-01
   7157.33  3.7136259E-01
   7157.67  3.6668191E-01
   7158.00  3.6201501E-01
   7158.33  3.5744167E-01
   7158.67  3.5301105E-01
   7159.00  3.4876783E-01
   7159.33  3.4479140E-01
   7159.67  3.4110462E-01
   7160.00  3.3775686E-01
   7160.33  3.3485773E-01
   7160.67  3.3241588E-01
   7161.00  3.3047839E-01
   7161.33  3.2916330E-01
   7161.67  3.2843994E-01
   7162.00  3.2832767E-01
   7162.33  3.2890738E-01
   7162.67  3.3008737E-01
   7163.00  3.3184085E-01
   7163.33  3.3418981E-01
   7163.67  3.3701651E-01
   7164.00  3.4027448E-01
   7164.33  3.4395535E-01
   7164.67  3.4795845E-01
   7165.00  3.5224274E-01
   7165.33  3.5679868E-01
   7165.67  3.6156468E-01
   7166.00  3.6651910E-01
   7166.33  3.7166307E-01
   7166.67  3.7695957E-01
   7167.00  3.8239636E-01
   7167.33  3.8797499E-01
   7167.67  3.9366314E-01
   7168.00  3.9944346E-01
   7168.33  4.0530046E-01
   7168.67  4.1119660E-01
   7169.00  4.1710234E-01
   7169.33  4.2297454E-01
   7169.67  4.2877156E-01
   7170.00  4.3444977E-01
   7170.33  4.3993131E-01
   7170.67  4.4517404E-01
   7171.00  4.5011168E-01
   7171.33  4.5458866E-01
   7171.67  4.5849370E-01
   7172.00  4.6163260E-01
