    FDMNES
    energy     <xanes>
   7097.00  4.3791087E-03
   7097.33  4.4693032E-03
   7097.67  4.5631637E-03
   7098.00  4.6609277E-03
   7098.33  4.7634277E-03
   7098.67  4.8704795E-03
   7099.00  4.9824085E-03
   7099.33  5.1003014E-03
   7099.67  5.2239739E-03
   7100.00  5.3538868E-03
   7100.33  5.4915026E-03
   7100.67  5.6366590E-03
   7101.00  5.7900328E-03
   7101.33  5.9536671E-03
   7101.67  6.1274709E-03
   7102.00  6.3124832E-03
   7102.33  6.5116912E-03
   7102.67  6.7251864E-03
   7103.00  6.9546520E-03
   7103.33  7.2047072E-03
   7103.67  7.4758875E-03
   7104.00  7.7711069E-03
   7104.33  8.0980255E-03
   7104.67  8.4582798E-03
   7105.00  8.8573493E-03
   7105.33  9.3091268E-03
   7105.67  9.8181551E-03
   7106.00  1.0395905E-02
   7106.33  1.1070717E-02
   7106.67  1.1855698E-02
   7107.00  1.2778591E-02
   7107.33  1.3907343E-02
   7107.67  1.5284978E-02
   7108.00  1.6993935E-02
   7108.33  1.9240357E-02
   7108.67  2.2203401E-02
   7109.00  2.6218520E-02
   7109.33  3.2189822E-02
   7109.67  4.1230579E-02
   7110.00  5.5544431E-02
   7110.33  8.1534369E-02
   7110.67  1.2541688E-01
   7111.00  1.8409667E-01
   7111.33  2.2390908E-01
   7111.67  2.2593083E-01
   7112.00  1.9542048E-01
   7112.33  1.5721408E-01
   7112.67  1.2803273E-01
   7113.00  1.0682546E-01
   7113.33  9.1145764E-02
   7113.67  7.9490036E-02
   7114.00  7.0460698E-02
   7114.33  6.3741103E-02
   7114.67  5.8467379E-02
   7115.00  5.3159652E-02
   7115.33  4.8413794E-02
   7115.67  4.5263636E-02
   7116.00  4.3729627E-02
   7116.33  4.3660191E-02
   7116.67  4.4584023E-02
   7117.00  4.6246443E-02
   7117.33  4.8448630E-02
   7117.67  5.1063977E-02
   7118.00  5.4242556E-02
   7118.33  5.8326835E-02
   7118.67  6.3353525E-02
   7119.00  6.9360316E-02
   7119.33  7.6376272E-02
   7119.67  8.3982110E-02
   7120.00  9.1943244E-02
   7120.33  1.0047049E-01
   7120.67  1.0999453E-01
   7121.00  1.2093289E-01
   7121.33  1.3384593E-01
   7121.67  1.4873277E-01
   7122.00  1.6574651E-01
   7122.33  1.8537805E-01
   7122.67  2.0759595E-01
   7123.00  2.3269333E-01
   7123.33  2.6146024E-01
   7123.67  2.9365895E-01
   7124.00  3.2887743E-01
   7124.33  3.6574721E-01
   7124.67  4.0199443E-01
   7125.00  4.3687690E-01
   7125.33  4.7139572E-01
   7125.67  5.0690199E-01
   7126.00  5.4321541E-01
   7126.33  5.7870885E-01
   7126.67  6.1193372E-01
   7127.00  6.4216407E-01
   7127.33  6.6862335E-01
   7127.67  6.9137669E-01
   7128.00  7.1000415E-01
   7128.33  7.2386545E-01
   7128.67  7.3407226E-01
   7129.00  7.4115111E-01
   7129.33  7.4457488E-01
   7129.67  7.4415081E-01
   7130.00  7.3993494E-01
   7130.33  7.3307019E-01
   7130.67  7.2611412E-01
   7131.00  7.2082706E-01
   7131.33  7.1901687E-01
   7131.67  7.2118875E-01
   7132.00  7.2782241E-01
   7132.33  7.3955349E-01
   7132.67  7.5493393E-01
   7133.00  7.7226403E-01
   7133.33  7.8885270E-01
   7133.67  8.0258166E-01
   7134.00  8.1256510E-01
   7134.33  8.1844207E-01
   7134.67  8.2131951E-01
   7135.00  8.2170665E-01
   7135.33  8.1964219E-01
   7135.67  8.1548996E-01
   7136.00  8.0929498E-01
   7136.33  8.0095833E-01
   7136.67  7.9099478E-01
   7137.00  7.7973521E-01
   7137.33  7.6750528E-01
   7137.67  7.5483011E-01
   7138.00  7.4201532E-01
   7138.33  7.2934796E-01
   7138.67  7.1698521E-01
   7139.00  7.0500298E-01
   7139.33  6.9346561E-01
   7139.67  6.8227926E-01
   7140.00  6.7137632E-01
   7140.33  6.6068496E-01
   7140.67  6.5008940E-01
   7141.00  6.3953083E-01
   7141.33  6.2898473E-01
   7141.67  6.1848663E-01
   7142.00  6.0809912E-01
   7142.33  5.9792940E-01
   7142.67  5.8804223E-01
   7143.00  5.7850523E-01
   7143.33  5.6941838E-01
   7143.67  5.6074137E-01
   7144.00  5.5245067E-01
   7144.33  5.4452955E-01
   7144.67  5.3685833E-01
   7145.00  5.2936254E-01
   7145.33  5.2196677E-01
   7145.67  5.1458190E-01
   7146.00  5.0715694E-01
   7146.33  4.9965176E-01
   7146.67  4.9206646E-01
   7147.00  4.8441258E-01
   7147.33  4.7673045E-01
   7147.67  4.6909325E-01
   7148.00  4.6157918E-01
   7148.33  4.5433078E-01
   7148.67  4.4744811E-01
   7149.00  4.4104523E-01
   7149.33  4.3531683E-01
   7149.67  4.3027636E-01
   7150.00  4.2596324E-01
   7150.33  4.2246295E-01
   7150.67  4.1962691E-01
   7151.00  4.1737074E-01
   7151.33  4.1562927E-01
   7151.67  4.1421615E-01
   7152.00  4.1302802E-01
   7152.33  4.1197427E-01
   7152.67  4.1094870E-01
   7153.00  4.0988991E-01
   7153.33  4.0873379E-01
   7153.67  4.0744600E-01
   7154.00  4.0599457E-01
   7154.33  4.0432357E-01
   7154.67  4.0242146E-01
   7155.00  4.0025772E-01
   7155.33  3.9776855E-01
   7155.67  3.9497248E-01
   7156.00  3.9186020E-01
   7156.33  3.8839390E-01
   7156.67  3.8464131E-01
   7157.00  3.8064417E-01
   7157.33  3.7643861E-01
   7157.67  3.7211326E-01
   7158.00  3.6772573E-01
   7158.33  3.6334215E-01
   7158.67  3.5902528E-01
   7159.00  3.5482722E-01
   7159.33  3.5082791E-01
   7159.67  3.4706279E-01
   7160.00  3.4358262E-01
   7160.33  3.4048895E-01
   7160.67  3.3779414E-01
   7161.00  3.3554192E-01
   7161.33  3.3384064E-01
   7161.67  3.3266635E-01
   7162.00  3.3203992E-01
   7162.33  3.3204128E-01
   7162.67  3.3259673E-01
   7163.00  3.3369187E-01
   7163.33  3.3536172E-01
   7163.67  3.3750866E-01
   7164.00  3.4010350E-01
   7164.33  3.4316233E-01
   7164.67  3.4659609E-01
   7165.00  3.5037309E-01
   7165.33  3.5449824E-01
   7165.67  3.5890258E-01
   7166.00  3.6356243E-01
   7166.33  3.6848145E-01
   7166.67  3.7360733E-01
   7167.00  3.7892053E-01
   7167.33  3.8441933E-01
   7167.67  3.9005949E-01
   7168.00  3.9581843E-01
   7168.33  4.0167803E-01
   7168.67  4.0759388E-01
   7169.00  4.1353363E-01
   7169.33  4.1945293E-01
   7169.67  4.2530667E-01
   7170.00  4.3104990E-01
   7170.33  4.3660437E-01
   7170.67  4.4192591E-01
   7171.00  4.4694690E-01
   7171.33  4.5150899E-01
   7171.67  4.5549462E-01
   7172.00  4.5870097E-01
