    FDMNES
    energy     <xanes>
   7097.00  5.2953136E-03
   7097.33  5.4275118E-03
   7097.67  5.5660343E-03
   7098.00  5.7113255E-03
   7098.33  5.8648770E-03
   7098.67  6.0264114E-03
   7099.00  6.1965384E-03
   7099.33  6.3772243E-03
   7099.67  6.5681894E-03
   7100.00  6.7702919E-03
   7100.33  6.9861918E-03
   7100.67  7.2156393E-03
   7101.00  7.4598801E-03
   7101.33  7.7226234E-03
   7101.67  8.0037205E-03
   7102.00  8.3050454E-03
   7102.33  8.6319629E-03
   7102.67  8.9845814E-03
   7103.00  9.3658455E-03
   7103.33  9.7838658E-03
   7103.67  1.0239361E-02
   7104.00  1.0737213E-02
   7104.33  1.1290376E-02
   7104.67  1.1901023E-02
   7105.00  1.2577808E-02
   7105.33  1.3342942E-02
   7105.67  1.4202221E-02
   7106.00  1.5172402E-02
   7106.33  1.6295328E-02
   7106.67  1.7586699E-02
   7107.00  1.9083141E-02
   7107.33  2.0874641E-02
   7107.67  2.3008346E-02
   7108.00  2.5579897E-02
   7108.33  2.8825873E-02
   7108.67  3.2920679E-02
   7109.00  3.8196271E-02
   7109.33  4.5521774E-02
   7109.67  5.5839439E-02
   7110.00  7.0995135E-02
   7110.33  9.6272862E-02
   7110.67  1.3722952E-01
   7111.00  1.9453609E-01
   7111.33  2.4610443E-01
   7111.67  2.8666155E-01
   7112.00  3.3554454E-01
   7112.33  4.1068464E-01
   7112.67  4.9503136E-01
   7113.00  5.4265287E-01
   7113.33  5.5805245E-01
   7113.67  5.7029079E-01
   7114.00  5.3200336E-01
   7114.33  4.2637301E-01
   7114.67  3.2401533E-01
   7115.00  2.5188557E-01
   7115.33  2.1199288E-01
   7115.67  1.9333488E-01
   7116.00  1.9113188E-01
   7116.33  1.9881337E-01
   7116.67  2.0398577E-01
   7117.00  2.0073258E-01
   7117.33  1.9099395E-01
   7117.67  1.8094602E-01
   7118.00  1.7255004E-01
   7118.33  1.6590916E-01
   7118.67  1.6007843E-01
   7119.00  1.5449933E-01
   7119.33  1.4912388E-01
   7119.67  1.4457554E-01
   7120.00  1.4129020E-01
   7120.33  1.3870474E-01
   7120.67  1.3563945E-01
   7121.00  1.3228139E-01
   7121.33  1.2992146E-01
   7121.67  1.2914693E-01
   7122.00  1.2987097E-01
   7122.33  1.3213261E-01
   7122.67  1.3575570E-01
   7123.00  1.4068754E-01
   7123.33  1.4708755E-01
   7123.67  1.5488960E-01
   7124.00  1.6428951E-01
   7124.33  1.7599638E-01
   7124.67  1.9040309E-01
   7125.00  2.0820653E-01
   7125.33  2.3131391E-01
   7125.67  2.6133294E-01
   7126.00  3.0025482E-01
   7126.33  3.4862506E-01
   7126.67  3.9687794E-01
   7127.00  4.3113612E-01
   7127.33  4.3985282E-01
   7127.67  4.3610508E-01
   7128.00  4.3282185E-01
   7128.33  4.3767184E-01
   7128.67  4.4949927E-01
   7129.00  4.6680277E-01
   7129.33  4.8839576E-01
   7129.67  5.1206227E-01
   7130.00  5.3656908E-01
   7130.33  5.6125162E-01
   7130.67  5.8630550E-01
   7131.00  6.1266847E-01
   7131.33  6.4306072E-01
   7131.67  6.8000193E-01
   7132.00  7.2521925E-01
   7132.33  7.7927517E-01
   7132.67  8.3750065E-01
   7133.00  8.9427749E-01
   7133.33  9.4085844E-01
   7133.67  9.7315508E-01
   7134.00  9.9033269E-01
   7134.33  9.9175865E-01
   7134.67  9.7922256E-01
   7135.00  9.5197479E-01
   7135.33  9.0902680E-01
   7135.67  8.5580378E-01
   7136.00  7.9698228E-01
   7136.33  7.3782446E-01
   7136.67  6.8217376E-01
   7137.00  6.3190911E-01
   7137.33  5.8883576E-01
   7137.67  5.5240985E-01
   7138.00  5.2253346E-01
   7138.33  4.9965726E-01
   7138.67  4.8250211E-01
   7139.00  4.7051376E-01
   7139.33  4.6348261E-01
   7139.67  4.6005587E-01
   7140.00  4.5960100E-01
   7140.33  4.6183350E-01
   7140.67  4.6606718E-01
   7141.00  4.7209317E-01
   7141.33  4.7992526E-01
   7141.67  4.8914597E-01
   7142.00  4.9949359E-01
   7142.33  5.1064218E-01
   7142.67  5.2199728E-01
   7143.00  5.3310448E-01
   7143.33  5.4339902E-01
   7143.67  5.5262453E-01
   7144.00  5.6061510E-01
   7144.33  5.6716830E-01
   7144.67  5.7252824E-01
   7145.00  5.7683059E-01
   7145.33  5.8015501E-01
   7145.67  5.8279563E-01
   7146.00  5.8489148E-01
   7146.33  5.8652019E-01
   7146.67  5.8782742E-01
   7147.00  5.8886886E-01
   7147.33  5.8965165E-01
   7147.67  5.9020731E-01
   7148.00  5.9051659E-01
   7148.33  5.9050286E-01
   7148.67  5.9015136E-01
   7149.00  5.8942429E-01
   7149.33  5.8825971E-01
   7149.67  5.8673638E-01
   7150.00  5.8491539E-01
   7150.33  5.8287964E-01
   7150.67  5.8078464E-01
   7151.00  5.7874927E-01
   7151.33  5.7692454E-01
   7151.67  5.7539072E-01
   7152.00  5.7421104E-01
   7152.33  5.7347112E-01
   7152.67  5.7312098E-01
   7153.00  5.7313406E-01
   7153.33  5.7349357E-01
   7153.67  5.7408618E-01
   7154.00  5.7483863E-01
   7154.33  5.7567273E-01
   7154.67  5.7649838E-01
   7155.00  5.7725721E-01
   7155.33  5.7788598E-01
   7155.67  5.7837527E-01
   7156.00  5.7872581E-01
   7156.33  5.7894846E-01
   7156.67  5.7910565E-01
   7157.00  5.7925295E-01
   7157.33  5.7947292E-01
   7157.67  5.7983321E-01
   7158.00  5.8039141E-01
   7158.33  5.8123252E-01
   7158.67  5.8235551E-01
   7159.00  5.8376137E-01
   7159.33  5.8545369E-01
   7159.67  5.8734007E-01
   7160.00  5.8934295E-01
   7160.33  5.9134473E-01
   7160.67  5.9320633E-01
   7161.00  5.9479825E-01
   7161.33  5.9591767E-01
   7161.67  5.9648070E-01
   7162.00  5.9638790E-01
   7162.33  5.9545863E-01
   7162.67  5.9373307E-01
   7163.00  5.9119481E-01
   7163.33  5.8775668E-01
   7163.67  5.8356145E-01
   7164.00  5.7866441E-01
   7164.33  5.7306569E-01
   7164.67  5.6692896E-01
   7165.00  5.6032856E-01
   7165.33  5.5329984E-01
   7165.67  5.4596737E-01
   7166.00  5.3839071E-01
   7166.33  5.3060898E-01
   7166.67  5.2269967E-01
   7167.00  5.1470206E-01
   7167.33  5.0664508E-01
   7167.67  4.9856393E-01
   7168.00  4.9048158E-01
   7168.33  4.8243152E-01
   7168.67  4.7444728E-01
   7169.00  4.6656532E-01
   7169.33  4.5885087E-01
   7169.67  4.5133713E-01
   7170.00  4.4407594E-01
   7170.33  4.3717704E-01
   7170.67  4.3068014E-01
   7171.00  4.2466410E-01
   7171.33  4.1931643E-01
   7171.67  4.1472381E-01
   7172.00  4.1106563E-01
