    FDMNES
    energy     <xanes>
   7097.00  5.1094263E-03
   7097.33  5.2300797E-03
   7097.67  5.3561773E-03
   7098.00  5.4880816E-03
   7098.33  5.6270419E-03
   7098.67  5.7727911E-03
   7099.00  5.9258189E-03
   7099.33  6.0877479E-03
   7099.67  6.2582988E-03
   7100.00  6.4381496E-03
   7100.33  6.6294583E-03
   7100.67  6.8319529E-03
   7101.00  7.0465992E-03
   7101.33  7.2763486E-03
   7101.67  7.5209807E-03
   7102.00  7.7819177E-03
   7102.33  8.0633337E-03
   7102.67  8.3651572E-03
   7103.00  8.6895685E-03
   7103.33  9.0427149E-03
   7103.67  9.4248927E-03
   7104.00  9.8396123E-03
   7104.33  1.0296394E-02
   7104.67  1.0796414E-02
   7105.00  1.1345683E-02
   7105.33  1.1959925E-02
   7105.67  1.2642474E-02
   7106.00  1.3404491E-02
   7106.33  1.4274255E-02
   7106.67  1.5260822E-02
   7107.00  1.6387335E-02
   7107.33  1.7711128E-02
   7107.67  1.9258605E-02
   7108.00  2.1086236E-02
   7108.33  2.3333584E-02
   7108.67  2.6093020E-02
   7109.00  2.9544141E-02
   7109.33  3.4151006E-02
   7109.67  4.0375864E-02
   7110.00  4.9121267E-02
   7110.33  6.2912787E-02
   7110.67  8.4190829E-02
   7111.00  1.1331283E-01
   7111.33  1.4521885E-01
   7111.67  1.8145190E-01
   7112.00  2.2531118E-01
   7112.33  2.7959307E-01
   7112.67  3.4331376E-01
   7113.00  4.0695481E-01
   7113.33  4.5821982E-01
   7113.67  4.9425326E-01
   7114.00  5.0999631E-01
   7114.33  4.9318899E-01
   7114.67  4.4127714E-01
   7115.00  3.7188991E-01
   7115.33  3.1377018E-01
   7115.67  2.7491895E-01
   7116.00  2.5245163E-01
   7116.33  2.3854537E-01
   7116.67  2.2497197E-01
   7117.00  2.1087126E-01
   7117.33  1.9857789E-01
   7117.67  1.8934454E-01
   7118.00  1.8284072E-01
   7118.33  1.7756855E-01
   7118.67  1.7216932E-01
   7119.00  1.6684324E-01
   7119.33  1.6272007E-01
   7119.67  1.6035770E-01
   7120.00  1.5971590E-01
   7120.33  1.5997995E-01
   7120.67  1.5936559E-01
   7121.00  1.5667268E-01
   7121.33  1.5222217E-01
   7121.67  1.4838891E-01
   7122.00  1.4677616E-01
   7122.33  1.4857213E-01
   7122.67  1.5332202E-01
   7123.00  1.6055666E-01
   7123.33  1.6979715E-01
   7123.67  1.8041934E-01
   7124.00  1.9277737E-01
   7124.33  2.0819000E-01
   7124.67  2.2713623E-01
   7125.00  2.5008110E-01
   7125.33  2.7767611E-01
   7125.67  3.0838297E-01
   7126.00  3.3976417E-01
   7126.33  3.6676525E-01
   7126.67  3.8661448E-01
   7127.00  4.0049146E-01
   7127.33  4.1210921E-01
   7127.67  4.2444220E-01
   7128.00  4.3849422E-01
   7128.33  4.5540410E-01
   7128.67  4.7538888E-01
   7129.00  4.9834873E-01
   7129.33  5.2373379E-01
   7129.67  5.4985051E-01
   7130.00  5.7518768E-01
   7130.33  5.9782559E-01
   7130.67  6.1750224E-01
   7131.00  6.3500464E-01
   7131.33  6.5190778E-01
   7131.67  6.6942380E-01
   7132.00  6.8776349E-01
   7132.33  7.0676189E-01
   7132.67  7.2606974E-01
   7133.00  7.4554582E-01
   7133.33  7.6518469E-01
   7133.67  7.8517229E-01
   7134.00  8.0576321E-01
   7134.33  8.2688307E-01
   7134.67  8.4730274E-01
   7135.00  8.6487618E-01
   7135.33  8.7444334E-01
   7135.67  8.7129782E-01
   7136.00  8.5169885E-01
   7136.33  8.1336312E-01
   7136.67  7.6297884E-01
   7137.00  7.0646163E-01
   7137.33  6.5023125E-01
   7137.67  5.9862899E-01
   7138.00  5.5371724E-01
   7138.33  5.1742379E-01
   7138.67  4.8876618E-01
   7139.00  4.6721417E-01
   7139.33  4.5253326E-01
   7139.67  4.4276678E-01
   7140.00  4.3691147E-01
   7140.33  4.3434807E-01
   7140.67  4.3399317E-01
   7141.00  4.3543094E-01
   7141.33  4.3852581E-01
   7141.67  4.4287400E-01
   7142.00  4.4832410E-01
   7142.33  4.5483927E-01
   7142.67  4.6215637E-01
   7143.00  4.7016491E-01
   7143.33  4.7882805E-01
   7143.67  4.8797059E-01
   7144.00  4.9750291E-01
   7144.33  5.0734728E-01
   7144.67  5.1734238E-01
   7145.00  5.2736613E-01
   7145.33  5.3724729E-01
   7145.67  5.4683726E-01
   7146.00  5.5599254E-01
   7146.33  5.6447475E-01
   7146.67  5.7220672E-01
   7147.00  5.7907216E-01
   7147.33  5.8482912E-01
   7147.67  5.8950931E-01
   7148.00  5.9306570E-01
   7148.33  5.9535576E-01
   7148.67  5.9658687E-01
   7149.00  5.9687101E-01
   7149.33  5.9627775E-01
   7149.67  5.9508320E-01
   7150.00  5.9344306E-01
   7150.33  5.9149786E-01
   7150.67  5.8943873E-01
   7151.00  5.8738181E-01
   7151.33  5.8545167E-01
   7151.67  5.8372145E-01
   7152.00  5.8225174E-01
   7152.33  5.8113979E-01
   7152.67  5.8039015E-01
   7153.00  5.8003047E-01
   7153.33  5.8013163E-01
   7153.67  5.8064716E-01
   7154.00  5.8156822E-01
   7154.33  5.8291558E-01
   7154.67  5.8459751E-01
   7155.00  5.8656286E-01
   7155.33  5.8876548E-01
   7155.67  5.9109542E-01
   7156.00  5.9347472E-01
   7156.33  5.9580356E-01
   7156.67  5.9799354E-01
   7157.00  5.9996700E-01
   7157.33  6.0160179E-01
   7157.67  6.0285952E-01
   7158.00  6.0368559E-01
   7158.33  6.0397277E-01
   7158.67  6.0375238E-01
   7159.00  6.0301500E-01
   7159.33  6.0170288E-01
   7159.67  5.9990341E-01
   7160.00  5.9764966E-01
   7160.33  5.9494265E-01
   7160.67  5.9189389E-01
   7161.00  5.8855947E-01
   7161.33  5.8497683E-01
   7161.67  5.8123723E-01
   7162.00  5.7739079E-01
   7162.33  5.7348396E-01
   7162.67  5.6956825E-01
   7163.00  5.6567179E-01
   7163.33  5.6181926E-01
   7163.67  5.5801213E-01
   7164.00  5.5424635E-01
   7164.33  5.5051201E-01
   7164.67  5.4678504E-01
   7165.00  5.4304417E-01
   7165.33  5.3925687E-01
   7165.67  5.3539992E-01
   7166.00  5.3145058E-01
   7166.33  5.2737067E-01
   7166.67  5.2315393E-01
   7167.00  5.1878610E-01
   7167.33  5.1423580E-01
   7167.67  5.0951861E-01
   7168.00  5.0463688E-01
   7168.33  4.9958309E-01
   7168.67  4.9439782E-01
   7169.00  4.8910813E-01
   7169.33  4.8374326E-01
   7169.67  4.7835634E-01
   7170.00  4.7299299E-01
   7170.33  4.6772459E-01
   7170.67  4.6261140E-01
   7171.00  4.5772718E-01
   7171.33  4.5323236E-01
   7171.67  4.4926808E-01
   7172.00  4.4605686E-01
