    FDMNES
    energy     <xanes>
   7097.00  5.1153369E-03
   7097.33  5.2382316E-03
   7097.67  5.3667577E-03
   7098.00  5.5012950E-03
   7098.33  5.6431440E-03
   7098.67  5.7920351E-03
   7099.00  5.9484829E-03
   7099.33  6.1141819E-03
   7099.67  6.2888517E-03
   7100.00  6.4732072E-03
   7100.33  6.6695097E-03
   7100.67  6.8774898E-03
   7101.00  7.0981690E-03
   7101.33  7.3346517E-03
   7101.67  7.5867275E-03
   7102.00  7.8559060E-03
   7102.33  8.1465951E-03
   7102.67  8.4587497E-03
   7103.00  8.7946922E-03
   7103.33  9.1609410E-03
   7103.67  9.5578542E-03
   7104.00  9.9891847E-03
   7104.33  1.0465070E-02
   7104.67  1.0986827E-02
   7105.00  1.1560903E-02
   7105.33  1.2204111E-02
   7105.67  1.2920110E-02
   7106.00  1.3720905E-02
   7106.33  1.4636836E-02
   7106.67  1.5677749E-02
   7107.00  1.6868561E-02
   7107.33  1.8270887E-02
   7107.67  1.9913177E-02
   7108.00  2.1856043E-02
   7108.33  2.4248931E-02
   7108.67  2.7189898E-02
   7109.00  3.0869055E-02
   7109.33  3.5774759E-02
   7109.67  4.2382622E-02
   7110.00  5.1616377E-02
   7110.33  6.6061095E-02
   7110.67  8.8444517E-02
   7111.00  1.2043967E-01
   7111.33  1.5884476E-01
   7111.67  2.0252844E-01
   7112.00  2.5614523E-01
   7112.33  3.2254557E-01
   7112.67  3.8792435E-01
   7113.00  4.3941409E-01
   7113.33  4.7435702E-01
   7113.67  4.9543328E-01
   7114.00  5.1651664E-01
   7114.33  5.1907257E-01
   7114.67  4.7029006E-01
   7115.00  3.8739890E-01
   7115.33  3.1297931E-01
   7115.67  2.6214126E-01
   7116.00  2.3353310E-01
   7116.33  2.2293700E-01
   7116.67  2.2057737E-01
   7117.00  2.1977494E-01
   7117.33  2.1427197E-01
   7117.67  2.0384972E-01
   7118.00  1.9087686E-01
   7118.33  1.7778718E-01
   7118.67  1.6579690E-01
   7119.00  1.5527985E-01
   7119.33  1.4682690E-01
   7119.67  1.4052427E-01
   7120.00  1.3625341E-01
   7120.33  1.3352012E-01
   7120.67  1.3139207E-01
   7121.00  1.2980757E-01
   7121.33  1.2939578E-01
   7121.67  1.3022246E-01
   7122.00  1.3211816E-01
   7122.33  1.3507758E-01
   7122.67  1.3881627E-01
   7123.00  1.4313055E-01
   7123.33  1.4823387E-01
   7123.67  1.5453039E-01
   7124.00  1.6232920E-01
   7124.33  1.7190487E-01
   7124.67  1.8300447E-01
   7125.00  1.9552378E-01
   7125.33  2.0944151E-01
   7125.67  2.2441686E-01
   7126.00  2.4012020E-01
   7126.33  2.5618543E-01
   7126.67  2.7317937E-01
   7127.00  2.9237878E-01
   7127.33  3.1509032E-01
   7127.67  3.4028865E-01
   7128.00  3.6643721E-01
   7128.33  3.9239554E-01
   7128.67  4.1958912E-01
   7129.00  4.5090432E-01
   7129.33  4.9043849E-01
   7129.67  5.3836620E-01
   7130.00  5.9293914E-01
   7130.33  6.4868695E-01
   7130.67  6.9836302E-01
   7131.00  7.3838837E-01
   7131.33  7.6886556E-01
   7131.67  7.9535659E-01
   7132.00  8.2139639E-01
   7132.33  8.4953125E-01
   7132.67  8.8016850E-01
   7133.00  9.1256110E-01
   7133.33  9.4417354E-01
   7133.67  9.7138140E-01
   7134.00  9.9054459E-01
   7134.33  9.9616273E-01
   7134.67  9.8716306E-01
   7135.00  9.6340390E-01
   7135.33  9.2570422E-01
   7135.67  8.7953522E-01
   7136.00  8.2838585E-01
   7136.33  7.7546368E-01
   7136.67  7.2342420E-01
   7137.00  6.7369586E-01
   7137.33  6.2781891E-01
   7137.67  5.8612670E-01
   7138.00  5.4911418E-01
   7138.33  5.1786199E-01
   7138.67  4.9201566E-01
   7139.00  4.7166595E-01
   7139.33  4.5735922E-01
   7139.67  4.4800958E-01
   7140.00  4.4302039E-01
   7140.33  4.4189037E-01
   7140.67  4.4314518E-01
   7141.00  4.4594996E-01
   7141.33  4.4967682E-01
   7141.67  4.5383561E-01
   7142.00  4.5834499E-01
   7142.33  4.6335071E-01
   7142.67  4.6895717E-01
   7143.00  4.7528089E-01
   7143.33  4.8248139E-01
   7143.67  4.9041719E-01
   7144.00  4.9896190E-01
   7144.33  5.0792909E-01
   7144.67  5.1697876E-01
   7145.00  5.2584400E-01
   7145.33  5.3417628E-01
   7145.67  5.4180097E-01
   7146.00  5.4857656E-01
   7146.33  5.5429415E-01
   7146.67  5.5905251E-01
   7147.00  5.6287717E-01
   7147.33  5.6571895E-01
   7147.67  5.6777262E-01
   7148.00  5.6913117E-01
   7148.33  5.6984659E-01
   7148.67  5.7011982E-01
   7149.00  5.7006325E-01
   7149.33  5.6977399E-01
   7149.67  5.6938883E-01
   7150.00  5.6899249E-01
   7150.33  5.6868106E-01
   7150.67  5.6852175E-01
   7151.00  5.6857370E-01
   7151.33  5.6892851E-01
   7151.67  5.6959318E-01
   7152.00  5.7058498E-01
   7152.33  5.7194212E-01
   7152.67  5.7359799E-01
   7153.00  5.7551359E-01
   7153.33  5.7765349E-01
   7153.67  5.7992103E-01
   7154.00  5.8224930E-01
   7154.33  5.8455647E-01
   7154.67  5.8676839E-01
   7155.00  5.8882545E-01
   7155.33  5.9064248E-01
   7155.67  5.9220235E-01
   7156.00  5.9348068E-01
   7156.33  5.9442808E-01
   7156.67  5.9508427E-01
   7157.00  5.9546202E-01
   7157.33  5.9555299E-01
   7157.67  5.9541707E-01
   7158.00  5.9507726E-01
   7158.33  5.9453287E-01
   7158.67  5.9382332E-01
   7159.00  5.9295610E-01
   7159.33  5.9190802E-01
   7159.67  5.9068187E-01
   7160.00  5.8925284E-01
   7160.33  5.8755377E-01
   7160.67  5.8556859E-01
   7161.00  5.8325223E-01
   7161.33  5.8050171E-01
   7161.67  5.7731344E-01
   7162.00  5.7365109E-01
   7162.33  5.6942485E-01
   7162.67  5.6468844E-01
   7163.00  5.5944946E-01
   7163.33  5.5367582E-01
   7163.67  5.4747395E-01
   7164.00  5.4089785E-01
   7164.33  5.3398396E-01
   7164.67  5.2685169E-01
   7165.00  5.1957347E-01
   7165.33  5.1222292E-01
   7165.67  5.0488457E-01
   7166.00  4.9761781E-01
   7166.33  4.9049973E-01
   7166.67  4.8356577E-01
   7167.00  4.7685371E-01
   7167.33  4.7043250E-01
   7167.67  4.6429950E-01
   7168.00  4.5847533E-01
   7168.33  4.5302088E-01
   7168.67  4.4791209E-01
   7169.00  4.4316109E-01
   7169.33  4.3882357E-01
   7169.67  4.3485765E-01
   7170.00  4.3126376E-01
   7170.33  4.2808571E-01
   7170.67  4.2527211E-01
   7171.00  4.2281718E-01
   7171.33  4.2075875E-01
   7171.67  4.1905355E-01
   7172.00  4.1770934E-01
