    FDMNES
    energy     <xanes>
   7097.00  4.9726896E-03
   7097.33  5.0913162E-03
   7097.67  5.2153800E-03
   7098.00  5.3452500E-03
   7098.33  5.4821862E-03
   7098.67  5.6259318E-03
   7099.00  5.7769886E-03
   7099.33  5.9370023E-03
   7099.67  6.1057083E-03
   7100.00  6.2838061E-03
   7100.33  6.4734996E-03
   7100.67  6.6745392E-03
   7101.00  6.8879298E-03
   7101.33  7.1167107E-03
   7101.67  7.3606991E-03
   7102.00  7.6213902E-03
   7102.33  7.9031262E-03
   7102.67  8.2059055E-03
   7103.00  8.5320499E-03
   7103.33  8.8880370E-03
   7103.67  9.2743062E-03
   7104.00  9.6946579E-03
   7104.33  1.0159294E-02
   7104.67  1.0669714E-02
   7105.00  1.1232572E-02
   7105.33  1.1865102E-02
   7105.67  1.2571469E-02
   7106.00  1.3364405E-02
   7106.33  1.4275925E-02
   7106.67  1.5317526E-02
   7107.00  1.6516804E-02
   7107.33  1.7941898E-02
   7107.67  1.9627862E-02
   7108.00  2.1646752E-02
   7108.33  2.4177656E-02
   7108.67  2.7353347E-02
   7109.00  3.1428470E-02
   7109.33  3.7075791E-02
   7109.67  4.5043910E-02
   7110.00  5.6809836E-02
   7110.33  7.6580926E-02
   7110.67  1.0816230E-01
   7111.00  1.4932906E-01
   7111.33  1.8215965E-01
   7111.67  2.0401434E-01
   7112.00  2.2408634E-01
   7112.33  2.6034328E-01
   7112.67  3.0557356E-01
   7113.00  3.3382707E-01
   7113.33  3.6465516E-01
   7113.67  4.4657303E-01
   7114.00  5.6727789E-01
   7114.33  6.0188245E-01
   7114.67  5.0211962E-01
   7115.00  3.6523637E-01
   7115.33  2.7240378E-01
   7115.67  2.1736377E-01
   7116.00  1.9052626E-01
   7116.33  1.9006099E-01
   7116.67  2.1059948E-01
   7117.00  2.4031255E-01
   7117.33  2.4833051E-01
   7117.67  2.3128230E-01
   7118.00  2.0634462E-01
   7118.33  1.8701143E-01
   7118.67  1.7401945E-01
   7119.00  1.6479100E-01
   7119.33  1.5695136E-01
   7119.67  1.5054164E-01
   7120.00  1.4630579E-01
   7120.33  1.4414252E-01
   7120.67  1.4230624E-01
   7121.00  1.3971449E-01
   7121.33  1.3625819E-01
   7121.67  1.3247816E-01
   7122.00  1.2908235E-01
   7122.33  1.2775672E-01
   7122.67  1.2871698E-01
   7123.00  1.3113385E-01
   7123.33  1.3413180E-01
   7123.67  1.3743839E-01
   7124.00  1.4119589E-01
   7124.33  1.4582317E-01
   7124.67  1.5154913E-01
   7125.00  1.5850107E-01
   7125.33  1.6674328E-01
   7125.67  1.7593324E-01
   7126.00  1.8601843E-01
   7126.33  1.9753815E-01
   7126.67  2.1123247E-01
   7127.00  2.2801602E-01
   7127.33  2.4894167E-01
   7127.67  2.7296453E-01
   7128.00  2.9855493E-01
   7128.33  3.2360051E-01
   7128.67  3.4730274E-01
   7129.00  3.7031220E-01
   7129.33  3.9428688E-01
   7129.67  4.2047457E-01
   7130.00  4.4959723E-01
   7130.33  4.8242244E-01
   7130.67  5.1837841E-01
   7131.00  5.5702842E-01
   7131.33  5.9802273E-01
   7131.67  6.4049881E-01
   7132.00  6.8390946E-01
   7132.33  7.2743027E-01
   7132.67  7.6982565E-01
   7133.00  8.0974215E-01
   7133.33  8.4507773E-01
   7133.67  8.7537475E-01
   7134.00  9.0082069E-01
   7134.33  9.2264974E-01
   7134.67  9.4400690E-01
   7135.00  9.6731363E-01
   7135.33  9.9412395E-01
   7135.67  1.0208259E+00
   7136.00  1.0394924E+00
   7136.33  1.0343695E+00
   7136.67  9.9940257E-01
   7137.00  9.3709220E-01
   7137.33  8.5809842E-01
   7137.67  7.7802075E-01
   7138.00  7.0468537E-01
   7138.33  6.4352371E-01
   7138.67  5.9380256E-01
   7139.00  5.5471484E-01
   7139.33  5.2585968E-01
   7139.67  5.0438437E-01
   7140.00  4.8887757E-01
   7140.33  4.7848777E-01
   7140.67  4.7154424E-01
   7141.00  4.6735620E-01
   7141.33  4.6563199E-01
   7141.67  4.6570937E-01
   7142.00  4.6733783E-01
   7142.33  4.7043900E-01
   7142.67  4.7463979E-01
   7143.00  4.7978355E-01
   7143.33  4.8581830E-01
   7143.67  4.9253111E-01
   7144.00  4.9985061E-01
   7144.33  5.0778101E-01
   7144.67  5.1619204E-01
   7145.00  5.2501269E-01
   7145.33  5.3416083E-01
   7145.67  5.4343176E-01
   7146.00  5.5263615E-01
   7146.33  5.6148075E-01
   7146.67  5.6976059E-01
   7147.00  5.7730054E-01
   7147.33  5.8384600E-01
   7147.67  5.8944178E-01
   7148.00  5.9410431E-01
   7148.33  5.9782625E-01
   7148.67  6.0086694E-01
   7149.00  6.0337892E-01
   7149.33  6.0548905E-01
   7149.67  6.0738443E-01
   7150.00  6.0915385E-01
   7150.33  6.1085049E-01
   7150.67  6.1250087E-01
   7151.00  6.1408990E-01
   7151.33  6.1555686E-01
   7151.67  6.1685338E-01
   7152.00  6.1792364E-01
   7152.33  6.1866912E-01
   7152.67  6.1907511E-01
   7153.00  6.1911322E-01
   7153.33  6.1872536E-01
   7153.67  6.1797445E-01
   7154.00  6.1689489E-01
   7154.33  6.1551469E-01
   7154.67  6.1394477E-01
   7155.00  6.1225733E-01
   7155.33  6.1053046E-01
   7155.67  6.0884164E-01
   7156.00  6.0723983E-01
   7156.33  6.0577539E-01
   7156.67  6.0444213E-01
   7157.00  6.0322736E-01
   7157.33  6.0210609E-01
   7157.67  6.0101852E-01
   7158.00  5.9991965E-01
   7158.33  5.9875613E-01
   7158.67  5.9750237E-01
   7159.00  5.9614387E-01
   7159.33  5.9466688E-01
   7159.67  5.9309772E-01
   7160.00  5.9145260E-01
   7160.33  5.8974126E-01
   7160.67  5.8798323E-01
   7161.00  5.8617777E-01
   7161.33  5.8429873E-01
   7161.67  5.8232530E-01
   7162.00  5.8022044E-01
   7162.33  5.7789937E-01
   7162.67  5.7531829E-01
   7163.00  5.7242075E-01
   7163.33  5.6910201E-01
   7163.67  5.6536438E-01
   7164.00  5.6118283E-01
   7164.33  5.5648707E-01
   7164.67  5.5133807E-01
   7165.00  5.4575108E-01
   7165.33  5.3970293E-01
   7165.67  5.3328097E-01
   7166.00  5.2652052E-01
   7166.33  5.1942854E-01
   7166.67  5.1208806E-01
   7167.00  5.0454018E-01
   7167.33  4.9681465E-01
   7167.67  4.8898326E-01
   7168.00  4.8109254E-01
   7168.33  4.7319796E-01
   7168.67  4.6535649E-01
   7169.00  4.5761675E-01
   7169.33  4.5006223E-01
   7169.67  4.4273966E-01
   7170.00  4.3569791E-01
   7170.33  4.2902883E-01
   7170.67  4.2274570E-01
   7171.00  4.1690597E-01
   7171.33  4.1167096E-01
   7171.67  4.0713043E-01
   7172.00  4.0348132E-01
