    FDMNES
    energy     <xanes>
   7097.00  5.3318183E-03
   7097.33  5.4631498E-03
   7097.67  5.6006309E-03
   7098.00  5.7446832E-03
   7098.33  5.8967386E-03
   7098.67  6.0565121E-03
   7099.00  6.2245772E-03
   7099.33  6.4028071E-03
   7099.67  6.5909075E-03
   7100.00  6.7896780E-03
   7100.33  7.0016291E-03
   7100.67  7.2264827E-03
   7101.00  7.4653857E-03
   7101.33  7.7217997E-03
   7101.67  7.9955189E-03
   7102.00  8.2882446E-03
   7102.33  8.6049137E-03
   7102.67  8.9455154E-03
   7103.00  9.3126764E-03
   7103.33  9.7137304E-03
   7103.67  1.0149135E-02
   7104.00  1.0623147E-02
   7104.33  1.1147222E-02
   7104.67  1.1722920E-02
   7105.00  1.2357575E-02
   7105.33  1.3070249E-02
   7105.67  1.3865183E-02
   7106.00  1.4756048E-02
   7106.33  1.5777314E-02
   7106.67  1.6940260E-02
   7107.00  1.8273228E-02
   7107.33  1.9846192E-02
   7107.67  2.1691431E-02
   7108.00  2.3877587E-02
   7108.33  2.6573695E-02
   7108.67  2.9889948E-02
   7109.00  3.4040046E-02
   7109.33  3.9572356E-02
   7109.67  4.7018148E-02
   7110.00  5.7410179E-02
   7110.33  7.3631581E-02
   7110.67  9.8607525E-02
   7111.00  1.3342901E-01
   7111.33  1.7151508E-01
   7111.67  2.1438058E-01
   7112.00  2.7445508E-01
   7112.33  3.6364170E-01
   7112.67  4.7989129E-01
   7113.00  6.1545313E-01
   7113.33  7.1766053E-01
   7113.67  7.0624269E-01
   7114.00  5.8870835E-01
   7114.33  4.5839747E-01
   7114.67  3.6110932E-01
   7115.00  2.9552030E-01
   7115.33  2.5497218E-01
   7115.67  2.2947676E-01
   7116.00  2.1511513E-01
   7116.33  2.0918850E-01
   7116.67  2.0613192E-01
   7117.00  2.0127956E-01
   7117.33  1.9112566E-01
   7117.67  1.7815199E-01
   7118.00  1.6577988E-01
   7118.33  1.5672072E-01
   7118.67  1.5068859E-01
   7119.00  1.4693659E-01
   7119.33  1.4449478E-01
   7119.67  1.4194731E-01
   7120.00  1.3837545E-01
   7120.33  1.3365755E-01
   7120.67  1.2918214E-01
   7121.00  1.2611487E-01
   7121.33  1.2510262E-01
   7121.67  1.2551031E-01
   7122.00  1.2697514E-01
   7122.33  1.2942024E-01
   7122.67  1.3263103E-01
   7123.00  1.3653637E-01
   7123.33  1.4124599E-01
   7123.67  1.4686811E-01
   7124.00  1.5369698E-01
   7124.33  1.6235267E-01
   7124.67  1.7308732E-01
   7125.00  1.8631219E-01
   7125.33  2.0285483E-01
   7125.67  2.2265782E-01
   7126.00  2.4573641E-01
   7126.33  2.7203530E-01
   7126.67  3.0036107E-01
   7127.00  3.2988468E-01
   7127.33  3.5946240E-01
   7127.67  3.8762505E-01
   7128.00  4.1356321E-01
   7128.33  4.3798039E-01
   7128.67  4.6372300E-01
   7129.00  4.9344113E-01
   7129.33  5.3018445E-01
   7129.67  5.7368273E-01
   7130.00  6.2269045E-01
   7130.33  6.7469706E-01
   7130.67  7.2636910E-01
   7131.00  7.7607608E-01
   7131.33  8.2323673E-01
   7131.67  8.6919537E-01
   7132.00  9.1520662E-01
   7132.33  9.6205826E-01
   7132.67  1.0084613E+00
   7133.00  1.0513030E+00
   7133.33  1.0833034E+00
   7133.67  1.0984473E+00
   7134.00  1.0920689E+00
   7134.33  1.0605510E+00
   7134.67  1.0110106E+00
   7135.00  9.4941857E-01
   7135.33  8.8205238E-01
   7135.67  8.1486103E-01
   7136.00  7.5082072E-01
   7136.33  6.9255482E-01
   7136.67  6.4034836E-01
   7137.00  5.9452144E-01
   7137.33  5.5598072E-01
   7137.67  5.2385901E-01
   7138.00  4.9801127E-01
   7138.33  4.7888924E-01
   7138.67  4.6532410E-01
   7139.00  4.5685830E-01
   7139.33  4.5340928E-01
   7139.67  4.5369893E-01
   7140.00  4.5708698E-01
   7140.33  4.6315445E-01
   7140.67  4.7096728E-01
   7141.00  4.8006731E-01
   7141.33  4.9013532E-01
   7141.67  5.0073687E-01
   7142.00  5.1164950E-01
   7142.33  5.2266380E-01
   7142.67  5.3356262E-01
   7143.00  5.4416733E-01
   7143.33  5.5420044E-01
   7143.67  5.6351245E-01
   7144.00  5.7193344E-01
   7144.33  5.7916683E-01
   7144.67  5.8522667E-01
   7145.00  5.9005161E-01
   7145.33  5.9346533E-01
   7145.67  5.9566043E-01
   7146.00  5.9670427E-01
   7146.33  5.9657569E-01
   7146.67  5.9553349E-01
   7147.00  5.9369390E-01
   7147.33  5.9110763E-01
   7147.67  5.8798354E-01
   7148.00  5.8442115E-01
   7148.33  5.8048464E-01
   7148.67  5.7631166E-01
   7149.00  5.7197852E-01
   7149.33  5.6755945E-01
   7149.67  5.6314748E-01
   7150.00  5.5881609E-01
   7150.33  5.5466773E-01
   7150.67  5.5076216E-01
   7151.00  5.4716820E-01
   7151.33  5.4401475E-01
   7151.67  5.4133281E-01
   7152.00  5.3918993E-01
   7152.33  5.3773824E-01
   7152.67  5.3696746E-01
   7153.00  5.3692272E-01
   7153.33  5.3773181E-01
   7153.67  5.3930498E-01
   7154.00  5.4161939E-01
   7154.33  5.4469748E-01
   7154.67  5.4835277E-01
   7155.00  5.5246952E-01
   7155.33  5.5692535E-01
   7155.67  5.6150758E-01
   7156.00  5.6606540E-01
   7156.33  5.7041253E-01
   7156.67  5.7443357E-01
   7157.00  5.7803395E-01
   7157.33  5.8107281E-01
   7157.67  5.8356647E-01
   7158.00  5.8549749E-01
   7158.33  5.8679532E-01
   7158.67  5.8754586E-01
   7159.00  5.8777080E-01
   7159.33  5.8743931E-01
   7159.67  5.8664708E-01
   7160.00  5.8542342E-01
   7160.33  5.8375197E-01
   7160.67  5.8171581E-01
   7161.00  5.7934154E-01
   7161.33  5.7661484E-01
   7161.67  5.7359954E-01
   7162.00  5.7031496E-01
   7162.33  5.6674252E-01
   7162.67  5.6292624E-01
   7163.00  5.5887641E-01
   7163.33  5.5457068E-01
   7163.67  5.5003668E-01
   7164.00  5.4526953E-01
   7164.33  5.4022905E-01
   7164.67  5.3493516E-01
   7165.00  5.2938240E-01
   7165.33  5.2353848E-01
   7165.67  5.1744644E-01
   7166.00  5.1112582E-01
   7166.33  5.0458567E-01
   7166.67  4.9789477E-01
   7167.00  4.9109961E-01
   7167.33  4.8425566E-01
   7167.67  4.7743276E-01
   7168.00  4.7068736E-01
   7168.33  4.6410171E-01
   7168.67  4.5771940E-01
   7169.00  4.5158937E-01
   7169.33  4.4579513E-01
   7169.67  4.4033395E-01
   7170.00  4.3523009E-01
   7170.33  4.3055407E-01
   7170.67  4.2627766E-01
   7171.00  4.2241880E-01
   7171.33  4.1906508E-01
   7171.67  4.1621953E-01
   7172.00  4.1395875E-01
