    FDMNES
    energy     <xanes>
   7097.00  4.9174821E-03
   7097.33  5.0299373E-03
   7097.67  5.1472942E-03
   7098.00  5.2698739E-03
   7098.33  5.3987930E-03
   7098.67  5.5338050E-03
   7099.00  5.6753442E-03
   7099.33  5.8248590E-03
   7099.67  5.9820934E-03
   7100.00  6.1476504E-03
   7100.33  6.3234566E-03
   7100.67  6.5092659E-03
   7101.00  6.7059410E-03
   7101.33  6.9161226E-03
   7101.67  7.1396181E-03
   7102.00  7.3777070E-03
   7102.33  7.6341410E-03
   7102.67  7.9088776E-03
   7103.00  8.2038980E-03
   7103.33  8.5247704E-03
   7103.67  8.8718208E-03
   7104.00  9.2482822E-03
   7104.33  9.6628794E-03
   7104.67  1.0116823E-02
   7105.00  1.0615745E-02
   7105.33  1.1174294E-02
   7105.67  1.1795872E-02
   7106.00  1.2491166E-02
   7106.33  1.3287091E-02
   7106.67  1.4192939E-02
   7107.00  1.5231438E-02
   7107.33  1.6458644E-02
   7107.67  1.7901935E-02
   7108.00  1.9618311E-02
   7108.33  2.1748355E-02
   7108.67  2.4388840E-02
   7109.00  2.7725386E-02
   7109.33  3.2237164E-02
   7109.67  3.8408620E-02
   7110.00  4.7179811E-02
   7110.33  6.1182570E-02
   7110.67  8.3068290E-02
   7111.00  1.1382861E-01
   7111.33  1.4962447E-01
   7111.67  1.8934069E-01
   7112.00  2.3969829E-01
   7112.33  3.1880331E-01
   7112.67  4.1156231E-01
   7113.00  4.6580313E-01
   7113.33  4.1670695E-01
   7113.67  3.2575488E-01
   7114.00  2.4743030E-01
   7114.33  1.9921514E-01
   7114.67  1.7135406E-01
   7115.00  1.5798072E-01
   7115.33  1.5611863E-01
   7115.67  1.6121924E-01
   7116.00  1.6480387E-01
   7116.33  1.5316714E-01
   7116.67  1.3449115E-01
   7117.00  1.1898655E-01
   7117.33  1.1057040E-01
   7117.67  1.0747207E-01
   7118.00  1.0880495E-01
   7118.33  1.1458443E-01
   7118.67  1.2410102E-01
   7119.00  1.3666752E-01
   7119.33  1.4982492E-01
   7119.67  1.6072889E-01
   7120.00  1.6959025E-01
   7120.33  1.7918651E-01
   7120.67  1.9029679E-01
   7121.00  2.0013121E-01
   7121.33  2.0611593E-01
   7121.67  2.1175178E-01
   7122.00  2.2050962E-01
   7122.33  2.3488957E-01
   7122.67  2.5440256E-01
   7123.00  2.7861420E-01
   7123.33  3.0758119E-01
   7123.67  3.4070634E-01
   7124.00  3.7829055E-01
   7124.33  4.2101193E-01
   7124.67  4.6630467E-01
   7125.00  5.0946699E-01
   7125.33  5.4262504E-01
   7125.67  5.6465579E-01
   7126.00  5.7860881E-01
   7126.33  5.8899859E-01
   7126.67  5.9923057E-01
   7127.00  6.0989126E-01
   7127.33  6.1954524E-01
   7127.67  6.2584565E-01
   7128.00  6.2711518E-01
   7128.33  6.2243092E-01
   7128.67  6.1363375E-01
   7129.00  6.0200461E-01
   7129.33  5.8865715E-01
   7129.67  5.7494034E-01
   7130.00  5.6194977E-01
   7130.33  5.5131644E-01
   7130.67  5.4396751E-01
   7131.00  5.4064619E-01
   7131.33  5.4240505E-01
   7131.67  5.4880530E-01
   7132.00  5.5972300E-01
   7132.33  5.7533403E-01
   7132.67  5.9459919E-01
   7133.00  6.1687375E-01
   7133.33  6.4125571E-01
   7133.67  6.6581597E-01
   7134.00  6.8865395E-01
   7134.33  7.0681031E-01
   7134.67  7.1876021E-01
   7135.00  7.2362408E-01
   7135.33  7.2087291E-01
   7135.67  7.1283108E-01
   7136.00  7.0117085E-01
   7136.33  6.8748511E-01
   7136.67  6.7336156E-01
   7137.00  6.5957770E-01
   7137.33  6.4681896E-01
   7137.67  6.3533446E-01
   7138.00  6.2534000E-01
   7138.33  6.1715641E-01
   7138.67  6.1058876E-01
   7139.00  6.0561901E-01
   7139.33  6.0239856E-01
   7139.67  6.0064103E-01
   7140.00  6.0021944E-01
   7140.33  6.0107910E-01
   7140.67  6.0285027E-01
   7141.00  6.0533734E-01
   7141.33  6.0840254E-01
   7141.67  6.1182572E-01
   7142.00  6.1551507E-01
   7142.33  6.1943121E-01
   7142.67  6.2351283E-01
   7143.00  6.2773545E-01
   7143.33  6.3207482E-01
   7143.67  6.3645973E-01
   7144.00  6.4081885E-01
   7144.33  6.4502840E-01
   7144.67  6.4897805E-01
   7145.00  6.5255030E-01
   7145.33  6.5554254E-01
   7145.67  6.5788706E-01
   7146.00  6.5947969E-01
   7146.33  6.6010606E-01
   7146.67  6.5978551E-01
   7147.00  6.5846074E-01
   7147.33  6.5595966E-01
   7147.67  6.5240303E-01
   7148.00  6.4781002E-01
   7148.33  6.4211331E-01
   7148.67  6.3552495E-01
   7149.00  6.2814559E-01
   7149.33  6.2003011E-01
   7149.67  6.1140854E-01
   7150.00  6.0241066E-01
   7150.33  5.9315812E-01
   7150.67  5.8382861E-01
   7151.00  5.7454042E-01
   7151.33  5.6542974E-01
   7151.67  5.5657316E-01
   7152.00  5.4803958E-01
   7152.33  5.3994316E-01
   7152.67  5.3228692E-01
   7153.00  5.2510547E-01
   7153.33  5.1849280E-01
   7153.67  5.1240898E-01
   7154.00  5.0686928E-01
   7154.33  5.0195569E-01
   7154.67  4.9760637E-01
   7155.00  4.9382479E-01
   7155.33  4.9068152E-01
   7155.67  4.8809943E-01
   7156.00  4.8606727E-01
   7156.33  4.8462900E-01
   7156.67  4.8368572E-01
   7157.00  4.8319941E-01
   7157.33  4.8316326E-01
   7157.67  4.8345687E-01
   7158.00  4.8401005E-01
   7158.33  4.8475336E-01
   7158.67  4.8556978E-01
   7159.00  4.8637658E-01
   7159.33  4.8706808E-01
   7159.67  4.8757133E-01
   7160.00  4.8782086E-01
   7160.33  4.8771265E-01
   7160.67  4.8723522E-01
   7161.00  4.8635512E-01
   7161.33  4.8499389E-01
   7161.67  4.8319236E-01
   7162.00  4.8094590E-01
   7162.33  4.7819921E-01
   7162.67  4.7501487E-01
   7163.00  4.7140618E-01
   7163.33  4.6734662E-01
   7163.67  4.6291935E-01
   7164.00  4.5816061E-01
   7164.33  4.5308628E-01
   7164.67  4.4779288E-01
   7165.00  4.4234179E-01
   7165.33  4.3680252E-01
   7165.67  4.3126898E-01
   7166.00  4.2581475E-01
   7166.33  4.2054547E-01
   7166.67  4.1552250E-01
   7167.00  4.1081144E-01
   7167.33  4.0652806E-01
   7167.67  4.0268155E-01
   7168.00  3.9930993E-01
   7168.33  3.9650890E-01
   7168.67  3.9423486E-01
   7169.00  3.9249498E-01
   7169.33  3.9135171E-01
   7169.67  3.9072110E-01
   7170.00  3.9057693E-01
   7170.33  3.9093153E-01
   7170.67  3.9167083E-01
   7171.00  3.9272734E-01
   7171.33  3.9401472E-01
   7171.67  3.9533279E-01
   7172.00  3.9647043E-01
