    FDMNES
    energy     <xanes>
   7097.00  4.1566178E-03
   7097.33  4.2350101E-03
   7097.67  4.3162615E-03
   7098.00  4.4005395E-03
   7098.33  4.4884636E-03
   7098.67  4.5798663E-03
   7099.00  4.6749724E-03
   7099.33  4.7745717E-03
   7099.67  4.8784903E-03
   7100.00  4.9870397E-03
   7100.33  5.1012562E-03
   7100.67  5.2209721E-03
   7101.00  5.3466343E-03
   7101.33  5.4796527E-03
   7101.67  5.6198927E-03
   7102.00  5.7680257E-03
   7102.33  5.9260554E-03
   7102.67  6.0939439E-03
   7103.00  6.2727543E-03
   7103.33  6.4654954E-03
   7103.67  6.6723740E-03
   7104.00  6.8951871E-03
   7104.33  7.1387744E-03
   7104.67  7.4039555E-03
   7105.00  7.6940248E-03
   7105.33  8.0174798E-03
   7105.67  8.3767444E-03
   7106.00  8.7785168E-03
   7106.33  9.2395168E-03
   7106.67  9.7667857E-03
   7107.00  1.0375937E-02
   7107.33  1.1105318E-02
   7107.67  1.1977440E-02
   7108.00  1.3036337E-02
   7108.33  1.4391326E-02
   7108.67  1.6130645E-02
   7109.00  1.8419309E-02
   7109.33  2.1692036E-02
   7109.67  2.6442734E-02
   7110.00  3.3633079E-02
   7110.33  4.6051509E-02
   7110.67  6.7110830E-02
   7111.00  1.0010136E-01
   7111.33  1.4388944E-01
   7111.67  1.7752661E-01
   7112.00  1.6773606E-01
   7112.33  1.2462437E-01
   7112.67  8.9428230E-02
   7113.00  6.6614750E-02
   7113.33  5.3574754E-02
   7113.67  4.6456104E-02
   7114.00  4.3710492E-02
   7114.33  4.2066263E-02
   7114.67  3.7854983E-02
   7115.00  3.3083413E-02
   7115.33  3.0180554E-02
   7115.67  2.8625935E-02
   7116.00  2.7933322E-02
   7116.33  2.7865060E-02
   7116.67  2.8226977E-02
   7117.00  2.8980143E-02
   7117.33  3.0179200E-02
   7117.67  3.1831093E-02
   7118.00  3.4031225E-02
   7118.33  3.7043131E-02
   7118.67  4.0995065E-02
   7119.00  4.6080706E-02
   7119.33  5.2703221E-02
   7119.67  6.0887105E-02
   7120.00  7.0540001E-02
   7120.33  8.0791144E-02
   7120.67  9.0242929E-02
   7121.00  9.9113708E-02
   7121.33  1.0986716E-01
   7121.67  1.2502428E-01
   7122.00  1.4671006E-01
   7122.33  1.7760343E-01
   7122.67  2.1458914E-01
   7123.00  2.5141913E-01
   7123.33  2.8407942E-01
   7123.67  3.1886356E-01
   7124.00  3.5781530E-01
   7124.33  3.9092282E-01
   7124.67  4.0805273E-01
   7125.00  4.1119480E-01
   7125.33  4.1224158E-01
   7125.67  4.2101669E-01
   7126.00  4.3998727E-01
   7126.33  4.6863965E-01
   7126.67  5.0336562E-01
   7127.00  5.4540837E-01
   7127.33  6.0181326E-01
   7127.67  6.7408841E-01
   7128.00  7.5944606E-01
   7128.33  8.4794908E-01
   7128.67  9.2335585E-01
   7129.00  9.7286948E-01
   7129.33  9.8703572E-01
   7129.67  9.7598019E-01
   7130.00  9.4949034E-01
   7130.33  9.1664233E-01
   7130.67  8.8413607E-01
   7131.00  8.5507522E-01
   7131.33  8.3169664E-01
   7131.67  8.1268564E-01
   7132.00  7.9708897E-01
   7132.33  7.8566769E-01
   7132.67  7.7894112E-01
   7133.00  7.7701886E-01
   7133.33  7.7932616E-01
   7133.67  7.8393626E-01
   7134.00  7.8953378E-01
   7134.33  7.9371847E-01
   7134.67  7.9392309E-01
   7135.00  7.8854372E-01
   7135.33  7.7681726E-01
   7135.67  7.6109930E-01
   7136.00  7.4343375E-01
   7136.33  7.2612426E-01
   7136.67  7.1082049E-01
   7137.00  6.9843837E-01
   7137.33  6.8992903E-01
   7137.67  6.8487200E-01
   7138.00  6.8286987E-01
   7138.33  6.8323092E-01
   7138.67  6.8440212E-01
   7139.00  6.8528466E-01
   7139.33  6.8473696E-01
   7139.67  6.8229358E-01
   7140.00  6.7757922E-01
   7140.33  6.6989391E-01
   7140.67  6.5930718E-01
   7141.00  6.4577774E-01
   7141.33  6.2922161E-01
   7141.67  6.1054320E-01
   7142.00  5.9039458E-01
   7142.33  5.6946785E-01
   7142.67  5.4853154E-01
   7143.00  5.2806772E-01
   7143.33  5.0862482E-01
   7143.67  4.9040028E-01
   7144.00  4.7358011E-01
   7144.33  4.5850136E-01
   7144.67  4.4505393E-01
   7145.00  4.3327222E-01
   7145.33  4.2336855E-01
   7145.67  4.1510480E-01
   7146.00  4.0843166E-01
   7146.33  4.0345102E-01
   7146.67  3.9985855E-01
   7147.00  3.9753048E-01
   7147.33  3.9642922E-01
   7147.67  3.9621317E-01
   7148.00  3.9668602E-01
   7148.33  3.9765966E-01
   7148.67  3.9882823E-01
   7149.00  3.9998514E-01
   7149.33  4.0089542E-01
   7149.67  4.0143472E-01
   7150.00  4.0152970E-01
   7150.33  4.0111313E-01
   7150.67  4.0027875E-01
   7151.00  3.9906826E-01
   7151.33  3.9747830E-01
   7151.67  3.9556166E-01
   7152.00  3.9329609E-01
   7152.33  3.9056441E-01
   7152.67  3.8730765E-01
   7153.00  3.8338276E-01
   7153.33  3.7842291E-01
   7153.67  3.7220826E-01
   7154.00  3.6447068E-01
   7154.33  3.5490606E-01
   7154.67  3.4400546E-01
   7155.00  3.3232472E-01
   7155.33  3.2068661E-01
   7155.67  3.0983260E-01
   7156.00  3.0020129E-01
   7156.33  2.9219787E-01
   7156.67  2.8560035E-01
   7157.00  2.8022974E-01
   7157.33  2.7591765E-01
   7157.67  2.7225773E-01
   7158.00  2.6904458E-01
   7158.33  2.6614859E-01
   7158.67  2.6345662E-01
   7159.00  2.6096635E-01
   7159.33  2.5876432E-01
   7159.67  2.5691109E-01
   7160.00  2.5550517E-01
   7160.33  2.5474917E-01
   7160.67  2.5471228E-01
   7161.00  2.5552339E-01
   7161.33  2.5746883E-01
   7161.67  2.6059134E-01
   7162.00  2.6503610E-01
   7162.33  2.7114618E-01
   7162.67  2.7887360E-01
   7163.00  2.8830721E-01
   7163.33  2.9971786E-01
   7163.67  3.1286065E-01
   7164.00  3.2763982E-01
   7164.33  3.4402422E-01
   7164.67  3.6151433E-01
   7165.00  3.7975059E-01
   7165.33  3.9825668E-01
   7165.67  4.1642526E-01
   7166.00  4.3373334E-01
   7166.33  4.4940671E-01
   7166.67  4.6311427E-01
   7167.00  4.7453082E-01
   7167.33  4.8315256E-01
   7167.67  4.8932409E-01
   7168.00  4.9325426E-01
   7168.33  4.9513727E-01
   7168.67  4.9575090E-01
   7169.00  4.9560697E-01
   7169.33  4.9525110E-01
   7169.67  4.9518462E-01
   7170.00  4.9571146E-01
   7170.33  4.9714491E-01
   7170.67  4.9944092E-01
   7171.00  5.0252506E-01
   7171.33  5.0622723E-01
   7171.67  5.1004037E-01
   7172.00  5.1342421E-01
