    FDMNES
    energy     <xanes>
   7097.00  4.9497134E-03
   7097.33  5.0574743E-03
   7097.67  5.1696144E-03
   7098.00  5.2863993E-03
   7098.33  5.4087913E-03
   7098.67  5.5365419E-03
   7099.00  5.6700043E-03
   7099.33  5.8104041E-03
   7099.67  5.9574771E-03
   7100.00  6.1117052E-03
   7100.33  6.2746874E-03
   7100.67  6.4461566E-03
   7101.00  6.6267909E-03
   7101.33  6.8187387E-03
   7101.67  7.0217603E-03
   7102.00  7.2368464E-03
   7102.33  7.4669901E-03
   7102.67  7.7120495E-03
   7103.00  7.9735386E-03
   7103.33  8.2558212E-03
   7103.67  8.5590158E-03
   7104.00  8.8855722E-03
   7104.33  9.2422303E-03
   7104.67  9.6297637E-03
   7105.00  1.0052432E-02
   7105.33  1.0521459E-02
   7105.67  1.1039301E-02
   7106.00  1.1614094E-02
   7106.33  1.2266498E-02
   7106.67  1.3003652E-02
   7107.00  1.3843187E-02
   7107.33  1.4828812E-02
   7107.67  1.5982601E-02
   7108.00  1.7350276E-02
   7108.33  1.9045196E-02
   7108.67  2.1149111E-02
   7109.00  2.3818090E-02
   7109.33  2.7458095E-02
   7109.67  3.2496009E-02
   7110.00  3.9760379E-02
   7110.33  5.1595504E-02
   7110.67  7.0546144E-02
   7111.00  9.8365461E-02
   7111.33  1.3484139E-01
   7111.67  1.7779927E-01
   7112.00  2.1638208E-01
   7112.33  2.2697677E-01
   7112.67  2.2244447E-01
   7113.00  2.1169652E-01
   7113.33  1.8301988E-01
   7113.67  1.4761935E-01
   7114.00  1.1888313E-01
   7114.33  1.0090050E-01
   7114.67  9.0001307E-02
   7115.00  8.4168677E-02
   7115.33  8.2337954E-02
   7115.67  8.3281010E-02
   7116.00  8.6727769E-02
   7116.33  9.3025749E-02
   7116.67  1.0223073E-01
   7117.00  1.1496881E-01
   7117.33  1.3302607E-01
   7117.67  1.5766061E-01
   7118.00  1.9106985E-01
   7118.33  2.3775637E-01
   7118.67  2.9829083E-01
   7119.00  3.7084133E-01
   7119.33  4.4505551E-01
   7119.67  5.0303711E-01
   7120.00  5.3345941E-01
   7120.33  5.3496867E-01
   7120.67  5.2389096E-01
   7121.00  5.1085063E-01
   7121.33  5.0197715E-01
   7121.67  4.9634699E-01
   7122.00  4.9168096E-01
   7122.33  4.8661505E-01
   7122.67  4.8298028E-01
   7123.00  4.8290815E-01
   7123.33  4.8810416E-01
   7123.67  4.9840855E-01
   7124.00  5.1467645E-01
   7124.33  5.3962566E-01
   7124.67  5.7347932E-01
   7125.00  6.1531677E-01
   7125.33  6.6173808E-01
   7125.67  7.0638303E-01
   7126.00  7.4368244E-01
   7126.33  7.6582014E-01
   7126.67  7.7074829E-01
   7127.00  7.5885281E-01
   7127.33  7.3304881E-01
   7127.67  7.0102258E-01
   7128.00  6.6740283E-01
   7128.33  6.3614495E-01
   7128.67  6.0885289E-01
   7129.00  5.8600085E-01
   7129.33  5.6786298E-01
   7129.67  5.5327830E-01
   7130.00  5.4166344E-01
   7130.33  5.3271406E-01
   7130.67  5.2565562E-01
   7131.00  5.2018168E-01
   7131.33  5.1621270E-01
   7131.67  5.1343602E-01
   7132.00  5.1178508E-01
   7132.33  5.1134356E-01
   7132.67  5.1190472E-01
   7133.00  5.1334955E-01
   7133.33  5.1551721E-01
   7133.67  5.1796235E-01
   7134.00  5.2028303E-01
   7134.33  5.2186417E-01
   7134.67  5.2225311E-01
   7135.00  5.2105739E-01
   7135.33  5.1774881E-01
   7135.67  5.1253107E-01
   7136.00  5.0562747E-01
   7136.33  4.9741737E-01
   7136.67  4.8874758E-01
   7137.00  4.8025630E-01
   7137.33  4.7270974E-01
   7137.67  4.6648518E-01
   7138.00  4.6183014E-01
   7138.33  4.5907633E-01
   7138.67  4.5800014E-01
   7139.00  4.5851567E-01
   7139.33  4.6063247E-01
   7139.67  4.6394776E-01
   7140.00  4.6824329E-01
   7140.33  4.7335335E-01
   7140.67  4.7894622E-01
   7141.00  4.8482463E-01
   7141.33  4.9075639E-01
   7141.67  4.9646390E-01
   7142.00  5.0167724E-01
   7142.33  5.0596924E-01
   7142.67  5.0918073E-01
   7143.00  5.1116877E-01
   7143.33  5.1172932E-01
   7143.67  5.1115835E-01
   7144.00  5.0972283E-01
   7144.33  5.0776804E-01
   7144.67  5.0572118E-01
   7145.00  5.0378603E-01
   7145.33  5.0206105E-01
   7145.67  5.0046365E-01
   7146.00  4.9888849E-01
   7146.33  4.9718292E-01
   7146.67  4.9522928E-01
   7147.00  4.9292925E-01
   7147.33  4.9014086E-01
   7147.67  4.8686101E-01
   7148.00  4.8306650E-01
   7148.33  4.7869734E-01
   7148.67  4.7385050E-01
   7149.00  4.6857648E-01
   7149.33  4.6291507E-01
   7149.67  4.5701503E-01
   7150.00  4.5098039E-01
   7150.33  4.4493668E-01
   7150.67  4.3900623E-01
   7151.00  4.3328210E-01
   7151.33  4.2788963E-01
   7151.67  4.2285575E-01
   7152.00  4.1821520E-01
   7152.33  4.1403941E-01
   7152.67  4.1027946E-01
   7153.00  4.0692732E-01
   7153.33  4.0401411E-01
   7153.67  4.0146838E-01
   7154.00  3.9926832E-01
   7154.33  3.9742728E-01
   7154.67  3.9587969E-01
   7155.00  3.9460490E-01
   7155.33  3.9361205E-01
   7155.67  3.9285146E-01
   7156.00  3.9231165E-01
   7156.33  3.9201033E-01
   7156.67  3.9191550E-01
   7157.00  3.9202450E-01
   7157.33  3.9236195E-01
   7157.67  3.9290234E-01
   7158.00  3.9364416E-01
   7158.33  3.9460760E-01
   7158.67  3.9576071E-01
   7159.00  3.9709497E-01
   7159.33  3.9861897E-01
   7159.67  4.0029625E-01
   7160.00  4.0211181E-01
   7160.33  4.0406229E-01
   7160.67  4.0611465E-01
   7161.00  4.0825447E-01
   7161.33  4.1047559E-01
   7161.67  4.1275499E-01
   7162.00  4.1508276E-01
   7162.33  4.1745069E-01
   7162.67  4.1984563E-01
   7163.00  4.2227178E-01
   7163.33  4.2474659E-01
   7163.67  4.2727973E-01
   7164.00  4.2988529E-01
   7164.33  4.3259099E-01
   7164.67  4.3540048E-01
   7165.00  4.3832357E-01
   7165.33  4.4138205E-01
   7165.67  4.4456163E-01
   7166.00  4.4785828E-01
   7166.33  4.5127615E-01
   7166.67  4.5478736E-01
   7167.00  4.5837578E-01
   7167.33  4.6202700E-01
   7167.67  4.6571088E-01
   7168.00  4.6940627E-01
   7168.33  4.7308612E-01
   7168.67  4.7672720E-01
   7169.00  4.8030915E-01
   7169.33  4.8380051E-01
   7169.67  4.8719294E-01
   7170.00  4.9047210E-01
   7170.33  4.9360396E-01
   7170.67  4.9658387E-01
   7171.00  4.9938796E-01
   7171.33  5.0194358E-01
   7171.67  5.0419299E-01
   7172.00  5.0602115E-01
