    FDMNES
    energy     <xanes>
   7097.00  4.6025462E-03
   7097.33  4.7047594E-03
   7097.67  4.8115214E-03
   7098.00  4.9231411E-03
   7098.33  5.0406732E-03
   7098.67  5.1639042E-03
   7099.00  5.2932558E-03
   7099.33  5.4301092E-03
   7099.67  5.5742473E-03
   7100.00  5.7262615E-03
   7100.33  5.8880091E-03
   7100.67  6.0592909E-03
   7101.00  6.2409627E-03
   7101.33  6.4356006E-03
   7101.67  6.6430720E-03
   7102.00  6.8646618E-03
   7102.33  7.1040785E-03
   7102.67  7.3613634E-03
   7103.00  7.6385331E-03
   7103.33  7.9411748E-03
   7103.67  8.2697467E-03
   7104.00  8.6275910E-03
   7104.33  9.0236147E-03
   7104.67  9.4592748E-03
   7105.00  9.9405038E-03
   7105.33  1.0482566E-02
   7105.67  1.1089423E-02
   7106.00  1.1772594E-02
   7106.33  1.2560879E-02
   7106.67  1.3465121E-02
   7107.00  1.4510615E-02
   7107.33  1.5759545E-02
   7107.67  1.7244755E-02
   7108.00  1.9032769E-02
   7108.33  2.1288350E-02
   7108.67  2.4134331E-02
   7109.00  2.7804567E-02
   7109.33  3.2913736E-02
   7109.67  4.0138248E-02
   7110.00  5.0804628E-02
   7110.33  6.8660418E-02
   7110.67  9.7003158E-02
   7111.00  1.3389374E-01
   7111.33  1.6572630E-01
   7111.67  1.9454407E-01
   7112.00  2.3479184E-01
   7112.33  3.0479803E-01
   7112.67  3.8821941E-01
   7113.00  4.3583726E-01
   7113.33  3.8926455E-01
   7113.67  3.0378571E-01
   7114.00  2.3225243E-01
   7114.33  1.9068479E-01
   7114.67  1.6558610E-01
   7115.00  1.5010411E-01
   7115.33  1.4528249E-01
   7115.67  1.4847593E-01
   7116.00  1.5015088E-01
   7116.33  1.4028965E-01
   7116.67  1.2749485E-01
   7117.00  1.1814062E-01
   7117.33  1.1403881E-01
   7117.67  1.1350796E-01
   7118.00  1.1521984E-01
   7118.33  1.1758159E-01
   7118.67  1.1988313E-01
   7119.00  1.2267882E-01
   7119.33  1.2692073E-01
   7119.67  1.3324795E-01
   7120.00  1.4201552E-01
   7120.33  1.5181555E-01
   7120.67  1.5965570E-01
   7121.00  1.6536405E-01
   7121.33  1.7108489E-01
   7121.67  1.7779147E-01
   7122.00  1.8516197E-01
   7122.33  1.9291453E-01
   7122.67  2.0108370E-01
   7123.00  2.0978399E-01
   7123.33  2.1932076E-01
   7123.67  2.2999634E-01
   7124.00  2.4212009E-01
   7124.33  2.5571634E-01
   7124.67  2.6948912E-01
   7125.00  2.8171312E-01
   7125.33  2.9023343E-01
   7125.67  2.9559391E-01
   7126.00  2.9940154E-01
   7126.33  3.0369397E-01
   7126.67  3.0955468E-01
   7127.00  3.1730828E-01
   7127.33  3.2689157E-01
   7127.67  3.3722161E-01
   7128.00  3.4720208E-01
   7128.33  3.5531824E-01
   7128.67  3.6097455E-01
   7129.00  3.6417551E-01
   7129.33  3.6539093E-01
   7129.67  3.6579839E-01
   7130.00  3.6615494E-01
   7130.33  3.6731097E-01
   7130.67  3.6982590E-01
   7131.00  3.7415495E-01
   7131.33  3.8101501E-01
   7131.67  3.9051986E-01
   7132.00  4.0301040E-01
   7132.33  4.1930158E-01
   7132.67  4.3929121E-01
   7133.00  4.6308198E-01
   7133.33  4.9076580E-01
   7133.67  5.2068457E-01
   7134.00  5.5082313E-01
   7134.33  5.7748510E-01
   7134.67  5.9770889E-01
   7135.00  6.0972932E-01
   7135.33  6.1257587E-01
   7135.67  6.0918148E-01
   7136.00  6.0179251E-01
   7136.33  5.9260414E-01
   7136.67  5.8354412E-01
   7137.00  5.7551927E-01
   7137.33  5.6928116E-01
   7137.67  5.6484110E-01
   7138.00  5.6221766E-01
   7138.33  5.6154667E-01
   7138.67  5.6246960E-01
   7139.00  5.6483748E-01
   7139.33  5.6861285E-01
   7139.67  5.7343270E-01
   7140.00  5.7911857E-01
   7140.33  5.8556065E-01
   7140.67  5.9251477E-01
   7141.00  5.9988220E-01
   7141.33  6.0764273E-01
   7141.67  6.1573931E-01
   7142.00  6.2419097E-01
   7142.33  6.3308925E-01
   7142.67  6.4242757E-01
   7143.00  6.5222407E-01
   7143.33  6.6250727E-01
   7143.67  6.7314868E-01
   7144.00  6.8405483E-01
   7144.33  6.9509852E-01
   7144.67  7.0608596E-01
   7145.00  7.1683921E-01
   7145.33  7.2707450E-01
   7145.67  7.3661553E-01
   7146.00  7.4526582E-01
   7146.33  7.5267554E-01
   7146.67  7.5879892E-01
   7147.00  7.6350721E-01
   7147.33  7.6649995E-01
   7147.67  7.6790568E-01
   7148.00  7.6771129E-01
   7148.33  7.6575351E-01
   7148.67  7.6231109E-01
   7149.00  7.5749230E-01
   7149.33  7.5130770E-01
   7149.67  7.4409844E-01
   7150.00  7.3603850E-01
   7150.33  7.2725623E-01
   7150.67  7.1803524E-01
   7151.00  7.0853207E-01
   7151.33  6.9888298E-01
   7151.67  6.8922453E-01
   7152.00  6.7963711E-01
   7152.33  6.7020960E-01
   7152.67  6.6097742E-01
   7153.00  6.5197696E-01
   7153.33  6.4327728E-01
   7153.67  6.3487690E-01
   7154.00  6.2680175E-01
   7154.33  6.1912383E-01
   7154.67  6.1182504E-01
   7155.00  6.0492687E-01
   7155.33  5.9850498E-01
   7155.67  5.9252581E-01
   7156.00  5.8700347E-01
   7156.33  5.8201028E-01
   7156.67  5.7749804E-01
   7157.00  5.7347312E-01
   7157.33  5.6999967E-01
   7157.67  5.6701427E-01
   7158.00  5.6451188E-01
   7158.33  5.6254173E-01
   7158.67  5.6102875E-01
   7159.00  5.5995379E-01
   7159.33  5.5933931E-01
   7159.67  5.5910080E-01
   7160.00  5.5920642E-01
   7160.33  5.5964474E-01
   7160.67  5.6031813E-01
   7161.00  5.6116679E-01
   7161.33  5.6212245E-01
   7161.67  5.6309073E-01
   7162.00  5.6399828E-01
   7162.33  5.6473540E-01
   7162.67  5.6522884E-01
   7163.00  5.6540243E-01
   7163.33  5.6512173E-01
   7163.67  5.6436365E-01
   7164.00  5.6307846E-01
   7164.33  5.6115815E-01
   7164.67  5.5866161E-01
   7165.00  5.5560081E-01
   7165.33  5.5194911E-01
   7165.67  5.4783531E-01
   7166.00  5.4332910E-01
   7166.33  5.3848679E-01
   7166.67  5.3344618E-01
   7167.00  5.2829340E-01
   7167.33  5.2312517E-01
   7167.67  5.1804491E-01
   7168.00  5.1313070E-01
   7168.33  5.0847922E-01
   7168.67  5.0411300E-01
   7169.00  5.0006741E-01
   7169.33  4.9641744E-01
   7169.67  4.9313994E-01
   7170.00  4.9024525E-01
   7170.33  4.8778506E-01
   7170.67  4.8570552E-01
   7171.00  4.8399426E-01
   7171.33  4.8266967E-01
   7171.67  4.8165064E-01
   7172.00  4.8088970E-01
