    FDMNES
    energy     <xanes>
   7097.00  5.1901423E-03
   7097.33  5.3139430E-03
   7097.67  5.4433533E-03
   7098.00  5.5787463E-03
   7098.33  5.7214087E-03
   7098.67  5.8710646E-03
   7099.00  6.0282176E-03
   7099.33  6.1945373E-03
   7099.67  6.3697342E-03
   7100.00  6.5545041E-03
   7100.33  6.7510647E-03
   7100.67  6.9591317E-03
   7101.00  7.1796937E-03
   7101.33  7.4157778E-03
   7101.67  7.6671483E-03
   7102.00  7.9352560E-03
   7102.33  8.2243694E-03
   7102.67  8.5343962E-03
   7103.00  8.8675507E-03
   7103.33  9.2300929E-03
   7103.67  9.6222869E-03
   7104.00  1.0047676E-02
   7104.33  1.0515899E-02
   7104.67  1.1028070E-02
   7105.00  1.1590208E-02
   7105.33  1.2218107E-02
   7105.67  1.2914952E-02
   7106.00  1.3691802E-02
   7106.33  1.4576756E-02
   7106.67  1.5578450E-02
   7107.00  1.6719507E-02
   7107.33  1.8056093E-02
   7107.67  1.9613220E-02
   7108.00  2.1445230E-02
   7108.33  2.3686582E-02
   7108.67  2.6424269E-02
   7109.00  2.9828916E-02
   7109.33  3.4342155E-02
   7109.67  4.0401816E-02
   7110.00  4.8866386E-02
   7110.33  6.2113815E-02
   7110.67  8.2101972E-02
   7111.00  1.0785588E-01
   7111.33  1.3535068E-01
   7111.67  1.6814668E-01
   7112.00  2.0243142E-01
   7112.33  2.4154756E-01
   7112.67  3.0761017E-01
   7113.00  4.1273240E-01
   7113.33  5.4503065E-01
   7113.67  6.4973901E-01
   7114.00  6.6857982E-01
   7114.33  5.8260907E-01
   7114.67  4.6965147E-01
   7115.00  3.7479723E-01
   7115.33  3.1280612E-01
   7115.67  2.7417584E-01
   7116.00  2.5313340E-01
   7116.33  2.4474780E-01
   7116.67  2.3920412E-01
   7117.00  2.2951609E-01
   7117.33  2.1453147E-01
   7117.67  1.9961726E-01
   7118.00  1.8713102E-01
   7118.33  1.7772715E-01
   7118.67  1.7053899E-01
   7119.00  1.6481545E-01
   7119.33  1.5952902E-01
   7119.67  1.5390096E-01
   7120.00  1.4790529E-01
   7120.33  1.4194581E-01
   7120.67  1.3653687E-01
   7121.00  1.3219121E-01
   7121.33  1.2955809E-01
   7121.67  1.2842285E-01
   7122.00  1.2855051E-01
   7122.33  1.2998571E-01
   7122.67  1.3258890E-01
   7123.00  1.3631376E-01
   7123.33  1.4129180E-01
   7123.67  1.4755370E-01
   7124.00  1.5541860E-01
   7124.33  1.6573965E-01
   7124.67  1.7905459E-01
   7125.00  1.9624005E-01
   7125.33  2.1908852E-01
   7125.67  2.4798482E-01
   7126.00  2.8307979E-01
   7126.33  3.2284104E-01
   7126.67  3.6110210E-01
   7127.00  3.9148011E-01
   7127.33  4.0902591E-01
   7127.67  4.1906600E-01
   7128.00  4.2763861E-01
   7128.33  4.4043897E-01
   7128.67  4.5920522E-01
   7129.00  4.8405991E-01
   7129.33  5.1462594E-01
   7129.67  5.4878439E-01
   7130.00  5.8520288E-01
   7130.33  6.2265075E-01
   7130.67  6.6020729E-01
   7131.00  6.9776671E-01
   7131.33  7.3589985E-01
   7131.67  7.7535235E-01
   7132.00  8.1655602E-01
   7132.33  8.5915518E-01
   7132.67  9.0085288E-01
   7133.00  9.3844608E-01
   7133.33  9.6605145E-01
   7133.67  9.8005565E-01
   7134.00  9.7772238E-01
   7134.33  9.5671310E-01
   7134.67  9.2208867E-01
   7135.00  8.7791013E-01
   7135.33  8.2830292E-01
   7135.67  7.7752139E-01
   7136.00  7.2765845E-01
   7136.33  6.8051891E-01
   7136.67  6.3668058E-01
   7137.00  5.9664537E-01
   7137.33  5.6139849E-01
   7137.67  5.3078376E-01
   7138.00  5.0505680E-01
   7138.33  4.8501390E-01
   7138.67  4.6997646E-01
   7139.00  4.5969706E-01
   7139.33  4.5419309E-01
   7139.67  4.5225469E-01
   7140.00  4.5324624E-01
   7140.33  4.5674377E-01
   7140.67  4.6188622E-01
   7141.00  4.6829726E-01
   7141.33  4.7579062E-01
   7141.67  4.8403990E-01
   7142.00  4.9290927E-01
   7142.33  5.0230777E-01
   7142.67  5.1200934E-01
   7143.00  5.2184726E-01
   7143.33  5.3159334E-01
   7143.67  5.4102733E-01
   7144.00  5.4995646E-01
   7144.33  5.5809420E-01
   7144.67  5.6537570E-01
   7145.00  5.7171723E-01
   7145.33  5.7695742E-01
   7145.67  5.8122712E-01
   7146.00  5.8456282E-01
   7146.33  5.8693763E-01
   7146.67  5.8857159E-01
   7147.00  5.8957928E-01
   7147.33  5.9004397E-01
   7147.67  5.9017086E-01
   7148.00  5.9007871E-01
   7148.33  5.8988181E-01
   7148.67  5.8969933E-01
   7149.00  5.8960567E-01
   7149.33  5.8968334E-01
   7149.67  5.8995108E-01
   7150.00  5.9042205E-01
   7150.33  5.9111666E-01
   7150.67  5.9198795E-01
   7151.00  5.9300700E-01
   7151.33  5.9414696E-01
   7151.67  5.9535146E-01
   7152.00  5.9658455E-01
   7152.33  5.9780796E-01
   7152.67  5.9899422E-01
   7153.00  6.0012456E-01
   7153.33  6.0117274E-01
   7153.67  6.0213647E-01
   7154.00  6.0300936E-01
   7154.33  6.0377403E-01
   7154.67  6.0443758E-01
   7155.00  6.0499458E-01
   7155.33  6.0542131E-01
   7155.67  6.0571928E-01
   7156.00  6.0587450E-01
   7156.33  6.0584755E-01
   7156.67  6.0563712E-01
   7157.00  6.0522354E-01
   7157.33  6.0455561E-01
   7157.67  6.0363997E-01
   7158.00  6.0246002E-01
   7158.33  6.0096417E-01
   7158.67  5.9917508E-01
   7159.00  5.9708630E-01
   7159.33  5.9465854E-01
   7159.67  5.9193476E-01
   7160.00  5.8892509E-01
   7160.33  5.8561379E-01
   7160.67  5.8205829E-01
   7161.00  5.7828317E-01
   7161.33  5.7429592E-01
   7161.67  5.7014995E-01
   7162.00  5.6587232E-01
   7162.33  5.6148314E-01
   7162.67  5.5701846E-01
   7163.00  5.5249492E-01
   7163.33  5.4792765E-01
   7163.67  5.4333802E-01
   7164.00  5.3873579E-01
   7164.33  5.3412572E-01
   7164.67  5.2950957E-01
   7165.00  5.2488522E-01
   7165.33  5.2024615E-01
   7165.67  5.1558875E-01
   7166.00  5.1090878E-01
   7166.33  5.0619780E-01
   7166.67  5.0145565E-01
   7167.00  4.9668084E-01
   7167.33  4.9186877E-01
   7167.67  4.8702555E-01
   7168.00  4.8215611E-01
   7168.33  4.7726809E-01
   7168.67  4.7237897E-01
   7169.00  4.6750437E-01
   7169.33  4.6266661E-01
   7169.67  4.5788269E-01
   7170.00  4.5317564E-01
   7170.33  4.4859382E-01
   7170.67  4.4416735E-01
   7171.00  4.3994745E-01
   7171.33  4.3606194E-01
   7171.67  4.3262702E-01
   7172.00  4.2983399E-01
