    FDMNES
    energy     <xanes>
   7097.00  4.5344731E-03
   7097.33  4.6311635E-03
   7097.67  4.7316943E-03
   7098.00  4.8362959E-03
   7098.33  4.9458078E-03
   7098.67  5.0600089E-03
   7099.00  5.1792051E-03
   7099.33  5.3044637E-03
   7099.67  5.4355495E-03
   7100.00  5.5728795E-03
   7100.33  5.7178436E-03
   7100.67  5.8702032E-03
   7101.00  6.0305445E-03
   7101.33  6.2007310E-03
   7101.67  6.3805469E-03
   7102.00  6.5708464E-03
   7102.33  6.7742203E-03
   7102.67  6.9905340E-03
   7103.00  7.2210906E-03
   7103.33  7.4696557E-03
   7103.67  7.7363135E-03
   7104.00  8.0231648E-03
   7104.33  8.3360044E-03
   7104.67  8.6754654E-03
   7105.00  9.0451841E-03
   7105.33  9.4547631E-03
   7105.67  9.9062450E-03
   7106.00  1.0406537E-02
   7106.33  1.0973215E-02
   7106.67  1.1612239E-02
   7107.00  1.2338502E-02
   7107.33  1.3188997E-02
   7107.67  1.4182234E-02
   7108.00  1.5356800E-02
   7108.33  1.6808598E-02
   7108.67  1.8607056E-02
   7109.00  2.0885344E-02
   7109.33  2.3992014E-02
   7109.67  2.8300821E-02
   7110.00  3.4542770E-02
   7110.33  4.4804495E-02
   7110.67  6.1331336E-02
   7111.00  8.5122366E-02
   7111.33  1.1216263E-01
   7111.67  1.3863349E-01
   7112.00  1.5765438E-01
   7112.33  1.5634645E-01
   7112.67  1.5498953E-01
   7113.00  1.6653411E-01
   7113.33  1.8408150E-01
   7113.67  2.0460185E-01
   7114.00  2.3028816E-01
   7114.33  2.2146470E-01
   7114.67  1.7589095E-01
   7115.00  1.3264132E-01
   7115.33  1.0782415E-01
   7115.67  9.4605170E-02
   7116.00  8.8956266E-02
   7116.33  8.8853589E-02
   7116.67  9.2317882E-02
   7117.00  9.8601847E-02
   7117.33  1.0729837E-01
   7117.67  1.1777876E-01
   7118.00  1.3021783E-01
   7118.33  1.4573881E-01
   7118.67  1.6482227E-01
   7119.00  1.8725803E-01
   7119.33  2.1039836E-01
   7119.67  2.2961564E-01
   7120.00  2.4278894E-01
   7120.33  2.5135281E-01
   7120.67  2.5957302E-01
   7121.00  2.6942790E-01
   7121.33  2.8229107E-01
   7121.67  2.9842193E-01
   7122.00  3.1810854E-01
   7122.33  3.4225511E-01
   7122.67  3.7100127E-01
   7123.00  4.0447710E-01
   7123.33  4.4219329E-01
   7123.67  4.8145837E-01
   7124.00  5.1976135E-01
   7124.33  5.5424545E-01
   7124.67  5.8428141E-01
   7125.00  6.0948435E-01
   7125.33  6.2818918E-01
   7125.67  6.3958838E-01
   7126.00  6.4252258E-01
   7126.33  6.3580495E-01
   7126.67  6.2235911E-01
   7127.00  6.0508803E-01
   7127.33  5.8746702E-01
   7127.67  5.7167259E-01
   7128.00  5.5838160E-01
   7128.33  5.4830726E-01
   7128.67  5.4139968E-01
   7129.00  5.3779016E-01
   7129.33  5.3780478E-01
   7129.67  5.4083201E-01
   7130.00  5.4664301E-01
   7130.33  5.5519399E-01
   7130.67  5.6565520E-01
   7131.00  5.7735169E-01
   7131.33  5.8938612E-01
   7131.67  6.0084000E-01
   7132.00  6.1109605E-01
   7132.33  6.1937319E-01
   7132.67  6.2553261E-01
   7133.00  6.2961484E-01
   7133.33  6.3228336E-01
   7133.67  6.3528256E-01
   7134.00  6.3991876E-01
   7134.33  6.4705990E-01
   7134.67  6.5594173E-01
   7135.00  6.6563698E-01
   7135.33  6.7480933E-01
   7135.67  6.8228452E-01
   7136.00  6.8720012E-01
   7136.33  6.8853237E-01
   7136.67  6.8655715E-01
   7137.00  6.8157320E-01
   7137.33  6.7400577E-01
   7137.67  6.6505692E-01
   7138.00  6.5550992E-01
   7138.33  6.4613750E-01
   7138.67  6.3741513E-01
   7139.00  6.2955156E-01
   7139.33  6.2270032E-01
   7139.67  6.1665473E-01
   7140.00  6.1129058E-01
   7140.33  6.0654094E-01
   7140.67  6.0227452E-01
   7141.00  5.9850614E-01
   7141.33  5.9531327E-01
   7141.67  5.9264689E-01
   7142.00  5.9053757E-01
   7142.33  5.8909848E-01
   7142.67  5.8827450E-01
   7143.00  5.8805311E-01
   7143.33  5.8844430E-01
   7143.67  5.8927313E-01
   7144.00  5.9041285E-01
   7144.33  5.9170197E-01
   7144.67  5.9292690E-01
   7145.00  5.9391504E-01
   7145.33  5.9442335E-01
   7145.67  5.9434357E-01
   7146.00  5.9356912E-01
   7146.33  5.9192371E-01
   7146.67  5.8947601E-01
   7147.00  5.8624160E-01
   7147.33  5.8218670E-01
   7147.67  5.7749085E-01
   7148.00  5.7224441E-01
   7148.33  5.6650269E-01
   7148.67  5.6042598E-01
   7149.00  5.5409369E-01
   7149.33  5.4755809E-01
   7149.67  5.4089659E-01
   7150.00  5.3414068E-01
   7150.33  5.2730114E-01
   7150.67  5.2039350E-01
   7151.00  5.1341522E-01
   7151.33  5.0634607E-01
   7151.67  4.9918167E-01
   7152.00  4.9190831E-01
   7152.33  4.8449402E-01
   7152.67  4.7694181E-01
   7153.00  4.6924567E-01
   7153.33  4.6137985E-01
   7153.67  4.5335921E-01
   7154.00  4.4518570E-01
   7154.33  4.3684964E-01
   7154.67  4.2838498E-01
   7155.00  4.1980875E-01
   7155.33  4.1113534E-01
   7155.67  4.0240734E-01
   7156.00  3.9365651E-01
   7156.33  3.8492603E-01
   7156.67  3.7625727E-01
   7157.00  3.6768755E-01
   7157.33  3.5927717E-01
   7157.67  3.5105335E-01
   7158.00  3.4305941E-01
   7158.33  3.3538947E-01
   7158.67  3.2807483E-01
   7159.00  3.2118013E-01
   7159.33  3.1484771E-01
   7159.67  3.0909590E-01
   7160.00  3.0399057E-01
   7160.33  2.9968908E-01
   7160.67  2.9615602E-01
   7161.00  2.9342214E-01
   7161.33  2.9160857E-01
   7161.67  2.9061501E-01
   7162.00  2.9042938E-01
   7162.33  2.9112079E-01
   7162.67  2.9255032E-01
   7163.00  2.9466745E-01
   7163.33  2.9746404E-01
   7163.67  3.0076513E-01
   7164.00  3.0448698E-01
   7164.33  3.0858198E-01
   7164.67  3.1292255E-01
   7165.00  3.1743604E-01
   7165.33  3.2205541E-01
   7165.67  3.2670056E-01
   7166.00  3.3132353E-01
   7166.33  3.3587459E-01
   7166.67  3.4033470E-01
   7167.00  3.4469147E-01
   7167.33  3.4892861E-01
   7167.67  3.5306621E-01
   7168.00  3.5711473E-01
   7168.33  3.6107898E-01
   7168.67  3.6498456E-01
   7169.00  3.6884563E-01
   7169.33  3.7267239E-01
   7169.67  3.7647781E-01
   7170.00  3.8026413E-01
   7170.33  3.8402202E-01
   7170.67  3.8773411E-01
   7171.00  3.9136351E-01
   7171.33  3.9480486E-01
   7171.67  3.9791496E-01
   7172.00  4.0047543E-01
