    FDMNES
    energy     <xanes>
   7097.00  4.9141404E-03
   7097.33  5.0261473E-03
   7097.67  5.1429491E-03
   7098.00  5.2648522E-03
   7098.33  5.3929363E-03
   7098.67  5.5269505E-03
   7099.00  5.6673074E-03
   7099.33  5.8153999E-03
   7099.67  5.9709656E-03
   7100.00  6.1345748E-03
   7100.33  6.3080706E-03
   7100.67  6.4911974E-03
   7101.00  6.6847690E-03
   7101.33  6.8912998E-03
   7101.67  7.1105830E-03
   7102.00  7.3438243E-03
   7102.33  7.5945854E-03
   7102.67  7.8628024E-03
   7103.00  8.1503464E-03
   7103.33  8.4625017E-03
   7103.67  8.7995656E-03
   7104.00  9.1646115E-03
   7104.33  9.5659525E-03
   7104.67  1.0004775E-02
   7105.00  1.0486504E-02
   7105.33  1.1025244E-02
   7105.67  1.1624450E-02
   7106.00  1.2294637E-02
   7106.33  1.3062266E-02
   7106.67  1.3937089E-02
   7107.00  1.4942230E-02
   7107.33  1.6134715E-02
   7107.67  1.7544460E-02
   7108.00  1.9232288E-02
   7108.33  2.1348720E-02
   7108.67  2.4004686E-02
   7109.00  2.7410500E-02
   7109.33  3.2113344E-02
   7109.67  3.8694464E-02
   7110.00  4.8281182E-02
   7110.33  6.4091948E-02
   7110.67  8.9902811E-02
   7111.00  1.2913944E-01
   7111.33  1.8063223E-01
   7111.67  2.3456664E-01
   7112.00  2.7288510E-01
   7112.33  2.7823575E-01
   7112.67  2.6763803E-01
   7113.00  2.4872858E-01
   7113.33  2.1546692E-01
   7113.67  1.7486625E-01
   7114.00  1.3959296E-01
   7114.33  1.1703518E-01
   7114.67  1.0431702E-01
   7115.00  9.9128770E-02
   7115.33  1.0041222E-01
   7115.67  1.0684043E-01
   7116.00  1.1862744E-01
   7116.33  1.3695425E-01
   7116.67  1.6017756E-01
   7117.00  1.8568531E-01
   7117.33  2.1206250E-01
   7117.67  2.4168758E-01
   7118.00  2.7746444E-01
   7118.33  3.1942295E-01
   7118.67  3.5805816E-01
   7119.00  3.8112741E-01
   7119.33  3.7909529E-01
   7119.67  3.6342177E-01
   7120.00  3.4571148E-01
   7120.33  3.3748073E-01
   7120.67  3.4274885E-01
   7121.00  3.6163630E-01
   7121.33  3.9198182E-01
   7121.67  4.2604977E-01
   7122.00  4.5759663E-01
   7122.33  4.8073353E-01
   7122.67  4.9522423E-01
   7123.00  5.0235389E-01
   7123.33  5.0420735E-01
   7123.67  5.0420276E-01
   7124.00  5.0414323E-01
   7124.33  5.0507721E-01
   7124.67  5.0697117E-01
   7125.00  5.0958335E-01
   7125.33  5.1331191E-01
   7125.67  5.1990461E-01
   7126.00  5.3111301E-01
   7126.33  5.4682778E-01
   7126.67  5.6252308E-01
   7127.00  5.7322655E-01
   7127.33  5.7245768E-01
   7127.67  5.6090566E-01
   7128.00  5.4356372E-01
   7128.33  5.2844257E-01
   7128.67  5.1884094E-01
   7129.00  5.1404671E-01
   7129.33  5.1274220E-01
   7129.67  5.1335778E-01
   7130.00  5.1495860E-01
   7130.33  5.1658151E-01
   7130.67  5.1780706E-01
   7131.00  5.1865373E-01
   7131.33  5.1911750E-01
   7131.67  5.1903206E-01
   7132.00  5.1808612E-01
   7132.33  5.1605098E-01
   7132.67  5.1360011E-01
   7133.00  5.1171083E-01
   7133.33  5.1183108E-01
   7133.67  5.1431910E-01
   7134.00  5.1880012E-01
   7134.33  5.2420964E-01
   7134.67  5.2910967E-01
   7135.00  5.3257017E-01
   7135.33  5.3374935E-01
   7135.67  5.3277810E-01
   7136.00  5.2971244E-01
   7136.33  5.2445161E-01
   7136.67  5.1753671E-01
   7137.00  5.0938892E-01
   7137.33  5.0056310E-01
   7137.67  4.9180115E-01
   7138.00  4.8361569E-01
   7138.33  4.7658010E-01
   7138.67  4.7082105E-01
   7139.00  4.6644293E-01
   7139.33  4.6370049E-01
   7139.67  4.6247727E-01
   7140.00  4.6282203E-01
   7140.33  4.6496544E-01
   7140.67  4.6868755E-01
   7141.00  4.7391967E-01
   7141.33  4.8068916E-01
   7141.67  4.8861387E-01
   7142.00  4.9746052E-01
   7142.33  5.0697366E-01
   7142.67  5.1668997E-01
   7143.00  5.2623804E-01
   7143.33  5.3510849E-01
   7143.67  5.4302694E-01
   7144.00  5.4983476E-01
   7144.33  5.5540633E-01
   7144.67  5.6006174E-01
   7145.00  5.6402359E-01
   7145.33  5.6747328E-01
   7145.67  5.7060660E-01
   7146.00  5.7343630E-01
   7146.33  5.7581592E-01
   7146.67  5.7762397E-01
   7147.00  5.7869990E-01
   7147.33  5.7878855E-01
   7147.67  5.7794812E-01
   7148.00  5.7622283E-01
   7148.33  5.7365495E-01
   7148.67  5.7053490E-01
   7149.00  5.6705056E-01
   7149.33  5.6338973E-01
   7149.67  5.5975004E-01
   7150.00  5.5624805E-01
   7150.33  5.5300721E-01
   7150.67  5.5005665E-01
   7151.00  5.4742149E-01
   7151.33  5.4514403E-01
   7151.67  5.4316039E-01
   7152.00  5.4143168E-01
   7152.33  5.3992349E-01
   7152.67  5.3855259E-01
   7153.00  5.3728317E-01
   7153.33  5.3611712E-01
   7153.67  5.3507708E-01
   7154.00  5.3422640E-01
   7154.33  5.3370419E-01
   7154.67  5.3358648E-01
   7155.00  5.3396000E-01
   7155.33  5.3496781E-01
   7155.67  5.3656742E-01
   7156.00  5.3874125E-01
   7156.33  5.4148376E-01
   7156.67  5.4461514E-01
   7157.00  5.4800279E-01
   7157.33  5.5147428E-01
   7157.67  5.5482206E-01
   7158.00  5.5787312E-01
   7158.33  5.6037386E-01
   7158.67  5.6221467E-01
   7159.00  5.6327249E-01
   7159.33  5.6332123E-01
   7159.67  5.6238978E-01
   7160.00  5.6043190E-01
   7160.33  5.5729877E-01
   7160.67  5.5314194E-01
   7161.00  5.4800458E-01
   7161.33  5.4185988E-01
   7161.67  5.3495151E-01
   7162.00  5.2743580E-01
   7162.33  5.1948671E-01
   7162.67  5.1139309E-01
   7163.00  5.0336198E-01
   7163.33  4.9564917E-01
   7163.67  4.8839495E-01
   7164.00  4.8170154E-01
   7164.33  4.7570357E-01
   7164.67  4.7032128E-01
   7165.00  4.6551647E-01
   7165.33  4.6128233E-01
   7165.67  4.5747397E-01
   7166.00  4.5402269E-01
   7166.33  4.5089226E-01
   7166.67  4.4798769E-01
   7167.00  4.4526843E-01
   7167.33  4.4271545E-01
   7167.67  4.4028053E-01
   7168.00  4.3794228E-01
   7168.33  4.3568746E-01
   7168.67  4.3348599E-01
   7169.00  4.3132118E-01
   7169.33  4.2917822E-01
   7169.67  4.2704236E-01
   7170.00  4.2490895E-01
   7170.33  4.2278145E-01
   7170.67  4.2067303E-01
   7171.00  4.1860793E-01
   7171.33  4.1664929E-01
   7171.67  4.1487790E-01
   7172.00  4.1341170E-01
