    FDMNES
    energy     <xanes>
   7097.00  4.9791974E-03
   7097.33  5.0928040E-03
   7097.67  5.2113322E-03
   7098.00  5.3351024E-03
   7098.33  5.4652328E-03
   7098.67  5.6014742E-03
   7099.00  5.7442604E-03
   7099.33  5.8950414E-03
   7099.67  6.0535596E-03
   7100.00  6.2204184E-03
   7100.33  6.3975486E-03
   7100.67  6.5847051E-03
   7101.00  6.7827553E-03
   7101.33  6.9943524E-03
   7101.67  7.2193123E-03
   7102.00  7.4589305E-03
   7102.33  7.7169971E-03
   7102.67  7.9934975E-03
   7103.00  8.2904606E-03
   7103.33  8.6135655E-03
   7103.67  8.9632189E-03
   7104.00  9.3427904E-03
   7104.33  9.7613204E-03
   7104.67  1.0220253E-02
   7105.00  1.0725617E-02
   7105.33  1.1292983E-02
   7105.67  1.1926469E-02
   7106.00  1.2637976E-02
   7106.33  1.3457315E-02
   7106.67  1.4396201E-02
   7107.00  1.5481527E-02
   7107.33  1.6779567E-02
   7107.67  1.8327371E-02
   7108.00  2.0198971E-02
   7108.33  2.2578867E-02
   7108.67  2.5613585E-02
   7109.00  2.9581049E-02
   7109.33  3.5221726E-02
   7109.67  4.3397791E-02
   7110.00  5.5811156E-02
   7110.33  7.7343754E-02
   7110.67  1.1249985E-01
   7111.00  1.5874843E-01
   7111.33  1.9360101E-01
   7111.67  2.0994187E-01
   7112.00  2.2071232E-01
   7112.33  2.4306358E-01
   7112.67  2.6144742E-01
   7113.00  2.5764046E-01
   7113.33  2.6002063E-01
   7113.67  2.7966374E-01
   7114.00  2.8420667E-01
   7114.33  2.4232926E-01
   7114.67  1.9132785E-01
   7115.00  1.5298912E-01
   7115.33  1.3068497E-01
   7115.67  1.1816623E-01
   7116.00  1.1257887E-01
   7116.33  1.1266965E-01
   7116.67  1.1685178E-01
   7117.00  1.2469632E-01
   7117.33  1.3624275E-01
   7117.67  1.5058027E-01
   7118.00  1.6701473E-01
   7118.33  1.8453829E-01
   7118.67  2.0214334E-01
   7119.00  2.1993501E-01
   7119.33  2.3850604E-01
   7119.67  2.5676224E-01
   7120.00  2.7283056E-01
   7120.33  2.8563644E-01
   7120.67  2.9703360E-01
   7121.00  3.0853829E-01
   7121.33  3.2098986E-01
   7121.67  3.3387504E-01
   7122.00  3.4646011E-01
   7122.33  3.5895572E-01
   7122.67  3.7322967E-01
   7123.00  3.9110123E-01
   7123.33  4.1483456E-01
   7123.67  4.4459257E-01
   7124.00  4.7994180E-01
   7124.33  5.1901155E-01
   7124.67  5.5775536E-01
   7125.00  5.9309999E-01
   7125.33  6.2163752E-01
   7125.67  6.4227611E-01
   7126.00  6.5405719E-01
   7126.33  6.5647191E-01
   7126.67  6.5299145E-01
   7127.00  6.4598279E-01
   7127.33  6.3702934E-01
   7127.67  6.2725242E-01
   7128.00  6.1721343E-01
   7128.33  6.0759535E-01
   7128.67  5.9884936E-01
   7129.00  5.9119445E-01
   7129.33  5.8481282E-01
   7129.67  5.7948239E-01
   7130.00  5.7513551E-01
   7130.33  5.7191491E-01
   7130.67  5.6972533E-01
   7131.00  5.6852745E-01
   7131.33  5.6832123E-01
   7131.67  5.6885440E-01
   7132.00  5.6997578E-01
   7132.33  5.7146313E-01
   7132.67  5.7287923E-01
   7133.00  5.7383353E-01
   7133.33  5.7398002E-01
   7133.67  5.7363165E-01
   7134.00  5.7326361E-01
   7134.33  5.7335372E-01
   7134.67  5.7389408E-01
   7135.00  5.7468867E-01
   7135.33  5.7548141E-01
   7135.67  5.7611465E-01
   7136.00  5.7652600E-01
   7136.33  5.7667377E-01
   7136.67  5.7661676E-01
   7137.00  5.7639787E-01
   7137.33  5.7606144E-01
   7137.67  5.7567809E-01
   7138.00  5.7529390E-01
   7138.33  5.7496287E-01
   7138.67  5.7472011E-01
   7139.00  5.7459358E-01
   7139.33  5.7461629E-01
   7139.67  5.7476376E-01
   7140.00  5.7502064E-01
   7140.33  5.7538385E-01
   7140.67  5.7583077E-01
   7141.00  5.7635392E-01
   7141.33  5.7695321E-01
   7141.67  5.7760971E-01
   7142.00  5.7831189E-01
   7142.33  5.7905054E-01
   7142.67  5.7980533E-01
   7143.00  5.8055064E-01
   7143.33  5.8123889E-01
   7143.67  5.8182794E-01
   7144.00  5.8227332E-01
   7144.33  5.8249949E-01
   7144.67  5.8248496E-01
   7145.00  5.8219768E-01
   7145.33  5.8157318E-01
   7145.67  5.8063261E-01
   7146.00  5.7937003E-01
   7146.33  5.7774663E-01
   7146.67  5.7581015E-01
   7147.00  5.7356954E-01
   7147.33  5.7099816E-01
   7147.67  5.6814142E-01
   7148.00  5.6500491E-01
   7148.33  5.6155780E-01
   7148.67  5.5783581E-01
   7149.00  5.5383920E-01
   7149.33  5.4953398E-01
   7149.67  5.4495643E-01
   7150.00  5.4011069E-01
   7150.33  5.3497187E-01
   7150.67  5.2958269E-01
   7151.00  5.2395423E-01
   7151.33  5.1807753E-01
   7151.67  5.1200334E-01
   7152.00  5.0575297E-01
   7152.33  4.9933361E-01
   7152.67  4.9279418E-01
   7153.00  4.8616453E-01
   7153.33  4.7946971E-01
   7153.67  4.7274733E-01
   7154.00  4.6602414E-01
   7154.33  4.5933518E-01
   7154.67  4.5271077E-01
   7155.00  4.4618361E-01
   7155.33  4.3980372E-01
   7155.67  4.3358567E-01
   7156.00  4.2755696E-01
   7156.33  4.2177772E-01
   7156.67  4.1625207E-01
   7157.00  4.1100635E-01
   7157.33  4.0610729E-01
   7157.67  4.0154178E-01
   7158.00  3.9733008E-01
   7158.33  3.9353970E-01
   7158.67  3.9014116E-01
   7159.00  3.8714723E-01
   7159.33  3.8462137E-01
   7159.67  3.8251834E-01
   7160.00  3.8084080E-01
   7160.33  3.7964136E-01
   7160.67  3.7886199E-01
   7161.00  3.7849484E-01
   7161.33  3.7857698E-01
   7161.67  3.7904054E-01
   7162.00  3.7986485E-01
   7162.33  3.8106391E-01
   7162.67  3.8256569E-01
   7163.00  3.8434243E-01
   7163.33  3.8639125E-01
   7163.67  3.8864335E-01
   7164.00  3.9105401E-01
   7164.33  3.9358674E-01
   7164.67  3.9619341E-01
   7165.00  3.9884967E-01
   7165.33  4.0153367E-01
   7165.67  4.0422161E-01
   7166.00  4.0689936E-01
   7166.33  4.0955249E-01
   7166.67  4.1217645E-01
   7167.00  4.1476730E-01
   7167.33  4.1731698E-01
   7167.67  4.1982681E-01
   7168.00  4.2229377E-01
   7168.33  4.2470808E-01
   7168.67  4.2707045E-01
   7169.00  4.2937514E-01
   7169.33  4.3160561E-01
   7169.67  4.3376012E-01
   7170.00  4.3582854E-01
   7170.33  4.3778453E-01
   7170.67  4.3962414E-01
   7171.00  4.4132988E-01
   7171.33  4.4285283E-01
   7171.67  4.4416717E-01
   7172.00  4.4521750E-01
