    FDMNES
    energy     <xanes>
   7097.00  3.4174947E-03
   7097.33  3.4732751E-03
   7097.67  3.5309084E-03
   7098.00  3.5904992E-03
   7098.33  3.6524423E-03
   7098.67  3.7166241E-03
   7099.00  3.7831841E-03
   7099.33  3.8526224E-03
   7099.67  3.9248203E-03
   7100.00  3.9999701E-03
   7100.33  4.0787228E-03
   7100.67  4.1609619E-03
   7101.00  4.2469615E-03
   7101.33  4.3375994E-03
   7101.67  4.4327767E-03
   7102.00  4.5329015E-03
   7102.33  4.6392091E-03
   7102.67  4.7516538E-03
   7103.00  4.8708757E-03
   7103.33  4.9987080E-03
   7103.67  5.1352425E-03
   7104.00  5.2815489E-03
   7104.33  5.4405371E-03
   7104.67  5.6126450E-03
   7105.00  5.7998102E-03
   7105.33  6.0070709E-03
   7105.67  6.2357745E-03
   7106.00  6.4898185E-03
   7106.33  6.7789895E-03
   7106.67  7.1072728E-03
   7107.00  7.4837005E-03
   7107.33  7.9305549E-03
   7107.67  8.4608065E-03
   7108.00  9.1000744E-03
   7108.33  9.9123321E-03
   7108.67  1.0950029E-02
   7109.00  1.2312052E-02
   7109.33  1.4262280E-02
   7109.67  1.7112089E-02
   7110.00  2.1475634E-02
   7110.33  2.9148570E-02
   7110.67  4.2165163E-02
   7111.00  6.1173157E-02
   7111.33  7.7868206E-02
   7111.67  8.0292712E-02
   7112.00  7.1730090E-02
   7112.33  6.4887323E-02
   7112.67  5.9186609E-02
   7113.00  5.2937053E-02
   7113.33  4.7136495E-02
   7113.67  4.3489042E-02
   7114.00  4.5039256E-02
   7114.33  5.2517467E-02
   7114.67  6.0210919E-02
   7115.00  6.7657006E-02
   7115.33  8.2886283E-02
   7115.67  9.3433789E-02
   7116.00  8.3216161E-02
   7116.33  6.4961481E-02
   7116.67  5.4269109E-02
   7117.00  5.1127698E-02
   7117.33  5.3954454E-02
   7117.67  6.0812862E-02
   7118.00  6.7233861E-02
   7118.33  6.4143230E-02
   7118.67  5.4851688E-02
   7119.00  4.5513543E-02
   7119.33  3.9354505E-02
   7119.67  3.6016951E-02
   7120.00  3.4907911E-02
   7120.33  3.5654207E-02
   7120.67  3.7470510E-02
   7121.00  3.9490906E-02
   7121.33  4.1277039E-02
   7121.67  4.4082329E-02
   7122.00  4.8829392E-02
   7122.33  5.5785707E-02
   7122.67  6.3786245E-02
   7123.00  7.2025980E-02
   7123.33  8.0578088E-02
   7123.67  8.9854665E-02
   7124.00  1.0017785E-01
   7124.33  1.1093829E-01
   7124.67  1.1911272E-01
   7125.00  1.2333073E-01
   7125.33  1.2637004E-01
   7125.67  1.3155712E-01
   7126.00  1.3991610E-01
   7126.33  1.5189615E-01
   7126.67  1.6646739E-01
   7127.00  1.8294013E-01
   7127.33  2.0098038E-01
   7127.67  2.1995802E-01
   7128.00  2.3907034E-01
   7128.33  2.5658723E-01
   7128.67  2.7124898E-01
   7129.00  2.8281727E-01
   7129.33  2.9191642E-01
   7129.67  2.9983186E-01
   7130.00  3.0694074E-01
   7130.33  3.1343104E-01
   7130.67  3.2001164E-01
   7131.00  3.2760324E-01
   7131.33  3.3752064E-01
   7131.67  3.4998938E-01
   7132.00  3.6484842E-01
   7132.33  3.8168638E-01
   7132.67  3.9949399E-01
   7133.00  4.1769294E-01
   7133.33  4.3577682E-01
   7133.67  4.5317983E-01
   7134.00  4.6928923E-01
   7134.33  4.8379005E-01
   7134.67  4.9807861E-01
   7135.00  5.1404785E-01
   7135.33  5.3425702E-01
   7135.67  5.5930333E-01
   7136.00  5.8909371E-01
   7136.33  6.2306887E-01
   7136.67  6.5909561E-01
   7137.00  6.9541078E-01
   7137.33  7.2967496E-01
   7137.67  7.6038607E-01
   7138.00  7.8661075E-01
   7138.33  8.0737842E-01
   7138.67  8.2360571E-01
   7139.00  8.3569903E-01
   7139.33  8.4326089E-01
   7139.67  8.4663983E-01
   7140.00  8.4584286E-01
   7140.33  8.4052631E-01
   7140.67  8.3149351E-01
   7141.00  8.1923948E-01
   7141.33  8.0424415E-01
   7141.67  7.8767175E-01
   7142.00  7.7024871E-01
   7142.33  7.5278773E-01
   7142.67  7.3606293E-01
   7143.00  7.2066361E-01
   7143.33  7.0739089E-01
   7143.67  6.9641919E-01
   7144.00  6.8796648E-01
   7144.33  6.8243925E-01
   7144.67  6.7938854E-01
   7145.00  6.7853360E-01
   7145.33  6.7958817E-01
   7145.67  6.8173844E-01
   7146.00  6.8445576E-01
   7146.33  6.8719116E-01
   7146.67  6.8951135E-01
   7147.00  6.9114874E-01
   7147.33  6.9177699E-01
   7147.67  6.9137197E-01
   7148.00  6.8986813E-01
   7148.33  6.8709984E-01
   7148.67  6.8321605E-01
   7149.00  6.7826098E-01
   7149.33  6.7223596E-01
   7149.67  6.6543299E-01
   7150.00  6.5801048E-01
   7150.33  6.5007331E-01
   7150.67  6.4179831E-01
   7151.00  6.3325262E-01
   7151.33  6.2445442E-01
   7151.67  6.1546100E-01
   7152.00  6.0629858E-01
   7152.33  5.9699744E-01
   7152.67  5.8764495E-01
   7153.00  5.7832692E-01
   7153.33  5.6918671E-01
   7153.67  5.6034331E-01
   7154.00  5.5191650E-01
   7154.33  5.4409873E-01
   7154.67  5.3691866E-01
   7155.00  5.3043026E-01
   7155.33  5.2475143E-01
   7155.67  5.1978807E-01
   7156.00  5.1551807E-01
   7156.33  5.1198208E-01
   7156.67  5.0904518E-01
   7157.00  5.0665352E-01
   7157.33  5.0479441E-01
   7157.67  5.0332761E-01
   7158.00  5.0217725E-01
   7158.33  5.0127837E-01
   7158.67  5.0051156E-01
   7159.00  4.9980624E-01
   7159.33  4.9909647E-01
   7159.67  4.9834136E-01
   7160.00  4.9752673E-01
   7160.33  4.9665524E-01
   7160.67  4.9577073E-01
   7161.00  4.9492534E-01
   7161.33  4.9421019E-01
   7161.67  4.9369647E-01
   7162.00  4.9345843E-01
   7162.33  4.9361995E-01
   7162.67  4.9420061E-01
   7163.00  4.9523749E-01
   7163.33  4.9680792E-01
   7163.67  4.9884175E-01
   7164.00  5.0130717E-01
   7164.33  5.0419044E-01
   7164.67  5.0736468E-01
   7165.00  5.1074940E-01
   7165.33  5.1425782E-01
   7165.67  5.1777467E-01
   7166.00  5.2121598E-01
   7166.33  5.2447019E-01
   7166.67  5.2747719E-01
   7167.00  5.3017672E-01
   7167.33  5.3246525E-01
   7167.67  5.3434558E-01
   7168.00  5.3579441E-01
   7168.33  5.3674692E-01
   7168.67  5.3726783E-01
   7169.00  5.3737977E-01
   7169.33  5.3707698E-01
   7169.67  5.3645661E-01
   7170.00  5.3556721E-01
   7170.33  5.3444074E-01
   7170.67  5.3316317E-01
   7171.00  5.3178921E-01
   7171.33  5.3039338E-01
   7171.67  5.2908853E-01
   7172.00  5.2800561E-01
