    FDMNES
    energy     <xanes>
   7097.00  4.6550898E-03
   7097.33  4.7545481E-03
   7097.67  4.8581006E-03
   7098.00  4.9660087E-03
   7098.33  5.0791950E-03
   7098.67  5.1974472E-03
   7099.00  5.3211210E-03
   7099.33  5.4514128E-03
   7099.67  5.5881062E-03
   7100.00  5.7316993E-03
   7100.33  5.8837897E-03
   7100.67  6.0441776E-03
   7101.00  6.2135861E-03
   7101.33  6.3942247E-03
   7101.67  6.5859574E-03
   7102.00  6.7898805E-03
   7102.33  7.0091840E-03
   7102.67  7.2439031E-03
   7103.00  7.4957886E-03
   7103.33  7.7696999E-03
   7103.67  8.0660947E-03
   7104.00  8.3879546E-03
   7104.33  8.7431990E-03
   7104.67  9.1333335E-03
   7105.00  9.5638643E-03
   7105.33  1.0048867E-02
   7105.67  1.0592597E-02
   7106.00  1.1206348E-02
   7106.33  1.1918176E-02
   7106.67  1.2740347E-02
   7107.00  1.3699551E-02
   7107.33  1.4861289E-02
   7107.67  1.6265336E-02
   7108.00  1.7988902E-02
   7108.33  2.0224691E-02
   7108.67  2.3134870E-02
   7109.00  2.7023869E-02
   7109.33  3.2707105E-02
   7109.67  4.1164389E-02
   7110.00  5.4329674E-02
   7110.33  7.7815756E-02
   7110.67  1.1733874E-01
   7111.00  1.7204062E-01
   7111.33  2.1594804E-01
   7111.67  2.2323621E-01
   7112.00  2.0250387E-01
   7112.33  1.9059409E-01
   7112.67  1.8105264E-01
   7113.00  1.5910935E-01
   7113.33  1.3259223E-01
   7113.67  1.1097705E-01
   7114.00  9.4516289E-02
   7114.33  8.4923173E-02
   7114.67  8.0575335E-02
   7115.00  7.5082456E-02
   7115.33  6.6013368E-02
   7115.67  5.8335806E-02
   7116.00  5.3670451E-02
   7116.33  5.1981186E-02
   7116.67  5.2204173E-02
   7117.00  5.3748357E-02
   7117.33  5.6054453E-02
   7117.67  5.8697455E-02
   7118.00  6.1774553E-02
   7118.33  6.5762170E-02
   7118.67  7.1005508E-02
   7119.00  7.7978931E-02
   7119.33  8.7966460E-02
   7119.67  1.0215602E-01
   7120.00  1.2220630E-01
   7120.33  1.5068097E-01
   7120.67  1.8546227E-01
   7121.00  2.2101437E-01
   7121.33  2.4893279E-01
   7121.67  2.7050938E-01
   7122.00  2.9146754E-01
   7122.33  3.1812668E-01
   7122.67  3.5242835E-01
   7123.00  3.9410508E-01
   7123.33  4.4061084E-01
   7123.67  4.8635836E-01
   7124.00  5.2742932E-01
   7124.33  5.6160215E-01
   7124.67  5.9237281E-01
   7125.00  6.2465396E-01
   7125.33  6.6506760E-01
   7125.67  7.1451912E-01
   7126.00  7.7013794E-01
   7126.33  8.2328504E-01
   7126.67  8.6254312E-01
   7127.00  8.8120921E-01
   7127.33  8.8047288E-01
   7127.67  8.7566929E-01
   7128.00  8.7700401E-01
   7128.33  8.8619232E-01
   7128.67  8.9400229E-01
   7129.00  8.9375362E-01
   7129.33  8.8368835E-01
   7129.67  8.6946159E-01
   7130.00  8.5337974E-01
   7130.33  8.3372924E-01
   7130.67  8.0931822E-01
   7131.00  7.8070678E-01
   7131.33  7.5009259E-01
   7131.67  7.2063967E-01
   7132.00  6.9433449E-01
   7132.33  6.7279549E-01
   7132.67  6.5531247E-01
   7133.00  6.4111673E-01
   7133.33  6.2958224E-01
   7133.67  6.2011425E-01
   7134.00  6.1299630E-01
   7134.33  6.0827263E-01
   7134.67  6.0430572E-01
   7135.00  6.0010612E-01
   7135.33  5.9523373E-01
   7135.67  5.8967085E-01
   7136.00  5.8332475E-01
   7136.33  5.7603075E-01
   7136.67  5.6793728E-01
   7137.00  5.5918909E-01
   7137.33  5.5003373E-01
   7137.67  5.4088041E-01
   7138.00  5.3203991E-01
   7138.33  5.2390247E-01
   7138.67  5.1662592E-01
   7139.00  5.1034270E-01
   7139.33  5.0525170E-01
   7139.67  5.0119033E-01
   7140.00  4.9805815E-01
   7140.33  4.9575714E-01
   7140.67  4.9396043E-01
   7141.00  4.9247309E-01
   7141.33  4.9114609E-01
   7141.67  4.8988887E-01
   7142.00  4.8870031E-01
   7142.33  4.8759332E-01
   7142.67  4.8648535E-01
   7143.00  4.8521783E-01
   7143.33  4.8348154E-01
   7143.67  4.8110045E-01
   7144.00  4.7798775E-01
   7144.33  4.7412754E-01
   7144.67  4.6980413E-01
   7145.00  4.6522506E-01
   7145.33  4.6059226E-01
   7145.67  4.5603866E-01
   7146.00  4.5159597E-01
   7146.33  4.4722365E-01
   7146.67  4.4279078E-01
   7147.00  4.3815124E-01
   7147.33  4.3306557E-01
   7147.67  4.2740633E-01
   7148.00  4.2106509E-01
   7148.33  4.1390251E-01
   7148.67  4.0605165E-01
   7149.00  3.9761272E-01
   7149.33  3.8870158E-01
   7149.67  3.7956561E-01
   7150.00  3.7037287E-01
   7150.33  3.6131893E-01
   7150.67  3.5254545E-01
   7151.00  3.4416692E-01
   7151.33  3.3636079E-01
   7151.67  3.2916535E-01
   7152.00  3.2266128E-01
   7152.33  3.1703049E-01
   7152.67  3.1225186E-01
   7153.00  3.0838320E-01
   7153.33  3.0559383E-01
   7153.67  3.0378543E-01
   7154.00  3.0295341E-01
   7154.33  3.0318187E-01
   7154.67  3.0428978E-01
   7155.00  3.0620230E-01
   7155.33  3.0890123E-01
   7155.67  3.1218159E-01
   7156.00  3.1593984E-01
   7156.33  3.2010546E-01
   7156.67  3.2452902E-01
   7157.00  3.2913272E-01
   7157.33  3.3385279E-01
   7157.67  3.3861687E-01
   7158.00  3.4338577E-01
   7158.33  3.4811938E-01
   7158.67  3.5279272E-01
   7159.00  3.5738404E-01
   7159.33  3.6185671E-01
   7159.67  3.6620487E-01
   7160.00  3.7041734E-01
   7160.33  3.7446994E-01
   7160.67  3.7838055E-01
   7161.00  3.8215369E-01
   7161.33  3.8578357E-01
   7161.67  3.8930179E-01
   7162.00  3.9272471E-01
   7162.33  3.9605793E-01
   7162.67  3.9932291E-01
   7163.00  4.0253458E-01
   7163.33  4.0571297E-01
   7163.67  4.0888525E-01
   7164.00  4.1206926E-01
   7164.33  4.1528552E-01
   7164.67  4.1853784E-01
   7165.00  4.2182182E-01
   7165.33  4.2512187E-01
   7165.67  4.2840917E-01
   7166.00  4.3165748E-01
   7166.33  4.3483090E-01
   7166.67  4.3791925E-01
   7167.00  4.4091693E-01
   7167.33  4.4381825E-01
   7167.67  4.4665028E-01
   7168.00  4.4943640E-01
   7168.33  4.5220816E-01
   7168.67  4.5500092E-01
   7169.00  4.5784104E-01
   7169.33  4.6076257E-01
   7169.67  4.6377246E-01
   7170.00  4.6687554E-01
   7170.33  4.7007585E-01
   7170.67  4.7333807E-01
   7171.00  4.7661990E-01
   7171.33  4.7981938E-01
   7171.67  4.8276866E-01
   7172.00  4.8523155E-01
