    FDMNES
    energy     <xanes>
   7097.00  4.4058751E-03
   7097.33  4.4963562E-03
   7097.67  4.5905828E-03
   7098.00  4.6887996E-03
   7098.33  4.7918592E-03
   7098.67  4.8995745E-03
   7099.00  5.0122788E-03
   7099.33  5.1310832E-03
   7099.67  5.2557973E-03
   7100.00  5.3868894E-03
   7100.33  5.5258480E-03
   7100.67  5.6724993E-03
   7101.00  5.8275235E-03
   7101.33  5.9929842E-03
   7101.67  6.1687669E-03
   7102.00  6.3559009E-03
   7102.33  6.5573684E-03
   7102.67  6.7732107E-03
   7103.00  7.0050653E-03
   7103.33  7.2574677E-03
   7103.67  7.5308405E-03
   7104.00  7.8279544E-03
   7104.33  8.1561664E-03
   7104.67  8.5168385E-03
   7105.00  8.9150407E-03
   7105.33  9.3637461E-03
   7105.67  9.8667655E-03
   7106.00  1.0434383E-02
   7106.33  1.1092184E-02
   7106.67  1.1851077E-02
   7107.00  1.2735092E-02
   7107.33  1.3803284E-02
   7107.67  1.5090933E-02
   7108.00  1.6667034E-02
   7108.33  1.8704106E-02
   7108.67  2.1346927E-02
   7109.00  2.4868801E-02
   7109.33  3.0005819E-02
   7109.67  3.7653652E-02
   7110.00  4.9587732E-02
   7110.33  7.0889260E-02
   7110.67  1.0562106E-01
   7111.00  1.4775390E-01
   7111.33  1.7097718E-01
   7111.67  1.8020488E-01
   7112.00  1.8604833E-01
   7112.33  1.8645221E-01
   7112.67  1.7876719E-01
   7113.00  1.6609036E-01
   7113.33  1.5402773E-01
   7113.67  1.4529481E-01
   7114.00  1.4037715E-01
   7114.33  1.3923704E-01
   7114.67  1.3985427E-01
   7115.00  1.3976301E-01
   7115.33  1.3603197E-01
   7115.67  1.2953877E-01
   7116.00  1.2256805E-01
   7116.33  1.1738818E-01
   7116.67  1.1440550E-01
   7117.00  1.1345504E-01
   7117.33  1.1436180E-01
   7117.67  1.1657117E-01
   7118.00  1.1982502E-01
   7118.33  1.2393313E-01
   7118.67  1.2849667E-01
   7119.00  1.3320429E-01
   7119.33  1.3760774E-01
   7119.67  1.4136628E-01
   7120.00  1.4427481E-01
   7120.33  1.4620559E-01
   7120.67  1.4757751E-01
   7121.00  1.4890634E-01
   7121.33  1.5092336E-01
   7121.67  1.5400682E-01
   7122.00  1.5834234E-01
   7122.33  1.6417485E-01
   7122.67  1.7137413E-01
   7123.00  1.7997992E-01
   7123.33  1.9023397E-01
   7123.67  2.0198219E-01
   7124.00  2.1516859E-01
   7124.33  2.2971745E-01
   7124.67  2.4499951E-01
   7125.00  2.6036883E-01
   7125.33  2.7486118E-01
   7125.67  2.8791196E-01
   7126.00  2.9932273E-01
   7126.33  3.0916517E-01
   7126.67  3.1820778E-01
   7127.00  3.2704908E-01
   7127.33  3.3636028E-01
   7127.67  3.4651361E-01
   7128.00  3.5767534E-01
   7128.33  3.6993466E-01
   7128.67  3.8296418E-01
   7129.00  3.9655062E-01
   7129.33  4.1058099E-01
   7129.67  4.2500606E-01
   7130.00  4.3994267E-01
   7130.33  4.5567214E-01
   7130.67  4.7226663E-01
   7131.00  4.8978686E-01
   7131.33  5.0830804E-01
   7131.67  5.2757352E-01
   7132.00  5.4738164E-01
   7132.33  5.6746211E-01
   7132.67  5.8745556E-01
   7133.00  6.0710147E-01
   7133.33  6.2609908E-01
   7133.67  6.4438565E-01
   7134.00  6.6190252E-01
   7134.33  6.7851325E-01
   7134.67  6.9427426E-01
   7135.00  7.0910779E-01
   7135.33  7.2273468E-01
   7135.67  7.3510913E-01
   7136.00  7.4608710E-01
   7136.33  7.5538049E-01
   7136.67  7.6318422E-01
   7137.00  7.6959319E-01
   7137.33  7.7463671E-01
   7137.67  7.7867160E-01
   7138.00  7.8185527E-01
   7138.33  7.8423157E-01
   7138.67  7.8595771E-01
   7139.00  7.8703594E-01
   7139.33  7.8730964E-01
   7139.67  7.8674011E-01
   7140.00  7.8520482E-01
   7140.33  7.8245193E-01
   7140.67  7.7855525E-01
   7141.00  7.7351575E-01
   7141.33  7.6725890E-01
   7141.67  7.6003126E-01
   7142.00  7.5195378E-01
   7142.33  7.4309120E-01
   7142.67  7.3368113E-01
   7143.00  7.2384423E-01
   7143.33  7.1366859E-01
   7143.67  7.0330169E-01
   7144.00  6.9282729E-01
   7144.33  6.8233065E-01
   7144.67  6.7189462E-01
   7145.00  6.6158464E-01
   7145.33  6.5149867E-01
   7145.67  6.4168367E-01
   7146.00  6.3220359E-01
   7146.33  6.2318730E-01
   7146.67  6.1463221E-01
   7147.00  6.0653138E-01
   7147.33  5.9890956E-01
   7147.67  5.9169212E-01
   7148.00  5.8486554E-01
   7148.33  5.7846175E-01
   7148.67  5.7241894E-01
   7149.00  5.6672553E-01
   7149.33  5.6141268E-01
   7149.67  5.5643125E-01
   7150.00  5.5177982E-01
   7150.33  5.4750323E-01
   7150.67  5.4356807E-01
   7151.00  5.3998500E-01
   7151.33  5.3681507E-01
   7151.67  5.3402880E-01
   7152.00  5.3163994E-01
   7152.33  5.2971328E-01
   7152.67  5.2820650E-01
   7153.00  5.2712270E-01
   7153.33  5.2651097E-01
   7153.67  5.2630722E-01
   7154.00  5.2649489E-01
   7154.33  5.2709280E-01
   7154.67  5.2802075E-01
   7155.00  5.2924260E-01
   7155.33  5.3074004E-01
   7155.67  5.3242787E-01
   7156.00  5.3425538E-01
   7156.33  5.3616855E-01
   7156.67  5.3808867E-01
   7157.00  5.3995070E-01
   7157.33  5.4165236E-01
   7157.67  5.4311663E-01
   7158.00  5.4425431E-01
   7158.33  5.4490122E-01
   7158.67  5.4500528E-01
   7159.00  5.4448708E-01
   7159.33  5.4319044E-01
   7159.67  5.4116806E-01
   7160.00  5.3842648E-01
   7160.33  5.3493457E-01
   7160.67  5.3087898E-01
   7161.00  5.2638088E-01
   7161.33  5.2155802E-01
   7161.67  5.1660224E-01
   7162.00  5.1164728E-01
   7162.33  5.0686329E-01
   7162.67  5.0235496E-01
   7163.00  4.9820049E-01
   7163.33  4.9451621E-01
   7163.67  4.9128798E-01
   7164.00  4.8853124E-01
   7164.33  4.8630588E-01
   7164.67  4.8453848E-01
   7165.00  4.8320790E-01
   7165.33  4.8233317E-01
   7165.67  4.8182743E-01
   7166.00  4.8165760E-01
   7166.33  4.8182110E-01
   7166.67  4.8224122E-01
   7167.00  4.8288470E-01
   7167.33  4.8373788E-01
   7167.67  4.8474269E-01
   7168.00  4.8587120E-01
   7168.33  4.8710485E-01
   7168.67  4.8840424E-01
   7169.00  4.8974750E-01
   7169.33  4.9111401E-01
   7169.67  4.9248022E-01
   7170.00  4.9382943E-01
   7170.33  4.9513841E-01
   7170.67  4.9639265E-01
   7171.00  4.9757419E-01
   7171.33  4.9864367E-01
   7171.67  4.9957235E-01
   7172.00  5.0031112E-01
