    FDMNES
    energy     <xanes>
   7097.00  4.2296562E-03
   7097.33  4.3150251E-03
   7097.67  4.4037975E-03
   7098.00  4.4961916E-03
   7098.33  4.5929768E-03
   7098.67  4.6939790E-03
   7099.00  4.7994972E-03
   7099.33  4.9105338E-03
   7099.67  5.0269147E-03
   7100.00  5.1490627E-03
   7100.33  5.2783253E-03
   7100.67  5.4145485E-03
   7101.00  5.5583533E-03
   7101.33  5.7116203E-03
   7101.67  5.8742613E-03
   7102.00  6.0472303E-03
   7102.33  6.2332754E-03
   7102.67  6.4324772E-03
   7103.00  6.6463833E-03
   7103.33  6.8792441E-03
   7103.67  7.1315525E-03
   7104.00  7.4059923E-03
   7104.33  7.7096221E-03
   7104.67  8.0439595E-03
   7105.00  8.4140681E-03
   7105.33  8.8327853E-03
   7105.67  9.3043510E-03
   7106.00  9.8394201E-03
   7106.33  1.0464321E-02
   7106.67  1.1191388E-02
   7107.00  1.2046623E-02
   7107.33  1.3093776E-02
   7107.67  1.4373900E-02
   7108.00  1.5965521E-02
   7108.33  1.8065774E-02
   7108.67  2.0850019E-02
   7109.00  2.4647778E-02
   7109.33  3.0356264E-02
   7109.67  3.9113595E-02
   7110.00  5.3183758E-02
   7110.33  7.9024036E-02
   7110.67  1.2102491E-01
   7111.00  1.6779419E-01
   7111.33  1.8454130E-01
   7111.67  1.8491739E-01
   7112.00  1.7444082E-01
   7112.33  1.5198309E-01
   7112.67  1.3017219E-01
   7113.00  1.1322885E-01
   7113.33  9.6526599E-02
   7113.67  8.0160155E-02
   7114.00  6.7349149E-02
   7114.33  5.8646642E-02
   7114.67  5.1809312E-02
   7115.00  4.6035075E-02
   7115.33  4.1977873E-02
   7115.67  3.9768293E-02
   7116.00  3.9076655E-02
   7116.33  3.9641092E-02
   7116.67  4.1067020E-02
   7117.00  4.3214229E-02
   7117.33  4.6088445E-02
   7117.67  4.9620303E-02
   7118.00  5.3755609E-02
   7118.33  5.8219975E-02
   7118.67  6.2643500E-02
   7119.00  6.7081286E-02
   7119.33  7.1834201E-02
   7119.67  7.6748064E-02
   7120.00  8.1358540E-02
   7120.33  8.5166192E-02
   7120.67  8.8541743E-02
   7121.00  9.2246446E-02
   7121.33  9.7425784E-02
   7121.67  1.0464607E-01
   7122.00  1.1432383E-01
   7122.33  1.2719150E-01
   7122.67  1.4329108E-01
   7123.00  1.6303505E-01
   7123.33  1.8749925E-01
   7123.67  2.1669570E-01
   7124.00  2.5087180E-01
   7124.33  2.9002704E-01
   7124.67  3.3112317E-01
   7125.00  3.6999755E-01
   7125.33  4.0092433E-01
   7125.67  4.2416429E-01
   7126.00  4.4249168E-01
   7126.33  4.5922468E-01
   7126.67  4.7611216E-01
   7127.00  4.9314859E-01
   7127.33  5.1049085E-01
   7127.67  5.2939071E-01
   7128.00  5.5134456E-01
   7128.33  5.7814099E-01
   7128.67  6.0980528E-01
   7129.00  6.4648325E-01
   7129.33  6.8880943E-01
   7129.67  7.3551978E-01
   7130.00  7.8484922E-01
   7130.33  8.3310896E-01
   7130.67  8.7642558E-01
   7131.00  9.1230287E-01
   7131.33  9.3867540E-01
   7131.67  9.5730810E-01
   7132.00  9.6932372E-01
   7132.33  9.7489823E-01
   7132.67  9.7496811E-01
   7133.00  9.6966007E-01
   7133.33  9.5920902E-01
   7133.67  9.4588886E-01
   7134.00  9.3156275E-01
   7134.33  9.1833500E-01
   7134.67  9.0717643E-01
   7135.00  8.9803814E-01
   7135.33  8.9007575E-01
   7135.67  8.8173311E-01
   7136.00  8.7185268E-01
   7136.33  8.5924509E-01
   7136.67  8.4398833E-01
   7137.00  8.2634686E-01
   7137.33  8.0669336E-01
   7137.67  7.8590525E-01
   7138.00  7.6445810E-01
   7138.33  7.4272160E-01
   7138.67  7.2099507E-01
   7139.00  6.9945318E-01
   7139.33  6.7834315E-01
   7139.67  6.5783455E-01
   7140.00  6.3813077E-01
   7140.33  6.1961232E-01
   7140.67  6.0238365E-01
   7141.00  5.8662691E-01
   7141.33  5.7268971E-01
   7141.67  5.6041534E-01
   7142.00  5.4979410E-01
   7142.33  5.4098365E-01
   7142.67  5.3371529E-01
   7143.00  5.2791616E-01
   7143.33  5.2365364E-01
   7143.67  5.2063055E-01
   7144.00  5.1871722E-01
   7144.33  5.1785273E-01
   7144.67  5.1771759E-01
   7145.00  5.1812003E-01
   7145.33  5.1886253E-01
   7145.67  5.1967465E-01
   7146.00  5.2037034E-01
   7146.33  5.2072791E-01
   7146.67  5.2066569E-01
   7147.00  5.2013868E-01
   7147.33  5.1907464E-01
   7147.67  5.1754812E-01
   7148.00  5.1558758E-01
   7148.33  5.1318898E-01
   7148.67  5.1045126E-01
   7149.00  5.0741576E-01
   7149.33  5.0408946E-01
   7149.67  5.0052952E-01
   7150.00  4.9674375E-01
   7150.33  4.9269570E-01
   7150.67  4.8839264E-01
   7151.00  4.8380695E-01
   7151.33  4.7885486E-01
   7151.67  4.7352670E-01
   7152.00  4.6777870E-01
   7152.33  4.6150699E-01
   7152.67  4.5473695E-01
   7153.00  4.4745602E-01
   7153.33  4.3960336E-01
   7153.67  4.3125891E-01
   7154.00  4.2244466E-01
   7154.33  4.1313580E-01
   7154.67  4.0342864E-01
   7155.00  3.9336880E-01
   7155.33  3.8296813E-01
   7155.67  3.7231652E-01
   7156.00  3.6146894E-01
   7156.33  3.5048880E-01
   7156.67  3.3948398E-01
   7157.00  3.2854506E-01
   7157.33  3.1780903E-01
   7157.67  3.0737585E-01
   7158.00  2.9735601E-01
   7158.33  2.8794840E-01
   7158.67  2.7921271E-01
   7159.00  2.7125021E-01
   7159.33  2.6427045E-01
   7159.67  2.5824197E-01
   7160.00  2.5321410E-01
   7160.33  2.4935832E-01
   7160.67  2.4657353E-01
   7161.00  2.4487958E-01
   7161.33  2.4443817E-01
   7161.67  2.4513207E-01
   7162.00  2.4697542E-01
   7162.33  2.5011195E-01
   7162.67  2.5436331E-01
   7163.00  2.5966781E-01
   7163.33  2.6603239E-01
   7163.67  2.7320413E-01
   7164.00  2.8105611E-01
   7164.33  2.8949121E-01
   7164.67  2.9826978E-01
   7165.00  3.0723808E-01
   7165.33  3.1623859E-01
   7165.67  3.2513263E-01
   7166.00  3.3382593E-01
   7166.33  3.4220277E-01
   7166.67  3.5025128E-01
   7167.00  3.5795645E-01
   7167.33  3.6528451E-01
   7167.67  3.7230651E-01
   7168.00  3.7905839E-01
   7168.33  3.8556059E-01
   7168.67  3.9188863E-01
   7169.00  3.9807830E-01
   7169.33  4.0414673E-01
   7169.67  4.1012072E-01
   7170.00  4.1599467E-01
   7170.33  4.2172385E-01
   7170.67  4.2726890E-01
   7171.00  4.3255680E-01
   7171.33  4.3741263E-01
   7171.67  4.4168534E-01
   7172.00  4.4514158E-01
