    FDMNES
    energy     <xanes>
   7097.00  5.1069137E-03
   7097.33  5.2228368E-03
   7097.67  5.3438017E-03
   7098.00  5.4701347E-03
   7098.33  5.6029768E-03
   7098.67  5.7420685E-03
   7099.00  5.8878480E-03
   7099.33  6.0417883E-03
   7099.67  6.2036158E-03
   7100.00  6.3739342E-03
   7100.33  6.5546904E-03
   7100.67  6.7456133E-03
   7101.00  6.9475592E-03
   7101.33  7.1631743E-03
   7101.67  7.3922288E-03
   7102.00  7.6359790E-03
   7102.33  7.8981471E-03
   7102.67  8.1786301E-03
   7103.00  8.4793500E-03
   7103.33  8.8057656E-03
   7103.67  9.1580972E-03
   7104.00  9.5394403E-03
   7104.33  9.9582347E-03
   7104.67  1.0415490E-02
   7105.00  1.0916532E-02
   7105.33  1.1475335E-02
   7105.67  1.2094896E-02
   7106.00  1.2785218E-02
   7106.33  1.3571690E-02
   7106.67  1.4462746E-02
   7107.00  1.5479619E-02
   7107.33  1.6675015E-02
   7107.67  1.8074622E-02
   7108.00  1.9732528E-02
   7108.33  2.1783232E-02
   7108.67  2.4322577E-02
   7109.00  2.7535827E-02
   7109.33  3.1909905E-02
   7109.67  3.7970368E-02
   7110.00  4.6751970E-02
   7110.33  6.1187571E-02
   7110.67  8.3972109E-02
   7111.00  1.1418494E-01
   7111.33  1.4235542E-01
   7111.67  1.6766586E-01
   7112.00  1.9212292E-01
   7112.33  2.1975749E-01
   7112.67  2.4816660E-01
   7113.00  2.6989148E-01
   7113.33  2.8621979E-01
   7113.67  3.0696541E-01
   7114.00  3.3905099E-01
   7114.33  3.7681346E-01
   7114.67  3.9941420E-01
   7115.00  4.0135573E-01
   7115.33  3.8578917E-01
   7115.67  3.6021894E-01
   7116.00  3.3510937E-01
   7116.33  3.2207845E-01
   7116.67  3.2008366E-01
   7117.00  3.2095998E-01
   7117.33  3.0810490E-01
   7117.67  2.7803267E-01
   7118.00  2.4073846E-01
   7118.33  2.0907737E-01
   7118.67  1.8590883E-01
   7119.00  1.7004947E-01
   7119.33  1.5972503E-01
   7119.67  1.5236009E-01
   7120.00  1.4700602E-01
   7120.33  1.4342058E-01
   7120.67  1.4123684E-01
   7121.00  1.4035129E-01
   7121.33  1.4089963E-01
   7121.67  1.4300380E-01
   7122.00  1.4723233E-01
   7122.33  1.5478883E-01
   7122.67  1.6605367E-01
   7123.00  1.8144660E-01
   7123.33  2.0143026E-01
   7123.67  2.2439359E-01
   7124.00  2.4828317E-01
   7124.33  2.6973776E-01
   7124.67  2.8693736E-01
   7125.00  3.0003527E-01
   7125.33  3.1084760E-01
   7125.67  3.2215441E-01
   7126.00  3.3550445E-01
   7126.33  3.5194673E-01
   7126.67  3.7077197E-01
   7127.00  3.9112912E-01
   7127.33  4.1205790E-01
   7127.67  4.3277092E-01
   7128.00  4.5288729E-01
   7128.33  4.7231405E-01
   7128.67  4.9171238E-01
   7129.00  5.1190857E-01
   7129.33  5.3392916E-01
   7129.67  5.5785144E-01
   7130.00  5.8366769E-01
   7130.33  6.1154717E-01
   7130.67  6.4067234E-01
   7131.00  6.6979677E-01
   7131.33  6.9680514E-01
   7131.67  7.2041796E-01
   7132.00  7.4009028E-01
   7132.33  7.5578005E-01
   7132.67  7.6932245E-01
   7133.00  7.8248782E-01
   7133.33  7.9776070E-01
   7133.67  8.1643825E-01
   7134.00  8.3828937E-01
   7134.33  8.6040915E-01
   7134.67  8.7732314E-01
   7135.00  8.8391970E-01
   7135.33  8.7477583E-01
   7135.67  8.5210798E-01
   7136.00  8.1907636E-01
   7136.33  7.7968503E-01
   7136.67  7.3861074E-01
   7137.00  6.9812440E-01
   7137.33  6.6003822E-01
   7137.67  6.2494860E-01
   7138.00  5.9337467E-01
   7138.33  5.6632566E-01
   7138.67  5.4368222E-01
   7139.00  5.2562456E-01
   7139.33  5.1267972E-01
   7139.67  5.0393714E-01
   7140.00  4.9890040E-01
   7140.33  4.9722761E-01
   7140.67  4.9779251E-01
   7141.00  4.9998563E-01
   7141.33  5.0330198E-01
   7141.67  5.0708378E-01
   7142.00  5.1094876E-01
   7142.33  5.1450028E-01
   7142.67  5.1750355E-01
   7143.00  5.1980448E-01
   7143.33  5.2121525E-01
   7143.67  5.2183540E-01
   7144.00  5.2172476E-01
   7144.33  5.2092687E-01
   7144.67  5.1966320E-01
   7145.00  5.1804449E-01
   7145.33  5.1613770E-01
   7145.67  5.1406257E-01
   7146.00  5.1189205E-01
   7146.33  5.0970555E-01
   7146.67  5.0758237E-01
   7147.00  5.0558748E-01
   7147.33  5.0382171E-01
   7147.67  5.0233534E-01
   7148.00  5.0119329E-01
   7148.33  5.0052167E-01
   7148.67  5.0033712E-01
   7149.00  5.0069212E-01
   7149.33  5.0171031E-01
   7149.67  5.0335261E-01
   7150.00  5.0563431E-01
   7150.33  5.0863497E-01
   7150.67  5.1225198E-01
   7151.00  5.1644294E-01
   7151.33  5.2120050E-01
   7151.67  5.2637758E-01
   7152.00  5.3188532E-01
   7152.33  5.3762305E-01
   7152.67  5.4342128E-01
   7153.00  5.4914978E-01
   7153.33  5.5462990E-01
   7153.67  5.5974672E-01
   7154.00  5.6439091E-01
   7154.33  5.6838589E-01
   7154.67  5.7173028E-01
   7155.00  5.7438811E-01
   7155.33  5.7626236E-01
   7155.67  5.7746262E-01
   7156.00  5.7803098E-01
   7156.33  5.7796760E-01
   7156.67  5.7742947E-01
   7157.00  5.7649924E-01
   7157.33  5.7524035E-01
   7157.67  5.7378718E-01
   7158.00  5.7221764E-01
   7158.33  5.7060608E-01
   7158.67  5.6902031E-01
   7159.00  5.6750192E-01
   7159.33  5.6609853E-01
   7159.67  5.6481807E-01
   7160.00  5.6366859E-01
   7160.33  5.6267130E-01
   7160.67  5.6180934E-01
   7161.00  5.6107498E-01
   7161.33  5.6046924E-01
   7161.67  5.5996311E-01
   7162.00  5.5954315E-01
   7162.33  5.5920304E-01
   7162.67  5.5891802E-01
   7163.00  5.5867078E-01
   7163.33  5.5843929E-01
   7163.67  5.5820139E-01
   7164.00  5.5794343E-01
   7164.33  5.5763801E-01
   7164.67  5.5726000E-01
   7165.00  5.5678095E-01
   7165.33  5.5614911E-01
   7165.67  5.5534645E-01
   7166.00  5.5434455E-01
   7166.33  5.5308444E-01
   7166.67  5.5156797E-01
   7167.00  5.4977577E-01
   7167.33  5.4765478E-01
   7167.67  5.4523264E-01
   7168.00  5.4250761E-01
   7168.33  5.3944638E-01
   7168.67  5.3609824E-01
   7169.00  5.3248218E-01
   7169.33  5.2860324E-01
   7169.67  5.2452875E-01
   7170.00  5.2029407E-01
   7170.33  5.1593942E-01
   7170.67  5.1154900E-01
   7171.00  5.0720414E-01
   7171.33  5.0306535E-01
   7171.67  4.9933118E-01
   7172.00  4.9627215E-01
