    FDMNES
    energy     <xanes>
   7097.00  4.8461359E-03
   7097.33  4.9589389E-03
   7097.67  5.0767306E-03
   7098.00  5.1998399E-03
   7098.33  5.3294066E-03
   7098.67  5.4651826E-03
   7099.00  5.6076127E-03
   7099.33  5.7581767E-03
   7099.67  5.9166163E-03
   7100.00  6.0835492E-03
   7100.33  6.2609443E-03
   7100.67  6.4485531E-03
   7101.00  6.6472582E-03
   7101.33  6.8597581E-03
   7101.67  7.0858569E-03
   7102.00  7.3268614E-03
   7102.33  7.5866015E-03
   7102.67  7.8650297E-03
   7103.00  8.1641634E-03
   7103.33  8.4896741E-03
   7103.67  8.8418776E-03
   7104.00  9.2240499E-03
   7104.33  9.6450420E-03
   7104.67  1.0106035E-02
   7105.00  1.0612696E-02
   7105.33  1.1179781E-02
   7105.67  1.1810596E-02
   7106.00  1.2515770E-02
   7106.33  1.3322124E-02
   7106.67  1.4238564E-02
   7107.00  1.5287314E-02
   7107.33  1.6523217E-02
   7107.67  1.7971938E-02
   7108.00  1.9687676E-02
   7108.33  2.1803697E-02
   7108.67  2.4407199E-02
   7109.00  2.7666202E-02
   7109.33  3.2009065E-02
   7109.67  3.7842291E-02
   7110.00  4.5948666E-02
   7110.33  5.8517102E-02
   7110.67  7.8125307E-02
   7111.00  1.0786590E-01
   7111.33  1.4751843E-01
   7111.67  1.8605208E-01
   7112.00  2.3184941E-01
   7112.33  3.2806468E-01
   7112.67  4.4717167E-01
   7113.00  4.6691263E-01
   7113.33  3.9380042E-01
   7113.67  3.6365124E-01
   7114.00  3.6741617E-01
   7114.33  3.5084763E-01
   7114.67  3.0612245E-01
   7115.00  2.3700302E-01
   7115.33  1.7205407E-01
   7115.67  1.2934184E-01
   7116.00  1.0412189E-01
   7116.33  8.9027258E-02
   7116.67  7.8720813E-02
   7117.00  7.2121674E-02
   7117.33  6.8626277E-02
   7117.67  6.7135105E-02
   7118.00  6.7258280E-02
   7118.33  6.8952773E-02
   7118.67  7.1982482E-02
   7119.00  7.6411449E-02
   7119.33  8.2650174E-02
   7119.67  9.0771970E-02
   7120.00  1.0094504E-01
   7120.33  1.1324199E-01
   7120.67  1.2666173E-01
   7121.00  1.4048590E-01
   7121.33  1.5510618E-01
   7121.67  1.7154692E-01
   7122.00  1.8989723E-01
   7122.33  2.1032640E-01
   7122.67  2.3452981E-01
   7123.00  2.6510699E-01
   7123.33  3.0552605E-01
   7123.67  3.5586371E-01
   7124.00  4.1596489E-01
   7124.33  4.8442022E-01
   7124.67  5.5490496E-01
   7125.00  6.2108264E-01
   7125.33  6.7544594E-01
   7125.67  7.1748859E-01
   7126.00  7.4919628E-01
   7126.33  7.7319540E-01
   7126.67  7.9177447E-01
   7127.00  8.0366285E-01
   7127.33  8.0525367E-01
   7127.67  7.9713956E-01
   7128.00  7.8128982E-01
   7128.33  7.6094206E-01
   7128.67  7.3957005E-01
   7129.00  7.1768978E-01
   7129.33  6.9316944E-01
   7129.67  6.6401896E-01
   7130.00  6.3011860E-01
   7130.33  5.9392517E-01
   7130.67  5.5941231E-01
   7131.00  5.2868664E-01
   7131.33  5.0312237E-01
   7131.67  4.8202813E-01
   7132.00  4.6516157E-01
   7132.33  4.5289280E-01
   7132.67  4.4471752E-01
   7133.00  4.4066992E-01
   7133.33  4.4126468E-01
   7133.67  4.4592750E-01
   7134.00  4.5457031E-01
   7134.33  4.6752723E-01
   7134.67  4.8410355E-01
   7135.00  5.0402026E-01
   7135.33  5.2713848E-01
   7135.67  5.5236883E-01
   7136.00  5.7886647E-01
   7136.33  6.0539450E-01
   7136.67  6.3049566E-01
   7137.00  6.5288721E-01
   7137.33  6.7078818E-01
   7137.67  6.8391945E-01
   7138.00  6.9216646E-01
   7138.33  6.9551257E-01
   7138.67  6.9557229E-01
   7139.00  6.9346759E-01
   7139.33  6.9031231E-01
   7139.67  6.8707860E-01
   7140.00  6.8405703E-01
   7140.33  6.8116769E-01
   7140.67  6.7788048E-01
   7141.00  6.7336207E-01
   7141.33  6.6627712E-01
   7141.67  6.5617651E-01
   7142.00  6.4288120E-01
   7142.33  6.2642725E-01
   7142.67  6.0806217E-01
   7143.00  5.8875058E-01
   7143.33  5.6958569E-01
   7143.67  5.5138565E-01
   7144.00  5.3461392E-01
   7144.33  5.1975463E-01
   7144.67  5.0665373E-01
   7145.00  4.9525496E-01
   7145.33  4.8562542E-01
   7145.67  4.7741369E-01
   7146.00  4.7048834E-01
   7146.33  4.6485254E-01
   7146.67  4.6024202E-01
   7147.00  4.5656893E-01
   7147.33  4.5385337E-01
   7147.67  4.5191714E-01
   7148.00  4.5071001E-01
   7148.33  4.5027293E-01
   7148.67  4.5049007E-01
   7149.00  4.5134618E-01
   7149.33  4.5291336E-01
   7149.67  4.5511470E-01
   7150.00  4.5795667E-01
   7150.33  4.6152951E-01
   7150.67  4.6575625E-01
   7151.00  4.7062998E-01
   7151.33  4.7619720E-01
   7151.67  4.8231148E-01
   7152.00  4.8886914E-01
   7152.33  4.9571438E-01
   7152.67  5.0254284E-01
   7153.00  5.0905030E-01
   7153.33  5.1472015E-01
   7153.67  5.1918250E-01
   7154.00  5.2204889E-01
   7154.33  5.2269041E-01
   7154.67  5.2111439E-01
   7155.00  5.1725746E-01
   7155.33  5.1093068E-01
   7155.67  5.0262732E-01
   7156.00  4.9259901E-01
   7156.33  4.8098658E-01
   7156.67  4.6827019E-01
   7157.00  4.5468331E-01
   7157.33  4.4038247E-01
   7157.67  4.2565160E-01
   7158.00  4.1064985E-01
   7158.33  3.9554201E-01
   7158.67  3.8051449E-01
   7159.00  3.6571931E-01
   7159.33  3.5138804E-01
   7159.67  3.3764860E-01
   7160.00  3.2465017E-01
   7160.33  3.1266629E-01
   7160.67  3.0172283E-01
   7161.00  2.9191487E-01
   7161.33  2.8347273E-01
   7161.67  2.7628761E-01
   7162.00  2.7036771E-01
   7162.33  2.6584642E-01
   7162.67  2.6252012E-01
   7163.00  2.6033199E-01
   7163.33  2.5933495E-01
   7163.67  2.5930164E-01
   7164.00  2.6014266E-01
   7164.33  2.6185158E-01
   7164.67  2.6423695E-01
   7165.00  2.6722748E-01
   7165.33  2.7082320E-01
   7165.67  2.7490875E-01
   7166.00  2.7945793E-01
   7166.33  2.8451077E-01
   7166.67  2.9000547E-01
   7167.00  2.9594093E-01
   7167.33  3.0237060E-01
   7167.67  3.0923340E-01
   7168.00  3.1651811E-01
   7168.33  3.2425449E-01
   7168.67  3.3236289E-01
   7169.00  3.4080957E-01
   7169.33  3.4958080E-01
   7169.67  3.5857849E-01
   7170.00  3.6773777E-01
   7170.33  3.7697310E-01
   7170.67  3.8615192E-01
   7171.00  3.9512864E-01
   7171.33  4.0359307E-01
   7171.67  4.1118293E-01
   7172.00  4.1737814E-01
