    FDMNES
    energy     <xanes>
   7097.00  4.5585305E-03
   7097.33  4.6570325E-03
   7097.67  4.7596587E-03
   7098.00  4.8666751E-03
   7098.33  4.9790147E-03
   7098.67  5.0964662E-03
   7099.00  5.2193902E-03
   7099.33  5.3489968E-03
   7099.67  5.4850687E-03
   7100.00  5.6281091E-03
   7100.33  5.7797307E-03
   7100.67  5.9397292E-03
   7101.00  6.1088308E-03
   7101.33  6.2892564E-03
   7101.67  6.4808574E-03
   7102.00  6.6847242E-03
   7102.33  6.9040409E-03
   7102.67  7.1388105E-03
   7103.00  7.3907517E-03
   7103.33  7.6646603E-03
   7103.67  7.9609143E-03
   7104.00  8.2823890E-03
   7104.33  8.6367728E-03
   7104.67  9.0253636E-03
   7105.00  9.4533506E-03
   7105.33  9.9340895E-03
   7105.67  1.0471252E-02
   7106.00  1.1075175E-02
   7106.33  1.1771684E-02
   7106.67  1.2571200E-02
   7107.00  1.3497299E-02
   7107.33  1.4607959E-02
   7107.67  1.5936144E-02
   7108.00  1.7547205E-02
   7108.33  1.9603822E-02
   7108.67  2.2236064E-02
   7109.00  2.5689704E-02
   7109.33  3.0618304E-02
   7109.67  3.7780982E-02
   7110.00  4.8673182E-02
   7110.33  6.7603109E-02
   7110.67  9.8840773E-02
   7111.00  1.4142586E-01
   7111.33  1.7645101E-01
   7111.67  1.9383067E-01
   7112.00  1.9970761E-01
   7112.33  2.0589034E-01
   7112.67  2.2030536E-01
   7113.00  2.4279593E-01
   7113.33  2.4589249E-01
   7113.67  2.1519497E-01
   7114.00  1.7288532E-01
   7114.33  1.3824785E-01
   7114.67  1.1249997E-01
   7115.00  9.5097245E-02
   7115.33  8.5180853E-02
   7115.67  8.0042410E-02
   7116.00  7.8499564E-02
   7116.33  7.9947602E-02
   7116.67  8.3419307E-02
   7117.00  8.8446187E-02
   7117.33  9.4515881E-02
   7117.67  1.0088123E-01
   7118.00  1.0722914E-01
   7118.33  1.1371743E-01
   7118.67  1.2103588E-01
   7119.00  1.2997397E-01
   7119.33  1.4137191E-01
   7119.67  1.5486891E-01
   7120.00  1.6994791E-01
   7120.33  1.8600852E-01
   7120.67  2.0258490E-01
   7121.00  2.1970585E-01
   7121.33  2.3751912E-01
   7121.67  2.5594783E-01
   7122.00  2.7524369E-01
   7122.33  2.9623095E-01
   7122.67  3.1804836E-01
   7123.00  3.3740921E-01
   7123.33  3.4968125E-01
   7123.67  3.5906496E-01
   7124.00  3.7213505E-01
   7124.33  3.9340153E-01
   7124.67  4.1964511E-01
   7125.00  4.4615976E-01
   7125.33  4.6746717E-01
   7125.67  4.8266083E-01
   7126.00  4.9280001E-01
   7126.33  4.9914354E-01
   7126.67  5.0309022E-01
   7127.00  5.0518592E-01
   7127.33  5.0626173E-01
   7127.67  5.0748120E-01
   7128.00  5.0951929E-01
   7128.33  5.1322015E-01
   7128.67  5.1889280E-01
   7129.00  5.2672164E-01
   7129.33  5.3700770E-01
   7129.67  5.4945121E-01
   7130.00  5.6399335E-01
   7130.33  5.8068702E-01
   7130.67  5.9900177E-01
   7131.00  6.1881920E-01
   7131.33  6.4088929E-01
   7131.67  6.6629778E-01
   7132.00  6.9625695E-01
   7132.33  7.3138440E-01
   7132.67  7.6868783E-01
   7133.00  8.0452982E-01
   7133.33  8.3387035E-01
   7133.67  8.5454868E-01
   7134.00  8.6552041E-01
   7134.33  8.6558211E-01
   7134.67  8.5682459E-01
   7135.00  8.4046336E-01
   7135.33  8.1739410E-01
   7135.67  7.8994026E-01
   7136.00  7.5933590E-01
   7136.33  7.2675229E-01
   7136.67  6.9380598E-01
   7137.00  6.6162534E-01
   7137.33  6.3152144E-01
   7137.67  6.0401330E-01
   7138.00  5.7949119E-01
   7138.33  5.5857585E-01
   7138.67  5.4090848E-01
   7139.00  5.2643623E-01
   7139.33  5.1542120E-01
   7139.67  5.0731099E-01
   7140.00  5.0191903E-01
   7140.33  4.9926329E-01
   7140.67  4.9867521E-01
   7141.00  4.9979646E-01
   7141.33  5.0235938E-01
   7141.67  5.0582282E-01
   7142.00  5.0993966E-01
   7142.33  5.1456938E-01
   7142.67  5.1951947E-01
   7143.00  5.2470215E-01
   7143.33  5.3004151E-01
   7143.67  5.3542101E-01
   7144.00  5.4075143E-01
   7144.33  5.4591852E-01
   7144.67  5.5086666E-01
   7145.00  5.5555682E-01
   7145.33  5.5993815E-01
   7145.67  5.6405511E-01
   7146.00  5.6793306E-01
   7146.33  5.7159008E-01
   7146.67  5.7509819E-01
   7147.00  5.7849273E-01
   7147.33  5.8178399E-01
   7147.67  5.8496881E-01
   7148.00  5.8800199E-01
   7148.33  5.9077309E-01
   7148.67  5.9319900E-01
   7149.00  5.9516022E-01
   7149.33  5.9642681E-01
   7149.67  5.9692922E-01
   7150.00  5.9655118E-01
   7150.33  5.9504352E-01
   7150.67  5.9242793E-01
   7151.00  5.8863950E-01
   7151.33  5.8349217E-01
   7151.67  5.7715210E-01
   7152.00  5.6966968E-01
   7152.33  5.6100543E-01
   7152.67  5.5140762E-01
   7153.00  5.4098622E-01
   7153.33  5.2977632E-01
   7153.67  5.1797674E-01
   7154.00  5.0568018E-01
   7154.33  4.9294844E-01
   7154.67  4.7994640E-01
   7155.00  4.6678141E-01
   7155.33  4.5358385E-01
   7155.67  4.4050045E-01
   7156.00  4.2765947E-01
   7156.33  4.1526004E-01
   7156.67  4.0339788E-01
   7157.00  3.9218751E-01
   7157.33  3.8183832E-01
   7157.67  3.7234161E-01
   7158.00  3.6374772E-01
   7158.33  3.5619940E-01
   7158.67  3.4957139E-01
   7159.00  3.4383037E-01
   7159.33  3.3901843E-01
   7159.67  3.3495862E-01
   7160.00  3.3158592E-01
   7160.33  3.2890770E-01
   7160.67  3.2679210E-01
   7161.00  3.2520815E-01
   7161.33  3.2419885E-01
   7161.67  3.2369180E-01
   7162.00  3.2369110E-01
   7162.33  3.2427675E-01
   7162.67  3.2539536E-01
   7163.00  3.2704665E-01
   7163.33  3.2927763E-01
   7163.67  3.3198606E-01
   7164.00  3.3512476E-01
   7164.33  3.3867304E-01
   7164.67  3.4251472E-01
   7165.00  3.4659159E-01
   7165.33  3.5086618E-01
   7165.67  3.5526956E-01
   7166.00  3.5977484E-01
   7166.33  3.6437737E-01
   7166.67  3.6906355E-01
   7167.00  3.7383724E-01
   7167.33  3.7871621E-01
   7167.67  3.8368996E-01
   7168.00  3.8875391E-01
   7168.33  3.9390613E-01
   7168.67  3.9911677E-01
   7169.00  4.0436137E-01
   7169.33  4.0960370E-01
   7169.67  4.1480084E-01
   7170.00  4.1991041E-01
   7170.33  4.2485880E-01
   7170.67  4.2959901E-01
   7171.00  4.3406371E-01
   7171.33  4.3810239E-01
   7171.67  4.4161057E-01
   7172.00  4.4441654E-01
