    FDMNES
    energy     <xanes>
   7097.00  5.2198455E-03
   7097.33  5.3569149E-03
   7097.67  5.5008713E-03
   7098.00  5.6522252E-03
   7098.33  5.8126457E-03
   7098.67  5.9818687E-03
   7099.00  6.1606061E-03
   7099.33  6.3510951E-03
   7099.67  6.5530871E-03
   7100.00  6.7676041E-03
   7100.33  6.9977326E-03
   7100.67  7.2432896E-03
   7101.00  7.5057934E-03
   7101.33  7.7896487E-03
   7101.67  8.0948490E-03
   7102.00  8.4237411E-03
   7102.33  8.7828730E-03
   7102.67  9.1726590E-03
   7103.00  9.5969048E-03
   7103.33  1.0065841E-02
   7103.67  1.0580863E-02
   7104.00  1.1148520E-02
   7104.33  1.1785811E-02
   7104.67  1.2496490E-02
   7105.00  1.3292692E-02
   7105.33  1.4204990E-02
   7105.67  1.5243159E-02
   7106.00  1.6431979E-02
   7106.33  1.7832496E-02
   7106.67  1.9471593E-02
   7107.00  2.1407026E-02
   7107.33  2.3779786E-02
   7107.67  2.6673955E-02
   7108.00  3.0252529E-02
   7108.33  3.4920133E-02
   7108.67  4.1007756E-02
   7109.00  4.9136086E-02
   7109.33  6.0955381E-02
   7109.67  7.8398127E-02
   7110.00  1.0526093E-01
   7110.33  1.5239927E-01
   7110.67  2.2977439E-01
   7111.00  3.3193204E-01
   7111.33  4.1697150E-01
   7111.67  4.8752016E-01
   7112.00  5.5812663E-01
   7112.33  5.9462783E-01
   7112.67  5.6176770E-01
   7113.00  4.7053341E-01
   7113.33  3.7123748E-01
   7113.67  2.9276075E-01
   7114.00  2.3499042E-01
   7114.33  1.9172745E-01
   7114.67  1.5755225E-01
   7115.00  1.3188912E-01
   7115.33  1.1449873E-01
   7115.67  1.0163662E-01
   7116.00  9.0318646E-02
   7116.33  8.0138719E-02
   7116.67  7.2861584E-02
   7117.00  6.8882868E-02
   7117.33  6.8040932E-02
   7117.67  6.9520260E-02
   7118.00  7.2962689E-02
   7118.33  7.7729818E-02
   7118.67  8.2480776E-02
   7119.00  8.6582943E-02
   7119.33  9.0111862E-02
   7119.67  9.3744343E-02
   7120.00  9.7889090E-02
   7120.33  1.0301982E-01
   7120.67  1.0955652E-01
   7121.00  1.1829095E-01
   7121.33  1.3109011E-01
   7121.67  1.4877030E-01
   7122.00  1.7168610E-01
   7122.33  1.9982110E-01
   7122.67  2.3089843E-01
   7123.00  2.6347072E-01
   7123.33  3.0024602E-01
   7123.67  3.4732515E-01
   7124.00  4.0951132E-01
   7124.33  4.8857550E-01
   7124.67  5.7299861E-01
   7125.00  6.4793368E-01
   7125.33  6.9547104E-01
   7125.67  7.1399920E-01
   7126.00  7.0511759E-01
   7126.33  6.7403868E-01
   7126.67  6.3681333E-01
   7127.00  6.0201788E-01
   7127.33  5.7223533E-01
   7127.67  5.4524868E-01
   7128.00  5.2054182E-01
   7128.33  4.9960890E-01
   7128.67  4.8343066E-01
   7129.00  4.7255698E-01
   7129.33  4.6723730E-01
   7129.67  4.6570488E-01
   7130.00  4.6677114E-01
   7130.33  4.6954013E-01
   7130.67  4.7316166E-01
   7131.00  4.7704579E-01
   7131.33  4.8022328E-01
   7131.67  4.8227733E-01
   7132.00  4.8358990E-01
   7132.33  4.8554340E-01
   7132.67  4.8974855E-01
   7133.00  4.9744300E-01
   7133.33  5.0983569E-01
   7133.67  5.2606219E-01
   7134.00  5.4516151E-01
   7134.33  5.6577295E-01
   7134.67  5.8611086E-01
   7135.00  6.0499001E-01
   7135.33  6.2130814E-01
   7135.67  6.3533569E-01
   7136.00  6.4755712E-01
   7136.33  6.5845508E-01
   7136.67  6.6854456E-01
   7137.00  6.7794708E-01
   7137.33  6.8661796E-01
   7137.67  6.9461141E-01
   7138.00  7.0184399E-01
   7138.33  7.0800648E-01
   7138.67  7.1293713E-01
   7139.00  7.1636049E-01
   7139.33  7.1776533E-01
   7139.67  7.1725182E-01
   7140.00  7.1491605E-01
   7140.33  7.1088761E-01
   7140.67  7.0577950E-01
   7141.00  6.9995182E-01
   7141.33  6.9373343E-01
   7141.67  6.8751922E-01
   7142.00  6.8162829E-01
   7142.33  6.7653504E-01
   7142.67  6.7248717E-01
   7143.00  6.6967291E-01
   7143.33  6.6831391E-01
   7143.67  6.6814173E-01
   7144.00  6.6896394E-01
   7144.33  6.7057416E-01
   7144.67  6.7253409E-01
   7145.00  6.7451388E-01
   7145.33  6.7607918E-01
   7145.67  6.7692380E-01
   7146.00  6.7681973E-01
   7146.33  6.7549803E-01
   7146.67  6.7310059E-01
   7147.00  6.6971758E-01
   7147.33  6.6540804E-01
   7147.67  6.6045873E-01
   7148.00  6.5502365E-01
   7148.33  6.4922185E-01
   7148.67  6.4321499E-01
   7149.00  6.3707078E-01
   7149.33  6.3081931E-01
   7149.67  6.2448406E-01
   7150.00  6.1805853E-01
   7150.33  6.1151374E-01
   7150.67  6.0485030E-01
   7151.00  5.9806890E-01
   7151.33  5.9117892E-01
   7151.67  5.8423833E-01
   7152.00  5.7730396E-01
   7152.33  5.7046574E-01
   7152.67  5.6379570E-01
   7153.00  5.5735857E-01
   7153.33  5.5124999E-01
   7153.67  5.4546901E-01
   7154.00  5.4002275E-01
   7154.33  5.3492587E-01
   7154.67  5.3007697E-01
   7155.00  5.2538839E-01
   7155.33  5.2071516E-01
   7155.67  5.1586093E-01
   7156.00  5.1062703E-01
   7156.33  5.0468488E-01
   7156.67  4.9787481E-01
   7157.00  4.9003106E-01
   7157.33  4.8089525E-01
   7157.67  4.7060577E-01
   7158.00  4.5925285E-01
   7158.33  4.4693144E-01
   7158.67  4.3402720E-01
   7159.00  4.2080994E-01
   7159.33  4.0759476E-01
   7159.67  3.9466357E-01
   7160.00  3.8221879E-01
   7160.33  3.7053041E-01
   7160.67  3.5964809E-01
   7161.00  3.4964922E-01
   7161.33  3.4070195E-01
   7161.67  3.3270514E-01
   7162.00  3.2564872E-01
   7162.33  3.1961503E-01
   7162.67  3.1444267E-01
   7163.00  3.1007863E-01
   7163.33  3.0654044E-01
   7163.67  3.0365263E-01
   7164.00  3.0133937E-01
   7164.33  2.9957124E-01
   7164.67  2.9820022E-01
   7165.00  2.9715726E-01
   7165.33  2.9640472E-01
   7165.67  2.9585474E-01
   7166.00  2.9547296E-01
   7166.33  2.9525476E-01
   7166.67  2.9517779E-01
   7167.00  2.9525178E-01
   7167.33  2.9552174E-01
   7167.67  2.9599766E-01
   7168.00  2.9671009E-01
   7168.33  2.9772793E-01
   7168.67  2.9904670E-01
   7169.00  3.0068400E-01
   7169.33  3.0269016E-01
   7169.67  3.0502013E-01
   7170.00  3.0765850E-01
   7170.33  3.1060599E-01
   7170.67  3.1377309E-01
   7171.00  3.1708718E-01
   7171.33  3.2041380E-01
   7171.67  3.2351699E-01
   7172.00  3.2609837E-01
