    FDMNES
    energy     <xanes>
   7097.00  4.4454203E-03
   7097.33  4.5327967E-03
   7097.67  4.6234425E-03
   7098.00  4.7175479E-03
   7098.33  4.8158181E-03
   7098.67  4.9180584E-03
   7099.00  5.0245213E-03
   7099.33  5.1361005E-03
   7099.67  5.2525903E-03
   7100.00  5.3743357E-03
   7100.33  5.5024990E-03
   7100.67  5.6368738E-03
   7101.00  5.7779481E-03
   7101.33  5.9272825E-03
   7101.67  6.0846953E-03
   7102.00  6.2509049E-03
   7102.33  6.4280929E-03
   7102.67  6.6161597E-03
   7103.00  6.8162184E-03
   7103.33  7.0314763E-03
   7103.67  7.2620526E-03
   7104.00  7.5097844E-03
   7104.33  7.7797032E-03
   7104.67  8.0724875E-03
   7105.00  8.3914223E-03
   7105.33  8.7451050E-03
   7105.67  9.1356948E-03
   7106.00  9.5697219E-03
   7106.33  1.0063670E-02
   7106.67  1.0624017E-02
   7107.00  1.1265769E-02
   7107.33  1.2026091E-02
   7107.67  1.2926309E-02
   7108.00  1.4008984E-02
   7108.33  1.5380847E-02
   7108.67  1.7130033E-02
   7109.00  1.9424023E-02
   7109.33  2.2714503E-02
   7109.67  2.7549609E-02
   7110.00  3.5017813E-02
   7110.33  4.8224067E-02
   7110.67  6.9505866E-02
   7111.00  9.4603251E-02
   7111.33  1.0754334E-01
   7111.67  1.1157574E-01
   7112.00  1.1206545E-01
   7112.33  1.1719978E-01
   7112.67  1.3021997E-01
   7113.00  1.4250397E-01
   7113.33  1.4133419E-01
   7113.67  1.3313606E-01
   7114.00  1.1324454E-01
   7114.33  8.6015544E-02
   7114.67  6.6733851E-02
   7115.00  5.5714480E-02
   7115.33  5.0516651E-02
   7115.67  4.8537167E-02
   7116.00  4.9018386E-02
   7116.33  5.1971174E-02
   7116.67  5.7348649E-02
   7117.00  6.5662683E-02
   7117.33  7.7805729E-02
   7117.67  9.2168708E-02
   7118.00  1.0619017E-01
   7118.33  1.2000356E-01
   7118.67  1.3628459E-01
   7119.00  1.5388140E-01
   7119.33  1.6830632E-01
   7119.67  1.7858677E-01
   7120.00  1.8687888E-01
   7120.33  1.9624616E-01
   7120.67  2.0859012E-01
   7121.00  2.2523509E-01
   7121.33  2.4811030E-01
   7121.67  2.7695464E-01
   7122.00  3.1067147E-01
   7122.33  3.4512262E-01
   7122.67  3.7307636E-01
   7123.00  3.8913177E-01
   7123.33  3.9197317E-01
   7123.67  3.8981331E-01
   7124.00  3.8826749E-01
   7124.33  3.8985661E-01
   7124.67  3.9473401E-01
   7125.00  4.0471518E-01
   7125.33  4.2269918E-01
   7125.67  4.4799881E-01
   7126.00  4.7913998E-01
   7126.33  5.1364113E-01
   7126.67  5.4914058E-01
   7127.00  5.8538631E-01
   7127.33  6.2259122E-01
   7127.67  6.6004039E-01
   7128.00  6.9667496E-01
   7128.33  7.3085190E-01
   7128.67  7.6132088E-01
   7129.00  7.8609881E-01
   7129.33  8.0083634E-01
   7129.67  8.0427114E-01
   7130.00  7.9689962E-01
   7130.33  7.8128784E-01
   7130.67  7.6276654E-01
   7131.00  7.4451983E-01
   7131.33  7.2976257E-01
   7131.67  7.1995632E-01
   7132.00  7.1589600E-01
   7132.33  7.1862128E-01
   7132.67  7.2644289E-01
   7133.00  7.3728483E-01
   7133.33  7.4813094E-01
   7133.67  7.5664227E-01
   7134.00  7.6187778E-01
   7134.33  7.6326985E-01
   7134.67  7.6140269E-01
   7135.00  7.5625492E-01
   7135.33  7.4734377E-01
   7135.67  7.3555664E-01
   7136.00  7.2202537E-01
   7136.33  7.0866147E-01
   7136.67  6.9723154E-01
   7137.00  6.8870228E-01
   7137.33  6.8377371E-01
   7137.67  6.8160553E-01
   7138.00  6.8143012E-01
   7138.33  6.8223548E-01
   7138.67  6.8274180E-01
   7139.00  6.8203435E-01
   7139.33  6.7899852E-01
   7139.67  6.7331598E-01
   7140.00  6.6473753E-01
   7140.33  6.5288661E-01
   7140.67  6.3839392E-01
   7141.00  6.2168013E-01
   7141.33  6.0319210E-01
   7141.67  5.8384820E-01
   7142.00  5.6425710E-01
   7142.33  5.4508870E-01
   7142.67  5.2677757E-01
   7143.00  5.0960897E-01
   7143.33  4.9393857E-01
   7143.67  4.7966021E-01
   7144.00  4.6674862E-01
   7144.33  4.5527243E-01
   7144.67  4.4494623E-01
   7145.00  4.3565589E-01
   7145.33  4.2739084E-01
   7145.67  4.1992957E-01
   7146.00  4.1319493E-01
   7146.33  4.0720045E-01
   7146.67  4.0182066E-01
   7147.00  3.9703676E-01
   7147.33  3.9291739E-01
   7147.67  3.8939658E-01
   7148.00  3.8648620E-01
   7148.33  3.8427551E-01
   7148.67  3.8268679E-01
   7149.00  3.8170537E-01
   7149.33  3.8136561E-01
   7149.67  3.8153980E-01
   7150.00  3.8216740E-01
   7150.33  3.8321515E-01
   7150.67  3.8455478E-01
   7151.00  3.8611654E-01
   7151.33  3.8783131E-01
   7151.67  3.8958367E-01
   7152.00  3.9127373E-01
   7152.33  3.9274958E-01
   7152.67  3.9391553E-01
   7153.00  3.9468912E-01
   7153.33  3.9495716E-01
   7153.67  3.9477810E-01
   7154.00  3.9420472E-01
   7154.33  3.9329739E-01
   7154.67  3.9220067E-01
   7155.00  3.9099431E-01
   7155.33  3.8974419E-01
   7155.67  3.8849663E-01
   7156.00  3.8726120E-01
   7156.33  3.8602423E-01
   7156.67  3.8475528E-01
   7157.00  3.8342242E-01
   7157.33  3.8197490E-01
   7157.67  3.8039158E-01
   7158.00  3.7864973E-01
   7158.33  3.7671222E-01
   7158.67  3.7460087E-01
   7159.00  3.7232972E-01
   7159.33  3.6991795E-01
   7159.67  3.6743653E-01
   7160.00  3.6494802E-01
   7160.33  3.6255107E-01
   7160.67  3.6033933E-01
   7161.00  3.5841033E-01
   7161.33  3.5692587E-01
   7161.67  3.5594045E-01
   7162.00  3.5553086E-01
   7162.33  3.5585097E-01
   7162.67  3.5687307E-01
   7163.00  3.5862729E-01
   7163.33  3.6122625E-01
   7163.67  3.6457770E-01
   7164.00  3.6867058E-01
   7164.33  3.7356876E-01
   7164.67  3.7914360E-01
   7165.00  3.8535110E-01
   7165.33  3.9219998E-01
   7165.67  3.9954448E-01
   7166.00  4.0731182E-01
   7166.33  4.1545004E-01
   7166.67  4.2381740E-01
   7167.00  4.3232306E-01
   7167.33  4.4086263E-01
   7167.67  4.4932492E-01
   7168.00  4.5762114E-01
   7168.33  4.6562229E-01
   7168.67  4.7327566E-01
   7169.00  4.8051880E-01
   7169.33  4.8723627E-01
   7169.67  4.9344704E-01
   7170.00  4.9913049E-01
   7170.33  5.0420859E-01
   7170.67  5.0874665E-01
   7171.00  5.1274535E-01
   7171.33  5.1613255E-01
   7171.67  5.1895289E-01
   7172.00  5.2116885E-01
