    FDMNES
    energy     <xanes>
   7097.00  5.1652477E-03
   7097.33  5.2857257E-03
   7097.67  5.4115669E-03
   7098.00  5.5431252E-03
   7098.33  5.6816266E-03
   7098.67  5.8268041E-03
   7099.00  5.9791361E-03
   7099.33  6.1402127E-03
   7099.67  6.3097553E-03
   7100.00  6.4884260E-03
   7100.33  6.6783381E-03
   7100.67  6.8792210E-03
   7101.00  7.0920185E-03
   7101.33  7.3196212E-03
   7101.67  7.5618108E-03
   7102.00  7.8199803E-03
   7102.33  8.0982216E-03
   7102.67  8.3964680E-03
   7103.00  8.7168627E-03
   7103.33  9.0654463E-03
   7103.67  9.4425280E-03
   7104.00  9.8515768E-03
   7104.33  1.0301990E-02
   7104.67  1.0794980E-02
   7105.00  1.1336535E-02
   7105.33  1.1942286E-02
   7105.67  1.2615686E-02
   7106.00  1.3367977E-02
   7106.33  1.4227577E-02
   7106.67  1.5203944E-02
   7107.00  1.6320733E-02
   7107.33  1.7636443E-02
   7107.67  1.9178948E-02
   7108.00  2.1006978E-02
   7108.33  2.3265547E-02
   7108.67  2.6052865E-02
   7109.00  2.9558111E-02
   7109.33  3.4268602E-02
   7109.67  4.0669545E-02
   7110.00  4.9701762E-02
   7110.33  6.4027583E-02
   7110.67  8.6771465E-02
   7111.00  1.2116164E-01
   7111.33  1.6672386E-01
   7111.67  2.1510727E-01
   7112.00  2.5718188E-01
   7112.33  2.7990858E-01
   7112.67  2.9368454E-01
   7113.00  3.1656231E-01
   7113.33  3.6141025E-01
   7113.67  4.1612204E-01
   7114.00  4.5264262E-01
   7114.33  4.3811673E-01
   7114.67  3.9360388E-01
   7115.00  3.4332070E-01
   7115.33  3.0296047E-01
   7115.67  2.7475570E-01
   7116.00  2.5691967E-01
   7116.33  2.4542704E-01
   7116.67  2.3401791E-01
   7117.00  2.1958989E-01
   7117.33  2.0280037E-01
   7117.67  1.8748869E-01
   7118.00  1.7573277E-01
   7118.33  1.6874782E-01
   7118.67  1.6566634E-01
   7119.00  1.6551840E-01
   7119.33  1.6689608E-01
   7119.67  1.6868729E-01
   7120.00  1.7081367E-01
   7120.33  1.7313810E-01
   7120.67  1.7496780E-01
   7121.00  1.7605609E-01
   7121.33  1.7730288E-01
   7121.67  1.7978806E-01
   7122.00  1.8400264E-01
   7122.33  1.9051526E-01
   7122.67  1.9926859E-01
   7123.00  2.1020856E-01
   7123.33  2.2305729E-01
   7123.67  2.3694487E-01
   7124.00  2.5165731E-01
   7124.33  2.6779828E-01
   7124.67  2.8619663E-01
   7125.00  3.0784584E-01
   7125.33  3.3419999E-01
   7125.67  3.6485137E-01
   7126.00  3.9880113E-01
   7126.33  4.3371805E-01
   7126.67  4.6655119E-01
   7127.00  4.9534724E-01
   7127.33  5.1846886E-01
   7127.67  5.3669754E-01
   7128.00  5.5085591E-01
   7128.33  5.6216687E-01
   7128.67  5.7285540E-01
   7129.00  5.8440952E-01
   7129.33  5.9794561E-01
   7129.67  6.1311631E-01
   7130.00  6.2934649E-01
   7130.33  6.4613403E-01
   7130.67  6.6338741E-01
   7131.00  6.8145054E-01
   7131.33  7.0079284E-01
   7131.67  7.2103862E-01
   7132.00  7.4143319E-01
   7132.33  7.6053971E-01
   7132.67  7.7715782E-01
   7133.00  7.9036309E-01
   7133.33  7.9895609E-01
   7133.67  8.0310844E-01
   7134.00  8.0269408E-01
   7134.33  7.9707169E-01
   7134.67  7.8677153E-01
   7135.00  7.7180478E-01
   7135.33  7.5193083E-01
   7135.67  7.2850354E-01
   7136.00  7.0258394E-01
   7136.33  6.7546219E-01
   7136.67  6.4863002E-01
   7137.00  6.2305514E-01
   7137.33  5.9981569E-01
   7137.67  5.7917711E-01
   7138.00  5.6141160E-01
   7138.33  5.4702767E-01
   7138.67  5.3559728E-01
   7139.00  5.2694917E-01
   7139.33  5.2108957E-01
   7139.67  5.1734898E-01
   7140.00  5.1541230E-01
   7140.33  5.1511231E-01
   7140.67  5.1594618E-01
   7141.00  5.1765731E-01
   7141.33  5.2002694E-01
   7141.67  5.2267847E-01
   7142.00  5.2533182E-01
   7142.33  5.2760552E-01
   7142.67  5.2923929E-01
   7143.00  5.3004416E-01
   7143.33  5.2977426E-01
   7143.67  5.2849455E-01
   7144.00  5.2621639E-01
   7144.33  5.2292116E-01
   7144.67  5.1888382E-01
   7145.00  5.1427362E-01
   7145.33  5.0925324E-01
   7145.67  5.0407116E-01
   7146.00  4.9888974E-01
   7146.33  4.9390292E-01
   7146.67  4.8924328E-01
   7147.00  4.8502946E-01
   7147.33  4.8145463E-01
   7147.67  4.7855210E-01
   7148.00  4.7639638E-01
   7148.33  4.7515822E-01
   7148.67  4.7478574E-01
   7149.00  4.7530791E-01
   7149.33  4.7685754E-01
   7149.67  4.7932395E-01
   7150.00  4.8269752E-01
   7150.33  4.8705388E-01
   7150.67  4.9222092E-01
   7151.00  4.9812585E-01
   7151.33  5.0473887E-01
   7151.67  5.1184651E-01
   7152.00  5.1931553E-01
   7152.33  5.2700374E-01
   7152.67  5.3471964E-01
   7153.00  5.4232871E-01
   7153.33  5.4966410E-01
   7153.67  5.5664793E-01
   7154.00  5.6321258E-01
   7154.33  5.6925022E-01
   7154.67  5.7479700E-01
   7155.00  5.7984996E-01
   7155.33  5.8435869E-01
   7155.67  5.8840234E-01
   7156.00  5.9200017E-01
   7156.33  5.9512381E-01
   7156.67  5.9785104E-01
   7157.00  6.0020351E-01
   7157.33  6.0216333E-01
   7157.67  6.0380052E-01
   7158.00  6.0513774E-01
   7158.33  6.0616630E-01
   7158.67  6.0694584E-01
   7159.00  6.0749822E-01
   7159.33  6.0782239E-01
   7159.67  6.0796497E-01
   7160.00  6.0794102E-01
   7160.33  6.0774252E-01
   7160.67  6.0739048E-01
   7161.00  6.0687774E-01
   7161.33  6.0616284E-01
   7161.67  6.0523684E-01
   7162.00  6.0406401E-01
   7162.33  6.0255781E-01
   7162.67  6.0070231E-01
   7163.00  5.9845559E-01
   7163.33  5.9572478E-01
   7163.67  5.9253876E-01
   7164.00  5.8888324E-01
   7164.33  5.8469368E-01
   7164.67  5.8004198E-01
   7165.00  5.7495342E-01
   7165.33  5.6942384E-01
   7165.67  5.6356063E-01
   7166.00  5.5742044E-01
   7166.33  5.5104602E-01
   7166.67  5.4453294E-01
   7167.00  5.3793952E-01
   7167.33  5.3132622E-01
   7167.67  5.2474972E-01
   7168.00  5.1825028E-01
   7168.33  5.1188223E-01
   7168.67  5.0566445E-01
   7169.00  4.9962139E-01
   7169.33  4.9379815E-01
   7169.67  4.8818541E-01
   7170.00  4.8279652E-01
   7170.33  4.7768079E-01
   7170.67  4.7283501E-01
   7171.00  4.6829518E-01
   7171.33  4.6418045E-01
   7171.67  4.6057846E-01
   7172.00  4.5766541E-01
