    FDMNES
    energy     <xanes>
   7097.00  4.2705493E-03
   7097.33  4.3530312E-03
   7097.67  4.4385568E-03
   7098.00  4.5273044E-03
   7098.33  4.6199334E-03
   7098.67  4.7162652E-03
   7099.00  4.8165389E-03
   7099.33  4.9215942E-03
   7099.67  5.0312456E-03
   7100.00  5.1458230E-03
   7100.33  5.2664276E-03
   7100.67  5.3928787E-03
   7101.00  5.5256497E-03
   7101.33  5.6662356E-03
   7101.67  5.8144902E-03
   7102.00  5.9711226E-03
   7102.33  6.1382546E-03
   7102.67  6.3158408E-03
   7103.00  6.5050032E-03
   7103.33  6.7089241E-03
   7103.67  6.9278165E-03
   7104.00  7.1635790E-03
   7104.33  7.4213312E-03
   7104.67  7.7019414E-03
   7105.00  8.0089031E-03
   7105.33  8.3512349E-03
   7105.67  8.7315459E-03
   7106.00  9.1570031E-03
   7106.33  9.6455125E-03
   7106.67  1.0204805E-02
   7107.00  1.0851891E-02
   7107.33  1.1628650E-02
   7107.67  1.2560581E-02
   7108.00  1.3697322E-02
   7108.33  1.5163055E-02
   7108.67  1.7063243E-02
   7109.00  1.9596115E-02
   7109.33  2.3294350E-02
   7109.67  2.8804595E-02
   7110.00  3.7406796E-02
   7110.33  5.2840618E-02
   7110.67  7.8995474E-02
   7111.00  1.1469289E-01
   7111.33  1.3664428E-01
   7111.67  1.4018312E-01
   7112.00  1.3851607E-01
   7112.33  1.2303804E-01
   7112.67  1.0095851E-01
   7113.00  8.1413781E-02
   7113.33  6.6862472E-02
   7113.67  5.6612258E-02
   7114.00  4.9961945E-02
   7114.33  4.5248531E-02
   7114.67  4.1120178E-02
   7115.00  3.8105878E-02
   7115.33  3.6660605E-02
   7115.67  3.6433520E-02
   7116.00  3.7289512E-02
   7116.33  3.9261850E-02
   7116.67  4.2162833E-02
   7117.00  4.5947639E-02
   7117.33  5.0717056E-02
   7117.67  5.6452819E-02
   7118.00  6.3333106E-02
   7118.33  7.1789717E-02
   7118.67  8.1758291E-02
   7119.00  9.2999198E-02
   7119.33  1.0469069E-01
   7119.67  1.1546807E-01
   7120.00  1.2443417E-01
   7120.33  1.3130598E-01
   7120.67  1.3734490E-01
   7121.00  1.4383179E-01
   7121.33  1.5233817E-01
   7121.67  1.6342935E-01
   7122.00  1.7729420E-01
   7122.33  1.9449593E-01
   7122.67  2.1553976E-01
   7123.00  2.4172034E-01
   7123.33  2.7547574E-01
   7123.67  3.1733263E-01
   7124.00  3.6810143E-01
   7124.33  4.2864411E-01
   7124.67  4.9457269E-01
   7125.00  5.5878387E-01
   7125.33  6.0666313E-01
   7125.67  6.2997834E-01
   7126.00  6.3060344E-01
   7126.33  6.2192415E-01
   7126.67  6.1972293E-01
   7127.00  6.2822122E-01
   7127.33  6.4507866E-01
   7127.67  6.6491609E-01
   7128.00  6.8605323E-01
   7128.33  7.0865892E-01
   7128.67  7.3309520E-01
   7129.00  7.5942126E-01
   7129.33  7.8742593E-01
   7129.67  8.1625460E-01
   7130.00  8.4488798E-01
   7130.33  8.7067952E-01
   7130.67  8.9044519E-01
   7131.00  9.0120575E-01
   7131.33  8.9984101E-01
   7131.67  8.8859079E-01
   7132.00  8.6982217E-01
   7132.33  8.4608783E-01
   7132.67  8.2030063E-01
   7133.00  7.9377613E-01
   7133.33  7.6783513E-01
   7133.67  7.4397243E-01
   7134.00  7.2377213E-01
   7134.33  7.0905985E-01
   7134.67  6.9875353E-01
   7135.00  6.9127486E-01
   7135.33  6.8482634E-01
   7135.67  6.7823139E-01
   7136.00  6.7127831E-01
   7136.33  6.6410261E-01
   7136.67  6.5698113E-01
   7137.00  6.5007422E-01
   7137.33  6.4351871E-01
   7137.67  6.3730417E-01
   7138.00  6.3142735E-01
   7138.33  6.2591431E-01
   7138.67  6.2069348E-01
   7139.00  6.1570558E-01
   7139.33  6.1082869E-01
   7139.67  6.0583337E-01
   7140.00  6.0047755E-01
   7140.33  5.9437727E-01
   7140.67  5.8737223E-01
   7141.00  5.7936783E-01
   7141.33  5.7032355E-01
   7141.67  5.6062624E-01
   7142.00  5.5061829E-01
   7142.33  5.4075225E-01
   7142.67  5.3140696E-01
   7143.00  5.2284304E-01
   7143.33  5.1536630E-01
   7143.67  5.0892569E-01
   7144.00  5.0351047E-01
   7144.33  4.9917290E-01
   7144.67  4.9570054E-01
   7145.00  4.9301014E-01
   7145.33  4.9109025E-01
   7145.67  4.8976175E-01
   7146.00  4.8895016E-01
   7146.33  4.8863185E-01
   7146.67  4.8868228E-01
   7147.00  4.8904686E-01
   7147.33  4.8969581E-01
   7147.67  4.9053366E-01
   7148.00  4.9150035E-01
   7148.33  4.9252420E-01
   7148.67  4.9351459E-01
   7149.00  4.9439718E-01
   7149.33  4.9506110E-01
   7149.67  4.9545176E-01
   7150.00  4.9551367E-01
   7150.33  4.9515424E-01
   7150.67  4.9439711E-01
   7151.00  4.9323953E-01
   7151.33  4.9164415E-01
   7151.67  4.8967955E-01
   7152.00  4.8736472E-01
   7152.33  4.8467498E-01
   7152.67  4.8165612E-01
   7153.00  4.7829811E-01
   7153.33  4.7452764E-01
   7153.67  4.7035156E-01
   7154.00  4.6573490E-01
   7154.33  4.6058878E-01
   7154.67  4.5496864E-01
   7155.00  4.4890010E-01
   7155.33  4.4239782E-01
   7155.67  4.3560136E-01
   7156.00  4.2860280E-01
   7156.33  4.2150199E-01
   7156.67  4.1441641E-01
   7157.00  4.0742753E-01
   7157.33  4.0063789E-01
   7157.67  3.9409278E-01
   7158.00  3.8784399E-01
   7158.33  3.8199337E-01
   7158.67  3.7655573E-01
   7159.00  3.7158526E-01
   7159.33  3.6721725E-01
   7159.67  3.6345606E-01
   7160.00  3.6036137E-01
   7160.33  3.5808743E-01
   7160.67  3.5659203E-01
   7161.00  3.5589977E-01
   7161.33  3.5611616E-01
   7161.67  3.5711703E-01
   7162.00  3.5886027E-01
   7162.33  3.6136000E-01
   7162.67  3.6443732E-01
   7163.00  3.6799370E-01
   7163.33  3.7194371E-01
   7163.67  3.7610002E-01
   7164.00  3.8036250E-01
   7164.33  3.8465325E-01
   7164.67  3.8890912E-01
   7165.00  3.9309304E-01
   7165.33  3.9716918E-01
   7165.67  4.0114391E-01
   7166.00  4.0502339E-01
   7166.33  4.0881360E-01
   7166.67  4.1254518E-01
   7167.00  4.1623623E-01
   7167.33  4.1989796E-01
   7167.67  4.2354022E-01
   7168.00  4.2716866E-01
   7168.33  4.3078644E-01
   7168.67  4.3439431E-01
   7169.00  4.3798833E-01
   7169.33  4.4155782E-01
   7169.67  4.4509347E-01
   7170.00  4.4858076E-01
   7170.33  4.5198795E-01
   7170.67  4.5529591E-01
   7171.00  4.5847294E-01
   7171.33  4.6142481E-01
   7171.67  4.6404986E-01
   7172.00  4.6618903E-01
