    FDMNES
    energy     <xanes>
   7097.00  5.5934732E-03
   7097.33  5.7453061E-03
   7097.67  5.9048915E-03
   7098.00  6.0727985E-03
   7098.33  6.2508958E-03
   7098.67  6.4388756E-03
   7099.00  6.6375249E-03
   7099.33  6.8493320E-03
   7099.67  7.0739945E-03
   7100.00  7.3126294E-03
   7100.33  7.5686371E-03
   7100.67  7.8417662E-03
   7101.00  8.1336505E-03
   7101.33  8.4490807E-03
   7101.67  8.7879549E-03
   7102.00  9.1527499E-03
   7102.33  9.5504632E-03
   7102.67  9.9813575E-03
   7103.00  1.0449351E-02
   7103.33  1.0965123E-02
   7103.67  1.1529781E-02
   7104.00  1.2149857E-02
   7104.33  1.2842547E-02
   7104.67  1.3610943E-02
   7105.00  1.4466665E-02
   7105.33  1.5439361E-02
   7105.67  1.6536998E-02
   7106.00  1.7782057E-02
   7106.33  1.9230439E-02
   7106.67  2.0903173E-02
   7107.00  2.2848956E-02
   7107.33  2.5186967E-02
   7107.67  2.7978334E-02
   7108.00  3.1347008E-02
   7108.33  3.5597329E-02
   7108.67  4.0943113E-02
   7109.00  4.7789407E-02
   7109.33  5.7175673E-02
   7109.67  7.0143710E-02
   7110.00  8.8696802E-02
   7110.33  1.1846249E-01
   7110.67  1.6594713E-01
   7111.00  2.3823333E-01
   7111.33  3.4111746E-01
   7111.67  4.5821612E-01
   7112.00  5.5784564E-01
   7112.33  6.5521223E-01
   7112.67  7.7048231E-01
   7113.00  8.4028450E-01
   7113.33  7.6891291E-01
   7113.67  6.2318531E-01
   7114.00  4.8192613E-01
   7114.33  3.8149515E-01
   7114.67  3.1196167E-01
   7115.00  2.6428196E-01
   7115.33  2.3243662E-01
   7115.67  2.1001347E-01
   7116.00  1.9488113E-01
   7116.33  1.8626251E-01
   7116.67  1.8147558E-01
   7117.00  1.7787873E-01
   7117.33  1.7268992E-01
   7117.67  1.6599085E-01
   7118.00  1.5890331E-01
   7118.33  1.5255340E-01
   7118.67  1.4730301E-01
   7119.00  1.4301098E-01
   7119.33  1.3884307E-01
   7119.67  1.3376049E-01
   7120.00  1.2797813E-01
   7120.33  1.2352806E-01
   7120.67  1.2148201E-01
   7121.00  1.2162480E-01
   7121.33  1.2358233E-01
   7121.67  1.2675550E-01
   7122.00  1.3088487E-01
   7122.33  1.3581117E-01
   7122.67  1.4123864E-01
   7123.00  1.4698895E-01
   7123.33  1.5312455E-01
   7123.67  1.6003530E-01
   7124.00  1.6824899E-01
   7124.33  1.7855055E-01
   7124.67  1.9103425E-01
   7125.00  2.0561078E-01
   7125.33  2.2158268E-01
   7125.67  2.3707612E-01
   7126.00  2.5047981E-01
   7126.33  2.6075862E-01
   7126.67  2.6960550E-01
   7127.00  2.7930963E-01
   7127.33  2.9309992E-01
   7127.67  3.1267623E-01
   7128.00  3.3925636E-01
   7128.33  3.7452097E-01
   7128.67  4.1723229E-01
   7129.00  4.6567827E-01
   7129.33  5.1561787E-01
   7129.67  5.6099571E-01
   7130.00  5.9798452E-01
   7130.33  6.2465783E-01
   7130.67  6.4478173E-01
   7131.00  6.6142728E-01
   7131.33  6.7702745E-01
   7131.67  6.9237817E-01
   7132.00  7.0681697E-01
   7132.33  7.1890840E-01
   7132.67  7.2841030E-01
   7133.00  7.3576056E-01
   7133.33  7.4188446E-01
   7133.67  7.4731362E-01
   7134.00  7.5044266E-01
   7134.33  7.4613512E-01
   7134.67  7.3202205E-01
   7135.00  7.0884515E-01
   7135.33  6.7906666E-01
   7135.67  6.4638103E-01
   7136.00  6.1253477E-01
   7136.33  5.7899884E-01
   7136.67  5.4691045E-01
   7137.00  5.1723943E-01
   7137.33  4.9154727E-01
   7137.67  4.7039932E-01
   7138.00  4.5446320E-01
   7138.33  4.4488480E-01
   7138.67  4.4094445E-01
   7139.00  4.4221069E-01
   7139.33  4.4820055E-01
   7139.67  4.5696552E-01
   7140.00  4.6717678E-01
   7140.33  4.7752606E-01
   7140.67  4.8720250E-01
   7141.00  4.9601682E-01
   7141.33  5.0411327E-01
   7141.67  5.1202486E-01
   7142.00  5.2013805E-01
   7142.33  5.2882851E-01
   7142.67  5.3814905E-01
   7143.00  5.4806218E-01
   7143.33  5.5848021E-01
   7143.67  5.6916516E-01
   7144.00  5.7997764E-01
   7144.33  5.9081423E-01
   7144.67  6.0163843E-01
   7145.00  6.1247276E-01
   7145.33  6.2339568E-01
   7145.67  6.3448722E-01
   7146.00  6.4582210E-01
   7146.33  6.5750397E-01
   7146.67  6.6951921E-01
   7147.00  6.8185349E-01
   7147.33  6.9449842E-01
   7147.67  7.0735303E-01
   7148.00  7.2033520E-01
   7148.33  7.3332444E-01
   7148.67  7.4617655E-01
   7149.00  7.5875234E-01
   7149.33  7.7081985E-01
   7149.67  7.8225685E-01
   7150.00  7.9291462E-01
   7150.33  8.0250076E-01
   7150.67  8.1096667E-01
   7151.00  8.1818075E-01
   7151.33  8.2383673E-01
   7151.67  8.2799994E-01
   7152.00  8.3060074E-01
   7152.33  8.3138602E-01
   7152.67  8.3053972E-01
   7153.00  8.2807282E-01
   7153.33  8.2383008E-01
   7153.67  8.1807973E-01
   7154.00  8.1090183E-01
   7154.33  8.0224254E-01
   7154.67  7.9239102E-01
   7155.00  7.8146221E-01
   7155.33  7.6948348E-01
   7155.67  7.5672393E-01
   7156.00  7.4331562E-01
   7156.33  7.2934680E-01
   7156.67  7.1502660E-01
   7157.00  7.0047795E-01
   7157.33  6.8582579E-01
   7157.67  6.7120831E-01
   7158.00  6.5672603E-01
   7158.33  6.4251487E-01
   7158.67  6.2863726E-01
   7159.00  6.1516061E-01
   7159.33  6.0220407E-01
   7159.67  5.8975355E-01
   7160.00  5.7783330E-01
   7160.33  5.6652290E-01
   7160.67  5.5574916E-01
   7161.00  5.4549357E-01
   7161.33  5.3577759E-01
   7161.67  5.2649096E-01
   7162.00  5.1758556E-01
   7162.33  5.0903654E-01
   7162.67  5.0073771E-01
   7163.00  4.9263423E-01
   7163.33  4.8468649E-01
   7163.67  4.7683402E-01
   7164.00  4.6905454E-01
   7164.33  4.6134862E-01
   7164.67  4.5371948E-01
   7165.00  4.4618940E-01
   7165.33  4.3880999E-01
   7165.67  4.3160375E-01
   7166.00  4.2460284E-01
   7166.33  4.1786768E-01
   7166.67  4.1139012E-01
   7167.00  4.0517892E-01
   7167.33  3.9925733E-01
   7167.67  3.9356304E-01
   7168.00  3.8806505E-01
   7168.33  3.8274899E-01
   7168.67  3.7756121E-01
   7169.00  3.7247442E-01
   7169.33  3.6747223E-01
   7169.67  3.6253178E-01
   7170.00  3.5765452E-01
   7170.33  3.5286883E-01
   7170.67  3.4820463E-01
   7171.00  3.4371965E-01
   7171.33  3.3955675E-01
   7171.67  3.3585582E-01
   7172.00  3.3282748E-01
