    FDMNES
    energy     <xanes>
   7097.00  5.1366110E-03
   7097.33  5.2611478E-03
   7097.67  5.3914002E-03
   7098.00  5.5277534E-03
   7098.33  5.6715262E-03
   7098.67  5.8224440E-03
   7099.00  5.9810279E-03
   7099.33  6.1489952E-03
   7099.67  6.3260597E-03
   7100.00  6.5129445E-03
   7100.33  6.7119393E-03
   7100.67  6.9227679E-03
   7101.00  7.1464619E-03
   7101.33  7.3861614E-03
   7101.67  7.6416475E-03
   7102.00  7.9144429E-03
   7102.33  8.2089992E-03
   7102.67  8.5252609E-03
   7103.00  8.8655665E-03
   7103.33  9.2364881E-03
   7103.67  9.6383706E-03
   7104.00  1.0074986E-02
   7104.33  1.0556537E-02
   7104.67  1.1084324E-02
   7105.00  1.1664819E-02
   7105.33  1.2314919E-02
   7105.67  1.3038271E-02
   7106.00  1.3846929E-02
   7106.33  1.4771393E-02
   7106.67  1.5821579E-02
   7107.00  1.7022624E-02
   7107.33  1.8436802E-02
   7107.67  2.0093344E-02
   7108.00  2.2054456E-02
   7108.33  2.4474363E-02
   7108.67  2.7458490E-02
   7109.00  3.1212079E-02
   7109.33  3.6272358E-02
   7109.67  4.3204036E-02
   7110.00  5.3119793E-02
   7110.33  6.9102476E-02
   7110.67  9.3244916E-02
   7111.00  1.2151877E-01
   7111.33  1.4305620E-01
   7111.67  1.7334182E-01
   7112.00  2.2744479E-01
   7112.33  2.9877078E-01
   7112.67  3.5501731E-01
   7113.00  4.0746297E-01
   7113.33  4.8802530E-01
   7113.67  6.0209488E-01
   7114.00  6.8974626E-01
   7114.33  6.2607059E-01
   7114.67  4.9090709E-01
   7115.00  3.7074300E-01
   7115.33  2.9436095E-01
   7115.67  2.4878261E-01
   7116.00  2.2685708E-01
   7116.33  2.2554510E-01
   7116.67  2.3453839E-01
   7117.00  2.4161110E-01
   7117.33  2.3461113E-01
   7117.67  2.1688681E-01
   7118.00  1.9557281E-01
   7118.33  1.7688811E-01
   7118.67  1.6205254E-01
   7119.00  1.5085649E-01
   7119.33  1.4301434E-01
   7119.67  1.3736420E-01
   7120.00  1.3326972E-01
   7120.33  1.3030984E-01
   7120.67  1.2821361E-01
   7121.00  1.2716286E-01
   7121.33  1.2719314E-01
   7121.67  1.2739129E-01
   7122.00  1.2731959E-01
   7122.33  1.2748336E-01
   7122.67  1.2849533E-01
   7123.00  1.3051421E-01
   7123.33  1.3358268E-01
   7123.67  1.3750439E-01
   7124.00  1.4232750E-01
   7124.33  1.4838548E-01
   7124.67  1.5572999E-01
   7125.00  1.6441944E-01
   7125.33  1.7469088E-01
   7125.67  1.8661721E-01
   7126.00  2.0054212E-01
   7126.33  2.1694070E-01
   7126.67  2.3516762E-01
   7127.00  2.5466823E-01
   7127.33  2.7564586E-01
   7127.67  2.9893679E-01
   7128.00  3.2483859E-01
   7128.33  3.5159602E-01
   7128.67  3.7675114E-01
   7129.00  4.0061451E-01
   7129.33  4.2676210E-01
   7129.67  4.5903670E-01
   7130.00  4.9987301E-01
   7130.33  5.5073176E-01
   7130.67  6.0943829E-01
   7131.00  6.7611994E-01
   7131.33  7.5230216E-01
   7131.67  8.3492687E-01
   7132.00  9.2007779E-01
   7132.33  1.0017324E+00
   7132.67  1.0747988E+00
   7133.00  1.1351428E+00
   7133.33  1.1761673E+00
   7133.67  1.1958203E+00
   7134.00  1.1916399E+00
   7134.33  1.1609888E+00
   7134.67  1.1110124E+00
   7135.00  1.0473502E+00
   7135.33  9.7605732E-01
   7135.67  9.0367486E-01
   7136.00  8.3361375E-01
   7136.33  7.6887967E-01
   7136.67  7.1008651E-01
   7137.00  6.5767333E-01
   7137.33  6.1259952E-01
   7137.67  5.7400549E-01
   7138.00  5.4177834E-01
   7138.33  5.1646156E-01
   7138.67  4.9691497E-01
   7139.00  4.8266203E-01
   7139.33  4.7352738E-01
   7139.67  4.6806859E-01
   7140.00  4.6552477E-01
   7140.33  4.6537040E-01
   7140.67  4.6672959E-01
   7141.00  4.6924378E-01
   7141.33  4.7277715E-01
   7141.67  4.7709577E-01
   7142.00  4.8214954E-01
   7142.33  4.8797382E-01
   7142.67  4.9439975E-01
   7143.00  5.0131369E-01
   7143.33  5.0858348E-01
   7143.67  5.1599136E-01
   7144.00  5.2341437E-01
   7144.33  5.3076377E-01
   7144.67  5.3802817E-01
   7145.00  5.4521089E-01
   7145.33  5.5228132E-01
   7145.67  5.5917779E-01
   7146.00  5.6579177E-01
   7146.33  5.7190783E-01
   7146.67  5.7740319E-01
   7147.00  5.8212401E-01
   7147.33  5.8579526E-01
   7147.67  5.8842233E-01
   7148.00  5.8995974E-01
   7148.33  5.9028407E-01
   7148.67  5.8960894E-01
   7149.00  5.8804915E-01
   7149.33  5.8569211E-01
   7149.67  5.8283188E-01
   7150.00  5.7965840E-01
   7150.33  5.7638818E-01
   7150.67  5.7324536E-01
   7151.00  5.7039302E-01
   7151.33  5.6805119E-01
   7151.67  5.6629427E-01
   7152.00  5.6520624E-01
   7152.33  5.6494389E-01
   7152.67  5.6544608E-01
   7153.00  5.6670872E-01
   7153.33  5.6878037E-01
   7153.67  5.7149090E-01
   7154.00  5.7474606E-01
   7154.33  5.7846148E-01
   7154.67  5.8242884E-01
   7155.00  5.8650388E-01
   7155.33  5.9051135E-01
   7155.67  5.9430310E-01
   7156.00  5.9776360E-01
   7156.33  6.0073297E-01
   7156.67  6.0319600E-01
   7157.00  6.0512057E-01
   7157.33  6.0642882E-01
   7157.67  6.0720334E-01
   7158.00  6.0746887E-01
   7158.33  6.0720325E-01
   7158.67  6.0650466E-01
   7159.00  6.0540414E-01
   7159.33  6.0388524E-01
   7159.67  6.0201888E-01
   7160.00  5.9982007E-01
   7160.33  5.9725788E-01
   7160.67  5.9437515E-01
   7161.00  5.9116847E-01
   7161.33  5.8758578E-01
   7161.67  5.8365095E-01
   7162.00  5.7934456E-01
   7162.33  5.7459983E-01
   7162.67  5.6945058E-01
   7163.00  5.6388666E-01
   7163.33  5.5785037E-01
   7163.67  5.5139811E-01
   7164.00  5.4454105E-01
   7164.33  5.3725311E-01
   7164.67  5.2961274E-01
   7165.00  5.2165283E-01
   7165.33  5.1338554E-01
   7165.67  5.0489915E-01
   7166.00  4.9624610E-01
   7166.33  4.8748136E-01
   7166.67  4.7868934E-01
   7167.00  4.6993357E-01
   7167.33  4.6130256E-01
   7167.67  4.5285652E-01
   7168.00  4.4465671E-01
   7168.33  4.3680734E-01
   7168.67  4.2932644E-01
   7169.00  4.2225613E-01
   7169.33  4.1569140E-01
   7169.67  4.0960292E-01
   7170.00  4.0400251E-01
   7170.33  3.9895222E-01
   7170.67  3.9439025E-01
   7171.00  3.9032048E-01
   7171.33  3.8682174E-01
   7171.67  3.8387236E-01
   7172.00  3.8153164E-01
