    FDMNES
    energy     <xanes>
   7097.00  4.7829233E-03
   7097.33  4.8968568E-03
   7097.67  5.0160068E-03
   7098.00  5.1407305E-03
   7098.33  5.2722424E-03
   7098.67  5.4103018E-03
   7099.00  5.5553969E-03
   7099.33  5.7091207E-03
   7099.67  5.8712286E-03
   7100.00  6.0424056E-03
   7100.33  6.2247965E-03
   7100.67  6.4181779E-03
   7101.00  6.6235414E-03
   7101.33  6.8438650E-03
   7101.67  7.0790024E-03
   7102.00  7.3304426E-03
   7102.33  7.6024756E-03
   7102.67  7.8951560E-03
   7103.00  8.2108195E-03
   7103.33  8.5559308E-03
   7103.67  8.9310248E-03
   7104.00  9.3399689E-03
   7104.33  9.7930641E-03
   7104.67  1.0291992E-02
   7105.00  1.0843606E-02
   7105.33  1.1465534E-02
   7105.67  1.2162323E-02
   7106.00  1.2947238E-02
   7106.33  1.3853439E-02
   7106.67  1.4893299E-02
   7107.00  1.6095784E-02
   7107.33  1.7532072E-02
   7107.67  1.9239263E-02
   7108.00  2.1292701E-02
   7108.33  2.3878512E-02
   7108.67  2.7132532E-02
   7109.00  3.1312855E-02
   7109.33  3.7091441E-02
   7109.67  4.5182033E-02
   7110.00  5.6975409E-02
   7110.33  7.6463431E-02
   7110.67  1.0834440E-01
   7111.00  1.5633144E-01
   7111.33  2.1123677E-01
   7111.67  2.5209203E-01
   7112.00  2.7957562E-01
   7112.33  3.0697288E-01
   7112.67  3.3924993E-01
   7113.00  3.8770337E-01
   7113.33  4.5342640E-01
   7113.67  4.8251939E-01
   7114.00  4.3007266E-01
   7114.33  3.2792403E-01
   7114.67  2.4637226E-01
   7115.00  1.9888611E-01
   7115.33  1.8010800E-01
   7115.67  1.7269612E-01
   7116.00  1.6388599E-01
   7116.33  1.4791717E-01
   7116.67  1.3093189E-01
   7117.00  1.1687915E-01
   7117.33  1.0748011E-01
   7117.67  1.0187364E-01
   7118.00  9.9583358E-02
   7118.33  1.0047067E-01
   7118.67  1.0364113E-01
   7119.00  1.0843766E-01
   7119.33  1.1382246E-01
   7119.67  1.1846364E-01
   7120.00  1.2159425E-01
   7120.33  1.2289984E-01
   7120.67  1.2315170E-01
   7121.00  1.2301424E-01
   7121.33  1.2319232E-01
   7121.67  1.2416220E-01
   7122.00  1.2630558E-01
   7122.33  1.3031483E-01
   7122.67  1.3662285E-01
   7123.00  1.4602000E-01
   7123.33  1.6046091E-01
   7123.67  1.8147612E-01
   7124.00  2.1133011E-01
   7124.33  2.5336436E-01
   7124.67  3.0440015E-01
   7125.00  3.5651298E-01
   7125.33  3.8864372E-01
   7125.67  3.8645036E-01
   7126.00  3.5789006E-01
   7126.33  3.2689499E-01
   7126.67  3.0646020E-01
   7127.00  2.9854610E-01
   7127.33  3.0359692E-01
   7127.67  3.1786970E-01
   7128.00  3.3883389E-01
   7128.33  3.6341621E-01
   7128.67  3.8822608E-01
   7129.00  4.1285020E-01
   7129.33  4.4066224E-01
   7129.67  4.7650315E-01
   7130.00  5.2464812E-01
   7130.33  5.8930305E-01
   7130.67  6.6550094E-01
   7131.00  7.4510758E-01
   7131.33  8.1463605E-01
   7131.67  8.6685656E-01
   7132.00  9.0043615E-01
   7132.33  9.1584123E-01
   7132.67  9.1877755E-01
   7133.00  9.1246361E-01
   7133.33  8.9951504E-01
   7133.67  8.8295655E-01
   7134.00  8.6362387E-01
   7134.33  8.4137722E-01
   7134.67  8.1708576E-01
   7135.00  7.9196822E-01
   7135.33  7.6774851E-01
   7135.67  7.4537891E-01
   7136.00  7.2518651E-01
   7136.33  7.0738344E-01
   7136.67  6.9142862E-01
   7137.00  6.7703301E-01
   7137.33  6.6403583E-01
   7137.67  6.5204164E-01
   7138.00  6.4093089E-01
   7138.33  6.3077792E-01
   7138.67  6.2154734E-01
   7139.00  6.1336075E-01
   7139.33  6.0654587E-01
   7139.67  6.0111993E-01
   7140.00  5.9719140E-01
   7140.33  5.9501031E-01
   7140.67  5.9435532E-01
   7141.00  5.9513969E-01
   7141.33  5.9736128E-01
   7141.67  6.0065260E-01
   7142.00  6.0480970E-01
   7142.33  6.0964558E-01
   7142.67  6.1480490E-01
   7143.00  6.2005506E-01
   7143.33  6.2516140E-01
   7143.67  6.3001400E-01
   7144.00  6.3458031E-01
   7144.33  6.3884027E-01
   7144.67  6.4285289E-01
   7145.00  6.4663335E-01
   7145.33  6.5017964E-01
   7145.67  6.5356818E-01
   7146.00  6.5686378E-01
   7146.33  6.6011421E-01
   7146.67  6.6328868E-01
   7147.00  6.6627031E-01
   7147.33  6.6879685E-01
   7147.67  6.7066636E-01
   7148.00  6.7165862E-01
   7148.33  6.7141682E-01
   7148.67  6.6993354E-01
   7149.00  6.6716124E-01
   7149.33  6.6298686E-01
   7149.67  6.5770285E-01
   7150.00  6.5148204E-01
   7150.33  6.4447396E-01
   7150.67  6.3700496E-01
   7151.00  6.2926141E-01
   7151.33  6.2141465E-01
   7151.67  6.1361405E-01
   7152.00  6.0594069E-01
   7152.33  5.9846983E-01
   7152.67  5.9119176E-01
   7153.00  5.8409121E-01
   7153.33  5.7714606E-01
   7153.67  5.7029234E-01
   7154.00  5.6348325E-01
   7154.33  5.5664369E-01
   7154.67  5.4969934E-01
   7155.00  5.4258670E-01
   7155.33  5.3521027E-01
   7155.67  5.2754550E-01
   7156.00  5.1955811E-01
   7156.33  5.1117915E-01
   7156.67  5.0244465E-01
   7157.00  4.9336425E-01
   7157.33  4.8392783E-01
   7157.67  4.7422262E-01
   7158.00  4.6430121E-01
   7158.33  4.5421468E-01
   7158.67  4.4405489E-01
   7159.00  4.3388518E-01
   7159.33  4.2378631E-01
   7159.67  4.1382784E-01
   7160.00  4.0408811E-01
   7160.33  3.9472306E-01
   7160.67  3.8583446E-01
   7161.00  3.7756443E-01
   7161.33  3.7018126E-01
   7161.67  3.6373326E-01
   7162.00  3.5830383E-01
   7162.33  3.5405088E-01
   7162.67  3.5080044E-01
   7163.00  3.4847007E-01
   7163.33  3.4702272E-01
   7163.67  3.4620271E-01
   7164.00  3.4587179E-01
   7164.33  3.4592303E-01
   7164.67  3.4618768E-01
   7165.00  3.4657897E-01
   7165.33  3.4702517E-01
   7165.67  3.4746309E-01
   7166.00  3.4785713E-01
   7166.33  3.4816781E-01
   7166.67  3.4838145E-01
   7167.00  3.4848406E-01
   7167.33  3.4845412E-01
   7167.67  3.4831136E-01
   7168.00  3.4807046E-01
   7168.33  3.4775347E-01
   7168.67  3.4741431E-01
   7169.00  3.4710212E-01
   7169.33  3.4689181E-01
   7169.67  3.4683374E-01
   7170.00  3.4697288E-01
   7170.33  3.4737505E-01
   7170.67  3.4802385E-01
   7171.00  3.4890500E-01
   7171.33  3.4998125E-01
   7171.67  3.5110229E-01
   7172.00  3.5209112E-01
