    FDMNES
    energy     <xanes>
   7097.00  5.3406511E-03
   7097.33  5.4726143E-03
   7097.67  5.6107681E-03
   7098.00  5.7555377E-03
   7098.33  5.9083655E-03
   7098.67  6.0689655E-03
   7099.00  6.2379163E-03
   7099.33  6.4171056E-03
   7099.67  6.6062387E-03
   7100.00  6.8061225E-03
   7100.33  7.0192886E-03
   7100.67  7.2454591E-03
   7101.00  7.4857924E-03
   7101.33  7.7437818E-03
   7101.67  8.0192238E-03
   7102.00  8.3138384E-03
   7102.33  8.6326125E-03
   7102.67  8.9755429E-03
   7103.00  9.3452888E-03
   7103.33  9.7492687E-03
   7103.67  1.0187960E-02
   7104.00  1.0665684E-02
   7104.33  1.1194049E-02
   7104.67  1.1774673E-02
   7105.00  1.2415022E-02
   7105.33  1.3134483E-02
   7105.67  1.3937456E-02
   7106.00  1.4837939E-02
   7106.33  1.5871196E-02
   7106.67  1.7049018E-02
   7107.00  1.8400715E-02
   7107.33  1.9998650E-02
   7107.67  2.1877108E-02
   7108.00  2.4108398E-02
   7108.33  2.6871049E-02
   7108.67  3.0285655E-02
   7109.00  3.4585504E-02
   7109.33  4.0374807E-02
   7109.67  4.8266055E-02
   7110.00  5.9457292E-02
   7110.33  7.7324344E-02
   7110.67  1.0522549E-01
   7111.00  1.4370939E-01
   7111.33  1.8148776E-01
   7111.67  2.1239819E-01
   7112.00  2.5476273E-01
   7112.33  3.3366979E-01
   7112.67  4.4651130E-01
   7113.00  5.8651615E-01
   7113.33  7.1003667E-01
   7113.67  7.3776847E-01
   7114.00  6.4604704E-01
   7114.33  5.0467423E-01
   7114.67  3.9005308E-01
   7115.00  3.1168892E-01
   7115.33  2.6394095E-01
   7115.67  2.3463148E-01
   7116.00  2.1893696E-01
   7116.33  2.1319488E-01
   7116.67  2.0971773E-01
   7117.00  2.0272110E-01
   7117.33  1.9001148E-01
   7117.67  1.7533463E-01
   7118.00  1.6169597E-01
   7118.33  1.5122817E-01
   7118.67  1.4358144E-01
   7119.00  1.3821383E-01
   7119.33  1.3470954E-01
   7119.67  1.3230071E-01
   7120.00  1.3049490E-01
   7120.33  1.2879984E-01
   7120.67  1.2708801E-01
   7121.00  1.2569582E-01
   7121.33  1.2518525E-01
   7121.67  1.2544733E-01
   7122.00  1.2630864E-01
   7122.33  1.2789627E-01
   7122.67  1.3024658E-01
   7123.00  1.3339905E-01
   7123.33  1.3749859E-01
   7123.67  1.4253418E-01
   7124.00  1.4864771E-01
   7124.33  1.5624817E-01
   7124.67  1.6549877E-01
   7125.00  1.7673927E-01
   7125.33  1.9068763E-01
   7125.67  2.0736086E-01
   7126.00  2.2680736E-01
   7126.33  2.4898981E-01
   7126.67  2.7292435E-01
   7127.00  2.9812153E-01
   7127.33  3.2477531E-01
   7127.67  3.5308249E-01
   7128.00  3.8288601E-01
   7128.33  4.1344000E-01
   7128.67  4.4464363E-01
   7129.00  4.7825499E-01
   7129.33  5.1808047E-01
   7129.67  5.6530425E-01
   7130.00  6.1935340E-01
   7130.33  6.7772893E-01
   7130.67  7.3590266E-01
   7131.00  7.9092306E-01
   7131.33  8.4065214E-01
   7131.67  8.8651075E-01
   7132.00  9.3059601E-01
   7132.33  9.7563729E-01
   7132.67  1.0223771E+00
   7133.00  1.0686066E+00
   7133.33  1.1067341E+00
   7133.67  1.1285259E+00
   7134.00  1.1277072E+00
   7134.33  1.0995894E+00
   7134.67  1.0517875E+00
   7135.00  9.9077153E-01
   7135.33  9.2302576E-01
   7135.67  8.5463932E-01
   7136.00  7.8861393E-01
   7136.33  7.2767166E-01
   7136.67  6.7248693E-01
   7137.00  6.2368771E-01
   7137.33  5.8252566E-01
   7137.67  5.4829705E-01
   7138.00  5.2097803E-01
   7138.33  5.0118221E-01
   7138.67  4.8757282E-01
   7139.00  4.7946592E-01
   7139.33  4.7636368E-01
   7139.67  4.7652584E-01
   7140.00  4.7899254E-01
   7140.33  4.8305546E-01
   7140.67  4.8797959E-01
   7141.00  4.9352839E-01
   7141.33  4.9968332E-01
   7141.67  5.0638630E-01
   7142.00  5.1365115E-01
   7142.33  5.2151678E-01
   7142.67  5.2981789E-01
   7143.00  5.3841104E-01
   7143.33  5.4708165E-01
   7143.67  5.5555734E-01
   7144.00  5.6359895E-01
   7144.33  5.7085786E-01
   7144.67  5.7720550E-01
   7145.00  5.8250746E-01
   7145.33  5.8653229E-01
   7145.67  5.8940365E-01
   7146.00  5.9115626E-01
   7146.33  5.9174816E-01
   7146.67  5.9143009E-01
   7147.00  5.9032224E-01
   7147.33  5.8849044E-01
   7147.67  5.8615864E-01
   7148.00  5.8344274E-01
   7148.33  5.8043335E-01
   7148.67  5.7727212E-01
   7149.00  5.7404096E-01
   7149.33  5.7082352E-01
   7149.67  5.6768750E-01
   7150.00  5.6468488E-01
   7150.33  5.6189411E-01
   7150.67  5.5933559E-01
   7151.00  5.5703885E-01
   7151.33  5.5507236E-01
   7151.67  5.5342986E-01
   7152.00  5.5213656E-01
   7152.33  5.5126924E-01
   7152.67  5.5081009E-01
   7153.00  5.5078321E-01
   7153.33  5.5126961E-01
   7153.67  5.5222717E-01
   7154.00  5.5365678E-01
   7154.33  5.5559702E-01
   7154.67  5.5794801E-01
   7155.00  5.6065111E-01
   7155.33  5.6364657E-01
   7155.67  5.6678943E-01
   7156.00  5.6997368E-01
   7156.33  5.7306386E-01
   7156.67  5.7595325E-01
   7157.00  5.7855367E-01
   7157.33  5.8073497E-01
   7157.67  5.8248242E-01
   7158.00  5.8376029E-01
   7158.33  5.8448190E-01
   7158.67  5.8469856E-01
   7159.00  5.8440941E-01
   7159.33  5.8355764E-01
   7159.67  5.8221673E-01
   7160.00  5.8039869E-01
   7160.33  5.7806155E-01
   7160.67  5.7528207E-01
   7161.00  5.7208159E-01
   7161.33  5.6843695E-01
   7161.67  5.6442562E-01
   7162.00  5.6007564E-01
   7162.33  5.5538034E-01
   7162.67  5.5040902E-01
   7163.00  5.4519357E-01
   7163.33  5.3974537E-01
   7163.67  5.3412261E-01
   7164.00  5.2834840E-01
   7164.33  5.2242655E-01
   7164.67  5.1638860E-01
   7165.00  5.1024568E-01
   7165.33  5.0399747E-01
   7165.67  4.9766887E-01
   7166.00  4.9127497E-01
   7166.33  4.8483164E-01
   7166.67  4.7837132E-01
   7167.00  4.7192324E-01
   7167.33  4.6553436E-01
   7167.67  4.5924317E-01
   7168.00  4.5309121E-01
   7168.33  4.4715189E-01
   7168.67  4.4145013E-01
   7169.00  4.3602466E-01
   7169.33  4.3095339E-01
   7169.67  4.2622354E-01
   7170.00  4.2185114E-01
   7170.33  4.1789655E-01
   7170.67  4.1432277E-01
   7171.00  4.1113722E-01
   7171.33  4.0840445E-01
   7171.67  4.0610610E-01
   7172.00  4.0428575E-01
