    FDMNES
    energy     <xanes>
   7097.00  4.7982768E-03
   7097.33  4.9111054E-03
   7097.67  5.0290579E-03
   7098.00  5.1524844E-03
   7098.33  5.2825767E-03
   7098.67  5.4190974E-03
   7099.00  5.5625256E-03
   7099.33  5.7144248E-03
   7099.67  5.8745547E-03
   7100.00  6.0435886E-03
   7100.33  6.2236336E-03
   7100.67  6.4144724E-03
   7101.00  6.6170821E-03
   7101.33  6.8343935E-03
   7101.67  7.0662702E-03
   7102.00  7.3141846E-03
   7102.33  7.5823723E-03
   7102.67  7.8709056E-03
   7103.00  8.1821073E-03
   7103.33  8.5223905E-03
   7103.67  8.8923286E-03
   7104.00  9.2957971E-03
   7104.33  9.7430890E-03
   7104.67  1.0235982E-02
   7105.00  1.0781416E-02
   7105.33  1.1397189E-02
   7105.67  1.2088120E-02
   7106.00  1.2867834E-02
   7106.33  1.3770306E-02
   7106.67  1.4808775E-02
   7107.00  1.6013555E-02
   7107.33  1.7459043E-02
   7107.67  1.9185545E-02
   7108.00  2.1273795E-02
   7108.33  2.3923442E-02
   7108.67  2.7284970E-02
   7109.00  3.1642689E-02
   7109.33  3.7739615E-02
   7109.67  4.6383066E-02
   7110.00  5.9144901E-02
   7110.33  8.0527349E-02
   7110.67  1.1562787E-01
   7111.00  1.6775242E-01
   7111.33  2.2923713E-01
   7111.67  2.8485592E-01
   7112.00  3.1927225E-01
   7112.33  3.4275073E-01
   7112.67  3.5991010E-01
   7113.00  3.3056455E-01
   7113.33  2.6984543E-01
   7113.67  2.2191456E-01
   7114.00  1.9264679E-01
   7114.33  1.8664670E-01
   7114.67  2.0324170E-01
   7115.00  2.4489135E-01
   7115.33  3.0643933E-01
   7115.67  3.4037982E-01
   7116.00  3.0698646E-01
   7116.33  2.3531132E-01
   7116.67  1.7631822E-01
   7117.00  1.3734536E-01
   7117.33  1.1465145E-01
   7117.67  1.0084323E-01
   7118.00  9.3012062E-02
   7118.33  8.9776717E-02
   7118.67  8.9408847E-02
   7119.00  9.0968807E-02
   7119.33  9.3669851E-02
   7119.67  9.6979304E-02
   7120.00  1.0095826E-01
   7120.33  1.0613123E-01
   7120.67  1.1292114E-01
   7121.00  1.2159968E-01
   7121.33  1.3243971E-01
   7121.67  1.4528320E-01
   7122.00  1.6031949E-01
   7122.33  1.7791682E-01
   7122.67  1.9762206E-01
   7123.00  2.1936052E-01
   7123.33  2.4416010E-01
   7123.67  2.7325703E-01
   7124.00  3.0785426E-01
   7124.33  3.4836309E-01
   7124.67  3.9079952E-01
   7125.00  4.2943209E-01
   7125.33  4.5465256E-01
   7125.67  4.6322788E-01
   7126.00  4.5719123E-01
   7126.33  4.4361665E-01
   7126.67  4.3141386E-01
   7127.00  4.2449231E-01
   7127.33  4.2458669E-01
   7127.67  4.3004546E-01
   7128.00  4.4011884E-01
   7128.33  4.5447442E-01
   7128.67  4.7097092E-01
   7129.00  4.8712091E-01
   7129.33  4.9886230E-01
   7129.67  5.0416609E-01
   7130.00  5.0318483E-01
   7130.33  4.9812821E-01
   7130.67  4.9280165E-01
   7131.00  4.8947685E-01
   7131.33  4.9025661E-01
   7131.67  4.9540680E-01
   7132.00  5.0517040E-01
   7132.33  5.2071042E-01
   7132.67  5.4233497E-01
   7133.00  5.7069957E-01
   7133.33  6.0624318E-01
   7133.67  6.4569119E-01
   7134.00  6.8494320E-01
   7134.33  7.1748724E-01
   7134.67  7.4021418E-01
   7135.00  7.5300127E-01
   7135.33  7.5762617E-01
   7135.67  7.5819791E-01
   7136.00  7.5643805E-01
   7136.33  7.5265238E-01
   7136.67  7.4665987E-01
   7137.00  7.3804353E-01
   7137.33  7.2652974E-01
   7137.67  7.1324633E-01
   7138.00  6.9930786E-01
   7138.33  6.8618972E-01
   7138.67  6.7492111E-01
   7139.00  6.6610140E-01
   7139.33  6.6032326E-01
   7139.67  6.5709999E-01
   7140.00  6.5606366E-01
   7140.33  6.5679247E-01
   7140.67  6.5835022E-01
   7141.00  6.6007165E-01
   7141.33  6.6118096E-01
   7141.67  6.6123531E-01
   7142.00  6.6003163E-01
   7142.33  6.5747700E-01
   7142.67  6.5402824E-01
   7143.00  6.5004163E-01
   7143.33  6.4586459E-01
   7143.67  6.4179887E-01
   7144.00  6.3804425E-01
   7144.33  6.3485636E-01
   7144.67  6.3232391E-01
   7145.00  6.3054887E-01
   7145.33  6.2972603E-01
   7145.67  6.2980439E-01
   7146.00  6.3079948E-01
   7146.33  6.3279891E-01
   7146.67  6.3561994E-01
   7147.00  6.3916663E-01
   7147.33  6.4336814E-01
   7147.67  6.4798614E-01
   7148.00  6.5287076E-01
   7148.33  6.5785907E-01
   7148.67  6.6277103E-01
   7149.00  6.6746876E-01
   7149.33  6.7175547E-01
   7149.67  6.7553736E-01
   7150.00  6.7870359E-01
   7150.33  6.8104141E-01
   7150.67  6.8253678E-01
   7151.00  6.8311653E-01
   7151.33  6.8259137E-01
   7151.67  6.8103970E-01
   7152.00  6.7844357E-01
   7152.33  6.7467270E-01
   7152.67  6.6988331E-01
   7153.00  6.6411654E-01
   7153.33  6.5732396E-01
   7153.67  6.4970043E-01
   7154.00  6.4132383E-01
   7154.33  6.3221057E-01
   7154.67  6.2254599E-01
   7155.00  6.1242057E-01
   7155.33  6.0189420E-01
   7155.67  5.9111158E-01
   7156.00  5.8015230E-01
   7156.33  5.6908558E-01
   7156.67  5.5799245E-01
   7157.00  5.4692466E-01
   7157.33  5.3594502E-01
   7157.67  5.2509344E-01
   7158.00  5.1441562E-01
   7158.33  5.0399994E-01
   7158.67  4.9388133E-01
   7159.00  4.8411646E-01
   7159.33  4.7481932E-01
   7159.67  4.6598908E-01
   7160.00  4.5765638E-01
   7160.33  4.4989974E-01
   7160.67  4.4264651E-01
   7161.00  4.3587569E-01
   7161.33  4.2960937E-01
   7161.67  4.2375374E-01
   7162.00  4.1827769E-01
   7162.33  4.1319115E-01
   7162.67  4.0842877E-01
   7163.00  4.0398177E-01
   7163.33  3.9988416E-01
   7163.67  3.9609472E-01
   7164.00  3.9261130E-01
   7164.33  3.8946521E-01
   7164.67  3.8660632E-01
   7165.00  3.8401772E-01
   7165.33  3.8170135E-01
   7165.67  3.7958971E-01
   7166.00  3.7764619E-01
   7166.33  3.7584145E-01
   7166.67  3.7411797E-01
   7167.00  3.7244700E-01
   7167.33  3.7081375E-01
   7167.67  3.6921623E-01
   7168.00  3.6767757E-01
   7168.33  3.6624971E-01
   7168.67  3.6496182E-01
   7169.00  3.6385527E-01
   7169.33  3.6300621E-01
   7169.67  3.6242355E-01
   7170.00  3.6212716E-01
   7170.33  3.6216000E-01
   7170.67  3.6247187E-01
   7171.00  3.6303207E-01
   7171.33  3.6379613E-01
   7171.67  3.6462086E-01
   7172.00  3.6535053E-01
