    FDMNES
    energy     <xanes>
   7097.00  5.4562540E-03
   7097.33  5.5963325E-03
   7097.67  5.7432880E-03
   7098.00  5.8976155E-03
   7098.33  6.0609565E-03
   7098.67  6.2330255E-03
   7099.00  6.4145060E-03
   7099.33  6.6075763E-03
   7099.67  6.8119547E-03
   7100.00  7.0286099E-03
   7100.33  7.2605110E-03
   7100.67  7.5074199E-03
   7101.00  7.7707536E-03
   7101.33  8.0546872E-03
   7101.67  8.3591138E-03
   7102.00  8.6861838E-03
   7102.33  9.0419921E-03
   7102.67  9.4267544E-03
   7103.00  9.8438818E-03
   7103.33  1.0302684E-02
   7103.67  1.0804134E-02
   7104.00  1.1353941E-02
   7104.33  1.1967148E-02
   7104.67  1.2646516E-02
   7105.00  1.3402277E-02
   7105.33  1.4260534E-02
   7105.67  1.5228497E-02
   7106.00  1.6326189E-02
   7106.33  1.7603372E-02
   7106.67  1.9079389E-02
   7107.00  2.0798381E-02
   7107.33  2.2868418E-02
   7107.67  2.5347095E-02
   7108.00  2.8349981E-02
   7108.33  3.2161958E-02
   7108.67  3.6992719E-02
   7109.00  4.3238804E-02
   7109.33  5.1931212E-02
   7109.67  6.4165375E-02
   7110.00  8.2068260E-02
   7110.33  1.1165172E-01
   7110.67  1.5912273E-01
   7111.00  2.2659197E-01
   7111.33  3.0319719E-01
   7111.67  3.8756568E-01
   7112.00  4.9165933E-01
   7112.33  6.0686243E-01
   7112.67  6.7316967E-01
   7113.00  6.4153775E-01
   7113.33  5.3178514E-01
   7113.67  4.2243787E-01
   7114.00  3.3702829E-01
   7114.33  2.7884337E-01
   7114.67  2.3951276E-01
   7115.00  2.1541988E-01
   7115.33  2.0582031E-01
   7115.67  2.0671189E-01
   7116.00  2.1234692E-01
   7116.33  2.1165547E-01
   7116.67  2.0193775E-01
   7117.00  1.8725478E-01
   7117.33  1.7259488E-01
   7117.67  1.6021269E-01
   7118.00  1.5032895E-01
   7118.33  1.4260815E-01
   7118.67  1.3613687E-01
   7119.00  1.3054105E-01
   7119.33  1.2582156E-01
   7119.67  1.2214739E-01
   7120.00  1.1989116E-01
   7120.33  1.1953585E-01
   7120.67  1.2081162E-01
   7121.00  1.2340845E-01
   7121.33  1.2695108E-01
   7121.67  1.3103286E-01
   7122.00  1.3558482E-01
   7122.33  1.4068178E-01
   7122.67  1.4627993E-01
   7123.00  1.5236701E-01
   7123.33  1.5894901E-01
   7123.67  1.6594073E-01
   7124.00  1.7346114E-01
   7124.33  1.8210019E-01
   7124.67  1.9240192E-01
   7125.00  2.0480893E-01
   7125.33  2.1984333E-01
   7125.67  2.3726412E-01
   7126.00  2.5704005E-01
   7126.33  2.7922486E-01
   7126.67  3.0307576E-01
   7127.00  3.2803195E-01
   7127.33  3.5349573E-01
   7127.67  3.7911326E-01
   7128.00  4.0536135E-01
   7128.33  4.3430743E-01
   7128.67  4.6829006E-01
   7129.00  5.0932125E-01
   7129.33  5.5899712E-01
   7129.67  6.1458082E-01
   7130.00  6.7364176E-01
   7130.33  7.3448705E-01
   7130.67  7.9639857E-01
   7131.00  8.5923556E-01
   7131.33  9.2232300E-01
   7131.67  9.8382288E-01
   7132.00  1.0409991E+00
   7132.33  1.0880413E+00
   7132.67  1.1203874E+00
   7133.00  1.1336057E+00
   7133.33  1.1222665E+00
   7133.67  1.0901605E+00
   7134.00  1.0408958E+00
   7134.33  9.7892868E-01
   7134.67  9.1166731E-01
   7135.00  8.4344399E-01
   7135.33  7.7827033E-01
   7135.67  7.1807487E-01
   7136.00  6.6393064E-01
   7136.33  6.1725194E-01
   7136.67  5.7738330E-01
   7137.00  5.4430885E-01
   7137.33  5.1873355E-01
   7137.67  4.9958431E-01
   7138.00  4.8653651E-01
   7138.33  4.7971738E-01
   7138.67  4.7765819E-01
   7139.00  4.7955927E-01
   7139.33  4.8479038E-01
   7139.67  4.9201607E-01
   7140.00  5.0051298E-01
   7140.33  5.0969343E-01
   7140.67  5.1902150E-01
   7141.00  5.2824257E-01
   7141.33  5.3713546E-01
   7141.67  5.4561213E-01
   7142.00  5.5357308E-01
   7142.33  5.6080169E-01
   7142.67  5.6721929E-01
   7143.00  5.7268273E-01
   7143.33  5.7691297E-01
   7143.67  5.7996448E-01
   7144.00  5.8183124E-01
   7144.33  5.8244539E-01
   7144.67  5.8208526E-01
   7145.00  5.8090246E-01
   7145.33  5.7900368E-01
   7145.67  5.7664056E-01
   7146.00  5.7393150E-01
   7146.33  5.7094147E-01
   7146.67  5.6777572E-01
   7147.00  5.6449682E-01
   7147.33  5.6117732E-01
   7147.67  5.5789443E-01
   7148.00  5.5470452E-01
   7148.33  5.5168807E-01
   7148.67  5.4888322E-01
   7149.00  5.4633375E-01
   7149.33  5.4411381E-01
   7149.67  5.4221286E-01
   7150.00  5.4064838E-01
   7150.33  5.3948192E-01
   7150.67  5.3868586E-01
   7151.00  5.3827554E-01
   7151.33  5.3832452E-01
   7151.67  5.3881214E-01
   7152.00  5.3977052E-01
   7152.33  5.4130687E-01
   7152.67  5.4340166E-01
   7153.00  5.4609013E-01
   7153.33  5.4948186E-01
   7153.67  5.5351106E-01
   7154.00  5.5816412E-01
   7154.33  5.6346194E-01
   7154.67  5.6924321E-01
   7155.00  5.7539962E-01
   7155.33  5.8179783E-01
   7155.67  5.8822106E-01
   7156.00  5.9449103E-01
   7156.33  6.0035015E-01
   7156.67  6.0564297E-01
   7157.00  6.1021755E-01
   7157.33  6.1382577E-01
   7157.67  6.1648063E-01
   7158.00  6.1813913E-01
   7158.33  6.1866609E-01
   7158.67  6.1821310E-01
   7159.00  6.1682134E-01
   7159.33  6.1444386E-01
   7159.67  6.1126368E-01
   7160.00  6.0734900E-01
   7160.33  6.0270021E-01
   7160.67  5.9747644E-01
   7161.00  5.9173882E-01
   7161.33  5.8550460E-01
   7161.67  5.7890234E-01
   7162.00  5.7199080E-01
   7162.33  5.6480201E-01
   7162.67  5.5742492E-01
   7163.00  5.4990499E-01
   7163.33  5.4227542E-01
   7163.67  5.3458540E-01
   7164.00  5.2686074E-01
   7164.33  5.1912370E-01
   7164.67  5.1139534E-01
   7165.00  5.0369172E-01
   7165.33  4.9603599E-01
   7165.67  4.8844156E-01
   7166.00  4.8092617E-01
   7166.33  4.7352323E-01
   7166.67  4.6624219E-01
   7167.00  4.5910425E-01
   7167.33  4.5215847E-01
   7167.67  4.4541632E-01
   7168.00  4.3890643E-01
   7168.33  4.3268989E-01
   7168.67  4.2676036E-01
   7169.00  4.2113738E-01
   7169.33  4.1588029E-01
   7169.67  4.1096667E-01
   7170.00  4.0641222E-01
   7170.33  4.0228018E-01
   7170.67  3.9853791E-01
   7171.00  3.9519839E-01
   7171.33  3.9233551E-01
   7171.67  3.8993235E-01
   7172.00  3.8803124E-01
