    FDMNES
    energy     <xanes>
   7097.00  5.2197094E-03
   7097.33  5.3440491E-03
   7097.67  5.4741525E-03
   7098.00  5.6104174E-03
   7098.33  5.7541909E-03
   7098.67  5.9052106E-03
   7099.00  6.0640206E-03
   7099.33  6.2323900E-03
   7099.67  6.4100524E-03
   7100.00  6.5977718E-03
   7100.33  6.7979324E-03
   7100.67  7.0102921E-03
   7101.00  7.2359567E-03
   7101.33  7.4782397E-03
   7101.67  7.7369854E-03
   7102.00  8.0138541E-03
   7102.33  8.3136229E-03
   7102.67  8.6363599E-03
   7103.00  8.9846700E-03
   7103.33  9.3657556E-03
   7103.67  9.7802207E-03
   7104.00  1.0232379E-02
   7104.33  1.0733712E-02
   7104.67  1.1286105E-02
   7105.00  1.1897205E-02
   7105.33  1.2586677E-02
   7105.67  1.3359613E-02
   7106.00  1.4230835E-02
   7106.33  1.5237390E-02
   7106.67  1.6393177E-02
   7107.00  1.7730657E-02
   7107.33  1.9329635E-02
   7107.67  2.1232039E-02
   7108.00  2.3522887E-02
   7108.33  2.6412511E-02
   7108.67  3.0056301E-02
   7109.00  3.4749659E-02
   7109.33  4.1265077E-02
   7109.67  5.0437329E-02
   7110.00  6.3897749E-02
   7110.33  8.6316975E-02
   7110.67  1.2281463E-01
   7111.00  1.7575117E-01
   7111.33  2.3271832E-01
   7111.67  2.7819043E-01
   7112.00  3.0938913E-01
   7112.33  3.3125607E-01
   7112.67  3.6269005E-01
   7113.00  4.1602800E-01
   7113.33  4.7490084E-01
   7113.67  4.9184761E-01
   7114.00  4.5044660E-01
   7114.33  3.8000074E-01
   7114.67  3.1788488E-01
   7115.00  2.7273653E-01
   7115.33  2.4453326E-01
   7115.67  2.2667052E-01
   7116.00  2.1524423E-01
   7116.33  2.0678983E-01
   7116.67  1.9791013E-01
   7117.00  1.8643603E-01
   7117.33  1.7213745E-01
   7117.67  1.5811536E-01
   7118.00  1.4632974E-01
   7118.33  1.3804575E-01
   7118.67  1.3292492E-01
   7119.00  1.3059629E-01
   7119.33  1.3042106E-01
   7119.67  1.3106041E-01
   7120.00  1.3178029E-01
   7120.33  1.3220751E-01
   7120.67  1.3237575E-01
   7121.00  1.3221736E-01
   7121.33  1.3165205E-01
   7121.67  1.3144738E-01
   7122.00  1.3259249E-01
   7122.33  1.3597020E-01
   7122.67  1.4151446E-01
   7123.00  1.4935224E-01
   7123.33  1.5976567E-01
   7123.67  1.7202683E-01
   7124.00  1.8561837E-01
   7124.33  2.0043379E-01
   7124.67  2.1641813E-01
   7125.00  2.3356839E-01
   7125.33  2.5168472E-01
   7125.67  2.7020763E-01
   7126.00  2.8888337E-01
   7126.33  3.0762274E-01
   7126.67  3.2659279E-01
   7127.00  3.4643706E-01
   7127.33  3.6842427E-01
   7127.67  3.9275692E-01
   7128.00  4.1910933E-01
   7128.33  4.4682053E-01
   7128.67  4.7483044E-01
   7129.00  5.0259358E-01
   7129.33  5.3002551E-01
   7129.67  5.5755211E-01
   7130.00  5.8565878E-01
   7130.33  6.1526529E-01
   7130.67  6.4701793E-01
   7131.00  6.8131182E-01
   7131.33  7.1818932E-01
   7131.67  7.5630257E-01
   7132.00  7.9431101E-01
   7132.33  8.3050365E-01
   7132.67  8.6416936E-01
   7133.00  8.9515404E-01
   7133.33  9.2338108E-01
   7133.67  9.4889138E-01
   7134.00  9.6999301E-01
   7134.33  9.8173297E-01
   7134.67  9.8165324E-01
   7135.00  9.6947000E-01
   7135.33  9.4673090E-01
   7135.67  9.1806336E-01
   7136.00  8.8561756E-01
   7136.33  8.5064503E-01
   7136.67  8.1447856E-01
   7137.00  7.7795515E-01
   7137.33  7.4217562E-01
   7137.67  7.0809715E-01
   7138.00  6.7656791E-01
   7138.33  6.4885979E-01
   7138.67  6.2516131E-01
   7139.00  6.0576147E-01
   7139.33  5.9122886E-01
   7139.67  5.8072320E-01
   7140.00  5.7375699E-01
   7140.33  5.6990945E-01
   7140.67  5.6796504E-01
   7141.00  5.6720472E-01
   7141.33  5.6699221E-01
   7141.67  5.6675699E-01
   7142.00  5.6617826E-01
   7142.33  5.6486078E-01
   7142.67  5.6258701E-01
   7143.00  5.5911248E-01
   7143.33  5.5403914E-01
   7143.67  5.4745795E-01
   7144.00  5.3943366E-01
   7144.33  5.3004810E-01
   7144.67  5.1981169E-01
   7145.00  5.0908468E-01
   7145.33  4.9828182E-01
   7145.67  4.8779480E-01
   7146.00  4.7789983E-01
   7146.33  4.6895330E-01
   7146.67  4.6102657E-01
   7147.00  4.5421804E-01
   7147.33  4.4873691E-01
   7147.67  4.4445071E-01
   7148.00  4.4134149E-01
   7148.33  4.3949418E-01
   7148.67  4.3868112E-01
   7149.00  4.3881201E-01
   7149.33  4.3987747E-01
   7149.67  4.4165832E-01
   7150.00  4.4405302E-01
   7150.33  4.4700747E-01
   7150.67  4.5035414E-01
   7151.00  4.5401512E-01
   7151.33  4.5794723E-01
   7151.67  4.6206642E-01
   7152.00  4.6634011E-01
   7152.33  4.7075919E-01
   7152.67  4.7529103E-01
   7153.00  4.7992419E-01
   7153.33  4.8465798E-01
   7153.67  4.8946907E-01
   7154.00  4.9434388E-01
   7154.33  4.9926978E-01
   7154.67  5.0421986E-01
   7155.00  5.0917205E-01
   7155.33  5.1409130E-01
   7155.67  5.1894232E-01
   7156.00  5.2368529E-01
   7156.33  5.2824749E-01
   7156.67  5.3259150E-01
   7157.00  5.3666501E-01
   7157.33  5.4036681E-01
   7157.67  5.4368771E-01
   7158.00  5.4659583E-01
   7158.33  5.4901447E-01
   7158.67  5.5099099E-01
   7159.00  5.5253014E-01
   7159.33  5.5359550E-01
   7159.67  5.5426507E-01
   7160.00  5.5456676E-01
   7160.33  5.5449822E-01
   7160.67  5.5414122E-01
   7161.00  5.5353033E-01
   7161.33  5.5267886E-01
   7161.67  5.5165205E-01
   7162.00  5.5047919E-01
   7162.33  5.4916654E-01
   7162.67  5.4774100E-01
   7163.00  5.4621246E-01
   7163.33  5.4457558E-01
   7163.67  5.4284097E-01
   7164.00  5.4100211E-01
   7164.33  5.3903490E-01
   7164.67  5.3694443E-01
   7165.00  5.3472457E-01
   7165.33  5.3235601E-01
   7165.67  5.2986001E-01
   7166.00  5.2724722E-01
   7166.33  5.2452501E-01
   7166.67  5.2173290E-01
   7167.00  5.1889929E-01
   7167.33  5.1605868E-01
   7167.67  5.1324730E-01
   7168.00  5.1049464E-01
   7168.33  5.0784253E-01
   7168.67  5.0530490E-01
   7169.00  5.0290128E-01
   7169.33  5.0066732E-01
   7169.67  4.9858834E-01
   7170.00  4.9666184E-01
   7170.33  4.9489927E-01
   7170.67  4.9327418E-01
   7171.00  4.9178235E-01
   7171.33  4.9044680E-01
   7171.67  4.8927984E-01
   7172.00  4.8833197E-01
