    FDMNES
    energy     <xanes>
   7097.00  5.0123932E-03
   7097.33  5.1366941E-03
   7097.67  5.2669728E-03
   7098.00  5.4036573E-03
   7098.33  5.5481713E-03
   7098.67  5.7002646E-03
   7099.00  5.8605289E-03
   7099.33  6.0308540E-03
   7099.67  6.2109945E-03
   7100.00  6.4017913E-03
   7100.33  6.6058226E-03
   7100.67  6.8228842E-03
   7101.00  7.0542102E-03
   7101.33  7.3034336E-03
   7101.67  7.5704713E-03
   7102.00  7.8572039E-03
   7102.33  8.1689532E-03
   7102.67  8.5059316E-03
   7103.00  8.8711393E-03
   7103.33  9.2727452E-03
   7103.67  9.7116551E-03
   7104.00  1.0192929E-02
   7104.33  1.0729854E-02
   7104.67  1.1324985E-02
   7105.00  1.1987470E-02
   7105.33  1.2740579E-02
   7105.67  1.3590993E-02
   7106.00  1.4556822E-02
   7106.33  1.5682962E-02
   7106.67  1.6987464E-02
   7107.00  1.8510830E-02
   7107.33  2.0352103E-02
   7107.67  2.2565656E-02
   7108.00  2.5259474E-02
   7108.33  2.8699988E-02
   7108.67  3.3088353E-02
   7109.00  3.8803476E-02
   7109.33  4.6833962E-02
   7109.67  5.8250884E-02
   7110.00  7.5135552E-02
   7110.33  1.0339585E-01
   7110.67  1.4923274E-01
   7111.00  2.1513032E-01
   7111.33  2.9213676E-01
   7111.67  3.7105248E-01
   7112.00  4.4347410E-01
   7112.33  5.0712411E-01
   7112.67  5.5384302E-01
   7113.00  5.3785667E-01
   7113.33  4.4183128E-01
   7113.67  3.4348701E-01
   7114.00  2.6464578E-01
   7114.33  2.0677242E-01
   7114.67  1.6591200E-01
   7115.00  1.3756542E-01
   7115.33  1.1816733E-01
   7115.67  1.0513103E-01
   7116.00  9.7867423E-02
   7116.33  9.5427463E-02
   7116.67  9.4368450E-02
   7117.00  9.3163931E-02
   7117.33  9.2572438E-02
   7117.67  9.3528156E-02
   7118.00  9.6397209E-02
   7118.33  1.0165798E-01
   7118.67  1.0875381E-01
   7119.00  1.1612082E-01
   7119.33  1.2057522E-01
   7119.67  1.2164141E-01
   7120.00  1.2110392E-01
   7120.33  1.2085821E-01
   7120.67  1.2113145E-01
   7121.00  1.2233280E-01
   7121.33  1.2577571E-01
   7121.67  1.3213258E-01
   7122.00  1.4187572E-01
   7122.33  1.5584309E-01
   7122.67  1.7402154E-01
   7123.00  1.9684840E-01
   7123.33  2.2505094E-01
   7123.67  2.5707644E-01
   7124.00  2.9095842E-01
   7124.33  3.2359970E-01
   7124.67  3.5283122E-01
   7125.00  3.7761493E-01
   7125.33  3.9718516E-01
   7125.67  4.1364833E-01
   7126.00  4.2877893E-01
   7126.33  4.4277234E-01
   7126.67  4.5432355E-01
   7127.00  4.6219126E-01
   7127.33  4.6573678E-01
   7127.67  4.6708642E-01
   7128.00  4.6852769E-01
   7128.33  4.7278895E-01
   7128.67  4.8077836E-01
   7129.00  4.9240344E-01
   7129.33  5.0708680E-01
   7129.67  5.2351972E-01
   7130.00  5.4117901E-01
   7130.33  5.5981200E-01
   7130.67  5.7894034E-01
   7131.00  5.9808125E-01
   7131.33  6.1619618E-01
   7131.67  6.3193347E-01
   7132.00  6.4368933E-01
   7132.33  6.4923986E-01
   7132.67  6.4936623E-01
   7133.00  6.4595163E-01
   7133.33  6.4233877E-01
   7133.67  6.4148487E-01
   7134.00  6.4460943E-01
   7134.33  6.5136317E-01
   7134.67  6.5831574E-01
   7135.00  6.6302342E-01
   7135.33  6.6547903E-01
   7135.67  6.6793462E-01
   7136.00  6.7119696E-01
   7136.33  6.7477438E-01
   7136.67  6.7739289E-01
   7137.00  6.7805263E-01
   7137.33  6.7583515E-01
   7137.67  6.7129162E-01
   7138.00  6.6522193E-01
   7138.33  6.5893516E-01
   7138.67  6.5385903E-01
   7139.00  6.5102176E-01
   7139.33  6.5162578E-01
   7139.67  6.5561924E-01
   7140.00  6.6287790E-01
   7140.33  6.7311830E-01
   7140.67  6.8490043E-01
   7141.00  6.9690778E-01
   7141.33  7.0710968E-01
   7141.67  7.1388280E-01
   7142.00  7.1603914E-01
   7142.33  7.1237935E-01
   7142.67  7.0399000E-01
   7143.00  6.9186422E-01
   7143.33  6.7721453E-01
   7143.67  6.6181692E-01
   7144.00  6.4676972E-01
   7144.33  6.3320586E-01
   7144.67  6.2158734E-01
   7145.00  6.1221483E-01
   7145.33  6.0552349E-01
   7145.67  6.0118473E-01
   7146.00  5.9907102E-01
   7146.33  5.9919276E-01
   7146.67  6.0098901E-01
   7147.00  6.0413759E-01
   7147.33  6.0833269E-01
   7147.67  6.1303157E-01
   7148.00  6.1790464E-01
   7148.33  6.2259103E-01
   7148.67  6.2680634E-01
   7149.00  6.3031671E-01
   7149.33  6.3276485E-01
   7149.67  6.3406439E-01
   7150.00  6.3407094E-01
   7150.33  6.3248810E-01
   7150.67  6.2944510E-01
   7151.00  6.2496257E-01
   7151.33  6.1897252E-01
   7151.67  6.1183509E-01
   7152.00  6.0378639E-01
   7152.33  5.9508576E-01
   7152.67  5.8615045E-01
   7153.00  5.7725004E-01
   7153.33  5.6867168E-01
   7153.67  5.6054675E-01
   7154.00  5.5295243E-01
   7154.33  5.4598425E-01
   7154.67  5.3954821E-01
   7155.00  5.3359696E-01
   7155.33  5.2810966E-01
   7155.67  5.2295547E-01
   7156.00  5.1806726E-01
   7156.33  5.1339644E-01
   7156.67  5.0885514E-01
   7157.00  5.0439693E-01
   7157.33  4.9998084E-01
   7157.67  4.9556469E-01
   7158.00  4.9112228E-01
   7158.33  4.8662944E-01
   7158.67  4.8209413E-01
   7159.00  4.7753655E-01
   7159.33  4.7300617E-01
   7159.67  4.6856987E-01
   7160.00  4.6429893E-01
   7160.33  4.6030888E-01
   7160.67  4.5664103E-01
   7161.00  4.5333822E-01
   7161.33  4.5046665E-01
   7161.67  4.4795786E-01
   7162.00  4.4576116E-01
   7162.33  4.4381441E-01
   7162.67  4.4199028E-01
   7163.00  4.4020679E-01
   7163.33  4.3837284E-01
   7163.67  4.3642795E-01
   7164.00  4.3433528E-01
   7164.33  4.3205374E-01
   7164.67  4.2960635E-01
   7165.00  4.2700949E-01
   7165.33  4.2427844E-01
   7165.67  4.2146397E-01
   7166.00  4.1859752E-01
   7166.33  4.1570964E-01
   7166.67  4.1282843E-01
   7167.00  4.0997074E-01
   7167.33  4.0715577E-01
   7167.67  4.0438579E-01
   7168.00  4.0166527E-01
   7168.33  3.9900563E-01
   7168.67  3.9640435E-01
   7169.00  3.9386542E-01
   7169.33  3.9140219E-01
   7169.67  3.8901135E-01
   7170.00  3.8669820E-01
   7170.33  3.8448295E-01
   7170.67  3.8237011E-01
   7171.00  3.8038054E-01
   7171.33  3.7857321E-01
   7171.67  3.7699131E-01
   7172.00  3.7570956E-01
