    FDMNES
    energy     <xanes>
   7097.00  5.0380567E-03
   7097.33  5.1651555E-03
   7097.67  5.2984878E-03
   7098.00  5.4385080E-03
   7098.33  5.5867144E-03
   7098.67  5.7428575E-03
   7099.00  5.9075685E-03
   7099.33  6.0828464E-03
   7099.67  6.2684509E-03
   7100.00  6.4652837E-03
   7100.33  6.6760873E-03
   7100.67  6.9006725E-03
   7101.00  7.1403701E-03
   7101.33  7.3990689E-03
   7101.67  7.6767213E-03
   7102.00  7.9753691E-03
   7102.33  8.3007481E-03
   7102.67  8.6531522E-03
   7103.00  9.0358619E-03
   7103.33  9.4577528E-03
   7103.67  9.9199143E-03
   7104.00  1.0427926E-02
   7104.33  1.0996358E-02
   7104.67  1.1628194E-02
   7105.00  1.2333621E-02
   7105.33  1.3138433E-02
   7105.67  1.4050381E-02
   7106.00  1.5089866E-02
   7106.33  1.6307302E-02
   7106.67  1.7723697E-02
   7107.00  1.9385325E-02
   7107.33  2.1405194E-02
   7107.67  2.3847184E-02
   7108.00  2.6836886E-02
   7108.33  3.0684468E-02
   7108.67  3.5629951E-02
   7109.00  4.2123951E-02
   7109.33  5.1346766E-02
   7109.67  6.4602797E-02
   7110.00  8.4431234E-02
   7110.33  1.1807939E-01
   7110.67  1.7327121E-01
   7111.00  2.5293858E-01
   7111.33  3.4213763E-01
   7111.67  4.2547950E-01
   7112.00  5.0056126E-01
   7112.33  5.6517943E-01
   7112.67  5.7816937E-01
   7113.00  5.0451805E-01
   7113.33  3.9722857E-01
   7113.67  3.0743660E-01
   7114.00  2.3646245E-01
   7114.33  1.8520488E-01
   7114.67  1.4945672E-01
   7115.00  1.2509495E-01
   7115.33  1.0915452E-01
   7115.67  9.9214424E-02
   7116.00  9.4510671E-02
   7116.33  9.3328819E-02
   7116.67  9.2496024E-02
   7117.00  9.1331129E-02
   7117.33  9.0915785E-02
   7117.67  9.2015274E-02
   7118.00  9.4754548E-02
   7118.33  9.8990475E-02
   7118.67  1.0395752E-01
   7119.00  1.0865209E-01
   7119.33  1.1128921E-01
   7119.67  1.1185331E-01
   7120.00  1.1129458E-01
   7120.33  1.1050600E-01
   7120.67  1.1064821E-01
   7121.00  1.1286887E-01
   7121.33  1.1826135E-01
   7121.67  1.2663992E-01
   7122.00  1.3802467E-01
   7122.33  1.5300014E-01
   7122.67  1.7156872E-01
   7123.00  1.9408565E-01
   7123.33  2.2104830E-01
   7123.67  2.5094931E-01
   7124.00  2.8190205E-01
   7124.33  3.1097147E-01
   7124.67  3.3616619E-01
   7125.00  3.5633793E-01
   7125.33  3.7083659E-01
   7125.67  3.8211236E-01
   7126.00  3.9221666E-01
   7126.33  4.0237560E-01
   7126.67  4.1214730E-01
   7127.00  4.2068740E-01
   7127.33  4.2758872E-01
   7127.67  4.3387995E-01
   7128.00  4.4050609E-01
   7128.33  4.4804089E-01
   7128.67  4.5603601E-01
   7129.00  4.6415270E-01
   7129.33  4.7281994E-01
   7129.67  4.8306351E-01
   7130.00  4.9585059E-01
   7130.33  5.1218938E-01
   7130.67  5.3155073E-01
   7131.00  5.5330960E-01
   7131.33  5.7667732E-01
   7131.67  6.0062829E-01
   7132.00  6.2456011E-01
   7132.33  6.4733484E-01
   7132.67  6.6730647E-01
   7133.00  6.8277058E-01
   7133.33  6.9248790E-01
   7133.67  6.9874222E-01
   7134.00  7.0361012E-01
   7134.33  7.0796242E-01
   7134.67  7.1049556E-01
   7135.00  7.0996374E-01
   7135.33  7.0675078E-01
   7135.67  7.0300192E-01
   7136.00  6.9991242E-01
   7136.33  6.9830920E-01
   7136.67  6.9804832E-01
   7137.00  6.9868430E-01
   7137.33  6.9921910E-01
   7137.67  6.9843152E-01
   7138.00  6.9542967E-01
   7138.33  6.8954126E-01
   7138.67  6.8172230E-01
   7139.00  6.7314932E-01
   7139.33  6.6552101E-01
   7139.67  6.6005625E-01
   7140.00  6.5744816E-01
   7140.33  6.5832547E-01
   7140.67  6.6198347E-01
   7141.00  6.6775718E-01
   7141.33  6.7460626E-01
   7141.67  6.8096625E-01
   7142.00  6.8557394E-01
   7142.33  6.8694256E-01
   7142.67  6.8501698E-01
   7143.00  6.8009249E-01
   7143.33  6.7281444E-01
   7143.67  6.6459229E-01
   7144.00  6.5633774E-01
   7144.33  6.4894138E-01
   7144.67  6.4277464E-01
   7145.00  6.3801368E-01
   7145.33  6.3486343E-01
   7145.67  6.3305690E-01
   7146.00  6.3247317E-01
   7146.33  6.3308496E-01
   7146.67  6.3459075E-01
   7147.00  6.3683844E-01
   7147.33  6.3970493E-01
   7147.67  6.4290659E-01
   7148.00  6.4624809E-01
   7148.33  6.4950857E-01
   7148.67  6.5249834E-01
   7149.00  6.5503547E-01
   7149.33  6.5680854E-01
   7149.67  6.5767283E-01
   7150.00  6.5743960E-01
   7150.33  6.5576024E-01
   7150.67  6.5267293E-01
   7151.00  6.4814888E-01
   7151.33  6.4209580E-01
   7151.67  6.3488743E-01
   7152.00  6.2678608E-01
   7152.33  6.1809319E-01
   7152.67  6.0925129E-01
   7153.00  6.0054869E-01
   7153.33  5.9228268E-01
   7153.67  5.8453524E-01
   7154.00  5.7733239E-01
   7154.33  5.7069170E-01
   7154.67  5.6445621E-01
   7155.00  5.5852807E-01
   7155.33  5.5281721E-01
   7155.67  5.4719897E-01
   7156.00  5.4160401E-01
   7156.33  5.3596773E-01
   7156.67  5.3025570E-01
   7157.00  5.2444885E-01
   7157.33  5.1852463E-01
   7157.67  5.1249644E-01
   7158.00  5.0636967E-01
   7158.33  5.0014186E-01
   7158.67  4.9383561E-01
   7159.00  4.8746828E-01
   7159.33  4.8107075E-01
   7159.67  4.7469663E-01
   7160.00  4.6840093E-01
   7160.33  4.6227561E-01
   7160.67  4.5637689E-01
   7161.00  4.5076306E-01
   7161.33  4.4552410E-01
   7161.67  4.4063475E-01
   7162.00  4.3608135E-01
   7162.33  4.3185834E-01
   7162.67  4.2787213E-01
   7163.00  4.2406996E-01
   7163.33  4.2040694E-01
   7163.67  4.1681666E-01
   7164.00  4.1326699E-01
   7164.33  4.0973813E-01
   7164.67  4.0622154E-01
   7165.00  4.0272255E-01
   7165.33  3.9926086E-01
   7165.67  3.9585469E-01
   7166.00  3.9252564E-01
   7166.33  3.8931197E-01
   7166.67  3.8622550E-01
   7167.00  3.8328694E-01
   7167.33  3.8053874E-01
   7167.67  3.7797153E-01
   7168.00  3.7559229E-01
   7168.33  3.7343060E-01
   7168.67  3.7146273E-01
   7169.00  3.6968553E-01
   7169.33  3.6811567E-01
   7169.67  3.6672244E-01
   7170.00  3.6549948E-01
   7170.33  3.6446091E-01
   7170.67  3.6358140E-01
   7171.00  3.6285707E-01
   7171.33  3.6229919E-01
   7171.67  3.6187250E-01
   7172.00  3.6154868E-01
