    FDMNES
    energy     <xanes>
   7097.00  4.3511226E-03
   7097.33  4.4400058E-03
   7097.67  4.5323455E-03
   7098.00  4.6283503E-03
   7098.33  4.7287787E-03
   7098.67  4.8334347E-03
   7099.00  4.9425979E-03
   7099.33  5.0572375E-03
   7099.67  5.1771486E-03
   7100.00  5.3027166E-03
   7100.33  5.4352143E-03
   7100.67  5.5744410E-03
   7101.00  5.7209467E-03
   7101.33  5.8764589E-03
   7101.67  6.0408120E-03
   7102.00  6.2148242E-03
   7102.33  6.4009388E-03
   7102.67  6.5990959E-03
   7103.00  6.8105767E-03
   7103.33  7.0390200E-03
   7103.67  7.2846382E-03
   7104.00  7.5495700E-03
   7104.33  7.8396042E-03
   7104.67  8.1556416E-03
   7105.00  8.5015533E-03
   7105.33  8.8873787E-03
   7105.67  9.3158378E-03
   7106.00  9.7947233E-03
   7106.33  1.0343585E-02
   7106.67  1.0970458E-02
   7107.00  1.1693477E-02
   7107.33  1.2557403E-02
   7107.67  1.3588603E-02
   7108.00  1.4839081E-02
   7108.33  1.6439087E-02
   7108.67  1.8497465E-02
   7109.00  2.1220058E-02
   7109.33  2.5161152E-02
   7109.67  3.0993535E-02
   7110.00  4.0051546E-02
   7110.33  5.6182621E-02
   7110.67  8.2784806E-02
   7111.00  1.1653470E-01
   7111.33  1.3600802E-01
   7111.67  1.3716945E-01
   7112.00  1.3105278E-01
   7112.33  1.3372730E-01
   7112.67  1.4296506E-01
   7113.00  1.4483840E-01
   7113.33  1.3140020E-01
   7113.67  1.1135404E-01
   7114.00  9.1156358E-02
   7114.33  7.6704466E-02
   7114.67  6.7714529E-02
   7115.00  6.2804269E-02
   7115.33  6.1056621E-02
   7115.67  6.1470562E-02
   7116.00  6.3789299E-02
   7116.33  6.8086391E-02
   7116.67  7.4045402E-02
   7117.00  8.1575140E-02
   7117.33  9.0715256E-02
   7117.67  1.0110193E-01
   7118.00  1.1258253E-01
   7118.33  1.2535725E-01
   7118.67  1.3987030E-01
   7119.00  1.5708366E-01
   7119.33  1.7880701E-01
   7119.67  2.0533819E-01
   7120.00  2.3624926E-01
   7120.33  2.6926887E-01
   7120.67  2.9979493E-01
   7121.00  3.2413251E-01
   7121.33  3.3940318E-01
   7121.67  3.4778540E-01
   7122.00  3.5156253E-01
   7122.33  3.5338795E-01
   7122.67  3.5588359E-01
   7123.00  3.6032206E-01
   7123.33  3.6765414E-01
   7123.67  3.7773299E-01
   7124.00  3.9055052E-01
   7124.33  4.0620747E-01
   7124.67  4.2380679E-01
   7125.00  4.4256954E-01
   7125.33  4.6159360E-01
   7125.67  4.8004434E-01
   7126.00  4.9715034E-01
   7126.33  5.1205837E-01
   7126.67  5.2523541E-01
   7127.00  5.3714705E-01
   7127.33  5.4776804E-01
   7127.67  5.5679417E-01
   7128.00  5.6370495E-01
   7128.33  5.6779589E-01
   7128.67  5.6946633E-01
   7129.00  5.6923183E-01
   7129.33  5.6782073E-01
   7129.67  5.6618052E-01
   7130.00  5.6501809E-01
   7130.33  5.6538559E-01
   7130.67  5.6775396E-01
   7131.00  5.7225560E-01
   7131.33  5.7868401E-01
   7131.67  5.8581521E-01
   7132.00  5.9247558E-01
   7132.33  5.9718314E-01
   7132.67  5.9958778E-01
   7133.00  6.0005778E-01
   7133.33  5.9985405E-01
   7133.67  6.0078996E-01
   7134.00  6.0403888E-01
   7134.33  6.1040486E-01
   7134.67  6.1911362E-01
   7135.00  6.2945669E-01
   7135.33  6.4067672E-01
   7135.67  6.5202784E-01
   7136.00  6.6321714E-01
   7136.33  6.7414751E-01
   7136.67  6.8493964E-01
   7137.00  6.9567921E-01
   7137.33  7.0632846E-01
   7137.67  7.1661706E-01
   7138.00  7.2605418E-01
   7138.33  7.3361135E-01
   7138.67  7.3859348E-01
   7139.00  7.4037650E-01
   7139.33  7.3821152E-01
   7139.67  7.3275280E-01
   7140.00  7.2453006E-01
   7140.33  7.1413016E-01
   7140.67  7.0263536E-01
   7141.00  6.9064620E-01
   7141.33  6.7864962E-01
   7141.67  6.6690843E-01
   7142.00  6.5550311E-01
   7142.33  6.4445868E-01
   7142.67  6.3366223E-01
   7143.00  6.2304219E-01
   7143.33  6.1254498E-01
   7143.67  6.0212295E-01
   7144.00  5.9177889E-01
   7144.33  5.8156613E-01
   7144.67  5.7154105E-01
   7145.00  5.6178291E-01
   7145.33  5.5244003E-01
   7145.67  5.4357140E-01
   7146.00  5.3526058E-01
   7146.33  5.2765715E-01
   7146.67  5.2070345E-01
   7147.00  5.1437957E-01
   7147.33  5.0870966E-01
   7147.67  5.0355242E-01
   7148.00  4.9883700E-01
   7148.33  4.9451828E-01
   7148.67  4.9046609E-01
   7149.00  4.8661698E-01
   7149.33  4.8293218E-01
   7149.67  4.7935506E-01
   7150.00  4.7586689E-01
   7150.33  4.7246947E-01
   7150.67  4.6915554E-01
   7151.00  4.6593413E-01
   7151.33  4.6283511E-01
   7151.67  4.5986636E-01
   7152.00  4.5704980E-01
   7152.33  4.5443621E-01
   7152.67  4.5202970E-01
   7153.00  4.4984996E-01
   7153.33  4.4795437E-01
   7153.67  4.4633854E-01
   7154.00  4.4502633E-01
   7154.33  4.4408396E-01
   7154.67  4.4348907E-01
   7155.00  4.4325017E-01
   7155.33  4.4340941E-01
   7155.67  4.4391150E-01
   7156.00  4.4473955E-01
   7156.33  4.4590100E-01
   7156.67  4.4732097E-01
   7157.00  4.4896002E-01
   7157.33  4.5078620E-01
   7157.67  4.5272074E-01
   7158.00  4.5471186E-01
   7158.33  4.5669914E-01
   7158.67  4.5862442E-01
   7159.00  4.6043965E-01
   7159.33  4.6207124E-01
   7159.67  4.6348903E-01
   7160.00  4.6465287E-01
   7160.33  4.6548447E-01
   7160.67  4.6598561E-01
   7161.00  4.6613197E-01
   7161.33  4.6586031E-01
   7161.67  4.6521323E-01
   7162.00  4.6419743E-01
   7162.33  4.6279475E-01
   7162.67  4.6108955E-01
   7163.00  4.5912776E-01
   7163.33  4.5694842E-01
   7163.67  4.5464451E-01
   7164.00  4.5227512E-01
   7164.33  4.4990458E-01
   7164.67  4.4758849E-01
   7165.00  4.4536487E-01
   7165.33  4.4328031E-01
   7165.67  4.4133586E-01
   7166.00  4.3953529E-01
   7166.33  4.3789014E-01
   7166.67  4.3636921E-01
   7167.00  4.3495614E-01
   7167.33  4.3363995E-01
   7167.67  4.3238824E-01
   7168.00  4.3118542E-01
   7168.33  4.3002401E-01
   7168.67  4.2889591E-01
   7169.00  4.2780553E-01
   7169.33  4.2677186E-01
   7169.67  4.2580738E-01
   7170.00  4.2493104E-01
   7170.33  4.2417929E-01
   7170.67  4.2355815E-01
   7171.00  4.2307910E-01
   7171.33  4.2276125E-01
   7171.67  4.2256619E-01
   7172.00  4.2245244E-01
