    FDMNES
    energy     <xanes>
   7097.00  4.3200099E-03
   7097.33  4.4041614E-03
   7097.67  4.4913643E-03
   7098.00  4.5817882E-03
   7098.33  4.6760779E-03
   7098.67  4.7740406E-03
   7099.00  4.8758982E-03
   7099.33  4.9824577E-03
   7099.67  5.0935120E-03
   7100.00  5.2093598E-03
   7100.33  5.3310347E-03
   7100.67  5.4583226E-03
   7101.00  5.5916376E-03
   7101.33  5.7323437E-03
   7101.67  5.8802360E-03
   7102.00  6.0359125E-03
   7102.33  6.2012392E-03
   7102.67  6.3760614E-03
   7103.00  6.5612838E-03
   7103.33  6.7595830E-03
   7103.67  6.9709498E-03
   7104.00  7.1968387E-03
   7104.33  7.4413299E-03
   7104.67  7.7047982E-03
   7105.00  7.9897708E-03
   7105.33  8.3029952E-03
   7105.67  8.6458681E-03
   7106.00  9.0232598E-03
   7106.33  9.4476394E-03
   7106.67  9.9233593E-03
   7107.00  1.0461232E-02
   7107.33  1.1088232E-02
   7107.67  1.1818660E-02
   7108.00  1.2681958E-02
   7108.33  1.3751870E-02
   7108.67  1.5085746E-02
   7109.00  1.6793226E-02
   7109.33  1.9166168E-02
   7109.67  2.2540437E-02
   7110.00  2.7579358E-02
   7110.33  3.6209214E-02
   7110.67  5.0501700E-02
   7111.00  7.0637099E-02
   7111.33  8.8422710E-02
   7111.67  9.8082450E-02
   7112.00  9.7303078E-02
   7112.33  8.7515371E-02
   7112.67  7.6637388E-02
   7113.00  6.9942408E-02
   7113.33  7.3423269E-02
   7113.67  8.7285254E-02
   7114.00  1.1092223E-01
   7114.33  1.3808362E-01
   7114.67  1.4814990E-01
   7115.00  1.2773009E-01
   7115.33  9.8185932E-02
   7115.67  7.9149497E-02
   7116.00  6.9988283E-02
   7116.33  6.7846000E-02
   7116.67  6.9766027E-02
   7117.00  7.4858239E-02
   7117.33  8.3002031E-02
   7117.67  9.3739949E-02
   7118.00  1.0716268E-01
   7118.33  1.2375719E-01
   7118.67  1.4258364E-01
   7119.00  1.6145467E-01
   7119.33  1.7689284E-01
   7119.67  1.9137831E-01
   7120.00  2.1045727E-01
   7120.33  2.3843541E-01
   7120.67  2.7212299E-01
   7121.00  3.0661558E-01
   7121.33  3.3527894E-01
   7121.67  3.5580455E-01
   7122.00  3.6808223E-01
   7122.33  3.7288262E-01
   7122.67  3.7421793E-01
   7123.00  3.7546837E-01
   7123.33  3.8038484E-01
   7123.67  3.8998890E-01
   7124.00  4.0354445E-01
   7124.33  4.1926570E-01
   7124.67  4.3537020E-01
   7125.00  4.5117910E-01
   7125.33  4.6554290E-01
   7125.67  4.7702269E-01
   7126.00  4.8468591E-01
   7126.33  4.8893504E-01
   7126.67  4.9238784E-01
   7127.00  4.9688827E-01
   7127.33  5.0391219E-01
   7127.67  5.1325137E-01
   7128.00  5.2432504E-01
   7128.33  5.3633789E-01
   7128.67  5.4850751E-01
   7129.00  5.6060160E-01
   7129.33  5.7275077E-01
   7129.67  5.8538321E-01
   7130.00  5.9902639E-01
   7130.33  6.1464674E-01
   7130.67  6.3286173E-01
   7131.00  6.5434050E-01
   7131.33  6.7998798E-01
   7131.67  7.0910370E-01
   7132.00  7.4081142E-01
   7132.33  7.7342804E-01
   7132.67  8.0429707E-01
   7133.00  8.3084985E-01
   7133.33  8.4943596E-01
   7133.67  8.5925217E-01
   7134.00  8.6013200E-01
   7134.33  8.5227814E-01
   7134.67  8.3867116E-01
   7135.00  8.2117117E-01
   7135.33  8.0145585E-01
   7135.67  7.8124357E-01
   7136.00  7.6135857E-01
   7136.33  7.4232944E-01
   7136.67  7.2404491E-01
   7137.00  7.0627464E-01
   7137.33  6.8871475E-01
   7137.67  6.7112771E-01
   7138.00  6.5348893E-01
   7138.33  6.3593719E-01
   7138.67  6.1867744E-01
   7139.00  6.0190017E-01
   7139.33  5.8587729E-01
   7139.67  5.7066919E-01
   7140.00  5.5637121E-01
   7140.33  5.4319538E-01
   7140.67  5.3108786E-01
   7141.00  5.2010095E-01
   7141.33  5.1043120E-01
   7141.67  5.0195917E-01
   7142.00  4.9467506E-01
   7142.33  4.8867683E-01
   7142.67  4.8374307E-01
   7143.00  4.7976191E-01
   7143.33  4.7665328E-01
   7143.67  4.7412161E-01
   7144.00  4.7198573E-01
   7144.33  4.7006209E-01
   7144.67  4.6814761E-01
   7145.00  4.6612440E-01
   7145.33  4.6388034E-01
   7145.67  4.6140863E-01
   7146.00  4.5872779E-01
   7146.33  4.5589589E-01
   7146.67  4.5306173E-01
   7147.00  4.5038149E-01
   7147.33  4.4812096E-01
   7147.67  4.4646016E-01
   7148.00  4.4557029E-01
   7148.33  4.4570599E-01
   7148.67  4.4680491E-01
   7149.00  4.4883319E-01
   7149.33  4.5178320E-01
   7149.67  4.5539634E-01
   7150.00  4.5952030E-01
   7150.33  4.6401356E-01
   7150.67  4.6866609E-01
   7151.00  4.7336150E-01
   7151.33  4.7798686E-01
   7151.67  4.8247060E-01
   7152.00  4.8676222E-01
   7152.33  4.9079098E-01
   7152.67  4.9455932E-01
   7153.00  4.9805307E-01
   7153.33  5.0122770E-01
   7153.67  5.0411452E-01
   7154.00  5.0671140E-01
   7154.33  5.0897836E-01
   7154.67  5.1094525E-01
   7155.00  5.1260142E-01
   7155.33  5.1388512E-01
   7155.67  5.1480917E-01
   7156.00  5.1534497E-01
   7156.33  5.1540452E-01
   7156.67  5.1500787E-01
   7157.00  5.1413208E-01
   7157.33  5.1269977E-01
   7157.67  5.1077408E-01
   7158.00  5.0837168E-01
   7158.33  5.0547671E-01
   7158.67  5.0220261E-01
   7159.00  4.9861261E-01
   7159.33  4.9476179E-01
   7159.67  4.9076828E-01
   7160.00  4.8670662E-01
   7160.33  4.8265718E-01
   7160.67  4.7868640E-01
   7161.00  4.7484221E-01
   7161.33  4.7119047E-01
   7161.67  4.6774497E-01
   7162.00  4.6452585E-01
   7162.33  4.6157600E-01
   7162.67  4.5887151E-01
   7163.00  4.5641318E-01
   7163.33  4.5422997E-01
   7163.67  4.5228918E-01
   7164.00  4.5058917E-01
   7164.33  4.4915719E-01
   7164.67  4.4795988E-01
   7165.00  4.4699362E-01
   7165.33  4.4628122E-01
   7165.67  4.4578700E-01
   7166.00  4.4550202E-01
   7166.33  4.4543565E-01
   7166.67  4.4554356E-01
   7167.00  4.4580483E-01
   7167.33  4.4620677E-01
   7167.67  4.4670216E-01
   7168.00  4.4726241E-01
   7168.33  4.4785791E-01
   7168.67  4.4845304E-01
   7169.00  4.4902404E-01
   7169.33  4.4954284E-01
   7169.67  4.4999985E-01
   7170.00  4.5038767E-01
   7170.33  4.5069477E-01
   7170.67  4.5093300E-01
   7171.00  4.5110841E-01
   7171.33  4.5122443E-01
   7171.67  4.5129983E-01
   7172.00  4.5134600E-01
