    FDMNES
    energy     <xanes>
   7097.00  5.0391329E-03
   7097.33  5.1591364E-03
   7097.67  5.2846046E-03
   7098.00  5.4159067E-03
   7098.33  5.5543062E-03
   7098.67  5.6995429E-03
   7099.00  5.8521185E-03
   7099.33  6.0136819E-03
   7099.67  6.1839649E-03
   7100.00  6.3636666E-03
   7100.33  6.5549939E-03
   7100.67  6.7576931E-03
   7101.00  6.9727685E-03
   7101.33  7.2032616E-03
   7101.67  7.4489851E-03
   7102.00  7.7114330E-03
   7102.33  7.9949479E-03
   7102.67  8.2995231E-03
   7103.00  8.6274772E-03
   7103.33  8.9852840E-03
   7103.67  9.3733746E-03
   7104.00  9.7955404E-03
   7104.33  1.0261965E-02
   7104.67  1.0774128E-02
   7105.00  1.1338652E-02
   7105.33  1.1972699E-02
   7105.67  1.2680362E-02
   7106.00  1.3474252E-02
   7106.33  1.4386088E-02
   7106.67  1.5427054E-02
   7107.00  1.6624218E-02
   7107.33  1.8044354E-02
   7107.67  1.9720971E-02
   7108.00  2.1723371E-02
   7108.33  2.4223212E-02
   7108.67  2.7343656E-02
   7109.00  3.1321137E-02
   7109.33  3.6774892E-02
   7109.67  4.4369515E-02
   7110.00  5.5408324E-02
   7110.33  7.3550656E-02
   7110.67  1.0190843E-01
   7111.00  1.3850216E-01
   7111.33  1.7276591E-01
   7111.67  2.0928246E-01
   7112.00  2.5467759E-01
   7112.33  3.1617334E-01
   7112.67  3.8725031E-01
   7113.00  4.4670459E-01
   7113.33  4.5566547E-01
   7113.67  4.2381820E-01
   7114.00  3.8068006E-01
   7114.33  3.4850205E-01
   7114.67  3.2989499E-01
   7115.00  3.2099849E-01
   7115.33  3.1232915E-01
   7115.67  2.9593538E-01
   7116.00  2.7214213E-01
   7116.33  2.4634846E-01
   7116.67  2.2311323E-01
   7117.00  2.0360623E-01
   7117.33  1.8803750E-01
   7117.67  1.7530344E-01
   7118.00  1.6491503E-01
   7118.33  1.5670859E-01
   7118.67  1.5011676E-01
   7119.00  1.4485973E-01
   7119.33  1.4068050E-01
   7119.67  1.3706653E-01
   7120.00  1.3388270E-01
   7120.33  1.3154137E-01
   7120.67  1.3041469E-01
   7121.00  1.3053348E-01
   7121.33  1.3152749E-01
   7121.67  1.3276669E-01
   7122.00  1.3414942E-01
   7122.33  1.3598149E-01
   7122.67  1.3851522E-01
   7123.00  1.4193806E-01
   7123.33  1.4659133E-01
   7123.67  1.5260598E-01
   7124.00  1.6028867E-01
   7124.33  1.7034274E-01
   7124.67  1.8298081E-01
   7125.00  1.9854455E-01
   7125.33  2.1748855E-01
   7125.67  2.3876062E-01
   7126.00  2.6185900E-01
   7126.33  2.8896794E-01
   7126.67  3.2221838E-01
   7127.00  3.6087392E-01
   7127.33  3.9919044E-01
   7127.67  4.3111573E-01
   7128.00  4.5573352E-01
   7128.33  4.7595517E-01
   7128.67  4.9655610E-01
   7129.00  5.2022761E-01
   7129.33  5.4917723E-01
   7129.67  5.8305940E-01
   7130.00  6.2120997E-01
   7130.33  6.6247085E-01
   7130.67  7.0458902E-01
   7131.00  7.4598521E-01
   7131.33  7.8523492E-01
   7131.67  8.2264789E-01
   7132.00  8.5932563E-01
   7132.33  8.9704443E-01
   7132.67  9.3633475E-01
   7133.00  9.7598730E-01
   7133.33  1.0116173E+00
   7133.67  1.0373838E+00
   7134.00  1.0472164E+00
   7134.33  1.0334302E+00
   7134.67  9.9850976E-01
   7135.00  9.4654939E-01
   7135.33  8.8359550E-01
   7135.67  8.1781063E-01
   7136.00  7.5353812E-01
   7136.33  6.9437972E-01
   7136.67  6.4118610E-01
   7137.00  5.9440084E-01
   7137.33  5.5490226E-01
   7137.67  5.2173984E-01
   7138.00  4.9472645E-01
   7138.33  4.7431749E-01
   7138.67  4.5941115E-01
   7139.00  4.4959781E-01
   7139.33  4.4484538E-01
   7139.67  4.4390218E-01
   7140.00  4.4614637E-01
   7140.33  4.5119237E-01
   7140.67  4.5812173E-01
   7141.00  4.6651600E-01
   7141.33  4.7615031E-01
   7141.67  4.8663860E-01
   7142.00  4.9783113E-01
   7142.33  5.0965552E-01
   7142.67  5.2188978E-01
   7143.00  5.3436889E-01
   7143.33  5.4684390E-01
   7143.67  5.5900888E-01
   7144.00  5.7056997E-01
   7144.33  5.8106158E-01
   7144.67  5.9028795E-01
   7145.00  5.9803186E-01
   7145.33  6.0391871E-01
   7145.67  6.0808777E-01
   7146.00  6.1055998E-01
   7146.33  6.1123984E-01
   7146.67  6.1049583E-01
   7147.00  6.0850860E-01
   7147.33  6.0538557E-01
   7147.67  6.0149420E-01
   7148.00  5.9702957E-01
   7148.33  5.9213563E-01
   7148.67  5.8701832E-01
   7149.00  5.8179870E-01
   7149.33  5.7660223E-01
   7149.67  5.7153103E-01
   7150.00  5.6666348E-01
   7150.33  5.6211476E-01
   7150.67  5.5791891E-01
   7151.00  5.5412890E-01
   7151.33  5.5085715E-01
   7151.67  5.4809455E-01
   7152.00  5.4587802E-01
   7152.33  5.4431769E-01
   7152.67  5.4337062E-01
   7153.00  5.4305515E-01
   7153.33  5.4346166E-01
   7153.67  5.4450450E-01
   7154.00  5.4616297E-01
   7154.33  5.4846097E-01
   7154.67  5.5125275E-01
   7155.00  5.5445196E-01
   7155.33  5.5797127E-01
   7155.67  5.6163605E-01
   7156.00  5.6532248E-01
   7156.33  5.6887654E-01
   7156.67  5.7219012E-01
   7157.00  5.7517969E-01
   7157.33  5.7772854E-01
   7157.67  5.7984501E-01
   7158.00  5.8150966E-01
   7158.33  5.8265534E-01
   7158.67  5.8333621E-01
   7159.00  5.8354866E-01
   7159.33  5.8322569E-01
   7159.67  5.8241555E-01
   7160.00  5.8110635E-01
   7160.33  5.7921966E-01
   7160.67  5.7681118E-01
   7161.00  5.7388018E-01
   7161.33  5.7036947E-01
   7161.67  5.6637000E-01
   7162.00  5.6191844E-01
   7162.33  5.5701566E-01
   7162.67  5.5177064E-01
   7163.00  5.4623788E-01
   7163.33  5.4045268E-01
   7163.67  5.3450281E-01
   7164.00  5.2843386E-01
   7164.33  5.2227568E-01
   7164.67  5.1606305E-01
   7165.00  5.0980894E-01
   7165.33  5.0351715E-01
   7165.67  4.9719571E-01
   7166.00  4.9084789E-01
   7166.33  4.8447672E-01
   7166.67  4.7809431E-01
   7167.00  4.7171402E-01
   7167.33  4.6536137E-01
   7167.67  4.5906263E-01
   7168.00  4.5284870E-01
   7168.33  4.4677850E-01
   7168.67  4.4088396E-01
   7169.00  4.3520321E-01
   7169.33  4.2980617E-01
   7169.67  4.2469703E-01
   7170.00  4.1990493E-01
   7170.33  4.1550489E-01
   7170.67  4.1148231E-01
   7171.00  4.0786235E-01
   7171.33  4.0473570E-01
   7171.67  4.0210127E-01
   7172.00  4.0001935E-01
