    FDMNES
    energy     <xanes>
   7097.00  5.1046651E-03
   7097.33  5.2193885E-03
   7097.67  5.3390349E-03
   7098.00  5.4639221E-03
   7098.33  5.5951636E-03
   7098.67  5.7325063E-03
   7099.00  5.8763790E-03
   7099.33  6.0282227E-03
   7099.67  6.1877744E-03
   7100.00  6.3556295E-03
   7100.33  6.5337016E-03
   7100.67  6.7217382E-03
   7101.00  6.9205928E-03
   7101.33  7.1328880E-03
   7101.67  7.3584281E-03
   7102.00  7.5984852E-03
   7102.33  7.8567939E-03
   7102.67  8.1333208E-03
   7103.00  8.4300524E-03
   7103.33  8.7525675E-03
   7103.67  9.1012378E-03
   7104.00  9.4793532E-03
   7104.33  9.8957657E-03
   7104.67  1.0351846E-02
   7105.00  1.0853463E-02
   7105.33  1.1415808E-02
   7105.67  1.2042824E-02
   7106.00  1.2746055E-02
   7106.33  1.3554460E-02
   7106.67  1.4479261E-02
   7107.00  1.5546407E-02
   7107.33  1.6819861E-02
   7107.67  1.8334915E-02
   7108.00  2.0162321E-02
   7108.33  2.2478090E-02
   7108.67  2.5419728E-02
   7109.00  2.9247805E-02
   7109.33  3.4652294E-02
   7109.67  4.2419449E-02
   7110.00  5.4095087E-02
   7110.33  7.4133679E-02
   7110.67  1.0716936E-01
   7111.00  1.5348015E-01
   7111.33  1.9579654E-01
   7111.67  2.2092127E-01
   7112.00  2.3137555E-01
   7112.33  2.4232243E-01
   7112.67  2.5859546E-01
   7113.00  2.6564538E-01
   7113.33  2.5384558E-01
   7113.67  2.3597359E-01
   7114.00  2.1491051E-01
   7114.33  1.8040450E-01
   7114.67  1.4722637E-01
   7115.00  1.2487348E-01
   7115.33  1.1386413E-01
   7115.67  1.1034175E-01
   7116.00  1.1286987E-01
   7116.33  1.2170545E-01
   7116.67  1.3691068E-01
   7117.00  1.5942805E-01
   7117.33  1.9009939E-01
   7117.67  2.2632790E-01
   7118.00  2.6513324E-01
   7118.33  2.9607749E-01
   7118.67  3.1014895E-01
   7119.00  3.0880441E-01
   7119.33  2.9791733E-01
   7119.67  2.8518115E-01
   7120.00  2.7578587E-01
   7120.33  2.7377201E-01
   7120.67  2.7848356E-01
   7121.00  2.8863498E-01
   7121.33  3.0283477E-01
   7121.67  3.1951641E-01
   7122.00  3.3821491E-01
   7122.33  3.5843150E-01
   7122.67  3.7901716E-01
   7123.00  3.9929719E-01
   7123.33  4.1964836E-01
   7123.67  4.4151217E-01
   7124.00  4.6564182E-01
   7124.33  4.9121931E-01
   7124.67  5.1597341E-01
   7125.00  5.3869060E-01
   7125.33  5.5896147E-01
   7125.67  5.7742346E-01
   7126.00  5.9396927E-01
   7126.33  6.0788119E-01
   7126.67  6.1964177E-01
   7127.00  6.2998581E-01
   7127.33  6.3989310E-01
   7127.67  6.5033953E-01
   7128.00  6.6162402E-01
   7128.33  6.7294648E-01
   7128.67  6.8293467E-01
   7129.00  6.9117668E-01
   7129.33  6.9819042E-01
   7129.67  7.0490611E-01
   7130.00  7.1161023E-01
   7130.33  7.1837782E-01
   7130.67  7.2527255E-01
   7131.00  7.3240028E-01
   7131.33  7.3961622E-01
   7131.67  7.4594460E-01
   7132.00  7.4992668E-01
   7132.33  7.4928545E-01
   7132.67  7.4336698E-01
   7133.00  7.3184930E-01
   7133.33  7.1434403E-01
   7133.67  6.9227583E-01
   7134.00  6.6669489E-01
   7134.33  6.3912400E-01
   7134.67  6.1167675E-01
   7135.00  5.8565791E-01
   7135.33  5.6238893E-01
   7135.67  5.4211931E-01
   7136.00  5.2500074E-01
   7136.33  5.1127028E-01
   7136.67  5.0019065E-01
   7137.00  4.9137655E-01
   7137.33  4.8458689E-01
   7137.67  4.7914191E-01
   7138.00  4.7468167E-01
   7138.33  4.7093709E-01
   7138.67  4.6760304E-01
   7139.00  4.6460727E-01
   7139.33  4.6203593E-01
   7139.67  4.5994708E-01
   7140.00  4.5842233E-01
   7140.33  4.5757032E-01
   7140.67  4.5728150E-01
   7141.00  4.5749468E-01
   7141.33  4.5817719E-01
   7141.67  4.5916988E-01
   7142.00  4.6034322E-01
   7142.33  4.6148976E-01
   7142.67  4.6237034E-01
   7143.00  4.6277756E-01
   7143.33  4.6243462E-01
   7143.67  4.6132926E-01
   7144.00  4.5947565E-01
   7144.33  4.5691022E-01
   7144.67  4.5389404E-01
   7145.00  4.5060039E-01
   7145.33  4.4720924E-01
   7145.67  4.4389369E-01
   7146.00  4.4075892E-01
   7146.33  4.3791245E-01
   7146.67  4.3535914E-01
   7147.00  4.3310454E-01
   7147.33  4.3115516E-01
   7147.67  4.2940277E-01
   7148.00  4.2774138E-01
   7148.33  4.2600439E-01
   7148.67  4.2404439E-01
   7149.00  4.2177376E-01
   7149.33  4.1915907E-01
   7149.67  4.1637638E-01
   7150.00  4.1363014E-01
   7150.33  4.1124193E-01
   7150.67  4.0943603E-01
   7151.00  4.0838751E-01
   7151.33  4.0832710E-01
   7151.67  4.0917224E-01
   7152.00  4.1087756E-01
   7152.33  4.1341739E-01
   7152.67  4.1652894E-01
   7153.00  4.2004163E-01
   7153.33  4.2376984E-01
   7153.67  4.2747951E-01
   7154.00  4.3100148E-01
   7154.33  4.3412633E-01
   7154.67  4.3677585E-01
   7155.00  4.3887965E-01
   7155.33  4.4032109E-01
   7155.67  4.4117158E-01
   7156.00  4.4146026E-01
   7156.33  4.4118992E-01
   7156.67  4.4051255E-01
   7157.00  4.3951817E-01
   7157.33  4.3829209E-01
   7157.67  4.3696874E-01
   7158.00  4.3563488E-01
   7158.33  4.3439234E-01
   7158.67  4.3331109E-01
   7159.00  4.3244890E-01
   7159.33  4.3189197E-01
   7159.67  4.3164174E-01
   7160.00  4.3171477E-01
   7160.33  4.3215449E-01
   7160.67  4.3290065E-01
   7161.00  4.3391926E-01
   7161.33  4.3519823E-01
   7161.67  4.3667329E-01
   7162.00  4.3831782E-01
   7162.33  4.4012691E-01
   7162.67  4.4207242E-01
   7163.00  4.4415746E-01
   7163.33  4.4641503E-01
   7163.67  4.4884553E-01
   7164.00  4.5146721E-01
   7164.33  4.5432578E-01
   7164.67  4.5740788E-01
   7165.00  4.6071711E-01
   7165.33  4.6427591E-01
   7165.67  4.6804038E-01
   7166.00  4.7198836E-01
   7166.33  4.7610507E-01
   7166.67  4.8033115E-01
   7167.00  4.8462725E-01
   7167.33  4.8894741E-01
   7167.67  4.9323938E-01
   7168.00  4.9746084E-01
   7168.33  5.0154892E-01
   7168.67  5.0547276E-01
   7169.00  5.0919604E-01
   7169.33  5.1265129E-01
   7169.67  5.1583626E-01
   7170.00  5.1872830E-01
   7170.33  5.2126888E-01
   7170.67  5.2348527E-01
   7171.00  5.2537300E-01
   7171.33  5.2689333E-01
   7171.67  5.2809922E-01
   7172.00  5.2901389E-01
