    FDMNES
    energy     <xanes>
   7097.00  5.0761484E-03
   7097.33  5.1936418E-03
   7097.67  5.3162203E-03
   7098.00  5.4442095E-03
   7098.33  5.5787553E-03
   7098.67  5.7195918E-03
   7099.00  5.8671565E-03
   7099.33  6.0229263E-03
   7099.67  6.1866221E-03
   7100.00  6.3588471E-03
   7100.33  6.5415530E-03
   7100.67  6.7344650E-03
   7101.00  6.9384412E-03
   7101.33  7.1561376E-03
   7101.67  7.3873259E-03
   7102.00  7.6332718E-03
   7102.33  7.8977235E-03
   7102.67  8.1805932E-03
   7103.00  8.4838330E-03
   7103.33  8.8129751E-03
   7103.67  9.1682888E-03
   7104.00  9.5529565E-03
   7104.33  9.9756188E-03
   7104.67  1.0437425E-02
   7105.00  1.0943942E-02
   7105.33  1.1509694E-02
   7105.67  1.2138073E-02
   7106.00  1.2839755E-02
   7106.33  1.3641696E-02
   7106.67  1.4553504E-02
   7107.00  1.5598421E-02
   7107.33  1.6833932E-02
   7107.67  1.8289638E-02
   7108.00  2.0026392E-02
   7108.33  2.2195307E-02
   7108.67  2.4907904E-02
   7109.00  2.8377318E-02
   7109.33  3.3163241E-02
   7109.67  3.9876689E-02
   7110.00  4.9716231E-02
   7110.33  6.6116557E-02
   7110.67  9.2713236E-02
   7111.00  1.3040327E-01
   7111.33  1.6602767E-01
   7111.67  1.8834579E-01
   7112.00  2.1429122E-01
   7112.33  2.6037530E-01
   7112.67  3.0371745E-01
   7113.00  3.2535422E-01
   7113.33  3.2590497E-01
   7113.67  2.9867274E-01
   7114.00  2.4837545E-01
   7114.33  2.0151017E-01
   7114.67  1.6839675E-01
   7115.00  1.4761656E-01
   7115.33  1.3724768E-01
   7115.67  1.3410294E-01
   7116.00  1.3726412E-01
   7116.33  1.4701774E-01
   7116.67  1.6255836E-01
   7117.00  1.8376480E-01
   7117.33  2.1021432E-01
   7117.67  2.3808779E-01
   7118.00  2.6241328E-01
   7118.33  2.7693530E-01
   7118.67  2.8312446E-01
   7119.00  2.8514041E-01
   7119.33  2.8769853E-01
   7119.67  2.9345231E-01
   7120.00  3.0354719E-01
   7120.33  3.1886221E-01
   7120.67  3.3799267E-01
   7121.00  3.5980673E-01
   7121.33  3.8378562E-01
   7121.67  4.1008066E-01
   7122.00  4.3932746E-01
   7122.33  4.7151593E-01
   7122.67  5.0502406E-01
   7123.00  5.3843440E-01
   7123.33  5.6957302E-01
   7123.67  5.9717085E-01
   7124.00  6.2076352E-01
   7124.33  6.3941905E-01
   7124.67  6.5286178E-01
   7125.00  6.6083141E-01
   7125.33  6.6344952E-01
   7125.67  6.6206129E-01
   7126.00  6.5685822E-01
   7126.33  6.4764750E-01
   7126.67  6.3571564E-01
   7127.00  6.2217949E-01
   7127.33  6.0818071E-01
   7127.67  5.9442044E-01
   7128.00  5.8099445E-01
   7128.33  5.6777081E-01
   7128.67  5.5475499E-01
   7129.00  5.4234148E-01
   7129.33  5.3144002E-01
   7129.67  5.2260680E-01
   7130.00  5.1626908E-01
   7130.33  5.1290656E-01
   7130.67  5.1186191E-01
   7131.00  5.1246821E-01
   7131.33  5.1379843E-01
   7131.67  5.1491069E-01
   7132.00  5.1544476E-01
   7132.33  5.1548626E-01
   7132.67  5.1571426E-01
   7133.00  5.1675534E-01
   7133.33  5.1904679E-01
   7133.67  5.2197693E-01
   7134.00  5.2477593E-01
   7134.33  5.2664420E-01
   7134.67  5.2749662E-01
   7135.00  5.2746666E-01
   7135.33  5.2671819E-01
   7135.67  5.2554297E-01
   7136.00  5.2407548E-01
   7136.33  5.2239445E-01
   7136.67  5.2058192E-01
   7137.00  5.1867222E-01
   7137.33  5.1670777E-01
   7137.67  5.1477137E-01
   7138.00  5.1295195E-01
   7138.33  5.1138651E-01
   7138.67  5.1012549E-01
   7139.00  5.0918730E-01
   7139.33  5.0856033E-01
   7139.67  5.0810567E-01
   7140.00  5.0771123E-01
   7140.33  5.0724143E-01
   7140.67  5.0660507E-01
   7141.00  5.0575076E-01
   7141.33  5.0462191E-01
   7141.67  5.0324471E-01
   7142.00  5.0162623E-01
   7142.33  4.9975529E-01
   7142.67  4.9768404E-01
   7143.00  4.9543787E-01
   7143.33  4.9303277E-01
   7143.67  4.9052300E-01
   7144.00  4.8794117E-01
   7144.33  4.8532095E-01
   7144.67  4.8270342E-01
   7145.00  4.8011841E-01
   7145.33  4.7760580E-01
   7145.67  4.7518584E-01
   7146.00  4.7287994E-01
   7146.33  4.7072670E-01
   7146.67  4.6872687E-01
   7147.00  4.6689167E-01
   7147.33  4.6524955E-01
   7147.67  4.6377833E-01
   7148.00  4.6247147E-01
   7148.33  4.6133269E-01
   7148.67  4.6032044E-01
   7149.00  4.5940951E-01
   7149.33  4.5857443E-01
   7149.67  4.5776903E-01
   7150.00  4.5695956E-01
   7150.33  4.5610507E-01
   7150.67  4.5517935E-01
   7151.00  4.5415949E-01
   7151.33  4.5301199E-01
   7151.67  4.5174191E-01
   7152.00  4.5035014E-01
   7152.33  4.4883282E-01
   7152.67  4.4722175E-01
   7153.00  4.4553645E-01
   7153.33  4.4379597E-01
   7153.67  4.4203184E-01
   7154.00  4.4026430E-01
   7154.33  4.3851454E-01
   7154.67  4.3679277E-01
   7155.00  4.3510548E-01
   7155.33  4.3346226E-01
   7155.67  4.3186068E-01
   7156.00  4.3030249E-01
   7156.33  4.2879547E-01
   7156.67  4.2733627E-01
   7157.00  4.2592821E-01
   7157.33  4.2458503E-01
   7157.67  4.2330913E-01
   7158.00  4.2210980E-01
   7158.33  4.2100921E-01
   7158.67  4.2000816E-01
   7159.00  4.1911636E-01
   7159.33  4.1835828E-01
   7159.67  4.1772631E-01
   7160.00  4.1722442E-01
   7160.33  4.1687088E-01
   7160.67  4.1664784E-01
   7161.00  4.1655196E-01
   7161.33  4.1659207E-01
   7161.67  4.1674242E-01
   7162.00  4.1699511E-01
   7162.33  4.1735796E-01
   7162.67  4.1781606E-01
   7163.00  4.1836790E-01
   7163.33  4.1902590E-01
   7163.67  4.1978087E-01
   7164.00  4.2063525E-01
   7164.33  4.2160330E-01
   7164.67  4.2267199E-01
   7165.00  4.2383938E-01
   7165.33  4.2511348E-01
   7165.67  4.2647655E-01
   7166.00  4.2792146E-01
   7166.33  4.2944757E-01
   7166.67  4.3103688E-01
   7167.00  4.3268258E-01
   7167.33  4.3438399E-01
   7167.67  4.3612896E-01
   7168.00  4.3791311E-01
   7168.33  4.3973683E-01
   7168.67  4.4159199E-01
   7169.00  4.4347487E-01
   7169.33  4.4538386E-01
   7169.67  4.4731120E-01
   7170.00  4.4925124E-01
   7170.33  4.5119430E-01
   7170.67  4.5312324E-01
   7171.00  4.5501451E-01
   7171.33  4.5681025E-01
   7171.67  4.5843397E-01
   7172.00  4.5977116E-01
