    FDMNES
    energy     <xanes>
   7097.00  3.5876402E-03
   7097.33  3.6523386E-03
   7097.67  3.7193417E-03
   7098.00  3.7887816E-03
   7098.33  3.8611516E-03
   7098.67  3.9363115E-03
   7099.00  4.0144355E-03
   7099.33  4.0961458E-03
   7099.67  4.1812926E-03
   7100.00  4.2701121E-03
   7100.33  4.3634075E-03
   7100.67  4.4610250E-03
   7101.00  4.5632939E-03
   7101.33  4.6712808E-03
   7101.67  4.7848406E-03
   7102.00  4.9044485E-03
   7102.33  5.0315701E-03
   7102.67  5.1660976E-03
   7103.00  5.3087464E-03
   7103.33  5.4616155E-03
   7103.67  5.6247006E-03
   7104.00  5.7991338E-03
   7104.33  5.9880831E-03
   7104.67  6.1918023E-03
   7105.00  6.4122019E-03
   7105.33  6.6543938E-03
   7105.67  6.9192813E-03
   7106.00  7.2103697E-03
   7106.33  7.5366767E-03
   7106.67  7.9008550E-03
   7107.00  8.3101185E-03
   7107.33  8.7825069E-03
   7107.67  9.3260483E-03
   7108.00  9.9583328E-03
   7108.33  1.0723072E-02
   7108.67  1.1649047E-02
   7109.00  1.2792655E-02
   7109.33  1.4300186E-02
   7109.67  1.6318406E-02
   7110.00  1.9134864E-02
   7110.33  2.3563319E-02
   7110.67  3.0472614E-02
   7111.00  4.0363517E-02
   7111.33  5.1976716E-02
   7111.67  6.1898930E-02
   7112.00  6.8870065E-02
   7112.33  8.0060598E-02
   7112.67  9.8945587E-02
   7113.00  1.1959232E-01
   7113.33  1.2165612E-01
   7113.67  1.2059817E-01
   7114.00  1.3574843E-01
   7114.33  1.6320302E-01
   7114.67  1.7201019E-01
   7115.00  1.6677118E-01
   7115.33  1.7731216E-01
   7115.67  1.8332955E-01
   7116.00  1.6340212E-01
   7116.33  1.3265124E-01
   7116.67  1.0559366E-01
   7117.00  8.5703970E-02
   7117.33  7.2311240E-02
   7117.67  6.3084814E-02
   7118.00  5.5593574E-02
   7118.33  4.8812463E-02
   7118.67  4.3407806E-02
   7119.00  3.9650040E-02
   7119.33  3.7510472E-02
   7119.67  3.6511341E-02
   7120.00  3.6481449E-02
   7120.33  3.7385539E-02
   7120.67  3.9090073E-02
   7121.00  4.1742373E-02
   7121.33  4.5560242E-02
   7121.67  5.0146862E-02
   7122.00  5.5227862E-02
   7122.33  6.0612478E-02
   7122.67  6.6211557E-02
   7123.00  7.2655526E-02
   7123.33  8.0749510E-02
   7123.67  8.9206842E-02
   7124.00  9.6402659E-02
   7124.33  1.0218996E-01
   7124.67  1.0859780E-01
   7125.00  1.1698873E-01
   7125.33  1.2801647E-01
   7125.67  1.4097602E-01
   7126.00  1.5567953E-01
   7126.33  1.7277927E-01
   7126.67  1.9241132E-01
   7127.00  2.1426960E-01
   7127.33  2.3717373E-01
   7127.67  2.5912498E-01
   7128.00  2.7852946E-01
   7128.33  2.9370439E-01
   7128.67  3.0504932E-01
   7129.00  3.1337433E-01
   7129.33  3.1999417E-01
   7129.67  3.2671486E-01
   7130.00  3.3473274E-01
   7130.33  3.4535808E-01
   7130.67  3.5897626E-01
   7131.00  3.7604167E-01
   7131.33  3.9758014E-01
   7131.67  4.2351049E-01
   7132.00  4.5372006E-01
   7132.33  4.8718046E-01
   7132.67  5.2087108E-01
   7133.00  5.5312448E-01
   7133.33  5.8436376E-01
   7133.67  6.1615728E-01
   7134.00  6.4828187E-01
   7134.33  6.7828587E-01
   7134.67  7.0384346E-01
   7135.00  7.2364766E-01
   7135.33  7.3671691E-01
   7135.67  7.4428799E-01
   7136.00  7.4709450E-01
   7136.33  7.4593032E-01
   7136.67  7.4268248E-01
   7137.00  7.3850441E-01
   7137.33  7.3438143E-01
   7137.67  7.3075428E-01
   7138.00  7.2757857E-01
   7138.33  7.2443736E-01
   7138.67  7.2076822E-01
   7139.00  7.1623779E-01
   7139.33  7.1068989E-01
   7139.67  7.0444413E-01
   7140.00  6.9775576E-01
   7140.33  6.9087651E-01
   7140.67  6.8401094E-01
   7141.00  6.7722383E-01
   7141.33  6.7052780E-01
   7141.67  6.6394209E-01
   7142.00  6.5757185E-01
   7142.33  6.5170931E-01
   7142.67  6.4661188E-01
   7143.00  6.4255569E-01
   7143.33  6.3998574E-01
   7143.67  6.3898524E-01
   7144.00  6.3973128E-01
   7144.33  6.4259061E-01
   7144.67  6.4737102E-01
   7145.00  6.5403614E-01
   7145.33  6.6266548E-01
   7145.67  6.7277351E-01
   7146.00  6.8400506E-01
   7146.33  6.9584999E-01
   7146.67  7.0750844E-01
   7147.00  7.1828773E-01
   7147.33  7.2717686E-01
   7147.67  7.3370716E-01
   7148.00  7.3750352E-01
   7148.33  7.3810750E-01
   7148.67  7.3613526E-01
   7149.00  7.3204841E-01
   7149.33  7.2636511E-01
   7149.67  7.1995015E-01
   7150.00  7.1329256E-01
   7150.33  7.0682796E-01
   7150.67  7.0077403E-01
   7151.00  6.9521093E-01
   7151.33  6.9017879E-01
   7151.67  6.8551879E-01
   7152.00  6.8111061E-01
   7152.33  6.7681569E-01
   7152.67  6.7248282E-01
   7153.00  6.6801643E-01
   7153.33  6.6331360E-01
   7153.67  6.5836376E-01
   7154.00  6.5316709E-01
   7154.33  6.4773029E-01
   7154.67  6.4213871E-01
   7155.00  6.3645465E-01
   7155.33  6.3075567E-01
   7155.67  6.2512455E-01
   7156.00  6.1962816E-01
   7156.33  6.1435934E-01
   7156.67  6.0934250E-01
   7157.00  6.0460216E-01
   7157.33  6.0017663E-01
   7157.67  5.9600716E-01
   7158.00  5.9205679E-01
   7158.33  5.8829276E-01
   7158.67  5.8463974E-01
   7159.00  5.8105738E-01
   7159.33  5.7751694E-01
   7159.67  5.7399716E-01
   7160.00  5.7049278E-01
   7160.33  5.6700167E-01
   7160.67  5.6351704E-01
   7161.00  5.6002933E-01
   7161.33  5.5651385E-01
   7161.67  5.5293840E-01
   7162.00  5.4926278E-01
   7162.33  5.4541294E-01
   7162.67  5.4135056E-01
   7163.00  5.3702983E-01
   7163.33  5.3237230E-01
   7163.67  5.2739752E-01
   7164.00  5.2211464E-01
   7164.33  5.1653079E-01
   7164.67  5.1074842E-01
   7165.00  5.0484273E-01
   7165.33  4.9890502E-01
   7165.67  4.9303104E-01
   7166.00  4.8729108E-01
   7166.33  4.8177543E-01
   7166.67  4.7650382E-01
   7167.00  4.7149741E-01
   7167.33  4.6679501E-01
   7167.67  4.6234929E-01
   7168.00  4.5813699E-01
   7168.33  4.5414547E-01
   7168.67  4.5030685E-01
   7169.00  4.4658301E-01
   7169.33  4.4294226E-01
   7169.67  4.3934319E-01
   7170.00  4.3576896E-01
   7170.33  4.3221947E-01
   7170.67  4.2871248E-01
   7171.00  4.2528953E-01
   7171.33  4.2205991E-01
   7171.67  4.1915538E-01
   7172.00  4.1676473E-01
