    FDMNES
    energy     <xanes>
   7097.00  4.5590232E-03
   7097.33  4.6588121E-03
   7097.67  4.7627727E-03
   7098.00  4.8711721E-03
   7098.33  4.9849506E-03
   7098.67  5.1038917E-03
   7099.00  5.2283566E-03
   7099.33  5.3595621E-03
   7099.67  5.4972845E-03
   7100.00  5.6420266E-03
   7100.33  5.7954058E-03
   7100.67  5.9572095E-03
   7101.00  6.1281607E-03
   7101.33  6.3104807E-03
   7101.67  6.5040088E-03
   7102.00  6.7098272E-03
   7102.33  6.9311087E-03
   7102.67  7.1678378E-03
   7103.00  7.4217133E-03
   7103.33  7.6974940E-03
   7103.67  7.9955237E-03
   7104.00  8.3186309E-03
   7104.33  8.6744042E-03
   7104.67  9.0640679E-03
   7105.00  9.4926942E-03
   7105.33  9.9733732E-03
   7105.67  1.0509584E-02
   7106.00  1.1111340E-02
   7106.33  1.1803692E-02
   7106.67  1.2596447E-02
   7107.00  1.3512101E-02
   7107.33  1.4605970E-02
   7107.67  1.5908475E-02
   7108.00  1.7480392E-02
   7108.33  1.9472311E-02
   7108.67  2.1999731E-02
   7109.00  2.5280543E-02
   7109.33  2.9885890E-02
   7109.67  3.6445242E-02
   7110.00  4.6186142E-02
   7110.33  6.2654363E-02
   7110.67  9.0080429E-02
   7111.00  1.3176824E-01
   7111.33  1.7849928E-01
   7111.67  2.1060058E-01
   7112.00  2.3298360E-01
   7112.33  2.4977508E-01
   7112.67  2.5142389E-01
   7113.00  2.3686371E-01
   7113.33  2.0022482E-01
   7113.67  1.5700187E-01
   7114.00  1.2155790E-01
   7114.33  9.9834087E-02
   7114.67  8.6882773E-02
   7115.00  7.9586126E-02
   7115.33  7.6034855E-02
   7115.67  7.4563534E-02
   7116.00  7.4731806E-02
   7116.33  7.6778891E-02
   7116.67  8.0789330E-02
   7117.00  8.7026706E-02
   7117.33  9.6144953E-02
   7117.67  1.0824936E-01
   7118.00  1.2371758E-01
   7118.33  1.4319197E-01
   7118.67  1.6580321E-01
   7119.00  1.9042255E-01
   7119.33  2.1475730E-01
   7119.67  2.3643568E-01
   7120.00  2.5450629E-01
   7120.33  2.6923690E-01
   7120.67  2.8251685E-01
   7121.00  2.9553284E-01
   7121.33  3.0920092E-01
   7121.67  3.2360079E-01
   7122.00  3.3846536E-01
   7122.33  3.5357709E-01
   7122.67  3.6867675E-01
   7123.00  3.8329470E-01
   7123.33  3.9672473E-01
   7123.67  4.0895935E-01
   7124.00  4.2030541E-01
   7124.33  4.3128361E-01
   7124.67  4.4227409E-01
   7125.00  4.5323348E-01
   7125.33  4.6388120E-01
   7125.67  4.7400559E-01
   7126.00  4.8344126E-01
   7126.33  4.9186606E-01
   7126.67  4.9910627E-01
   7127.00  5.0491577E-01
   7127.33  5.0903368E-01
   7127.67  5.1194146E-01
   7128.00  5.1413678E-01
   7128.33  5.1636567E-01
   7128.67  5.1930110E-01
   7129.00  5.2331171E-01
   7129.33  5.2873472E-01
   7129.67  5.3537281E-01
   7130.00  5.4302973E-01
   7130.33  5.5140380E-01
   7130.67  5.5994721E-01
   7131.00  5.6824569E-01
   7131.33  5.7575588E-01
   7131.67  5.8220623E-01
   7132.00  5.8746432E-01
   7132.33  5.9155960E-01
   7132.67  5.9506957E-01
   7133.00  5.9844397E-01
   7133.33  6.0212150E-01
   7133.67  6.0629842E-01
   7134.00  6.1105880E-01
   7134.33  6.1642387E-01
   7134.67  6.2209998E-01
   7135.00  6.2779531E-01
   7135.33  6.3314179E-01
   7135.67  6.3796754E-01
   7136.00  6.4222847E-01
   7136.33  6.4597355E-01
   7136.67  6.4948148E-01
   7137.00  6.5296845E-01
   7137.33  6.5666040E-01
   7137.67  6.6062698E-01
   7138.00  6.6484112E-01
   7138.33  6.6917766E-01
   7138.67  6.7341256E-01
   7139.00  6.7734845E-01
   7139.33  6.8071263E-01
   7139.67  6.8340516E-01
   7140.00  6.8532739E-01
   7140.33  6.8630281E-01
   7140.67  6.8640417E-01
   7141.00  6.8563069E-01
   7141.33  6.8390464E-01
   7141.67  6.8137194E-01
   7142.00  6.7805983E-01
   7142.33  6.7392199E-01
   7142.67  6.6913252E-01
   7143.00  6.6379143E-01
   7143.33  6.5798934E-01
   7143.67  6.5193409E-01
   7144.00  6.4576065E-01
   7144.33  6.3961686E-01
   7144.67  6.3361969E-01
   7145.00  6.2784763E-01
   7145.33  6.2239736E-01
   7145.67  6.1726695E-01
   7146.00  6.1246866E-01
   7146.33  6.0803658E-01
   7146.67  6.0390822E-01
   7147.00  6.0005945E-01
   7147.33  5.9649118E-01
   7147.67  5.9314253E-01
   7148.00  5.8998950E-01
   7148.33  5.8702649E-01
   7148.67  5.8420643E-01
   7149.00  5.8150684E-01
   7149.33  5.7891207E-01
   7149.67  5.7638233E-01
   7150.00  5.7389316E-01
   7150.33  5.7141805E-01
   7150.67  5.6892806E-01
   7151.00  5.6639979E-01
   7151.33  5.6379735E-01
   7151.67  5.6110023E-01
   7152.00  5.5828174E-01
   7152.33  5.5528741E-01
   7152.67  5.5209749E-01
   7153.00  5.4867389E-01
   7153.33  5.4493111E-01
   7153.67  5.4085759E-01
   7154.00  5.3641901E-01
   7154.33  5.3153335E-01
   7154.67  5.2623061E-01
   7155.00  5.2050643E-01
   7155.33  5.1431975E-01
   7155.67  5.0774824E-01
   7156.00  5.0082535E-01
   7156.33  4.9356095E-01
   7156.67  4.8604780E-01
   7157.00  4.7833759E-01
   7157.33  4.7047798E-01
   7157.67  4.6255408E-01
   7158.00  4.5462829E-01
   7158.33  4.4678644E-01
   7158.67  4.3910044E-01
   7159.00  4.3164351E-01
   7159.33  4.2453983E-01
   7159.67  4.1782942E-01
   7160.00  4.1157305E-01
   7160.33  4.0589203E-01
   7160.67  4.0076238E-01
   7161.00  3.9620353E-01
   7161.33  3.9228945E-01
   7161.67  3.8892878E-01
   7162.00  3.8608945E-01
   7162.33  3.8377708E-01
   7162.67  3.8186374E-01
   7163.00  3.8028016E-01
   7163.33  3.7897722E-01
   7163.67  3.7784972E-01
   7164.00  3.7684678E-01
   7164.33  3.7593489E-01
   7164.67  3.7507609E-01
   7165.00  3.7425867E-01
   7165.33  3.7348633E-01
   7165.67  3.7276289E-01
   7166.00  3.7210072E-01
   7166.33  3.7152635E-01
   7166.67  3.7104747E-01
   7167.00  3.7067842E-01
   7167.33  3.7044980E-01
   7167.67  3.7035805E-01
   7168.00  3.7041078E-01
   7168.33  3.7063257E-01
   7168.67  3.7100711E-01
   7169.00  3.7153357E-01
   7169.33  3.7222543E-01
   7169.67  3.7305444E-01
   7170.00  3.7400792E-01
   7170.33  3.7507879E-01
   7170.67  3.7622666E-01
   7171.00  3.7741989E-01
   7171.33  3.7860431E-01
   7171.67  3.7969624E-01
   7172.00  3.8059295E-01
