    FDMNES
    energy     <xanes>
   7097.00  4.4643434E-03
   7097.33  4.5600032E-03
   7097.67  4.6595591E-03
   7098.00  4.7632541E-03
   7098.33  4.8719560E-03
   7098.67  4.9854538E-03
   7099.00  5.1040743E-03
   7099.33  5.2289327E-03
   7099.67  5.3598088E-03
   7100.00  5.4971539E-03
   7100.33  5.6424396E-03
   7100.67  5.7954508E-03
   7101.00  5.9568317E-03
   7101.33  6.1285857E-03
   7101.67  6.3105367E-03
   7102.00  6.5036403E-03
   7102.33  6.7107306E-03
   7102.67  6.9317468E-03
   7103.00  7.1681738E-03
   7103.33  7.4242158E-03
   7103.67  7.7001029E-03
   7104.00  7.9982797E-03
   7104.33  8.3253653E-03
   7104.67  8.6823065E-03
   7105.00  9.0734302E-03
   7105.33  9.5099881E-03
   7105.67  9.9947563E-03
   7106.00  1.0536150E-02
   7106.33  1.1155339E-02
   7106.67  1.1860193E-02
   7107.00  1.2669297E-02
   7107.33  1.3628484E-02
   7107.67  1.4762029E-02
   7108.00  1.6119166E-02
   7108.33  1.7821898E-02
   7108.67  1.9961326E-02
   7109.00  2.2710296E-02
   7109.33  2.6520900E-02
   7109.67  3.1883303E-02
   7110.00  3.9752547E-02
   7110.33  5.2851429E-02
   7110.67  7.4133383E-02
   7111.00  1.0527048E-01
   7111.33  1.4301907E-01
   7111.67  1.7571436E-01
   7112.00  1.9488929E-01
   7112.33  2.1242961E-01
   7112.67  2.2594741E-01
   7113.00  2.2413092E-01
   7113.33  2.1418678E-01
   7113.67  1.9128406E-01
   7114.00  1.5222824E-01
   7114.33  1.1782610E-01
   7114.67  9.5530307E-02
   7115.00  8.2556079E-02
   7115.33  7.5944657E-02
   7115.67  7.2705155E-02
   7116.00  7.1693692E-02
   7116.33  7.2393353E-02
   7116.67  7.4455975E-02
   7117.00  7.8071337E-02
   7117.33  8.3886116E-02
   7117.67  9.2189680E-02
   7118.00  1.0361590E-01
   7118.33  1.1974108E-01
   7118.67  1.4137299E-01
   7119.00  1.6944552E-01
   7119.33  2.0391862E-01
   7119.67  2.3892802E-01
   7120.00  2.6737420E-01
   7120.33  2.8463603E-01
   7120.67  2.9603846E-01
   7121.00  3.0480627E-01
   7121.33  3.1194328E-01
   7121.67  3.1832517E-01
   7122.00  3.2492007E-01
   7122.33  3.3328103E-01
   7122.67  3.4380721E-01
   7123.00  3.5610710E-01
   7123.33  3.6928982E-01
   7123.67  3.8231680E-01
   7124.00  3.9473825E-01
   7124.33  4.0655460E-01
   7124.67  4.1846813E-01
   7125.00  4.3111889E-01
   7125.33  4.4488060E-01
   7125.67  4.5909852E-01
   7126.00  4.7291395E-01
   7126.33  4.8519531E-01
   7126.67  4.9540019E-01
   7127.00  5.0313188E-01
   7127.33  5.0788627E-01
   7127.67  5.1027335E-01
   7128.00  5.1102869E-01
   7128.33  5.1141992E-01
   7128.67  5.1286107E-01
   7129.00  5.1622703E-01
   7129.33  5.2222702E-01
   7129.67  5.3037457E-01
   7130.00  5.4019440E-01
   7130.33  5.5114819E-01
   7130.67  5.6250482E-01
   7131.00  5.7386893E-01
   7131.33  5.8490855E-01
   7131.67  5.9551695E-01
   7132.00  6.0566330E-01
   7132.33  6.1532679E-01
   7132.67  6.2462990E-01
   7133.00  6.3363483E-01
   7133.33  6.4236106E-01
   7133.67  6.5082776E-01
   7134.00  6.5893550E-01
   7134.33  6.6637315E-01
   7134.67  6.7290066E-01
   7135.00  6.7826491E-01
   7135.33  6.8211820E-01
   7135.67  6.8460859E-01
   7136.00  6.8581621E-01
   7136.33  6.8575191E-01
   7136.67  6.8472143E-01
   7137.00  6.8284437E-01
   7137.33  6.8013299E-01
   7137.67  6.7676295E-01
   7138.00  6.7280911E-01
   7138.33  6.6832975E-01
   7138.67  6.6354503E-01
   7139.00  6.5862514E-01
   7139.33  6.5378857E-01
   7139.67  6.4921068E-01
   7140.00  6.4500418E-01
   7140.33  6.4128459E-01
   7140.67  6.3798749E-01
   7141.00  6.3506173E-01
   7141.33  6.3246012E-01
   7141.67  6.3005386E-01
   7142.00  6.2775647E-01
   7142.33  6.2548486E-01
   7142.67  6.2318611E-01
   7143.00  6.2084749E-01
   7143.33  6.1847880E-01
   7143.67  6.1611457E-01
   7144.00  6.1378908E-01
   7144.33  6.1155572E-01
   7144.67  6.0944768E-01
   7145.00  6.0750079E-01
   7145.33  6.0577828E-01
   7145.67  6.0428878E-01
   7146.00  6.0305856E-01
   7146.33  6.0215080E-01
   7146.67  6.0153868E-01
   7147.00  6.0121085E-01
   7147.33  6.0116538E-01
   7147.67  6.0131464E-01
   7148.00  6.0159095E-01
   7148.33  6.0189640E-01
   7148.67  6.0210553E-01
   7149.00  6.0210332E-01
   7149.33  6.0171162E-01
   7149.67  6.0085013E-01
   7150.00  5.9943064E-01
   7150.33  5.9729987E-01
   7150.67  5.9449848E-01
   7151.00  5.9102313E-01
   7151.33  5.8681992E-01
   7151.67  5.8202303E-01
   7152.00  5.7669265E-01
   7152.33  5.7085044E-01
   7152.67  5.6463434E-01
   7153.00  5.5811192E-01
   7153.33  5.5132563E-01
   7153.67  5.4436583E-01
   7154.00  5.3727461E-01
   7154.33  5.3007867E-01
   7154.67  5.2281810E-01
   7155.00  5.1550934E-01
   7155.33  5.0815976E-01
   7155.67  5.0078204E-01
   7156.00  4.9338285E-01
   7156.33  4.8596949E-01
   7156.67  4.7855635E-01
   7157.00  4.7116028E-01
   7157.33  4.6381510E-01
   7157.67  4.5655351E-01
   7158.00  4.4941607E-01
   7158.33  4.4247845E-01
   7158.67  4.3577577E-01
   7159.00  4.2935775E-01
   7159.33  4.2331976E-01
   7159.67  4.1766194E-01
   7160.00  4.1240883E-01
   7160.33  4.0762562E-01
   7160.67  4.0325707E-01
   7161.00  3.9928905E-01
   7161.33  3.9574225E-01
   7161.67  3.9253953E-01
   7162.00  3.8965502E-01
   7162.33  3.8709766E-01
   7162.67  3.8481015E-01
   7163.00  3.8277928E-01
   7163.33  3.8102063E-01
   7163.67  3.7949173E-01
   7164.00  3.7818246E-01
   7164.33  3.7710940E-01
   7164.67  3.7623464E-01
   7165.00  3.7554347E-01
   7165.33  3.7503427E-01
   7165.67  3.7466191E-01
   7166.00  3.7440428E-01
   7166.33  3.7424806E-01
   7166.67  3.7416142E-01
   7167.00  3.7413151E-01
   7167.33  3.7415543E-01
   7167.67  3.7422414E-01
   7168.00  3.7433867E-01
   7168.33  3.7450970E-01
   7168.67  3.7473750E-01
   7169.00  3.7502824E-01
   7169.33  3.7539695E-01
   7169.67  3.7583878E-01
   7170.00  3.7635406E-01
   7170.33  3.7694785E-01
   7170.67  3.7760201E-01
   7171.00  3.7830167E-01
   7171.33  3.7901828E-01
   7171.67  3.7969441E-01
   7172.00  3.8025710E-01
