    FDMNES
    energy     <xanes>
   7097.00  5.3677248E-03
   7097.33  5.5051741E-03
   7097.67  5.6492982E-03
   7098.00  5.8005692E-03
   7098.33  5.9605651E-03
   7098.67  6.1289962E-03
   7099.00  6.3065096E-03
   7099.33  6.4951870E-03
   7099.67  6.6947355E-03
   7100.00  6.9060651E-03
   7100.33  7.1319920E-03
   7100.67  7.3722535E-03
   7101.00  7.6281684E-03
   7101.33  7.9036615E-03
   7101.67  8.1985735E-03
   7102.00  8.5148838E-03
   7102.33  8.8582603E-03
   7102.67  9.2288072E-03
   7103.00  9.6296243E-03
   7103.33  1.0069257E-02
   7103.67  1.0548434E-02
   7104.00  1.1072267E-02
   7104.33  1.1654349E-02
   7104.67  1.2296882E-02
   7105.00  1.3008867E-02
   7105.33  1.3813449E-02
   7105.67  1.4716472E-02
   7106.00  1.5735187E-02
   7106.33  1.6912733E-02
   7106.67  1.8264762E-02
   7107.00  1.9828390E-02
   7107.33  2.1694821E-02
   7107.67  2.3910134E-02
   7108.00  2.6568820E-02
   7108.33  2.9903846E-02
   7108.67  3.4079857E-02
   7109.00  3.9410897E-02
   7109.33  4.6709994E-02
   7109.67  5.6815973E-02
   7110.00  7.1359826E-02
   7110.33  9.4993508E-02
   7110.67  1.3314786E-01
   7111.00  1.9035421E-01
   7111.33  2.5637768E-01
   7111.67  3.0682606E-01
   7112.00  3.5136657E-01
   7112.33  4.3315789E-01
   7112.67  5.5464193E-01
   7113.00  6.6338855E-01
   7113.33  6.5981747E-01
   7113.67  5.7456403E-01
   7114.00  4.7373879E-01
   7114.33  3.9848883E-01
   7114.67  3.5033913E-01
   7115.00  3.2490963E-01
   7115.33  3.1537860E-01
   7115.67  3.0726170E-01
   7116.00  2.9113068E-01
   7116.33  2.6546258E-01
   7116.67  2.3794179E-01
   7117.00  2.1286480E-01
   7117.33  1.9246782E-01
   7117.67  1.7612807E-01
   7118.00  1.6332478E-01
   7118.33  1.5375247E-01
   7118.67  1.4642020E-01
   7119.00  1.4080261E-01
   7119.33  1.3644197E-01
   7119.67  1.3275664E-01
   7120.00  1.2965721E-01
   7120.33  1.2731982E-01
   7120.67  1.2545744E-01
   7121.00  1.2365592E-01
   7121.33  1.2184115E-01
   7121.67  1.2060299E-01
   7122.00  1.2038155E-01
   7122.33  1.2132539E-01
   7122.67  1.2315347E-01
   7123.00  1.2585217E-01
   7123.33  1.2972540E-01
   7123.67  1.3499802E-01
   7124.00  1.4211700E-01
   7124.33  1.5210569E-01
   7124.67  1.6555442E-01
   7125.00  1.8336658E-01
   7125.33  2.0718528E-01
   7125.67  2.3665940E-01
   7126.00  2.7085311E-01
   7126.33  3.0709614E-01
   7126.67  3.4154328E-01
   7127.00  3.7233648E-01
   7127.33  3.9910684E-01
   7127.67  4.2368253E-01
   7128.00  4.4752273E-01
   7128.33  4.7249192E-01
   7128.67  4.9990376E-01
   7129.00  5.3040378E-01
   7129.33  5.6415807E-01
   7129.67  5.9968906E-01
   7130.00  6.3556578E-01
   7130.33  6.6990103E-01
   7130.67  7.0151411E-01
   7131.00  7.2965837E-01
   7131.33  7.5332047E-01
   7131.67  7.7259147E-01
   7132.00  7.8704345E-01
   7132.33  7.9543563E-01
   7132.67  7.9806408E-01
   7133.00  7.9503303E-01
   7133.33  7.8651591E-01
   7133.67  7.7433747E-01
   7134.00  7.5932989E-01
   7134.33  7.4136018E-01
   7134.67  7.2038252E-01
   7135.00  6.9614900E-01
   7135.33  6.6844392E-01
   7135.67  6.3834357E-01
   7136.00  6.0677413E-01
   7136.33  5.7505694E-01
   7136.67  5.4466866E-01
   7137.00  5.1680726E-01
   7137.33  4.9304791E-01
   7137.67  4.7357702E-01
   7138.00  4.5851647E-01
   7138.33  4.4812681E-01
   7138.67  4.4140609E-01
   7139.00  4.3791551E-01
   7139.33  4.3756602E-01
   7139.67  4.3967100E-01
   7140.00  4.4400271E-01
   7140.33  4.5058704E-01
   7140.67  4.5897132E-01
   7141.00  4.6898493E-01
   7141.33  4.8059639E-01
   7141.67  4.9339870E-01
   7142.00  5.0717538E-01
   7142.33  5.2174136E-01
   7142.67  5.3672097E-01
   7143.00  5.5186375E-01
   7143.33  5.6687214E-01
   7143.67  5.8150027E-01
   7144.00  5.9555025E-01
   7144.33  6.0873421E-01
   7144.67  6.2100252E-01
   7145.00  6.3226770E-01
   7145.33  6.4233959E-01
   7145.67  6.5133707E-01
   7146.00  6.5927864E-01
   7146.33  6.6609113E-01
   7146.67  6.7197870E-01
   7147.00  6.7701953E-01
   7147.33  6.8120602E-01
   7147.67  6.8471524E-01
   7148.00  6.8761754E-01
   7148.33  6.8992752E-01
   7148.67  6.9178586E-01
   7149.00  6.9324997E-01
   7149.33  6.9433731E-01
   7149.67  6.9514452E-01
   7150.00  6.9571099E-01
   7150.33  6.9604435E-01
   7150.67  6.9619501E-01
   7151.00  6.9617841E-01
   7151.33  6.9598688E-01
   7151.67  6.9564601E-01
   7152.00  6.9516051E-01
   7152.33  6.9452297E-01
   7152.67  6.9375415E-01
   7153.00  6.9285178E-01
   7153.33  6.9179545E-01
   7153.67  6.9059949E-01
   7154.00  6.8926148E-01
   7154.33  6.8775923E-01
   7154.67  6.8610513E-01
   7155.00  6.8429147E-01
   7155.33  6.8228212E-01
   7155.67  6.8007782E-01
   7156.00  6.7765544E-01
   7156.33  6.7495050E-01
   7156.67  6.7195486E-01
   7157.00  6.6863021E-01
   7157.33  6.6488183E-01
   7157.67  6.6070965E-01
   7158.00  6.5607663E-01
   7158.33  6.5088401E-01
   7158.67  6.4516782E-01
   7159.00  6.3891686E-01
   7159.33  6.3206600E-01
   7159.67  6.2469984E-01
   7160.00  6.1684617E-01
   7160.33  6.0849315E-01
   7160.67  5.9974997E-01
   7161.00  5.9066915E-01
   7161.33  5.8128186E-01
   7161.67  5.7168920E-01
   7162.00  5.6194879E-01
   7162.33  5.5211667E-01
   7162.67  5.4226813E-01
   7163.00  5.3245566E-01
   7163.33  5.2274265E-01
   7163.67  5.1316502E-01
   7164.00  5.0376157E-01
   7164.33  4.9459891E-01
   7164.67  4.8568188E-01
   7165.00  4.7703304E-01
   7165.33  4.6871049E-01
   7165.67  4.6069522E-01
   7166.00  4.5299970E-01
   7166.33  4.4567646E-01
   7166.67  4.3869156E-01
   7167.00  4.3204932E-01
   7167.33  4.2579342E-01
   7167.67  4.1987502E-01
   7168.00  4.1427920E-01
   7168.33  4.0902181E-01
   7168.67  4.0405506E-01
   7169.00  3.9937235E-01
   7169.33  3.9499745E-01
   7169.67  3.9088466E-01
   7170.00  3.8702534E-01
   7170.33  3.8344362E-01
   7170.67  3.8010814E-01
   7171.00  3.7702733E-01
   7171.33  3.7426661E-01
   7171.67  3.7185880E-01
   7172.00  3.6989807E-01
