    FDMNES
    energy     <xanes>
   7097.00  5.1642401E-03
   7097.33  5.2923749E-03
   7097.67  5.4265346E-03
   7098.00  5.5671330E-03
   7098.33  5.7155740E-03
   7098.67  5.8715788E-03
   7099.00  6.0357102E-03
   7099.33  6.2098045E-03
   7099.67  6.3935738E-03
   7100.00  6.5878017E-03
   7100.33  6.7949491E-03
   7100.67  7.0147426E-03
   7101.00  7.2483055E-03
   7101.33  7.4990286E-03
   7101.67  7.7667072E-03
   7102.00  8.0530050E-03
   7102.33  8.3627520E-03
   7102.67  8.6959296E-03
   7103.00  9.0551002E-03
   7103.33  9.4474245E-03
   7103.67  9.8733291E-03
   7104.00  1.0336953E-02
   7104.33  1.0849444E-02
   7104.67  1.1412272E-02
   7105.00  1.2032528E-02
   7105.33  1.2728663E-02
   7105.67  1.3504661E-02
   7106.00  1.4373621E-02
   7106.33  1.5368618E-02
   7106.67  1.6500118E-02
   7107.00  1.7794885E-02
   7107.33  1.9319022E-02
   7107.67  2.1101826E-02
   7108.00  2.3206466E-02
   7108.33  2.5788030E-02
   7108.67  2.8942631E-02
   7109.00  3.2857749E-02
   7109.33  3.8009135E-02
   7109.67  4.4829660E-02
   7110.00  5.4153941E-02
   7110.33  6.8248054E-02
   7110.67  8.9130693E-02
   7111.00  1.1729845E-01
   7111.33  1.5202451E-01
   7111.67  2.0173979E-01
   7112.00  2.8072148E-01
   7112.33  4.0831950E-01
   7112.67  5.6556696E-01
   7113.00  6.9061788E-01
   7113.33  6.8407416E-01
   7113.67  5.8811570E-01
   7114.00  4.7629262E-01
   7114.33  3.9236199E-01
   7114.67  3.3647889E-01
   7115.00  3.0373129E-01
   7115.33  2.8947221E-01
   7115.67  2.8273559E-01
   7116.00  2.7418913E-01
   7116.33  2.5682284E-01
   7116.67  2.3437812E-01
   7117.00  2.1139020E-01
   7117.33  1.9120275E-01
   7117.67  1.7435095E-01
   7118.00  1.6078998E-01
   7118.33  1.5054889E-01
   7118.67  1.4279456E-01
   7119.00  1.3705492E-01
   7119.33  1.3289644E-01
   7119.67  1.2961351E-01
   7120.00  1.2697848E-01
   7120.33  1.2506075E-01
   7120.67  1.2363481E-01
   7121.00  1.2226359E-01
   7121.33  1.2051108E-01
   7121.67  1.1879255E-01
   7122.00  1.1778226E-01
   7122.33  1.1797025E-01
   7122.67  1.1913883E-01
   7123.00  1.2120997E-01
   7123.33  1.2439065E-01
   7123.67  1.2882731E-01
   7124.00  1.3487943E-01
   7124.33  1.4337419E-01
   7124.67  1.5473258E-01
   7125.00  1.6963028E-01
   7125.33  1.8938626E-01
   7125.67  2.1398274E-01
   7126.00  2.4335333E-01
   7126.33  2.7691643E-01
   7126.67  3.1212393E-01
   7127.00  3.4688393E-01
   7127.33  3.7919227E-01
   7127.67  4.0915317E-01
   7128.00  4.3779042E-01
   7128.33  4.6673612E-01
   7128.67  4.9710081E-01
   7129.00  5.2924657E-01
   7129.33  5.6312683E-01
   7129.67  5.9785131E-01
   7130.00  6.3264652E-01
   7130.33  6.6654317E-01
   7130.67  6.9891387E-01
   7131.00  7.2921726E-01
   7131.33  7.5645204E-01
   7131.67  7.8012565E-01
   7132.00  7.9934364E-01
   7132.33  8.1231939E-01
   7132.67  8.1900094E-01
   7133.00  8.1937187E-01
   7133.33  8.1351555E-01
   7133.67  8.0325329E-01
   7134.00  7.8925607E-01
   7134.33  7.7119878E-01
   7134.67  7.4932956E-01
   7135.00  7.2366485E-01
   7135.33  6.9425938E-01
   7135.67  6.6240888E-01
   7136.00  6.2909069E-01
   7136.33  5.9559565E-01
   7136.67  5.6335575E-01
   7137.00  5.3356131E-01
   7137.33  5.0784357E-01
   7137.67  4.8650948E-01
   7138.00  4.6978728E-01
   7138.33  4.5804261E-01
   7138.67  4.5022944E-01
   7139.00  4.4585364E-01
   7139.33  4.4476662E-01
   7139.67  4.4620830E-01
   7140.00  4.4992463E-01
   7140.33  4.5593641E-01
   7140.67  4.6379057E-01
   7141.00  4.7332688E-01
   7141.33  4.8453794E-01
   7141.67  4.9702372E-01
   7142.00  5.1057826E-01
   7142.33  5.2503585E-01
   7142.67  5.4000853E-01
   7143.00  5.5524234E-01
   7143.33  5.7044565E-01
   7143.67  5.8535641E-01
   7144.00  5.9977453E-01
   7144.33  6.1342172E-01
   7144.67  6.2623662E-01
   7145.00  6.3812840E-01
   7145.33  6.4890716E-01
   7145.67  6.5866779E-01
   7146.00  6.6741046E-01
   7146.33  6.7503601E-01
   7146.67  6.8171531E-01
   7147.00  6.8749921E-01
   7147.33  6.9234348E-01
   7147.67  6.9641108E-01
   7148.00  6.9975371E-01
   7148.33  7.0234983E-01
   7148.67  7.0434199E-01
   7149.00  7.0577791E-01
   7149.33  7.0664700E-01
   7149.67  7.0706510E-01
   7150.00  7.0707305E-01
   7150.33  7.0666175E-01
   7150.67  7.0590891E-01
   7151.00  7.0483734E-01
   7151.33  7.0343154E-01
   7151.67  7.0174746E-01
   7152.00  6.9980579E-01
   7152.33  6.9760014E-01
   7152.67  6.9517213E-01
   7153.00  6.9253117E-01
   7153.33  6.8966325E-01
   7153.67  6.8660332E-01
   7154.00  6.8336012E-01
   7154.33  6.7992296E-01
   7154.67  6.7632516E-01
   7155.00  6.7257783E-01
   7155.33  6.6867703E-01
   7155.67  6.6465131E-01
   7156.00  6.6050846E-01
   7156.33  6.5623960E-01
   7156.67  6.5185784E-01
   7157.00  6.4735604E-01
   7157.33  6.4270027E-01
   7157.67  6.3788229E-01
   7158.00  6.3287448E-01
   7158.33  6.2761026E-01
   7158.67  6.2207656E-01
   7159.00  6.1623867E-01
   7159.33  6.1001888E-01
   7159.67  6.0343419E-01
   7160.00  5.9647320E-01
   7160.33  5.8908811E-01
   7160.67  5.8133979E-01
   7161.00  5.7325179E-01
   7161.33  5.6482544E-01
   7161.67  5.5614740E-01
   7162.00  5.4726529E-01
   7162.33  5.3821815E-01
   7162.67  5.2908340E-01
   7163.00  5.1991463E-01
   7163.33  5.1077481E-01
   7163.67  5.0171470E-01
   7164.00  4.9277854E-01
   7164.33  4.8403488E-01
   7164.67  4.7550129E-01
   7165.00  4.6720531E-01
   7165.33  4.5920699E-01
   7165.67  4.5149496E-01
   7166.00  4.4408440E-01
   7166.33  4.3702847E-01
   7166.67  4.3029700E-01
   7167.00  4.2389510E-01
   7167.33  4.1786709E-01
   7167.67  4.1216857E-01
   7168.00  4.0679199E-01
   7168.33  4.0175478E-01
   7168.67  3.9700042E-01
   7169.00  3.9252096E-01
   7169.33  3.8834050E-01
   7169.67  3.8441531E-01
   7170.00  3.8073731E-01
   7170.33  3.7733058E-01
   7170.67  3.7416521E-01
   7171.00  3.7124984E-01
   7171.33  3.6864734E-01
   7171.67  3.6638527E-01
   7172.00  3.6454736E-01
