    FDMNES
    energy     <xanes>
   7097.00  4.4686407E-03
   7097.33  4.5608187E-03
   7097.67  4.6565239E-03
   7098.00  4.7559598E-03
   7098.33  4.8598837E-03
   7098.67  4.9680818E-03
   7099.00  5.0808219E-03
   7099.33  5.1990581E-03
   7099.67  5.3225612E-03
   7100.00  5.4516929E-03
   7100.33  5.5876840E-03
   7100.67  5.7302986E-03
   7101.00  5.8800410E-03
   7101.33  6.0385459E-03
   7101.67  6.2055923E-03
   7102.00  6.3819109E-03
   7102.33  6.5697547E-03
   7102.67  6.7689683E-03
   7103.00  6.9806633E-03
   7103.33  7.2080945E-03
   7103.67  7.4512944E-03
   7104.00  7.7120607E-03
   7104.33  7.9953955E-03
   7104.67  8.3018241E-03
   7105.00  8.6344944E-03
   7105.33  9.0017584E-03
   7105.67  9.4054596E-03
   7106.00  9.8517269E-03
   7106.33  1.0356185E-02
   7106.67  1.0924525E-02
   7107.00  1.1570544E-02
   7107.33  1.2328589E-02
   7107.67  1.3217462E-02
   7108.00  1.4275407E-02
   7108.33  1.5598271E-02
   7108.67  1.7262427E-02
   7109.00  1.9413336E-02
   7109.33  2.2439536E-02
   7109.67  2.6795648E-02
   7110.00  3.3379613E-02
   7110.33  4.4789781E-02
   7110.67  6.3679759E-02
   7111.00  8.9855937E-02
   7111.33  1.1288243E-01
   7111.67  1.2455756E-01
   7112.00  1.2322598E-01
   7112.33  1.0999307E-01
   7112.67  9.4589912E-02
   7113.00  8.2236737E-02
   7113.33  7.4573824E-02
   7113.67  7.0194077E-02
   7114.00  6.8333864E-02
   7114.33  6.8708357E-02
   7114.67  7.0852050E-02
   7115.00  7.4739759E-02
   7115.33  8.0716940E-02
   7115.67  8.8802474E-02
   7116.00  9.9305434E-02
   7116.33  1.1307707E-01
   7116.67  1.3039806E-01
   7117.00  1.5194928E-01
   7117.33  1.7930535E-01
   7117.67  2.1282935E-01
   7118.00  2.5333501E-01
   7118.33  3.0238578E-01
   7118.67  3.5855737E-01
   7119.00  4.1903244E-01
   7119.33  4.7325420E-01
   7119.67  5.0531700E-01
   7120.00  5.0668226E-01
   7120.33  4.8229030E-01
   7120.67  4.5037245E-01
   7121.00  4.2006647E-01
   7121.33  3.9695114E-01
   7121.67  3.8130429E-01
   7122.00  3.7266830E-01
   7122.33  3.7061614E-01
   7122.67  3.7309271E-01
   7123.00  3.7903404E-01
   7123.33  3.8766231E-01
   7123.67  3.9778023E-01
   7124.00  4.0877534E-01
   7124.33  4.2025631E-01
   7124.67  4.3198580E-01
   7125.00  4.4384842E-01
   7125.33  4.5566915E-01
   7125.67  4.6733947E-01
   7126.00  4.7877057E-01
   7126.33  4.8963285E-01
   7126.67  4.9948261E-01
   7127.00  5.0772337E-01
   7127.33  5.1337419E-01
   7127.67  5.1635905E-01
   7128.00  5.1684528E-01
   7128.33  5.1533084E-01
   7128.67  5.1295534E-01
   7129.00  5.1035069E-01
   7129.33  5.0797470E-01
   7129.67  5.0597056E-01
   7130.00  5.0437388E-01
   7130.33  5.0327242E-01
   7130.67  5.0270609E-01
   7131.00  5.0281507E-01
   7131.33  5.0390026E-01
   7131.67  5.0601431E-01
   7132.00  5.0922496E-01
   7132.33  5.1362630E-01
   7132.67  5.1890748E-01
   7133.00  5.2479994E-01
   7133.33  5.3086678E-01
   7133.67  5.3646788E-01
   7134.00  5.4095497E-01
   7134.33  5.4331533E-01
   7134.67  5.4324467E-01
   7135.00  5.4069886E-01
   7135.33  5.3595072E-01
   7135.67  5.3011523E-01
   7136.00  5.2389273E-01
   7136.33  5.1779347E-01
   7136.67  5.1194141E-01
   7137.00  5.0628269E-01
   7137.33  5.0073773E-01
   7137.67  4.9529024E-01
   7138.00  4.9004029E-01
   7138.33  4.8524242E-01
   7138.67  4.8107588E-01
   7139.00  4.7770669E-01
   7139.33  4.7537485E-01
   7139.67  4.7400938E-01
   7140.00  4.7360315E-01
   7140.33  4.7425352E-01
   7140.67  4.7582917E-01
   7141.00  4.7832272E-01
   7141.33  4.8183768E-01
   7141.67  4.8624243E-01
   7142.00  4.9151170E-01
   7142.33  4.9770631E-01
   7142.67  5.0466744E-01
   7143.00  5.1233547E-01
   7143.33  5.2070526E-01
   7143.67  5.2959925E-01
   7144.00  5.3891708E-01
   7144.33  5.4856039E-01
   7144.67  5.5834161E-01
   7145.00  5.6812110E-01
   7145.33  5.7771336E-01
   7145.67  5.8698323E-01
   7146.00  5.9581073E-01
   7146.33  6.0401095E-01
   7146.67  6.1156997E-01
   7147.00  6.1844053E-01
   7147.33  6.2450105E-01
   7147.67  6.2982990E-01
   7148.00  6.3443020E-01
   7148.33  6.3822971E-01
   7148.67  6.4134231E-01
   7149.00  6.4379243E-01
   7149.33  6.4553193E-01
   7149.67  6.4667211E-01
   7150.00  6.4724140E-01
   7150.33  6.4720782E-01
   7150.67  6.4667728E-01
   7151.00  6.4568761E-01
   7151.33  6.4423736E-01
   7151.67  6.4243273E-01
   7152.00  6.4032376E-01
   7152.33  6.3793871E-01
   7152.67  6.3536405E-01
   7153.00  6.3264175E-01
   7153.33  6.2979597E-01
   7153.67  6.2686419E-01
   7154.00  6.2385493E-01
   7154.33  6.2075432E-01
   7154.67  6.1755645E-01
   7155.00  6.1424085E-01
   7155.33  6.1076096E-01
   7155.67  6.0710563E-01
   7156.00  6.0325107E-01
   7156.33  5.9914590E-01
   7156.67  5.9480298E-01
   7157.00  5.9021762E-01
   7157.33  5.8536376E-01
   7157.67  5.8028638E-01
   7158.00  5.7500764E-01
   7158.33  5.6953932E-01
   7158.67  5.6393995E-01
   7159.00  5.5824375E-01
   7159.33  5.5248418E-01
   7159.67  5.4670895E-01
   7160.00  5.4094619E-01
   7160.33  5.3522760E-01
   7160.67  5.2957162E-01
   7161.00  5.2398911E-01
   7161.33  5.1849357E-01
   7161.67  5.1307533E-01
   7162.00  5.0773402E-01
   7162.33  5.0247978E-01
   7162.67  4.9730504E-01
   7163.00  4.9221293E-01
   7163.33  4.8722029E-01
   7163.67  4.8232487E-01
   7164.00  4.7753638E-01
   7164.33  4.7288269E-01
   7164.67  4.6836244E-01
   7165.00  4.6398699E-01
   7165.33  4.5978843E-01
   7165.67  4.5575864E-01
   7166.00  4.5190654E-01
   7166.33  4.4826371E-01
   7166.67  4.4481219E-01
   7167.00  4.4155307E-01
   7167.33  4.3850724E-01
   7167.67  4.3564522E-01
   7168.00  4.3296033E-01
   7168.33  4.3046407E-01
   7168.67  4.2812517E-01
   7169.00  4.2593465E-01
   7169.33  4.2389899E-01
   7169.67  4.2199110E-01
   7170.00  4.2020475E-01
   7170.33  4.1855079E-01
   7170.67  4.1701518E-01
   7171.00  4.1560310E-01
   7171.33  4.1434618E-01
   7171.67  4.1325614E-01
   7172.00  4.1237014E-01
