    FDMNES
    energy     <xanes>
   7097.00  4.5068943E-03
   7097.33  4.6011303E-03
   7097.67  4.6994026E-03
   7098.00  4.8019790E-03
   7098.33  4.9097849E-03
   7098.67  5.0226228E-03
   7099.00  5.1408568E-03
   7099.33  5.2656928E-03
   7099.67  5.3969278E-03
   7100.00  5.5350704E-03
   7100.33  5.6817332E-03
   7100.67  5.8367260E-03
   7101.00  6.0007812E-03
   7101.33  6.1761234E-03
   7101.67  6.3626152E-03
   7102.00  6.5613517E-03
   7102.33  6.7755183E-03
   7102.67  7.0051195E-03
   7103.00  7.2518677E-03
   7103.33  7.5205372E-03
   7103.67  7.8114789E-03
   7104.00  8.1275223E-03
   7104.33  8.4762450E-03
   7104.67  8.8588351E-03
   7105.00  9.2803074E-03
   7105.33  9.7536099E-03
   7105.67  1.0282048E-02
   7106.00  1.0875367E-02
   7106.33  1.1557985E-02
   7106.67  1.2339079E-02
   7107.00  1.3240137E-02
   7107.33  1.4314062E-02
   7107.67  1.5588987E-02
   7108.00  1.7121868E-02
   7108.33  1.9053945E-02
   7108.67  2.1491416E-02
   7109.00  2.4636114E-02
   7109.33  2.9018285E-02
   7109.67  3.5221764E-02
   7110.00  4.4389944E-02
   7110.33  5.9798884E-02
   7110.67  8.4921124E-02
   7111.00  1.2068973E-01
   7111.33  1.5725415E-01
   7111.67  1.8783684E-01
   7112.00  2.1371194E-01
   7112.33  2.2371262E-01
   7112.67  2.2095043E-01
   7113.00  2.1961602E-01
   7113.33  2.3058094E-01
   7113.67  2.5042552E-01
   7114.00  2.5723162E-01
   7114.33  2.3372492E-01
   7114.67  2.0806007E-01
   7115.00  1.9344531E-01
   7115.33  1.9123586E-01
   7115.67  1.9670208E-01
   7116.00  2.0646346E-01
   7116.33  2.1304461E-01
   7116.67  2.0970325E-01
   7117.00  1.9717020E-01
   7117.33  1.8142599E-01
   7117.67  1.6745204E-01
   7118.00  1.5654441E-01
   7118.33  1.4910436E-01
   7118.67  1.4415009E-01
   7119.00  1.4061588E-01
   7119.33  1.3711598E-01
   7119.67  1.3336859E-01
   7120.00  1.2971773E-01
   7120.33  1.2609207E-01
   7120.67  1.2208416E-01
   7121.00  1.1788459E-01
   7121.33  1.1443303E-01
   7121.67  1.1225429E-01
   7122.00  1.1141744E-01
   7122.33  1.1189940E-01
   7122.67  1.1333492E-01
   7123.00  1.1556275E-01
   7123.33  1.1856721E-01
   7123.67  1.2223637E-01
   7124.00  1.2653839E-01
   7124.33  1.3148746E-01
   7124.67  1.3710167E-01
   7125.00  1.4361565E-01
   7125.33  1.5145060E-01
   7125.67  1.6054251E-01
   7126.00  1.7074239E-01
   7126.33  1.8181249E-01
   7126.67  1.9340800E-01
   7127.00  2.0551995E-01
   7127.33  2.1832444E-01
   7127.67  2.3178660E-01
   7128.00  2.4589915E-01
   7128.33  2.6079406E-01
   7128.67  2.7655469E-01
   7129.00  2.9340344E-01
   7129.33  3.1177348E-01
   7129.67  3.3167633E-01
   7130.00  3.5302633E-01
   7130.33  3.7549393E-01
   7130.67  3.9857382E-01
   7131.00  4.2248293E-01
   7131.33  4.4823192E-01
   7131.67  4.7632949E-01
   7132.00  5.0691850E-01
   7132.33  5.3984808E-01
   7132.67  5.7399608E-01
   7133.00  6.0836397E-01
   7133.33  6.4139999E-01
   7133.67  6.7173034E-01
   7134.00  6.9816118E-01
   7134.33  7.1911074E-01
   7134.67  7.3485131E-01
   7135.00  7.4559585E-01
   7135.33  7.5142424E-01
   7135.67  7.5357983E-01
   7136.00  7.5245677E-01
   7136.33  7.4769346E-01
   7136.67  7.3935692E-01
   7137.00  7.2711382E-01
   7137.33  7.1043352E-01
   7137.67  6.9044497E-01
   7138.00  6.6824765E-01
   7138.33  6.4538674E-01
   7138.67  6.2353527E-01
   7139.00  6.0380502E-01
   7139.33  5.8741829E-01
   7139.67  5.7438279E-01
   7140.00  5.6471532E-01
   7140.33  5.5857320E-01
   7140.67  5.5516064E-01
   7141.00  5.5406368E-01
   7141.33  5.5500830E-01
   7141.67  5.5729048E-01
   7142.00  5.6054082E-01
   7142.33  5.6445900E-01
   7142.67  5.6865530E-01
   7143.00  5.7290240E-01
   7143.33  5.7696410E-01
   7143.67  5.8070317E-01
   7144.00  5.8403514E-01
   7144.33  5.8684821E-01
   7144.67  5.8914543E-01
   7145.00  5.9086302E-01
   7145.33  5.9182902E-01
   7145.67  5.9201004E-01
   7146.00  5.9127636E-01
   7146.33  5.8933075E-01
   7146.67  5.8618442E-01
   7147.00  5.8181462E-01
   7147.33  5.7621087E-01
   7147.67  5.6983145E-01
   7148.00  5.6310121E-01
   7148.33  5.5661023E-01
   7148.67  5.5082762E-01
   7149.00  5.4607099E-01
   7149.33  5.4271051E-01
   7149.67  5.4064497E-01
   7150.00  5.3981934E-01
   7150.33  5.4023296E-01
   7150.67  5.4157142E-01
   7151.00  5.4367782E-01
   7151.33  5.4645772E-01
   7151.67  5.4969403E-01
   7152.00  5.5329141E-01
   7152.33  5.5720756E-01
   7152.67  5.6136336E-01
   7153.00  5.6574297E-01
   7153.33  5.7037580E-01
   7153.67  5.7525005E-01
   7154.00  5.8038283E-01
   7154.33  5.8582258E-01
   7154.67  5.9153617E-01
   7155.00  5.9750995E-01
   7155.33  6.0373846E-01
   7155.67  6.1014119E-01
   7156.00  6.1666065E-01
   7156.33  6.2322462E-01
   7156.67  6.2974512E-01
   7157.00  6.3615064E-01
   7157.33  6.4233875E-01
   7157.67  6.4826452E-01
   7158.00  6.5387776E-01
   7158.33  6.5908730E-01
   7158.67  6.6390409E-01
   7159.00  6.6830715E-01
   7159.33  6.7222596E-01
   7159.67  6.7570418E-01
   7160.00  6.7873677E-01
   7160.33  6.8126522E-01
   7160.67  6.8334480E-01
   7161.00  6.8497412E-01
   7161.33  6.8609408E-01
   7161.67  6.8676070E-01
   7162.00  6.8697412E-01
   7162.33  6.8667375E-01
   7162.67  6.8591274E-01
   7163.00  6.8469011E-01
   7163.33  6.8295152E-01
   7163.67  6.8076317E-01
   7164.00  6.7813840E-01
   7164.33  6.7504851E-01
   7164.67  6.7157648E-01
   7165.00  6.6775549E-01
   7165.33  6.6359240E-01
   7165.67  6.5917611E-01
   7166.00  6.5455561E-01
   7166.33  6.4977647E-01
   7166.67  6.4491614E-01
   7167.00  6.4001949E-01
   7167.33  6.3513263E-01
   7167.67  6.3029022E-01
   7168.00  6.2551510E-01
   7168.33  6.2083759E-01
   7168.67  6.1626520E-01
   7169.00  6.1181174E-01
   7169.33  6.0749700E-01
   7169.67  6.0330311E-01
   7170.00  5.9922931E-01
   7170.33  5.9529503E-01
   7170.67  5.9149900E-01
   7171.00  5.8786866E-01
   7171.33  5.8449875E-01
   7171.67  5.8149462E-01
   7172.00  5.7903901E-01
