    FDMNES
    energy     <xanes>
   7097.00  5.0539159E-03
   7097.33  5.1691125E-03
   7097.67  5.2892744E-03
   7098.00  5.4147201E-03
   7098.33  5.5465691E-03
   7098.67  5.6845624E-03
   7099.00  5.8291277E-03
   7099.33  5.9817078E-03
   7099.67  6.1420298E-03
   7100.00  6.3106826E-03
   7100.33  6.4895707E-03
   7100.67  6.6784237E-03
   7101.00  6.8780764E-03
   7101.33  7.0911156E-03
   7101.67  7.3173111E-03
   7102.00  7.5578882E-03
   7102.33  7.8164834E-03
   7102.67  8.0929912E-03
   7103.00  8.3892871E-03
   7103.33  8.7107041E-03
   7103.67  9.0574533E-03
   7104.00  9.4325580E-03
   7104.33  9.8442636E-03
   7104.67  1.0293553E-02
   7105.00  1.0785630E-02
   7105.33  1.1334140E-02
   7105.67  1.1941998E-02
   7106.00  1.2618954E-02
   7106.33  1.3389743E-02
   7106.67  1.4262490E-02
   7107.00  1.5257732E-02
   7107.33  1.6426360E-02
   7107.67  1.7792591E-02
   7108.00  1.9407607E-02
   7108.33  2.1397953E-02
   7108.67  2.3849725E-02
   7109.00  2.6928819E-02
   7109.33  3.1063025E-02
   7109.67  3.6680250E-02
   7110.00  4.4610782E-02
   7110.33  5.7223229E-02
   7110.67  7.7491051E-02
   7111.00  1.0912764E-01
   7111.33  1.5109065E-01
   7111.67  1.8763295E-01
   7112.00  2.1373949E-01
   7112.33  2.3853280E-01
   7112.67  2.6540602E-01
   7113.00  2.9026304E-01
   7113.33  3.1037059E-01
   7113.67  3.1593976E-01
   7114.00  3.0660363E-01
   7114.33  2.8652109E-01
   7114.67  2.7150737E-01
   7115.00  2.7142443E-01
   7115.33  2.8481602E-01
   7115.67  3.0767616E-01
   7116.00  3.2502497E-01
   7116.33  3.0612723E-01
   7116.67  2.6660549E-01
   7117.00  2.2988231E-01
   7117.33  2.0795635E-01
   7117.67  1.9813010E-01
   7118.00  1.9656495E-01
   7118.33  1.9844818E-01
   7118.67  2.0029837E-01
   7119.00  2.0168367E-01
   7119.33  2.0225681E-01
   7119.67  2.0200953E-01
   7120.00  2.0186905E-01
   7120.33  2.0349446E-01
   7120.67  2.0742025E-01
   7121.00  2.1358021E-01
   7121.33  2.2181994E-01
   7121.67  2.3146150E-01
   7122.00  2.4200576E-01
   7122.33  2.5273337E-01
   7122.67  2.6295363E-01
   7123.00  2.7239574E-01
   7123.33  2.8104937E-01
   7123.67  2.8932299E-01
   7124.00  2.9755098E-01
   7124.33  3.0598573E-01
   7124.67  3.1432347E-01
   7125.00  3.2213790E-01
   7125.33  3.3011411E-01
   7125.67  3.4020449E-01
   7126.00  3.5426963E-01
   7126.33  3.7440160E-01
   7126.67  3.9959601E-01
   7127.00  4.2848754E-01
   7127.33  4.6017716E-01
   7127.67  4.9477993E-01
   7128.00  5.3357557E-01
   7128.33  5.7762505E-01
   7128.67  6.2398815E-01
   7129.00  6.6906857E-01
   7129.33  7.0897005E-01
   7129.67  7.4262478E-01
   7130.00  7.6943005E-01
   7130.33  7.8871590E-01
   7130.67  8.0235973E-01
   7131.00  8.1156709E-01
   7131.33  8.1711402E-01
   7131.67  8.1994474E-01
   7132.00  8.2016090E-01
   7132.33  8.1776545E-01
   7132.67  8.1382035E-01
   7133.00  8.0917885E-01
   7133.33  8.0461988E-01
   7133.67  8.0034538E-01
   7134.00  7.9601796E-01
   7134.33  7.9053564E-01
   7134.67  7.8235609E-01
   7135.00  7.6954477E-01
   7135.33  7.4915686E-01
   7135.67  7.2128789E-01
   7136.00  6.8697797E-01
   7136.33  6.4860995E-01
   7136.67  6.1002504E-01
   7137.00  5.7366844E-01
   7137.33  5.4189799E-01
   7137.67  5.1507503E-01
   7138.00  4.9339818E-01
   7138.33  4.7731344E-01
   7138.67  4.6570286E-01
   7139.00  4.5790914E-01
   7139.33  4.5328655E-01
   7139.67  4.5040000E-01
   7140.00  4.4846777E-01
   7140.33  4.4702941E-01
   7140.67  4.4601618E-01
   7141.00  4.4572122E-01
   7141.33  4.4675960E-01
   7141.67  4.4937061E-01
   7142.00  4.5370829E-01
   7142.33  4.5987230E-01
   7142.67  4.6722859E-01
   7143.00  4.7517742E-01
   7143.33  4.8284738E-01
   7143.67  4.8948487E-01
   7144.00  4.9463001E-01
   7144.33  4.9790315E-01
   7144.67  4.9971274E-01
   7145.00  5.0043400E-01
   7145.33  5.0052900E-01
   7145.67  5.0058336E-01
   7146.00  5.0097330E-01
   7146.33  5.0212354E-01
   7146.67  5.0418651E-01
   7147.00  5.0729244E-01
   7147.33  5.1166292E-01
   7147.67  5.1717367E-01
   7148.00  5.2379210E-01
   7148.33  5.3155596E-01
   7148.67  5.4018953E-01
   7149.00  5.4951019E-01
   7149.33  5.5929267E-01
   7149.67  5.6916488E-01
   7150.00  5.7884413E-01
   7150.33  5.8795487E-01
   7150.67  5.9629586E-01
   7151.00  6.0369395E-01
   7151.33  6.0988785E-01
   7151.67  6.1496842E-01
   7152.00  6.1895487E-01
   7152.33  6.2178874E-01
   7152.67  6.2370001E-01
   7153.00  6.2478976E-01
   7153.33  6.2509692E-01
   7153.67  6.2483626E-01
   7154.00  6.2411357E-01
   7154.33  6.2299870E-01
   7154.67  6.2163294E-01
   7155.00  6.2008421E-01
   7155.33  6.1839524E-01
   7155.67  6.1661840E-01
   7156.00  6.1477014E-01
   7156.33  6.1284710E-01
   7156.67  6.1085142E-01
   7157.00  6.0877205E-01
   7157.33  6.0658010E-01
   7157.67  6.0427067E-01
   7158.00  6.0182931E-01
   7158.33  5.9922130E-01
   7158.67  5.9644910E-01
   7159.00  5.9349858E-01
   7159.33  5.9032850E-01
   7159.67  5.8694731E-01
   7160.00  5.8334333E-01
   7160.33  5.7947561E-01
   7160.67  5.7536499E-01
   7161.00  5.7100941E-01
   7161.33  5.6638564E-01
   7161.67  5.6153990E-01
   7162.00  5.5649383E-01
   7162.33  5.5126133E-01
   7162.67  5.4590550E-01
   7163.00  5.4046492E-01
   7163.33  5.3497784E-01
   7163.67  5.2948618E-01
   7164.00  5.2401619E-01
   7164.33  5.1860581E-01
   7164.67  5.1327477E-01
   7165.00  5.0803822E-01
   7165.33  5.0292121E-01
   7165.67  4.9791863E-01
   7166.00  4.9303598E-01
   7166.33  4.8829336E-01
   7166.67  4.8367768E-01
   7167.00  4.7919003E-01
   7167.33  4.7484737E-01
   7167.67  4.7063476E-01
   7168.00  4.6655359E-01
   7168.33  4.6262083E-01
   7168.67  4.5881875E-01
   7169.00  4.5514656E-01
   7169.33  4.5162087E-01
   7169.67  4.4822763E-01
   7170.00  4.4497049E-01
   7170.33  4.4187045E-01
   7170.67  4.3891723E-01
   7171.00  4.3613020E-01
   7171.33  4.3358204E-01
   7171.67  4.3133421E-01
   7172.00  4.2950142E-01
