    FDMNES
    energy     <xanes>
   7097.00  5.0907787E-03
   7097.33  5.2084635E-03
   7097.67  5.3314183E-03
   7098.00  5.4599957E-03
   7098.33  5.5954088E-03
   7098.67  5.7374026E-03
   7099.00  5.8864560E-03
   7099.33  6.0441495E-03
   7099.67  6.2102199E-03
   7100.00  6.3853341E-03
   7100.33  6.5716045E-03
   7100.67  6.7687815E-03
   7101.00  6.9778231E-03
   7101.33  7.2016375E-03
   7101.67  7.4400391E-03
   7102.00  7.6944536E-03
   7102.33  7.9690328E-03
   7102.67  8.2637656E-03
   7103.00  8.5808684E-03
   7103.33  8.9265350E-03
   7103.67  9.3011812E-03
   7104.00  9.7084422E-03
   7104.33  1.0158083E-02
   7104.67  1.0651547E-02
   7105.00  1.1195217E-02
   7105.33  1.1805619E-02
   7105.67  1.2486779E-02
   7106.00  1.3250938E-02
   7106.33  1.4128854E-02
   7106.67  1.5131613E-02
   7107.00  1.6285737E-02
   7107.33  1.7656604E-02
   7107.67  1.9277638E-02
   7108.00  2.1217403E-02
   7108.33  2.3645532E-02
   7108.67  2.6684686E-02
   7109.00  3.0568794E-02
   7109.33  3.5907125E-02
   7109.67  4.3344405E-02
   7110.00  5.4136050E-02
   7110.33  7.1851936E-02
   7110.67  1.0040354E-01
   7111.00  1.4232378E-01
   7111.33  1.9472883E-01
   7111.67  2.4737233E-01
   7112.00  2.8196656E-01
   7112.33  2.8665154E-01
   7112.67  2.8228254E-01
   7113.00  2.8401495E-01
   7113.33  3.0861928E-01
   7113.67  3.5126809E-01
   7114.00  3.8407595E-01
   7114.33  3.6802615E-01
   7114.67  3.2359494E-01
   7115.00  2.8140276E-01
   7115.33  2.6319641E-01
   7115.67  2.6799550E-01
   7116.00  2.8783088E-01
   7116.33  3.0318065E-01
   7116.67  2.9796654E-01
   7117.00  2.7288354E-01
   7117.33  2.4038348E-01
   7117.67  2.1205557E-01
   7118.00  1.9078892E-01
   7118.33  1.7683745E-01
   7118.67  1.6758160E-01
   7119.00  1.6125083E-01
   7119.33  1.5583838E-01
   7119.67  1.4986404E-01
   7120.00  1.4345080E-01
   7120.33  1.3781135E-01
   7120.67  1.3373435E-01
   7121.00  1.3138208E-01
   7121.33  1.3076650E-01
   7121.67  1.3156657E-01
   7122.00  1.3389228E-01
   7122.33  1.3824042E-01
   7122.67  1.4459294E-01
   7123.00  1.5304717E-01
   7123.33  1.6401250E-01
   7123.67  1.7745160E-01
   7124.00  1.9380549E-01
   7124.33  2.1450889E-01
   7124.67  2.3968479E-01
   7125.00  2.6841083E-01
   7125.33  2.9753662E-01
   7125.67  3.2291529E-01
   7126.00  3.4288208E-01
   7126.33  3.5857519E-01
   7126.67  3.7312684E-01
   7127.00  3.8769126E-01
   7127.33  4.0253956E-01
   7127.67  4.1767292E-01
   7128.00  4.3328047E-01
   7128.33  4.4980913E-01
   7128.67  4.6747583E-01
   7129.00  4.8653739E-01
   7129.33  5.0761551E-01
   7129.67  5.3094429E-01
   7130.00  5.5679950E-01
   7130.33  5.8537518E-01
   7130.67  6.1584113E-01
   7131.00  6.4775814E-01
   7131.33  6.8121893E-01
   7131.67  7.1627758E-01
   7132.00  7.5271156E-01
   7132.33  7.8886758E-01
   7132.67  8.2174734E-01
   7133.00  8.4868125E-01
   7133.33  8.6714990E-01
   7133.67  8.7868684E-01
   7134.00  8.8502809E-01
   7134.33  8.8823413E-01
   7134.67  8.9043071E-01
   7135.00  8.9210234E-01
   7135.33  8.9273435E-01
   7135.67  8.9149335E-01
   7136.00  8.8664668E-01
   7136.33  8.7367865E-01
   7136.67  8.4994459E-01
   7137.00  8.1471309E-01
   7137.33  7.6971636E-01
   7137.67  7.2115985E-01
   7138.00  6.7334805E-01
   7138.33  6.3035232E-01
   7138.67  5.9341483E-01
   7139.00  5.6298131E-01
   7139.33  5.3957644E-01
   7139.67  5.2172164E-01
   7140.00  5.0868748E-01
   7140.33  5.0013046E-01
   7140.67  4.9480175E-01
   7141.00  4.9213349E-01
   7141.33  4.9177423E-01
   7141.67  4.9287552E-01
   7142.00  4.9491374E-01
   7142.33  4.9729861E-01
   7142.67  4.9939758E-01
   7143.00  5.0079985E-01
   7143.33  5.0110227E-01
   7143.67  5.0039638E-01
   7144.00  4.9883533E-01
   7144.33  4.9666149E-01
   7144.67  4.9429718E-01
   7145.00  4.9201496E-01
   7145.33  4.9008842E-01
   7145.67  4.8860787E-01
   7146.00  4.8760890E-01
   7146.33  4.8712545E-01
   7146.67  4.8703691E-01
   7147.00  4.8728131E-01
   7147.33  4.8783388E-01
   7147.67  4.8861965E-01
   7148.00  4.8962201E-01
   7148.33  4.9086264E-01
   7148.67  4.9231467E-01
   7149.00  4.9398149E-01
   7149.33  4.9589706E-01
   7149.67  4.9804300E-01
   7150.00  5.0042453E-01
   7150.33  5.0306547E-01
   7150.67  5.0592516E-01
   7151.00  5.0898761E-01
   7151.33  5.1224422E-01
   7151.67  5.1563004E-01
   7152.00  5.1909916E-01
   7152.33  5.2259562E-01
   7152.67  5.2605769E-01
   7153.00  5.2944072E-01
   7153.33  5.3269026E-01
   7153.67  5.3579835E-01
   7154.00  5.3875963E-01
   7154.33  5.4156570E-01
   7154.67  5.4425511E-01
   7155.00  5.4685239E-01
   7155.33  5.4938098E-01
   7155.67  5.5187671E-01
   7156.00  5.5435753E-01
   7156.33  5.5683217E-01
   7156.67  5.5929465E-01
   7157.00  5.6172621E-01
   7157.33  5.6408338E-01
   7157.67  5.6632767E-01
   7158.00  5.6841297E-01
   7158.33  5.7025687E-01
   7158.67  5.7183466E-01
   7159.00  5.7310910E-01
   7159.33  5.7400280E-01
   7159.67  5.7453405E-01
   7160.00  5.7469240E-01
   7160.33  5.7442984E-01
   7160.67  5.7380126E-01
   7161.00  5.7282113E-01
   7161.33  5.7147399E-01
   7161.67  5.6983145E-01
   7162.00  5.6792257E-01
   7162.33  5.6575777E-01
   7162.67  5.6340910E-01
   7163.00  5.6091613E-01
   7163.33  5.5830872E-01
   7163.67  5.5563698E-01
   7164.00  5.5292888E-01
   7164.33  5.5020846E-01
   7164.67  5.4749385E-01
   7165.00  5.4479291E-01
   7165.33  5.4210913E-01
   7165.67  5.3943567E-01
   7166.00  5.3676495E-01
   7166.33  5.3408435E-01
   7166.67  5.3138205E-01
   7167.00  5.2864787E-01
   7167.33  5.2586652E-01
   7167.67  5.2303552E-01
   7168.00  5.2015289E-01
   7168.33  5.1721804E-01
   7168.67  5.1424087E-01
   7169.00  5.1122501E-01
   7169.33  5.0817500E-01
   7169.67  5.0510763E-01
   7170.00  5.0203793E-01
   7170.33  4.9899033E-01
   7170.67  4.9599218E-01
   7171.00  4.9308162E-01
   7171.33  4.9035011E-01
   7171.67  4.8790298E-01
   7172.00  4.8589972E-01
