    FDMNES
    energy     <xanes>
   7097.00  5.2195816E-03
   7097.33  5.3463771E-03
   7097.67  5.4789076E-03
   7098.00  5.6175536E-03
   7098.33  5.7636288E-03
   7098.67  5.9168508E-03
   7099.00  6.0777339E-03
   7099.33  6.2479850E-03
   7099.67  6.4273102E-03
   7100.00  6.6164234E-03
   7100.33  6.8175979E-03
   7100.67  7.0305508E-03
   7101.00  7.2563037E-03
   7101.33  7.4979747E-03
   7101.67  7.7553440E-03
   7102.00  8.0299262E-03
   7102.33  8.3261549E-03
   7102.67  8.6439881E-03
   7103.00  8.9857723E-03
   7103.33  9.3580946E-03
   7103.67  9.7613538E-03
   7104.00  1.0199386E-02
   7104.33  1.0682536E-02
   7104.67  1.1212270E-02
   7105.00  1.1795307E-02
   7105.33  1.2449090E-02
   7105.67  1.3177785E-02
   7106.00  1.3994253E-02
   7106.33  1.4930875E-02
   7106.67  1.5999221E-02
   7107.00  1.7227155E-02
   7107.33  1.8683462E-02
   7107.67  2.0403288E-02
   7108.00  2.2458915E-02
   7108.33  2.5029517E-02
   7108.67  2.8245680E-02
   7109.00  3.2357060E-02
   7109.33  3.8017259E-02
   7109.67  4.5930694E-02
   7110.00  5.7476859E-02
   7110.33  7.6594987E-02
   7110.67  1.0741463E-01
   7111.00  1.5087811E-01
   7111.33  1.9466170E-01
   7111.67  2.3263291E-01
   7112.00  2.6816578E-01
   7112.33  3.0028234E-01
   7112.67  3.3416835E-01
   7113.00  3.7499529E-01
   7113.33  4.0988029E-01
   7113.67  4.1935117E-01
   7114.00  3.8719778E-01
   7114.33  3.2853434E-01
   7114.67  2.8650820E-01
   7115.00  2.6152657E-01
   7115.33  2.3573052E-01
   7115.67  2.0731516E-01
   7116.00  1.8481216E-01
   7116.33  1.7492529E-01
   7116.67  1.7646223E-01
   7117.00  1.8813786E-01
   7117.33  2.0795382E-01
   7117.67  2.3019989E-01
   7118.00  2.4906083E-01
   7118.33  2.5540736E-01
   7118.67  2.5044626E-01
   7119.00  2.4213220E-01
   7119.33  2.3837216E-01
   7119.67  2.3978605E-01
   7120.00  2.4526333E-01
   7120.33  2.5514099E-01
   7120.67  2.6895541E-01
   7121.00  2.8614437E-01
   7121.33  3.0713902E-01
   7121.67  3.3168607E-01
   7122.00  3.5857909E-01
   7122.33  3.8497591E-01
   7122.67  4.0868716E-01
   7123.00  4.2960344E-01
   7123.33  4.4963380E-01
   7123.67  4.7182765E-01
   7124.00  4.9833680E-01
   7124.33  5.3082423E-01
   7124.67  5.6710693E-01
   7125.00  6.0382993E-01
   7125.33  6.3539739E-01
   7125.67  6.5776561E-01
   7126.00  6.6843059E-01
   7126.33  6.6635268E-01
   7126.67  6.5715188E-01
   7127.00  6.4539141E-01
   7127.33  6.3391642E-01
   7127.67  6.2209404E-01
   7128.00  6.0849141E-01
   7128.33  5.9209766E-01
   7128.67  5.7381399E-01
   7129.00  5.5478299E-01
   7129.33  5.3671934E-01
   7129.67  5.2100614E-01
   7130.00  5.0857863E-01
   7130.33  5.0046924E-01
   7130.67  4.9614996E-01
   7131.00  4.9515730E-01
   7131.33  4.9699575E-01
   7131.67  5.0052488E-01
   7132.00  5.0506839E-01
   7132.33  5.0967720E-01
   7132.67  5.1311098E-01
   7133.00  5.1432627E-01
   7133.33  5.1232513E-01
   7133.67  5.0786492E-01
   7134.00  5.0205817E-01
   7134.33  4.9653576E-01
   7134.67  4.9252139E-01
   7135.00  4.9056036E-01
   7135.33  4.9100766E-01
   7135.67  4.9333281E-01
   7136.00  4.9721227E-01
   7136.33  5.0246280E-01
   7136.67  5.0872181E-01
   7137.00  5.1590149E-01
   7137.33  5.2401139E-01
   7137.67  5.3277209E-01
   7138.00  5.4194984E-01
   7138.33  5.5117283E-01
   7138.67  5.6001034E-01
   7139.00  5.6814920E-01
   7139.33  5.7525748E-01
   7139.67  5.8139023E-01
   7140.00  5.8655716E-01
   7140.33  5.9061448E-01
   7140.67  5.9357347E-01
   7141.00  5.9527631E-01
   7141.33  5.9535697E-01
   7141.67  5.9389841E-01
   7142.00  5.9094626E-01
   7142.33  5.8657427E-01
   7142.67  5.8134166E-01
   7143.00  5.7568538E-01
   7143.33  5.7017580E-01
   7143.67  5.6533722E-01
   7144.00  5.6157708E-01
   7144.33  5.5943091E-01
   7144.67  5.5889946E-01
   7145.00  5.5997236E-01
   7145.33  5.6261779E-01
   7145.67  5.6627827E-01
   7146.00  5.7054825E-01
   7146.33  5.7494864E-01
   7146.67  5.7895393E-01
   7147.00  5.8212840E-01
   7147.33  5.8385506E-01
   7147.67  5.8395182E-01
   7148.00  5.8224741E-01
   7148.33  5.7847773E-01
   7148.67  5.7301689E-01
   7149.00  5.6611001E-01
   7149.33  5.5799778E-01
   7149.67  5.4921945E-01
   7150.00  5.4010054E-01
   7150.33  5.3095372E-01
   7150.67  5.2201398E-01
   7151.00  5.1341494E-01
   7151.33  5.0530548E-01
   7151.67  4.9768165E-01
   7152.00  4.9056744E-01
   7152.33  4.8404533E-01
   7152.67  4.7805941E-01
   7153.00  4.7261328E-01
   7153.33  4.6777002E-01
   7153.67  4.6344756E-01
   7154.00  4.5962101E-01
   7154.33  4.5630383E-01
   7154.67  4.5338442E-01
   7155.00  4.5080783E-01
   7155.33  4.4853731E-01
   7155.67  4.4646237E-01
   7156.00  4.4451290E-01
   7156.33  4.4260830E-01
   7156.67  4.4065599E-01
   7157.00  4.3858048E-01
   7157.33  4.3627044E-01
   7157.67  4.3367518E-01
   7158.00  4.3074010E-01
   7158.33  4.2736998E-01
   7158.67  4.2358476E-01
   7159.00  4.1937689E-01
   7159.33  4.1470356E-01
   7159.67  4.0964473E-01
   7160.00  4.0424671E-01
   7160.33  3.9855912E-01
   7160.67  3.9272015E-01
   7161.00  3.8683714E-01
   7161.33  3.8105889E-01
   7161.67  3.7551407E-01
   7162.00  3.7031381E-01
   7162.33  3.6562535E-01
   7162.67  3.6147809E-01
   7163.00  3.5792382E-01
   7163.33  3.5507480E-01
   7163.67  3.5286130E-01
   7164.00  3.5127396E-01
   7164.33  3.5036157E-01
   7164.67  3.5001112E-01
   7165.00  3.5018374E-01
   7165.33  3.5088978E-01
   7165.67  3.5202031E-01
   7166.00  3.5353357E-01
   7166.33  3.5542525E-01
   7166.67  3.5760953E-01
   7167.00  3.6005061E-01
   7167.33  3.6273615E-01
   7167.67  3.6560145E-01
   7168.00  3.6861533E-01
   7168.33  3.7175662E-01
   7168.67  3.7497700E-01
   7169.00  3.7824804E-01
   7169.33  3.8154005E-01
   7169.67  3.8481955E-01
   7170.00  3.8806051E-01
   7170.33  3.9122383E-01
   7170.67  3.9428409E-01
   7171.00  3.9720430E-01
   7171.33  3.9989474E-01
   7171.67  4.0227036E-01
   7172.00  4.0419013E-01
