    FDMNES
    energy     <xanes>
   7097.00  4.6737425E-03
   7097.33  4.7788901E-03
   7097.67  4.8887242E-03
   7098.00  5.0035635E-03
   7098.33  5.1244956E-03
   7098.67  5.2513018E-03
   7099.00  5.3844182E-03
   7099.33  5.5252713E-03
   7099.67  5.6736401E-03
   7100.00  5.8301382E-03
   7100.33  5.9966878E-03
   7100.67  6.1730897E-03
   7101.00  6.3602353E-03
   7101.33  6.5607997E-03
   7101.67  6.7746590E-03
   7102.00  7.0031584E-03
   7102.33  7.2501673E-03
   7102.67  7.5157555E-03
   7103.00  7.8020490E-03
   7103.33  8.1149143E-03
   7103.67  8.4548858E-03
   7104.00  8.8255173E-03
   7104.33  9.2362409E-03
   7104.67  9.6887059E-03
   7105.00  1.0189289E-02
   7105.33  1.0754333E-02
   7105.67  1.1388298E-02
   7106.00  1.2103728E-02
   7106.33  1.2931875E-02
   7106.67  1.3884979E-02
   7107.00  1.4990979E-02
   7107.33  1.6318408E-02
   7107.67  1.7904486E-02
   7108.00  1.9823672E-02
   7108.33  2.2260076E-02
   7108.67  2.5352744E-02
   7109.00  2.9364469E-02
   7109.33  3.4983074E-02
   7109.67  4.2960036E-02
   7110.00  5.4760165E-02
   7110.33  7.4545657E-02
   7110.67  1.0655117E-01
   7111.00  1.5152696E-01
   7111.33  1.9990006E-01
   7111.67  2.5017994E-01
   7112.00  3.0522844E-01
   7112.33  3.5637830E-01
   7112.67  3.7169737E-01
   7113.00  3.2896148E-01
   7113.33  2.7109590E-01
   7113.67  2.3936968E-01
   7114.00  2.2794904E-01
   7114.33  2.0467249E-01
   7114.67  1.6634786E-01
   7115.00  1.3223460E-01
   7115.33  1.0963540E-01
   7115.67  9.3944790E-02
   7116.00  8.3988181E-02
   7116.33  7.9545161E-02
   7116.67  7.9181570E-02
   7117.00  8.2627688E-02
   7117.33  9.0532355E-02
   7117.67  1.0228397E-01
   7118.00  1.1627483E-01
   7118.33  1.2832074E-01
   7118.67  1.3645010E-01
   7119.00  1.4274516E-01
   7119.33  1.5079792E-01
   7119.67  1.6063927E-01
   7120.00  1.6968214E-01
   7120.33  1.7604661E-01
   7120.67  1.8282847E-01
   7121.00  1.9204018E-01
   7121.33  2.0414616E-01
   7121.67  2.1844451E-01
   7122.00  2.3435461E-01
   7122.33  2.5068291E-01
   7122.67  2.6641500E-01
   7123.00  2.8163061E-01
   7123.33  2.9744598E-01
   7123.67  3.1508938E-01
   7124.00  3.3512235E-01
   7124.33  3.5722702E-01
   7124.67  3.7955025E-01
   7125.00  4.0015706E-01
   7125.33  4.1537336E-01
   7125.67  4.2270847E-01
   7126.00  4.2183001E-01
   7126.33  4.1569535E-01
   7126.67  4.0994456E-01
   7127.00  4.0761676E-01
   7127.33  4.1031302E-01
   7127.67  4.1643494E-01
   7128.00  4.2422706E-01
   7128.33  4.3142521E-01
   7128.67  4.3645262E-01
   7129.00  4.3876197E-01
   7129.33  4.3852184E-01
   7129.67  4.3719258E-01
   7130.00  4.3580485E-01
   7130.33  4.3520644E-01
   7130.67  4.3560201E-01
   7131.00  4.3707567E-01
   7131.33  4.3985011E-01
   7131.67  4.4382690E-01
   7132.00  4.4894716E-01
   7132.33  4.5508130E-01
   7132.67  4.6171682E-01
   7133.00  4.6846242E-01
   7133.33  4.7489523E-01
   7133.67  4.8087117E-01
   7134.00  4.8643968E-01
   7134.33  4.9176782E-01
   7134.67  4.9703513E-01
   7135.00  5.0224127E-01
   7135.33  5.0729214E-01
   7135.67  5.1223887E-01
   7136.00  5.1726338E-01
   7136.33  5.2270348E-01
   7136.67  5.2875171E-01
   7137.00  5.3551795E-01
   7137.33  5.4312493E-01
   7137.67  5.5144599E-01
   7138.00  5.6044040E-01
   7138.33  5.7015892E-01
   7138.67  5.8050636E-01
   7139.00  5.9145599E-01
   7139.33  6.0298526E-01
   7139.67  6.1485868E-01
   7140.00  6.2687447E-01
   7140.33  6.3877297E-01
   7140.67  6.5037059E-01
   7141.00  6.6156965E-01
   7141.33  6.7227597E-01
   7141.67  6.8252538E-01
   7142.00  6.9225356E-01
   7142.33  7.0118339E-01
   7142.67  7.0909207E-01
   7143.00  7.1566275E-01
   7143.33  7.2036078E-01
   7143.67  7.2321613E-01
   7144.00  7.2424851E-01
   7144.33  7.2349200E-01
   7144.67  7.2155674E-01
   7145.00  7.1887535E-01
   7145.33  7.1591749E-01
   7145.67  7.1310592E-01
   7146.00  7.1066839E-01
   7146.33  7.0884473E-01
   7146.67  7.0764567E-01
   7147.00  7.0706532E-01
   7147.33  7.0708617E-01
   7147.67  7.0749039E-01
   7148.00  7.0811193E-01
   7148.33  7.0874441E-01
   7148.67  7.0919446E-01
   7149.00  7.0932493E-01
   7149.33  7.0896362E-01
   7149.67  7.0809467E-01
   7150.00  7.0669119E-01
   7150.33  7.0468709E-01
   7150.67  7.0217715E-01
   7151.00  6.9920193E-01
   7151.33  6.9577042E-01
   7151.67  6.9199839E-01
   7152.00  6.8793803E-01
   7152.33  6.8360489E-01
   7152.67  6.7905063E-01
   7153.00  6.7427065E-01
   7153.33  6.6920111E-01
   7153.67  6.6381697E-01
   7154.00  6.5805107E-01
   7154.33  6.5175423E-01
   7154.67  6.4489852E-01
   7155.00  6.3742647E-01
   7155.33  6.2922396E-01
   7155.67  6.2038474E-01
   7156.00  6.1095791E-01
   7156.33  6.0097762E-01
   7156.67  5.9063049E-01
   7157.00  5.8003570E-01
   7157.33  5.6931769E-01
   7157.67  5.5861913E-01
   7158.00  5.4804174E-01
   7158.33  5.3771532E-01
   7158.67  5.2769635E-01
   7159.00  5.1804156E-01
   7159.33  5.0884792E-01
   7159.67  5.0009758E-01
   7160.00  4.9181564E-01
   7160.33  4.8408488E-01
   7160.67  4.7685683E-01
   7161.00  4.7013580E-01
   7161.33  4.6398114E-01
   7161.67  4.5831817E-01
   7162.00  4.5313151E-01
   7162.33  4.4845362E-01
   7162.67  4.4419990E-01
   7163.00  4.4034606E-01
   7163.33  4.3691329E-01
   7163.67  4.3383535E-01
   7164.00  4.3110223E-01
   7164.33  4.2875267E-01
   7164.67  4.2674699E-01
   7165.00  4.2509115E-01
   7165.33  4.2383789E-01
   7165.67  4.2294872E-01
   7166.00  4.2242550E-01
   7166.33  4.2230952E-01
   7166.67  4.2254356E-01
   7167.00  4.2311107E-01
   7167.33  4.2402467E-01
   7167.67  4.2521417E-01
   7168.00  4.2664896E-01
   7168.33  4.2831702E-01
   7168.67  4.3015382E-01
   7169.00  4.3212752E-01
   7169.33  4.3421723E-01
   7169.67  4.3638027E-01
   7170.00  4.3859371E-01
   7170.33  4.4083483E-01
   7170.67  4.4307158E-01
   7171.00  4.4527080E-01
   7171.33  4.4735915E-01
   7171.67  4.4924043E-01
   7172.00  4.5077370E-01
