    FDMNES
    energy     <xanes>
   7097.00  4.6664596E-03
   7097.33  4.7713736E-03
   7097.67  4.8809486E-03
   7098.00  4.9955001E-03
   7098.33  5.1161074E-03
   7098.67  5.2425508E-03
   7099.00  5.3752615E-03
   7099.33  5.5156530E-03
   7099.67  5.6635027E-03
   7100.00  5.8194161E-03
   7100.33  5.9852954E-03
   7100.67  6.1609381E-03
   7101.00  6.3472227E-03
   7101.33  6.5467914E-03
   7101.67  6.7595140E-03
   7102.00  6.9867141E-03
   7102.33  7.2322061E-03
   7102.67  7.4960472E-03
   7103.00  7.7803247E-03
   7103.33  8.0908100E-03
   7103.67  8.4280099E-03
   7104.00  8.7954066E-03
   7104.33  9.2022571E-03
   7104.67  9.6501486E-03
   7105.00  1.0145315E-02
   7105.33  1.0703751E-02
   7105.67  1.1329767E-02
   7106.00  1.2035590E-02
   7106.33  1.2851711E-02
   7106.67  1.3789959E-02
   7107.00  1.4877472E-02
   7107.33  1.6180840E-02
   7107.67  1.7735937E-02
   7108.00  1.9614716E-02
   7108.33  2.1994986E-02
   7108.67  2.5009894E-02
   7109.00  2.8911132E-02
   7109.33  3.4355760E-02
   7109.67  4.2054017E-02
   7110.00  5.3387622E-02
   7110.33  7.2284898E-02
   7110.67  1.0291369E-01
   7111.00  1.4701130E-01
   7111.33  1.9788745E-01
   7111.67  2.5103819E-01
   7112.00  3.0358703E-01
   7112.33  3.4202082E-01
   7112.67  3.4577425E-01
   7113.00  3.1039236E-01
   7113.33  2.7172013E-01
   7113.67  2.5189523E-01
   7114.00  2.3948978E-01
   7114.33  2.0746677E-01
   7114.67  1.6606368E-01
   7115.00  1.3233660E-01
   7115.33  1.1079818E-01
   7115.67  9.6972510E-02
   7116.00  8.9476859E-02
   7116.33  8.8085063E-02
   7116.67  9.1468139E-02
   7117.00  9.8981233E-02
   7117.33  1.0908636E-01
   7117.67  1.1840096E-01
   7118.00  1.2486113E-01
   7118.33  1.2798599E-01
   7118.67  1.3037949E-01
   7119.00  1.3484663E-01
   7119.33  1.4372445E-01
   7119.67  1.5546689E-01
   7120.00  1.6734881E-01
   7120.33  1.7775133E-01
   7120.67  1.8871484E-01
   7121.00  2.0210463E-01
   7121.33  2.1879321E-01
   7121.67  2.3710046E-01
   7122.00  2.5493591E-01
   7122.33  2.7002853E-01
   7122.67  2.8278655E-01
   7123.00  2.9455356E-01
   7123.33  3.0707717E-01
   7123.67  3.2152684E-01
   7124.00  3.3845493E-01
   7124.33  3.5799256E-01
   7124.67  3.7867015E-01
   7125.00  3.9825926E-01
   7125.33  4.1235495E-01
   7125.67  4.1937017E-01
   7126.00  4.2067106E-01
   7126.33  4.1951380E-01
   7126.67  4.1896162E-01
   7127.00  4.2032970E-01
   7127.33  4.2444756E-01
   7127.67  4.3037526E-01
   7128.00  4.3675633E-01
   7128.33  4.4169299E-01
   7128.67  4.4451528E-01
   7129.00  4.4560225E-01
   7129.33  4.4597003E-01
   7129.67  4.4654097E-01
   7130.00  4.4751833E-01
   7130.33  4.4878713E-01
   7130.67  4.5012323E-01
   7131.00  4.5150289E-01
   7131.33  4.5311956E-01
   7131.67  4.5521145E-01
   7132.00  4.5793570E-01
   7132.33  4.6134127E-01
   7132.67  4.6512444E-01
   7133.00  4.6900680E-01
   7133.33  4.7253847E-01
   7133.67  4.7532499E-01
   7134.00  4.7720422E-01
   7134.33  4.7838323E-01
   7134.67  4.7958843E-01
   7135.00  4.8138846E-01
   7135.33  4.8439253E-01
   7135.67  4.8872708E-01
   7136.00  4.9447035E-01
   7136.33  5.0173311E-01
   7136.67  5.1014914E-01
   7137.00  5.1947930E-01
   7137.33  5.2954992E-01
   7137.67  5.4016421E-01
   7138.00  5.5135909E-01
   7138.33  5.6330056E-01
   7138.67  5.7584363E-01
   7139.00  5.8873455E-01
   7139.33  6.0150498E-01
   7139.67  6.1375431E-01
   7140.00  6.2532242E-01
   7140.33  6.3623484E-01
   7140.67  6.4684442E-01
   7141.00  6.5736314E-01
   7141.33  6.6784344E-01
   7141.67  6.7809756E-01
   7142.00  6.8778540E-01
   7142.33  6.9624881E-01
   7142.67  7.0307504E-01
   7143.00  7.0786405E-01
   7143.33  7.1004187E-01
   7143.67  7.0987435E-01
   7144.00  7.0755442E-01
   7144.33  7.0329807E-01
   7144.67  6.9790165E-01
   7145.00  6.9192280E-01
   7145.33  6.8601980E-01
   7145.67  6.8076866E-01
   7146.00  6.7657395E-01
   7146.33  6.7392607E-01
   7146.67  6.7278188E-01
   7147.00  6.7309708E-01
   7147.33  6.7481683E-01
   7147.67  6.7743824E-01
   7148.00  6.8060002E-01
   7148.33  6.8388993E-01
   7148.67  6.8693245E-01
   7149.00  6.8950462E-01
   7149.33  6.9137731E-01
   7149.67  6.9258081E-01
   7150.00  6.9313540E-01
   7150.33  6.9302603E-01
   7150.67  6.9238698E-01
   7151.00  6.9124954E-01
   7151.33  6.8954969E-01
   7151.67  6.8730596E-01
   7152.00  6.8445280E-01
   7152.33  6.8080623E-01
   7152.67  6.7635576E-01
   7153.00  6.7102980E-01
   7153.33  6.6465938E-01
   7153.67  6.5735182E-01
   7154.00  6.4913880E-01
   7154.33  6.3999794E-01
   7154.67  6.3015385E-01
   7155.00  6.1973555E-01
   7155.33  6.0886029E-01
   7155.67  5.9775400E-01
   7156.00  5.8656342E-01
   7156.33  5.7545529E-01
   7156.67  5.6455786E-01
   7157.00  5.5397359E-01
   7157.33  5.4386134E-01
   7157.67  5.3425224E-01
   7158.00  5.2519106E-01
   7158.33  5.1677565E-01
   7158.67  5.0893168E-01
   7159.00  5.0163771E-01
   7159.33  4.9491867E-01
   7159.67  4.8865975E-01
   7160.00  4.8280925E-01
   7160.33  4.7734020E-01
   7160.67  4.7213812E-01
   7161.00  4.6714865E-01
   7161.33  4.6234048E-01
   7161.67  4.5765771E-01
   7162.00  4.5308569E-01
   7162.33  4.4864187E-01
   7162.67  4.4433699E-01
   7163.00  4.4020764E-01
   7163.33  4.3633663E-01
   7163.67  4.3275434E-01
   7164.00  4.2950972E-01
   7164.33  4.2670013E-01
   7164.67  4.2431319E-01
   7165.00  4.2236737E-01
   7165.33  4.2092535E-01
   7165.67  4.1992359E-01
   7166.00  4.1934618E-01
   7166.33  4.1921610E-01
   7166.67  4.1945285E-01
   7167.00  4.2002991E-01
   7167.33  4.2095779E-01
   7167.67  4.2217313E-01
   7168.00  4.2365823E-01
   7168.33  4.2542634E-01
   7168.67  4.2742842E-01
   7169.00  4.2964860E-01
   7169.33  4.3209067E-01
   7169.67  4.3470485E-01
   7170.00  4.3746479E-01
   7170.33  4.4034560E-01
   7170.67  4.4328316E-01
   7171.00  4.4621862E-01
   7171.33  4.4903863E-01
   7171.67  4.5159266E-01
   7172.00  4.5368011E-01
