    FDMNES
    energy     <xanes>
   7097.00  5.0922148E-03
   7097.33  5.2174842E-03
   7097.67  5.3487890E-03
   7098.00  5.4865690E-03
   7098.33  5.6322754E-03
   7098.67  5.7856684E-03
   7099.00  5.9473625E-03
   7099.33  6.1192999E-03
   7099.67  6.3012559E-03
   7100.00  6.4941148E-03
   7100.33  6.7005565E-03
   7100.67  6.9204180E-03
   7101.00  7.1550186E-03
   7101.33  7.4081915E-03
   7101.67  7.6799383E-03
   7102.00  7.9723122E-03
   7102.33  8.2910391E-03
   7102.67  8.6365147E-03
   7103.00  9.0121019E-03
   7103.33  9.4268196E-03
   7103.67  9.8819910E-03
   7104.00  1.0383481E-02
   7104.33  1.0946462E-02
   7104.67  1.1574512E-02
   7105.00  1.2278694E-02
   7105.33  1.3086777E-02
   7105.67  1.4008197E-02
   7106.00  1.5066068E-02
   7106.33  1.6317163E-02
   7106.67  1.7787914E-02
   7107.00  1.9533746E-02
   7107.33  2.1689863E-02
   7107.67  2.4340884E-02
   7108.00  2.7648559E-02
   7108.33  3.2015306E-02
   7108.67  3.7782678E-02
   7109.00  4.5587639E-02
   7109.33  5.7129490E-02
   7109.67  7.4437237E-02
   7110.00  1.0150371E-01
   7110.33  1.5004122E-01
   7110.67  2.3366887E-01
   7111.00  3.5694371E-01
   7111.33  4.6262210E-01
   7111.67  4.9442773E-01
   7112.00  4.5724645E-01
   7112.33  3.7093668E-01
   7112.67  2.8426679E-01
   7113.00  2.1671843E-01
   7113.33  1.7094711E-01
   7113.67  1.3947869E-01
   7114.00  1.1842313E-01
   7114.33  1.0509884E-01
   7114.67  9.5747274E-02
   7115.00  8.8751795E-02
   7115.33  8.3832872E-02
   7115.67  8.0631759E-02
   7116.00  7.8878762E-02
   7116.33  7.8443150E-02
   7116.67  7.9106508E-02
   7117.00  8.0900811E-02
   7117.33  8.4103621E-02
   7117.67  8.8839376E-02
   7118.00  9.5406733E-02
   7118.33  1.0424756E-01
   7118.67  1.1485520E-01
   7119.00  1.2648368E-01
   7119.33  1.3779757E-01
   7119.67  1.4788397E-01
   7120.00  1.5706715E-01
   7120.33  1.6735968E-01
   7120.67  1.8067692E-01
   7121.00  1.9772941E-01
   7121.33  2.1876578E-01
   7121.67  2.4313500E-01
   7122.00  2.7098942E-01
   7122.33  3.0256507E-01
   7122.67  3.3595649E-01
   7123.00  3.6860327E-01
   7123.33  3.9605025E-01
   7123.67  4.1593606E-01
   7124.00  4.2816735E-01
   7124.33  4.3494182E-01
   7124.67  4.4104445E-01
   7125.00  4.4973549E-01
   7125.33  4.6422471E-01
   7125.67  4.8479680E-01
   7126.00  5.1057567E-01
   7126.33  5.3866835E-01
   7126.67  5.6459661E-01
   7127.00  5.8576247E-01
   7127.33  6.0109141E-01
   7127.67  6.1230941E-01
   7128.00  6.1967000E-01
   7128.33  6.2114251E-01
   7128.67  6.1592435E-01
   7129.00  6.0501399E-01
   7129.33  5.9224643E-01
   7129.67  5.8200176E-01
   7130.00  5.7613219E-01
   7130.33  5.7541172E-01
   7130.67  5.7838671E-01
   7131.00  5.8413182E-01
   7131.33  5.9206911E-01
   7131.67  6.0153596E-01
   7132.00  6.1240795E-01
   7132.33  6.2467445E-01
   7132.67  6.3761315E-01
   7133.00  6.5037416E-01
   7133.33  6.6213683E-01
   7133.67  6.7327663E-01
   7134.00  6.8445703E-01
   7134.33  6.9617675E-01
   7134.67  7.0811616E-01
   7135.00  7.1957695E-01
   7135.33  7.2929053E-01
   7135.67  7.3642182E-01
   7136.00  7.4034462E-01
   7136.33  7.4036913E-01
   7136.67  7.3722309E-01
   7137.00  7.3152521E-01
   7137.33  7.2403707E-01
   7137.67  7.1596175E-01
   7138.00  7.0806161E-01
   7138.33  7.0112163E-01
   7138.67  6.9545062E-01
   7139.00  6.9121646E-01
   7139.33  6.8862376E-01
   7139.67  6.8735800E-01
   7140.00  6.8720496E-01
   7140.33  6.8792561E-01
   7140.67  6.8903366E-01
   7141.00  6.9018666E-01
   7141.33  6.9097026E-01
   7141.67  6.9110653E-01
   7142.00  6.9037974E-01
   7142.33  6.8850215E-01
   7142.67  6.8552946E-01
   7143.00  6.8143734E-01
   7143.33  6.7612506E-01
   7143.67  6.6984231E-01
   7144.00  6.6273911E-01
   7144.33  6.5494728E-01
   7144.67  6.4675511E-01
   7145.00  6.3832299E-01
   7145.33  6.2977816E-01
   7145.67  6.2121615E-01
   7146.00  6.1266912E-01
   7146.33  6.0414103E-01
   7146.67  5.9560662E-01
   7147.00  5.8703694E-01
   7147.33  5.7838927E-01
   7147.67  5.6964740E-01
   7148.00  5.6080284E-01
   7148.33  5.5184921E-01
   7148.67  5.4282021E-01
   7149.00  5.3374697E-01
   7149.33  5.2467356E-01
   7149.67  5.1564551E-01
   7150.00  5.0670183E-01
   7150.33  4.9790104E-01
   7150.67  4.8926629E-01
   7151.00  4.8082929E-01
   7151.33  4.7265653E-01
   7151.67  4.6475417E-01
   7152.00  4.5714963E-01
   7152.33  4.4991578E-01
   7152.67  4.4303975E-01
   7153.00  4.3653368E-01
   7153.33  4.3043941E-01
   7153.67  4.2468659E-01
   7154.00  4.1923857E-01
   7154.33  4.1407059E-01
   7154.67  4.0909094E-01
   7155.00  4.0425147E-01
   7155.33  3.9951695E-01
   7155.67  3.9483769E-01
   7156.00  3.9018326E-01
   7156.33  3.8551095E-01
   7156.67  3.8077202E-01
   7157.00  3.7591581E-01
   7157.33  3.7085829E-01
   7157.67  3.6556810E-01
   7158.00  3.6001515E-01
   7158.33  3.5415752E-01
   7158.67  3.4805537E-01
   7159.00  3.4176144E-01
   7159.33  3.3535935E-01
   7159.67  3.2898555E-01
   7160.00  3.2276039E-01
   7160.33  3.1686295E-01
   7160.67  3.1138988E-01
   7161.00  3.0643992E-01
   7161.33  3.0217948E-01
   7161.67  2.9859330E-01
   7162.00  2.9570936E-01
   7162.33  2.9361871E-01
   7162.67  2.9222206E-01
   7163.00  2.9150570E-01
   7163.33  2.9153032E-01
   7163.67  2.9218963E-01
   7164.00  2.9346361E-01
   7164.33  2.9540417E-01
   7164.67  2.9791578E-01
   7165.00  3.0098021E-01
   7165.33  3.0464208E-01
   7165.67  3.0880962E-01
   7166.00  3.1345524E-01
   7166.33  3.1859486E-01
   7166.67  3.2412887E-01
   7167.00  3.3001373E-01
   7167.33  3.3622794E-01
   7167.67  3.4266890E-01
   7168.00  3.4927488E-01
   7168.33  3.5598253E-01
   7168.67  3.6270512E-01
   7169.00  3.6937862E-01
   7169.33  3.7591746E-01
   7169.67  3.8227232E-01
   7170.00  3.8839313E-01
   7170.33  3.9419025E-01
   7170.67  3.9964735E-01
   7171.00  4.0471444E-01
   7171.33  4.0925246E-01
   7171.67  4.1318277E-01
   7172.00  4.1632930E-01
