    FDMNES
    energy     <xanes>
   7097.00  4.0876521E-03
   7097.33  4.1712129E-03
   7097.67  4.2581733E-03
   7098.00  4.3487561E-03
   7098.33  4.4437378E-03
   7098.67  4.5429511E-03
   7099.00  4.6467028E-03
   7099.33  4.7560097E-03
   7099.67  4.8707062E-03
   7100.00  4.9912277E-03
   7100.33  5.1189480E-03
   7100.67  5.2537244E-03
   7101.00  5.3961983E-03
   7101.33  5.5482961E-03
   7101.67  5.7099452E-03
   7102.00  5.8821331E-03
   7102.33  6.0676859E-03
   7102.67  6.2667071E-03
   7103.00  6.4807994E-03
   7103.33  6.7143443E-03
   7103.67  6.9678696E-03
   7104.00  7.2441499E-03
   7104.33  7.5504609E-03
   7104.67  7.8883731E-03
   7105.00  8.2630942E-03
   7105.33  8.6878070E-03
   7105.67  9.1668123E-03
   7106.00  9.7109603E-03
   7106.33  1.0347033E-02
   7106.67  1.1087298E-02
   7107.00  1.1957779E-02
   7107.33  1.3022141E-02
   7107.67  1.4320141E-02
   7108.00  1.5928108E-02
   7108.33  1.8036457E-02
   7108.67  2.0808098E-02
   7109.00  2.4547909E-02
   7109.33  3.0073991E-02
   7109.67  3.8379002E-02
   7110.00  5.1421859E-02
   7110.33  7.4862890E-02
   7110.67  1.1411176E-01
   7111.00  1.6664480E-01
   7111.33  2.0738674E-01
   7111.67  2.2496328E-01
   7112.00  2.1583777E-01
   7112.33  1.8183749E-01
   7112.67  1.4656447E-01
   7113.00  1.1632171E-01
   7113.33  9.2696157E-02
   7113.67  7.5542862E-02
   7114.00  6.4183887E-02
   7114.33  5.7840319E-02
   7114.67  5.3703002E-02
   7115.00  4.9065641E-02
   7115.33  4.4234069E-02
   7115.67  4.1148811E-02
   7116.00  3.9753984E-02
   7116.33  3.9481083E-02
   7116.67  3.9751020E-02
   7117.00  4.0500036E-02
   7117.33  4.1889803E-02
   7117.67  4.3885431E-02
   7118.00  4.6464432E-02
   7118.33  4.9684846E-02
   7118.67  5.3438223E-02
   7119.00  5.7558786E-02
   7119.33  6.1622255E-02
   7119.67  6.5125894E-02
   7120.00  6.7813535E-02
   7120.33  6.9743240E-02
   7120.67  7.1476059E-02
   7121.00  7.3444654E-02
   7121.33  7.6119290E-02
   7121.67  7.9696354E-02
   7122.00  8.4360085E-02
   7122.33  9.0522787E-02
   7122.67  9.8415997E-02
   7123.00  1.0854168E-01
   7123.33  1.2201960E-01
   7123.67  1.3935750E-01
   7124.00  1.6130984E-01
   7124.33  1.8899408E-01
   7124.67  2.2134239E-01
   7125.00  2.5727246E-01
   7125.33  2.9452937E-01
   7125.67  3.2798233E-01
   7126.00  3.5175137E-01
   7126.33  3.6144185E-01
   7126.67  3.6659735E-01
   7127.00  3.7825326E-01
   7127.33  4.0405519E-01
   7127.67  4.4090859E-01
   7128.00  4.8605193E-01
   7128.33  5.3756965E-01
   7128.67  5.9186533E-01
   7129.00  6.4613546E-01
   7129.33  6.9694567E-01
   7129.67  7.4238582E-01
   7130.00  7.8199721E-01
   7130.33  8.1830296E-01
   7130.67  8.5625404E-01
   7131.00  8.9532182E-01
   7131.33  9.2580606E-01
   7131.67  9.3931051E-01
   7132.00  9.3449430E-01
   7132.33  9.1575579E-01
   7132.67  8.9256628E-01
   7133.00  8.7000735E-01
   7133.33  8.5226948E-01
   7133.67  8.4102075E-01
   7134.00  8.3757866E-01
   7134.33  8.4434274E-01
   7134.67  8.6024282E-01
   7135.00  8.8251816E-01
   7135.33  9.0521774E-01
   7135.67  9.2328568E-01
   7136.00  9.3437085E-01
   7136.33  9.3583725E-01
   7136.67  9.2811812E-01
   7137.00  9.1173616E-01
   7137.33  8.8776127E-01
   7137.67  8.5971236E-01
   7138.00  8.2980332E-01
   7138.33  7.9997847E-01
   7138.67  7.7135637E-01
   7139.00  7.4439372E-01
   7139.33  7.1950348E-01
   7139.67  6.9647211E-01
   7140.00  6.7528431E-01
   7140.33  6.5616342E-01
   7140.67  6.3888801E-01
   7141.00  6.2346304E-01
   7141.33  6.1010911E-01
   7141.67  5.9857161E-01
   7142.00  5.8878120E-01
   7142.33  5.8078691E-01
   7142.67  5.7420385E-01
   7143.00  5.6885960E-01
   7143.33  5.6467771E-01
   7143.67  5.6133564E-01
   7144.00  5.5869059E-01
   7144.33  5.5668356E-01
   7144.67  5.5515508E-01
   7145.00  5.5405807E-01
   7145.33  5.5341143E-01
   7145.67  5.5314805E-01
   7146.00  5.5325589E-01
   7146.33  5.5375958E-01
   7146.67  5.5458472E-01
   7147.00  5.5569509E-01
   7147.33  5.5706761E-01
   7147.67  5.5861414E-01
   7148.00  5.6028273E-01
   7148.33  5.6202261E-01
   7148.67  5.6376137E-01
   7149.00  5.6542864E-01
   7149.33  5.6689785E-01
   7149.67  5.6806791E-01
   7150.00  5.6881214E-01
   7150.33  5.6887088E-01
   7150.67  5.6810098E-01
   7151.00  5.6629666E-01
   7151.33  5.6306399E-01
   7151.67  5.5836359E-01
   7152.00  5.5208035E-01
   7152.33  5.4395718E-01
   7152.67  5.3423643E-01
   7153.00  5.2302221E-01
   7153.33  5.1034710E-01
   7153.67  4.9662587E-01
   7154.00  4.8210607E-01
   7154.33  4.6703380E-01
   7154.67  4.5177836E-01
   7155.00  4.3658722E-01
   7155.33  4.2174665E-01
   7155.67  4.0740594E-01
   7156.00  3.9367518E-01
   7156.33  3.8070956E-01
   7156.67  3.6844162E-01
   7157.00  3.5685498E-01
   7157.33  3.4598707E-01
   7157.67  3.3570602E-01
   7158.00  3.2597149E-01
   7158.33  3.1681564E-01
   7158.67  3.0816385E-01
   7159.00  3.0002812E-01
   7159.33  2.9251778E-01
   7159.67  2.8562928E-01
   7160.00  2.7943554E-01
   7160.33  2.7412902E-01
   7160.67  2.6970375E-01
   7161.00  2.6622988E-01
   7161.33  2.6389358E-01
   7161.67  2.6259324E-01
   7162.00  2.6232258E-01
   7162.33  2.6316978E-01
   7162.67  2.6494395E-01
   7163.00  2.6757221E-01
   7163.33  2.7105107E-01
   7163.67  2.7517803E-01
   7164.00  2.7985124E-01
   7164.33  2.8499651E-01
   7164.67  2.9043209E-01
   7165.00  2.9605005E-01
   7165.33  3.0174436E-01
   7165.67  3.0741175E-01
   7166.00  3.1299138E-01
   7166.33  3.1842144E-01
   7166.67  3.2369894E-01
   7167.00  3.2882515E-01
   7167.33  3.3379923E-01
   7167.67  3.3866067E-01
   7168.00  3.4342987E-01
   7168.33  3.4811973E-01
   7168.67  3.5275498E-01
   7169.00  3.5734281E-01
   7169.33  3.6187794E-01
   7169.67  3.6635852E-01
   7170.00  3.7077128E-01
   7170.33  3.7508088E-01
   7170.67  3.7926253E-01
   7171.00  3.8326978E-01
   7171.33  3.8698269E-01
   7171.67  3.9027935E-01
   7172.00  3.9296148E-01
