    FDMNES
    energy     <xanes>
   7097.00  4.3587949E-03
   7097.33  4.4413876E-03
   7097.67  4.5269324E-03
   7098.00  4.6155936E-03
   7098.33  4.7079960E-03
   7098.67  4.8039540E-03
   7099.00  4.9036840E-03
   7099.33  5.0079702E-03
   7099.67  5.1166153E-03
   7100.00  5.2299129E-03
   7100.33  5.3488728E-03
   7100.67  5.4732946E-03
   7101.00  5.6035901E-03
   7101.33  5.7411024E-03
   7101.67  5.8856482E-03
   7102.00  6.0378304E-03
   7102.33  6.1995096E-03
   7102.67  6.3705676E-03
   7103.00  6.5519347E-03
   7103.33  6.7463256E-03
   7103.67  6.9538026E-03
   7104.00  7.1758989E-03
   7104.33  7.4168531E-03
   7104.67  7.6771978E-03
   7105.00  7.9596828E-03
   7105.33  8.2715454E-03
   7105.67  8.6145847E-03
   7106.00  8.9943103E-03
   7106.33  9.4246701E-03
   7106.67  9.9112149E-03
   7107.00  1.0466778E-02
   7107.33  1.1123199E-02
   7107.67  1.1899142E-02
   7108.00  1.2831692E-02
   7108.33  1.4014068E-02
   7108.67  1.5524825E-02
   7109.00  1.7512958E-02
   7109.33  2.0381419E-02
   7109.67  2.4625143E-02
   7110.00  3.1228111E-02
   7110.33  4.3028856E-02
   7110.67  6.2460084E-02
   7111.00  8.6717499E-02
   7111.33  9.9802225E-02
   7111.67  9.7725568E-02
   7112.00  8.6821784E-02
   7112.33  7.9543192E-02
   7112.67  8.0900177E-02
   7113.00  8.7551160E-02
   7113.33  9.2107595E-02
   7113.67  9.5624571E-02
   7114.00  8.8722238E-02
   7114.33  7.0177031E-02
   7114.67  5.5855451E-02
   7115.00  4.8108325E-02
   7115.33  4.5387068E-02
   7115.67  4.5361818E-02
   7116.00  4.7039739E-02
   7116.33  4.9586702E-02
   7116.67  5.2342082E-02
   7117.00  5.5431680E-02
   7117.33  5.9670560E-02
   7117.67  6.5621972E-02
   7118.00  7.3681423E-02
   7118.33  8.4126819E-02
   7118.67  9.5681517E-02
   7119.00  1.0745241E-01
   7119.33  1.2143394E-01
   7119.67  1.4004806E-01
   7120.00  1.6323888E-01
   7120.33  1.8904248E-01
   7120.67  2.1495178E-01
   7121.00  2.4005898E-01
   7121.33  2.6445982E-01
   7121.67  2.8944866E-01
   7122.00  3.1584972E-01
   7122.33  3.4348176E-01
   7122.67  3.7126032E-01
   7123.00  3.9834356E-01
   7123.33  4.2317493E-01
   7123.67  4.4510639E-01
   7124.00  4.6514865E-01
   7124.33  4.8673751E-01
   7124.67  5.1218852E-01
   7125.00  5.4024263E-01
   7125.33  5.6429849E-01
   7125.67  5.7842482E-01
   7126.00  5.8241465E-01
   7126.33  5.8118693E-01
   7126.67  5.8026028E-01
   7127.00  5.8055697E-01
   7127.33  5.8163626E-01
   7127.67  5.8413219E-01
   7128.00  5.9011443E-01
   7128.33  6.0385035E-01
   7128.67  6.2737060E-01
   7129.00  6.6106513E-01
   7129.33  7.0347301E-01
   7129.67  7.4916011E-01
   7130.00  7.9320108E-01
   7130.33  8.2860524E-01
   7130.67  8.5232527E-01
   7131.00  8.6411278E-01
   7131.33  8.6531857E-01
   7131.67  8.6003834E-01
   7132.00  8.5026981E-01
   7132.33  8.3712881E-01
   7132.67  8.2039732E-01
   7133.00  7.9800366E-01
   7133.33  7.6767711E-01
   7133.67  7.3309725E-01
   7134.00  6.9961927E-01
   7134.33  6.7349936E-01
   7134.67  6.5566927E-01
   7135.00  6.4527685E-01
   7135.33  6.4107154E-01
   7135.67  6.4041350E-01
   7136.00  6.4185616E-01
   7136.33  6.4413155E-01
   7136.67  6.4618171E-01
   7137.00  6.4747233E-01
   7137.33  6.4745287E-01
   7137.67  6.4598344E-01
   7138.00  6.4290646E-01
   7138.33  6.3800677E-01
   7138.67  6.3169971E-01
   7139.00  6.2429656E-01
   7139.33  6.1605808E-01
   7139.67  6.0729524E-01
   7140.00  5.9807144E-01
   7140.33  5.8834571E-01
   7140.67  5.7824839E-01
   7141.00  5.6795156E-01
   7141.33  5.5778182E-01
   7141.67  5.4807523E-01
   7142.00  5.3908052E-01
   7142.33  5.3105490E-01
   7142.67  5.2385517E-01
   7143.00  5.1732535E-01
   7143.33  5.1128431E-01
   7143.67  5.0550496E-01
   7144.00  4.9994696E-01
   7144.33  4.9470894E-01
   7144.67  4.8986613E-01
   7145.00  4.8548946E-01
   7145.33  4.8162856E-01
   7145.67  4.7809685E-01
   7146.00  4.7471087E-01
   7146.33  4.7123503E-01
   7146.67  4.6751469E-01
   7147.00  4.6348893E-01
   7147.33  4.5912430E-01
   7147.67  4.5449134E-01
   7148.00  4.4959801E-01
   7148.33  4.4435915E-01
   7148.67  4.3870707E-01
   7149.00  4.3253027E-01
   7149.33  4.2565085E-01
   7149.67  4.1812374E-01
   7150.00  4.0999873E-01
   7150.33  4.0134491E-01
   7150.67  3.9239946E-01
   7151.00  3.8333979E-01
   7151.33  3.7438836E-01
   7151.67  3.6572686E-01
   7152.00  3.5750329E-01
   7152.33  3.4992610E-01
   7152.67  3.4301908E-01
   7153.00  3.3682860E-01
   7153.33  3.3146258E-01
   7153.67  3.2681709E-01
   7154.00  3.2286799E-01
   7154.33  3.1966302E-01
   7154.67  3.1708330E-01
   7155.00  3.1509900E-01
   7155.33  3.1374624E-01
   7155.67  3.1291995E-01
   7156.00  3.1258757E-01
   7156.33  3.1276100E-01
   7156.67  3.1332917E-01
   7157.00  3.1423374E-01
   7157.33  3.1542372E-01
   7157.67  3.1677635E-01
   7158.00  3.1822583E-01
   7158.33  3.1975168E-01
   7158.67  3.2139896E-01
   7159.00  3.2329540E-01
   7159.33  3.2571749E-01
   7159.67  3.2883338E-01
   7160.00  3.3279438E-01
   7160.33  3.3781075E-01
   7160.67  3.4377520E-01
   7161.00  3.5064688E-01
   7161.33  3.5844595E-01
   7161.67  3.6696788E-01
   7162.00  3.7610180E-01
   7162.33  3.8573578E-01
   7162.67  3.9561413E-01
   7163.00  4.0554958E-01
   7163.33  4.1530100E-01
   7163.67  4.2468538E-01
   7164.00  4.3355750E-01
   7164.33  4.4171699E-01
   7164.67  4.4917747E-01
   7165.00  4.5592381E-01
   7165.33  4.6189205E-01
   7165.67  4.6722349E-01
   7166.00  4.7198297E-01
   7166.33  4.7619989E-01
   7166.67  4.8003326E-01
   7167.00  4.8357057E-01
   7167.33  4.8688833E-01
   7167.67  4.9010595E-01
   7168.00  4.9329726E-01
   7168.33  4.9654309E-01
   7168.67  4.9989689E-01
   7169.00  5.0339598E-01
   7169.33  5.0708892E-01
   7169.67  5.1096198E-01
   7170.00  5.1500493E-01
   7170.33  5.1920046E-01
   7170.67  5.2346815E-01
   7171.00  5.2772364E-01
   7171.33  5.3179903E-01
   7171.67  5.3548481E-01
   7172.00  5.3851536E-01
