    FDMNES
    energy     <xanes>
   7097.00  5.4082647E-03
   7097.33  5.5387484E-03
   7097.67  5.6752633E-03
   7098.00  5.8182216E-03
   7098.33  5.9690262E-03
   7098.67  6.1273969E-03
   7099.00  6.2938961E-03
   7099.33  6.4703610E-03
   7099.67  6.6565053E-03
   7100.00  6.8531162E-03
   7100.33  7.0626627E-03
   7100.67  7.2848802E-03
   7101.00  7.5209055E-03
   7101.33  7.7741593E-03
   7101.67  8.0444623E-03
   7102.00  8.3335173E-03
   7102.33  8.6462424E-03
   7102.67  8.9826841E-03
   7103.00  9.3455103E-03
   7103.33  9.7421213E-03
   7103.67  1.0173113E-02
   7104.00  1.0642904E-02
   7104.33  1.1163291E-02
   7104.67  1.1736202E-02
   7105.00  1.2369504E-02
   7105.33  1.3083466E-02
   7105.67  1.3883418E-02
   7106.00  1.4784778E-02
   7106.33  1.5826131E-02
   7106.67  1.7022439E-02
   7107.00  1.8408256E-02
   7107.33  2.0068779E-02
   7107.67  2.2051203E-02
   7108.00  2.4450342E-02
   7108.33  2.7503106E-02
   7108.67  3.1398613E-02
   7109.00  3.6497844E-02
   7109.33  4.3771038E-02
   7109.67  5.4375123E-02
   7110.00  7.0607620E-02
   7110.33  9.8936224E-02
   7110.67  1.4339443E-01
   7111.00  1.9226152E-01
   7111.33  2.1597267E-01
   7111.67  2.3140210E-01
   7112.00  2.5023042E-01
   7112.33  2.8629048E-01
   7112.67  3.2963571E-01
   7113.00  3.6703901E-01
   7113.33  3.9955673E-01
   7113.67  4.3649967E-01
   7114.00  4.7164190E-01
   7114.33  4.8006654E-01
   7114.67  4.5632168E-01
   7115.00  4.1625405E-01
   7115.33  3.7114491E-01
   7115.67  3.3021179E-01
   7116.00  3.0043512E-01
   7116.33  2.8474230E-01
   7116.67  2.7443791E-01
   7117.00  2.5886732E-01
   7117.33  2.3117762E-01
   7117.67  2.0093908E-01
   7118.00  1.7589461E-01
   7118.33  1.5932193E-01
   7118.67  1.4883280E-01
   7119.00  1.4266403E-01
   7119.33  1.3955615E-01
   7119.67  1.3819085E-01
   7120.00  1.3799106E-01
   7120.33  1.3840292E-01
   7120.67  1.3884018E-01
   7121.00  1.3930019E-01
   7121.33  1.4066459E-01
   7121.67  1.4375810E-01
   7122.00  1.4859598E-01
   7122.33  1.5436093E-01
   7122.67  1.6021029E-01
   7123.00  1.6615872E-01
   7123.33  1.7296941E-01
   7123.67  1.8175261E-01
   7124.00  1.9362378E-01
   7124.33  2.0976053E-01
   7124.67  2.2946029E-01
   7125.00  2.5219576E-01
   7125.33  2.7808105E-01
   7125.67  3.0709325E-01
   7126.00  3.3957688E-01
   7126.33  3.7578131E-01
   7126.67  4.1404998E-01
   7127.00  4.5240256E-01
   7127.33  4.8782141E-01
   7127.67  5.1875827E-01
   7128.00  5.4477991E-01
   7128.33  5.6589532E-01
   7128.67  5.8372667E-01
   7129.00  5.9924986E-01
   7129.33  6.1347918E-01
   7129.67  6.2771377E-01
   7130.00  6.4286623E-01
   7130.33  6.6011390E-01
   7130.67  6.7993888E-01
   7131.00  7.0267176E-01
   7131.33  7.2851470E-01
   7131.67  7.5633014E-01
   7132.00  7.8493002E-01
   7132.33  8.1233128E-01
   7132.67  8.3663026E-01
   7133.00  8.5625522E-01
   7133.33  8.6917377E-01
   7133.67  8.7559061E-01
   7134.00  8.7560399E-01
   7134.33  8.6905957E-01
   7134.67  8.5752135E-01
   7135.00  8.4178143E-01
   7135.33  8.2230706E-01
   7135.67  8.0023663E-01
   7136.00  7.7602688E-01
   7136.33  7.4988269E-01
   7136.67  7.2251630E-01
   7137.00  6.9457596E-01
   7137.33  6.6718822E-01
   7137.67  6.4153836E-01
   7138.00  6.1862485E-01
   7138.33  5.9972692E-01
   7138.67  5.8475035E-01
   7139.00  5.7362657E-01
   7139.33  5.6640116E-01
   7139.67  5.6208409E-01
   7140.00  5.6016484E-01
   7140.33  5.6035080E-01
   7140.67  5.6201662E-01
   7141.00  5.6491899E-01
   7141.33  5.6894164E-01
   7141.67  5.7368648E-01
   7142.00  5.7883988E-01
   7142.33  5.8391260E-01
   7142.67  5.8835408E-01
   7143.00  5.9170520E-01
   7143.33  5.9339408E-01
   7143.67  5.9345752E-01
   7144.00  5.9195715E-01
   7144.33  5.8893850E-01
   7144.67  5.8483528E-01
   7145.00  5.7985433E-01
   7145.33  5.7409931E-01
   7145.67  5.6780077E-01
   7146.00  5.6106701E-01
   7146.33  5.5398679E-01
   7146.67  5.4673494E-01
   7147.00  5.3943730E-01
   7147.33  5.3226080E-01
   7147.67  5.2534653E-01
   7148.00  5.1882170E-01
   7148.33  5.1288587E-01
   7148.67  5.0758638E-01
   7149.00  5.0299981E-01
   7149.33  4.9928736E-01
   7149.67  4.9638988E-01
   7150.00  4.9432129E-01
   7150.33  4.9318234E-01
   7150.67  4.9285145E-01
   7151.00  4.9330377E-01
   7151.33  4.9459538E-01
   7151.67  4.9658141E-01
   7152.00  4.9920389E-01
   7152.33  5.0246529E-01
   7152.67  5.0622001E-01
   7153.00  5.1039279E-01
   7153.33  5.1492626E-01
   7153.67  5.1967692E-01
   7154.00  5.2455473E-01
   7154.33  5.2946135E-01
   7154.67  5.3430045E-01
   7155.00  5.3900244E-01
   7155.33  5.4347598E-01
   7155.67  5.4769773E-01
   7156.00  5.5163893E-01
   7156.33  5.5524128E-01
   7156.67  5.5853135E-01
   7157.00  5.6150349E-01
   7157.33  5.6411127E-01
   7157.67  5.6638602E-01
   7158.00  5.6831526E-01
   7158.33  5.6983300E-01
   7158.67  5.7096008E-01
   7159.00  5.7167354E-01
   7159.33  5.7189317E-01
   7159.67  5.7165310E-01
   7160.00  5.7094145E-01
   7160.33  5.6969399E-01
   7160.67  5.6797859E-01
   7161.00  5.6581345E-01
   7161.33  5.6317558E-01
   7161.67  5.6015462E-01
   7162.00  5.5678556E-01
   7162.33  5.5307513E-01
   7162.67  5.4911006E-01
   7163.00  5.4493392E-01
   7163.33  5.4057865E-01
   7163.67  5.3611605E-01
   7164.00  5.3158896E-01
   7164.33  5.2704165E-01
   7164.67  5.2252107E-01
   7165.00  5.1806435E-01
   7165.33  5.1372344E-01
   7165.67  5.0951992E-01
   7166.00  5.0547918E-01
   7166.33  5.0164677E-01
   7166.67  4.9801384E-01
   7167.00  4.9458736E-01
   7167.33  4.9139547E-01
   7167.67  4.8840707E-01
   7168.00  4.8561236E-01
   7168.33  4.8301725E-01
   7168.67  4.8058012E-01
   7169.00  4.7828300E-01
   7169.33  4.7611833E-01
   7169.67  4.7404576E-01
   7170.00  4.7204380E-01
   7170.33  4.7010338E-01
   7170.67  4.6821377E-01
   7171.00  4.6638347E-01
   7171.33  4.6465574E-01
   7171.67  4.6309183E-01
   7172.00  4.6179375E-01
