    FDMNES
    energy     <xanes>
   7097.00  4.3555384E-03
   7097.33  4.4376053E-03
   7097.67  4.5226047E-03
   7098.00  4.6107002E-03
   7098.33  4.7025137E-03
   7098.67  4.7978619E-03
   7099.00  4.8969610E-03
   7099.33  5.0005924E-03
   7099.67  5.1085614E-03
   7100.00  5.2211616E-03
   7100.33  5.3394005E-03
   7100.67  5.4630807E-03
   7101.00  5.5926146E-03
   7101.33  5.7293437E-03
   7101.67  5.8730883E-03
   7102.00  6.0244523E-03
   7102.33  6.1852958E-03
   7102.67  6.3555042E-03
   7103.00  6.5360092E-03
   7103.33  6.7295254E-03
   7103.67  6.9361171E-03
   7104.00  7.1573169E-03
   7104.33  7.3973585E-03
   7104.67  7.6567684E-03
   7105.00  7.9382839E-03
   7105.33  8.2491082E-03
   7105.67  8.5910009E-03
   7106.00  8.9694044E-03
   7106.33  9.3980979E-03
   7106.67  9.8824470E-03
   7107.00  1.0434970E-02
   7107.33  1.1086706E-02
   7107.67  1.1855416E-02
   7108.00  1.2776595E-02
   7108.33  1.3939244E-02
   7108.67  1.5416617E-02
   7109.00  1.7347820E-02
   7109.33  2.0107303E-02
   7109.67  2.4146871E-02
   7110.00  3.0362246E-02
   7110.33  4.1307980E-02
   7110.67  5.8950787E-02
   7111.00  7.9944980E-02
   7111.33  9.0776415E-02
   7111.67  9.7105241E-02
   7112.00  1.1030358E-01
   7112.33  1.2730357E-01
   7112.67  1.2507037E-01
   7113.00  1.0133686E-01
   7113.33  7.7347886E-02
   7113.67  6.2065324E-02
   7114.00  5.2920650E-02
   7114.33  4.6360874E-02
   7114.67  4.1873238E-02
   7115.00  3.9669624E-02
   7115.33  3.9624731E-02
   7115.67  4.1235068E-02
   7116.00  4.4499023E-02
   7116.33  4.9823580E-02
   7116.67  5.7137218E-02
   7117.00  6.6283640E-02
   7117.33  7.6720345E-02
   7117.67  8.7702203E-02
   7118.00  9.9487907E-02
   7118.33  1.1315071E-01
   7118.67  1.2865614E-01
   7119.00  1.4500351E-01
   7119.33  1.5963870E-01
   7119.67  1.6994200E-01
   7120.00  1.7493518E-01
   7120.33  1.7675366E-01
   7120.67  1.8020276E-01
   7121.00  1.8813797E-01
   7121.33  2.0276979E-01
   7121.67  2.2343181E-01
   7122.00  2.4939555E-01
   7122.33  2.7970758E-01
   7122.67  3.1171105E-01
   7123.00  3.4272710E-01
   7123.33  3.6903860E-01
   7123.67  3.8891626E-01
   7124.00  4.0227347E-01
   7124.33  4.1087027E-01
   7124.67  4.1800370E-01
   7125.00  4.2746088E-01
   7125.33  4.4627525E-01
   7125.67  4.7585172E-01
   7126.00  5.1401463E-01
   7126.33  5.5690728E-01
   7126.67  6.0020884E-01
   7127.00  6.4151065E-01
   7127.33  6.7833130E-01
   7127.67  7.0977302E-01
   7128.00  7.3571028E-01
   7128.33  7.5660006E-01
   7128.67  7.7315619E-01
   7129.00  7.8342983E-01
   7129.33  7.8284703E-01
   7129.67  7.7305057E-01
   7130.00  7.5884273E-01
   7130.33  7.4623698E-01
   7130.67  7.3721416E-01
   7131.00  7.3137151E-01
   7131.33  7.2737492E-01
   7131.67  7.2289650E-01
   7132.00  7.1640484E-01
   7132.33  7.0716167E-01
   7132.67  6.9648062E-01
   7133.00  6.8565332E-01
   7133.33  6.7643769E-01
   7133.67  6.7076436E-01
   7134.00  6.7038809E-01
   7134.33  6.7587797E-01
   7134.67  6.8370454E-01
   7135.00  6.9066328E-01
   7135.33  6.9399717E-01
   7135.67  6.9387992E-01
   7136.00  6.9119519E-01
   7136.33  6.8714472E-01
   7136.67  6.8308316E-01
   7137.00  6.7980355E-01
   7137.33  6.7813640E-01
   7137.67  6.7827857E-01
   7138.00  6.8033175E-01
   7138.33  6.8436552E-01
   7138.67  6.8971754E-01
   7139.00  6.9579211E-01
   7139.33  7.0167897E-01
   7139.67  7.0639600E-01
   7140.00  7.0909470E-01
   7140.33  7.0860394E-01
   7140.67  7.0479852E-01
   7141.00  6.9761270E-01
   7141.33  6.8698981E-01
   7141.67  6.7396752E-01
   7142.00  6.5924177E-01
   7142.33  6.4348452E-01
   7142.67  6.2742860E-01
   7143.00  6.1144032E-01
   7143.33  5.9581636E-01
   7143.67  5.8062087E-01
   7144.00  5.6585754E-01
   7144.33  5.5153158E-01
   7144.67  5.3756138E-01
   7145.00  5.2396775E-01
   7145.33  5.1091344E-01
   7145.67  4.9851729E-01
   7146.00  4.8696484E-01
   7146.33  4.7659390E-01
   7146.67  4.6743180E-01
   7147.00  4.5955628E-01
   7147.33  4.5313905E-01
   7147.67  4.4794467E-01
   7148.00  4.4385224E-01
   7148.33  4.4078146E-01
   7148.67  4.3838158E-01
   7149.00  4.3642273E-01
   7149.33  4.3464960E-01
   7149.67  4.3278143E-01
   7150.00  4.3063574E-01
   7150.33  4.2803638E-01
   7150.67  4.2501258E-01
   7151.00  4.2159489E-01
   7151.33  4.1776957E-01
   7151.67  4.1357513E-01
   7152.00  4.0896912E-01
   7152.33  4.0381511E-01
   7152.67  3.9810268E-01
   7153.00  3.9180012E-01
   7153.33  3.8485638E-01
   7153.67  3.7743460E-01
   7154.00  3.6966670E-01
   7154.33  3.6172927E-01
   7154.67  3.5385605E-01
   7155.00  3.4622603E-01
   7155.33  3.3906933E-01
   7155.67  3.3246231E-01
   7156.00  3.2647305E-01
   7156.33  3.2121479E-01
   7156.67  3.1659385E-01
   7157.00  3.1257093E-01
   7157.33  3.0914493E-01
   7157.67  3.0617134E-01
   7158.00  3.0358266E-01
   7158.33  3.0134768E-01
   7158.67  2.9937327E-01
   7159.00  2.9763156E-01
   7159.33  2.9614077E-01
   7159.67  2.9489300E-01
   7160.00  2.9393580E-01
   7160.33  2.9340434E-01
   7160.67  2.9336591E-01
   7161.00  2.9393247E-01
   7161.33  2.9532803E-01
   7161.67  2.9757725E-01
   7162.00  3.0075782E-01
   7162.33  3.0504811E-01
   7162.67  3.1033550E-01
   7163.00  3.1659207E-01
   7163.33  3.2385793E-01
   7163.67  3.3191347E-01
   7164.00  3.4064594E-01
   7164.33  3.4997881E-01
   7164.67  3.5970180E-01
   7165.00  3.6970062E-01
   7165.33  3.7988150E-01
   7165.67  3.9013458E-01
   7166.00  4.0040247E-01
   7166.33  4.1063494E-01
   7166.67  4.2080542E-01
   7167.00  4.3089424E-01
   7167.33  4.4086802E-01
   7167.67  4.5071706E-01
   7168.00  4.6041793E-01
   7168.33  4.6991485E-01
   7168.67  4.7918922E-01
   7169.00  4.8819700E-01
   7169.33  4.9683956E-01
   7169.67  5.0509576E-01
   7170.00  5.1290992E-01
   7170.33  5.2015052E-01
   7170.67  5.2680982E-01
   7171.00  5.3282218E-01
   7171.33  5.3801009E-01
   7171.67  5.4235914E-01
   7172.00  5.4576998E-01
