    FDMNES
    energy     <xanes>
   7097.00  5.1412062E-03
   7097.33  5.2642933E-03
   7097.67  5.3929780E-03
   7098.00  5.5276340E-03
   7098.33  5.6695471E-03
   7098.67  5.8184435E-03
   7099.00  5.9748276E-03
   7099.33  6.1403693E-03
   7099.67  6.3147816E-03
   7100.00  6.4987620E-03
   7100.33  6.6945301E-03
   7100.67  6.9018049E-03
   7101.00  7.1215781E-03
   7101.33  7.3568818E-03
   7101.67  7.6074845E-03
   7102.00  7.8748427E-03
   7102.33  8.1632352E-03
   7102.67  8.4725762E-03
   7103.00  8.8050889E-03
   7103.33  9.1670543E-03
   7103.67  9.5587448E-03
   7104.00  9.9837200E-03
   7104.33  1.0451656E-02
   7104.67  1.0963679E-02
   7105.00  1.1525835E-02
   7105.33  1.2153978E-02
   7105.67  1.2851307E-02
   7106.00  1.3628913E-02
   7106.33  1.4514967E-02
   7106.67  1.5518076E-02
   7107.00  1.6660831E-02
   7107.33  1.7999269E-02
   7107.67  1.9557994E-02
   7108.00  2.1390608E-02
   7108.33  2.3629318E-02
   7108.67  2.6357175E-02
   7109.00  2.9736895E-02
   7109.33  3.4184586E-02
   7109.67  4.0091072E-02
   7110.00  4.8215603E-02
   7110.33  6.0673138E-02
   7110.67  7.9727679E-02
   7111.00  1.0726521E-01
   7111.33  1.4270324E-01
   7111.67  1.8194881E-01
   7112.00  2.2211442E-01
   7112.33  2.6442981E-01
   7112.67  3.2055418E-01
   7113.00  4.0188120E-01
   7113.33  5.0868848E-01
   7113.67  5.9653203E-01
   7114.00  6.2399188E-01
   7114.33  5.8336588E-01
   7114.67  5.0307384E-01
   7115.00  4.1043785E-01
   7115.33  3.3540049E-01
   7115.67  2.8269309E-01
   7116.00  2.4918922E-01
   7116.33  2.3215489E-01
   7116.67  2.2554326E-01
   7117.00  2.2453659E-01
   7117.33  2.2229515E-01
   7117.67  2.1485843E-01
   7118.00  2.0249397E-01
   7118.33  1.8800790E-01
   7118.67  1.7433273E-01
   7119.00  1.6239670E-01
   7119.33  1.5264267E-01
   7119.67  1.4471807E-01
   7120.00  1.3840839E-01
   7120.33  1.3358177E-01
   7120.67  1.2990532E-01
   7121.00  1.2743409E-01
   7121.33  1.2650896E-01
   7121.67  1.2703844E-01
   7122.00  1.2893660E-01
   7122.33  1.3199298E-01
   7122.67  1.3569232E-01
   7123.00  1.3986835E-01
   7123.33  1.4462148E-01
   7123.67  1.5008105E-01
   7124.00  1.5645408E-01
   7124.33  1.6409904E-01
   7124.67  1.7307022E-01
   7125.00  1.8359092E-01
   7125.33  1.9625756E-01
   7125.67  2.1114071E-01
   7126.00  2.2831150E-01
   7126.33  2.4782066E-01
   7126.67  2.6893326E-01
   7127.00  2.9118724E-01
   7127.33  3.1451380E-01
   7127.67  3.3914723E-01
   7128.00  3.6546034E-01
   7128.33  3.9357864E-01
   7128.67  4.2283642E-01
   7129.00  4.5314154E-01
   7129.33  4.8563997E-01
   7129.67  5.2181608E-01
   7130.00  5.6294573E-01
   7130.33  6.0995492E-01
   7130.67  6.6109980E-01
   7131.00  7.1489074E-01
   7131.33  7.6967581E-01
   7131.67  8.2371804E-01
   7132.00  8.7570979E-01
   7132.33  9.2364639E-01
   7132.67  9.6610342E-01
   7133.00  1.0010795E+00
   7133.33  1.0247082E+00
   7133.67  1.0358026E+00
   7134.00  1.0328809E+00
   7134.33  1.0137813E+00
   7134.67  9.8165744E-01
   7135.00  9.3881234E-01
   7135.33  8.8780977E-01
   7135.67  8.3317680E-01
   7136.00  7.7756360E-01
   7136.33  7.2337268E-01
   7136.67  6.7193368E-01
   7137.00  6.2414556E-01
   7137.33  5.8136689E-01
   7137.67  5.4367010E-01
   7138.00  5.1146781E-01
   7138.33  4.8576815E-01
   7138.67  4.6584650E-01
   7139.00  4.5141142E-01
   7139.33  4.4236640E-01
   7139.67  4.3713840E-01
   7140.00  4.3483848E-01
   7140.33  4.3485061E-01
   7140.67  4.3635692E-01
   7141.00  4.3913044E-01
   7141.33  4.4325399E-01
   7141.67  4.4859117E-01
   7142.00  4.5513653E-01
   7142.33  4.6295436E-01
   7142.67  4.7173664E-01
   7143.00  4.8127624E-01
   7143.33  4.9133748E-01
   7143.67  5.0154013E-01
   7144.00  5.1160720E-01
   7144.33  5.2118646E-01
   7144.67  5.3008105E-01
   7145.00  5.3812442E-01
   7145.33  5.4506520E-01
   7145.67  5.5096862E-01
   7146.00  5.5583934E-01
   7146.33  5.5961583E-01
   7146.67  5.6252559E-01
   7147.00  5.6468439E-01
   7147.33  5.6616426E-01
   7147.67  5.6718271E-01
   7148.00  5.6785057E-01
   7148.33  5.6825434E-01
   7148.67  5.6852247E-01
   7149.00  5.6872574E-01
   7149.33  5.6893343E-01
   7149.67  5.6920464E-01
   7150.00  5.6958202E-01
   7150.33  5.7012332E-01
   7150.67  5.7084601E-01
   7151.00  5.7178244E-01
   7151.33  5.7300294E-01
   7151.67  5.7451307E-01
   7152.00  5.7634090E-01
   7152.33  5.7855413E-01
   7152.67  5.8112156E-01
   7153.00  5.8403876E-01
   7153.33  5.8731994E-01
   7153.67  5.9087167E-01
   7154.00  5.9462597E-01
   7154.33  5.9849219E-01
   7154.67  6.0233556E-01
   7155.00  6.0604351E-01
   7155.33  6.0945360E-01
   7155.67  6.1248303E-01
   7156.00  6.1505301E-01
   7156.33  6.1703837E-01
   7156.67  6.1847845E-01
   7157.00  6.1937578E-01
   7157.33  6.1969004E-01
   7157.67  6.1952521E-01
   7158.00  6.1892020E-01
   7158.33  6.1787084E-01
   7158.67  6.1646677E-01
   7159.00  6.1473610E-01
   7159.33  6.1266532E-01
   7159.67  6.1030818E-01
   7160.00  6.0767224E-01
   7160.33  6.0472502E-01
   7160.67  6.0149997E-01
   7161.00  5.9799479E-01
   7161.33  5.9417259E-01
   7161.67  5.9007058E-01
   7162.00  5.8569075E-01
   7162.33  5.8100372E-01
   7162.67  5.7605602E-01
   7163.00  5.7086373E-01
   7163.33  5.6542106E-01
   7163.67  5.5978022E-01
   7164.00  5.5396312E-01
   7164.33  5.4797662E-01
   7164.67  5.4186424E-01
   7165.00  5.3564515E-01
   7165.33  5.2932903E-01
   7165.67  5.2294590E-01
   7166.00  5.1651201E-01
   7166.33  5.1004327E-01
   7166.67  5.0356440E-01
   7167.00  4.9709385E-01
   7167.33  4.9065763E-01
   7167.67  4.8427543E-01
   7168.00  4.7796866E-01
   7168.33  4.7177783E-01
   7168.67  4.6572073E-01
   7169.00  4.5982233E-01
   7169.33  4.5413212E-01
   7169.67  4.4865325E-01
   7170.00  4.4340983E-01
   7170.33  4.3846524E-01
   7170.67  4.3382138E-01
   7171.00  4.2951642E-01
   7171.33  4.2566598E-01
   7171.67  4.2233071E-01
   7172.00  4.1964902E-01
