    FDMNES
    energy     <xanes>
   7097.00  4.5211007E-03
   7097.33  4.6169331E-03
   7097.67  4.7168389E-03
   7098.00  4.8210911E-03
   7098.33  4.9306295E-03
   7098.67  5.0452605E-03
   7099.00  5.1653596E-03
   7099.33  5.2921606E-03
   7099.67  5.4254716E-03
   7100.00  5.5658248E-03
   7100.33  5.7148893E-03
   7100.67  5.8724993E-03
   7101.00  6.0394368E-03
   7101.33  6.2180419E-03
   7101.67  6.4082295E-03
   7102.00  6.6111983E-03
   7102.33  6.8303738E-03
   7102.67  7.0658752E-03
   7103.00  7.3196354E-03
   7103.33  7.5969421E-03
   7103.67  7.8984051E-03
   7104.00  8.2273439E-03
   7104.33  8.5924780E-03
   7104.67  8.9956176E-03
   7105.00  9.4429308E-03
   7105.33  9.9500652E-03
   7105.67  1.0521954E-02
   7106.00  1.1171293E-02
   7106.33  1.1929480E-02
   7106.67  1.2810484E-02
   7107.00  1.3844336E-02
   7107.33  1.5104550E-02
   7107.67  1.6635978E-02
   7108.00  1.8525342E-02
   7108.33  2.0988801E-02
   7108.67  2.4208154E-02
   7109.00  2.8524418E-02
   7109.33  3.4850762E-02
   7109.67  4.4284148E-02
   7110.00  5.8988596E-02
   7110.33  8.5198654E-02
   7110.67  1.2875565E-01
   7111.00  1.8650844E-01
   7111.33  2.3070206E-01
   7111.67  2.4970685E-01
   7112.00  2.4859134E-01
   7112.33  2.4279979E-01
   7112.67  2.2802769E-01
   7113.00  1.9563603E-01
   7113.33  1.5632557E-01
   7113.67  1.2241438E-01
   7114.00  9.5777583E-02
   7114.33  7.8406366E-02
   7114.67  6.7797306E-02
   7115.00  6.1773558E-02
   7115.33  5.8515512E-02
   7115.67  5.6723611E-02
   7116.00  5.6408969E-02
   7116.33  5.7936480E-02
   7116.67  6.1249981E-02
   7117.00  6.6585262E-02
   7117.33  7.4676947E-02
   7117.67  8.5534534E-02
   7118.00  9.8717502E-02
   7118.33  1.1193679E-01
   7118.67  1.2172806E-01
   7119.00  1.2626441E-01
   7119.33  1.2514564E-01
   7119.67  1.2076778E-01
   7120.00  1.1502757E-01
   7120.33  1.0986575E-01
   7120.67  1.0633662E-01
   7121.00  1.0493799E-01
   7121.33  1.0655837E-01
   7121.67  1.1185670E-01
   7122.00  1.2216325E-01
   7122.33  1.3980850E-01
   7122.67  1.6337271E-01
   7123.00  1.8890685E-01
   7123.33  2.1105924E-01
   7123.67  2.3213045E-01
   7124.00  2.5642108E-01
   7124.33  2.8418398E-01
   7124.67  3.1005986E-01
   7125.00  3.2952212E-01
   7125.33  3.4029076E-01
   7125.67  3.4909074E-01
   7126.00  3.6345589E-01
   7126.33  3.8929474E-01
   7126.67  4.2303002E-01
   7127.00  4.5989208E-01
   7127.33  4.9598347E-01
   7127.67  5.3100022E-01
   7128.00  5.6607165E-01
   7128.33  6.0230319E-01
   7128.67  6.3901214E-01
   7129.00  6.7440668E-01
   7129.33  7.0524085E-01
   7129.67  7.3000612E-01
   7130.00  7.4833643E-01
   7130.33  7.6067738E-01
   7130.67  7.6974506E-01
   7131.00  7.7741439E-01
   7131.33  7.8542125E-01
   7131.67  7.9471940E-01
   7132.00  8.0593531E-01
   7132.33  8.2013202E-01
   7132.67  8.3697470E-01
   7133.00  8.5511637E-01
   7133.33  8.7138633E-01
   7133.67  8.8296788E-01
   7134.00  8.8842685E-01
   7134.33  8.8716560E-01
   7134.67  8.8146480E-01
   7135.00  8.7305062E-01
   7135.33  8.6371233E-01
   7135.67  8.5504716E-01
   7136.00  8.4793215E-01
   7136.33  8.4302666E-01
   7136.67  8.3955341E-01
   7137.00  8.3597079E-01
   7137.33  8.2851317E-01
   7137.67  8.1321412E-01
   7138.00  7.8706965E-01
   7138.33  7.4863612E-01
   7138.67  7.0325438E-01
   7139.00  6.5562523E-01
   7139.33  6.1034754E-01
   7139.67  5.6945482E-01
   7140.00  5.3367636E-01
   7140.33  5.0376204E-01
   7140.67  4.7878525E-01
   7141.00  4.5835677E-01
   7141.33  4.4236952E-01
   7141.67  4.2964605E-01
   7142.00  4.1961649E-01
   7142.33  4.1199564E-01
   7142.67  4.0614693E-01
   7143.00  4.0190799E-01
   7143.33  3.9941511E-01
   7143.67  3.9847499E-01
   7144.00  3.9906107E-01
   7144.33  4.0123906E-01
   7144.67  4.0466850E-01
   7145.00  4.0917300E-01
   7145.33  4.1459581E-01
   7145.67  4.2055697E-01
   7146.00  4.2685132E-01
   7146.33  4.3333008E-01
   7146.67  4.3989342E-01
   7147.00  4.4653608E-01
   7147.33  4.5334371E-01
   7147.67  4.6044022E-01
   7148.00  4.6797181E-01
   7148.33  4.7617861E-01
   7148.67  4.8512211E-01
   7149.00  4.9488235E-01
   7149.33  5.0560151E-01
   7149.67  5.1712662E-01
   7150.00  5.2932996E-01
   7150.33  5.4196759E-01
   7150.67  5.5448682E-01
   7151.00  5.6627788E-01
   7151.33  5.7634506E-01
   7151.67  5.8411567E-01
   7152.00  5.8911134E-01
   7152.33  5.9077047E-01
   7152.67  5.8966972E-01
   7153.00  5.8620860E-01
   7153.33  5.8073367E-01
   7153.67  5.7399863E-01
   7154.00  5.6634611E-01
   7154.33  5.5793308E-01
   7154.67  5.4893924E-01
   7155.00  5.3936509E-01
   7155.33  5.2908503E-01
   7155.67  5.1812750E-01
   7156.00  5.0648357E-01
   7156.33  4.9413722E-01
   7156.67  4.8132191E-01
   7157.00  4.6823962E-01
   7157.33  4.5517956E-01
   7157.67  4.4244486E-01
   7158.00  4.3028801E-01
   7158.33  4.1907683E-01
   7158.67  4.0892455E-01
   7159.00  3.9998356E-01
   7159.33  3.9256596E-01
   7159.67  3.8661577E-01
   7160.00  3.8221246E-01
   7160.33  3.7963265E-01
   7160.67  3.7871830E-01
   7161.00  3.7947412E-01
   7161.33  3.8207784E-01
   7161.67  3.8624654E-01
   7162.00  3.9185566E-01
   7162.33  3.9883735E-01
   7162.67  4.0673937E-01
   7163.00  4.1525022E-01
   7163.33  4.2399225E-01
   7163.67  4.3252674E-01
   7164.00  4.4052156E-01
   7164.33  4.4754208E-01
   7164.67  4.5346393E-01
   7165.00  4.5817725E-01
   7165.33  4.6151156E-01
   7165.67  4.6371548E-01
   7166.00  4.6494826E-01
   7166.33  4.6537346E-01
   7166.67  4.6537669E-01
   7167.00  4.6521988E-01
   7167.33  4.6520479E-01
   7167.67  4.6555411E-01
   7168.00  4.6641527E-01
   7168.33  4.6795259E-01
   7168.67  4.7008981E-01
   7169.00  4.7275768E-01
   7169.33  4.7585420E-01
   7169.67  4.7912920E-01
   7170.00  4.8238871E-01
   7170.33  4.8538256E-01
   7170.67  4.8795423E-01
   7171.00  4.8999294E-01
   7171.33  4.9137612E-01
   7171.67  4.9223641E-01
   7172.00  4.9272607E-01
