    FDMNES
    energy     <xanes>
   7097.00  4.9261563E-03
   7097.33  5.0447898E-03
   7097.67  5.1689394E-03
   7098.00  5.2989906E-03
   7098.33  5.4362418E-03
   7098.67  5.5804497E-03
   7099.00  5.7321458E-03
   7099.33  5.8930444E-03
   7099.67  6.0629045E-03
   7100.00  6.2424785E-03
   7100.33  6.4340945E-03
   7100.67  6.6375456E-03
   7101.00  6.8539327E-03
   7101.33  7.0865230E-03
   7101.67  7.3352140E-03
   7102.00  7.6016809E-03
   7102.33  7.8906924E-03
   7102.67  8.2024071E-03
   7103.00  8.5394956E-03
   7103.33  8.9092603E-03
   7103.67  9.3124785E-03
   7104.00  9.7536576E-03
   7104.33  1.0244668E-02
   7104.67  1.0787771E-02
   7105.00  1.1391139E-02
   7105.33  1.2075596E-02
   7105.67  1.2847153E-02
   7106.00  1.3722088E-02
   7106.33  1.4740786E-02
   7106.67  1.5919721E-02
   7107.00  1.7295678E-02
   7107.33  1.8958708E-02
   7107.67  2.0959273E-02
   7108.00  2.3397171E-02
   7108.33  2.6519333E-02
   7108.67  3.0517003E-02
   7109.00  3.5750290E-02
   7109.33  4.3165262E-02
   7109.67  5.3815988E-02
   7110.00  6.9761440E-02
   7110.33  9.6905186E-02
   7110.67  1.4157429E-01
   7111.00  2.0572584E-01
   7111.33  2.7104825E-01
   7111.67  3.2096162E-01
   7112.00  3.6872280E-01
   7112.33  4.2771699E-01
   7112.67  4.6072051E-01
   7113.00  4.3123713E-01
   7113.33  3.4312549E-01
   7113.67  2.5699192E-01
   7114.00  1.9438721E-01
   7114.33  1.6019184E-01
   7114.67  1.4747295E-01
   7115.00  1.5340662E-01
   7115.33  1.7125407E-01
   7115.67  1.7811962E-01
   7116.00  1.6107780E-01
   7116.33  1.3307953E-01
   7116.67  1.1113151E-01
   7117.00  9.7545582E-02
   7117.33  9.1131560E-02
   7117.67  8.8628411E-02
   7118.00  8.8300331E-02
   7118.33  8.9130572E-02
   7118.67  9.0817247E-02
   7119.00  9.3301173E-02
   7119.33  9.5987706E-02
   7119.67  9.8459277E-02
   7120.00  1.0128922E-01
   7120.33  1.0567210E-01
   7120.67  1.1204065E-01
   7121.00  1.2082348E-01
   7121.33  1.3311516E-01
   7121.67  1.4907870E-01
   7122.00  1.6863166E-01
   7122.33  1.9142466E-01
   7122.67  2.1688649E-01
   7123.00  2.4556703E-01
   7123.33  2.7764204E-01
   7123.67  3.1009811E-01
   7124.00  3.3968827E-01
   7124.33  3.6258156E-01
   7124.67  3.7777459E-01
   7125.00  3.8564891E-01
   7125.33  3.8850375E-01
   7125.67  3.9052221E-01
   7126.00  3.9413551E-01
   7126.33  4.0156571E-01
   7126.67  4.1302279E-01
   7127.00  4.2817103E-01
   7127.33  4.4690395E-01
   7127.67  4.6923919E-01
   7128.00  4.9595722E-01
   7128.33  5.2777998E-01
   7128.67  5.6319643E-01
   7129.00  6.0112540E-01
   7129.33  6.4069656E-01
   7129.67  6.8053399E-01
   7130.00  7.1952774E-01
   7130.33  7.5728226E-01
   7130.67  7.9488581E-01
   7131.00  8.3237124E-01
   7131.33  8.6581229E-01
   7131.67  8.8830587E-01
   7132.00  8.9344690E-01
   7132.33  8.7669539E-01
   7132.67  8.4606856E-01
   7133.00  8.0992531E-01
   7133.33  7.7772531E-01
   7133.67  7.5403283E-01
   7134.00  7.3925016E-01
   7134.33  7.3134505E-01
   7134.67  7.2592451E-01
   7135.00  7.2091587E-01
   7135.33  7.1490233E-01
   7135.67  7.0748582E-01
   7136.00  6.9923717E-01
   7136.33  6.9186577E-01
   7136.67  6.8665016E-01
   7137.00  6.8394332E-01
   7137.33  6.8368696E-01
   7137.67  6.8494752E-01
   7138.00  6.8703630E-01
   7138.33  6.8897850E-01
   7138.67  6.8976734E-01
   7139.00  6.8871926E-01
   7139.33  6.8529478E-01
   7139.67  6.8000559E-01
   7140.00  6.7323184E-01
   7140.33  6.6519713E-01
   7140.67  6.5624260E-01
   7141.00  6.4649432E-01
   7141.33  6.3613434E-01
   7141.67  6.2567488E-01
   7142.00  6.1563102E-01
   7142.33  6.0678329E-01
   7142.67  5.9954609E-01
   7143.00  5.9418243E-01
   7143.33  5.9084413E-01
   7143.67  5.8872994E-01
   7144.00  5.8694536E-01
   7144.33  5.8403075E-01
   7144.67  5.7886376E-01
   7145.00  5.7083671E-01
   7145.33  5.5975018E-01
   7145.67  5.4691843E-01
   7146.00  5.3353812E-01
   7146.33  5.2100029E-01
   7146.67  5.1002944E-01
   7147.00  5.0093817E-01
   7147.33  4.9400984E-01
   7147.67  4.8883728E-01
   7148.00  4.8521919E-01
   7148.33  4.8308814E-01
   7148.67  4.8207792E-01
   7149.00  4.8204050E-01
   7149.33  4.8293008E-01
   7149.67  4.8452284E-01
   7150.00  4.8673403E-01
   7150.33  4.8954678E-01
   7150.67  4.9282113E-01
   7151.00  4.9649919E-01
   7151.33  5.0055661E-01
   7151.67  5.0487787E-01
   7152.00  5.0938675E-01
   7152.33  5.1398025E-01
   7152.67  5.1850597E-01
   7153.00  5.2281759E-01
   7153.33  5.2667567E-01
   7153.67  5.2993745E-01
   7154.00  5.3244982E-01
   7154.33  5.3395767E-01
   7154.67  5.3448619E-01
   7155.00  5.3401835E-01
   7155.33  5.3248246E-01
   7155.67  5.3010082E-01
   7156.00  5.2698884E-01
   7156.33  5.2321379E-01
   7156.67  5.1897636E-01
   7157.00  5.1436394E-01
   7157.33  5.0941194E-01
   7157.67  5.0420454E-01
   7158.00  4.9876658E-01
   7158.33  4.9309130E-01
   7158.67  4.8722381E-01
   7159.00  4.8118526E-01
   7159.33  4.7499202E-01
   7159.67  4.6870553E-01
   7160.00  4.6237095E-01
   7160.33  4.5604784E-01
   7160.67  4.4979674E-01
   7161.00  4.4366833E-01
   7161.33  4.3773549E-01
   7161.67  4.3201554E-01
   7162.00  4.2652935E-01
   7162.33  4.2130809E-01
   7162.67  4.1630773E-01
   7163.00  4.1151241E-01
   7163.33  4.0692694E-01
   7163.67  4.0251351E-01
   7164.00  3.9826572E-01
   7164.33  3.9420466E-01
   7164.67  3.9031650E-01
   7165.00  3.8661117E-01
   7165.33  3.8312808E-01
   7165.67  3.7985857E-01
   7166.00  3.7681658E-01
   7166.33  3.7404935E-01
   7166.67  3.7154338E-01
   7167.00  3.6931227E-01
   7167.33  3.6740541E-01
   7167.67  3.6579707E-01
   7168.00  3.6449289E-01
   7168.33  3.6353224E-01
   7168.67  3.6287165E-01
   7169.00  3.6250186E-01
   7169.33  3.6244150E-01
   7169.67  3.6263526E-01
   7170.00  3.6306100E-01
   7170.33  3.6371292E-01
   7170.67  3.6452861E-01
   7171.00  3.6546857E-01
   7171.33  3.6647746E-01
   7171.67  3.6744904E-01
   7172.00  3.6826156E-01
