    FDMNES
    energy     <xanes>
   7097.00  4.8919892E-03
   7097.33  5.0091731E-03
   7097.67  5.1317711E-03
   7098.00  5.2601599E-03
   7098.33  5.3956110E-03
   7098.67  5.5378838E-03
   7099.00  5.6874970E-03
   7099.33  5.8461284E-03
   7099.67  6.0135390E-03
   7100.00  6.1904635E-03
   7100.33  6.3791783E-03
   7100.67  6.5794774E-03
   7101.00  6.7924358E-03
   7101.33  7.0212462E-03
   7101.67  7.2658047E-03
   7102.00  7.5277467E-03
   7102.33  7.8117311E-03
   7102.67  8.1179094E-03
   7103.00  8.4488892E-03
   7103.33  8.8118052E-03
   7103.67  9.2074151E-03
   7104.00  9.6401233E-03
   7104.33  1.0121532E-02
   7104.67  1.0653855E-02
   7105.00  1.1245089E-02
   7105.33  1.1915603E-02
   7105.67  1.2671300E-02
   7106.00  1.3528127E-02
   7106.33  1.4525654E-02
   7106.67  1.5680081E-02
   7107.00  1.7027525E-02
   7107.33  1.8656393E-02
   7107.67  2.0616402E-02
   7108.00  2.3005750E-02
   7108.33  2.6067414E-02
   7108.67  2.9990010E-02
   7109.00  3.5128429E-02
   7109.33  4.2414838E-02
   7109.67  5.2887964E-02
   7110.00  6.8575529E-02
   7110.33  9.5292766E-02
   7110.67  1.3932437E-01
   7111.00  2.0289435E-01
   7111.33  2.6927615E-01
   7111.67  3.2359167E-01
   7112.00  3.7405160E-01
   7112.33  4.1683683E-01
   7112.67  4.3117384E-01
   7113.00  3.9631822E-01
   7113.33  3.0942566E-01
   7113.67  2.2938730E-01
   7114.00  1.7678663E-01
   7114.33  1.5150861E-01
   7114.67  1.4532630E-01
   7115.00  1.5564670E-01
   7115.33  1.7468839E-01
   7115.67  1.7881387E-01
   7116.00  1.5744552E-01
   7116.33  1.2804105E-01
   7116.67  1.0605144E-01
   7117.00  9.2622945E-02
   7117.33  8.6502087E-02
   7117.67  8.4838163E-02
   7118.00  8.6211062E-02
   7118.33  8.9754716E-02
   7118.67  9.4588549E-02
   7119.00  9.9633443E-02
   7119.33  1.0313289E-01
   7119.67  1.0527973E-01
   7120.00  1.0733867E-01
   7120.33  1.1075816E-01
   7120.67  1.1627344E-01
   7121.00  1.2438353E-01
   7121.33  1.3560754E-01
   7121.67  1.5020374E-01
   7122.00  1.6933309E-01
   7122.33  1.9460090E-01
   7122.67  2.2475230E-01
   7123.00  2.5768875E-01
   7123.33  2.8994305E-01
   7123.67  3.2006066E-01
   7124.00  3.4831274E-01
   7124.33  3.7360428E-01
   7124.67  3.9317727E-01
   7125.00  4.0466274E-01
   7125.33  4.0822106E-01
   7125.67  4.0903725E-01
   7126.00  4.1124282E-01
   7126.33  4.1934414E-01
   7126.67  4.3460629E-01
   7127.00  4.5675609E-01
   7127.33  4.8431198E-01
   7127.67  5.1459930E-01
   7128.00  5.4706747E-01
   7128.33  5.8156151E-01
   7128.67  6.1646091E-01
   7129.00  6.5124073E-01
   7129.33  6.8826275E-01
   7129.67  7.2895999E-01
   7130.00  7.7030560E-01
   7130.33  8.0333622E-01
   7130.67  8.2233483E-01
   7131.00  8.2648361E-01
   7131.33  8.1804989E-01
   7131.67  8.0343249E-01
   7132.00  7.8634287E-01
   7132.33  7.6997184E-01
   7132.67  7.5568814E-01
   7133.00  7.4371936E-01
   7133.33  7.3475013E-01
   7133.67  7.2929177E-01
   7134.00  7.2753077E-01
   7134.33  7.2825235E-01
   7134.67  7.2851839E-01
   7135.00  7.2667837E-01
   7135.33  7.2253748E-01
   7135.67  7.1784633E-01
   7136.00  7.1383305E-01
   7136.33  7.1122048E-01
   7136.67  7.0961718E-01
   7137.00  7.0854032E-01
   7137.33  7.0737931E-01
   7137.67  7.0563520E-01
   7138.00  7.0305704E-01
   7138.33  6.9956774E-01
   7138.67  6.9555922E-01
   7139.00  6.9129844E-01
   7139.33  6.8680394E-01
   7139.67  6.8169592E-01
   7140.00  6.7535710E-01
   7140.33  6.6694793E-01
   7140.67  6.5666782E-01
   7141.00  6.4507635E-01
   7141.33  6.3321907E-01
   7141.67  6.2218425E-01
   7142.00  6.1256311E-01
   7142.33  6.0473234E-01
   7142.67  5.9816527E-01
   7143.00  5.9228399E-01
   7143.33  5.8622282E-01
   7143.67  5.7919074E-01
   7144.00  5.7070206E-01
   7144.33  5.6038918E-01
   7144.67  5.4874475E-01
   7145.00  5.3629492E-01
   7145.33  5.2381011E-01
   7145.67  5.1209115E-01
   7146.00  5.0169794E-01
   7146.33  4.9326187E-01
   7146.67  4.8673468E-01
   7147.00  4.8209552E-01
   7147.33  4.7938950E-01
   7147.67  4.7812756E-01
   7148.00  4.7805229E-01
   7148.33  4.7899459E-01
   7148.67  4.8059248E-01
   7149.00  4.8266429E-01
   7149.33  4.8507550E-01
   7149.67  4.8765234E-01
   7150.00  4.9029872E-01
   7150.33  4.9291391E-01
   7150.67  4.9541575E-01
   7151.00  4.9774458E-01
   7151.33  4.9983731E-01
   7151.67  5.0173874E-01
   7152.00  5.0351747E-01
   7152.33  5.0530338E-01
   7152.67  5.0724034E-01
   7153.00  5.0942740E-01
   7153.33  5.1194838E-01
   7153.67  5.1471541E-01
   7154.00  5.1760540E-01
   7154.33  5.2038908E-01
   7154.67  5.2281515E-01
   7155.00  5.2465829E-01
   7155.33  5.2560618E-01
   7155.67  5.2563200E-01
   7156.00  5.2470319E-01
   7156.33  5.2274148E-01
   7156.67  5.1995029E-01
   7157.00  5.1642323E-01
   7157.33  5.1218760E-01
   7157.67  5.0741063E-01
   7158.00  5.0215038E-01
   7158.33  4.9640291E-01
   7158.67  4.9026325E-01
   7159.00  4.8376729E-01
   7159.33  4.7692815E-01
   7159.67  4.6985112E-01
   7160.00  4.6260629E-01
   7160.33  4.5527645E-01
   7160.67  4.4796840E-01
   7161.00  4.4076307E-01
   7161.33  4.3376496E-01
   7161.67  4.2701266E-01
   7162.00  4.2054165E-01
   7162.33  4.1441072E-01
   7162.67  4.0859130E-01
   7163.00  4.0308602E-01
   7163.33  3.9792993E-01
   7163.67  3.9307444E-01
   7164.00  3.8850753E-01
   7164.33  3.8424494E-01
   7164.67  3.8023412E-01
   7165.00  3.7646255E-01
   7165.33  3.7295154E-01
   7165.67  3.6967449E-01
   7166.00  3.6664289E-01
   7166.33  3.6391292E-01
   7166.67  3.6147909E-01
   7167.00  3.5936557E-01
   7167.33  3.5763967E-01
   7167.67  3.5627465E-01
   7168.00  3.5527596E-01
   7168.33  3.5468436E-01
   7168.67  3.5444023E-01
   7169.00  3.5452526E-01
   7169.33  3.5495081E-01
   7169.67  3.5564841E-01
   7170.00  3.5658907E-01
   7170.33  3.5776181E-01
   7170.67  3.5909879E-01
   7171.00  3.6055515E-01
   7171.33  3.6206142E-01
   7171.67  3.6348782E-01
   7172.00  3.6467671E-01
