    FDMNES
    energy     <xanes>
   7097.00  4.9937076E-03
   7097.33  5.1078442E-03
   7097.67  5.2270564E-03
   7098.00  5.3516860E-03
   7098.33  5.4829054E-03
   7098.67  5.6204730E-03
   7099.00  5.7648552E-03
   7099.33  5.9175853E-03
   7099.67  6.0784174E-03
   7100.00  6.2480055E-03
   7100.33  6.4284092E-03
   7100.67  6.6194029E-03
   7101.00  6.8219335E-03
   7101.33  7.0388567E-03
   7101.67  7.2700223E-03
   7102.00  7.5168543E-03
   7102.33  7.7834668E-03
   7102.67  8.0699073E-03
   7103.00  8.3784175E-03
   7103.33  8.7152086E-03
   7103.67  9.0808056E-03
   7104.00  9.4789419E-03
   7104.33  9.9195602E-03
   7104.67  1.0404337E-02
   7105.00  1.0939950E-02
   7105.33  1.1543554E-02
   7105.67  1.2219744E-02
   7106.00  1.2981620E-02
   7106.33  1.3861896E-02
   7106.67  1.4873276E-02
   7107.00  1.6044949E-02
   7107.33  1.7448633E-02
   7107.67  1.9123321E-02
   7108.00  2.1147219E-02
   7108.33  2.3714189E-02
   7108.67  2.6972243E-02
   7109.00  3.1201887E-02
   7109.33  3.7141779E-02
   7109.67  4.5615448E-02
   7110.00  5.8235549E-02
   7110.33  7.9573404E-02
   7110.67  1.1386011E-01
   7111.00  1.6004909E-01
   7111.33  2.0577749E-01
   7111.67  2.4601361E-01
   7112.00  2.8440799E-01
   7112.33  3.3937479E-01
   7112.67  3.8846677E-01
   7113.00  3.8554248E-01
   7113.33  3.1753197E-01
   7113.67  2.3898883E-01
   7114.00  1.8724665E-01
   7114.33  1.6721256E-01
   7114.67  1.6113730E-01
   7115.00  1.6397490E-01
   7115.33  1.8103966E-01
   7115.67  2.0874001E-01
   7116.00  2.3326414E-01
   7116.33  2.3321001E-01
   7116.67  2.1500390E-01
   7117.00  1.9293257E-01
   7117.33  1.7664850E-01
   7117.67  1.6617823E-01
   7118.00  1.5978165E-01
   7118.33  1.5604897E-01
   7118.67  1.5365122E-01
   7119.00  1.5135409E-01
   7119.33  1.4789833E-01
   7119.67  1.4349910E-01
   7120.00  1.3880362E-01
   7120.33  1.3467463E-01
   7120.67  1.3168963E-01
   7121.00  1.3027538E-01
   7121.33  1.3106923E-01
   7121.67  1.3407722E-01
   7122.00  1.3937573E-01
   7122.33  1.4720730E-01
   7122.67  1.5719024E-01
   7123.00  1.6927982E-01
   7123.33  1.8379842E-01
   7123.67  2.0055486E-01
   7124.00  2.1963463E-01
   7124.33  2.4143643E-01
   7124.67  2.6525713E-01
   7125.00  2.8974991E-01
   7125.33  3.1215491E-01
   7125.67  3.3065951E-01
   7126.00  3.4474584E-01
   7126.33  3.5462668E-01
   7126.67  3.6218785E-01
   7127.00  3.6889705E-01
   7127.33  3.7703941E-01
   7127.67  3.8925703E-01
   7128.00  4.0826703E-01
   7128.33  4.3826746E-01
   7128.67  4.8044654E-01
   7129.00  5.3625414E-01
   7129.33  6.0780613E-01
   7129.67  6.9064223E-01
   7130.00  7.7866076E-01
   7130.33  8.5963985E-01
   7130.67  9.2277422E-01
   7131.00  9.6478352E-01
   7131.33  9.9078658E-01
   7131.67  1.0123095E+00
   7132.00  1.0325653E+00
   7132.33  1.0488404E+00
   7132.67  1.0576719E+00
   7133.00  1.0570475E+00
   7133.33  1.0453684E+00
   7133.67  1.0248602E+00
   7134.00  9.9695110E-01
   7134.33  9.6295432E-01
   7134.67  9.2561905E-01
   7135.00  8.8657787E-01
   7135.33  8.4733520E-01
   7135.67  8.0894837E-01
   7136.00  7.7194208E-01
   7136.33  7.3683738E-01
   7136.67  7.0355287E-01
   7137.00  6.7214926E-01
   7137.33  6.4300200E-01
   7137.67  6.1610834E-01
   7138.00  5.9175571E-01
   7138.33  5.7063089E-01
   7138.67  5.5258435E-01
   7139.00  5.3763318E-01
   7139.33  5.2595073E-01
   7139.67  5.1681133E-01
   7140.00  5.0984025E-01
   7140.33  5.0483005E-01
   7140.67  5.0120415E-01
   7141.00  4.9871800E-01
   7141.33  4.9725005E-01
   7141.67  4.9646849E-01
   7142.00  4.9617131E-01
   7142.33  4.9611709E-01
   7142.67  4.9598048E-01
   7143.00  4.9549260E-01
   7143.33  4.9427358E-01
   7143.67  4.9218462E-01
   7144.00  4.8913970E-01
   7144.33  4.8506253E-01
   7144.67  4.8024861E-01
   7145.00  4.7494416E-01
   7145.33  4.6948104E-01
   7145.67  4.6424252E-01
   7146.00  4.5951744E-01
   7146.33  4.5567672E-01
   7146.67  4.5280593E-01
   7147.00  4.5099084E-01
   7147.33  4.5038773E-01
   7147.67  4.5081174E-01
   7148.00  4.5217836E-01
   7148.33  4.5446737E-01
   7148.67  4.5745368E-01
   7149.00  4.6104810E-01
   7149.33  4.6523772E-01
   7149.67  4.6989834E-01
   7150.00  4.7498379E-01
   7150.33  4.8049094E-01
   7150.67  4.8633228E-01
   7151.00  4.9247058E-01
   7151.33  4.9888363E-01
   7151.67  5.0547654E-01
   7152.00  5.1218481E-01
   7152.33  5.1892774E-01
   7152.67  5.2560854E-01
   7153.00  5.3214256E-01
   7153.33  5.3839762E-01
   7153.67  5.4430443E-01
   7154.00  5.4978272E-01
   7154.33  5.5468964E-01
   7154.67  5.5902374E-01
   7155.00  5.6274222E-01
   7155.33  5.6573439E-01
   7155.67  5.6807256E-01
   7156.00  5.6976528E-01
   7156.33  5.7076137E-01
   7156.67  5.7117898E-01
   7157.00  5.7106193E-01
   7157.33  5.7040878E-01
   7157.67  5.6934152E-01
   7158.00  5.6791486E-01
   7158.33  5.6615470E-01
   7158.67  5.6415828E-01
   7159.00  5.6197374E-01
   7159.33  5.5963431E-01
   7159.67  5.5720035E-01
   7160.00  5.5470277E-01
   7160.33  5.5216607E-01
   7160.67  5.4961597E-01
   7161.00  5.4706508E-01
   7161.33  5.4452329E-01
   7161.67  5.4199383E-01
   7162.00  5.3947570E-01
   7162.33  5.3696228E-01
   7162.67  5.3444217E-01
   7163.00  5.3190480E-01
   7163.33  5.2933339E-01
   7163.67  5.2672002E-01
   7164.00  5.2405631E-01
   7164.33  5.2132753E-01
   7164.67  5.1853765E-01
   7165.00  5.1568732E-01
   7165.33  5.1277284E-01
   7165.67  5.0980851E-01
   7166.00  5.0680210E-01
   7166.33  5.0375808E-01
   7166.67  5.0068880E-01
   7167.00  4.9760061E-01
   7167.33  4.9449875E-01
   7167.67  4.9139119E-01
   7168.00  4.8828343E-01
   7168.33  4.8518448E-01
   7168.67  4.8210520E-01
   7169.00  4.7905927E-01
   7169.33  4.7607212E-01
   7169.67  4.7315839E-01
   7170.00  4.7033836E-01
   7170.33  4.6765497E-01
   7170.67  4.6512319E-01
   7171.00  4.6277090E-01
   7171.33  4.6066758E-01
   7171.67  4.5884944E-01
   7172.00  4.5739228E-01
