    FDMNES
    energy     <xanes>
   7097.00  5.1239922E-03
   7097.33  5.2412743E-03
   7097.67  5.3637501E-03
   7098.00  5.4917645E-03
   7098.33  5.6265085E-03
   7098.67  5.7677272E-03
   7099.00  5.9158881E-03
   7099.33  6.0725403E-03
   7099.67  6.2374201E-03
   7100.00  6.4111776E-03
   7100.33  6.5958792E-03
   7100.67  6.7912732E-03
   7101.00  6.9982918E-03
   7101.33  7.2197746E-03
   7101.67  7.4555296E-03
   7102.00  7.7069417E-03
   7102.33  7.9780553E-03
   7102.67  8.2688437E-03
   7103.00  8.5814549E-03
   7103.33  8.9219064E-03
   7103.67  9.2905765E-03
   7104.00  9.6909776E-03
   7104.33  1.0132565E-02
   7104.67  1.0616691E-02
   7105.00  1.1149496E-02
   7105.33  1.1746915E-02
   7105.67  1.2412734E-02
   7106.00  1.3158668E-02
   7106.33  1.4014192E-02
   7106.67  1.4989723E-02
   7107.00  1.6110450E-02
   7107.33  1.7438518E-02
   7107.67  1.9005165E-02
   7108.00  2.0874895E-02
   7108.33  2.3207275E-02
   7108.67  2.6116148E-02
   7109.00  2.9819286E-02
   7109.33  3.4883333E-02
   7109.67  4.1903384E-02
   7110.00  5.2041323E-02
   7110.33  6.8636179E-02
   7110.67  9.5652397E-02
   7111.00  1.3619936E-01
   7111.33  1.8060869E-01
   7111.67  2.1285023E-01
   7112.00  2.3911854E-01
   7112.33  2.6635534E-01
   7112.67  3.0171347E-01
   7113.00  3.5402644E-01
   7113.33  4.0441585E-01
   7113.67  4.2499499E-01
   7114.00  4.0897377E-01
   7114.33  3.6050621E-01
   7114.67  3.0713200E-01
   7115.00  2.6389162E-01
   7115.33  2.3621707E-01
   7115.67  2.1954375E-01
   7116.00  2.1082862E-01
   7116.33  2.0817368E-01
   7116.67  2.0756861E-01
   7117.00  2.0409116E-01
   7117.33  1.9325504E-01
   7117.67  1.7924235E-01
   7118.00  1.6674296E-01
   7118.33  1.5852783E-01
   7118.67  1.5356092E-01
   7119.00  1.5053970E-01
   7119.33  1.4806550E-01
   7119.67  1.4522474E-01
   7120.00  1.4191469E-01
   7120.33  1.3851137E-01
   7120.67  1.3559126E-01
   7121.00  1.3359618E-01
   7121.33  1.3314507E-01
   7121.67  1.3449999E-01
   7122.00  1.3791652E-01
   7122.33  1.4364027E-01
   7122.67  1.5122075E-01
   7123.00  1.6058849E-01
   7123.33  1.7212189E-01
   7123.67  1.8583490E-01
   7124.00  2.0191383E-01
   7124.33  2.2073437E-01
   7124.67  2.4181822E-01
   7125.00  2.6476801E-01
   7125.33  2.8884908E-01
   7125.67  3.1253781E-01
   7126.00  3.3437859E-01
   7126.33  3.5281572E-01
   7126.67  3.6852400E-01
   7127.00  3.8300080E-01
   7127.33  3.9878304E-01
   7127.67  4.1790013E-01
   7128.00  4.4167845E-01
   7128.33  4.7176337E-01
   7128.67  5.0804613E-01
   7129.00  5.5094621E-01
   7129.33  6.0148463E-01
   7129.67  6.5786754E-01
   7130.00  7.1803557E-01
   7130.33  7.7786164E-01
   7130.67  8.3211080E-01
   7131.00  8.7751264E-01
   7131.33  9.1334589E-01
   7131.67  9.4377235E-01
   7132.00  9.7035896E-01
   7132.33  9.9226941E-01
   7132.67  1.0089461E+00
   7133.00  1.0195620E+00
   7133.33  1.0224244E+00
   7133.67  1.0177171E+00
   7134.00  1.0051660E+00
   7134.33  9.8412196E-01
   7134.67  9.5653915E-01
   7135.00  9.2371043E-01
   7135.33  8.8688860E-01
   7135.67  8.4813217E-01
   7136.00  8.0862171E-01
   7136.33  7.6948864E-01
   7136.67  7.3151446E-01
   7137.00  6.9525423E-01
   7137.33  6.6150739E-01
   7137.67  6.3041535E-01
   7138.00  6.0230961E-01
   7138.33  5.7795908E-01
   7138.67  5.5719500E-01
   7139.00  5.4008950E-01
   7139.33  5.2696266E-01
   7139.67  5.1704631E-01
   7140.00  5.0995115E-01
   7140.33  5.0546925E-01
   7140.67  5.0283730E-01
   7141.00  5.0170232E-01
   7141.33  5.0186163E-01
   7141.67  5.0287650E-01
   7142.00  5.0451511E-01
   7142.33  5.0655722E-01
   7142.67  5.0869064E-01
   7143.00  5.1068894E-01
   7143.33  5.1226116E-01
   7143.67  5.1324650E-01
   7144.00  5.1349887E-01
   7144.33  5.1280044E-01
   7144.67  5.1122462E-01
   7145.00  5.0880634E-01
   7145.33  5.0555305E-01
   7145.67  5.0170272E-01
   7146.00  4.9739994E-01
   7146.33  4.9278479E-01
   7146.67  4.8805993E-01
   7147.00  4.8335696E-01
   7147.33  4.7882999E-01
   7147.67  4.7457328E-01
   7148.00  4.7066903E-01
   7148.33  4.6725089E-01
   7148.67  4.6433046E-01
   7149.00  4.6195561E-01
   7149.33  4.6024778E-01
   7149.67  4.5917091E-01
   7150.00  4.5875148E-01
   7150.33  4.5909893E-01
   7150.67  4.6014169E-01
   7151.00  4.6187908E-01
   7151.33  4.6437590E-01
   7151.67  4.6750516E-01
   7152.00  4.7121059E-01
   7152.33  4.7546531E-01
   7152.67  4.8009931E-01
   7153.00  4.8500592E-01
   7153.33  4.9006860E-01
   7153.67  4.9513400E-01
   7154.00  5.0009056E-01
   7154.33  5.0479006E-01
   7154.67  5.0915706E-01
   7155.00  5.1311840E-01
   7155.33  5.1655223E-01
   7155.67  5.1947789E-01
   7156.00  5.2188001E-01
   7156.33  5.2369591E-01
   7156.67  5.2501283E-01
   7157.00  5.2586288E-01
   7157.33  5.2624334E-01
   7157.67  5.2626470E-01
   7158.00  5.2598104E-01
   7158.33  5.2542677E-01
   7158.67  5.2469493E-01
   7159.00  5.2383668E-01
   7159.33  5.2289775E-01
   7159.67  5.2193496E-01
   7160.00  5.2098346E-01
   7160.33  5.2008286E-01
   7160.67  5.1925409E-01
   7161.00  5.1851425E-01
   7161.33  5.1788981E-01
   7161.67  5.1737532E-01
   7162.00  5.1697234E-01
   7162.33  5.1669140E-01
   7162.67  5.1651169E-01
   7163.00  5.1642425E-01
   7163.33  5.1642389E-01
   7163.67  5.1647770E-01
   7164.00  5.1656515E-01
   7164.33  5.1666812E-01
   7164.67  5.1676421E-01
   7165.00  5.1683358E-01
   7165.33  5.1684613E-01
   7165.67  5.1678579E-01
   7166.00  5.1663441E-01
   7166.33  5.1635837E-01
   7166.67  5.1595448E-01
   7167.00  5.1541105E-01
   7167.33  5.1469967E-01
   7167.67  5.1383339E-01
   7168.00  5.1281109E-01
   7168.33  5.1161775E-01
   7168.67  5.1028242E-01
   7169.00  5.0881800E-01
   7169.33  5.0722911E-01
   7169.67  5.0555188E-01
   7170.00  5.0380919E-01
   7170.33  5.0202742E-01
   7170.67  5.0024575E-01
   7171.00  4.9849924E-01
   7171.33  4.9685330E-01
   7171.67  4.9538042E-01
   7172.00  4.9418120E-01
