    FDMNES
    energy     <xanes>
   7097.00  4.1694847E-03
   7097.33  4.2503280E-03
   7097.67  4.3341552E-03
   7098.00  4.4211401E-03
   7098.33  4.5119278E-03
   7098.67  4.6063416E-03
   7099.00  4.7046138E-03
   7099.33  4.8075642E-03
   7099.67  4.9150081E-03
   7100.00  5.0272652E-03
   7100.33  5.1454066E-03
   7100.67  5.2692508E-03
   7101.00  5.3992540E-03
   7101.33  5.5368646E-03
   7101.67  5.6819306E-03
   7102.00  5.8351316E-03
   7102.33  5.9985118E-03
   7102.67  6.1720092E-03
   7103.00  6.3566912E-03
   7103.33  6.5556020E-03
   7103.67  6.7689130E-03
   7104.00  6.9984142E-03
   7104.33  7.2489597E-03
   7104.67  7.5213125E-03
   7105.00  7.8187330E-03
   7105.33  8.1496780E-03
   7105.67  8.5164777E-03
   7106.00  8.9257424E-03
   7106.33  9.3940428E-03
   7106.67  9.9282911E-03
   7107.00  1.0543970E-02
   7107.33  1.1279256E-02
   7107.67  1.2156834E-02
   7108.00  1.3221246E-02
   7108.33  1.4583909E-02
   7108.67  1.6337984E-02
   7109.00  1.8659151E-02
   7109.33  2.2019170E-02
   7109.67  2.6986937E-02
   7110.00  3.4686655E-02
   7110.33  4.8339467E-02
   7110.67  7.0707569E-02
   7111.00  9.9047017E-02
   7111.33  1.1940376E-01
   7111.67  1.3329724E-01
   7112.00  1.4102712E-01
   7112.33  1.3208622E-01
   7112.67  1.1153925E-01
   7113.00  8.8654397E-02
   7113.33  7.0685992E-02
   7113.67  5.8601154E-02
   7114.00  5.1525059E-02
   7114.33  4.8267025E-02
   7114.67  4.5874444E-02
   7115.00  4.3030391E-02
   7115.33  4.1278665E-02
   7115.67  4.1141174E-02
   7116.00  4.2405052E-02
   7116.33  4.4937871E-02
   7116.67  4.8441167E-02
   7117.00  5.2940656E-02
   7117.33  5.8864130E-02
   7117.67  6.6460377E-02
   7118.00  7.5967090E-02
   7118.33  8.7482206E-02
   7118.67  1.0008931E-01
   7119.00  1.1285297E-01
   7119.33  1.2478981E-01
   7119.67  1.3598764E-01
   7120.00  1.4717424E-01
   7120.33  1.5949010E-01
   7120.67  1.7294726E-01
   7121.00  1.8635737E-01
   7121.33  1.9747884E-01
   7121.67  2.0641764E-01
   7122.00  2.1502507E-01
   7122.33  2.2614040E-01
   7122.67  2.4137226E-01
   7123.00  2.6186095E-01
   7123.33  2.8916192E-01
   7123.67  3.2234876E-01
   7124.00  3.6008789E-01
   7124.33  3.9934856E-01
   7124.67  4.3534452E-01
   7125.00  4.6424272E-01
   7125.33  4.8342024E-01
   7125.67  4.9651336E-01
   7126.00  5.0680277E-01
   7126.33  5.1700124E-01
   7126.67  5.2842434E-01
   7127.00  5.4154731E-01
   7127.33  5.5727549E-01
   7127.67  5.7655971E-01
   7128.00  6.0084130E-01
   7128.33  6.3161140E-01
   7128.67  6.6728049E-01
   7129.00  7.0604630E-01
   7129.33  7.4494430E-01
   7129.67  7.8038916E-01
   7130.00  8.0930091E-01
   7130.33  8.2770684E-01
   7130.67  8.3571764E-01
   7131.00  8.3426192E-01
   7131.33  8.2535988E-01
   7131.67  8.1326960E-01
   7132.00  8.0025062E-01
   7132.33  7.8748846E-01
   7132.67  7.7485639E-01
   7133.00  7.6205347E-01
   7133.33  7.4936608E-01
   7133.67  7.3760985E-01
   7134.00  7.2707689E-01
   7134.33  7.1712671E-01
   7134.67  7.0668540E-01
   7135.00  6.9537987E-01
   7135.33  6.8335875E-01
   7135.67  6.7132157E-01
   7136.00  6.5988927E-01
   7136.33  6.4987163E-01
   7136.67  6.4154106E-01
   7137.00  6.3498333E-01
   7137.33  6.3009011E-01
   7137.67  6.2603284E-01
   7138.00  6.2214397E-01
   7138.33  6.1769709E-01
   7138.67  6.1238678E-01
   7139.00  6.0616447E-01
   7139.33  5.9911727E-01
   7139.67  5.9165838E-01
   7140.00  5.8410423E-01
   7140.33  5.7684520E-01
   7140.67  5.7015481E-01
   7141.00  5.6423186E-01
   7141.33  5.5932463E-01
   7141.67  5.5533789E-01
   7142.00  5.5219879E-01
   7142.33  5.4983591E-01
   7142.67  5.4796444E-01
   7143.00  5.4641015E-01
   7143.33  5.4500829E-01
   7143.67  5.4360482E-01
   7144.00  5.4212130E-01
   7144.33  5.4050122E-01
   7144.67  5.3876792E-01
   7145.00  5.3696447E-01
   7145.33  5.3517551E-01
   7145.67  5.3349379E-01
   7146.00  5.3198402E-01
   7146.33  5.3069798E-01
   7146.67  5.2956852E-01
   7147.00  5.2850364E-01
   7147.33  5.2733641E-01
   7147.67  5.2590789E-01
   7148.00  5.2409416E-01
   7148.33  5.2175075E-01
   7148.67  5.1893500E-01
   7149.00  5.1571286E-01
   7149.33  5.1218300E-01
   7149.67  5.0853916E-01
   7150.00  5.0491941E-01
   7150.33  5.0148671E-01
   7150.67  4.9832333E-01
   7151.00  4.9547753E-01
   7151.33  4.9299516E-01
   7151.67  4.9078880E-01
   7152.00  4.8878045E-01
   7152.33  4.8686351E-01
   7152.67  4.8490829E-01
   7153.00  4.8282197E-01
   7153.33  4.8049214E-01
   7153.67  4.7789376E-01
   7154.00  4.7501110E-01
   7154.33  4.7182234E-01
   7154.67  4.6839931E-01
   7155.00  4.6478800E-01
   7155.33  4.6103355E-01
   7155.67  4.5721388E-01
   7156.00  4.5337842E-01
   7156.33  4.4958050E-01
   7156.67  4.4585487E-01
   7157.00  4.4222827E-01
   7157.33  4.3874369E-01
   7157.67  4.3541369E-01
   7158.00  4.3226613E-01
   7158.33  4.2936349E-01
   7158.67  4.2671378E-01
   7159.00  4.2434360E-01
   7159.33  4.2231052E-01
   7159.67  4.2057975E-01
   7160.00  4.1913979E-01
   7160.33  4.1799653E-01
   7160.67  4.1707049E-01
   7161.00  4.1631051E-01
   7161.33  4.1566684E-01
   7161.67  4.1507099E-01
   7162.00  4.1448790E-01
   7162.33  4.1389647E-01
   7162.67  4.1329867E-01
   7163.00  4.1270542E-01
   7163.33  4.1213785E-01
   7163.67  4.1161221E-01
   7164.00  4.1114097E-01
   7164.33  4.1073885E-01
   7164.67  4.1040114E-01
   7165.00  4.1012901E-01
   7165.33  4.0993220E-01
   7165.67  4.0980522E-01
   7166.00  4.0975191E-01
   7166.33  4.0979123E-01
   7166.67  4.0992730E-01
   7167.00  4.1017665E-01
   7167.33  4.1057817E-01
   7167.67  4.1113776E-01
   7168.00  4.1187502E-01
   7168.33  4.1283580E-01
   7168.67  4.1401114E-01
   7169.00  4.1540817E-01
   7169.33  4.1705267E-01
   7169.67  4.1890311E-01
   7170.00  4.2093727E-01
   7170.33  4.2313523E-01
   7170.67  4.2542612E-01
   7171.00  4.2775013E-01
   7171.33  4.3000355E-01
   7171.67  4.3205114E-01
   7172.00  4.3372744E-01
