    FDMNES
    energy     <xanes>
   7097.00  4.1637725E-03
   7097.33  4.2447001E-03
   7097.67  4.3286053E-03
   7098.00  4.4156603E-03
   7098.33  4.5065066E-03
   7098.67  4.6009664E-03
   7099.00  4.6992695E-03
   7099.33  4.8022295E-03
   7099.67  4.9096600E-03
   7100.00  5.0218765E-03
   7100.33  5.1399399E-03
   7100.67  5.2636657E-03
   7101.00  5.3935030E-03
   7101.33  5.5308828E-03
   7101.67  5.6756479E-03
   7102.00  5.8284654E-03
   7102.33  5.9913489E-03
   7102.67  6.1642272E-03
   7103.00  6.3481446E-03
   7103.33  6.5460901E-03
   7103.67  6.7582161E-03
   7104.00  6.9862688E-03
   7104.33  7.2349967E-03
   7104.67  7.5051212E-03
   7105.00  7.7998123E-03
   7105.33  8.1273109E-03
   7105.67  8.4898457E-03
   7106.00  8.8938221E-03
   7106.33  9.3553214E-03
   7106.67  9.8809753E-03
   7107.00  1.0485734E-02
   7107.33  1.1206486E-02
   7107.67  1.2064994E-02
   7108.00  1.3104106E-02
   7108.33  1.4431005E-02
   7108.67  1.6134893E-02
   7109.00  1.8384122E-02
   7109.33  2.1630532E-02
   7109.67  2.6417494E-02
   7110.00  3.3818665E-02
   7110.33  4.6908753E-02
   7110.67  6.8317654E-02
   7111.00  9.5389323E-02
   7111.33  1.1471144E-01
   7111.67  1.2870079E-01
   7112.00  1.3857410E-01
   7112.33  1.3204201E-01
   7112.67  1.1275927E-01
   7113.00  9.0377771E-02
   7113.33  7.2036571E-02
   7113.67  5.9279228E-02
   7114.00  5.1587815E-02
   7114.33  4.7839694E-02
   7114.67  4.5097069E-02
   7115.00  4.2134960E-02
   7115.33  4.0371401E-02
   7115.67  4.0199402E-02
   7116.00  4.1405989E-02
   7116.33  4.3872625E-02
   7116.67  4.7291246E-02
   7117.00  5.1654011E-02
   7117.33  5.7351503E-02
   7117.67  6.4684466E-02
   7118.00  7.3987812E-02
   7118.33  8.5514891E-02
   7118.67  9.8399419E-02
   7119.00  1.1166832E-01
   7119.33  1.2423018E-01
   7119.67  1.3616227E-01
   7120.00  1.4841187E-01
   7120.33  1.6264308E-01
   7120.67  1.7912645E-01
   7121.00  1.9650817E-01
   7121.33  2.1133501E-01
   7121.67  2.2237781E-01
   7122.00  2.3149508E-01
   7122.33  2.4260120E-01
   7122.67  2.5833182E-01
   7123.00  2.8015973E-01
   7123.33  3.0966926E-01
   7123.67  3.4535267E-01
   7124.00  3.8512864E-01
   7124.33  4.2470591E-01
   7124.67  4.5888680E-01
   7125.00  4.8431746E-01
   7125.33  4.9969055E-01
   7125.67  5.0944249E-01
   7126.00  5.1692264E-01
   7126.33  5.2519481E-01
   7126.67  5.3589707E-01
   7127.00  5.4957151E-01
   7127.33  5.6663913E-01
   7127.67  5.8710826E-01
   7128.00  6.1204266E-01
   7128.33  6.4298281E-01
   7128.67  6.7861564E-01
   7129.00  7.1709744E-01
   7129.33  7.5516849E-01
   7129.67  7.8935698E-01
   7130.00  8.1708811E-01
   7130.33  8.3525343E-01
   7130.67  8.4409437E-01
   7131.00  8.4401600E-01
   7131.33  8.3574966E-01
   7131.67  8.2248644E-01
   7132.00  8.0601017E-01
   7132.33  7.8742767E-01
   7132.67  7.6767149E-01
   7133.00  7.4734065E-01
   7133.33  7.2770519E-01
   7133.67  7.1008891E-01
   7134.00  6.9508165E-01
   7134.33  6.8254192E-01
   7134.67  6.7135608E-01
   7135.00  6.6109545E-01
   7135.33  6.5181171E-01
   7135.67  6.4360653E-01
   7136.00  6.3672686E-01
   7136.33  6.3161819E-01
   7136.67  6.2818297E-01
   7137.00  6.2630187E-01
   7137.33  6.2567737E-01
   7137.67  6.2546650E-01
   7138.00  6.2499241E-01
   7138.33  6.2348205E-01
   7138.67  6.2068597E-01
   7139.00  6.1654911E-01
   7139.33  6.1108975E-01
   7139.67  6.0476183E-01
   7140.00  5.9786975E-01
   7140.33  5.9072812E-01
   7140.67  5.8365464E-01
   7141.00  5.7683782E-01
   7141.33  5.7046480E-01
   7141.67  5.6454535E-01
   7142.00  5.5909414E-01
   7142.33  5.5416602E-01
   7142.67  5.4968754E-01
   7143.00  5.4563571E-01
   7143.33  5.4201235E-01
   7143.67  5.3870104E-01
   7144.00  5.3563264E-01
   7144.33  5.3276304E-01
   7144.67  5.3004625E-01
   7145.00  5.2750500E-01
   7145.33  5.2524835E-01
   7145.67  5.2335211E-01
   7146.00  5.2189736E-01
   7146.33  5.2098163E-01
   7146.67  5.2049136E-01
   7147.00  5.2030203E-01
   7147.33  5.2020700E-01
   7147.67  5.1994593E-01
   7148.00  5.1932315E-01
   7148.33  5.1811275E-01
   7148.67  5.1632079E-01
   7149.00  5.1398151E-01
   7149.33  5.1115496E-01
   7149.67  5.0805373E-01
   7150.00  5.0482443E-01
   7150.33  5.0162872E-01
   7150.67  4.9858191E-01
   7151.00  4.9574192E-01
   7151.33  4.9314814E-01
   7151.67  4.9072977E-01
   7152.00  4.8841209E-01
   7152.33  4.8607746E-01
   7152.67  4.8361329E-01
   7153.00  4.8094071E-01
   7153.33  4.7796645E-01
   7153.67  4.7470535E-01
   7154.00  4.7117395E-01
   7154.33  4.6739424E-01
   7154.67  4.6346412E-01
   7155.00  4.5945027E-01
   7155.33  4.5542552E-01
   7155.67  4.5145264E-01
   7156.00  4.4757018E-01
   7156.33  4.4381883E-01
   7156.67  4.4019248E-01
   7157.00  4.3668923E-01
   7157.33  4.3331767E-01
   7157.67  4.3005934E-01
   7158.00  4.2691624E-01
   7158.33  4.2391355E-01
   7158.67  4.2105248E-01
   7159.00  4.1835018E-01
   7159.33  4.1584561E-01
   7159.67  4.1352538E-01
   7160.00  4.1138933E-01
   7160.33  4.0945553E-01
   7160.67  4.0769126E-01
   7161.00  4.0608276E-01
   7161.33  4.0463234E-01
   7161.67  4.0331116E-01
   7162.00  4.0211758E-01
   7162.33  4.0107620E-01
   7162.67  4.0018540E-01
   7163.00  3.9945798E-01
   7163.33  3.9892458E-01
   7163.67  3.9856415E-01
   7164.00  3.9836780E-01
   7164.33  3.9833293E-01
   7164.67  3.9841467E-01
   7165.00  3.9858913E-01
   7165.33  3.9884055E-01
   7165.67  3.9914249E-01
   7166.00  3.9948477E-01
   7166.33  3.9986866E-01
   7166.67  4.0029778E-01
   7167.00  4.0078562E-01
   7167.33  4.0136287E-01
   7167.67  4.0204440E-01
   7168.00  4.0285311E-01
   7168.33  4.0383411E-01
   7168.67  4.0499039E-01
   7169.00  4.0633564E-01
   7169.33  4.0790186E-01
   7169.67  4.0966139E-01
   7170.00  4.1160214E-01
   7170.33  4.1371725E-01
   7170.67  4.1594547E-01
   7171.00  4.1823416E-01
   7171.33  4.2048716E-01
   7171.67  4.2256002E-01
   7172.00  4.2427287E-01
