    FDMNES
    energy     <xanes>
   7097.00  4.4400596E-03
   7097.33  4.5292888E-03
   7097.67  4.6218012E-03
   7098.00  4.7177783E-03
   7098.33  4.8179122E-03
   7098.67  4.9219938E-03
   7099.00  5.0302596E-03
   7099.33  5.1435730E-03
   7099.67  5.2617082E-03
   7100.00  5.3849814E-03
   7100.33  5.5144942E-03
   7100.67  5.6500100E-03
   7101.00  5.7919643E-03
   7101.33  5.9418022E-03
   7101.67  6.0992919E-03
   7102.00  6.2650564E-03
   7102.33  6.4410577E-03
   7102.67  6.6271074E-03
   7103.00  6.8241379E-03
   7103.33  7.0349346E-03
   7103.67  7.2594430E-03
   7104.00  7.4991421E-03
   7104.33  7.7582224E-03
   7104.67  8.0369869E-03
   7105.00  8.3379634E-03
   7105.33  8.6679626E-03
   7105.67  9.0282345E-03
   7106.00  9.4235468E-03
   7106.33  9.8661944E-03
   7106.67  1.0360114E-02
   7107.00  1.0915580E-02
   7107.33  1.1558308E-02
   7107.67  1.2300961E-02
   7108.00  1.3170291E-02
   7108.33  1.4233008E-02
   7108.67  1.5537368E-02
   7109.00  1.7176095E-02
   7109.33  1.9391763E-02
   7109.67  2.2443401E-02
   7110.00  2.6835731E-02
   7110.33  3.4000392E-02
   7110.67  4.5458905E-02
   7111.00  6.2079746E-02
   7111.33  8.4031903E-02
   7111.67  1.0989246E-01
   7112.00  1.2767708E-01
   7112.33  1.2736506E-01
   7112.67  1.1289939E-01
   7113.00  9.5562176E-02
   7113.33  8.3574378E-02
   7113.67  7.3160285E-02
   7114.00  6.3899076E-02
   7114.33  5.7729184E-02
   7114.67  5.4507222E-02
   7115.00  5.3741666E-02
   7115.33  5.5207744E-02
   7115.67  5.8483074E-02
   7116.00  6.3645248E-02
   7116.33  7.1298628E-02
   7116.67  8.1758877E-02
   7117.00  9.5786379E-02
   7117.33  1.1521693E-01
   7117.67  1.4109851E-01
   7118.00  1.7514983E-01
   7118.33  2.2030883E-01
   7118.67  2.7433500E-01
   7119.00  3.3147665E-01
   7119.33  3.7963970E-01
   7119.67  4.1149755E-01
   7120.00  4.2586762E-01
   7120.33  4.2554334E-01
   7120.67  4.1857949E-01
   7121.00  4.0951172E-01
   7121.33  4.0215061E-01
   7121.67  3.9854619E-01
   7122.00  3.9969922E-01
   7122.33  4.0663648E-01
   7122.67  4.1850097E-01
   7123.00  4.3439990E-01
   7123.33  4.5241188E-01
   7123.67  4.6956241E-01
   7124.00  4.8442568E-01
   7124.33  4.9718463E-01
   7124.67  5.0942491E-01
   7125.00  5.2170077E-01
   7125.33  5.3337512E-01
   7125.67  5.4307964E-01
   7126.00  5.4955173E-01
   7126.33  5.5162198E-01
   7126.67  5.5035462E-01
   7127.00  5.4706667E-01
   7127.33  5.4357522E-01
   7127.67  5.4145499E-01
   7128.00  5.4158937E-01
   7128.33  5.4486928E-01
   7128.67  5.5110422E-01
   7129.00  5.6020393E-01
   7129.33  5.7213677E-01
   7129.67  5.8597450E-01
   7130.00  6.0100046E-01
   7130.33  6.1628067E-01
   7130.67  6.3080417E-01
   7131.00  6.4376893E-01
   7131.33  6.5402967E-01
   7131.67  6.6119583E-01
   7132.00  6.6481574E-01
   7132.33  6.6406590E-01
   7132.67  6.5939053E-01
   7133.00  6.5108567E-01
   7133.33  6.3955610E-01
   7133.67  6.2625341E-01
   7134.00  6.1220486E-01
   7134.33  5.9853941E-01
   7134.67  5.8602908E-01
   7135.00  5.7511974E-01
   7135.33  5.6632579E-01
   7135.67  5.5950862E-01
   7136.00  5.5465614E-01
   7136.33  5.5192171E-01
   7136.67  5.5093591E-01
   7137.00  5.5154207E-01
   7137.33  5.5366357E-01
   7137.67  5.5681058E-01
   7138.00  5.6065481E-01
   7138.33  5.6482733E-01
   7138.67  5.6892002E-01
   7139.00  5.7268189E-01
   7139.33  5.7585665E-01
   7139.67  5.7842121E-01
   7140.00  5.8036342E-01
   7140.33  5.8163900E-01
   7140.67  5.8236475E-01
   7141.00  5.8256810E-01
   7141.33  5.8220149E-01
   7141.67  5.8133539E-01
   7142.00  5.7998255E-01
   7142.33  5.7811473E-01
   7142.67  5.7582314E-01
   7143.00  5.7317242E-01
   7143.33  5.7026413E-01
   7143.67  5.6727002E-01
   7144.00  5.6429947E-01
   7144.33  5.6146537E-01
   7144.67  5.5881557E-01
   7145.00  5.5637927E-01
   7145.33  5.5419604E-01
   7145.67  5.5223259E-01
   7146.00  5.5047658E-01
   7146.33  5.4893239E-01
   7146.67  5.4755475E-01
   7147.00  5.4632373E-01
   7147.33  5.4522932E-01
   7147.67  5.4422759E-01
   7148.00  5.4329016E-01
   7148.33  5.4238212E-01
   7148.67  5.4145653E-01
   7149.00  5.4047228E-01
   7149.33  5.3936583E-01
   7149.67  5.3810182E-01
   7150.00  5.3664150E-01
   7150.33  5.3491742E-01
   7150.67  5.3293174E-01
   7151.00  5.3067192E-01
   7151.33  5.2810193E-01
   7151.67  5.2526835E-01
   7152.00  5.2219149E-01
   7152.33  5.1887783E-01
   7152.67  5.1539291E-01
   7153.00  5.1177179E-01
   7153.33  5.0803744E-01
   7153.67  5.0422568E-01
   7154.00  5.0034374E-01
   7154.33  4.9637279E-01
   7154.67  4.9229535E-01
   7155.00  4.8807730E-01
   7155.33  4.8365299E-01
   7155.67  4.7901329E-01
   7156.00  4.7414952E-01
   7156.33  4.6905309E-01
   7156.67  4.6379592E-01
   7157.00  4.5843453E-01
   7157.33  4.5303855E-01
   7157.67  4.4768364E-01
   7158.00  4.4242494E-01
   7158.33  4.3733331E-01
   7158.67  4.3242957E-01
   7159.00  4.2773949E-01
   7159.33  4.2331593E-01
   7159.67  4.1914733E-01
   7160.00  4.1524635E-01
   7160.33  4.1165990E-01
   7160.67  4.0836300E-01
   7161.00  4.0536341E-01
   7161.33  4.0270545E-01
   7161.67  4.0035373E-01
   7162.00  3.9830751E-01
   7162.33  3.9659960E-01
   7162.67  3.9518327E-01
   7163.00  3.9404720E-01
   7163.33  3.9320801E-01
   7163.67  3.9261482E-01
   7164.00  3.9225227E-01
   7164.33  3.9213009E-01
   7164.67  3.9220627E-01
   7165.00  3.9246942E-01
   7165.33  3.9293081E-01
   7165.67  3.9356008E-01
   7166.00  3.9435164E-01
   7166.33  3.9532007E-01
   7166.67  3.9644110E-01
   7167.00  3.9771037E-01
   7167.33  3.9913980E-01
   7167.67  4.0070442E-01
   7168.00  4.0239672E-01
   7168.33  4.0422091E-01
   7168.67  4.0614928E-01
   7169.00  4.0816787E-01
   7169.33  4.1026602E-01
   7169.67  4.1241239E-01
   7170.00  4.1458544E-01
   7170.33  4.1675722E-01
   7170.67  4.1889522E-01
   7171.00  4.2096443E-01
   7171.33  4.2289202E-01
   7171.67  4.2460308E-01
   7172.00  4.2598764E-01
