    FDMNES
    energy     <xanes>
   7097.00  4.7858825E-03
   7097.33  4.8975716E-03
   7097.67  5.0142278E-03
   7098.00  5.1361818E-03
   7098.33  5.2645740E-03
   7098.67  5.3991623E-03
   7099.00  5.5403960E-03
   7099.33  5.6897614E-03
   7099.67  5.8470094E-03
   7100.00  6.0127674E-03
   7100.33  6.1890231E-03
   7100.67  6.3755432E-03
   7101.00  6.5732316E-03
   7101.33  6.7848315E-03
   7101.67  7.0101758E-03
   7102.00  7.2506172E-03
   7102.33  7.5100876E-03
   7102.67  7.7885989E-03
   7103.00  8.0882708E-03
   7103.33  8.4150086E-03
   7103.67  8.7692627E-03
   7104.00  9.1545489E-03
   7104.33  9.5802727E-03
   7104.67  1.0047952E-02
   7105.00  1.0563853E-02
   7105.33  1.1144140E-02
   7105.67  1.1793048E-02
   7106.00  1.2522860E-02
   7106.33  1.3364318E-02
   7106.67  1.4329275E-02
   7107.00  1.5445127E-02
   7107.33  1.6779310E-02
   7107.67  1.8368539E-02
   7108.00  2.0286574E-02
   7108.33  2.2716497E-02
   7108.67  2.5798849E-02
   7109.00  2.9799937E-02
   7109.33  3.5421388E-02
   7109.67  4.3447521E-02
   7110.00  5.5416001E-02
   7110.33  7.5762558E-02
   7110.67  1.0940588E-01
   7111.00  1.5847580E-01
   7111.33  2.0893457E-01
   7111.67  2.3764571E-01
   7112.00  2.4529067E-01
   7112.33  2.5835202E-01
   7112.67  2.7543162E-01
   7113.00  2.7534868E-01
   7113.33  2.6010627E-01
   7113.67  2.5872089E-01
   7114.00  2.8112493E-01
   7114.33  3.0836822E-01
   7114.67  2.9593795E-01
   7115.00  2.4357290E-01
   7115.33  1.9201214E-01
   7115.67  1.5798345E-01
   7116.00  1.3933901E-01
   7116.33  1.3265329E-01
   7116.67  1.3282036E-01
   7117.00  1.3656363E-01
   7117.33  1.4005818E-01
   7117.67  1.4310341E-01
   7118.00  1.4935221E-01
   7118.33  1.6251106E-01
   7118.67  1.8016627E-01
   7119.00  1.9836201E-01
   7119.33  2.1239205E-01
   7119.67  2.2273313E-01
   7120.00  2.3216764E-01
   7120.33  2.4351277E-01
   7120.67  2.5711904E-01
   7121.00  2.7239822E-01
   7121.33  2.8795258E-01
   7121.67  3.0165453E-01
   7122.00  3.1195783E-01
   7122.33  3.1831063E-01
   7122.67  3.2268174E-01
   7123.00  3.2678562E-01
   7123.33  3.3270933E-01
   7123.67  3.4166901E-01
   7124.00  3.5416408E-01
   7124.33  3.6994234E-01
   7124.67  3.8668542E-01
   7125.00  4.0282634E-01
   7125.33  4.1801442E-01
   7125.67  4.3250264E-01
   7126.00  4.4604194E-01
   7126.33  4.5868043E-01
   7126.67  4.7115488E-01
   7127.00  4.8351917E-01
   7127.33  4.9468132E-01
   7127.67  5.0336335E-01
   7128.00  5.0870203E-01
   7128.33  5.1046423E-01
   7128.67  5.1038106E-01
   7129.00  5.0936068E-01
   7129.33  5.0742192E-01
   7129.67  5.0470505E-01
   7130.00  5.0161166E-01
   7130.33  4.9918049E-01
   7130.67  4.9873269E-01
   7131.00  5.0143099E-01
   7131.33  5.0853489E-01
   7131.67  5.1935913E-01
   7132.00  5.3295759E-01
   7132.33  5.4784557E-01
   7132.67  5.6223027E-01
   7133.00  5.7487055E-01
   7133.33  5.8396568E-01
   7133.67  5.8858079E-01
   7134.00  5.8817745E-01
   7134.33  5.8312189E-01
   7134.67  5.7623907E-01
   7135.00  5.6966265E-01
   7135.33  5.6537169E-01
   7135.67  5.6396804E-01
   7136.00  5.6570474E-01
   7136.33  5.7090766E-01
   7136.67  5.7889331E-01
   7137.00  5.8927930E-01
   7137.33  6.0170212E-01
   7137.67  6.1514444E-01
   7138.00  6.2874466E-01
   7138.33  6.4124755E-01
   7138.67  6.5176252E-01
   7139.00  6.5978671E-01
   7139.33  6.6503842E-01
   7139.67  6.6838970E-01
   7140.00  6.7049407E-01
   7140.33  6.7194105E-01
   7140.67  6.7321283E-01
   7141.00  6.7443873E-01
   7141.33  6.7551140E-01
   7141.67  6.7612625E-01
   7142.00  6.7588075E-01
   7142.33  6.7411692E-01
   7142.67  6.7066149E-01
   7143.00  6.6543818E-01
   7143.33  6.5840325E-01
   7143.67  6.5006542E-01
   7144.00  6.4071071E-01
   7144.33  6.3055481E-01
   7144.67  6.1996666E-01
   7145.00  6.0918494E-01
   7145.33  5.9850582E-01
   7145.67  5.8819946E-01
   7146.00  5.7848831E-01
   7146.33  5.6968590E-01
   7146.67  5.6183354E-01
   7147.00  5.5498989E-01
   7147.33  5.4928111E-01
   7147.67  5.4452689E-01
   7148.00  5.4065466E-01
   7148.33  5.3766587E-01
   7148.67  5.3535821E-01
   7149.00  5.3363810E-01
   7149.33  5.3247777E-01
   7149.67  5.3173940E-01
   7150.00  5.3136081E-01
   7150.33  5.3130607E-01
   7150.67  5.3146572E-01
   7151.00  5.3177294E-01
   7151.33  5.3215392E-01
   7151.67  5.3252281E-01
   7152.00  5.3281960E-01
   7152.33  5.3295991E-01
   7152.67  5.3290902E-01
   7153.00  5.3263593E-01
   7153.33  5.3208436E-01
   7153.67  5.3126858E-01
   7154.00  5.3017566E-01
   7154.33  5.2874768E-01
   7154.67  5.2698993E-01
   7155.00  5.2486467E-01
   7155.33  5.2226574E-01
   7155.67  5.1918857E-01
   7156.00  5.1558775E-01
   7156.33  5.1135268E-01
   7156.67  5.0653639E-01
   7157.00  5.0114821E-01
   7157.33  4.9516376E-01
   7157.67  4.8872037E-01
   7158.00  4.8189555E-01
   7158.33  4.7475075E-01
   7158.67  4.6741069E-01
   7159.00  4.5993751E-01
   7159.33  4.5237359E-01
   7159.67  4.4476427E-01
   7160.00  4.3713169E-01
   7160.33  4.2950146E-01
   7160.67  4.2190721E-01
   7161.00  4.1438795E-01
   7161.33  4.0702141E-01
   7161.67  3.9986819E-01
   7162.00  3.9300317E-01
   7162.33  3.8656638E-01
   7162.67  3.8060219E-01
   7163.00  3.7518207E-01
   7163.33  3.7045084E-01
   7163.67  3.6638142E-01
   7164.00  3.6300013E-01
   7164.33  3.6040615E-01
   7164.67  3.5850566E-01
   7165.00  3.5728125E-01
   7165.33  3.5678058E-01
   7165.67  3.5687739E-01
   7166.00  3.5752201E-01
   7166.33  3.5870502E-01
   7166.67  3.6028545E-01
   7167.00  3.6218421E-01
   7167.33  3.6433023E-01
   7167.67  3.6659827E-01
   7168.00  3.6891116E-01
   7168.33  3.7118995E-01
   7168.67  3.7338401E-01
   7169.00  3.7546466E-01
   7169.33  3.7740243E-01
   7169.67  3.7921646E-01
   7170.00  3.8091846E-01
   7170.33  3.8251473E-01
   7170.67  3.8403272E-01
   7171.00  3.8547752E-01
   7171.33  3.8682422E-01
   7171.67  3.8803177E-01
   7172.00  3.8901811E-01
