    FDMNES
    energy     <xanes>
   7097.00  4.6385995E-03
   7097.33  4.7492727E-03
   7097.67  4.8651813E-03
   7098.00  4.9867013E-03
   7098.33  5.1150825E-03
   7098.67  5.2501088E-03
   7099.00  5.3923030E-03
   7099.33  5.5433294E-03
   7099.67  5.7029806E-03
   7100.00  5.8720042E-03
   7100.33  6.0526829E-03
   7100.67  6.2448539E-03
   7101.00  6.4496242E-03
   7101.33  6.6702340E-03
   7101.67  6.9066453E-03
   7102.00  7.1605648E-03
   7102.33  7.4367879E-03
   7102.67  7.7355784E-03
   7103.00  8.0597004E-03
   7103.33  8.4166210E-03
   7103.67  8.8073160E-03
   7104.00  9.2365410E-03
   7104.33  9.7166847E-03
   7104.67  1.0250444E-02
   7105.00  1.0846650E-02
   7105.33  1.1527597E-02
   7105.67  1.2300416E-02
   7106.00  1.3183223E-02
   7106.33  1.4220691E-02
   7106.67  1.5432657E-02
   7107.00  1.6861647E-02
   7107.33  1.8611551E-02
   7107.67  2.0744980E-02
   7108.00  2.3382970E-02
   7108.33  2.6826006E-02
   7108.67  3.1321213E-02
   7109.00  3.7330228E-02
   7109.33  4.6075446E-02
   7109.67  5.8974832E-02
   7110.00  7.8808412E-02
   7110.33  1.1379071E-01
   7110.67  1.7487892E-01
   7111.00  2.7367247E-01
   7111.33  3.7825063E-01
   7111.67  3.8824490E-01
   7112.00  3.1342742E-01
   7112.33  2.4510488E-01
   7112.67  2.1965490E-01
   7113.00  2.2674428E-01
   7113.33  2.4844548E-01
   7113.67  2.5780531E-01
   7114.00  2.5346001E-01
   7114.33  2.4905326E-01
   7114.67  2.4302613E-01
   7115.00  2.2441805E-01
   7115.33  1.8871689E-01
   7115.67  1.5209588E-01
   7116.00  1.2538365E-01
   7116.33  1.0857505E-01
   7116.67  9.3843987E-02
   7117.00  8.1883053E-02
   7117.33  7.4936213E-02
   7117.67  7.0434389E-02
   7118.00  6.6902436E-02
   7118.33  6.4819942E-02
   7118.67  6.4538066E-02
   7119.00  6.5805625E-02
   7119.33  6.8042067E-02
   7119.67  7.0599678E-02
   7120.00  7.3550102E-02
   7120.33  7.7480064E-02
   7120.67  8.2622341E-02
   7121.00  8.9129940E-02
   7121.33  9.7373881E-02
   7121.67  1.0735542E-01
   7122.00  1.1926141E-01
   7122.33  1.3361513E-01
   7122.67  1.5040472E-01
   7123.00  1.6978492E-01
   7123.33  1.9201223E-01
   7123.67  2.1652820E-01
   7124.00  2.4328456E-01
   7124.33  2.7261547E-01
   7124.67  3.0372285E-01
   7125.00  3.3537261E-01
   7125.33  3.6514698E-01
   7125.67  3.9099316E-01
   7126.00  4.1205358E-01
   7126.33  4.2865167E-01
   7126.67  4.4211761E-01
   7127.00  4.5199028E-01
   7127.33  4.5712528E-01
   7127.67  4.5861506E-01
   7128.00  4.5749796E-01
   7128.33  4.5434313E-01
   7128.67  4.4980978E-01
   7129.00  4.4470094E-01
   7129.33  4.4077549E-01
   7129.67  4.3931586E-01
   7130.00  4.4083263E-01
   7130.33  4.4578152E-01
   7130.67  4.5345562E-01
   7131.00  4.6314360E-01
   7131.33  4.7388536E-01
   7131.67  4.8486205E-01
   7132.00  4.9604032E-01
   7132.33  5.0786436E-01
   7132.67  5.2069844E-01
   7133.00  5.3490639E-01
   7133.33  5.5137452E-01
   7133.67  5.7088963E-01
   7134.00  5.9452705E-01
   7134.33  6.2381388E-01
   7134.67  6.5791390E-01
   7135.00  6.9539555E-01
   7135.33  7.3332372E-01
   7135.67  7.6788272E-01
   7136.00  7.9581585E-01
   7136.33  8.1296677E-01
   7136.67  8.1934835E-01
   7137.00  8.1579162E-01
   7137.33  8.0419981E-01
   7137.67  7.8891378E-01
   7138.00  7.7243081E-01
   7138.33  7.5679028E-01
   7138.67  7.4291780E-01
   7139.00  7.3115576E-01
   7139.33  7.2179978E-01
   7139.67  7.1438538E-01
   7140.00  7.0862430E-01
   7140.33  7.0421517E-01
   7140.67  7.0045632E-01
   7141.00  6.9683576E-01
   7141.33  6.9274769E-01
   7141.67  6.8785364E-01
   7142.00  6.8202472E-01
   7142.33  6.7526539E-01
   7142.67  6.6799636E-01
   7143.00  6.6056618E-01
   7143.33  6.5339218E-01
   7143.67  6.4674604E-01
   7144.00  6.4079081E-01
   7144.33  6.3570527E-01
   7144.67  6.3137938E-01
   7145.00  6.2774328E-01
   7145.33  6.2474508E-01
   7145.67  6.2219968E-01
   7146.00  6.2004935E-01
   7146.33  6.1833192E-01
   7146.67  6.1704378E-01
   7147.00  6.1625382E-01
   7147.33  6.1613055E-01
   7147.67  6.1668609E-01
   7148.00  6.1797119E-01
   7148.33  6.2009512E-01
   7148.67  6.2292084E-01
   7149.00  6.2635484E-01
   7149.33  6.3027167E-01
   7149.67  6.3436261E-01
   7150.00  6.3835050E-01
   7150.33  6.4181211E-01
   7150.67  6.4443858E-01
   7151.00  6.4594008E-01
   7151.33  6.4586575E-01
   7151.67  6.4421400E-01
   7152.00  6.4093219E-01
   7152.33  6.3587541E-01
   7152.67  6.2939710E-01
   7153.00  6.2168752E-01
   7153.33  6.1287966E-01
   7153.67  6.0336214E-01
   7154.00  5.9335106E-01
   7154.33  5.8303136E-01
   7154.67  5.7261571E-01
   7155.00  5.6222223E-01
   7155.33  5.5196139E-01
   7155.67  5.4187336E-01
   7156.00  5.3197808E-01
   7156.33  5.2229703E-01
   7156.67  5.1278667E-01
   7157.00  5.0342987E-01
   7157.33  4.9423698E-01
   7157.67  4.8518569E-01
   7158.00  4.7627256E-01
   7158.33  4.6751740E-01
   7158.67  4.5891174E-01
   7159.00  4.5046603E-01
   7159.33  4.4221193E-01
   7159.67  4.3413387E-01
   7160.00  4.2623282E-01
   7160.33  4.1852834E-01
   7160.67  4.1099752E-01
   7161.00  4.0364495E-01
   7161.33  3.9650990E-01
   7161.67  3.8959713E-01
   7162.00  3.8294342E-01
   7162.33  3.7664195E-01
   7162.67  3.7071589E-01
   7163.00  3.6522076E-01
   7163.33  3.6027749E-01
   7163.67  3.5587495E-01
   7164.00  3.5204652E-01
   7164.33  3.4889156E-01
   7164.67  3.4634465E-01
   7165.00  3.4440009E-01
   7165.33  3.4310278E-01
   7165.67  3.4234716E-01
   7166.00  3.4210370E-01
   7166.33  3.4239162E-01
   7166.67  3.4310732E-01
   7167.00  3.4421019E-01
   7167.33  3.4569419E-01
   7167.67  3.4746905E-01
   7168.00  3.4949451E-01
   7168.33  3.5175178E-01
   7168.67  3.5417495E-01
   7169.00  3.5673361E-01
   7169.33  3.5940933E-01
   7169.67  3.6215973E-01
   7170.00  3.6495950E-01
   7170.33  3.6777916E-01
   7170.67  3.7057805E-01
   7171.00  3.7331194E-01
   7171.33  3.7588516E-01
   7171.67  3.7818492E-01
   7172.00  3.8004837E-01
