    FDMNES
    energy     <xanes>
   7097.00  4.0114215E-03
   7097.33  4.0883557E-03
   7097.67  4.1681092E-03
   7098.00  4.2508473E-03
   7098.33  4.3371810E-03
   7098.67  4.4269450E-03
   7099.00  4.5203609E-03
   7099.33  4.6182071E-03
   7099.67  4.7203117E-03
   7100.00  4.8269809E-03
   7100.33  4.9392349E-03
   7100.67  5.0569066E-03
   7101.00  5.1804343E-03
   7101.33  5.3112028E-03
   7101.67  5.4490752E-03
   7102.00  5.5947069E-03
   7102.33  5.7500591E-03
   7102.67  5.9150843E-03
   7103.00  6.0908139E-03
   7103.33  6.2801768E-03
   7103.67  6.4833520E-03
   7104.00  6.7020687E-03
   7104.33  6.9410014E-03
   7104.67  7.2008927E-03
   7105.00  7.4848789E-03
   7105.33  7.8010782E-03
   7105.67  8.1516976E-03
   7106.00  8.5430261E-03
   7106.33  8.9908059E-03
   7106.67  9.5014121E-03
   7107.00  1.0089258E-02
   7107.33  1.0789787E-02
   7107.67  1.1623161E-02
   7108.00  1.2629242E-02
   7108.33  1.3906938E-02
   7108.67  1.5534291E-02
   7109.00  1.7657918E-02
   7109.33  2.0663599E-02
   7109.67  2.4985081E-02
   7110.00  3.1468268E-02
   7110.33  4.2552775E-02
   7110.67  6.1043399E-02
   7111.00  8.8710128E-02
   7111.33  1.2028049E-01
   7111.67  1.4635784E-01
   7112.00  1.6179590E-01
   7112.33  1.5907074E-01
   7112.67  1.3911310E-01
   7113.00  1.0717946E-01
   7113.33  7.9561936E-02
   7113.67  6.0541618E-02
   7114.00  4.8390883E-02
   7114.33  4.1488100E-02
   7114.67  3.7557794E-02
   7115.00  3.5104125E-02
   7115.33  3.2999651E-02
   7115.67  3.1722494E-02
   7116.00  3.1504740E-02
   7116.33  3.2205848E-02
   7116.67  3.3371013E-02
   7117.00  3.4654838E-02
   7117.33  3.5714836E-02
   7117.67  3.6586238E-02
   7118.00  3.7510951E-02
   7118.33  3.8814505E-02
   7118.67  4.0607188E-02
   7119.00  4.2944677E-02
   7119.33  4.5974033E-02
   7119.67  4.9763427E-02
   7120.00  5.4503779E-02
   7120.33  6.0624457E-02
   7120.67  6.8317629E-02
   7121.00  7.7925602E-02
   7121.33  9.0186562E-02
   7121.67  1.0542022E-01
   7122.00  1.2442869E-01
   7122.33  1.4869142E-01
   7122.67  1.7698924E-01
   7123.00  2.0627546E-01
   7123.33  2.3181683E-01
   7123.67  2.5500809E-01
   7124.00  2.8019842E-01
   7124.33  3.1005816E-01
   7124.67  3.4309910E-01
   7125.00  3.7942510E-01
   7125.33  4.2050624E-01
   7125.67  4.6333510E-01
   7126.00  5.0326862E-01
   7126.33  5.3687758E-01
   7126.67  5.6391317E-01
   7127.00  5.8199746E-01
   7127.33  5.9122255E-01
   7127.67  6.0021087E-01
   7128.00  6.1545518E-01
   7128.33  6.4189164E-01
   7128.67  6.7888189E-01
   7129.00  7.2532415E-01
   7129.33  7.7848076E-01
   7129.67  8.3143710E-01
   7130.00  8.7800501E-01
   7130.33  9.1257454E-01
   7130.67  9.3787365E-01
   7131.00  9.5727649E-01
   7131.33  9.7116698E-01
   7131.67  9.7615698E-01
   7132.00  9.6735852E-01
   7132.33  9.4048804E-01
   7132.67  9.0106707E-01
   7133.00  8.5481382E-01
   7133.33  8.0802109E-01
   7133.67  7.6536834E-01
   7134.00  7.2936172E-01
   7134.33  7.0187211E-01
   7134.67  6.8080707E-01
   7135.00  6.6440203E-01
   7135.33  6.5116957E-01
   7135.67  6.3959333E-01
   7136.00  6.2915990E-01
   7136.33  6.1970970E-01
   7136.67  6.1103305E-01
   7137.00  6.0310343E-01
   7137.33  5.9602929E-01
   7137.67  5.8977857E-01
   7138.00  5.8445088E-01
   7138.33  5.8035492E-01
   7138.67  5.7757886E-01
   7139.00  5.7634538E-01
   7139.33  5.7715169E-01
   7139.67  5.8002373E-01
   7140.00  5.8513831E-01
   7140.33  5.9292188E-01
   7140.67  6.0309767E-01
   7141.00  6.1557719E-01
   7141.33  6.3038915E-01
   7141.67  6.4694372E-01
   7142.00  6.6491636E-01
   7142.33  6.8398541E-01
   7142.67  7.0350520E-01
   7143.00  7.2296580E-01
   7143.33  7.4160538E-01
   7143.67  7.5875962E-01
   7144.00  7.7372440E-01
   7144.33  7.8528106E-01
   7144.67  7.9302891E-01
   7145.00  7.9642939E-01
   7145.33  7.9451256E-01
   7145.67  7.8782506E-01
   7146.00  7.7660979E-01
   7146.33  7.6093650E-01
   7146.67  7.4206980E-01
   7147.00  7.2073821E-01
   7147.33  6.9757478E-01
   7147.67  6.7352178E-01
   7148.00  6.4908227E-01
   7148.33  6.2472585E-01
   7148.67  6.0080915E-01
   7149.00  5.7758487E-01
   7149.33  5.5536708E-01
   7149.67  5.3412805E-01
   7150.00  5.1388775E-01
   7150.33  4.9477029E-01
   7150.67  4.7663422E-01
   7151.00  4.5945857E-01
   7151.33  4.4331479E-01
   7151.67  4.2802665E-01
   7152.00  4.1353802E-01
   7152.33  3.9987710E-01
   7152.67  3.8689960E-01
   7153.00  3.7457318E-01
   7153.33  3.6293794E-01
   7153.67  3.5188650E-01
   7154.00  3.4140383E-01
   7154.33  3.3155448E-01
   7154.67  3.2227256E-01
   7155.00  3.1356827E-01
   7155.33  3.0553131E-01
   7155.67  2.9810311E-01
   7156.00  2.9129347E-01
   7156.33  2.8518277E-01
   7156.67  2.7968527E-01
   7157.00  2.7478584E-01
   7157.33  2.7053046E-01
   7157.67  2.6681808E-01
   7158.00  2.6362494E-01
   7158.33  2.6099407E-01
   7158.67  2.5885897E-01
   7159.00  2.5723138E-01
   7159.33  2.5620700E-01
   7159.67  2.5575104E-01
   7160.00  2.5587460E-01
   7160.33  2.5660409E-01
   7160.67  2.5774684E-01
   7161.00  2.5914697E-01
   7161.33  2.6068608E-01
   7161.67  2.6238186E-01
   7162.00  2.6440354E-01
   7162.33  2.6708429E-01
   7162.67  2.7053932E-01
   7163.00  2.7482577E-01
   7163.33  2.8001522E-01
   7163.67  2.8590909E-01
   7164.00  2.9238683E-01
   7164.33  2.9933702E-01
   7164.67  3.0653392E-01
   7165.00  3.1383293E-01
   7165.33  3.2107653E-01
   7165.67  3.2814675E-01
   7166.00  3.3496266E-01
   7166.33  3.4142089E-01
   7166.67  3.4752685E-01
   7167.00  3.5326889E-01
   7167.33  3.5860211E-01
   7167.67  3.6358424E-01
   7168.00  3.6823360E-01
   7168.33  3.7254152E-01
   7168.67  3.7658237E-01
   7169.00  3.8039233E-01
   7169.33  3.8399577E-01
   7169.67  3.8746632E-01
   7170.00  3.9084783E-01
   7170.33  3.9418205E-01
   7170.67  3.9750774E-01
   7171.00  4.0083049E-01
   7171.33  4.0409520E-01
   7171.67  4.0714831E-01
   7172.00  4.0973505E-01
