    FDMNES
    energy     <xanes>
   7097.00  5.1284059E-03
   7097.33  5.2506971E-03
   7097.67  5.3785750E-03
   7098.00  5.5124185E-03
   7098.33  5.6535222E-03
   7098.67  5.8016228E-03
   7099.00  5.9572363E-03
   7099.33  6.1220554E-03
   7099.67  6.2958102E-03
   7100.00  6.4792223E-03
   7100.33  6.6745625E-03
   7100.67  6.8815797E-03
   7101.00  7.1013146E-03
   7101.33  7.3369081E-03
   7101.67  7.5881855E-03
   7102.00  7.8567040E-03
   7102.33  8.1469722E-03
   7102.67  8.4590194E-03
   7103.00  8.7952833E-03
   7103.33  9.1625379E-03
   7103.67  9.5613111E-03
   7104.00  9.9956384E-03
   7104.33  1.0476303E-02
   7104.67  1.1005045E-02
   7105.00  1.1589046E-02
   7105.33  1.2246815E-02
   7105.67  1.2983199E-02
   7106.00  1.3812259E-02
   7106.33  1.4769221E-02
   7106.67  1.5867713E-02
   7107.00  1.7139261E-02
   7107.33  1.8661604E-02
   7107.67  2.0477752E-02
   7108.00  2.2674123E-02
   7108.33  2.5466511E-02
   7108.67  2.9026503E-02
   7109.00  3.3681109E-02
   7109.33  4.0306363E-02
   7109.67  4.9937209E-02
   7110.00  6.4629720E-02
   7110.33  9.0318941E-02
   7110.67  1.3236996E-01
   7111.00  1.8572283E-01
   7111.33  2.1159371E-01
   7111.67  2.0763443E-01
   7112.00  2.0536577E-01
   7112.33  2.2295370E-01
   7112.67  2.6293694E-01
   7113.00  3.3220847E-01
   7113.33  4.1791718E-01
   7113.67  4.7083714E-01
   7114.00  4.5980634E-01
   7114.33  4.0284171E-01
   7114.67  3.4884981E-01
   7115.00  3.1319223E-01
   7115.33  2.9951359E-01
   7115.67  3.0048120E-01
   7116.00  3.0763716E-01
   7116.33  3.0724873E-01
   7116.67  2.9435521E-01
   7117.00  2.7269317E-01
   7117.33  2.4777896E-01
   7117.67  2.2334427E-01
   7118.00  2.0137722E-01
   7118.33  1.8362130E-01
   7118.67  1.6954551E-01
   7119.00  1.5852162E-01
   7119.33  1.4989695E-01
   7119.67  1.4257848E-01
   7120.00  1.3623553E-01
   7120.33  1.3124637E-01
   7120.67  1.2788780E-01
   7121.00  1.2622076E-01
   7121.33  1.2616320E-01
   7121.67  1.2727531E-01
   7122.00  1.2949190E-01
   7122.33  1.3289310E-01
   7122.67  1.3718588E-01
   7123.00  1.4228327E-01
   7123.33  1.4843804E-01
   7123.67  1.5592478E-01
   7124.00  1.6526241E-01
   7124.33  1.7762210E-01
   7124.67  1.9378505E-01
   7125.00  2.1492777E-01
   7125.33  2.4324211E-01
   7125.67  2.7842906E-01
   7126.00  3.1871759E-01
   7126.33  3.5808195E-01
   7126.67  3.8946426E-01
   7127.00  4.0972193E-01
   7127.33  4.1770343E-01
   7127.67  4.1879677E-01
   7128.00  4.1930097E-01
   7128.33  4.2611809E-01
   7128.67  4.4059925E-01
   7129.00  4.6221936E-01
   7129.33  4.9070391E-01
   7129.67  5.2452987E-01
   7130.00  5.6299072E-01
   7130.33  6.0539067E-01
   7130.67  6.5026720E-01
   7131.00  6.9756601E-01
   7131.33  7.4879895E-01
   7131.67  8.0435742E-01
   7132.00  8.6296332E-01
   7132.33  9.1943826E-01
   7132.67  9.6695157E-01
   7133.00  1.0005359E+00
   7133.33  1.0159781E+00
   7133.67  1.0164679E+00
   7134.00  1.0042496E+00
   7134.33  9.8071983E-01
   7134.67  9.4937402E-01
   7135.00  9.1196354E-01
   7135.33  8.7006275E-01
   7135.67  8.2616791E-01
   7136.00  7.8174210E-01
   7136.33  7.3818072E-01
   7136.67  6.9628653E-01
   7137.00  6.5659271E-01
   7137.33  6.1987794E-01
   7137.67  5.8616360E-01
   7138.00  5.5572446E-01
   7138.33  5.2930611E-01
   7138.67  5.0669906E-01
   7139.00  4.8801299E-01
   7139.33  4.7372835E-01
   7139.67  4.6318848E-01
   7140.00  4.5612748E-01
   7140.33  4.5251478E-01
   7140.67  4.5150466E-01
   7141.00  4.5270977E-01
   7141.33  4.5595740E-01
   7141.67  4.6069675E-01
   7142.00  4.6671174E-01
   7142.33  4.7394579E-01
   7142.67  4.8211588E-01
   7143.00  4.9111403E-01
   7143.33  5.0090668E-01
   7143.67  5.1127352E-01
   7144.00  5.2208581E-01
   7144.33  5.3320621E-01
   7144.67  5.4440412E-01
   7145.00  5.5549352E-01
   7145.33  5.6620710E-01
   7145.67  5.7636534E-01
   7146.00  5.8578563E-01
   7146.33  5.9415352E-01
   7146.67  6.0141631E-01
   7147.00  6.0745864E-01
   7147.33  6.1202438E-01
   7147.67  6.1523331E-01
   7148.00  6.1708451E-01
   7148.33  6.1745217E-01
   7148.67  6.1657796E-01
   7149.00  6.1455309E-01
   7149.33  6.1138172E-01
   7149.67  6.0734861E-01
   7150.00  6.0260148E-01
   7150.33  5.9725177E-01
   7150.67  5.9154979E-01
   7151.00  5.8565269E-01
   7151.33  5.7973351E-01
   7151.67  5.7395487E-01
   7152.00  5.6843692E-01
   7152.33  5.6334208E-01
   7152.67  5.5871201E-01
   7153.00  5.5460148E-01
   7153.33  5.5111867E-01
   7153.67  5.4820900E-01
   7154.00  5.4587113E-01
   7154.33  5.4415823E-01
   7154.67  5.4297578E-01
   7155.00  5.4230003E-01
   7155.33  5.4216302E-01
   7155.67  5.4247812E-01
   7156.00  5.4322300E-01
   7156.33  5.4442211E-01
   7156.67  5.4599784E-01
   7157.00  5.4791991E-01
   7157.33  5.5017713E-01
   7157.67  5.5267023E-01
   7158.00  5.5533488E-01
   7158.33  5.5809469E-01
   7158.67  5.6084203E-01
   7159.00  5.6348921E-01
   7159.33  5.6590931E-01
   7159.67  5.6803199E-01
   7160.00  5.6978378E-01
   7160.33  5.7103717E-01
   7160.67  5.7179172E-01
   7161.00  5.7201205E-01
   7161.33  5.7159937E-01
   7161.67  5.7060985E-01
   7162.00  5.6904247E-01
   7162.33  5.6683848E-01
   7162.67  5.6409572E-01
   7163.00  5.6084569E-01
   7163.33  5.5707103E-01
   7163.67  5.5287655E-01
   7164.00  5.4830628E-01
   7164.33  5.4337128E-01
   7164.67  5.3816222E-01
   7165.00  5.3272057E-01
   7165.33  5.2706777E-01
   7165.67  5.2126909E-01
   7166.00  5.1535773E-01
   7166.33  5.0935810E-01
   7166.67  5.0331032E-01
   7167.00  4.9723772E-01
   7167.33  4.9116341E-01
   7167.67  4.8510812E-01
   7168.00  4.7908930E-01
   7168.33  4.7313512E-01
   7168.67  4.6726059E-01
   7169.00  4.6148613E-01
   7169.33  4.5585408E-01
   7169.67  4.5037937E-01
   7170.00  4.4509289E-01
   7170.33  4.4006438E-01
   7170.67  4.3531147E-01
   7171.00  4.3088040E-01
   7171.33  4.2689641E-01
   7171.67  4.2343726E-01
   7172.00  4.2065777E-01
