    FDMNES
    energy     <xanes>
   7097.00  4.9293720E-03
   7097.33  5.0463006E-03
   7097.67  5.1686838E-03
   7098.00  5.2969073E-03
   7098.33  5.4322620E-03
   7098.67  5.5745136E-03
   7099.00  5.7241955E-03
   7099.33  5.8830189E-03
   7099.67  6.0507550E-03
   7100.00  6.2281625E-03
   7100.33  6.4175762E-03
   7100.67  6.6188071E-03
   7101.00  6.8329726E-03
   7101.33  7.0633675E-03
   7101.67  7.3099200E-03
   7102.00  7.5743426E-03
   7102.33  7.8614798E-03
   7102.67  8.1715475E-03
   7103.00  8.5073013E-03
   7103.33  8.8762302E-03
   7103.67  9.2792321E-03
   7104.00  9.7210143E-03
   7104.33  1.0213901E-02
   7104.67  1.0760438E-02
   7105.00  1.1369296E-02
   7105.33  1.2062449E-02
   7105.67  1.2846675E-02
   7106.00  1.3739595E-02
   7106.33  1.4784771E-02
   7106.67  1.6001034E-02
   7107.00  1.7429299E-02
   7107.33  1.9169628E-02
   7107.67  2.1281111E-02
   7108.00  2.3878791E-02
   7108.33  2.7248204E-02
   7108.67  3.1621078E-02
   7109.00  3.7431739E-02
   7109.33  4.5830688E-02
   7109.67  5.8148046E-02
   7110.00  7.6989725E-02
   7110.33  1.0987237E-01
   7110.67  1.6482290E-01
   7111.00  2.4372009E-01
   7111.33  3.2484017E-01
   7111.67  3.8430356E-01
   7112.00  4.0752812E-01
   7112.33  3.7166513E-01
   7112.67  2.9518395E-01
   7113.00  2.2269493E-01
   7113.33  1.8043287E-01
   7113.67  1.6389926E-01
   7114.00  1.6923092E-01
   7114.33  1.8567229E-01
   7114.67  1.9117548E-01
   7115.00  1.9353834E-01
   7115.33  2.1585133E-01
   7115.67  2.4393145E-01
   7116.00  2.4329457E-01
   7116.33  2.0725040E-01
   7116.67  1.7089085E-01
   7117.00  1.4538014E-01
   7117.33  1.3216873E-01
   7117.67  1.2828012E-01
   7118.00  1.3271164E-01
   7118.33  1.4117030E-01
   7118.67  1.4359679E-01
   7119.00  1.3734320E-01
   7119.33  1.2772280E-01
   7119.67  1.1927788E-01
   7120.00  1.1283249E-01
   7120.33  1.0882060E-01
   7120.67  1.0720929E-01
   7121.00  1.0824359E-01
   7121.33  1.1240334E-01
   7121.67  1.1923300E-01
   7122.00  1.2847655E-01
   7122.33  1.3997340E-01
   7122.67  1.5296262E-01
   7123.00  1.6690639E-01
   7123.33  1.8114634E-01
   7123.67  1.9501546E-01
   7124.00  2.0810446E-01
   7124.33  2.2035904E-01
   7124.67  2.3299169E-01
   7125.00  2.4750947E-01
   7125.33  2.6561168E-01
   7125.67  2.8697123E-01
   7126.00  3.1052393E-01
   7126.33  3.3422824E-01
   7126.67  3.5613950E-01
   7127.00  3.7527706E-01
   7127.33  3.9107036E-01
   7127.67  4.0478564E-01
   7128.00  4.1802073E-01
   7128.33  4.3342130E-01
   7128.67  4.5317049E-01
   7129.00  4.7912981E-01
   7129.33  5.1405460E-01
   7129.67  5.5755906E-01
   7130.00  6.0881345E-01
   7130.33  6.6689107E-01
   7130.67  7.3019911E-01
   7131.00  7.9852438E-01
   7131.33  8.6970243E-01
   7131.67  9.3594932E-01
   7132.00  9.8804656E-01
   7132.33  1.0157272E+00
   7132.67  1.0229402E+00
   7133.00  1.0162466E+00
   7133.33  1.0026366E+00
   7133.67  9.8678119E-01
   7134.00  9.6893256E-01
   7134.33  9.4740680E-01
   7134.67  9.2156702E-01
   7135.00  8.9137833E-01
   7135.33  8.5721972E-01
   7135.67  8.2079309E-01
   7136.00  7.8323964E-01
   7136.33  7.4583578E-01
   7136.67  7.0972317E-01
   7137.00  6.7579648E-01
   7137.33  6.4530247E-01
   7137.67  6.1845321E-01
   7138.00  5.9549825E-01
   7138.33  5.7692733E-01
   7138.67  5.6203568E-01
   7139.00  5.5055264E-01
   7139.33  5.4252874E-01
   7139.67  5.3723897E-01
   7140.00  5.3434222E-01
   7140.33  5.3353293E-01
   7140.67  5.3381894E-01
   7141.00  5.3436808E-01
   7141.33  5.3403959E-01
   7141.67  5.3207888E-01
   7142.00  5.2811953E-01
   7142.33  5.2202347E-01
   7142.67  5.1458898E-01
   7143.00  5.0648908E-01
   7143.33  4.9852870E-01
   7143.67  4.9133366E-01
   7144.00  4.8527992E-01
   7144.33  4.8077674E-01
   7144.67  4.7771373E-01
   7145.00  4.7604465E-01
   7145.33  4.7579887E-01
   7145.67  4.7663754E-01
   7146.00  4.7837861E-01
   7146.33  4.8087438E-01
   7146.67  4.8380623E-01
   7147.00  4.8699666E-01
   7147.33  4.9030379E-01
   7147.67  4.9360528E-01
   7148.00  4.9683741E-01
   7148.33  4.9994718E-01
   7148.67  5.0294346E-01
   7149.00  5.0584573E-01
   7149.33  5.0869201E-01
   7149.67  5.1154907E-01
   7150.00  5.1447879E-01
   7150.33  5.1758132E-01
   7150.67  5.2091987E-01
   7151.00  5.2455558E-01
   7151.33  5.2859460E-01
   7151.67  5.3304315E-01
   7152.00  5.3791703E-01
   7152.33  5.4324965E-01
   7152.67  5.4894211E-01
   7153.00  5.5492323E-01
   7153.33  5.6109577E-01
   7153.67  5.6728246E-01
   7154.00  5.7332388E-01
   7154.33  5.7898457E-01
   7154.67  5.8411809E-01
   7155.00  5.8857115E-01
   7155.33  5.9208338E-01
   7155.67  5.9464382E-01
   7156.00  5.9619328E-01
   7156.33  5.9658332E-01
   7156.67  5.9597348E-01
   7157.00  5.9442488E-01
   7157.33  5.9193554E-01
   7157.67  5.8873554E-01
   7158.00  5.8494272E-01
   7158.33  5.8064149E-01
   7158.67  5.7602787E-01
   7159.00  5.7121772E-01
   7159.33  5.6632939E-01
   7159.67  5.6148613E-01
   7160.00  5.5677238E-01
   7160.33  5.5228238E-01
   7160.67  5.4801681E-01
   7161.00  5.4395916E-01
   7161.33  5.4006412E-01
   7161.67  5.3621032E-01
   7162.00  5.3229169E-01
   7162.33  5.2816575E-01
   7162.67  5.2376498E-01
   7163.00  5.1904746E-01
   7163.33  5.1396934E-01
   7163.67  5.0861043E-01
   7164.00  5.0302985E-01
   7164.33  4.9729253E-01
   7164.67  4.9150159E-01
   7165.00  4.8572680E-01
   7165.33  4.8005161E-01
   7165.67  4.7452640E-01
   7166.00  4.6919467E-01
   7166.33  4.6412545E-01
   7166.67  4.5931932E-01
   7167.00  4.5479436E-01
   7167.33  4.5060311E-01
   7167.67  4.4672518E-01
   7168.00  4.4316821E-01
   7168.33  4.3996593E-01
   7168.67  4.3706492E-01
   7169.00  4.3444902E-01
   7169.33  4.3212871E-01
   7169.67  4.3004679E-01
   7170.00  4.2818245E-01
   7170.33  4.2653760E-01
   7170.67  4.2506984E-01
   7171.00  4.2376930E-01
   7171.33  4.2265341E-01
   7171.67  4.2170947E-01
   7172.00  4.2095076E-01
