    FDMNES
    energy     <xanes>
   7097.00  4.8451227E-03
   7097.33  4.9591253E-03
   7097.67  5.0783503E-03
   7098.00  5.2031601E-03
   7098.33  5.3347796E-03
   7098.67  5.4729755E-03
   7099.00  5.6182469E-03
   7099.33  5.7722096E-03
   7099.67  5.9346319E-03
   7100.00  6.1062206E-03
   7100.33  6.2891677E-03
   7100.67  6.4832737E-03
   7101.00  6.6895729E-03
   7101.33  6.9111399E-03
   7101.67  7.1478739E-03
   7102.00  7.4013501E-03
   7102.33  7.6760559E-03
   7102.67  7.9721390E-03
   7103.00  8.2921136E-03
   7103.33  8.6428578E-03
   7103.67  9.0251097E-03
   7104.00  9.4431237E-03
   7104.33  9.9081044E-03
   7104.67  1.0422213E-02
   7105.00  1.0993198E-02
   7105.33  1.1640794E-02
   7105.67  1.2370792E-02
   7106.00  1.3198732E-02
   7106.33  1.4163167E-02
   7106.67  1.5280134E-02
   7107.00  1.6585170E-02
   7107.33  1.8165328E-02
   7107.67  2.0070583E-02
   7108.00  2.2399259E-02
   7108.33  2.5395473E-02
   7108.67  2.9253964E-02
   7109.00  3.4341597E-02
   7109.33  4.1630957E-02
   7109.67  5.2242884E-02
   7110.00  6.8379764E-02
   7110.33  9.6367727E-02
   7110.67  1.4247536E-01
   7111.00  2.0567471E-01
   7111.33  2.6128666E-01
   7111.67  2.9697304E-01
   7112.00  3.2013788E-01
   7112.33  3.3510359E-01
   7112.67  3.4011481E-01
   7113.00  3.4423559E-01
   7113.33  3.4510061E-01
   7113.67  3.2601235E-01
   7114.00  2.8381790E-01
   7114.33  2.3194501E-01
   7114.67  1.8637745E-01
   7115.00  1.5156969E-01
   7115.33  1.2783224E-01
   7115.67  1.1123779E-01
   7116.00  9.9861349E-02
   7116.33  9.2691395E-02
   7116.67  8.8316373E-02
   7117.00  8.6160723E-02
   7117.33  8.5901227E-02
   7117.67  8.6876564E-02
   7118.00  8.8784916E-02
   7118.33  9.1511720E-02
   7118.67  9.4874158E-02
   7119.00  9.8700051E-02
   7119.33  1.0229070E-01
   7119.67  1.0478131E-01
   7120.00  1.0611285E-01
   7120.33  1.0738047E-01
   7120.67  1.0998774E-01
   7121.00  1.1470447E-01
   7121.33  1.2237819E-01
   7121.67  1.3318384E-01
   7122.00  1.4768229E-01
   7122.33  1.6704951E-01
   7122.67  1.9072130E-01
   7123.00  2.1755882E-01
   7123.33  2.4482141E-01
   7123.67  2.6933703E-01
   7124.00  2.8997951E-01
   7124.33  3.0751092E-01
   7124.67  3.2424291E-01
   7125.00  3.4122576E-01
   7125.33  3.5865280E-01
   7125.67  3.7621397E-01
   7126.00  3.9422944E-01
   7126.33  4.1424165E-01
   7126.67  4.3748284E-01
   7127.00  4.6435772E-01
   7127.33  4.9411533E-01
   7127.67  5.2406667E-01
   7128.00  5.5192977E-01
   7128.33  5.7555661E-01
   7128.67  5.9564430E-01
   7129.00  6.1383242E-01
   7129.33  6.3289157E-01
   7129.67  6.5499619E-01
   7130.00  6.8083349E-01
   7130.33  7.0913348E-01
   7130.67  7.3571745E-01
   7131.00  7.5652012E-01
   7131.33  7.6684505E-01
   7131.67  7.6731094E-01
   7132.00  7.6043467E-01
   7132.33  7.5148210E-01
   7132.67  7.4617770E-01
   7133.00  7.4704853E-01
   7133.33  7.5446843E-01
   7133.67  7.6502175E-01
   7134.00  7.7624259E-01
   7134.33  7.8665834E-01
   7134.67  7.9635771E-01
   7135.00  8.0526039E-01
   7135.33  8.1240798E-01
   7135.67  8.1703095E-01
   7136.00  8.1846567E-01
   7136.33  8.1572533E-01
   7136.67  8.0915470E-01
   7137.00  7.9916269E-01
   7137.33  7.8655948E-01
   7137.67  7.7307683E-01
   7138.00  7.5986299E-01
   7138.33  7.4801149E-01
   7138.67  7.3779947E-01
   7139.00  7.2920279E-01
   7139.33  7.2193601E-01
   7139.67  7.1504990E-01
   7140.00  7.0765027E-01
   7140.33  6.9843788E-01
   7140.67  6.8676182E-01
   7141.00  6.7239294E-01
   7141.33  6.5561942E-01
   7141.67  6.3800046E-01
   7142.00  6.2084966E-01
   7142.33  6.0562868E-01
   7142.67  5.9275328E-01
   7143.00  5.8223526E-01
   7143.33  5.7385240E-01
   7143.67  5.6663882E-01
   7144.00  5.5996172E-01
   7144.33  5.5327768E-01
   7144.67  5.4635423E-01
   7145.00  5.3922072E-01
   7145.33  5.3207049E-01
   7145.67  5.2514980E-01
   7146.00  5.1863393E-01
   7146.33  5.1271157E-01
   7146.67  5.0734992E-01
   7147.00  5.0251034E-01
   7147.33  4.9814626E-01
   7147.67  4.9409547E-01
   7148.00  4.9028733E-01
   7148.33  4.8670367E-01
   7148.67  4.8332273E-01
   7149.00  4.8018025E-01
   7149.33  4.7737733E-01
   7149.67  4.7494160E-01
   7150.00  4.7291560E-01
   7150.33  4.7137474E-01
   7150.67  4.7025192E-01
   7151.00  4.6951065E-01
   7151.33  4.6912836E-01
   7151.67  4.6899604E-01
   7152.00  4.6906257E-01
   7152.33  4.6931362E-01
   7152.67  4.6973236E-01
   7153.00  4.7035679E-01
   7153.33  4.7130187E-01
   7153.67  4.7263246E-01
   7154.00  4.7443365E-01
   7154.33  4.7684764E-01
   7154.67  4.7983097E-01
   7155.00  4.8335232E-01
   7155.33  4.8736264E-01
   7155.67  4.9163490E-01
   7156.00  4.9597117E-01
   7156.33  5.0007132E-01
   7156.67  5.0366983E-01
   7157.00  5.0652496E-01
   7157.33  5.0826257E-01
   7157.67  5.0880836E-01
   7158.00  5.0804279E-01
   7158.33  5.0571928E-01
   7158.67  5.0201112E-01
   7159.00  4.9697664E-01
   7159.33  4.9059673E-01
   7159.67  4.8320779E-01
   7160.00  4.7500454E-01
   7160.33  4.6616835E-01
   7160.67  4.5702932E-01
   7161.00  4.4780476E-01
   7161.33  4.3875187E-01
   7161.67  4.3005993E-01
   7162.00  4.2187031E-01
   7162.33  4.1437911E-01
   7162.67  4.0758861E-01
   7163.00  4.0154601E-01
   7163.33  3.9637267E-01
   7163.67  3.9196402E-01
   7164.00  3.8829069E-01
   7164.33  3.8538161E-01
   7164.67  3.8307997E-01
   7165.00  3.8131668E-01
   7165.33  3.8006424E-01
   7165.67  3.7918539E-01
   7166.00  3.7861933E-01
   7166.33  3.7833821E-01
   7166.67  3.7826385E-01
   7167.00  3.7836815E-01
   7167.33  3.7864980E-01
   7167.67  3.7907689E-01
   7168.00  3.7964260E-01
   7168.33  3.8035749E-01
   7168.67  3.8119995E-01
   7169.00  3.8216533E-01
   7169.33  3.8326109E-01
   7169.67  3.8446287E-01
   7170.00  3.8575947E-01
   7170.33  3.8714403E-01
   7170.67  3.8858439E-01
   7171.00  3.9005314E-01
   7171.33  3.9149625E-01
   7171.67  3.9282526E-01
   7172.00  3.9392110E-01
