    FDMNES
    energy     <xanes>
   7097.00  4.7713088E-03
   7097.33  4.8863369E-03
   7097.67  5.0067683E-03
   7098.00  5.1329854E-03
   7098.33  5.2662677E-03
   7098.67  5.4063837E-03
   7099.00  5.5538621E-03
   7099.33  5.7103989E-03
   7099.67  5.8757677E-03
   7100.00  6.0507202E-03
   7100.33  6.2375697E-03
   7100.67  6.4361287E-03
   7101.00  6.6475034E-03
   7101.33  6.8749572E-03
   7101.67  7.1184171E-03
   7102.00  7.3795776E-03
   7102.33  7.6632338E-03
   7102.67  7.9695957E-03
   7103.00  8.3013880E-03
   7103.33  8.6660180E-03
   7103.67  9.0643677E-03
   7104.00  9.5010883E-03
   7104.33  9.9883629E-03
   7104.67  1.0528700E-02
   7105.00  1.1130667E-02
   7105.33  1.1815981E-02
   7105.67  1.2591341E-02
   7106.00  1.3474170E-02
   7106.33  1.4507566E-02
   7106.67  1.5710207E-02
   7107.00  1.7122672E-02
   7107.33  1.8844265E-02
   7107.67  2.0934005E-02
   7108.00  2.3506747E-02
   7108.33  2.6848073E-02
   7108.67  3.1192171E-02
   7109.00  3.6978532E-02
   7109.33  4.5376173E-02
   7109.67  5.7755568E-02
   7110.00  7.6811445E-02
   7110.33  1.1035044E-01
   7110.67  1.6667097E-01
   7111.00  2.4675539E-01
   7111.33  3.2013212E-01
   7111.67  3.5536452E-01
   7112.00  3.5140808E-01
   7112.33  3.2138830E-01
   7112.67  2.8325758E-01
   7113.00  2.4939293E-01
   7113.33  2.2625021E-01
   7113.67  2.0827198E-01
   7114.00  1.9368473E-01
   7114.33  1.8836113E-01
   7114.67  1.9805454E-01
   7115.00  2.2489160E-01
   7115.33  2.5958575E-01
   7115.67  2.7144776E-01
   7116.00  2.4609638E-01
   7116.33  2.0487027E-01
   7116.67  1.7101760E-01
   7117.00  1.4734302E-01
   7117.33  1.3201077E-01
   7117.67  1.2131075E-01
   7118.00  1.1383231E-01
   7118.33  1.0905217E-01
   7118.67  1.0620728E-01
   7119.00  1.0502224E-01
   7119.33  1.0557989E-01
   7119.67  1.0769921E-01
   7120.00  1.1112395E-01
   7120.33  1.1507794E-01
   7120.67  1.1885324E-01
   7121.00  1.2259015E-01
   7121.33  1.2641521E-01
   7121.67  1.3057403E-01
   7122.00  1.3641497E-01
   7122.33  1.4681690E-01
   7122.67  1.6229782E-01
   7123.00  1.8202134E-01
   7123.33  2.0492694E-01
   7123.67  2.2990125E-01
   7124.00  2.5634242E-01
   7124.33  2.8362871E-01
   7124.67  3.1227550E-01
   7125.00  3.4263773E-01
   7125.33  3.7224303E-01
   7125.67  3.9724996E-01
   7126.00  4.1525665E-01
   7126.33  4.2380003E-01
   7126.67  4.2440971E-01
   7127.00  4.1990294E-01
   7127.33  4.1524883E-01
   7127.67  4.1461772E-01
   7128.00  4.1981212E-01
   7128.33  4.3185968E-01
   7128.67  4.4919797E-01
   7129.00  4.7105978E-01
   7129.33  4.9674854E-01
   7129.67  5.2388993E-01
   7130.00  5.5057098E-01
   7130.33  5.7472678E-01
   7130.67  5.9493749E-01
   7131.00  6.0980902E-01
   7131.33  6.1835080E-01
   7131.67  6.2321921E-01
   7132.00  6.2732695E-01
   7132.33  6.3443954E-01
   7132.67  6.4658887E-01
   7133.00  6.6449446E-01
   7133.33  6.8767035E-01
   7133.67  7.1214195E-01
   7134.00  7.3360314E-01
   7134.33  7.4624063E-01
   7134.67  7.4915741E-01
   7135.00  7.4421997E-01
   7135.33  7.3446641E-01
   7135.67  7.2199235E-01
   7136.00  7.0635389E-01
   7136.33  6.8641306E-01
   7136.67  6.6311459E-01
   7137.00  6.3780927E-01
   7137.33  6.1269873E-01
   7137.67  5.9003396E-01
   7138.00  5.7141442E-01
   7138.33  5.5846873E-01
   7138.67  5.5042740E-01
   7139.00  5.4643162E-01
   7139.33  5.4550410E-01
   7139.67  5.4620590E-01
   7140.00  5.4799341E-01
   7140.33  5.5074589E-01
   7140.67  5.5434313E-01
   7141.00  5.5878260E-01
   7141.33  5.6406312E-01
   7141.67  5.6988132E-01
   7142.00  5.7598547E-01
   7142.33  5.8202986E-01
   7142.67  5.8767373E-01
   7143.00  5.9264895E-01
   7143.33  5.9661069E-01
   7143.67  5.9954866E-01
   7144.00  6.0145015E-01
   7144.33  6.0230434E-01
   7144.67  6.0246112E-01
   7145.00  6.0220666E-01
   7145.33  6.0192388E-01
   7145.67  6.0197246E-01
   7146.00  6.0255889E-01
   7146.33  6.0383063E-01
   7146.67  6.0560902E-01
   7147.00  6.0771582E-01
   7147.33  6.0992703E-01
   7147.67  6.1201242E-01
   7148.00  6.1381902E-01
   7148.33  6.1517216E-01
   7148.67  6.1606753E-01
   7149.00  6.1652463E-01
   7149.33  6.1659437E-01
   7149.67  6.1647020E-01
   7150.00  6.1631829E-01
   7150.33  6.1638128E-01
   7150.67  6.1685385E-01
   7151.00  6.1790062E-01
   7151.33  6.1975133E-01
   7151.67  6.2238418E-01
   7152.00  6.2580084E-01
   7152.33  6.3003842E-01
   7152.67  6.3488459E-01
   7153.00  6.4018122E-01
   7153.33  6.4571772E-01
   7153.67  6.5118867E-01
   7154.00  6.5633667E-01
   7154.33  6.6078463E-01
   7154.67  6.6433543E-01
   7155.00  6.6678893E-01
   7155.33  6.6780813E-01
   7155.67  6.6744004E-01
   7156.00  6.6563753E-01
   7156.33  6.6221381E-01
   7156.67  6.5738434E-01
   7157.00  6.5120634E-01
   7157.33  6.4361482E-01
   7157.67  6.3488369E-01
   7158.00  6.2513283E-01
   7158.33  6.1441577E-01
   7158.67  6.0302040E-01
   7159.00  5.9111307E-01
   7159.33  5.7885602E-01
   7159.67  5.6649066E-01
   7160.00  5.5418760E-01
   7160.33  5.4216945E-01
   7160.67  5.3056385E-01
   7161.00  5.1947134E-01
   7161.33  5.0905071E-01
   7161.67  4.9927479E-01
   7162.00  4.9015087E-01
   7162.33  4.8172859E-01
   7162.67  4.7386963E-01
   7163.00  4.6650348E-01
   7163.33  4.5958452E-01
   7163.67  4.5296427E-01
   7164.00  4.4656272E-01
   7164.33  4.4031610E-01
   7164.67  4.3414552E-01
   7165.00  4.2801638E-01
   7165.33  4.2191245E-01
   7165.67  4.1583617E-01
   7166.00  4.0981349E-01
   7166.33  4.0390734E-01
   7166.67  3.9817001E-01
   7167.00  3.9266080E-01
   7167.33  3.8747693E-01
   7167.67  3.8263240E-01
   7168.00  3.7815985E-01
   7168.33  3.7413188E-01
   7168.67  3.7050552E-01
   7169.00  3.6727501E-01
   7169.33  3.6447168E-01
   7169.67  3.6202556E-01
   7170.00  3.5991461E-01
   7170.33  3.5815064E-01
   7170.67  3.5666949E-01
   7171.00  3.5545034E-01
   7171.33  3.5449639E-01
   7171.67  3.5374497E-01
   7172.00  3.5315832E-01
