    FDMNES
    energy     <xanes>
   7097.00  4.0073615E-03
   7097.33  4.0894921E-03
   7097.67  4.1749996E-03
   7098.00  4.2641091E-03
   7098.33  4.3575977E-03
   7098.67  4.4553043E-03
   7099.00  4.5575398E-03
   7099.33  4.6653265E-03
   7099.67  4.7785069E-03
   7100.00  4.8975244E-03
   7100.33  5.0237673E-03
   7100.67  5.1571042E-03
   7101.00  5.2981916E-03
   7101.33  5.4489874E-03
   7101.67  5.6094364E-03
   7102.00  5.7805549E-03
   7102.33  5.9652323E-03
   7102.67  6.1636027E-03
   7103.00  6.3773246E-03
   7103.33  6.6109063E-03
   7103.67  6.8649344E-03
   7104.00  7.1422961E-03
   7104.33  7.4505276E-03
   7104.67  7.7913241E-03
   7105.00  8.1701343E-03
   7105.33  8.6007035E-03
   7105.67  9.0876272E-03
   7106.00  9.6423139E-03
   7106.33  1.0292860E-02
   7106.67  1.1052318E-02
   7107.00  1.1948158E-02
   7107.33  1.3047488E-02
   7107.67  1.4392496E-02
   7108.00  1.6063868E-02
   7108.33  1.8262664E-02
   7108.67  2.1160874E-02
   7109.00  2.5079598E-02
   7109.33  3.0878236E-02
   7109.67  3.9593079E-02
   7110.00  5.3265127E-02
   7110.33  7.7821712E-02
   7110.67  1.1942935E-01
   7111.00  1.7785005E-01
   7111.33  2.2833629E-01
   7111.67  2.4844571E-01
   7112.00  2.3351274E-01
   7112.33  1.8565807E-01
   7112.67  1.3411556E-01
   7113.00  9.5861094E-02
   7113.33  7.3341820E-02
   7113.67  6.0052662E-02
   7114.00  5.3052980E-02
   7114.33  5.0602757E-02
   7114.67  4.9046019E-02
   7115.00  4.5978912E-02
   7115.33  4.1905375E-02
   7115.67  3.8606243E-02
   7116.00  3.6404144E-02
   7116.33  3.4794758E-02
   7116.67  3.3527370E-02
   7117.00  3.2734738E-02
   7117.33  3.2469217E-02
   7117.67  3.2458434E-02
   7118.00  3.2581217E-02
   7118.33  3.2911320E-02
   7118.67  3.3520752E-02
   7119.00  3.4458743E-02
   7119.33  3.5835061E-02
   7119.67  3.7683626E-02
   7120.00  4.0074788E-02
   7120.33  4.3162488E-02
   7120.67  4.6960717E-02
   7121.00  5.1567351E-02
   7121.33  5.7226121E-02
   7121.67  6.3980366E-02
   7122.00  7.2057617E-02
   7122.33  8.2121041E-02
   7122.67  9.4545959E-02
   7123.00  1.0986671E-01
   7123.33  1.2894972E-01
   7123.67  1.5125453E-01
   7124.00  1.7598205E-01
   7124.33  2.0171711E-01
   7124.67  2.2712355E-01
   7125.00  2.5305560E-01
   7125.33  2.8429810E-01
   7125.67  3.2268411E-01
   7126.00  3.6447826E-01
   7126.33  4.0022903E-01
   7126.67  4.2254534E-01
   7127.00  4.2984294E-01
   7127.33  4.3214016E-01
   7127.67  4.4516054E-01
   7128.00  4.7529088E-01
   7128.33  5.2292423E-01
   7128.67  5.7659265E-01
   7129.00  6.2505579E-01
   7129.33  6.5841035E-01
   7129.67  6.7930466E-01
   7130.00  6.9227561E-01
   7130.33  7.0196144E-01
   7130.67  7.1232979E-01
   7131.00  7.2475798E-01
   7131.33  7.3884682E-01
   7131.67  7.5333890E-01
   7132.00  7.6838998E-01
   7132.33  7.8519118E-01
   7132.67  8.0359863E-01
   7133.00  8.2239176E-01
   7133.33  8.4011482E-01
   7133.67  8.5724572E-01
   7134.00  8.7501142E-01
   7134.33  8.9360299E-01
   7134.67  9.1023196E-01
   7135.00  9.2203662E-01
   7135.33  9.2736727E-01
   7135.67  9.2853583E-01
   7136.00  9.2710609E-01
   7136.33  9.2307685E-01
   7136.67  9.1572016E-01
   7137.00  9.0420636E-01
   7137.33  8.8776833E-01
   7137.67  8.6748501E-01
   7138.00  8.4418718E-01
   7138.33  8.1878881E-01
   7138.67  7.9266661E-01
   7139.00  7.6668963E-01
   7139.33  7.4179207E-01
   7139.67  7.1843752E-01
   7140.00  6.9695223E-01
   7140.33  6.7779718E-01
   7140.67  6.6075968E-01
   7141.00  6.4578596E-01
   7141.33  6.3298056E-01
   7141.67  6.2192279E-01
   7142.00  6.1244712E-01
   7142.33  6.0453739E-01
   7142.67  5.9784090E-01
   7143.00  5.9221705E-01
   7143.33  5.8764687E-01
   7143.67  5.8393032E-01
   7144.00  5.8101448E-01
   7144.33  5.7893446E-01
   7144.67  5.7757061E-01
   7145.00  5.7693121E-01
   7145.33  5.7715414E-01
   7145.67  5.7821200E-01
   7146.00  5.8017398E-01
   7146.33  5.8323841E-01
   7146.67  5.8733502E-01
   7147.00  5.9246887E-01
   7147.33  5.9868787E-01
   7147.67  6.0567885E-01
   7148.00  6.1315484E-01
   7148.33  6.2061903E-01
   7148.67  6.2742010E-01
   7149.00  6.3292190E-01
   7149.33  6.3614590E-01
   7149.67  6.3676642E-01
   7150.00  6.3448970E-01
   7150.33  6.2887663E-01
   7150.67  6.2048717E-01
   7151.00  6.0961804E-01
   7151.33  5.9640576E-01
   7151.67  5.8151357E-01
   7152.00  5.6527894E-01
   7152.33  5.4796024E-01
   7152.67  5.3004681E-01
   7153.00  5.1183577E-01
   7153.33  4.9363466E-01
   7153.67  4.7570592E-01
   7154.00  4.5824543E-01
   7154.33  4.4153396E-01
   7154.67  4.2565001E-01
   7155.00  4.1070548E-01
   7155.33  3.9693310E-01
   7155.67  3.8427177E-01
   7156.00  3.7274701E-01
   7156.33  3.6247767E-01
   7156.67  3.5324469E-01
   7157.00  3.4493683E-01
   7157.33  3.3748673E-01
   7157.67  3.3063242E-01
   7158.00  3.2425440E-01
   7158.33  3.1831037E-01
   7158.67  3.1272080E-01
   7159.00  3.0750035E-01
   7159.33  3.0275146E-01
   7159.67  2.9848970E-01
   7160.00  2.9477490E-01
   7160.33  2.9174264E-01
   7160.67  2.8935969E-01
   7161.00  2.8764761E-01
   7161.33  2.8670064E-01
   7161.67  2.8642883E-01
   7162.00  2.8682660E-01
   7162.33  2.8797491E-01
   7162.67  2.8979007E-01
   7163.00  2.9227359E-01
   7163.33  2.9549546E-01
   7163.67  2.9932980E-01
   7164.00  3.0370675E-01
   7164.33  3.0856043E-01
   7164.67  3.1368696E-01
   7165.00  3.1894276E-01
   7165.33  3.2415575E-01
   7165.67  3.2917899E-01
   7166.00  3.3390508E-01
   7166.33  3.3819531E-01
   7166.67  3.4204908E-01
   7167.00  3.4545661E-01
   7167.33  3.4838680E-01
   7167.67  3.5094335E-01
   7168.00  3.5318583E-01
   7168.33  3.5516517E-01
   7168.67  3.5699471E-01
   7169.00  3.5874491E-01
   7169.33  3.6048995E-01
   7169.67  3.6229154E-01
   7170.00  3.6418833E-01
   7170.33  3.6622191E-01
   7170.67  3.6837862E-01
   7171.00  3.7063373E-01
   7171.33  3.7291642E-01
   7171.67  3.7507167E-01
   7172.00  3.7689356E-01
