    FDMNES
    energy     <xanes>
   7097.00  4.8603686E-03
   7097.33  4.9735527E-03
   7097.67  5.0918819E-03
   7098.00  5.2157109E-03
   7098.33  5.3462419E-03
   7098.67  5.4832412E-03
   7099.00  5.6271961E-03
   7099.33  5.7796894E-03
   7099.67  5.9404878E-03
   7100.00  6.1102797E-03
   7100.33  6.2912079E-03
   7100.67  6.4830686E-03
   7101.00  6.6868674E-03
   7101.33  6.9056031E-03
   7101.67  7.1391657E-03
   7102.00  7.3890839E-03
   7102.33  7.6597256E-03
   7102.67  7.9512188E-03
   7103.00  8.2660008E-03
   7103.33  8.6107547E-03
   7103.67  8.9861781E-03
   7104.00  9.3963938E-03
   7104.33  9.8522766E-03
   7104.67  1.0355905E-02
   7105.00  1.0914795E-02
   7105.33  1.1548102E-02
   7105.67  1.2261450E-02
   7106.00  1.3069947E-02
   7106.33  1.4011100E-02
   7106.67  1.5100607E-02
   7107.00  1.6373202E-02
   7107.33  1.7914037E-02
   7107.67  1.9772491E-02
   7108.00  2.2045557E-02
   7108.33  2.4974469E-02
   7108.67  2.8754150E-02
   7109.00  3.3751934E-02
   7109.33  4.0945414E-02
   7109.67  5.1476658E-02
   7110.00  6.7592461E-02
   7110.33  9.5704152E-02
   7110.67  1.4152539E-01
   7111.00  2.0135298E-01
   7111.33  2.5330985E-01
   7111.67  2.9938162E-01
   7112.00  3.3077955E-01
   7112.33  3.2283054E-01
   7112.67  2.9495951E-01
   7113.00  2.6541335E-01
   7113.33  2.3751258E-01
   7113.67  2.1342372E-01
   7114.00  1.9897502E-01
   7114.33  1.9974189E-01
   7114.67  2.1472550E-01
   7115.00  2.3952722E-01
   7115.33  2.5658992E-01
   7115.67  2.4934835E-01
   7116.00  2.1544396E-01
   7116.33  1.7096325E-01
   7116.67  1.3570928E-01
   7117.00  1.1266424E-01
   7117.33  1.0001570E-01
   7117.67  9.3747758E-02
   7118.00  9.2458039E-02
   7118.33  9.5416902E-02
   7118.67  1.0002357E-01
   7119.00  1.0431475E-01
   7119.33  1.0828530E-01
   7119.67  1.1258535E-01
   7120.00  1.1706235E-01
   7120.33  1.2181108E-01
   7120.67  1.2745333E-01
   7121.00  1.3473059E-01
   7121.33  1.4482091E-01
   7121.67  1.5809043E-01
   7122.00  1.7455619E-01
   7122.33  1.9398563E-01
   7122.67  2.1544054E-01
   7123.00  2.3857390E-01
   7123.33  2.6350615E-01
   7123.67  2.9026160E-01
   7124.00  3.1884249E-01
   7124.33  3.4896207E-01
   7124.67  3.7962546E-01
   7125.00  4.0959155E-01
   7125.33  4.3598871E-01
   7125.67  4.5667748E-01
   7126.00  4.7124681E-01
   7126.33  4.8147476E-01
   7126.67  4.9079964E-01
   7127.00  5.0039753E-01
   7127.33  5.0969443E-01
   7127.67  5.1758572E-01
   7128.00  5.2403912E-01
   7128.33  5.2993564E-01
   7128.67  5.3571049E-01
   7129.00  5.4081034E-01
   7129.33  5.4486073E-01
   7129.67  5.4907906E-01
   7130.00  5.5481234E-01
   7130.33  5.6295633E-01
   7130.67  5.7260122E-01
   7131.00  5.8289660E-01
   7131.33  5.9353872E-01
   7131.67  6.0495001E-01
   7132.00  6.1770121E-01
   7132.33  6.3231009E-01
   7132.67  6.4807098E-01
   7133.00  6.6362022E-01
   7133.33  6.7621807E-01
   7133.67  6.8430811E-01
   7134.00  6.8769923E-01
   7134.33  6.8713783E-01
   7134.67  6.8458670E-01
   7135.00  6.8076496E-01
   7135.33  6.7552297E-01
   7135.67  6.6871129E-01
   7136.00  6.6018502E-01
   7136.33  6.4983204E-01
   7136.67  6.3825215E-01
   7137.00  6.2603878E-01
   7137.33  6.1412618E-01
   7137.67  6.0341377E-01
   7138.00  5.9457857E-01
   7138.33  5.8852667E-01
   7138.67  5.8537806E-01
   7139.00  5.8537591E-01
   7139.33  5.8902936E-01
   7139.67  5.9577593E-01
   7140.00  6.0521509E-01
   7140.33  6.1674909E-01
   7140.67  6.2893906E-01
   7141.00  6.4055620E-01
   7141.33  6.4997120E-01
   7141.67  6.5645683E-01
   7142.00  6.5972503E-01
   7142.33  6.5972710E-01
   7142.67  6.5760453E-01
   7143.00  6.5414487E-01
   7143.33  6.5010968E-01
   7143.67  6.4618241E-01
   7144.00  6.4272246E-01
   7144.33  6.4006827E-01
   7144.67  6.3823485E-01
   7145.00  6.3724724E-01
   7145.33  6.3720989E-01
   7145.67  6.3798730E-01
   7146.00  6.3952473E-01
   7146.33  6.4180308E-01
   7146.67  6.4459173E-01
   7147.00  6.4771837E-01
   7147.33  6.5095956E-01
   7147.67  6.5405954E-01
   7148.00  6.5681277E-01
   7148.33  6.5892455E-01
   7148.67  6.6027804E-01
   7149.00  6.6074842E-01
   7149.33  6.6010220E-01
   7149.67  6.5840056E-01
   7150.00  6.5563096E-01
   7150.33  6.5169569E-01
   7150.67  6.4679898E-01
   7151.00  6.4102970E-01
   7151.33  6.3442032E-01
   7151.67  6.2720856E-01
   7152.00  6.1952331E-01
   7152.33  6.1146638E-01
   7152.67  6.0320825E-01
   7153.00  5.9484450E-01
   7153.33  5.8646369E-01
   7153.67  5.7813561E-01
   7154.00  5.6990222E-01
   7154.33  5.6181075E-01
   7154.67  5.5385481E-01
   7155.00  5.4602704E-01
   7155.33  5.3832173E-01
   7155.67  5.3070233E-01
   7156.00  5.2315251E-01
   7156.33  5.1567098E-01
   7156.67  5.0825878E-01
   7157.00  5.0094030E-01
   7157.33  4.9377993E-01
   7157.67  4.8682297E-01
   7158.00  4.8013219E-01
   7158.33  4.7382796E-01
   7158.67  4.6794402E-01
   7159.00  4.6254115E-01
   7159.33  4.5774879E-01
   7159.67  4.5354742E-01
   7160.00  4.4996344E-01
   7160.33  4.4708760E-01
   7160.67  4.4482944E-01
   7161.00  4.4315922E-01
   7161.33  4.4208507E-01
   7161.67  4.4145776E-01
   7162.00  4.4118877E-01
   7162.33  4.4118278E-01
   7162.67  4.4126772E-01
   7163.00  4.4132574E-01
   7163.33  4.4122228E-01
   7163.67  4.4088519E-01
   7164.00  4.4026320E-01
   7164.33  4.3929022E-01
   7164.67  4.3800985E-01
   7165.00  4.3644650E-01
   7165.33  4.3461579E-01
   7165.67  4.3260327E-01
   7166.00  4.3045965E-01
   7166.33  4.2823426E-01
   7166.67  4.2599246E-01
   7167.00  4.2377964E-01
   7167.33  4.2165284E-01
   7167.67  4.1964450E-01
   7168.00  4.1778956E-01
   7168.33  4.1614525E-01
   7168.67  4.1470892E-01
   7169.00  4.1349154E-01
   7169.33  4.1252798E-01
   7169.67  4.1179123E-01
   7170.00  4.1127840E-01
   7170.33  4.1100797E-01
   7170.67  4.1093744E-01
   7171.00  4.1104497E-01
   7171.33  4.1130607E-01
   7171.67  4.1163330E-01
   7172.00  4.1193735E-01
