    FDMNES
    energy     <xanes>
   7097.00  5.0927396E-03
   7097.33  5.2186149E-03
   7097.67  5.3505540E-03
   7098.00  5.4889931E-03
   7098.33  5.6353792E-03
   7098.67  5.7894611E-03
   7099.00  5.9518424E-03
   7099.33  6.1244464E-03
   7099.67  6.3070282E-03
   7100.00  6.5004466E-03
   7100.33  6.7073299E-03
   7100.67  6.9274770E-03
   7101.00  7.1621504E-03
   7101.33  7.4150602E-03
   7101.67  7.6861321E-03
   7102.00  7.9772939E-03
   7102.33  8.2939903E-03
   7102.67  8.6364554E-03
   7103.00  9.0077704E-03
   7103.33  9.4163107E-03
   7103.67  9.8630310E-03
   7104.00  1.0353138E-02
   7104.33  1.0900288E-02
   7104.67  1.1507144E-02
   7105.00  1.2183142E-02
   7105.33  1.2952248E-02
   7105.67  1.3821413E-02
   7106.00  1.4809347E-02
   7106.33  1.5962397E-02
   7106.67  1.7299317E-02
   7107.00  1.8862032E-02
   7107.33  2.0753014E-02
   7107.67  2.3028762E-02
   7108.00  2.5801286E-02
   7108.33  2.9346978E-02
   7108.67  3.3875314E-02
   7109.00  3.9780842E-02
   7109.33  4.8094458E-02
   7109.67  5.9939581E-02
   7110.00  7.7502945E-02
   7110.33  1.0699508E-01
   7110.67  1.5475689E-01
   7111.00  2.2175952E-01
   7111.33  2.9080860E-01
   7111.67  3.6278984E-01
   7112.00  4.5956487E-01
   7112.33  5.7847474E-01
   7112.67  6.3844410E-01
   7113.00  5.7522510E-01
   7113.33  4.3865202E-01
   7113.67  3.1720424E-01
   7114.00  2.2888018E-01
   7114.33  1.7210045E-01
   7114.67  1.3402634E-01
   7115.00  1.0895789E-01
   7115.33  9.3407827E-02
   7115.67  8.3650752E-02
   7116.00  7.8521961E-02
   7116.33  7.7502334E-02
   7116.67  7.8829756E-02
   7117.00  8.1835547E-02
   7117.33  8.7173575E-02
   7117.67  9.4432336E-02
   7118.00  1.0203358E-01
   7118.33  1.0658021E-01
   7118.67  1.0595381E-01
   7119.00  1.0118956E-01
   7119.33  9.6259694E-02
   7119.67  9.3273432E-02
   7120.00  9.2268371E-02
   7120.33  9.3265293E-02
   7120.67  9.6041950E-02
   7121.00  1.0062473E-01
   7121.33  1.0730603E-01
   7121.67  1.1601576E-01
   7122.00  1.2698614E-01
   7122.33  1.4085463E-01
   7122.67  1.5754568E-01
   7123.00  1.7716719E-01
   7123.33  2.0019649E-01
   7123.67  2.2646173E-01
   7124.00  2.5621882E-01
   7124.33  2.8999592E-01
   7124.67  3.2658723E-01
   7125.00  3.6439622E-01
   7125.33  4.0082220E-01
   7125.67  4.3399609E-01
   7126.00  4.6315476E-01
   7126.33  4.8769874E-01
   7126.67  5.0762523E-01
   7127.00  5.2159408E-01
   7127.33  5.2805627E-01
   7127.67  5.3095837E-01
   7128.00  5.3543616E-01
   7128.33  5.4671189E-01
   7128.67  5.6373263E-01
   7129.00  5.8276417E-01
   7129.33  5.9797211E-01
   7129.67  6.0704208E-01
   7130.00  6.1113993E-01
   7130.33  6.1402901E-01
   7130.67  6.1943826E-01
   7131.00  6.2821149E-01
   7131.33  6.3870169E-01
   7131.67  6.4840210E-01
   7132.00  6.5678632E-01
   7132.33  6.6460773E-01
   7132.67  6.7299510E-01
   7133.00  6.8258028E-01
   7133.33  6.9422390E-01
   7133.67  7.0867803E-01
   7134.00  7.2704266E-01
   7134.33  7.5048882E-01
   7134.67  7.7688394E-01
   7135.00  8.0280182E-01
   7135.33  8.2246022E-01
   7135.67  8.3206075E-01
   7136.00  8.2914589E-01
   7136.33  8.1165538E-01
   7136.67  7.8358077E-01
   7137.00  7.4848943E-01
   7137.33  7.1047822E-01
   7137.67  6.7338382E-01
   7138.00  6.3915043E-01
   7138.33  6.0947037E-01
   7138.67  5.8423908E-01
   7139.00  5.6343814E-01
   7139.33  5.4738840E-01
   7139.67  5.3533586E-01
   7140.00  5.2710752E-01
   7140.33  5.2292278E-01
   7140.67  5.2201743E-01
   7141.00  5.2404183E-01
   7141.33  5.2882863E-01
   7141.67  5.3557596E-01
   7142.00  5.4388959E-01
   7142.33  5.5354205E-01
   7142.67  5.6411846E-01
   7143.00  5.7546747E-01
   7143.33  5.8754578E-01
   7143.67  6.0016051E-01
   7144.00  6.1320310E-01
   7144.33  6.2656524E-01
   7144.67  6.4006067E-01
   7145.00  6.5356263E-01
   7145.33  6.6690165E-01
   7145.67  6.7991691E-01
   7146.00  6.9241689E-01
   7146.33  7.0397160E-01
   7146.67  7.1415908E-01
   7147.00  7.2234571E-01
   7147.33  7.2733595E-01
   7147.67  7.2877242E-01
   7148.00  7.2636134E-01
   7148.33  7.1985920E-01
   7148.67  7.1049104E-01
   7149.00  6.9916277E-01
   7149.33  6.8679142E-01
   7149.67  6.7427823E-01
   7150.00  6.6203370E-01
   7150.33  6.5032776E-01
   7150.67  6.3911383E-01
   7151.00  6.2831825E-01
   7151.33  6.1785614E-01
   7151.67  6.0756888E-01
   7152.00  5.9736716E-01
   7152.33  5.8716521E-01
   7152.67  5.7690198E-01
   7153.00  5.6654935E-01
   7153.33  5.5607466E-01
   7153.67  5.4548727E-01
   7154.00  5.3480297E-01
   7154.33  5.2405175E-01
   7154.67  5.1329615E-01
   7155.00  5.0259648E-01
   7155.33  4.9205103E-01
   7155.67  4.8173105E-01
   7156.00  4.7171420E-01
   7156.33  4.6213944E-01
   7156.67  4.5304406E-01
   7157.00  4.4449390E-01
   7157.33  4.3663108E-01
   7157.67  4.2943671E-01
   7158.00  4.2295613E-01
   7158.33  4.1733488E-01
   7158.67  4.1252563E-01
   7159.00  4.0856681E-01
   7159.33  4.0560360E-01
   7159.67  4.0353830E-01
   7160.00  4.0235482E-01
   7160.33  4.0209346E-01
   7160.67  4.0253977E-01
   7161.00  4.0356502E-01
   7161.33  4.0504292E-01
   7161.67  4.0673419E-01
   7162.00  4.0847823E-01
   7162.33  4.1008073E-01
   7162.67  4.1141126E-01
   7163.00  4.1237529E-01
   7163.33  4.1283712E-01
   7163.67  4.1280645E-01
   7164.00  4.1227381E-01
   7164.33  4.1120465E-01
   7164.67  4.0971714E-01
   7165.00  4.0788096E-01
   7165.33  4.0575793E-01
   7165.67  4.0347726E-01
   7166.00  4.0111943E-01
   7166.33  3.9877276E-01
   7166.67  3.9651614E-01
   7167.00  3.9441343E-01
   7167.33  3.9256061E-01
   7167.67  3.9099031E-01
   7168.00  3.8974715E-01
   7168.33  3.8891933E-01
   7168.67  3.8849205E-01
   7169.00  3.8847911E-01
   7169.33  3.8892605E-01
   7169.67  3.8975505E-01
   7170.00  3.9092772E-01
   7170.33  3.9241897E-01
   7170.67  3.9411839E-01
   7171.00  3.9594993E-01
   7171.33  3.9780681E-01
   7171.67  3.9953475E-01
   7172.00  4.0096126E-01
