    FDMNES
    energy     <xanes>
   7097.00  5.1195935E-03
   7097.33  5.2396296E-03
   7097.67  5.3649828E-03
   7098.00  5.4960048E-03
   7098.33  5.6339127E-03
   7098.67  5.7784443E-03
   7099.00  5.9300771E-03
   7099.33  6.0903951E-03
   7099.67  6.2591287E-03
   7100.00  6.4369439E-03
   7100.33  6.6259574E-03
   7100.67  6.8259162E-03
   7101.00  7.0377802E-03
   7101.33  7.2644691E-03
   7101.67  7.5058007E-03
   7102.00  7.7632132E-03
   7102.33  8.0408916E-03
   7102.67  8.3388473E-03
   7103.00  8.6593378E-03
   7103.33  9.0086551E-03
   7103.67  9.3872857E-03
   7104.00  9.7989851E-03
   7104.33  1.0253797E-02
   7104.67  1.0753370E-02
   7105.00  1.1304426E-02
   7105.33  1.1924291E-02
   7105.67  1.2617583E-02
   7106.00  1.3397555E-02
   7106.33  1.4297346E-02
   7106.67  1.5329941E-02
   7107.00  1.6525119E-02
   7107.33  1.7956146E-02
   7107.67  1.9663503E-02
   7108.00  2.1728123E-02
   7108.33  2.4351048E-02
   7108.67  2.7688687E-02
   7109.00  3.2037104E-02
   7109.33  3.8178794E-02
   7109.67  4.7000063E-02
   7110.00  6.0240100E-02
   7110.33  8.2877947E-02
   7110.67  1.1987005E-01
   7111.00  1.7103625E-01
   7111.33  2.2097642E-01
   7111.67  2.5901831E-01
   7112.00  2.8100286E-01
   7112.33  2.9062603E-01
   7112.67  2.9719962E-01
   7113.00  3.0481483E-01
   7113.33  3.0708031E-01
   7113.67  2.9119650E-01
   7114.00  2.5790051E-01
   7114.33  2.1884411E-01
   7114.67  1.8341911E-01
   7115.00  1.5414649E-01
   7115.33  1.3328246E-01
   7115.67  1.1994138E-01
   7116.00  1.1349025E-01
   7116.33  1.1397498E-01
   7116.67  1.2023397E-01
   7117.00  1.3209423E-01
   7117.33  1.4964466E-01
   7117.67  1.7128172E-01
   7118.00  1.9569939E-01
   7118.33  2.1793507E-01
   7118.67  2.3016448E-01
   7119.00  2.2988723E-01
   7119.33  2.2357727E-01
   7119.67  2.2081446E-01
   7120.00  2.2519883E-01
   7120.33  2.3862807E-01
   7120.67  2.5954325E-01
   7121.00  2.8699610E-01
   7121.33  3.1993128E-01
   7121.67  3.5496209E-01
   7122.00  3.8942498E-01
   7122.33  4.2237487E-01
   7122.67  4.5559025E-01
   7123.00  4.9008464E-01
   7123.33  5.2585114E-01
   7123.67  5.6152877E-01
   7124.00  5.9523243E-01
   7124.33  6.2347340E-01
   7124.67  6.4482126E-01
   7125.00  6.5953312E-01
   7125.33  6.6923362E-01
   7125.67  6.7639866E-01
   7126.00  6.8088925E-01
   7126.33  6.8026640E-01
   7126.67  6.7436277E-01
   7127.00  6.6465914E-01
   7127.33  6.5332079E-01
   7127.67  6.4193323E-01
   7128.00  6.3109998E-01
   7128.33  6.2149249E-01
   7128.67  6.1326622E-01
   7129.00  6.0627298E-01
   7129.33  5.9975872E-01
   7129.67  5.9244377E-01
   7130.00  5.8357197E-01
   7130.33  5.7302880E-01
   7130.67  5.6201443E-01
   7131.00  5.5175056E-01
   7131.33  5.4379911E-01
   7131.67  5.3873721E-01
   7132.00  5.3679218E-01
   7132.33  5.3799613E-01
   7132.67  5.4119248E-01
   7133.00  5.4555381E-01
   7133.33  5.5034198E-01
   7133.67  5.5515577E-01
   7134.00  5.6008591E-01
   7134.33  5.6539600E-01
   7134.67  5.7082417E-01
   7135.00  5.7570761E-01
   7135.33  5.7892439E-01
   7135.67  5.8000487E-01
   7136.00  5.7879248E-01
   7136.33  5.7530598E-01
   7136.67  5.7040982E-01
   7137.00  5.6475979E-01
   7137.33  5.5912085E-01
   7137.67  5.5412694E-01
   7138.00  5.5014625E-01
   7138.33  5.4750679E-01
   7138.67  5.4597939E-01
   7139.00  5.4533673E-01
   7139.33  5.4528981E-01
   7139.67  5.4542511E-01
   7140.00  5.4551595E-01
   7140.33  5.4539188E-01
   7140.67  5.4504796E-01
   7141.00  5.4452005E-01
   7141.33  5.4385351E-01
   7141.67  5.4312210E-01
   7142.00  5.4236796E-01
   7142.33  5.4161709E-01
   7142.67  5.4086457E-01
   7143.00  5.4008710E-01
   7143.33  5.3923787E-01
   7143.67  5.3828545E-01
   7144.00  5.3720290E-01
   7144.33  5.3595204E-01
   7144.67  5.3454407E-01
   7145.00  5.3297906E-01
   7145.33  5.3124116E-01
   7145.67  5.2935433E-01
   7146.00  5.2732405E-01
   7146.33  5.2514412E-01
   7146.67  5.2284793E-01
   7147.00  5.2045573E-01
   7147.33  5.1798940E-01
   7147.67  5.1549178E-01
   7148.00  5.1299328E-01
   7148.33  5.1053036E-01
   7148.67  5.0812550E-01
   7149.00  5.0579542E-01
   7149.33  5.0356634E-01
   7149.67  5.0143738E-01
   7150.00  4.9940913E-01
   7150.33  4.9748589E-01
   7150.67  4.9564276E-01
   7151.00  4.9386408E-01
   7151.33  4.9213116E-01
   7151.67  4.9040908E-01
   7152.00  4.8866797E-01
   7152.33  4.8686200E-01
   7152.67  4.8495698E-01
   7153.00  4.8291581E-01
   7153.33  4.8067168E-01
   7153.67  4.7820484E-01
   7154.00  4.7548381E-01
   7154.33  4.7244618E-01
   7154.67  4.6911441E-01
   7155.00  4.6549236E-01
   7155.33  4.6157228E-01
   7155.67  4.5743719E-01
   7156.00  4.5314703E-01
   7156.33  4.4877701E-01
   7156.67  4.4442739E-01
   7157.00  4.4017537E-01
   7157.33  4.3612581E-01
   7157.67  4.3232575E-01
   7158.00  4.2882181E-01
   7158.33  4.2569434E-01
   7158.67  4.2292352E-01
   7159.00  4.2051535E-01
   7159.33  4.1850853E-01
   7159.67  4.1684196E-01
   7160.00  4.1549453E-01
   7160.33  4.1447171E-01
   7160.67  4.1370414E-01
   7161.00  4.1316438E-01
   7161.33  4.1284748E-01
   7161.67  4.1269981E-01
   7162.00  4.1269900E-01
   7162.33  4.1284248E-01
   7162.67  4.1310064E-01
   7163.00  4.1346391E-01
   7163.33  4.1393478E-01
   7163.67  4.1449131E-01
   7164.00  4.1512448E-01
   7164.33  4.1583137E-01
   7164.67  4.1659187E-01
   7165.00  4.1739529E-01
   7165.33  4.1823252E-01
   7165.67  4.1908694E-01
   7166.00  4.1994844E-01
   7166.33  4.2080672E-01
   7166.67  4.2165483E-01
   7167.00  4.2248863E-01
   7167.33  4.2330314E-01
   7167.67  4.2410086E-01
   7168.00  4.2488498E-01
   7168.33  4.2566037E-01
   7168.67  4.2643521E-01
   7169.00  4.2721631E-01
   7169.33  4.2801319E-01
   7169.67  4.2883006E-01
   7170.00  4.2966987E-01
   7170.33  4.3053581E-01
   7170.67  4.3141989E-01
   7171.00  4.3231068E-01
   7171.33  4.3317928E-01
   7171.67  4.3397828E-01
   7172.00  4.3464180E-01
