    FDMNES
    energy     <xanes>
   7097.00  5.4996888E-03
   7097.33  5.6463976E-03
   7097.67  5.8005476E-03
   7098.00  5.9626846E-03
   7098.33  6.1346009E-03
   7098.67  6.3160003E-03
   7099.00  6.5076374E-03
   7099.33  6.7118987E-03
   7099.67  6.9284935E-03
   7100.00  7.1584927E-03
   7100.33  7.4051579E-03
   7100.67  7.6682473E-03
   7101.00  7.9493277E-03
   7101.33  8.2529941E-03
   7101.67  8.5791481E-03
   7102.00  8.9301653E-03
   7102.33  9.3127570E-03
   7102.67  9.7271741E-03
   7103.00  1.0177174E-02
   7103.33  1.0672995E-02
   7103.67  1.1215696E-02
   7104.00  1.1811536E-02
   7104.33  1.2476988E-02
   7104.67  1.3215000E-02
   7105.00  1.4036681E-02
   7105.33  1.4970383E-02
   7105.67  1.6023655E-02
   7106.00  1.7217904E-02
   7106.33  1.8606356E-02
   7106.67  2.0208749E-02
   7107.00  2.2071049E-02
   7107.33  2.4305642E-02
   7107.67  2.6968901E-02
   7108.00  3.0175653E-02
   7108.33  3.4206721E-02
   7108.67  3.9252332E-02
   7109.00  4.5672474E-02
   7109.33  5.4378699E-02
   7109.67  6.6231300E-02
   7110.00  8.2862075E-02
   7110.33  1.0878276E-01
   7110.67  1.4948542E-01
   7111.00  2.1351701E-01
   7111.33  3.1804853E-01
   7111.67  4.6601576E-01
   7112.00  6.2944028E-01
   7112.33  7.4638431E-01
   7112.67  8.0586764E-01
   7113.00  7.7287399E-01
   7113.33  6.4106532E-01
   7113.67  5.0159611E-01
   7114.00  3.9214703E-01
   7114.33  3.1827690E-01
   7114.67  2.6649937E-01
   7115.00  2.3001795E-01
   7115.33  2.0515775E-01
   7115.67  1.8811975E-01
   7116.00  1.7801075E-01
   7116.33  1.7484028E-01
   7116.67  1.7502703E-01
   7117.00  1.7421962E-01
   7117.33  1.6958178E-01
   7117.67  1.6331687E-01
   7118.00  1.5718522E-01
   7118.33  1.5229030E-01
   7118.67  1.4879230E-01
   7119.00  1.4657658E-01
   7119.33  1.4519310E-01
   7119.67  1.4383494E-01
   7120.00  1.4198912E-01
   7120.33  1.3945123E-01
   7120.67  1.3639285E-01
   7121.00  1.3245301E-01
   7121.33  1.2729790E-01
   7121.67  1.2230705E-01
   7122.00  1.1877859E-01
   7122.33  1.1733519E-01
   7122.67  1.1740606E-01
   7123.00  1.1872075E-01
   7123.33  1.2136315E-01
   7123.67  1.2535581E-01
   7124.00  1.3095875E-01
   7124.33  1.3879979E-01
   7124.67  1.4909500E-01
   7125.00  1.6229570E-01
   7125.33  1.7928228E-01
   7125.67  1.9986755E-01
   7126.00  2.2401879E-01
   7126.33  2.5175913E-01
   7126.67  2.8182957E-01
   7127.00  3.1309632E-01
   7127.33  3.4384669E-01
   7127.67  3.7240356E-01
   7128.00  3.9760228E-01
   7128.33  4.1845628E-01
   7128.67  4.3628260E-01
   7129.00  4.5298001E-01
   7129.33  4.7186306E-01
   7129.67  4.9557774E-01
   7130.00  5.2554062E-01
   7130.33  5.6206133E-01
   7130.67  6.0171078E-01
   7131.00  6.4116588E-01
   7131.33  6.7659078E-01
   7131.67  7.0675289E-01
   7132.00  7.3164926E-01
   7132.33  7.5176868E-01
   7132.67  7.6894148E-01
   7133.00  7.8389358E-01
   7133.33  7.9599534E-01
   7133.67  8.0368012E-01
   7134.00  8.0462022E-01
   7134.33  7.9536742E-01
   7134.67  7.7602961E-01
   7135.00  7.4716734E-01
   7135.33  7.1024061E-01
   7135.67  6.6966229E-01
   7136.00  6.2858766E-01
   7136.33  5.9045580E-01
   7136.67  5.5713261E-01
   7137.00  5.2973025E-01
   7137.33  5.0950678E-01
   7137.67  4.9534037E-01
   7138.00  4.8647940E-01
   7138.33  4.8228760E-01
   7138.67  4.8109682E-01
   7139.00  4.8210456E-01
   7139.33  4.8486174E-01
   7139.67  4.8881492E-01
   7140.00  4.9382369E-01
   7140.33  4.9997238E-01
   7140.67  5.0715918E-01
   7141.00  5.1541648E-01
   7141.33  5.2488588E-01
   7141.67  5.3536928E-01
   7142.00  5.4673906E-01
   7142.33  5.5884068E-01
   7142.67  5.7127768E-01
   7143.00  5.8374458E-01
   7143.33  5.9584492E-01
   7143.67  6.0729630E-01
   7144.00  6.1786471E-01
   7144.33  6.2720148E-01
   7144.67  6.3529373E-01
   7145.00  6.4205005E-01
   7145.33  6.4720847E-01
   7145.67  6.5086871E-01
   7146.00  6.5296868E-01
   7146.33  6.5326637E-01
   7146.67  6.5200182E-01
   7147.00  6.4931465E-01
   7147.33  6.4537325E-01
   7147.67  6.4075836E-01
   7148.00  6.3590868E-01
   7148.33  6.3136404E-01
   7148.67  6.2751924E-01
   7149.00  6.2464202E-01
   7149.33  6.2309536E-01
   7149.67  6.2285445E-01
   7150.00  6.2395881E-01
   7150.33  6.2655898E-01
   7150.67  6.3042678E-01
   7151.00  6.3548520E-01
   7151.33  6.4175463E-01
   7151.67  6.4895985E-01
   7152.00  6.5696082E-01
   7152.33  6.6565280E-01
   7152.67  6.7475797E-01
   7153.00  6.8409137E-01
   7153.33  6.9344470E-01
   7153.67  7.0261361E-01
   7154.00  7.1142900E-01
   7154.33  7.1963235E-01
   7154.67  7.2710835E-01
   7155.00  7.3370386E-01
   7155.33  7.3911162E-01
   7155.67  7.4329096E-01
   7156.00  7.4609683E-01
   7156.33  7.4717737E-01
   7156.67  7.4658486E-01
   7157.00  7.4422908E-01
   7157.33  7.3982849E-01
   7157.67  7.3362436E-01
   7158.00  7.2568923E-01
   7158.33  7.1597725E-01
   7158.67  7.0489514E-01
   7159.00  6.9265381E-01
   7159.33  6.7940593E-01
   7159.67  6.6552081E-01
   7160.00  6.5119326E-01
   7160.33  6.3658250E-01
   7160.67  6.2187675E-01
   7161.00  6.0719043E-01
   7161.33  5.9265434E-01
   7161.67  5.7834918E-01
   7162.00  5.6434874E-01
   7162.33  5.5077488E-01
   7162.67  5.3764231E-01
   7163.00  5.2499434E-01
   7163.33  5.1293467E-01
   7163.67  5.0142587E-01
   7164.00  4.9048514E-01
   7164.33  4.8019661E-01
   7164.67  4.7049132E-01
   7165.00  4.6136625E-01
   7165.33  4.5288096E-01
   7165.67  4.4494517E-01
   7166.00  4.3753707E-01
   7166.33  4.3068757E-01
   7166.67  4.2430012E-01
   7167.00  4.1834188E-01
   7167.33  4.1282370E-01
   7167.67  4.0766219E-01
   7168.00  4.0283049E-01
   7168.33  3.9833949E-01
   7168.67  3.9412941E-01
   7169.00  3.9018457E-01
   7169.33  3.8652152E-01
   7169.67  3.8309848E-01
   7170.00  3.7990937E-01
   7170.33  3.7697769E-01
   7170.67  3.7427304E-01
   7171.00  3.7179952E-01
   7171.33  3.6960566E-01
   7171.67  3.6770288E-01
   7172.00  3.6615105E-01
