    FDMNES
    energy     <xanes>
   7097.00  4.4614190E-03
   7097.33  4.5574974E-03
   7097.67  4.6576263E-03
   7098.00  4.7620723E-03
   7098.33  4.8717619E-03
   7098.67  4.9864959E-03
   7099.00  5.1066393E-03
   7099.33  5.2334021E-03
   7099.67  5.3665840E-03
   7100.00  5.5066995E-03
   7100.33  5.6553762E-03
   7100.67  5.8124348E-03
   7101.00  5.9786263E-03
   7101.33  6.1562179E-03
   7101.67  6.3451013E-03
   7102.00  6.5464199E-03
   7102.33  6.7634685E-03
   7102.67  6.9963224E-03
   7103.00  7.2468129E-03
   7103.33  7.5199850E-03
   7103.67  7.8163598E-03
   7104.00  8.1390595E-03
   7104.33  8.4963331E-03
   7104.67  8.8897972E-03
   7105.00  9.3252109E-03
   7105.33  9.8172519E-03
   7105.67  1.0370393E-02
   7106.00  1.0996414E-02
   7106.33  1.1724542E-02
   7106.67  1.2567543E-02
   7107.00  1.3553179E-02
   7107.33  1.4749572E-02
   7107.67  1.6198075E-02
   7108.00  1.7979080E-02
   7108.33  2.0293631E-02
   7108.67  2.3312308E-02
   7109.00  2.7356739E-02
   7109.33  3.3295099E-02
   7109.67  4.2193395E-02
   7110.00  5.6168563E-02
   7110.33  8.1292593E-02
   7110.67  1.2232339E-01
   7111.00  1.7055943E-01
   7111.33  1.8686970E-01
   7111.67  1.8856402E-01
   7112.00  2.0555700E-01
   7112.33  2.3301879E-01
   7112.67  2.5037445E-01
   7113.00  2.4374695E-01
   7113.33  2.0707712E-01
   7113.67  1.6555345E-01
   7114.00  1.3315310E-01
   7114.33  1.1375606E-01
   7114.67  9.9154566E-02
   7115.00  8.3704541E-02
   7115.33  6.8821494E-02
   7115.67  5.8783297E-02
   7116.00  5.3486621E-02
   7116.33  5.1886561E-02
   7116.67  5.2521688E-02
   7117.00  5.4860073E-02
   7117.33  5.8685756E-02
   7117.67  6.3626946E-02
   7118.00  6.9585397E-02
   7118.33  7.6459992E-02
   7118.67  8.3669348E-02
   7119.00  9.0602226E-02
   7119.33  9.6729394E-02
   7119.67  1.0257496E-01
   7120.00  1.0894312E-01
   7120.33  1.1658567E-01
   7120.67  1.2543776E-01
   7121.00  1.3535394E-01
   7121.33  1.4623516E-01
   7121.67  1.5780787E-01
   7122.00  1.7000904E-01
   7122.33  1.8301160E-01
   7122.67  1.9702186E-01
   7123.00  2.1249093E-01
   7123.33  2.3041711E-01
   7123.67  2.5126051E-01
   7124.00  2.7535515E-01
   7124.33  3.0285206E-01
   7124.67  3.3252088E-01
   7125.00  3.6354284E-01
   7125.33  3.9644897E-01
   7125.67  4.3255046E-01
   7126.00  4.7209232E-01
   7126.33  5.1338938E-01
   7126.67  5.5206024E-01
   7127.00  5.8246315E-01
   7127.33  5.9825642E-01
   7127.67  6.0455473E-01
   7128.00  6.0982122E-01
   7128.33  6.2390015E-01
   7128.67  6.4983933E-01
   7129.00  6.8739399E-01
   7129.33  7.3362369E-01
   7129.67  7.8103946E-01
   7130.00  8.2372684E-01
   7130.33  8.5443484E-01
   7130.67  8.6979060E-01
   7131.00  8.6737976E-01
   7131.33  8.4580778E-01
   7131.67  8.1229400E-01
   7132.00  7.7329180E-01
   7132.33  7.3625750E-01
   7132.67  7.0635215E-01
   7133.00  6.8642600E-01
   7133.33  6.7841161E-01
   7133.67  6.7758678E-01
   7134.00  6.7898688E-01
   7134.33  6.7958863E-01
   7134.67  6.8132308E-01
   7135.00  6.8642427E-01
   7135.33  6.9644453E-01
   7135.67  7.1023520E-01
   7136.00  7.2621907E-01
   7136.33  7.4183863E-01
   7136.67  7.5482730E-01
   7137.00  7.6398060E-01
   7137.33  7.6845701E-01
   7137.67  7.6930494E-01
   7138.00  7.6727749E-01
   7138.33  7.6297776E-01
   7138.67  7.5729476E-01
   7139.00  7.5056585E-01
   7139.33  7.4289768E-01
   7139.67  7.3450148E-01
   7140.00  7.2544545E-01
   7140.33  7.1575254E-01
   7140.67  7.0561821E-01
   7141.00  6.9517291E-01
   7141.33  6.8456727E-01
   7141.67  6.7399780E-01
   7142.00  6.6362766E-01
   7142.33  6.5368162E-01
   7142.67  6.4424912E-01
   7143.00  6.3541825E-01
   7143.33  6.2733988E-01
   7143.67  6.1995510E-01
   7144.00  6.1324983E-01
   7144.33  6.0724516E-01
   7144.67  6.0176775E-01
   7145.00  5.9671085E-01
   7145.33  5.9197107E-01
   7145.67  5.8738068E-01
   7146.00  5.8283595E-01
   7146.33  5.7821732E-01
   7146.67  5.7343561E-01
   7147.00  5.6842014E-01
   7147.33  5.6306709E-01
   7147.67  5.5736721E-01
   7148.00  5.5129525E-01
   7148.33  5.4478590E-01
   7148.67  5.3788133E-01
   7149.00  5.3058276E-01
   7149.33  5.2284555E-01
   7149.67  5.1472079E-01
   7150.00  5.0620851E-01
   7150.33  4.9725675E-01
   7150.67  4.8791066E-01
   7151.00  4.7817053E-01
   7151.33  4.6799763E-01
   7151.67  4.5746394E-01
   7152.00  4.4660678E-01
   7152.33  4.3546274E-01
   7152.67  4.2416512E-01
   7153.00  4.1282940E-01
   7153.33  4.0163117E-01
   7153.67  3.9073056E-01
   7154.00  3.8028263E-01
   7154.33  3.7054246E-01
   7154.67  3.6159218E-01
   7155.00  3.5354903E-01
   7155.33  3.4664160E-01
   7155.67  3.4079665E-01
   7156.00  3.3600766E-01
   7156.33  3.3232348E-01
   7156.67  3.2947576E-01
   7157.00  3.2728285E-01
   7157.33  3.2552061E-01
   7157.67  3.2384821E-01
   7158.00  3.2205710E-01
   7158.33  3.1995097E-01
   7158.67  3.1750694E-01
   7159.00  3.1475808E-01
   7159.33  3.1179098E-01
   7159.67  3.0878259E-01
   7160.00  3.0587264E-01
   7160.33  3.0324511E-01
   7160.67  3.0099923E-01
   7161.00  2.9922004E-01
   7161.33  2.9803825E-01
   7161.67  2.9742581E-01
   7162.00  2.9740137E-01
   7162.33  2.9804847E-01
   7162.67  2.9929147E-01
   7163.00  3.0112357E-01
   7163.33  3.0360213E-01
   7163.67  3.0662919E-01
   7164.00  3.1017449E-01
   7164.33  3.1426276E-01
   7164.67  3.1879157E-01
   7165.00  3.2371549E-01
   7165.33  3.2901312E-01
   7165.67  3.3457100E-01
   7166.00  3.4032210E-01
   7166.33  3.4620035E-01
   7166.67  3.5211424E-01
   7167.00  3.5800284E-01
   7167.33  3.6379434E-01
   7167.67  3.6945156E-01
   7168.00  3.7494498E-01
   7168.33  3.8023114E-01
   7168.67  3.8532461E-01
   7169.00  3.9022383E-01
   7169.33  3.9490460E-01
   7169.67  3.9938783E-01
   7170.00  4.0366426E-01
   7170.33  4.0768654E-01
   7170.67  4.1145429E-01
   7171.00  4.1493378E-01
   7171.33  4.1802635E-01
   7171.67  4.2068690E-01
   7172.00  4.2281051E-01
