    FDMNES
    energy     <xanes>
   7097.00  4.4819805E-03
   7097.33  4.5739497E-03
   7097.67  4.6694996E-03
   7098.00  4.7688435E-03
   7098.33  4.8727619E-03
   7098.67  4.9810473E-03
   7099.00  5.0939835E-03
   7099.33  5.2125623E-03
   7099.67  5.3365640E-03
   7100.00  5.4663759E-03
   7100.33  5.6032907E-03
   7100.67  5.7470869E-03
   7101.00  5.8983108E-03
   7101.33  6.0586991E-03
   7101.67  6.2280547E-03
   7102.00  6.4071781E-03
   7102.33  6.5984924E-03
   7102.67  6.8018848E-03
   7103.00  7.0185856E-03
   7103.33  7.2521399E-03
   7103.67  7.5026591E-03
   7104.00  7.7721503E-03
   7104.33  8.0661256E-03
   7104.67  8.3852648E-03
   7105.00  8.7331012E-03
   7105.33  9.1189170E-03
   7105.67  9.5448778E-03
   7106.00  1.0017858E-02
   7106.33  1.0555271E-02
   7106.67  1.1163526E-02
   7107.00  1.1857963E-02
   7107.33  1.2676614E-02
   7107.67  1.3640029E-02
   7108.00  1.4789959E-02
   7108.33  1.6230626E-02
   7108.67  1.8043234E-02
   7109.00  2.0382438E-02
   7109.33  2.3659184E-02
   7109.67  2.8345133E-02
   7110.00  3.5370710E-02
   7110.33  4.7424171E-02
   7110.67  6.7268308E-02
   7111.00  9.4627355E-02
   7111.33  1.1666629E-01
   7111.67  1.2803553E-01
   7112.00  1.3549128E-01
   7112.33  1.4098409E-01
   7112.67  1.4763292E-01
   7113.00  1.5617928E-01
   7113.33  1.5908711E-01
   7113.67  1.4808776E-01
   7114.00  1.2577844E-01
   7114.33  1.0371796E-01
   7114.67  8.8231807E-02
   7115.00  7.9327710E-02
   7115.33  7.6246608E-02
   7115.67  7.7384900E-02
   7116.00  8.2476135E-02
   7116.33  9.2238585E-02
   7116.67  1.0672827E-01
   7117.00  1.2665601E-01
   7117.33  1.5398483E-01
   7117.67  1.8860622E-01
   7118.00  2.2754531E-01
   7118.33  2.5608453E-01
   7118.67  2.6296700E-01
   7119.00  2.5397352E-01
   7119.33  2.4101924E-01
   7119.67  2.2982836E-01
   7120.00  2.2146833E-01
   7120.33  2.1706977E-01
   7120.67  2.1699900E-01
   7121.00  2.2179407E-01
   7121.33  2.3214165E-01
   7121.67  2.4675434E-01
   7122.00  2.6544106E-01
   7122.33  2.9067833E-01
   7122.67  3.2397908E-01
   7123.00  3.6495412E-01
   7123.33  4.0849919E-01
   7123.67  4.4553929E-01
   7124.00  4.7143296E-01
   7124.33  4.8755396E-01
   7124.67  5.0097804E-01
   7125.00  5.1483250E-01
   7125.33  5.3074654E-01
   7125.67  5.4881227E-01
   7126.00  5.6806246E-01
   7126.33  5.8562465E-01
   7126.67  5.9793592E-01
   7127.00  6.0251321E-01
   7127.33  5.9920918E-01
   7127.67  5.9337859E-01
   7128.00  5.8885078E-01
   7128.33  5.8725241E-01
   7128.67  5.8669105E-01
   7129.00  5.8575241E-01
   7129.33  5.8436078E-01
   7129.67  5.8338656E-01
   7130.00  5.8300439E-01
   7130.33  5.8269074E-01
   7130.67  5.8205328E-01
   7131.00  5.8139513E-01
   7131.33  5.8171664E-01
   7131.67  5.8375299E-01
   7132.00  5.8774704E-01
   7132.33  5.9332753E-01
   7132.67  5.9897835E-01
   7133.00  6.0335578E-01
   7133.33  6.0523444E-01
   7133.67  6.0494645E-01
   7134.00  6.0271711E-01
   7134.33  5.9811382E-01
   7134.67  5.9139469E-01
   7135.00  5.8281966E-01
   7135.33  5.7254392E-01
   7135.67  5.6141816E-01
   7136.00  5.5024400E-01
   7136.33  5.3989589E-01
   7136.67  5.3060964E-01
   7137.00  5.2230717E-01
   7137.33  5.1476671E-01
   7137.67  5.0761154E-01
   7138.00  5.0073321E-01
   7138.33  4.9424113E-01
   7138.67  4.8829600E-01
   7139.00  4.8310207E-01
   7139.33  4.7898332E-01
   7139.67  4.7598719E-01
   7140.00  4.7427037E-01
   7140.33  4.7427687E-01
   7140.67  4.7612544E-01
   7141.00  4.8004998E-01
   7141.33  4.8645987E-01
   7141.67  4.9505181E-01
   7142.00  5.0573672E-01
   7142.33  5.1860458E-01
   7142.67  5.3306827E-01
   7143.00  5.4854367E-01
   7143.33  5.6399578E-01
   7143.67  5.7820049E-01
   7144.00  5.9018413E-01
   7144.33  5.9882689E-01
   7144.67  6.0431039E-01
   7145.00  6.0684848E-01
   7145.33  6.0661558E-01
   7145.67  6.0445338E-01
   7146.00  6.0077101E-01
   7146.33  5.9583038E-01
   7146.67  5.9011796E-01
   7147.00  5.8391210E-01
   7147.33  5.7750789E-01
   7147.67  5.7123500E-01
   7148.00  5.6533026E-01
   7148.33  5.6010274E-01
   7148.67  5.5566518E-01
   7149.00  5.5212668E-01
   7149.33  5.4966853E-01
   7149.67  5.4816339E-01
   7150.00  5.4755046E-01
   7150.33  5.4778594E-01
   7150.67  5.4855357E-01
   7151.00  5.4958776E-01
   7151.33  5.5048876E-01
   7151.67  5.5085706E-01
   7152.00  5.5036234E-01
   7152.33  5.4856596E-01
   7152.67  5.4547467E-01
   7153.00  5.4111881E-01
   7153.33  5.3555972E-01
   7153.67  5.2924521E-01
   7154.00  5.2248556E-01
   7154.33  5.1561632E-01
   7154.67  5.0893128E-01
   7155.00  5.0260621E-01
   7155.33  4.9684362E-01
   7155.67  4.9167147E-01
   7156.00  4.8714344E-01
   7156.33  4.8339227E-01
   7156.67  4.8036563E-01
   7157.00  4.7808108E-01
   7157.33  4.7663260E-01
   7157.67  4.7590286E-01
   7158.00  4.7584891E-01
   7158.33  4.7646955E-01
   7158.67  4.7759418E-01
   7159.00  4.7913474E-01
   7159.33  4.8103159E-01
   7159.67  4.8315758E-01
   7160.00  4.8545047E-01
   7160.33  4.8787351E-01
   7160.67  4.9038499E-01
   7161.00  4.9297706E-01
   7161.33  4.9566982E-01
   7161.67  4.9847456E-01
   7162.00  5.0141047E-01
   7162.33  5.0450990E-01
   7162.67  5.0775059E-01
   7163.00  5.1110721E-01
   7163.33  5.1452753E-01
   7163.67  5.1791261E-01
   7164.00  5.2115977E-01
   7164.33  5.2409280E-01
   7164.67  5.2659263E-01
   7165.00  5.2852902E-01
   7165.33  5.2968198E-01
   7165.67  5.3004257E-01
   7166.00  5.2956829E-01
   7166.33  5.2815750E-01
   7166.67  5.2597055E-01
   7167.00  5.2309171E-01
   7167.33  5.1957564E-01
   7167.67  5.1563088E-01
   7168.00  5.1137325E-01
   7168.33  5.0689770E-01
   7168.67  5.0232531E-01
   7169.00  4.9772310E-01
   7169.33  4.9315410E-01
   7169.67  4.8865633E-01
   7170.00  4.8425526E-01
   7170.33  4.7998897E-01
   7170.67  4.7586673E-01
   7171.00  4.7192031E-01
   7171.33  4.6825248E-01
   7171.67  4.6498066E-01
   7172.00  4.6230979E-01
