    FDMNES
    energy     <xanes>
   7097.00  5.5588643E-03
   7097.33  5.7080927E-03
   7097.67  5.8649722E-03
   7098.00  6.0300736E-03
   7098.33  6.2052572E-03
   7098.67  6.3902336E-03
   7099.00  6.5857981E-03
   7099.33  6.7944444E-03
   7099.67  7.0158983E-03
   7100.00  7.2512994E-03
   7100.33  7.5040848E-03
   7100.67  7.7740499E-03
   7101.00  8.0628818E-03
   7101.33  8.3754772E-03
   7101.67  8.7118183E-03
   7102.00  9.0745025E-03
   7102.33  9.4707860E-03
   7102.67  9.9010982E-03
   7103.00  1.0369628E-02
   7103.33  1.0887660E-02
   7103.67  1.1456663E-02
   7104.00  1.2083794E-02
   7104.33  1.2787680E-02
   7104.67  1.3572277E-02
   7105.00  1.4450728E-02
   7105.33  1.5456225E-02
   7105.67  1.6599024E-02
   7106.00  1.7905652E-02
   7106.33  1.9441561E-02
   7106.67  2.1234680E-02
   7107.00  2.3345858E-02
   7107.33  2.5923639E-02
   7107.67  2.9053915E-02
   7108.00  3.2904483E-02
   7108.33  3.7890486E-02
   7108.67  4.4340405E-02
   7109.00  5.2870016E-02
   7109.33  6.5099841E-02
   7109.67  8.2857511E-02
   7110.00  1.0971138E-01
   7110.33  1.5592600E-01
   7110.67  2.3275287E-01
   7111.00  3.4446742E-01
   7111.33  4.6248221E-01
   7111.67  5.6048609E-01
   7112.00  6.3327750E-01
   7112.33  6.4866806E-01
   7112.67  6.0672185E-01
   7113.00  5.2953726E-01
   7113.33  4.3634636E-01
   7113.67  3.5031283E-01
   7114.00  2.8221958E-01
   7114.33  2.3569481E-01
   7114.67  2.0522094E-01
   7115.00  1.8836609E-01
   7115.33  1.8479084E-01
   7115.67  1.9053071E-01
   7116.00  2.0075136E-01
   7116.33  2.0723627E-01
   7116.67  2.0705930E-01
   7117.00  2.0227715E-01
   7117.33  1.9558581E-01
   7117.67  1.8872632E-01
   7118.00  1.8259035E-01
   7118.33  1.7809595E-01
   7118.67  1.7484617E-01
   7119.00  1.7165320E-01
   7119.33  1.6709832E-01
   7119.67  1.6183612E-01
   7120.00  1.5733444E-01
   7120.33  1.5490163E-01
   7120.67  1.5425118E-01
   7121.00  1.5527895E-01
   7121.33  1.5838301E-01
   7121.67  1.6332235E-01
   7122.00  1.6986621E-01
   7122.33  1.7810699E-01
   7122.67  1.8837479E-01
   7123.00  2.0153744E-01
   7123.33  2.1895231E-01
   7123.67  2.4028005E-01
   7124.00  2.6457741E-01
   7124.33  2.8925083E-01
   7124.67  3.1096028E-01
   7125.00  3.2797646E-01
   7125.33  3.3940132E-01
   7125.67  3.4655389E-01
   7126.00  3.5088175E-01
   7126.33  3.5439097E-01
   7126.67  3.5836562E-01
   7127.00  3.6324716E-01
   7127.33  3.7011973E-01
   7127.67  3.7994914E-01
   7128.00  3.9344635E-01
   7128.33  4.1164223E-01
   7128.67  4.3416046E-01
   7129.00  4.6043629E-01
   7129.33  4.8927579E-01
   7129.67  5.1833885E-01
   7130.00  5.4573443E-01
   7130.33  5.6952411E-01
   7130.67  5.8983858E-01
   7131.00  6.0718021E-01
   7131.33  6.2202844E-01
   7131.67  6.3519173E-01
   7132.00  6.4682545E-01
   7132.33  6.5650657E-01
   7132.67  6.6383340E-01
   7133.00  6.6804554E-01
   7133.33  6.6787785E-01
   7133.67  6.6353817E-01
   7134.00  6.5512052E-01
   7134.33  6.4232806E-01
   7134.67  6.2600656E-01
   7135.00  6.0680818E-01
   7135.33  5.8558351E-01
   7135.67  5.6360571E-01
   7136.00  5.4156448E-01
   7136.33  5.2017487E-01
   7136.67  5.0007925E-01
   7137.00  4.8206408E-01
   7137.33  4.6751305E-01
   7137.67  4.5681465E-01
   7138.00  4.5024688E-01
   7138.33  4.4815248E-01
   7138.67  4.4951207E-01
   7139.00  4.5373296E-01
   7139.33  4.6038201E-01
   7139.67  4.6859217E-01
   7140.00  4.7799156E-01
   7140.33  4.8844273E-01
   7140.67  4.9973566E-01
   7141.00  5.1187161E-01
   7141.33  5.2500534E-01
   7141.67  5.3907664E-01
   7142.00  5.5410789E-01
   7142.33  5.7020121E-01
   7142.67  5.8717419E-01
   7143.00  6.0493782E-01
   7143.33  6.2344080E-01
   7143.67  6.4243757E-01
   7144.00  6.6175865E-01
   7144.33  6.8117193E-01
   7144.67  7.0036441E-01
   7145.00  7.1902545E-01
   7145.33  7.3662981E-01
   7145.67  7.5286738E-01
   7146.00  7.6739012E-01
   7146.33  7.7960851E-01
   7146.67  7.8956701E-01
   7147.00  7.9720529E-01
   7147.33  8.0230799E-01
   7147.67  8.0532588E-01
   7148.00  8.0645101E-01
   7148.33  8.0571284E-01
   7148.67  8.0352469E-01
   7149.00  8.0002641E-01
   7149.33  7.9519332E-01
   7149.67  7.8926913E-01
   7150.00  7.8232603E-01
   7150.33  7.7433297E-01
   7150.67  7.6550561E-01
   7151.00  7.5594524E-01
   7151.33  7.4571347E-01
   7151.67  7.3503558E-01
   7152.00  7.2404536E-01
   7152.33  7.1287357E-01
   7152.67  7.0167847E-01
   7153.00  6.9056380E-01
   7153.33  6.7965299E-01
   7153.67  6.6900445E-01
   7154.00  6.5867341E-01
   7154.33  6.4875429E-01
   7154.67  6.3923621E-01
   7155.00  6.3013973E-01
   7155.33  6.2153113E-01
   7155.67  6.1335579E-01
   7156.00  6.0560403E-01
   7156.33  5.9830300E-01
   7156.67  5.9136753E-01
   7157.00  5.8475931E-01
   7157.33  5.7846007E-01
   7157.67  5.7237811E-01
   7158.00  5.6646538E-01
   7158.33  5.6068594E-01
   7158.67  5.5498520E-01
   7159.00  5.4934184E-01
   7159.33  5.4375328E-01
   7159.67  5.3822095E-01
   7160.00  5.3276059E-01
   7160.33  5.2740320E-01
   7160.67  5.2214964E-01
   7161.00  5.1700671E-01
   7161.33  5.1199222E-01
   7161.67  5.0708638E-01
   7162.00  5.0227635E-01
   7162.33  4.9754787E-01
   7162.67  4.9286345E-01
   7163.00  4.8819761E-01
   7163.33  4.8352040E-01
   7163.67  4.7880837E-01
   7164.00  4.7404521E-01
   7164.33  4.6920931E-01
   7164.67  4.6430137E-01
   7165.00  4.5932168E-01
   7165.33  4.5426973E-01
   7165.67  4.4916749E-01
   7166.00  4.4403181E-01
   7166.33  4.3888727E-01
   7166.67  4.3376200E-01
   7167.00  4.2867674E-01
   7167.33  4.2366356E-01
   7167.67  4.1873715E-01
   7168.00  4.1391457E-01
   7168.33  4.0922773E-01
   7168.67  4.0467507E-01
   7169.00  4.0026533E-01
   7169.33  3.9602354E-01
   7169.67  3.9193513E-01
   7170.00  3.8800418E-01
   7170.33  3.8425920E-01
   7170.67  3.8069464E-01
   7171.00  3.7733437E-01
   7171.33  3.7426383E-01
   7171.67  3.7155453E-01
   7172.00  3.6934309E-01
