    FDMNES
    energy     <xanes>
   7097.00  4.2718198E-03
   7097.33  4.3552665E-03
   7097.67  4.4416713E-03
   7098.00  4.5311910E-03
   7098.33  4.6244380E-03
   7098.67  4.7212148E-03
   7099.00  4.8217239E-03
   7099.33  4.9267218E-03
   7099.67  5.0359938E-03
   7100.00  5.1498075E-03
   7100.33  5.2691171E-03
   7100.67  5.3936950E-03
   7101.00  5.5239051E-03
   7101.33  5.6609836E-03
   7101.67  5.8047010E-03
   7102.00  5.9555711E-03
   7102.33  6.1152498E-03
   7102.67  6.2835349E-03
   7103.00  6.4611860E-03
   7103.33  6.6505213E-03
   7103.67  6.8514364E-03
   7104.00  7.0651247E-03
   7104.33  7.2950282E-03
   7104.67  7.5413199E-03
   7105.00  7.8060301E-03
   7105.33  8.0947032E-03
   7105.67  8.4082785E-03
   7106.00  8.7506062E-03
   7106.33  9.1317048E-03
   7106.67  9.5547904E-03
   7107.00  1.0028354E-02
   7107.33  1.0573799E-02
   7107.67  1.1202214E-02
   7108.00  1.1936908E-02
   7108.33  1.2836721E-02
   7108.67  1.3947998E-02
   7109.00  1.5360098E-02
   7109.33  1.7313483E-02
   7109.67  2.0093239E-02
   7110.00  2.4266816E-02
   7110.33  3.1483616E-02
   7110.67  4.3355482E-02
   7111.00  5.9023890E-02
   7111.33  6.8431124E-02
   7111.67  6.9150104E-02
   7112.00  6.7771070E-02
   7112.33  6.7005230E-02
   7112.67  6.4623503E-02
   7113.00  6.1610070E-02
   7113.33  5.9722565E-02
   7113.67  5.8442310E-02
   7114.00  5.8273112E-02
   7114.33  5.9995175E-02
   7114.67  6.3286097E-02
   7115.00  6.7965717E-02
   7115.33  7.4068179E-02
   7115.67  8.1380604E-02
   7116.00  8.9893077E-02
   7116.33  9.9786292E-02
   7116.67  1.1094530E-01
   7117.00  1.2340422E-01
   7117.33  1.3737234E-01
   7117.67  1.5270147E-01
   7118.00  1.6937254E-01
   7118.33  1.8750416E-01
   7118.67  2.0696484E-01
   7119.00  2.2795470E-01
   7119.33  2.5122396E-01
   7119.67  2.7720160E-01
   7120.00  3.0650924E-01
   7120.33  3.4021206E-01
   7120.67  3.7756314E-01
   7121.00  4.1663891E-01
   7121.33  4.5213201E-01
   7121.67  4.7896557E-01
   7122.00  4.9524707E-01
   7122.33  5.0179620E-01
   7122.67  5.0321175E-01
   7123.00  5.0194406E-01
   7123.33  4.9968984E-01
   7123.67  4.9764220E-01
   7124.00  4.9646213E-01
   7124.33  4.9700752E-01
   7124.67  4.9973476E-01
   7125.00  5.0517806E-01
   7125.33  5.1413030E-01
   7125.67  5.2604482E-01
   7126.00  5.4016165E-01
   7126.33  5.5496650E-01
   7126.67  5.6833700E-01
   7127.00  5.7865150E-01
   7127.33  5.8441317E-01
   7127.67  5.8631592E-01
   7128.00  5.8515576E-01
   7128.33  5.8185115E-01
   7128.67  5.7774714E-01
   7129.00  5.7361017E-01
   7129.33  5.6992215E-01
   7129.67  5.6643798E-01
   7130.00  5.6269513E-01
   7130.33  5.5810965E-01
   7130.67  5.5252158E-01
   7131.00  5.4591886E-01
   7131.33  5.3839821E-01
   7131.67  5.3044083E-01
   7132.00  5.2243536E-01
   7132.33  5.1479056E-01
   7132.67  5.0758042E-01
   7133.00  5.0063179E-01
   7133.33  4.9353980E-01
   7133.67  4.8611937E-01
   7134.00  4.7863374E-01
   7134.33  4.7187644E-01
   7134.67  4.6642995E-01
   7135.00  4.6255475E-01
   7135.33  4.6041570E-01
   7135.67  4.5961619E-01
   7136.00  4.5995632E-01
   7136.33  4.6135487E-01
   7136.67  4.6354823E-01
   7137.00  4.6644932E-01
   7137.33  4.7006860E-01
   7137.67  4.7427743E-01
   7138.00  4.7903957E-01
   7138.33  4.8437091E-01
   7138.67  4.9014354E-01
   7139.00  4.9628057E-01
   7139.33  5.0269241E-01
   7139.67  5.0919309E-01
   7140.00  5.1562366E-01
   7140.33  5.2174621E-01
   7140.67  5.2738990E-01
   7141.00  5.3239612E-01
   7141.33  5.3652790E-01
   7141.67  5.3981234E-01
   7142.00  5.4225498E-01
   7142.33  5.4384405E-01
   7142.67  5.4482742E-01
   7143.00  5.4537690E-01
   7143.33  5.4569394E-01
   7143.67  5.4603108E-01
   7144.00  5.4654209E-01
   7144.33  5.4737531E-01
   7144.67  5.4857034E-01
   7145.00  5.5017448E-01
   7145.33  5.5227596E-01
   7145.67  5.5483139E-01
   7146.00  5.5783618E-01
   7146.33  5.6131326E-01
   7146.67  5.6516023E-01
   7147.00  5.6932487E-01
   7147.33  5.7377049E-01
   7147.67  5.7839326E-01
   7148.00  5.8312982E-01
   7148.33  5.8791351E-01
   7148.67  5.9267100E-01
   7149.00  5.9734817E-01
   7149.33  6.0187150E-01
   7149.67  6.0620908E-01
   7150.00  6.1032637E-01
   7150.33  6.1416288E-01
   7150.67  6.1772636E-01
   7151.00  6.2099996E-01
   7151.33  6.2393132E-01
   7151.67  6.2654851E-01
   7152.00  6.2884530E-01
   7152.33  6.3077523E-01
   7152.67  6.3237323E-01
   7153.00  6.3363304E-01
   7153.33  6.3450399E-01
   7153.67  6.3502212E-01
   7154.00  6.3518275E-01
   7154.33  6.3493691E-01
   7154.67  6.3432814E-01
   7155.00  6.3335814E-01
   7155.33  6.3198951E-01
   7155.67  6.3027929E-01
   7156.00  6.2824323E-01
   7156.33  6.2586687E-01
   7156.67  6.2321497E-01
   7157.00  6.2031097E-01
   7157.33  6.1715282E-01
   7157.67  6.1379472E-01
   7158.00  6.1025742E-01
   7158.33  6.0653927E-01
   7158.67  6.0267343E-01
   7159.00  5.9866931E-01
   7159.33  5.9451732E-01
   7159.67  5.9023489E-01
   7160.00  5.8581912E-01
   7160.33  5.8124597E-01
   7160.67  5.7652381E-01
   7161.00  5.7164280E-01
   7161.33  5.6657078E-01
   7161.67  5.6132282E-01
   7162.00  5.5589611E-01
   7162.33  5.5026683E-01
   7162.67  5.4445946E-01
   7163.00  5.3848119E-01
   7163.33  5.3233297E-01
   7163.67  5.2605841E-01
   7164.00  5.1968053E-01
   7164.33  5.1322139E-01
   7164.67  5.0672409E-01
   7165.00  5.0021900E-01
   7165.33  4.9374421E-01
   7165.67  4.8732906E-01
   7166.00  4.8100049E-01
   7166.33  4.7480318E-01
   7166.67  4.6874498E-01
   7167.00  4.6283826E-01
   7167.33  4.5711356E-01
   7167.67  4.5155849E-01
   7168.00  4.4617857E-01
   7168.33  4.4100134E-01
   7168.67  4.3600826E-01
   7169.00  4.3120195E-01
   7169.33  4.2660872E-01
   7169.67  4.2220897E-01
   7170.00  4.1800827E-01
   7170.33  4.1404301E-01
   7170.67  4.1030412E-01
   7171.00  4.0681584E-01
   7171.33  4.0366610E-01
   7171.67  4.0091234E-01
   7172.00  3.9867866E-01
