    FDMNES
    energy     <xanes>
   7097.00  4.2967924E-03
   7097.33  4.3826780E-03
   7097.67  4.4717485E-03
   7098.00  4.5641837E-03
   7098.33  4.6606615E-03
   7098.67  4.7609842E-03
   7099.00  4.8653882E-03
   7099.33  4.9747245E-03
   7099.67  5.0887816E-03
   7100.00  5.2078784E-03
   7100.33  5.3331098E-03
   7100.67  5.4642581E-03
   7101.00  5.6017682E-03
   7101.33  5.7470912E-03
   7101.67  5.9000234E-03
   7102.00  6.0612100E-03
   7102.33  6.2326495E-03
   7102.67  6.4141984E-03
   7103.00  6.6068414E-03
   7103.33  6.8134680E-03
   7103.67  7.0341075E-03
   7104.00  7.2703599E-03
   7104.33  7.5266806E-03
   7104.67  7.8035527E-03
   7105.00  8.1037995E-03
   7105.33  8.4349048E-03
   7105.67  8.7985745E-03
   7106.00  9.2003615E-03
   7106.33  9.6544050E-03
   7106.67  1.0166011E-02
   7107.00  1.0747855E-02
   7107.33  1.1431476E-02
   7107.67  1.2234628E-02
   7108.00  1.3193127E-02
   7108.33  1.4396944E-02
   7108.67  1.5919761E-02
   7109.00  1.7901850E-02
   7109.33  2.0720799E-02
   7109.67  2.4831038E-02
   7110.00  3.1133705E-02
   7110.33  4.2216461E-02
   7110.67  6.0300908E-02
   7111.00  8.3134657E-02
   7111.33  9.8621441E-02
   7111.67  1.0567771E-01
   7112.00  1.0491870E-01
   7112.33  9.7108964E-02
   7112.67  8.8646038E-02
   7113.00  8.0605015E-02
   7113.33  7.3364941E-02
   7113.67  6.7553174E-02
   7114.00  6.3591941E-02
   7114.33  6.1828859E-02
   7114.67  6.1878602E-02
   7115.00  6.3564950E-02
   7115.33  6.6925253E-02
   7115.67  7.1731410E-02
   7116.00  7.8006335E-02
   7116.33  8.6004803E-02
   7116.67  9.5643857E-02
   7117.00  1.0706715E-01
   7117.33  1.2075002E-01
   7117.67  1.3663132E-01
   7118.00  1.5478947E-01
   7118.33  1.7554796E-01
   7118.67  1.9867692E-01
   7119.00  2.2429539E-01
   7119.33  2.5294275E-01
   7119.67  2.8442668E-01
   7120.00  3.1864914E-01
   7120.33  3.5526910E-01
   7120.67  3.9257264E-01
   7121.00  4.2812921E-01
   7121.33  4.5633654E-01
   7121.67  4.7292709E-01
   7122.00  4.7674303E-01
   7122.33  4.7053998E-01
   7122.67  4.6127429E-01
   7123.00  4.5273368E-01
   7123.33  4.4764477E-01
   7123.67  4.4610925E-01
   7124.00  4.4752904E-01
   7124.33  4.5147069E-01
   7124.67  4.5761696E-01
   7125.00  4.6626393E-01
   7125.33  4.7800275E-01
   7125.67  4.9224199E-01
   7126.00  5.0826722E-01
   7126.33  5.2500357E-01
   7126.67  5.4108342E-01
   7127.00  5.5537733E-01
   7127.33  5.6639524E-01
   7127.67  5.7384946E-01
   7128.00  5.7767154E-01
   7128.33  5.7786679E-01
   7128.67  5.7554036E-01
   7129.00  5.7136363E-01
   7129.33  5.6592241E-01
   7129.67  5.5996053E-01
   7130.00  5.5392063E-01
   7130.33  5.4824404E-01
   7130.67  5.4301552E-01
   7131.00  5.3810161E-01
   7131.33  5.3326720E-01
   7131.67  5.2833054E-01
   7132.00  5.2320872E-01
   7132.33  5.1780165E-01
   7132.67  5.1211583E-01
   7133.00  5.0621073E-01
   7133.33  5.0029009E-01
   7133.67  4.9469956E-01
   7134.00  4.8975351E-01
   7134.33  4.8572702E-01
   7134.67  4.8247004E-01
   7135.00  4.7995120E-01
   7135.33  4.7834247E-01
   7135.67  4.7763347E-01
   7136.00  4.7783724E-01
   7136.33  4.7896584E-01
   7136.67  4.8073272E-01
   7137.00  4.8293786E-01
   7137.33  4.8536426E-01
   7137.67  4.8777364E-01
   7138.00  4.9002772E-01
   7138.33  4.9200339E-01
   7138.67  4.9371486E-01
   7139.00  4.9519521E-01
   7139.33  4.9650314E-01
   7139.67  4.9776652E-01
   7140.00  4.9909027E-01
   7140.33  5.0061578E-01
   7140.67  5.0242249E-01
   7141.00  5.0457724E-01
   7141.33  5.0718043E-01
   7141.67  5.1020360E-01
   7142.00  5.1364393E-01
   7142.33  5.1752573E-01
   7142.67  5.2175409E-01
   7143.00  5.2627391E-01
   7143.33  5.3103192E-01
   7143.67  5.3591040E-01
   7144.00  5.4082832E-01
   7144.33  5.4569218E-01
   7144.67  5.5043907E-01
   7145.00  5.5503353E-01
   7145.33  5.5944656E-01
   7145.67  5.6371141E-01
   7146.00  5.6784223E-01
   7146.33  5.7184593E-01
   7146.67  5.7576304E-01
   7147.00  5.7960995E-01
   7147.33  5.8338148E-01
   7147.67  5.8707156E-01
   7148.00  5.9065358E-01
   7148.33  5.9406591E-01
   7148.67  5.9727923E-01
   7149.00  6.0025329E-01
   7149.33  6.0291463E-01
   7149.67  6.0527875E-01
   7150.00  6.0734775E-01
   7150.33  6.0911034E-01
   7150.67  6.1064562E-01
   7151.00  6.1200725E-01
   7151.33  6.1325431E-01
   7151.67  6.1446937E-01
   7152.00  6.1570104E-01
   7152.33  6.1698946E-01
   7152.67  6.1833090E-01
   7153.00  6.1970597E-01
   7153.33  6.2107545E-01
   7153.67  6.2239618E-01
   7154.00  6.2363310E-01
   7154.33  6.2473619E-01
   7154.67  6.2569111E-01
   7155.00  6.2647477E-01
   7155.33  6.2703370E-01
   7155.67  6.2735977E-01
   7156.00  6.2741921E-01
   7156.33  6.2712640E-01
   7156.67  6.2646847E-01
   7157.00  6.2539885E-01
   7157.33  6.2380665E-01
   7157.67  6.2170669E-01
   7158.00  6.1907453E-01
   7158.33  6.1583094E-01
   7158.67  6.1205172E-01
   7159.00  6.0775964E-01
   7159.33  6.0293929E-01
   7159.67  5.9770582E-01
   7160.00  5.9211313E-01
   7160.33  5.8618817E-01
   7160.67  5.8002966E-01
   7161.00  5.7368882E-01
   7161.33  5.6720563E-01
   7161.67  5.6064066E-01
   7162.00  5.5402375E-01
   7162.33  5.4738200E-01
   7162.67  5.4074835E-01
   7163.00  5.3414415E-01
   7163.33  5.2759204E-01
   7163.67  5.2110051E-01
   7164.00  5.1468170E-01
   7164.33  5.0835965E-01
   7164.67  5.0213597E-01
   7165.00  4.9602023E-01
   7165.33  4.9003667E-01
   7165.67  4.8417940E-01
   7166.00  4.7845561E-01
   7166.33  4.7289021E-01
   7166.67  4.6747174E-01
   7167.00  4.6220390E-01
   7167.33  4.5710700E-01
   7167.67  4.5216177E-01
   7168.00  4.4736802E-01
   7168.33  4.4274451E-01
   7168.67  4.3827284E-01
   7169.00  4.3395419E-01
   7169.33  4.2980912E-01
   7169.67  4.2581949E-01
   7170.00  4.2198818E-01
   7170.33  4.1834409E-01
   7170.67  4.1488070E-01
   7171.00  4.1161985E-01
   7171.33  4.0864278E-01
   7171.67  4.0601700E-01
   7172.00  4.0387449E-01
