    FDMNES
    energy     <xanes>
   7097.00  4.2518022E-03
   7097.33  4.3344052E-03
   7097.67  4.4199084E-03
   7098.00  4.5084638E-03
   7098.33  4.6006686E-03
   7098.67  4.6963268E-03
   7099.00  4.7956337E-03
   7099.33  4.8993250E-03
   7099.67  5.0071872E-03
   7100.00  5.1194774E-03
   7100.33  5.2371206E-03
   7100.67  5.3598891E-03
   7101.00  5.4881315E-03
   7101.33  5.6230408E-03
   7101.67  5.7643857E-03
   7102.00  5.9126558E-03
   7102.33  6.0694416E-03
   7102.67  6.2345340E-03
   7103.00  6.4086532E-03
   7103.33  6.5940129E-03
   7103.67  6.7904911E-03
   7104.00  6.9992120E-03
   7104.33  7.2234410E-03
   7104.67  7.4633065E-03
   7105.00  7.7207089E-03
   7105.33  8.0008669E-03
   7105.67  8.3046064E-03
   7106.00  8.6355044E-03
   7106.33  9.0029092E-03
   7106.67  9.4097180E-03
   7107.00  9.8637576E-03
   7107.33  1.0384805E-02
   7107.67  1.0982896E-02
   7108.00  1.1679329E-02
   7108.33  1.2527883E-02
   7108.67  1.3570350E-02
   7109.00  1.4887513E-02
   7109.33  1.6696332E-02
   7109.67  1.9251556E-02
   7110.00  2.3059795E-02
   7110.33  2.9593218E-02
   7110.67  4.0324819E-02
   7111.00  5.4751703E-02
   7111.33  6.4493692E-02
   7111.67  6.5863786E-02
   7112.00  6.4576700E-02
   7112.33  6.4189159E-02
   7112.67  6.2298034E-02
   7113.00  5.9249558E-02
   7113.33  5.7300813E-02
   7113.67  5.5883964E-02
   7114.00  5.5095544E-02
   7114.33  5.5950883E-02
   7114.67  5.8347273E-02
   7115.00  6.2133163E-02
   7115.33  6.7368560E-02
   7115.67  7.3878460E-02
   7116.00  8.1691133E-02
   7116.33  9.1047130E-02
   7116.67  1.0187039E-01
   7117.00  1.1424965E-01
   7117.33  1.2850978E-01
   7117.67  1.4453083E-01
   7118.00  1.6233769E-01
   7118.33  1.8215753E-01
   7118.67  2.0382176E-01
   7119.00  2.2748802E-01
   7119.33  2.5381318E-01
   7119.67  2.8299211E-01
   7120.00  3.1546905E-01
   7120.33  3.5219400E-01
   7120.67  3.9264573E-01
   7121.00  4.3522997E-01
   7121.33  4.7428695E-01
   7121.67  5.0283509E-01
   7122.00  5.1733313E-01
   7122.33  5.1840502E-01
   7122.67  5.1293714E-01
   7123.00  5.0490884E-01
   7123.33  4.9717349E-01
   7123.67  4.9111384E-01
   7124.00  4.8734867E-01
   7124.33  4.8663551E-01
   7124.67  4.8896408E-01
   7125.00  4.9463563E-01
   7125.33  5.0436621E-01
   7125.67  5.1752957E-01
   7126.00  5.3332790E-01
   7126.33  5.5011149E-01
   7126.67  5.6550264E-01
   7127.00  5.7769836E-01
   7127.33  5.8494058E-01
   7127.67  5.8781238E-01
   7128.00  5.8709423E-01
   7128.33  5.8377597E-01
   7128.67  5.7942845E-01
   7129.00  5.7495940E-01
   7129.33  5.7100440E-01
   7129.67  5.6737926E-01
   7130.00  5.6356339E-01
   7130.33  5.5880771E-01
   7130.67  5.5280663E-01
   7131.00  5.4546254E-01
   7131.33  5.3683787E-01
   7131.67  5.2757214E-01
   7132.00  5.1820417E-01
   7132.33  5.0934545E-01
   7132.67  5.0121154E-01
   7133.00  4.9371073E-01
   7133.33  4.8647818E-01
   7133.67  4.7917695E-01
   7134.00  4.7197229E-01
   7134.33  4.6566552E-01
   7134.67  4.6092109E-01
   7135.00  4.5809574E-01
   7135.33  4.5745016E-01
   7135.67  4.5850421E-01
   7136.00  4.6098192E-01
   7136.33  4.6470671E-01
   7136.67  4.6927099E-01
   7137.00  4.7449268E-01
   7137.33  4.8027814E-01
   7137.67  4.8645454E-01
   7138.00  4.9295154E-01
   7138.33  4.9973296E-01
   7138.67  5.0669886E-01
   7139.00  5.1377852E-01
   7139.33  5.2086578E-01
   7139.67  5.2781883E-01
   7140.00  5.3448905E-01
   7140.33  5.4062136E-01
   7140.67  5.4607674E-01
   7141.00  5.5070387E-01
   7141.33  5.5425967E-01
   7141.67  5.5682025E-01
   7142.00  5.5842334E-01
   7142.33  5.5909295E-01
   7142.67  5.5913432E-01
   7143.00  5.5875605E-01
   7143.33  5.5815987E-01
   7143.67  5.5753044E-01
   7144.00  5.5697292E-01
   7144.33  5.5661478E-01
   7144.67  5.5651692E-01
   7145.00  5.5672922E-01
   7145.33  5.5732696E-01
   7145.67  5.5827384E-01
   7146.00  5.5955969E-01
   7146.33  5.6120083E-01
   7146.67  5.6311880E-01
   7147.00  5.6527061E-01
   7147.33  5.6762679E-01
   7147.67  5.7011507E-01
   7148.00  5.7269801E-01
   7148.33  5.7534839E-01
   7148.67  5.7803461E-01
   7149.00  5.8074462E-01
   7149.33  5.8347645E-01
   7149.67  5.8623225E-01
   7150.00  5.8902331E-01
   7150.33  5.9187307E-01
   7150.67  5.9478920E-01
   7151.00  5.9778139E-01
   7151.33  6.0086739E-01
   7151.67  6.0403810E-01
   7152.00  6.0728868E-01
   7152.33  6.1061317E-01
   7152.67  6.1397499E-01
   7153.00  6.1733465E-01
   7153.33  6.2062178E-01
   7153.67  6.2376674E-01
   7154.00  6.2669312E-01
   7154.33  6.2926328E-01
   7154.67  6.3141616E-01
   7155.00  6.3307199E-01
   7155.33  6.3408482E-01
   7155.67  6.3447922E-01
   7156.00  6.3423983E-01
   7156.33  6.3329970E-01
   7156.67  6.3177420E-01
   7157.00  6.2971022E-01
   7157.33  6.2711264E-01
   7157.67  6.2410917E-01
   7158.00  6.2075625E-01
   7158.33  6.1707484E-01
   7158.67  6.1314749E-01
   7159.00  6.0900414E-01
   7159.33  6.0464659E-01
   7159.67  6.0011337E-01
   7160.00  5.9540888E-01
   7160.33  5.9050867E-01
   7160.67  5.8542604E-01
   7161.00  5.8015149E-01
   7161.33  5.7464600E-01
   7161.67  5.6892376E-01
   7162.00  5.6297990E-01
   7162.33  5.5678563E-01
   7162.67  5.5037377E-01
   7163.00  5.4375594E-01
   7163.33  5.3693052E-01
   7163.67  5.2995162E-01
   7164.00  5.2285366E-01
   7164.33  5.1567372E-01
   7164.67  5.0847023E-01
   7165.00  5.0128596E-01
   7165.33  4.9417687E-01
   7165.67  4.8717741E-01
   7166.00  4.8031919E-01
   7166.33  4.7365386E-01
   7166.67  4.6718471E-01
   7167.00  4.6092577E-01
   7167.33  4.5491121E-01
   7167.67  4.4911576E-01
   7168.00  4.4353896E-01
   7168.33  4.3820546E-01
   7168.67  4.3308476E-01
   7169.00  4.2817329E-01
   7169.33  4.2349237E-01
   7169.67  4.1901401E-01
   7170.00  4.1473924E-01
   7170.33  4.1070052E-01
   7170.67  4.0688646E-01
   7171.00  4.0332114E-01
   7171.33  4.0009447E-01
   7171.67  3.9726843E-01
   7172.00  3.9497299E-01
