    FDMNES
    energy     <xanes>
   7097.00  4.3094842E-03
   7097.33  4.3950976E-03
   7097.67  4.4838493E-03
   7098.00  4.5759135E-03
   7098.33  4.6719528E-03
   7098.67  4.7717683E-03
   7099.00  4.8755876E-03
   7099.33  4.9842388E-03
   7099.67  5.0975078E-03
   7100.00  5.2156997E-03
   7100.33  5.3398738E-03
   7100.67  5.4698072E-03
   7101.00  5.6059223E-03
   7101.33  5.7496132E-03
   7101.67  5.9006653E-03
   7102.00  6.0596863E-03
   7102.33  6.2285795E-03
   7102.67  6.4071792E-03
   7103.00  6.5964031E-03
   7103.33  6.7989754E-03
   7103.67  7.0148770E-03
   7104.00  7.2455828E-03
   7104.33  7.4952415E-03
   7104.67  7.7642266E-03
   7105.00  8.0551076E-03
   7105.33  8.3747554E-03
   7105.67  8.7246043E-03
   7106.00  9.1096398E-03
   7106.33  9.5426376E-03
   7106.67  1.0028149E-02
   7107.00  1.0577388E-02
   7107.33  1.1218362E-02
   7107.67  1.1966326E-02
   7108.00  1.2852476E-02
   7108.33  1.3955191E-02
   7108.67  1.5337264E-02
   7109.00  1.7118625E-02
   7109.33  1.9620916E-02
   7109.67  2.3224894E-02
   7110.00  2.8684824E-02
   7110.33  3.8179343E-02
   7110.67  5.3795635E-02
   7111.00  7.4642845E-02
   7111.33  9.0874212E-02
   7111.67  9.6713337E-02
   7112.00  9.3491146E-02
   7112.33  8.7577318E-02
   7112.67  8.1087579E-02
   7113.00  7.4464609E-02
   7113.33  6.8909409E-02
   7113.67  6.5062451E-02
   7114.00  6.3191087E-02
   7114.33  6.3484152E-02
   7114.67  6.5500073E-02
   7115.00  6.9089157E-02
   7115.33  7.4338200E-02
   7115.67  8.1023530E-02
   7116.00  8.9131649E-02
   7116.33  9.8815636E-02
   7116.67  1.0986434E-01
   7117.00  1.2227666E-01
   7117.33  1.3630426E-01
   7117.67  1.5188298E-01
   7118.00  1.6909289E-01
   7118.33  1.8820621E-01
   7118.67  2.0908222E-01
   7119.00  2.3184416E-01
   7119.33  2.5705572E-01
   7119.67  2.8492470E-01
   7120.00  3.1592611E-01
   7120.33  3.5063748E-01
   7120.67  3.8723785E-01
   7121.00  4.2215750E-01
   7121.33  4.4820884E-01
   7121.67  4.6247758E-01
   7122.00  4.6637302E-01
   7122.33  4.6423949E-01
   7122.67  4.6129347E-01
   7123.00  4.5980383E-01
   7123.33  4.6086978E-01
   7123.67  4.6358825E-01
   7124.00  4.6733243E-01
   7124.33  4.7224987E-01
   7124.67  4.7873163E-01
   7125.00  4.8727652E-01
   7125.33  4.9858096E-01
   7125.67  5.1218486E-01
   7126.00  5.2738226E-01
   7126.33  5.4288355E-01
   7126.67  5.5708671E-01
   7127.00  5.6867432E-01
   7127.33  5.7604158E-01
   7127.67  5.7937803E-01
   7128.00  5.7920854E-01
   7128.33  5.7628809E-01
   7128.67  5.7189608E-01
   7129.00  5.6663084E-01
   7129.33  5.6097298E-01
   7129.67  5.5543809E-01
   7130.00  5.5036679E-01
   7130.33  5.4596187E-01
   7130.67  5.4189843E-01
   7131.00  5.3778422E-01
   7131.33  5.3311031E-01
   7131.67  5.2762417E-01
   7132.00  5.2121568E-01
   7132.33  5.1390653E-01
   7132.67  5.0619829E-01
   7133.00  4.9858012E-01
   7133.33  4.9165152E-01
   7133.67  4.8556876E-01
   7134.00  4.8026415E-01
   7134.33  4.7566696E-01
   7134.67  4.7169378E-01
   7135.00  4.6844785E-01
   7135.33  4.6616830E-01
   7135.67  4.6480822E-01
   7136.00  4.6433816E-01
   7136.33  4.6473612E-01
   7136.67  4.6572817E-01
   7137.00  4.6714318E-01
   7137.33  4.6881887E-01
   7137.67  4.7056848E-01
   7138.00  4.7229717E-01
   7138.33  4.7394198E-01
   7138.67  4.7552024E-01
   7139.00  4.7707692E-01
   7139.33  4.7869802E-01
   7139.67  4.8047653E-01
   7140.00  4.8250749E-01
   7140.33  4.8494419E-01
   7140.67  4.8783509E-01
   7141.00  4.9124153E-01
   7141.33  4.9527784E-01
   7141.67  4.9988708E-01
   7142.00  5.0505612E-01
   7142.33  5.1080945E-01
   7142.67  5.1701903E-01
   7143.00  5.2361688E-01
   7143.33  5.3055199E-01
   7143.67  5.3769523E-01
   7144.00  5.4497023E-01
   7144.33  5.5230160E-01
   7144.67  5.5961223E-01
   7145.00  5.6685078E-01
   7145.33  5.7395264E-01
   7145.67  5.8089063E-01
   7146.00  5.8762852E-01
   7146.33  5.9408903E-01
   7146.67  6.0024732E-01
   7147.00  6.0604957E-01
   7147.33  6.1137857E-01
   7147.67  6.1622283E-01
   7148.00  6.2053121E-01
   7148.33  6.2418154E-01
   7148.67  6.2721361E-01
   7149.00  6.2961515E-01
   7149.33  6.3132207E-01
   7149.67  6.3245434E-01
   7150.00  6.3306963E-01
   7150.33  6.3319802E-01
   7150.67  6.3298858E-01
   7151.00  6.3252372E-01
   7151.33  6.3186763E-01
   7151.67  6.3110471E-01
   7152.00  6.3026619E-01
   7152.33  6.2935284E-01
   7152.67  6.2835925E-01
   7153.00  6.2726352E-01
   7153.33  6.2602300E-01
   7153.67  6.2463642E-01
   7154.00  6.2309875E-01
   7154.33  6.2139645E-01
   7154.67  6.1956041E-01
   7155.00  6.1760369E-01
   7155.33  6.1552698E-01
   7155.67  6.1335386E-01
   7156.00  6.1108890E-01
   7156.33  6.0872067E-01
   7156.67  6.0625530E-01
   7157.00  6.0368428E-01
   7157.33  6.0097988E-01
   7157.67  5.9814355E-01
   7158.00  5.9516546E-01
   7158.33  5.9201669E-01
   7158.67  5.8870800E-01
   7159.00  5.8523496E-01
   7159.33  5.8157427E-01
   7159.67  5.7774624E-01
   7160.00  5.7375122E-01
   7160.33  5.6957025E-01
   7160.67  5.6522940E-01
   7161.00  5.6073686E-01
   7161.33  5.5608289E-01
   7161.67  5.5129241E-01
   7162.00  5.4637386E-01
   7162.33  5.4132781E-01
   7162.67  5.3618429E-01
   7163.00  5.3095762E-01
   7163.33  5.2565724E-01
   7163.67  5.2030863E-01
   7164.00  5.1492740E-01
   7164.33  5.0953070E-01
   7164.67  5.0413920E-01
   7165.00  4.9876873E-01
   7165.33  4.9344187E-01
   7165.67  4.8817110E-01
   7166.00  4.8297071E-01
   7166.33  4.7786652E-01
   7166.67  4.7286056E-01
   7167.00  4.6796063E-01
   7167.33  4.6318575E-01
   7167.67  4.5852473E-01
   7168.00  4.5397869E-01
   7168.33  4.4956203E-01
   7168.67  4.4525971E-01
   7169.00  4.4107102E-01
   7169.33  4.3700873E-01
   7169.67  4.3305981E-01
   7170.00  4.2922911E-01
   7170.33  4.2554251E-01
   7170.67  4.2200260E-01
   7171.00  4.1863828E-01
   7171.33  4.1554054E-01
   7171.67  4.1279519E-01
   7172.00  4.1055224E-01
