    FDMNES
    energy     <xanes>
   7097.00  4.3023154E-03
   7097.33  4.3910042E-03
   7097.67  4.4831521E-03
   7098.00  4.5789684E-03
   7098.33  4.6792134E-03
   7098.67  4.7836922E-03
   7099.00  4.8926858E-03
   7099.33  5.0071670E-03
   7099.67  5.1269326E-03
   7100.00  5.2523708E-03
   7100.33  5.3847612E-03
   7100.67  5.5239057E-03
   7101.00  5.6703595E-03
   7101.33  5.8258625E-03
   7101.67  5.9902536E-03
   7102.00  6.1643606E-03
   7102.33  6.3506489E-03
   7102.67  6.5490664E-03
   7103.00  6.7609115E-03
   7103.33  6.9898626E-03
   7103.67  7.2361453E-03
   7104.00  7.5019280E-03
   7104.33  7.7930692E-03
   7104.67  8.1104899E-03
   7105.00  8.4581095E-03
   7105.33  8.8460799E-03
   7105.67  9.2771412E-03
   7106.00  9.7591450E-03
   7106.33  1.0311769E-02
   7106.67  1.0942990E-02
   7107.00  1.1670882E-02
   7107.33  1.2539979E-02
   7107.67  1.3575940E-02
   7108.00  1.4829528E-02
   7108.33  1.6427345E-02
   7108.67  1.8472124E-02
   7109.00  2.1157854E-02
   7109.33  2.5002026E-02
   7109.67  3.0613093E-02
   7110.00  3.9189136E-02
   7110.33  5.4143029E-02
   7110.67  7.8397170E-02
   7111.00  1.0938491E-01
   7111.33  1.3498975E-01
   7111.67  1.6035281E-01
   7112.00  1.8412427E-01
   7112.33  1.8279857E-01
   7112.67  1.5905835E-01
   7113.00  1.3394355E-01
   7113.33  1.1215298E-01
   7113.67  9.0957053E-02
   7114.00  7.3557054E-02
   7114.33  6.2665853E-02
   7114.67  5.6547408E-02
   7115.00  5.3679224E-02
   7115.33  5.3113173E-02
   7115.67  5.3998162E-02
   7116.00  5.6108637E-02
   7116.33  5.9461045E-02
   7116.67  6.3888953E-02
   7117.00  6.9470368E-02
   7117.33  7.6492838E-02
   7117.67  8.4782578E-02
   7118.00  9.4155715E-02
   7118.33  1.0439971E-01
   7118.67  1.1525952E-01
   7119.00  1.2684552E-01
   7119.33  1.3954874E-01
   7119.67  1.5338545E-01
   7120.00  1.6827574E-01
   7120.33  1.8410184E-01
   7120.67  2.0066932E-01
   7121.00  2.1821676E-01
   7121.33  2.3766995E-01
   7121.67  2.5983219E-01
   7122.00  2.8553446E-01
   7122.33  3.1553140E-01
   7122.67  3.4783357E-01
   7123.00  3.7927672E-01
   7123.33  4.0533259E-01
   7123.67  4.2584644E-01
   7124.00  4.4280504E-01
   7124.33  4.5900561E-01
   7124.67  4.7679284E-01
   7125.00  4.9681908E-01
   7125.33  5.1794643E-01
   7125.67  5.3842534E-01
   7126.00  5.5825150E-01
   7126.33  5.7907556E-01
   7126.67  6.0175419E-01
   7127.00  6.2542677E-01
   7127.33  6.4842536E-01
   7127.67  6.7003338E-01
   7128.00  6.8945729E-01
   7128.33  7.0413249E-01
   7128.67  7.1250014E-01
   7129.00  7.1400606E-01
   7129.33  7.0883376E-01
   7129.67  6.9950637E-01
   7130.00  6.8773725E-01
   7130.33  6.7542377E-01
   7130.67  6.6431902E-01
   7131.00  6.5546573E-01
   7131.33  6.4975343E-01
   7131.67  6.4663996E-01
   7132.00  6.4560833E-01
   7132.33  6.4617295E-01
   7132.67  6.4748657E-01
   7133.00  6.4898157E-01
   7133.33  6.5017341E-01
   7133.67  6.5090386E-01
   7134.00  6.5102222E-01
   7134.33  6.5007032E-01
   7134.67  6.4780215E-01
   7135.00  6.4414777E-01
   7135.33  6.3931223E-01
   7135.67  6.3404097E-01
   7136.00  6.2889194E-01
   7136.33  6.2451357E-01
   7136.67  6.2125535E-01
   7137.00  6.1937644E-01
   7137.33  6.1922907E-01
   7137.67  6.2062798E-01
   7138.00  6.2345661E-01
   7138.33  6.2759748E-01
   7138.67  6.3254983E-01
   7139.00  6.3798540E-01
   7139.33  6.4356650E-01
   7139.67  6.4898909E-01
   7140.00  6.5406502E-01
   7140.33  6.5856587E-01
   7140.67  6.6243044E-01
   7141.00  6.6557664E-01
   7141.33  6.6781351E-01
   7141.67  6.6913745E-01
   7142.00  6.6946230E-01
   7142.33  6.6857669E-01
   7142.67  6.6657792E-01
   7143.00  6.6347571E-01
   7143.33  6.5921163E-01
   7143.67  6.5404050E-01
   7144.00  6.4809106E-01
   7144.33  6.4143687E-01
   7144.67  6.3429540E-01
   7145.00  6.2676703E-01
   7145.33  6.1890207E-01
   7145.67  6.1079211E-01
   7146.00  6.0245695E-01
   7146.33  5.9386433E-01
   7146.67  5.8502264E-01
   7147.00  5.7591144E-01
   7147.33  5.6647723E-01
   7147.67  5.5675500E-01
   7148.00  5.4676355E-01
   7148.33  5.3652298E-01
   7148.67  5.2613750E-01
   7149.00  5.1569465E-01
   7149.33  5.0531969E-01
   7149.67  4.9512656E-01
   7150.00  4.8521579E-01
   7150.33  4.7573841E-01
   7150.67  4.6672422E-01
   7151.00  4.5821459E-01
   7151.33  4.5029044E-01
   7151.67  4.4287286E-01
   7152.00  4.3593665E-01
   7152.33  4.2949846E-01
   7152.67  4.2345210E-01
   7153.00  4.1774687E-01
   7153.33  4.1236099E-01
   7153.67  4.0721191E-01
   7154.00  4.0227323E-01
   7154.33  3.9754860E-01
   7154.67  3.9299661E-01
   7155.00  3.8860597E-01
   7155.33  3.8438881E-01
   7155.67  3.8032580E-01
   7156.00  3.7642064E-01
   7156.33  3.7270002E-01
   7156.67  3.6915088E-01
   7157.00  3.6578004E-01
   7157.33  3.6261770E-01
   7157.67  3.5964475E-01
   7158.00  3.5685901E-01
   7158.33  3.5426822E-01
   7158.67  3.5182533E-01
   7159.00  3.4950196E-01
   7159.33  3.4726976E-01
   7159.67  3.4507755E-01
   7160.00  3.4289163E-01
   7160.33  3.4067662E-01
   7160.67  3.3841637E-01
   7161.00  3.3610709E-01
   7161.33  3.3375641E-01
   7161.67  3.3139792E-01
   7162.00  3.2906789E-01
   7162.33  3.2682844E-01
   7162.67  3.2472538E-01
   7163.00  3.2280467E-01
   7163.33  3.2114753E-01
   7163.67  3.1977271E-01
   7164.00  3.1871427E-01
   7164.33  3.1804688E-01
   7164.67  3.1775175E-01
   7165.00  3.1784281E-01
   7165.33  3.1837606E-01
   7165.67  3.1930262E-01
   7166.00  3.2061948E-01
   7166.33  3.2236820E-01
   7166.67  3.2449154E-01
   7167.00  3.2697987E-01
   7167.33  3.2986438E-01
   7167.67  3.3308652E-01
   7168.00  3.3663250E-01
   7168.33  3.4052258E-01
   7168.67  3.4469767E-01
   7169.00  3.4913674E-01
   7169.33  3.5384007E-01
   7169.67  3.5874275E-01
   7170.00  3.6380739E-01
   7170.33  3.6899286E-01
   7170.67  3.7421279E-01
   7171.00  3.7938026E-01
   7171.33  3.8431418E-01
   7171.67  3.8877727E-01
   7172.00  3.9243828E-01
