    FDMNES
    energy     <xanes>
   7097.00  4.9320889E-03
   7097.33  5.0421692E-03
   7097.67  5.1570361E-03
   7098.00  5.2770047E-03
   7098.33  5.4031680E-03
   7098.67  5.5352877E-03
   7099.00  5.6737905E-03
   7099.33  5.8200961E-03
   7099.67  5.9739577E-03
   7100.00  6.1359687E-03
   7100.33  6.3080205E-03
   7100.67  6.4898770E-03
   7101.00  6.6823887E-03
   7101.33  6.8881524E-03
   7101.67  7.1069866E-03
   7102.00  7.3401551E-03
   7102.33  7.5913541E-03
   7102.67  7.8605541E-03
   7103.00  8.1497158E-03
   7103.33  8.4643388E-03
   7103.67  8.8047654E-03
   7104.00  9.1742054E-03
   7104.33  9.5813041E-03
   7104.67  1.0027301E-02
   7105.00  1.0517817E-02
   7105.33  1.1067437E-02
   7105.67  1.1679649E-02
   7106.00  1.2365199E-02
   7106.33  1.3151124E-02
   7106.67  1.4047041E-02
   7107.00  1.5076127E-02
   7107.33  1.6295560E-02
   7107.67  1.7734254E-02
   7108.00  1.9451780E-02
   7108.33  2.1595504E-02
   7108.67  2.4271058E-02
   7109.00  2.7680250E-02
   7109.33  3.2348217E-02
   7109.67  3.8827378E-02
   7110.00  4.8194450E-02
   7110.33  6.3525812E-02
   7110.67  8.8349609E-02
   7111.00  1.2544975E-01
   7111.33  1.7063058E-01
   7111.67  2.0802710E-01
   7112.00  2.2751164E-01
   7112.33  2.3822199E-01
   7112.67  2.5617734E-01
   7113.00  2.8752088E-01
   7113.33  3.3347592E-01
   7113.67  3.7785113E-01
   7114.00  3.9462771E-01
   7114.33  3.6653937E-01
   7114.67  3.1783148E-01
   7115.00  2.6728658E-01
   7115.33  2.2720761E-01
   7115.67  1.9830347E-01
   7116.00  1.7872774E-01
   7116.33  1.6556067E-01
   7116.67  1.5433376E-01
   7117.00  1.4348542E-01
   7117.33  1.3410401E-01
   7117.67  1.2754058E-01
   7118.00  1.2386538E-01
   7118.33  1.2224858E-01
   7118.67  1.2159245E-01
   7119.00  1.2189346E-01
   7119.33  1.2365300E-01
   7119.67  1.2676559E-01
   7120.00  1.3087238E-01
   7120.33  1.3502214E-01
   7120.67  1.3797285E-01
   7121.00  1.3925698E-01
   7121.33  1.3973907E-01
   7121.67  1.4146564E-01
   7122.00  1.4594109E-01
   7122.33  1.5466090E-01
   7122.67  1.6749539E-01
   7123.00  1.8420123E-01
   7123.33  2.0398237E-01
   7123.67  2.2443966E-01
   7124.00  2.4365685E-01
   7124.33  2.6035430E-01
   7124.67  2.7589631E-01
   7125.00  2.9181330E-01
   7125.33  3.0877068E-01
   7125.67  3.2586943E-01
   7126.00  3.4225223E-01
   7126.33  3.5733769E-01
   7126.67  3.7147742E-01
   7127.00  3.8496682E-01
   7127.33  3.9750286E-01
   7127.67  4.0804770E-01
   7128.00  4.1558334E-01
   7128.33  4.1998232E-01
   7128.67  4.2307188E-01
   7129.00  4.2625233E-01
   7129.33  4.3130030E-01
   7129.67  4.3950947E-01
   7130.00  4.5193100E-01
   7130.33  4.6998327E-01
   7130.67  4.9346523E-01
   7131.00  5.2268620E-01
   7131.33  5.5903361E-01
   7131.67  6.0280050E-01
   7132.00  6.5540978E-01
   7132.33  7.2023014E-01
   7132.67  7.9735219E-01
   7133.00  8.8601841E-01
   7133.33  9.8109969E-01
   7133.67  1.0698692E+00
   7134.00  1.1405729E+00
   7134.33  1.1826946E+00
   7134.67  1.2017386E+00
   7135.00  1.2027405E+00
   7135.33  1.1867790E+00
   7135.67  1.1564285E+00
   7136.00  1.1141097E+00
   7136.33  1.0645640E+00
   7136.67  1.0139144E+00
   7137.00  9.6494183E-01
   7137.33  9.1945224E-01
   7137.67  8.7745995E-01
   7138.00  8.3903472E-01
   7138.33  8.0465413E-01
   7138.67  7.7388704E-01
   7139.00  7.4670887E-01
   7139.33  7.2341755E-01
   7139.67  7.0330013E-01
   7140.00  6.8599346E-01
   7140.33  6.7123375E-01
   7140.67  6.5810938E-01
   7141.00  6.4607464E-01
   7141.33  6.3463488E-01
   7141.67  6.2331500E-01
   7142.00  6.1190530E-01
   7142.33  6.0029828E-01
   7142.67  5.8855436E-01
   7143.00  5.7673846E-01
   7143.33  5.6488738E-01
   7143.67  5.5297710E-01
   7144.00  5.4094299E-01
   7144.33  5.2869164E-01
   7144.67  5.1624893E-01
   7145.00  5.0370650E-01
   7145.33  4.9128711E-01
   7145.67  4.7925595E-01
   7146.00  4.6786382E-01
   7146.33  4.5746703E-01
   7146.67  4.4810840E-01
   7147.00  4.3984124E-01
   7147.33  4.3278553E-01
   7147.67  4.2673862E-01
   7148.00  4.2162558E-01
   7148.33  4.1747038E-01
   7148.67  4.1409769E-01
   7149.00  4.1145262E-01
   7149.33  4.0954866E-01
   7149.67  4.0822705E-01
   7150.00  4.0741965E-01
   7150.33  4.0709244E-01
   7150.67  4.0709317E-01
   7151.00  4.0733566E-01
   7151.33  4.0774536E-01
   7151.67  4.0822510E-01
   7152.00  4.0872355E-01
   7152.33  4.0920004E-01
   7152.67  4.0964158E-01
   7153.00  4.1005148E-01
   7153.33  4.1044849E-01
   7153.67  4.1086710E-01
   7154.00  4.1134136E-01
   7154.33  4.1192467E-01
   7154.67  4.1264398E-01
   7155.00  4.1352837E-01
   7155.33  4.1462814E-01
   7155.67  4.1593644E-01
   7156.00  4.1746044E-01
   7156.33  4.1922699E-01
   7156.67  4.2119999E-01
   7157.00  4.2336475E-01
   7157.33  4.2571805E-01
   7157.67  4.2820661E-01
   7158.00  4.3079534E-01
   7158.33  4.3344474E-01
   7158.67  4.3610038E-01
   7159.00  4.3872309E-01
   7159.33  4.4126380E-01
   7159.67  4.4370096E-01
   7160.00  4.4601719E-01
   7160.33  4.4818688E-01
   7160.67  4.5022765E-01
   7161.00  4.5214792E-01
   7161.33  4.5394939E-01
   7161.67  4.5566013E-01
   7162.00  4.5728964E-01
   7162.33  4.5884078E-01
   7162.67  4.6032927E-01
   7163.00  4.6175537E-01
   7163.33  4.6312295E-01
   7163.67  4.6445659E-01
   7164.00  4.6577244E-01
   7164.33  4.6709027E-01
   7164.67  4.6842901E-01
   7165.00  4.6980143E-01
   7165.33  4.7122489E-01
   7165.67  4.7270363E-01
   7166.00  4.7424207E-01
   7166.33  4.7584738E-01
   7166.67  4.7750640E-01
   7167.00  4.7920903E-01
   7167.33  4.8094085E-01
   7167.67  4.8267699E-01
   7168.00  4.8439787E-01
   7168.33  4.8607977E-01
   7168.67  4.8771075E-01
   7169.00  4.8927516E-01
   7169.33  4.9074414E-01
   7169.67  4.9211228E-01
   7170.00  4.9336788E-01
   7170.33  4.9448317E-01
   7170.67  4.9546315E-01
   7171.00  4.9630062E-01
   7171.33  4.9697261E-01
   7171.67  4.9750029E-01
   7172.00  4.9789581E-01
