    FDMNES
    energy     <xanes>
   7097.00  4.9233676E-03
   7097.33  5.0423703E-03
   7097.67  5.1669290E-03
   7098.00  5.2974340E-03
   7098.33  5.4351962E-03
   7098.67  5.5799736E-03
   7099.00  5.7323049E-03
   7099.33  5.8939242E-03
   7099.67  6.0645930E-03
   7100.00  6.2450756E-03
   7100.33  6.4377314E-03
   7100.67  6.6423588E-03
   7101.00  6.8600794E-03
   7101.33  7.0942116E-03
   7101.67  7.3446647E-03
   7102.00  7.6131498E-03
   7102.33  7.9045248E-03
   7102.67  8.2189734E-03
   7103.00  8.5592325E-03
   7103.33  8.9327678E-03
   7103.67  9.3404121E-03
   7104.00  9.7868043E-03
   7104.33  1.0284133E-02
   7104.67  1.0834788E-02
   7105.00  1.1447226E-02
   7105.33  1.2142942E-02
   7105.67  1.2928280E-02
   7106.00  1.3820182E-02
   7106.33  1.4860617E-02
   7106.67  1.6067017E-02
   7107.00  1.7477958E-02
   7107.33  1.9187823E-02
   7107.67  2.1250317E-02
   7108.00  2.3771123E-02
   7108.33  2.7011915E-02
   7108.67  3.1178090E-02
   7109.00  3.6655865E-02
   7109.33  4.4462473E-02
   7109.67  5.5744364E-02
   7110.00  7.2743365E-02
   7110.33  1.0188894E-01
   7110.67  1.4991493E-01
   7111.00  2.1794873E-01
   7111.33  2.8486463E-01
   7111.67  3.3818211E-01
   7112.00  3.9092688E-01
   7112.33  4.4089593E-01
   7112.67  4.5631602E-01
   7113.00  4.0738241E-01
   7113.33  3.1039059E-01
   7113.67  2.2903570E-01
   7114.00  1.7673212E-01
   7114.33  1.5173049E-01
   7114.67  1.4594349E-01
   7115.00  1.5625418E-01
   7115.33  1.7050981E-01
   7115.67  1.6503891E-01
   7116.00  1.4000734E-01
   7116.33  1.1481265E-01
   7116.67  9.7443129E-02
   7117.00  8.7334450E-02
   7117.33  8.3154855E-02
   7117.67  8.2378808E-02
   7118.00  8.3534423E-02
   7118.33  8.5725227E-02
   7118.67  8.9070725E-02
   7119.00  9.3924709E-02
   7119.33  9.9813313E-02
   7119.67  1.0523399E-01
   7120.00  1.0917605E-01
   7120.33  1.1212717E-01
   7120.67  1.1662937E-01
   7121.00  1.2434550E-01
   7121.33  1.3603585E-01
   7121.67  1.5083474E-01
   7122.00  1.6886677E-01
   7122.33  1.9110944E-01
   7122.67  2.1675314E-01
   7123.00  2.4446011E-01
   7123.33  2.7333469E-01
   7123.67  3.0381095E-01
   7124.00  3.3554049E-01
   7124.33  3.6552361E-01
   7124.67  3.8999921E-01
   7125.00  4.0634296E-01
   7125.33  4.1392043E-01
   7125.67  4.1756732E-01
   7126.00  4.2150319E-01
   7126.33  4.3031590E-01
   7126.67  4.4545031E-01
   7127.00  4.6683488E-01
   7127.33  4.9348341E-01
   7127.67  5.2284314E-01
   7128.00  5.5373586E-01
   7128.33  5.8486425E-01
   7128.67  6.1403868E-01
   7129.00  6.4027155E-01
   7129.33  6.6627098E-01
   7129.67  6.9591211E-01
   7130.00  7.2869914E-01
   7130.33  7.5932952E-01
   7130.67  7.8277790E-01
   7131.00  7.9685819E-01
   7131.33  8.0011993E-01
   7131.67  7.9484936E-01
   7132.00  7.8306845E-01
   7132.33  7.6791045E-01
   7132.67  7.5330541E-01
   7133.00  7.4152756E-01
   7133.33  7.3456608E-01
   7133.67  7.3211807E-01
   7134.00  7.3355458E-01
   7134.33  7.3763274E-01
   7134.67  7.4208741E-01
   7135.00  7.4556784E-01
   7135.33  7.4737554E-01
   7135.67  7.4803530E-01
   7136.00  7.4789468E-01
   7136.33  7.4693474E-01
   7136.67  7.4501926E-01
   7137.00  7.4188930E-01
   7137.33  7.3721882E-01
   7137.67  7.3135057E-01
   7138.00  7.2469498E-01
   7138.33  7.1776079E-01
   7138.67  7.1085167E-01
   7139.00  7.0384481E-01
   7139.33  6.9613161E-01
   7139.67  6.8700550E-01
   7140.00  6.7578940E-01
   7140.33  6.6175430E-01
   7140.67  6.4561540E-01
   7141.00  6.2846232E-01
   7141.33  6.1217370E-01
   7141.67  5.9834851E-01
   7142.00  5.8793242E-01
   7142.33  5.8166482E-01
   7142.67  5.7852143E-01
   7143.00  5.7749699E-01
   7143.33  5.7713127E-01
   7143.67  5.7573538E-01
   7144.00  5.7213530E-01
   7144.33  5.6515987E-01
   7144.67  5.5520410E-01
   7145.00  5.4290743E-01
   7145.33  5.2932951E-01
   7145.67  5.1594166E-01
   7146.00  5.0369662E-01
   7146.33  4.9354681E-01
   7146.67  4.8557143E-01
   7147.00  4.7979649E-01
   7147.33  4.7632226E-01
   7147.67  4.7462408E-01
   7148.00  4.7444302E-01
   7148.33  4.7563149E-01
   7148.67  4.7774896E-01
   7149.00  4.8056292E-01
   7149.33  4.8388301E-01
   7149.67  4.8743218E-01
   7150.00  4.9103722E-01
   7150.33  4.9449386E-01
   7150.67  4.9764953E-01
   7151.00  5.0038946E-01
   7151.33  5.0258973E-01
   7151.67  5.0435595E-01
   7152.00  5.0582204E-01
   7152.33  5.0721089E-01
   7152.67  5.0876998E-01
   7153.00  5.1064766E-01
   7153.33  5.1294607E-01
   7153.67  5.1553279E-01
   7154.00  5.1823930E-01
   7154.33  5.2079162E-01
   7154.67  5.2294836E-01
   7155.00  5.2453033E-01
   7155.33  5.2532331E-01
   7155.67  5.2538222E-01
   7156.00  5.2473644E-01
   7156.33  5.2337275E-01
   7156.67  5.2143806E-01
   7157.00  5.1897145E-01
   7157.33  5.1592282E-01
   7157.67  5.1234085E-01
   7158.00  5.0819624E-01
   7158.33  5.0337677E-01
   7158.67  4.9793505E-01
   7159.00  4.9187651E-01
   7159.33  4.8517507E-01
   7159.67  4.7799243E-01
   7160.00  4.7043671E-01
   7160.33  4.6263099E-01
   7160.67  4.5476628E-01
   7161.00  4.4697881E-01
   7161.33  4.3943420E-01
   7161.67  4.3221095E-01
   7162.00  4.2536828E-01
   7162.33  4.1898869E-01
   7162.67  4.1301779E-01
   7163.00  4.0743388E-01
   7163.33  4.0224125E-01
   7163.67  3.9735118E-01
   7164.00  3.9272698E-01
   7164.33  3.8836380E-01
   7164.67  3.8421162E-01
   7165.00  3.8026398E-01
   7165.33  3.7655104E-01
   7165.67  3.7306048E-01
   7166.00  3.6981015E-01
   7166.33  3.6685823E-01
   7166.67  3.6419726E-01
   7167.00  3.6184702E-01
   7167.33  3.5986705E-01
   7167.67  3.5822825E-01
   7168.00  3.5693478E-01
   7168.33  3.5602630E-01
   7168.67  3.5544968E-01
   7169.00  3.5519180E-01
   7169.33  3.5527122E-01
   7169.67  3.5562825E-01
   7170.00  3.5624126E-01
   7170.33  3.5710989E-01
   7170.67  3.5817054E-01
   7171.00  3.5938306E-01
   7171.33  3.6068634E-01
   7171.67  3.6194842E-01
   7172.00  3.6301224E-01
