    FDMNES
    energy     <xanes>
   7097.00  5.3210667E-03
   7097.33  5.4610979E-03
   7097.67  5.6080785E-03
   7098.00  5.7625074E-03
   7098.33  5.9260404E-03
   7098.67  6.0983859E-03
   7099.00  6.2802298E-03
   7099.33  6.4737643E-03
   7099.67  6.6786973E-03
   7100.00  6.8959970E-03
   7100.33  7.1286402E-03
   7100.67  7.3763717E-03
   7101.00  7.6405994E-03
   7101.33  7.9254896E-03
   7101.67  8.2309046E-03
   7102.00  8.5589666E-03
   7102.33  8.9157201E-03
   7102.67  9.3013231E-03
   7103.00  9.7191149E-03
   7103.33  1.0178258E-02
   7103.67  1.0679609E-02
   7104.00  1.1228708E-02
   7104.33  1.1840228E-02
   7104.67  1.2516681E-02
   7105.00  1.3267904E-02
   7105.33  1.4119104E-02
   7105.67  1.5076938E-02
   7106.00  1.6160486E-02
   7106.33  1.7417362E-02
   7106.67  1.8865599E-02
   7107.00  2.0547074E-02
   7107.33  2.2564680E-02
   7107.67  2.4972942E-02
   7108.00  2.7882198E-02
   7108.33  3.1565911E-02
   7108.67  3.6229106E-02
   7109.00  4.2262340E-02
   7109.33  5.0694430E-02
   7109.67  6.2666681E-02
   7110.00  8.0423651E-02
   7110.33  1.1037913E-01
   7110.67  1.5877931E-01
   7111.00  2.2449464E-01
   7111.33  2.7970805E-01
   7111.67  3.0939007E-01
   7112.00  3.4391976E-01
   7112.33  4.1662931E-01
   7112.67  5.0197358E-01
   7113.00  5.6835652E-01
   7113.33  6.0880395E-01
   7113.67  6.5607472E-01
   7114.00  6.9797487E-01
   7114.33  6.6204112E-01
   7114.67  5.5359615E-01
   7115.00  4.2978392E-01
   7115.33  3.3445694E-01
   7115.67  2.6716632E-01
   7116.00  2.2107412E-01
   7116.33  1.9073241E-01
   7116.67  1.6984299E-01
   7117.00  1.5617641E-01
   7117.33  1.4892217E-01
   7117.67  1.4627185E-01
   7118.00  1.4684707E-01
   7118.33  1.4770435E-01
   7118.67  1.4613327E-01
   7119.00  1.4278009E-01
   7119.33  1.3995462E-01
   7119.67  1.3811347E-01
   7120.00  1.3666394E-01
   7120.33  1.3469356E-01
   7120.67  1.3115993E-01
   7121.00  1.2573617E-01
   7121.33  1.2027353E-01
   7121.67  1.1668934E-01
   7122.00  1.1499634E-01
   7122.33  1.1426763E-01
   7122.67  1.1343745E-01
   7123.00  1.1244560E-01
   7123.33  1.1242907E-01
   7123.67  1.1454955E-01
   7124.00  1.1936785E-01
   7124.33  1.2735023E-01
   7124.67  1.3818210E-01
   7125.00  1.5203388E-01
   7125.33  1.6908396E-01
   7125.67  1.8733231E-01
   7126.00  2.0490464E-01
   7126.33  2.2183306E-01
   7126.67  2.4027380E-01
   7127.00  2.6180657E-01
   7127.33  2.8774005E-01
   7127.67  3.1641750E-01
   7128.00  3.4442835E-01
   7128.33  3.6543359E-01
   7128.67  3.7726849E-01
   7129.00  3.8201186E-01
   7129.33  3.8487945E-01
   7129.67  3.9069215E-01
   7130.00  4.0161956E-01
   7130.33  4.1941438E-01
   7130.67  4.4320884E-01
   7131.00  4.7208988E-01
   7131.33  5.0465944E-01
   7131.67  5.3884829E-01
   7132.00  5.7424599E-01
   7132.33  6.1195496E-01
   7132.67  6.5272855E-01
   7133.00  6.9619153E-01
   7133.33  7.3976896E-01
   7133.67  7.7933892E-01
   7134.00  8.1129314E-01
   7134.33  8.3125892E-01
   7134.67  8.4023445E-01
   7135.00  8.4068434E-01
   7135.33  8.3660276E-01
   7135.67  8.3186685E-01
   7136.00  8.2722094E-01
   7136.33  8.2123930E-01
   7136.67  8.1159606E-01
   7137.00  7.9617452E-01
   7137.33  7.7283868E-01
   7137.67  7.4332319E-01
   7138.00  7.0991902E-01
   7138.33  6.7598458E-01
   7138.67  6.4455302E-01
   7139.00  6.1719948E-01
   7139.33  5.9505798E-01
   7139.67  5.7705727E-01
   7140.00  5.6242242E-01
   7140.33  5.5082338E-01
   7140.67  5.4188794E-01
   7141.00  5.3600025E-01
   7141.33  5.3405729E-01
   7141.67  5.3566790E-01
   7142.00  5.4044981E-01
   7142.33  5.4793962E-01
   7142.67  5.5702751E-01
   7143.00  5.6718611E-01
   7143.33  5.7818996E-01
   7143.67  5.8988597E-01
   7144.00  6.0231467E-01
   7144.33  6.1557670E-01
   7144.67  6.2945626E-01
   7145.00  6.4372992E-01
   7145.33  6.5803440E-01
   7145.67  6.7193737E-01
   7146.00  6.8507064E-01
   7146.33  6.9692027E-01
   7146.67  7.0736155E-01
   7147.00  7.1626035E-01
   7147.33  7.2335108E-01
   7147.67  7.2882316E-01
   7148.00  7.3268480E-01
   7148.33  7.3474949E-01
   7148.67  7.3521789E-01
   7149.00  7.3408406E-01
   7149.33  7.3114502E-01
   7149.67  7.2663323E-01
   7150.00  7.2061820E-01
   7150.33  7.1306433E-01
   7150.67  7.0433487E-01
   7151.00  6.9463257E-01
   7151.33  6.8413355E-01
   7151.67  6.7320295E-01
   7152.00  6.6207381E-01
   7152.33  6.5100650E-01
   7152.67  6.4021782E-01
   7153.00  6.2986092E-01
   7153.33  6.2011921E-01
   7153.67  6.1099001E-01
   7154.00  6.0250847E-01
   7154.33  5.9477848E-01
   7154.67  5.8771633E-01
   7155.00  5.8130808E-01
   7155.33  5.7560324E-01
   7155.67  5.7048540E-01
   7156.00  5.6591711E-01
   7156.33  5.6191518E-01
   7156.67  5.5836952E-01
   7157.00  5.5523900E-01
   7157.33  5.5252059E-01
   7157.67  5.5011948E-01
   7158.00  5.4799407E-01
   7158.33  5.4612561E-01
   7158.67  5.4444160E-01
   7159.00  5.4290841E-01
   7159.33  5.4151030E-01
   7159.67  5.4021274E-01
   7160.00  5.3900381E-01
   7160.33  5.3787702E-01
   7160.67  5.3679327E-01
   7161.00  5.3570483E-01
   7161.33  5.3452342E-01
   7161.67  5.3315985E-01
   7162.00  5.3151138E-01
   7162.33  5.2938899E-01
   7162.67  5.2669230E-01
   7163.00  5.2329643E-01
   7163.33  5.1899699E-01
   7163.67  5.1383585E-01
   7164.00  5.0779641E-01
   7164.33  5.0079103E-01
   7164.67  4.9298620E-01
   7165.00  4.8445984E-01
   7165.33  4.7525052E-01
   7165.67  4.6556591E-01
   7166.00  4.5552628E-01
   7166.33  4.4524755E-01
   7166.67  4.3490089E-01
   7167.00  4.2461032E-01
   7167.33  4.1452954E-01
   7167.67  4.0474981E-01
   7168.00  3.9536190E-01
   7168.33  3.8652101E-01
   7168.67  3.7823919E-01
   7169.00  3.7056325E-01
   7169.33  3.6361363E-01
   7169.67  3.5733377E-01
   7170.00  3.5173243E-01
   7170.33  3.4689246E-01
   7170.67  3.4271658E-01
   7171.00  3.3918563E-01
   7171.33  3.3634439E-01
   7171.67  3.3407506E-01
   7172.00  3.3233050E-01
