    FDMNES
    energy     <xanes>
   7097.00  5.2828692E-03
   7097.33  5.4155448E-03
   7097.67  5.5546153E-03
   7098.00  5.7005339E-03
   7098.33  5.8548144E-03
   7098.67  6.0171810E-03
   7099.00  6.1882562E-03
   7099.33  6.3700397E-03
   7099.67  6.5622549E-03
   7100.00  6.7657798E-03
   7100.33  6.9833254E-03
   7100.67  7.2146483E-03
   7101.00  7.4610250E-03
   7101.33  7.7262452E-03
   7101.67  8.0101725E-03
   7102.00  8.3147316E-03
   7102.33  8.6454167E-03
   7102.67  9.0023610E-03
   7103.00  9.3885952E-03
   7103.33  9.8124453E-03
   7103.67  1.0274681E-02
   7104.00  1.0780335E-02
   7104.33  1.1342736E-02
   7104.67  1.1964161E-02
   7105.00  1.2653541E-02
   7105.33  1.3433761E-02
   7105.67  1.4310835E-02
   7106.00  1.5302039E-02
   7106.33  1.6450458E-02
   7106.67  1.7772211E-02
   7107.00  1.9304859E-02
   7107.33  2.1140510E-02
   7107.67  2.3326702E-02
   7108.00  2.5959912E-02
   7108.33  2.9277556E-02
   7108.67  3.3448743E-02
   7109.00  3.8793817E-02
   7109.33  4.6137628E-02
   7109.67  5.6319511E-02
   7110.00  7.0957436E-02
   7110.33  9.4663833E-02
   7110.67  1.3334667E-01
   7111.00  1.9511373E-01
   7111.33  2.8435109E-01
   7111.67  3.7109556E-01
   7112.00  4.1570166E-01
   7112.33  4.2277681E-01
   7112.67  4.5299031E-01
   7113.00  5.0887105E-01
   7113.33  5.3846532E-01
   7113.67  5.2075410E-01
   7114.00  4.5957030E-01
   7114.33  3.7785404E-01
   7114.67  3.1099205E-01
   7115.00  2.6804596E-01
   7115.33  2.4924108E-01
   7115.67  2.4558331E-01
   7116.00  2.4776671E-01
   7116.33  2.4183228E-01
   7116.67  2.2595989E-01
   7117.00  2.0628665E-01
   7117.33  1.8860214E-01
   7117.67  1.7397513E-01
   7118.00  1.6216811E-01
   7118.33  1.5310054E-01
   7118.67  1.4604898E-01
   7119.00  1.4060856E-01
   7119.33  1.3653228E-01
   7119.67  1.3335963E-01
   7120.00  1.3082098E-01
   7120.33  1.2856166E-01
   7120.67  1.2614182E-01
   7121.00  1.2336215E-01
   7121.33  1.2037542E-01
   7121.67  1.1789571E-01
   7122.00  1.1663832E-01
   7122.33  1.1718497E-01
   7122.67  1.1923440E-01
   7123.00  1.2259869E-01
   7123.33  1.2724014E-01
   7123.67  1.3288647E-01
   7124.00  1.3951049E-01
   7124.33  1.4733455E-01
   7124.67  1.5634827E-01
   7125.00  1.6661215E-01
   7125.33  1.7833751E-01
   7125.67  1.9158653E-01
   7126.00  2.0691593E-01
   7126.33  2.2590950E-01
   7126.67  2.4958479E-01
   7127.00  2.7885119E-01
   7127.33  3.1437642E-01
   7127.67  3.5373974E-01
   7128.00  3.9432071E-01
   7128.33  4.3305499E-01
   7128.67  4.6926297E-01
   7129.00  5.0383568E-01
   7129.33  5.3832347E-01
   7129.67  5.7364540E-01
   7130.00  6.0991018E-01
   7130.33  6.4719758E-01
   7130.67  6.8547097E-01
   7131.00  7.2455293E-01
   7131.33  7.6354113E-01
   7131.67  8.0080780E-01
   7132.00  8.3456701E-01
   7132.33  8.6202232E-01
   7132.67  8.8222468E-01
   7133.00  8.9436182E-01
   7133.33  8.9719852E-01
   7133.67  8.9219551E-01
   7134.00  8.8002923E-01
   7134.33  8.6092173E-01
   7134.67  8.3674228E-01
   7135.00  8.0839946E-01
   7135.33  7.7647249E-01
   7135.67  7.4238215E-01
   7136.00  7.0714176E-01
   7136.33  6.7210376E-01
   7136.67  6.3865131E-01
   7137.00  6.0797693E-01
   7137.33  5.8185752E-01
   7137.67  5.6078866E-01
   7138.00  5.4528677E-01
   7138.33  5.3614434E-01
   7138.67  5.3218275E-01
   7139.00  5.3264896E-01
   7139.33  5.3687719E-01
   7139.67  5.4335659E-01
   7140.00  5.5126515E-01
   7140.33  5.5991761E-01
   7140.67  5.6866198E-01
   7141.00  5.7714743E-01
   7141.33  5.8502745E-01
   7141.67  5.9219949E-01
   7142.00  5.9858555E-01
   7142.33  6.0405369E-01
   7142.67  6.0872604E-01
   7143.00  6.1265066E-01
   7143.33  6.1582822E-01
   7143.67  6.1844662E-01
   7144.00  6.2060619E-01
   7144.33  6.2238660E-01
   7144.67  6.2394877E-01
   7145.00  6.2538593E-01
   7145.33  6.2678723E-01
   7145.67  6.2822939E-01
   7146.00  6.2975744E-01
   7146.33  6.3142002E-01
   7146.67  6.3321582E-01
   7147.00  6.3513387E-01
   7147.33  6.3714633E-01
   7147.67  6.3919778E-01
   7148.00  6.4125071E-01
   7148.33  6.4325395E-01
   7148.67  6.4516096E-01
   7149.00  6.4692362E-01
   7149.33  6.4845830E-01
   7149.67  6.4972841E-01
   7150.00  6.5067996E-01
   7150.33  6.5120565E-01
   7150.67  6.5129624E-01
   7151.00  6.5090760E-01
   7151.33  6.4993173E-01
   7151.67  6.4840316E-01
   7152.00  6.4630615E-01
   7152.33  6.4356116E-01
   7152.67  6.4024628E-01
   7153.00  6.3638214E-01
   7153.33  6.3194750E-01
   7153.67  6.2706620E-01
   7154.00  6.2180468E-01
   7154.33  6.1621834E-01
   7154.67  6.1044486E-01
   7155.00  6.0457550E-01
   7155.33  5.9871442E-01
   7155.67  5.9295012E-01
   7156.00  5.8734191E-01
   7156.33  5.8196035E-01
   7156.67  5.7680146E-01
   7157.00  5.7186809E-01
   7157.33  5.6717473E-01
   7157.67  5.6267050E-01
   7158.00  5.5832978E-01
   7158.33  5.5413709E-01
   7158.67  5.5004614E-01
   7159.00  5.4603443E-01
   7159.33  5.4208634E-01
   7159.67  5.3817514E-01
   7160.00  5.3428528E-01
   7160.33  5.3040026E-01
   7160.67  5.2650262E-01
   7161.00  5.2257440E-01
   7161.33  5.1858135E-01
   7161.67  5.1450090E-01
   7162.00  5.1030756E-01
   7162.33  5.0595557E-01
   7162.67  5.0144124E-01
   7163.00  4.9675450E-01
   7163.33  4.9187272E-01
   7163.67  4.8683000E-01
   7164.00  4.8164812E-01
   7164.33  4.7634965E-01
   7164.67  4.7099016E-01
   7165.00  4.6561067E-01
   7165.33  4.6026495E-01
   7165.67  4.5499826E-01
   7166.00  4.4985009E-01
   7166.33  4.4488060E-01
   7166.67  4.4010392E-01
   7167.00  4.3554397E-01
   7167.33  4.3125094E-01
   7167.67  4.2720817E-01
   7168.00  4.2342120E-01
   7168.33  4.1992111E-01
   7168.67  4.1666911E-01
   7169.00  4.1365783E-01
   7169.33  4.1090558E-01
   7169.67  4.0837056E-01
   7170.00  4.0604003E-01
   7170.33  4.0392309E-01
   7170.67  4.0198436E-01
   7171.00  4.0021873E-01
   7171.33  3.9865303E-01
   7171.67  3.9729171E-01
   7172.00  3.9617988E-01
