    FDMNES
    energy     <xanes>
   7097.00  4.2679341E-03
   7097.33  4.3494344E-03
   7097.67  4.4339080E-03
   7098.00  4.5215263E-03
   7098.33  4.6129294E-03
   7098.67  4.7079391E-03
   7099.00  4.8067843E-03
   7099.33  4.9102765E-03
   7099.67  5.0182290E-03
   7100.00  5.1309561E-03
   7100.33  5.2495157E-03
   7100.67  5.3737231E-03
   7101.00  5.5040256E-03
   7101.33  5.6418498E-03
   7101.67  5.7870383E-03
   7102.00  5.9402556E-03
   7102.33  6.1035084E-03
   7102.67  6.2767245E-03
   7103.00  6.4609438E-03
   7103.33  6.6591434E-03
   7103.67  6.8714726E-03
   7104.00  7.0996681E-03
   7104.33  7.3484548E-03
   7104.67  7.6185435E-03
   7105.00  7.9130812E-03
   7105.33  8.2402519E-03
   7105.67  8.6022493E-03
   7106.00  9.0054126E-03
   7106.33  9.4656610E-03
   7106.67  9.9895021E-03
   7107.00  1.0591663E-02
   7107.33  1.1308483E-02
   7107.67  1.2161215E-02
   7108.00  1.3191805E-02
   7108.33  1.4505091E-02
   7108.67  1.6187619E-02
   7109.00  1.8402762E-02
   7109.33  2.1588104E-02
   7109.67  2.6266140E-02
   7110.00  3.3470141E-02
   7110.33  4.6196561E-02
   7110.67  6.7394928E-02
   7111.00  9.5573120E-02
   7111.33  1.1331695E-01
   7111.67  1.2008278E-01
   7112.00  1.2461243E-01
   7112.33  1.3026656E-01
   7112.67  1.3133134E-01
   7113.00  1.1539809E-01
   7113.33  9.2722904E-02
   7113.67  7.5465454E-02
   7114.00  6.4376194E-02
   7114.33  5.7665255E-02
   7114.67  5.0100722E-02
   7115.00  4.3162142E-02
   7115.33  3.9405584E-02
   7115.67  3.7958388E-02
   7116.00  3.8200688E-02
   7116.33  3.9772097E-02
   7116.67  4.1944864E-02
   7117.00  4.4101842E-02
   7117.33  4.5837074E-02
   7117.67  4.7599351E-02
   7118.00  4.9995953E-02
   7118.33  5.3700861E-02
   7118.67  5.8881340E-02
   7119.00  6.5749907E-02
   7119.33  7.4707083E-02
   7119.67  8.5597900E-02
   7120.00  9.8801288E-02
   7120.33  1.1534137E-01
   7120.67  1.3508243E-01
   7121.00  1.5786747E-01
   7121.33  1.8385300E-01
   7121.67  2.1244721E-01
   7122.00  2.4269090E-01
   7122.33  2.7189655E-01
   7122.67  2.9716041E-01
   7123.00  3.1726216E-01
   7123.33  3.3287550E-01
   7123.67  3.4726157E-01
   7124.00  3.6271889E-01
   7124.33  3.8145661E-01
   7124.67  4.0408203E-01
   7125.00  4.3110648E-01
   7125.33  4.6378481E-01
   7125.67  5.0135121E-01
   7126.00  5.4189142E-01
   7126.33  5.8163448E-01
   7126.67  6.1726103E-01
   7127.00  6.4576653E-01
   7127.33  6.6333169E-01
   7127.67  6.7242033E-01
   7128.00  6.7692810E-01
   7128.33  6.8198489E-01
   7128.67  6.9158828E-01
   7129.00  7.0780028E-01
   7129.33  7.3190756E-01
   7129.67  7.6156706E-01
   7130.00  7.9450881E-01
   7130.33  8.2671878E-01
   7130.67  8.5297865E-01
   7131.00  8.6922443E-01
   7131.33  8.7150772E-01
   7131.67  8.6163529E-01
   7132.00  8.4181243E-01
   7132.33  8.1586030E-01
   7132.67  7.8933753E-01
   7133.00  7.6512035E-01
   7133.33  7.4522085E-01
   7133.67  7.2988882E-01
   7134.00  7.1996080E-01
   7134.33  7.1738089E-01
   7134.67  7.2094058E-01
   7135.00  7.2774803E-01
   7135.33  7.3306060E-01
   7135.67  7.3490907E-01
   7136.00  7.3356999E-01
   7136.33  7.2958872E-01
   7136.67  7.2386363E-01
   7137.00  7.1673839E-01
   7137.33  7.0838705E-01
   7137.67  6.9920590E-01
   7138.00  6.8937950E-01
   7138.33  6.7901771E-01
   7138.67  6.6832468E-01
   7139.00  6.5741916E-01
   7139.33  6.4643078E-01
   7139.67  6.3551286E-01
   7140.00  6.2479318E-01
   7140.33  6.1445977E-01
   7140.67  6.0459717E-01
   7141.00  5.9528793E-01
   7141.33  5.8665797E-01
   7141.67  5.7862652E-01
   7142.00  5.7114709E-01
   7142.33  5.6418670E-01
   7142.67  5.5758154E-01
   7143.00  5.5125208E-01
   7143.33  5.4517598E-01
   7143.67  5.3934281E-01
   7144.00  5.3382561E-01
   7144.33  5.2880639E-01
   7144.67  5.2435578E-01
   7145.00  5.2054321E-01
   7145.33  5.1743423E-01
   7145.67  5.1483207E-01
   7146.00  5.1257210E-01
   7146.33  5.1044209E-01
   7146.67  5.0820437E-01
   7147.00  5.0569512E-01
   7147.33  5.0271963E-01
   7147.67  4.9924314E-01
   7148.00  4.9523409E-01
   7148.33  4.9063193E-01
   7148.67  4.8554464E-01
   7149.00  4.8003027E-01
   7149.33  4.7413018E-01
   7149.67  4.6798171E-01
   7150.00  4.6166826E-01
   7150.33  4.5527400E-01
   7150.67  4.4889349E-01
   7151.00  4.4259128E-01
   7151.33  4.3644279E-01
   7151.67  4.3047699E-01
   7152.00  4.2472689E-01
   7152.33  4.1924089E-01
   7152.67  4.1399116E-01
   7153.00  4.0897500E-01
   7153.33  4.0421692E-01
   7153.67  3.9967995E-01
   7154.00  3.9535332E-01
   7154.33  3.9124761E-01
   7154.67  3.8732231E-01
   7155.00  3.8355984E-01
   7155.33  3.7995515E-01
   7155.67  3.7646749E-01
   7156.00  3.7308001E-01
   7156.33  3.6980301E-01
   7156.67  3.6663813E-01
   7157.00  3.6360219E-01
   7157.33  3.6074406E-01
   7157.67  3.5808506E-01
   7158.00  3.5566915E-01
   7158.33  3.5359286E-01
   7158.67  3.5188183E-01
   7159.00  3.5059111E-01
   7159.33  3.4984193E-01
   7159.67  3.4962653E-01
   7160.00  3.4998002E-01
   7160.33  3.5100364E-01
   7160.67  3.5263070E-01
   7161.00  3.5485096E-01
   7161.33  3.5770337E-01
   7161.67  3.6106705E-01
   7162.00  3.6488670E-01
   7162.33  3.6913928E-01
   7162.67  3.7369965E-01
   7163.00  3.7849889E-01
   7163.33  3.8347268E-01
   7163.67  3.8852115E-01
   7164.00  3.9358903E-01
   7164.33  3.9862152E-01
   7164.67  4.0358613E-01
   7165.00  4.0846192E-01
   7165.33  4.1322013E-01
   7165.67  4.1786464E-01
   7166.00  4.2239091E-01
   7166.33  4.2678150E-01
   7166.67  4.3105151E-01
   7167.00  4.3520334E-01
   7167.33  4.3923018E-01
   7167.67  4.4315860E-01
   7168.00  4.4700365E-01
   7168.33  4.5077881E-01
   7168.67  4.5451551E-01
   7169.00  4.5823405E-01
   7169.33  4.6195560E-01
   7169.67  4.6569407E-01
   7170.00  4.6945352E-01
   7170.33  4.7322726E-01
   7170.67  4.7698646E-01
   7171.00  4.8068773E-01
   7171.33  4.8421987E-01
   7171.67  4.8742757E-01
   7172.00  4.9008110E-01
