    FDMNES
    energy     <xanes>
   7097.00  5.0755330E-03
   7097.33  5.1930658E-03
   7097.67  5.3156885E-03
   7098.00  5.4437285E-03
   7098.33  5.5783350E-03
   7098.67  5.7192444E-03
   7099.00  5.8668975E-03
   7099.33  6.0227788E-03
   7099.67  6.1866127E-03
   7100.00  6.3590096E-03
   7100.33  6.5419361E-03
   7100.67  6.7351246E-03
   7101.00  6.9394468E-03
   7101.33  7.1575896E-03
   7101.67  7.3893391E-03
   7102.00  7.6359885E-03
   7102.33  7.9013499E-03
   7102.67  8.1853658E-03
   7103.00  8.4900466E-03
   7103.33  8.8210601E-03
   7103.67  9.1787443E-03
   7104.00  9.5664110E-03
   7104.33  9.9930038E-03
   7104.67  1.0459838E-02
   7105.00  1.0972789E-02
   7105.33  1.1547107E-02
   7105.67  1.2186625E-02
   7106.00  1.2902827E-02
   7106.33  1.3724577E-02
   7106.67  1.4662827E-02
   7107.00  1.5743215E-02
   7107.33  1.7029021E-02
   7107.67  1.8554691E-02
   7108.00  2.0389702E-02
   7108.33  2.2707025E-02
   7108.67  2.5640932E-02
   7109.00  2.9446659E-02
   7109.33  3.4801136E-02
   7109.67  4.2477179E-02
   7110.00  5.3995452E-02
   7110.33  7.3681176E-02
   7110.67  1.0535453E-01
   7111.00  1.4647470E-01
   7111.33  1.8139283E-01
   7111.67  2.1321052E-01
   7112.00  2.4727695E-01
   7112.33  2.7731012E-01
   7112.67  2.9017675E-01
   7113.00  2.7689441E-01
   7113.33  2.4314312E-01
   7113.67  2.0721733E-01
   7114.00  1.7662594E-01
   7114.33  1.5454735E-01
   7114.67  1.3959654E-01
   7115.00  1.3085280E-01
   7115.33  1.2806047E-01
   7115.67  1.3021237E-01
   7116.00  1.3742050E-01
   7116.33  1.5082767E-01
   7116.67  1.7039106E-01
   7117.00  1.9652780E-01
   7117.33  2.2960668E-01
   7117.67  2.6618993E-01
   7118.00  3.0044357E-01
   7118.33  3.2061398E-01
   7118.67  3.2441698E-01
   7119.00  3.1961663E-01
   7119.33  3.1851991E-01
   7119.67  3.2646963E-01
   7120.00  3.4457926E-01
   7120.33  3.7186865E-01
   7120.67  4.0160132E-01
   7121.00  4.2860055E-01
   7121.33  4.4990579E-01
   7121.67  4.6685027E-01
   7122.00  4.8067385E-01
   7122.33  4.9263047E-01
   7122.67  5.0394093E-01
   7123.00  5.1509857E-01
   7123.33  5.2663187E-01
   7123.67  5.3903944E-01
   7124.00  5.5276134E-01
   7124.33  5.6833791E-01
   7124.67  5.8541778E-01
   7125.00  6.0323982E-01
   7125.33  6.1960085E-01
   7125.67  6.3084304E-01
   7126.00  6.3297886E-01
   7126.33  6.2284740E-01
   7126.67  6.0545822E-01
   7127.00  5.8602778E-01
   7127.33  5.6927175E-01
   7127.67  5.5637701E-01
   7128.00  5.4701140E-01
   7128.33  5.4043967E-01
   7128.67  5.3543027E-01
   7129.00  5.3153551E-01
   7129.33  5.2853803E-01
   7129.67  5.2593816E-01
   7130.00  5.2332321E-01
   7130.33  5.2040147E-01
   7130.67  5.1740376E-01
   7131.00  5.1474437E-01
   7131.33  5.1293669E-01
   7131.67  5.1204452E-01
   7132.00  5.1203242E-01
   7132.33  5.1286464E-01
   7132.67  5.1429066E-01
   7133.00  5.1618284E-01
   7133.33  5.1845365E-01
   7133.67  5.2093226E-01
   7134.00  5.2350774E-01
   7134.33  5.2606924E-01
   7134.67  5.2851432E-01
   7135.00  5.3075167E-01
   7135.33  5.3264714E-01
   7135.67  5.3417605E-01
   7136.00  5.3533442E-01
   7136.33  5.3616409E-01
   7136.67  5.3686913E-01
   7137.00  5.3762815E-01
   7137.33  5.3862270E-01
   7137.67  5.3985541E-01
   7138.00  5.4125466E-01
   7138.33  5.4266485E-01
   7138.67  5.4390708E-01
   7139.00  5.4485192E-01
   7139.33  5.4535148E-01
   7139.67  5.4542077E-01
   7140.00  5.4507802E-01
   7140.33  5.4434596E-01
   7140.67  5.4336487E-01
   7141.00  5.4222675E-01
   7141.33  5.4102333E-01
   7141.67  5.3983775E-01
   7142.00  5.3871029E-01
   7142.33  5.3766732E-01
   7142.67  5.3669107E-01
   7143.00  5.3576407E-01
   7143.33  5.3486437E-01
   7143.67  5.3396196E-01
   7144.00  5.3303432E-01
   7144.33  5.3205242E-01
   7144.67  5.3100455E-01
   7145.00  5.2988093E-01
   7145.33  5.2866678E-01
   7145.67  5.2737396E-01
   7146.00  5.2600794E-01
   7146.33  5.2456733E-01
   7146.67  5.2306172E-01
   7147.00  5.2148264E-01
   7147.33  5.1979218E-01
   7147.67  5.1795912E-01
   7148.00  5.1593328E-01
   7148.33  5.1361622E-01
   7148.67  5.1097916E-01
   7149.00  5.0798226E-01
   7149.33  5.0455093E-01
   7149.67  5.0073195E-01
   7150.00  4.9654240E-01
   7150.33  4.9197814E-01
   7150.67  4.8713337E-01
   7151.00  4.8206111E-01
   7151.33  4.7680644E-01
   7151.67  4.7145461E-01
   7152.00  4.6605888E-01
   7152.33  4.6067773E-01
   7152.67  4.5536051E-01
   7153.00  4.5014610E-01
   7153.33  4.4509062E-01
   7153.67  4.4020764E-01
   7154.00  4.3551854E-01
   7154.33  4.3107064E-01
   7154.67  4.2685464E-01
   7155.00  4.2288339E-01
   7155.33  4.1920347E-01
   7155.67  4.1579787E-01
   7156.00  4.1268062E-01
   7156.33  4.0990711E-01
   7156.67  4.0745797E-01
   7157.00  4.0534998E-01
   7157.33  4.0364546E-01
   7157.67  4.0231160E-01
   7158.00  4.0135357E-01
   7158.33  4.0081926E-01
   7158.67  4.0065622E-01
   7159.00  4.0085472E-01
   7159.33  4.0144056E-01
   7159.67  4.0234587E-01
   7160.00  4.0354295E-01
   7160.33  4.0502696E-01
   7160.67  4.0672610E-01
   7161.00  4.0860401E-01
   7161.33  4.1063420E-01
   7161.67  4.1275415E-01
   7162.00  4.1492326E-01
   7162.33  4.1709681E-01
   7162.67  4.1923241E-01
   7163.00  4.2129748E-01
   7163.33  4.2324638E-01
   7163.67  4.2506568E-01
   7164.00  4.2673808E-01
   7164.33  4.2823063E-01
   7164.67  4.2955841E-01
   7165.00  4.3072348E-01
   7165.33  4.3171611E-01
   7165.67  4.3257062E-01
   7166.00  4.3330290E-01
   7166.33  4.3392151E-01
   7166.67  4.3446229E-01
   7167.00  4.3494539E-01
   7167.33  4.3538934E-01
   7167.67  4.3581976E-01
   7168.00  4.3625267E-01
   7168.33  4.3670490E-01
   7168.67  4.3718423E-01
   7169.00  4.3769580E-01
   7169.33  4.3824653E-01
   7169.67  4.3883091E-01
   7170.00  4.3944523E-01
   7170.33  4.4008594E-01
   7170.67  4.4074137E-01
   7171.00  4.4140118E-01
   7171.33  4.4204432E-01
   7171.67  4.4263738E-01
   7172.00  4.4313273E-01
