    FDMNES
    energy     <xanes>
   7097.00  4.8913610E-03
   7097.33  5.0033997E-03
   7097.67  5.1203265E-03
   7098.00  5.2424571E-03
   7098.33  5.3708970E-03
   7098.67  5.5053932E-03
   7099.00  5.6463694E-03
   7099.33  5.7952502E-03
   7099.67  5.9517677E-03
   7100.00  6.1165036E-03
   7100.33  6.2913363E-03
   7100.67  6.4759976E-03
   7101.00  6.6713080E-03
   7101.33  6.8798125E-03
   7101.67  7.1012753E-03
   7102.00  7.3368930E-03
   7102.33  7.5902253E-03
   7102.67  7.8611442E-03
   7103.00  8.1514628E-03
   7103.33  8.4663598E-03
   7103.67  8.8059816E-03
   7104.00  9.1732110E-03
   7104.33  9.5759571E-03
   7104.67  1.0015031E-02
   7105.00  1.0495300E-02
   7105.33  1.1029621E-02
   7105.67  1.1620440E-02
   7106.00  1.2276653E-02
   7106.33  1.3020968E-02
   7106.67  1.3860155E-02
   7107.00  1.4812330E-02
   7107.33  1.5922606E-02
   7107.67  1.7210740E-02
   7108.00  1.8720057E-02
   7108.33  2.0557807E-02
   7108.67  2.2792422E-02
   7109.00  2.5558264E-02
   7109.33  2.9201195E-02
   7109.67  3.4055383E-02
   7110.00  4.0774070E-02
   7110.33  5.1212835E-02
   7110.67  6.7570630E-02
   7111.00  9.2027617E-02
   7111.33  1.2019933E-01
   7111.67  1.4086003E-01
   7112.00  1.6103325E-01
   7112.33  1.9881528E-01
   7112.67  2.5937350E-01
   7113.00  3.2448409E-01
   7113.33  3.6333049E-01
   7113.67  3.7929162E-01
   7114.00  3.8336978E-01
   7114.33  4.0302013E-01
   7114.67  4.4680726E-01
   7115.00  4.6369363E-01
   7115.33  4.0250305E-01
   7115.67  3.2564450E-01
   7116.00  2.7232437E-01
   7116.33  2.5506578E-01
   7116.67  2.6427910E-01
   7117.00  2.8511737E-01
   7117.33  2.8914244E-01
   7117.67  2.7160990E-01
   7118.00  2.4595882E-01
   7118.33  2.2481231E-01
   7118.67  2.0880240E-01
   7119.00  1.9578541E-01
   7119.33  1.8509986E-01
   7119.67  1.7698642E-01
   7120.00  1.7151723E-01
   7120.33  1.6756354E-01
   7120.67  1.6268888E-01
   7121.00  1.5567654E-01
   7121.33  1.4723171E-01
   7121.67  1.3996375E-01
   7122.00  1.3548642E-01
   7122.33  1.3460889E-01
   7122.67  1.3638314E-01
   7123.00  1.3995245E-01
   7123.33  1.4401343E-01
   7123.67  1.4751918E-01
   7124.00  1.5048150E-01
   7124.33  1.5355896E-01
   7124.67  1.5743813E-01
   7125.00  1.6257156E-01
   7125.33  1.6939051E-01
   7125.67  1.7777824E-01
   7126.00  1.8800053E-01
   7126.33  2.0097184E-01
   7126.67  2.1683193E-01
   7127.00  2.3556133E-01
   7127.33  2.5708270E-01
   7127.67  2.8056957E-01
   7128.00  3.0544650E-01
   7128.33  3.3056601E-01
   7128.67  3.5450311E-01
   7129.00  3.7703231E-01
   7129.33  3.9984834E-01
   7129.67  4.2507512E-01
   7130.00  4.5329330E-01
   7130.33  4.8369437E-01
   7130.67  5.1509306E-01
   7131.00  5.4846841E-01
   7131.33  5.8690267E-01
   7131.67  6.3173594E-01
   7132.00  6.8338856E-01
   7132.33  7.4202573E-01
   7132.67  8.0537906E-01
   7133.00  8.7146529E-01
   7133.33  9.3724830E-01
   7133.67  9.9992627E-01
   7134.00  1.0581538E+00
   7134.33  1.1104232E+00
   7134.67  1.1538171E+00
   7135.00  1.1804325E+00
   7135.33  1.1747263E+00
   7135.67  1.1350141E+00
   7136.00  1.0669632E+00
   7136.33  9.8242445E-01
   7136.67  8.9578718E-01
   7137.00  8.1352928E-01
   7137.33  7.3985126E-01
   7137.67  6.7454296E-01
   7138.00  6.1747204E-01
   7138.33  5.6923471E-01
   7138.67  5.2843339E-01
   7139.00  4.9471998E-01
   7139.33  4.6855263E-01
   7139.67  4.4871200E-01
   7140.00  4.3480595E-01
   7140.33  4.2689306E-01
   7140.67  4.2352150E-01
   7141.00  4.2391443E-01
   7141.33  4.2749726E-01
   7141.67  4.3306698E-01
   7142.00  4.4001752E-01
   7142.33  4.4790766E-01
   7142.67  4.5623670E-01
   7143.00  4.6475211E-01
   7143.33  4.7322814E-01
   7143.67  4.8151515E-01
   7144.00  4.8953308E-01
   7144.33  4.9719793E-01
   7144.67  5.0451886E-01
   7145.00  5.1143895E-01
   7145.33  5.1774234E-01
   7145.67  5.2326912E-01
   7146.00  5.2779360E-01
   7146.33  5.3090957E-01
   7146.67  5.3258732E-01
   7147.00  5.3275504E-01
   7147.33  5.3129942E-01
   7147.67  5.2864720E-01
   7148.00  5.2510972E-01
   7148.33  5.2106942E-01
   7148.67  5.1706737E-01
   7149.00  5.1351761E-01
   7149.33  5.1097364E-01
   7149.67  5.0970092E-01
   7150.00  5.0996537E-01
   7150.33  5.1223838E-01
   7150.67  5.1646688E-01
   7151.00  5.2270941E-01
   7151.33  5.3116192E-01
   7151.67  5.4138139E-01
   7152.00  5.5306028E-01
   7152.33  5.6580218E-01
   7152.67  5.7885646E-01
   7153.00  5.9164175E-01
   7153.33  6.0341390E-01
   7153.67  6.1379705E-01
   7154.00  6.2253865E-01
   7154.33  6.2934062E-01
   7154.67  6.3453386E-01
   7155.00  6.3832856E-01
   7155.33  6.4089833E-01
   7155.67  6.4269809E-01
   7156.00  6.4397253E-01
   7156.33  6.4491102E-01
   7156.67  6.4570346E-01
   7157.00  6.4642107E-01
   7157.33  6.4707900E-01
   7157.67  6.4765439E-01
   7158.00  6.4809429E-01
   7158.33  6.4829384E-01
   7158.67  6.4819855E-01
   7159.00  6.4774517E-01
   7159.33  6.4682086E-01
   7159.67  6.4543495E-01
   7160.00  6.4356529E-01
   7160.33  6.4113912E-01
   7160.67  6.3822060E-01
   7161.00  6.3482279E-01
   7161.33  6.3091851E-01
   7161.67  6.2659700E-01
   7162.00  6.2188665E-01
   7162.33  6.1677781E-01
   7162.67  6.1135070E-01
   7163.00  6.0563799E-01
   7163.33  5.9964462E-01
   7163.67  5.9343221E-01
   7164.00  5.8702038E-01
   7164.33  5.8039996E-01
   7164.67  5.7360011E-01
   7165.00  5.6662131E-01
   7165.33  5.5943839E-01
   7165.67  5.5207196E-01
   7166.00  5.4452260E-01
   7166.33  5.3677438E-01
   7166.67  5.2886649E-01
   7167.00  5.2082294E-01
   7167.33  5.1267096E-01
   7167.67  5.0447500E-01
   7168.00  4.9628655E-01
   7168.33  4.8817649E-01
   7168.67  4.8019887E-01
   7169.00  4.7240610E-01
   7169.33  4.6488352E-01
   7169.67  4.5765004E-01
   7170.00  4.5074376E-01
   7170.33  4.4425240E-01
   7170.67  4.3817636E-01
   7171.00  4.3256345E-01
   7171.33  4.2755656E-01
   7171.67  4.2322408E-01
   7172.00  4.1974333E-01
