    FDMNES
    energy     <xanes>
   7097.00  4.2635722E-03
   7097.33  4.3526954E-03
   7097.67  4.4456736E-03
   7098.00  4.5427701E-03
   7098.33  4.6448820E-03
   7098.67  4.7518322E-03
   7099.00  4.8639831E-03
   7099.33  4.9825159E-03
   7099.67  5.1072551E-03
   7100.00  5.2387144E-03
   7100.33  5.3784950E-03
   7100.67  5.5264457E-03
   7101.00  5.6833201E-03
   7101.33  5.8513640E-03
   7101.67  6.0305015E-03
   7102.00  6.2218835E-03
   7102.33  6.4287932E-03
   7102.67  6.6513425E-03
   7103.00  6.8913773E-03
   7103.33  7.1539458E-03
   7103.67  7.4396087E-03
   7104.00  7.7515096E-03
   7104.33  8.0979162E-03
   7104.67  8.4804774E-03
   7105.00  8.9049685E-03
   7105.33  9.3860707E-03
   7105.67  9.9282344E-03
   7106.00  1.0543177E-02
   7106.33  1.1259925E-02
   7106.67  1.2090940E-02
   7107.00  1.3063448E-02
   7107.33  1.4244145E-02
   7107.67  1.5672512E-02
   7108.00  1.7425610E-02
   7108.33  1.9695335E-02
   7108.67  2.2639604E-02
   7109.00  2.6555764E-02
   7109.33  3.2238754E-02
   7109.67  4.0633617E-02
   7110.00  5.3604681E-02
   7110.33  7.6470194E-02
   7110.67  1.1367841E-01
   7111.00  1.6044388E-01
   7111.33  1.9382825E-01
   7111.67  2.1642978E-01
   7112.00  2.3800722E-01
   7112.33  2.6038042E-01
   7112.67  2.6165171E-01
   7113.00  2.2993177E-01
   7113.33  1.8745775E-01
   7113.67  1.5620325E-01
   7114.00  1.3884088E-01
   7114.33  1.3429754E-01
   7114.67  1.3394813E-01
   7115.00  1.2614131E-01
   7115.33  1.0726258E-01
   7115.67  8.9197448E-02
   7116.00  7.6307890E-02
   7116.33  6.9132998E-02
   7116.67  6.5703752E-02
   7117.00  6.4997865E-02
   7117.33  6.6305747E-02
   7117.67  6.8672111E-02
   7118.00  7.1653968E-02
   7118.33  7.5057219E-02
   7118.67  7.8886754E-02
   7119.00  8.3212099E-02
   7119.33  8.7915276E-02
   7119.67  9.2665109E-02
   7120.00  9.7358344E-02
   7120.33  1.0214594E-01
   7120.67  1.0728633E-01
   7121.00  1.1304280E-01
   7121.33  1.1985572E-01
   7121.67  1.2800603E-01
   7122.00  1.3797278E-01
   7122.33  1.5066585E-01
   7122.67  1.6616615E-01
   7123.00  1.8435996E-01
   7123.33  2.0464249E-01
   7123.67  2.2538038E-01
   7124.00  2.4519983E-01
   7124.33  2.6233763E-01
   7124.67  2.7624897E-01
   7125.00  2.8695625E-01
   7125.33  2.9479325E-01
   7125.67  3.0120035E-01
   7126.00  3.0744585E-01
   7126.33  3.1490941E-01
   7126.67  3.2372301E-01
   7127.00  3.3303625E-01
   7127.33  3.4075553E-01
   7127.67  3.4560577E-01
   7128.00  3.4774899E-01
   7128.33  3.4834585E-01
   7128.67  3.4884496E-01
   7129.00  3.4994830E-01
   7129.33  3.5234374E-01
   7129.67  3.5617775E-01
   7130.00  3.6140640E-01
   7130.33  3.6771126E-01
   7130.67  3.7424256E-01
   7131.00  3.8041191E-01
   7131.33  3.8591382E-01
   7131.67  3.9124525E-01
   7132.00  3.9713690E-01
   7132.33  4.0469282E-01
   7132.67  4.1444115E-01
   7133.00  4.2674381E-01
   7133.33  4.4208370E-01
   7133.67  4.6000829E-01
   7134.00  4.8020514E-01
   7134.33  5.0219434E-01
   7134.67  5.2473413E-01
   7135.00  5.4678066E-01
   7135.33  5.6707756E-01
   7135.67  5.8516520E-01
   7136.00  6.0082627E-01
   7136.33  6.1373713E-01
   7136.67  6.2422682E-01
   7137.00  6.3226555E-01
   7137.33  6.3750609E-01
   7137.67  6.4035160E-01
   7138.00  6.4104512E-01
   7138.33  6.3979769E-01
   7138.67  6.3726995E-01
   7139.00  6.3376882E-01
   7139.33  6.2948133E-01
   7139.67  6.2478499E-01
   7140.00  6.2002555E-01
   7140.33  6.1577448E-01
   7140.67  6.1247429E-01
   7141.00  6.1042933E-01
   7141.33  6.0998226E-01
   7141.67  6.1092514E-01
   7142.00  6.1311828E-01
   7142.33  6.1646481E-01
   7142.67  6.2060351E-01
   7143.00  6.2535933E-01
   7143.33  6.3063760E-01
   7143.67  6.3629079E-01
   7144.00  6.4228754E-01
   7144.33  6.4867282E-01
   7144.67  6.5543501E-01
   7145.00  6.6262551E-01
   7145.33  6.7040612E-01
   7145.67  6.7884191E-01
   7146.00  6.8804772E-01
   7146.33  6.9820957E-01
   7146.67  7.0916788E-01
   7147.00  7.2071942E-01
   7147.33  7.3243638E-01
   7147.67  7.4365347E-01
   7148.00  7.5372590E-01
   7148.33  7.6170976E-01
   7148.67  7.6728412E-01
   7149.00  7.7015617E-01
   7149.33  7.6990258E-01
   7149.67  7.6707717E-01
   7150.00  7.6202957E-01
   7150.33  7.5505704E-01
   7150.67  7.4689955E-01
   7151.00  7.3796538E-01
   7151.33  7.2859992E-01
   7151.67  7.1914999E-01
   7152.00  7.0980312E-01
   7152.33  7.0074100E-01
   7152.67  6.9202108E-01
   7153.00  6.8368031E-01
   7153.33  6.7577240E-01
   7153.67  6.6822436E-01
   7154.00  6.6099807E-01
   7154.33  6.5406982E-01
   7154.67  6.4734398E-01
   7155.00  6.4076770E-01
   7155.33  6.3429567E-01
   7155.67  6.2786657E-01
   7156.00  6.2144349E-01
   7156.33  6.1498485E-01
   7156.67  6.0846572E-01
   7157.00  6.0186894E-01
   7157.33  5.9516650E-01
   7157.67  5.8835728E-01
   7158.00  5.8143582E-01
   7158.33  5.7439263E-01
   7158.67  5.6725624E-01
   7159.00  5.6004794E-01
   7159.33  5.5280299E-01
   7159.67  5.4558676E-01
   7160.00  5.3847071E-01
   7160.33  5.3158158E-01
   7160.67  5.2501200E-01
   7161.00  5.1887210E-01
   7161.33  5.1336041E-01
   7161.67  5.0852448E-01
   7162.00  5.0444711E-01
   7162.33  5.0129583E-01
   7162.67  4.9899574E-01
   7163.00  4.9754034E-01
   7163.33  4.9697307E-01
   7163.67  4.9709560E-01
   7164.00  4.9779725E-01
   7164.33  4.9898251E-01
   7164.67  5.0043713E-01
   7165.00  5.0202339E-01
   7165.33  5.0358765E-01
   7165.67  5.0500034E-01
   7166.00  5.0617539E-01
   7166.33  5.0702224E-01
   7166.67  5.0755261E-01
   7167.00  5.0776335E-01
   7167.33  5.0764247E-01
   7167.67  5.0727795E-01
   7168.00  5.0672819E-01
   7168.33  5.0605662E-01
   7168.67  5.0535512E-01
   7169.00  5.0468593E-01
   7169.33  5.0412124E-01
   7169.67  5.0369205E-01
   7170.00  5.0341825E-01
   7170.33  5.0332290E-01
   7170.67  5.0336916E-01
   7171.00  5.0352842E-01
   7171.33  5.0376260E-01
   7171.67  5.0400711E-01
   7172.00  5.0421177E-01
