    FDMNES
    energy     <xanes>
   7097.00  4.5039584E-03
   7097.33  4.6031097E-03
   7097.67  4.7067119E-03
   7098.00  4.8150765E-03
   7098.33  4.9292523E-03
   7098.67  5.0490453E-03
   7099.00  5.1748870E-03
   7099.33  5.3081675E-03
   7099.67  5.4486984E-03
   7100.00  5.5970957E-03
   7100.33  5.7552576E-03
   7100.67  5.9230312E-03
   7101.00  6.1013270E-03
   7101.33  6.2928301E-03
   7101.67  6.4974888E-03
   7102.00  6.7167065E-03
   7102.33  6.9544461E-03
   7102.67  7.2109045E-03
   7103.00  7.4883548E-03
   7103.33  7.7929592E-03
   7103.67  8.1255033E-03
   7104.00  8.4899037E-03
   7104.33  8.8963830E-03
   7104.67  9.3471569E-03
   7105.00  9.8495171E-03
   7105.33  1.0421887E-02
   7105.67  1.1070182E-02
   7106.00  1.1809420E-02
   7106.33  1.2676644E-02
   7106.67  1.3688432E-02
   7107.00  1.4880246E-02
   7107.33  1.6338768E-02
   7107.67  1.8116817E-02
   7108.00  2.0316362E-02
   7108.33  2.3191187E-02
   7108.67  2.6953526E-02
   7109.00  3.2000961E-02
   7109.33  3.9395203E-02
   7109.67  5.0401105E-02
   7110.00  6.7509372E-02
   7110.33  9.7905675E-02
   7110.67  1.4862991E-01
   7111.00  2.1761719E-01
   7111.33  2.7479459E-01
   7111.67  3.0465636E-01
   7112.00  3.1004947E-01
   7112.33  2.9133364E-01
   7112.67  2.5314380E-01
   7113.00  2.0857536E-01
   7113.33  1.7318275E-01
   7113.67  1.4846258E-01
   7114.00  1.3202865E-01
   7114.33  1.1962559E-01
   7114.67  1.0644407E-01
   7115.00  9.2695511E-02
   7115.33  8.0534168E-02
   7115.67  7.0819775E-02
   7116.00  6.4149056E-02
   7116.33  6.0914871E-02
   7116.67  6.0402028E-02
   7117.00  6.2283896E-02
   7117.33  6.6068411E-02
   7117.67  7.0683718E-02
   7118.00  7.5815488E-02
   7118.33  8.1682867E-02
   7118.67  8.8426061E-02
   7119.00  9.6112232E-02
   7119.33  1.0452391E-01
   7119.67  1.1232489E-01
   7120.00  1.1847550E-01
   7120.33  1.2369475E-01
   7120.67  1.2984317E-01
   7121.00  1.3763672E-01
   7121.33  1.4777039E-01
   7121.67  1.6085239E-01
   7122.00  1.7796752E-01
   7122.33  2.0091925E-01
   7122.67  2.2937568E-01
   7123.00  2.6230021E-01
   7123.33  2.9691957E-01
   7123.67  3.2922521E-01
   7124.00  3.5681687E-01
   7124.33  3.7809681E-01
   7124.67  3.9368871E-01
   7125.00  4.0322715E-01
   7125.33  4.0598915E-01
   7125.67  4.0485479E-01
   7126.00  4.0293843E-01
   7126.33  4.0342900E-01
   7126.67  4.0683837E-01
   7127.00  4.1205373E-01
   7127.33  4.1657004E-01
   7127.67  4.1851504E-01
   7128.00  4.1774082E-01
   7128.33  4.1532562E-01
   7128.67  4.1275563E-01
   7129.00  4.1061909E-01
   7129.33  4.0941668E-01
   7129.67  4.0950874E-01
   7130.00  4.1129641E-01
   7130.33  4.1517174E-01
   7130.67  4.2061558E-01
   7131.00  4.2719575E-01
   7131.33  4.3456340E-01
   7131.67  4.4225431E-01
   7132.00  4.4982376E-01
   7132.33  4.5647331E-01
   7132.67  4.6166666E-01
   7133.00  4.6516404E-01
   7133.33  4.6703730E-01
   7133.67  4.6818545E-01
   7134.00  4.6934531E-01
   7134.33  4.7128087E-01
   7134.67  4.7425927E-01
   7135.00  4.7845362E-01
   7135.33  4.8444208E-01
   7135.67  4.9273721E-01
   7136.00  5.0400867E-01
   7136.33  5.1907050E-01
   7136.67  5.3719796E-01
   7137.00  5.5755837E-01
   7137.33  5.7874782E-01
   7137.67  5.9891082E-01
   7138.00  6.1668233E-01
   7138.33  6.3065975E-01
   7138.67  6.4111941E-01
   7139.00  6.4849417E-01
   7139.33  6.5333955E-01
   7139.67  6.5683949E-01
   7140.00  6.5970876E-01
   7140.33  6.6264890E-01
   7140.67  6.6614304E-01
   7141.00  6.7043742E-01
   7141.33  6.7575201E-01
   7141.67  6.8193910E-01
   7142.00  6.8890867E-01
   7142.33  6.9661791E-01
   7142.67  7.0484839E-01
   7143.00  7.1345160E-01
   7143.33  7.2219722E-01
   7143.67  7.3073571E-01
   7144.00  7.3873570E-01
   7144.33  7.4570701E-01
   7144.67  7.5146924E-01
   7145.00  7.5587247E-01
   7145.33  7.5869207E-01
   7145.67  7.6016187E-01
   7146.00  7.6038528E-01
   7146.33  7.5937393E-01
   7146.67  7.5740454E-01
   7147.00  7.5457982E-01
   7147.33  7.5094017E-01
   7147.67  7.4673345E-01
   7148.00  7.4210833E-01
   7148.33  7.3720265E-01
   7148.67  7.3219031E-01
   7149.00  7.2716138E-01
   7149.33  7.2218530E-01
   7149.67  7.1728458E-01
   7150.00  7.1245660E-01
   7150.33  7.0767335E-01
   7150.67  7.0287605E-01
   7151.00  6.9800422E-01
   7151.33  6.9294751E-01
   7151.67  6.8761639E-01
   7152.00  6.8190519E-01
   7152.33  6.7562777E-01
   7152.67  6.6874625E-01
   7153.00  6.6121160E-01
   7153.33  6.5294673E-01
   7153.67  6.4410915E-01
   7154.00  6.3481538E-01
   7154.33  6.2520518E-01
   7154.67  6.1551080E-01
   7155.00  6.0590245E-01
   7155.33  5.9658450E-01
   7155.67  5.8765010E-01
   7156.00  5.7916288E-01
   7156.33  5.7119944E-01
   7156.67  5.6366103E-01
   7157.00  5.5646967E-01
   7157.33  5.4951866E-01
   7157.67  5.4261748E-01
   7158.00  5.3561777E-01
   7158.33  5.2832565E-01
   7158.67  5.2065119E-01
   7159.00  5.1253556E-01
   7159.33  5.0391274E-01
   7159.67  4.9489291E-01
   7160.00  4.8556350E-01
   7160.33  4.7603366E-01
   7160.67  4.6647369E-01
   7161.00  4.5701565E-01
   7161.33  4.4783815E-01
   7161.67  4.3904117E-01
   7162.00  4.3072486E-01
   7162.33  4.2306428E-01
   7162.67  4.1607197E-01
   7163.00  4.0980786E-01
   7163.33  4.0442450E-01
   7163.67  3.9986375E-01
   7164.00  3.9614814E-01
   7164.33  3.9339776E-01
   7164.67  3.9150563E-01
   7165.00  3.9046356E-01
   7165.33  3.9035746E-01
   7165.67  3.9105718E-01
   7166.00  3.9253414E-01
   7166.33  3.9483940E-01
   7166.67  3.9783018E-01
   7167.00  4.0145407E-01
   7167.33  4.0570917E-01
   7167.67  4.1044139E-01
   7168.00  4.1556982E-01
   7168.33  4.2102897E-01
   7168.67  4.2667443E-01
   7169.00  4.3241282E-01
   7169.33  4.3813762E-01
   7169.67  4.4375359E-01
   7170.00  4.4918697E-01
   7170.33  4.5433179E-01
   7170.67  4.5915656E-01
   7171.00  4.6360930E-01
   7171.33  4.6756176E-01
   7171.67  4.7095447E-01
   7172.00  4.7364419E-01
