    FDMNES
    energy     <xanes>
   7097.00  4.8921114E-03
   7097.33  5.0063999E-03
   7097.67  5.1257327E-03
   7098.00  5.2504425E-03
   7098.33  5.3816822E-03
   7098.67  5.5192017E-03
   7099.00  5.6634523E-03
   7099.33  5.8159331E-03
   7099.67  5.9763866E-03
   7100.00  6.1454418E-03
   7100.33  6.3251004E-03
   7100.67  6.5151198E-03
   7101.00  6.7164058E-03
   7101.33  6.9317172E-03
   7101.67  7.1608775E-03
   7102.00  7.4052434E-03
   7102.33  7.6687668E-03
   7102.67  7.9514537E-03
   7103.00  8.2554337E-03
   7103.33  8.5866478E-03
   7103.67  8.9455530E-03
   7104.00  9.3356970E-03
   7104.33  9.7665726E-03
   7104.67  1.0239748E-02
   7105.00  1.0761597E-02
   7105.33  1.1348544E-02
   7105.67  1.2005034E-02
   7106.00  1.2743718E-02
   7106.33  1.3596244E-02
   7106.67  1.4575277E-02
   7107.00  1.5709634E-02
   7107.33  1.7070295E-02
   7107.67  1.8697606E-02
   7108.00  2.0671768E-02
   7108.33  2.3192861E-02
   7108.67  2.6422121E-02
   7109.00  3.0664924E-02
   7109.33  3.6736894E-02
   7109.67  4.5597926E-02
   7110.00  5.9143781E-02
   7110.33  8.2815210E-02
   7110.67  1.2156939E-01
   7111.00  1.7220988E-01
   7111.33  2.1107928E-01
   7111.67  2.3445102E-01
   7112.00  2.4570777E-01
   7112.33  2.3905719E-01
   7112.67  2.2147253E-01
   7113.00  2.0428542E-01
   7113.33  1.9846766E-01
   7113.67  2.0419015E-01
   7114.00  2.2010633E-01
   7114.33  2.4725896E-01
   7114.67  2.8038501E-01
   7115.00  3.0393908E-01
   7115.33  2.9039456E-01
   7115.67  2.4946633E-01
   7116.00  2.0435440E-01
   7116.33  1.7184948E-01
   7116.67  1.5211953E-01
   7117.00  1.4330734E-01
   7117.33  1.4437757E-01
   7117.67  1.5173995E-01
   7118.00  1.6233574E-01
   7118.33  1.7377795E-01
   7118.67  1.8678561E-01
   7119.00  2.0284386E-01
   7119.33  2.2256087E-01
   7119.67  2.4268189E-01
   7120.00  2.6035104E-01
   7120.33  2.7497216E-01
   7120.67  2.8789882E-01
   7121.00  3.0044628E-01
   7121.33  3.1495262E-01
   7121.67  3.3243702E-01
   7122.00  3.5291568E-01
   7122.33  3.7531588E-01
   7122.67  3.9710194E-01
   7123.00  4.1680476E-01
   7123.33  4.3312106E-01
   7123.67  4.4550932E-01
   7124.00  4.5385497E-01
   7124.33  4.5886804E-01
   7124.67  4.6216135E-01
   7125.00  4.6440167E-01
   7125.33  4.6628881E-01
   7125.67  4.6896214E-01
   7126.00  4.7347831E-01
   7126.33  4.8112099E-01
   7126.67  4.9185758E-01
   7127.00  5.0541619E-01
   7127.33  5.2132684E-01
   7127.67  5.3843768E-01
   7128.00  5.5588905E-01
   7128.33  5.7227005E-01
   7128.67  5.8628319E-01
   7129.00  5.9714459E-01
   7129.33  6.0430007E-01
   7129.67  6.0827747E-01
   7130.00  6.0915721E-01
   7130.33  6.0715599E-01
   7130.67  6.0350948E-01
   7131.00  5.9860731E-01
   7131.33  5.9167938E-01
   7131.67  5.8194499E-01
   7132.00  5.6921602E-01
   7132.33  5.5452690E-01
   7132.67  5.4021163E-01
   7133.00  5.2777174E-01
   7133.33  5.1836271E-01
   7133.67  5.1169914E-01
   7134.00  5.0758568E-01
   7134.33  5.0613564E-01
   7134.67  5.0704529E-01
   7135.00  5.1042624E-01
   7135.33  5.1671889E-01
   7135.67  5.2547645E-01
   7136.00  5.3625651E-01
   7136.33  5.4830043E-01
   7136.67  5.6041352E-01
   7137.00  5.7184197E-01
   7137.33  5.8189226E-01
   7137.67  5.9046970E-01
   7138.00  5.9752745E-01
   7138.33  6.0308267E-01
   7138.67  6.0781418E-01
   7139.00  6.1234731E-01
   7139.33  6.1737247E-01
   7139.67  6.2308759E-01
   7140.00  6.2930752E-01
   7140.33  6.3539424E-01
   7140.67  6.4050859E-01
   7141.00  6.4395654E-01
   7141.33  6.4496016E-01
   7141.67  6.4375600E-01
   7142.00  6.4066829E-01
   7142.33  6.3615369E-01
   7142.67  6.3100679E-01
   7143.00  6.2564356E-01
   7143.33  6.2034085E-01
   7143.67  6.1517080E-01
   7144.00  6.1011428E-01
   7144.33  6.0512515E-01
   7144.67  6.0014627E-01
   7145.00  5.9514688E-01
   7145.33  5.9010061E-01
   7145.67  5.8501269E-01
   7146.00  5.7990553E-01
   7146.33  5.7483933E-01
   7146.67  5.6988991E-01
   7147.00  5.6513129E-01
   7147.33  5.6067240E-01
   7147.67  5.5652631E-01
   7148.00  5.5269046E-01
   7148.33  5.4913822E-01
   7148.67  5.4574200E-01
   7149.00  5.4240259E-01
   7149.33  5.3901014E-01
   7149.67  5.3552181E-01
   7150.00  5.3194567E-01
   7150.33  5.2832099E-01
   7150.67  5.2471061E-01
   7151.00  5.2115637E-01
   7151.33  5.1769495E-01
   7151.67  5.1431840E-01
   7152.00  5.1101880E-01
   7152.33  5.0779889E-01
   7152.67  5.0465716E-01
   7153.00  5.0161138E-01
   7153.33  4.9870235E-01
   7153.67  4.9593244E-01
   7154.00  4.9330070E-01
   7154.33  4.9079376E-01
   7154.67  4.8834064E-01
   7155.00  4.8587027E-01
   7155.33  4.8326258E-01
   7155.67  4.8040930E-01
   7156.00  4.7719336E-01
   7156.33  4.7340780E-01
   7156.67  4.6897511E-01
   7157.00  4.6378885E-01
   7157.33  4.5765430E-01
   7157.67  4.5064456E-01
   7158.00  4.4279082E-01
   7158.33  4.3410813E-01
   7158.67  4.2486282E-01
   7159.00  4.1523824E-01
   7159.33  4.0544473E-01
   7159.67  3.9572508E-01
   7160.00  3.8624918E-01
   7160.33  3.7722849E-01
   7160.67  3.6873089E-01
   7161.00  3.6082848E-01
   7161.33  3.5366043E-01
   7161.67  3.4718128E-01
   7162.00  3.4140859E-01
   7162.33  3.3643933E-01
   7162.67  3.3218161E-01
   7163.00  3.2862714E-01
   7163.33  3.2584616E-01
   7163.67  3.2373254E-01
   7164.00  3.2226745E-01
   7164.33  3.2150679E-01
   7164.67  3.2134956E-01
   7165.00  3.2177498E-01
   7165.33  3.2282552E-01
   7165.67  3.2440057E-01
   7166.00  3.2646903E-01
   7166.33  3.2904514E-01
   7166.67  3.3202386E-01
   7167.00  3.3535906E-01
   7167.33  3.3903202E-01
   7167.67  3.4294795E-01
   7168.00  3.4705727E-01
   7168.33  3.5132230E-01
   7168.67  3.5567709E-01
   7169.00  3.6008589E-01
   7169.33  3.6451764E-01
   7169.67  3.6894453E-01
   7170.00  3.7335016E-01
   7170.33  3.7771282E-01
   7170.67  3.8201332E-01
   7171.00  3.8621308E-01
   7171.33  3.9019569E-01
   7171.67  3.9379549E-01
   7172.00  3.9675305E-01
