    FDMNES
    energy     <xanes>
   7097.00  4.9436912E-03
   7097.33  5.0569726E-03
   7097.67  5.1752626E-03
   7098.00  5.2988966E-03
   7098.33  5.4290287E-03
   7098.67  5.5654190E-03
   7099.00  5.7085256E-03
   7099.33  5.8598584E-03
   7099.67  6.0191744E-03
   7100.00  6.1871182E-03
   7100.33  6.3657206E-03
   7100.67  6.5547625E-03
   7101.00  6.7551817E-03
   7101.33  6.9698038E-03
   7101.67  7.1984930E-03
   7102.00  7.4426709E-03
   7102.33  7.7064337E-03
   7102.67  7.9898638E-03
   7103.00  8.2952264E-03
   7103.33  8.6287691E-03
   7103.67  8.9911075E-03
   7104.00  9.3860799E-03
   7104.33  9.8238498E-03
   7104.67  1.0306344E-02
   7105.00  1.0840597E-02
   7105.33  1.1444580E-02
   7105.67  1.2123633E-02
   7106.00  1.2892051E-02
   7106.33  1.3785351E-02
   7106.67  1.4818758E-02
   7107.00  1.6025688E-02
   7107.33  1.7488181E-02
   7107.67  1.9255263E-02
   7108.00  2.1422645E-02
   7108.33  2.4229267E-02
   7108.67  2.7874569E-02
   7109.00  3.2734220E-02
   7109.33  3.9816157E-02
   7109.67  5.0333782E-02
   7110.00  6.6687095E-02
   7110.33  9.5792083E-02
   7110.67  1.4392440E-01
   7111.00  2.0595902E-01
   7111.33  2.4499368E-01
   7111.67  2.6014060E-01
   7112.00  2.7220070E-01
   7112.33  2.7623394E-01
   7112.67  2.5972002E-01
   7113.00  2.2893996E-01
   7113.33  1.9494745E-01
   7113.67  1.6416333E-01
   7114.00  1.4046639E-01
   7114.33  1.2612129E-01
   7114.67  1.1942990E-01
   7115.00  1.1951440E-01
   7115.33  1.2335989E-01
   7115.67  1.2422289E-01
   7116.00  1.2138248E-01
   7116.33  1.2187274E-01
   7116.67  1.3096209E-01
   7117.00  1.5112667E-01
   7117.33  1.8319006E-01
   7117.67  2.1548239E-01
   7118.00  2.3328002E-01
   7118.33  2.3361060E-01
   7118.67  2.3264552E-01
   7119.00  2.3626975E-01
   7119.33  2.4195223E-01
   7119.67  2.4700274E-01
   7120.00  2.5374317E-01
   7120.33  2.6713511E-01
   7120.67  2.8922641E-01
   7121.00  3.2031329E-01
   7121.33  3.5762571E-01
   7121.67  3.9270044E-01
   7122.00  4.1861829E-01
   7122.33  4.3169887E-01
   7122.67  4.3755649E-01
   7123.00  4.4064261E-01
   7123.33  4.4338750E-01
   7123.67  4.4564233E-01
   7124.00  4.4623300E-01
   7124.33  4.4361166E-01
   7124.67  4.3838679E-01
   7125.00  4.3196389E-01
   7125.33  4.2648617E-01
   7125.67  4.2334296E-01
   7126.00  4.2294171E-01
   7126.33  4.2509812E-01
   7126.67  4.2878919E-01
   7127.00  4.3360633E-01
   7127.33  4.3957058E-01
   7127.67  4.4686244E-01
   7128.00  4.5589722E-01
   7128.33  4.6735920E-01
   7128.67  4.8116281E-01
   7129.00  4.9728548E-01
   7129.33  5.1589287E-01
   7129.67  5.3656568E-01
   7130.00  5.5900005E-01
   7130.33  5.8227003E-01
   7130.67  6.0440056E-01
   7131.00  6.2354123E-01
   7131.33  6.3762213E-01
   7131.67  6.4690473E-01
   7132.00  6.5187543E-01
   7132.33  6.5302349E-01
   7132.67  6.5187206E-01
   7133.00  6.4944617E-01
   7133.33  6.4673030E-01
   7133.67  6.4419649E-01
   7134.00  6.4154071E-01
   7134.33  6.3766325E-01
   7134.67  6.3199295E-01
   7135.00  6.2478397E-01
   7135.33  6.1705381E-01
   7135.67  6.0999608E-01
   7136.00  6.0422541E-01
   7136.33  6.0011550E-01
   7136.67  5.9725613E-01
   7137.00  5.9533546E-01
   7137.33  5.9411845E-01
   7137.67  5.9332781E-01
   7138.00  5.9291816E-01
   7138.33  5.9310030E-01
   7138.67  5.9410287E-01
   7139.00  5.9613927E-01
   7139.33  5.9936591E-01
   7139.67  6.0341007E-01
   7140.00  6.0794521E-01
   7140.33  6.1259204E-01
   7140.67  6.1701189E-01
   7141.00  6.2100899E-01
   7141.33  6.2439185E-01
   7141.67  6.2720710E-01
   7142.00  6.2950169E-01
   7142.33  6.3131747E-01
   7142.67  6.3278715E-01
   7143.00  6.3392338E-01
   7143.33  6.3460769E-01
   7143.67  6.3474865E-01
   7144.00  6.3418651E-01
   7144.33  6.3259685E-01
   7144.67  6.2988625E-01
   7145.00  6.2591588E-01
   7145.33  6.2046279E-01
   7145.67  6.1379629E-01
   7146.00  6.0615266E-01
   7146.33  5.9788282E-01
   7146.67  5.8955976E-01
   7147.00  5.8160185E-01
   7147.33  5.7448080E-01
   7147.67  5.6830706E-01
   7148.00  5.6310658E-01
   7148.33  5.5887651E-01
   7148.67  5.5530521E-01
   7149.00  5.5219459E-01
   7149.33  5.4935327E-01
   7149.67  5.4654801E-01
   7150.00  5.4361787E-01
   7150.33  5.4036235E-01
   7150.67  5.3668661E-01
   7151.00  5.3250967E-01
   7151.33  5.2770672E-01
   7151.67  5.2233323E-01
   7152.00  5.1640636E-01
   7152.33  5.0990802E-01
   7152.67  5.0296384E-01
   7153.00  4.9563247E-01
   7153.33  4.8794168E-01
   7153.67  4.7999643E-01
   7154.00  4.7185082E-01
   7154.33  4.6354915E-01
   7154.67  4.5517033E-01
   7155.00  4.4676826E-01
   7155.33  4.3841174E-01
   7155.67  4.3015987E-01
   7156.00  4.2206686E-01
   7156.33  4.1422314E-01
   7156.67  4.0666795E-01
   7157.00  3.9945487E-01
   7157.33  3.9268382E-01
   7157.67  3.8634570E-01
   7158.00  3.8046239E-01
   7158.33  3.7509838E-01
   7158.67  3.7018385E-01
   7159.00  3.6569275E-01
   7159.33  3.6162020E-01
   7159.67  3.5785746E-01
   7160.00  3.5435838E-01
   7160.33  3.5111386E-01
   7160.67  3.4808096E-01
   7161.00  3.4526944E-01
   7161.33  3.4274902E-01
   7161.67  3.4054563E-01
   7162.00  3.3871789E-01
   7162.33  3.3738989E-01
   7162.67  3.3656421E-01
   7163.00  3.3627582E-01
   7163.33  3.3661418E-01
   7163.67  3.3750701E-01
   7164.00  3.3893695E-01
   7164.33  3.4093546E-01
   7164.67  3.4340135E-01
   7165.00  3.4630099E-01
   7165.33  3.4964714E-01
   7165.67  3.5335835E-01
   7166.00  3.5741237E-01
   7166.33  3.6182808E-01
   7166.67  3.6654544E-01
   7167.00  3.7154850E-01
   7167.33  3.7685437E-01
   7167.67  3.8241349E-01
   7168.00  3.8821129E-01
   7168.33  3.9425589E-01
   7168.67  4.0049555E-01
   7169.00  4.0690323E-01
   7169.33  4.1345446E-01
   7169.67  4.2008106E-01
   7170.00  4.2672700E-01
   7170.33  4.3330426E-01
   7170.67  4.3971948E-01
   7171.00  4.4586307E-01
   7171.33  4.5150908E-01
   7171.67  4.5646339E-01
   7172.00  4.6044554E-01
