    FDMNES
    energy     <xanes>
   7097.00  5.1578839E-03
   7097.33  5.2807969E-03
   7097.67  5.4092138E-03
   7098.00  5.5434987E-03
   7098.33  5.6849115E-03
   7098.67  5.8331799E-03
   7099.00  5.9887972E-03
   7099.33  6.1534000E-03
   7099.67  6.3267063E-03
   7100.00  6.5094014E-03
   7100.33  6.7036667E-03
   7100.67  6.9092327E-03
   7101.00  7.1270817E-03
   7101.33  7.3602106E-03
   7101.67  7.6084134E-03
   7102.00  7.8731513E-03
   7102.33  8.1586941E-03
   7102.67  8.4650148E-03
   7103.00  8.7943848E-03
   7103.33  9.1531682E-03
   7103.67  9.5417783E-03
   7104.00  9.9639451E-03
   7104.33  1.0429704E-02
   7104.67  1.0940533E-02
   7105.00  1.1502996E-02
   7105.33  1.2134098E-02
   7105.67  1.2838000E-02
   7106.00  1.3627323E-02
   7106.33  1.4533776E-02
   7106.67  1.5568833E-02
   7107.00  1.6759870E-02
   7107.33  1.8174309E-02
   7107.67  1.9846552E-02
   7108.00  2.1847029E-02
   7108.33  2.4349515E-02
   7108.67  2.7477937E-02
   7109.00  3.1467833E-02
   7109.33  3.6927679E-02
   7109.67  4.4482629E-02
   7110.00  5.5340570E-02
   7110.33  7.2923035E-02
   7110.67  1.0122948E-01
   7111.00  1.4425212E-01
   7111.33  2.0180791E-01
   7111.67  2.6332608E-01
   7112.00  3.2329723E-01
   7112.33  3.8170843E-01
   7112.67  4.0984205E-01
   7113.00  3.8575176E-01
   7113.33  3.1408315E-01
   7113.67  2.3127471E-01
   7114.00  1.7066585E-01
   7114.33  1.3771247E-01
   7114.67  1.2066452E-01
   7115.00  1.1530309E-01
   7115.33  1.2123333E-01
   7115.67  1.3673830E-01
   7116.00  1.6021300E-01
   7116.33  1.9018954E-01
   7116.67  2.3036272E-01
   7117.00  2.9085401E-01
   7117.33  3.7798043E-01
   7117.67  4.4319469E-01
   7118.00  4.2911489E-01
   7118.33  3.6359708E-01
   7118.67  3.1210681E-01
   7119.00  2.7959058E-01
   7119.33  2.5754096E-01
   7119.67  2.4435698E-01
   7120.00  2.4338342E-01
   7120.33  2.5730524E-01
   7120.67  2.8150444E-01
   7121.00  3.1072870E-01
   7121.33  3.3841483E-01
   7121.67  3.6162531E-01
   7122.00  3.8057538E-01
   7122.33  3.9566246E-01
   7122.67  4.0809090E-01
   7123.00  4.1889663E-01
   7123.33  4.2874048E-01
   7123.67  4.3738816E-01
   7124.00  4.4452681E-01
   7124.33  4.5070028E-01
   7124.67  4.5674409E-01
   7125.00  4.6234836E-01
   7125.33  4.6624090E-01
   7125.67  4.6821477E-01
   7126.00  4.6935639E-01
   7126.33  4.7238492E-01
   7126.67  4.7949081E-01
   7127.00  4.9172966E-01
   7127.33  5.0920169E-01
   7127.67  5.2924926E-01
   7128.00  5.4979186E-01
   7128.33  5.6879684E-01
   7128.67  5.8521992E-01
   7129.00  5.9830515E-01
   7129.33  6.0688937E-01
   7129.67  6.1110404E-01
   7130.00  6.1097997E-01
   7130.33  6.0657488E-01
   7130.67  5.9930073E-01
   7131.00  5.9011867E-01
   7131.33  5.8009043E-01
   7131.67  5.7031233E-01
   7132.00  5.6139215E-01
   7132.33  5.5384287E-01
   7132.67  5.4747805E-01
   7133.00  5.4199552E-01
   7133.33  5.3708985E-01
   7133.67  5.3284110E-01
   7134.00  5.3003060E-01
   7134.33  5.3027963E-01
   7134.67  5.3396434E-01
   7135.00  5.4071005E-01
   7135.33  5.4939821E-01
   7135.67  5.5826799E-01
   7136.00  5.6625004E-01
   7136.33  5.7235022E-01
   7136.67  5.7648693E-01
   7137.00  5.7875183E-01
   7137.33  5.7937256E-01
   7137.67  5.7915630E-01
   7138.00  5.7870078E-01
   7138.33  5.7866868E-01
   7138.67  5.7942188E-01
   7139.00  5.8109895E-01
   7139.33  5.8370767E-01
   7139.67  5.8685102E-01
   7140.00  5.9022658E-01
   7140.33  5.9353095E-01
   7140.67  5.9658740E-01
   7141.00  5.9931278E-01
   7141.33  6.0160152E-01
   7141.67  6.0344917E-01
   7142.00  6.0480364E-01
   7142.33  6.0553627E-01
   7142.67  6.0566899E-01
   7143.00  6.0516946E-01
   7143.33  6.0394560E-01
   7143.67  6.0210900E-01
   7144.00  5.9969757E-01
   7144.33  5.9667366E-01
   7144.67  5.9311084E-01
   7145.00  5.8898994E-01
   7145.33  5.8417958E-01
   7145.67  5.7868226E-01
   7146.00  5.7244351E-01
   7146.33  5.6534911E-01
   7146.67  5.5755200E-01
   7147.00  5.4917305E-01
   7147.33  5.4037958E-01
   7147.67  5.3148129E-01
   7148.00  5.2271573E-01
   7148.33  5.1438730E-01
   7148.67  5.0665479E-01
   7149.00  4.9964499E-01
   7149.33  4.9353894E-01
   7149.67  4.8823782E-01
   7150.00  4.8368469E-01
   7150.33  4.7983920E-01
   7150.67  4.7646714E-01
   7151.00  4.7342550E-01
   7151.33  4.7058402E-01
   7151.67  4.6780172E-01
   7152.00  4.6500820E-01
   7152.33  4.6215429E-01
   7152.67  4.5924796E-01
   7153.00  4.5631883E-01
   7153.33  4.5342663E-01
   7153.67  4.5063263E-01
   7154.00  4.4799101E-01
   7154.33  4.4557792E-01
   7154.67  4.4339681E-01
   7155.00  4.4144892E-01
   7155.33  4.3972927E-01
   7155.67  4.3814634E-01
   7156.00  4.3661619E-01
   7156.33  4.3500648E-01
   7156.67  4.3318597E-01
   7157.00  4.3103469E-01
   7157.33  4.2837791E-01
   7157.67  4.2519713E-01
   7158.00  4.2147637E-01
   7158.33  4.1719681E-01
   7158.67  4.1252228E-01
   7159.00  4.0757078E-01
   7159.33  4.0247591E-01
   7159.67  3.9739557E-01
   7160.00  3.9243381E-01
   7160.33  3.8770853E-01
   7160.67  3.8325574E-01
   7161.00  3.7911459E-01
   7161.33  3.7536093E-01
   7161.67  3.7197038E-01
   7162.00  3.6895152E-01
   7162.33  3.6635879E-01
   7162.67  3.6415159E-01
   7163.00  3.6233476E-01
   7163.33  3.6096315E-01
   7163.67  3.5999298E-01
   7164.00  3.5942658E-01
   7164.33  3.5931417E-01
   7164.67  3.5960148E-01
   7165.00  3.6028167E-01
   7165.33  3.6139044E-01
   7165.67  3.6286438E-01
   7166.00  3.6468769E-01
   7166.33  3.6688231E-01
   7166.67  3.6938746E-01
   7167.00  3.7218641E-01
   7167.33  3.7529437E-01
   7167.67  3.7865759E-01
   7168.00  3.8225845E-01
   7168.33  3.8610132E-01
   7168.67  3.9013383E-01
   7169.00  3.9433167E-01
   7169.33  3.9868049E-01
   7169.67  4.0312825E-01
   7170.00  4.0763986E-01
   7170.33  4.1216808E-01
   7170.67  4.1664845E-01
   7171.00  4.2100937E-01
   7171.33  4.2509835E-01
   7171.67  4.2874699E-01
   7172.00  4.3171337E-01
