    FDMNES
    energy     <xanes>
   7097.00  4.6774840E-03
   7097.33  4.7785915E-03
   7097.67  4.8838079E-03
   7098.00  4.9933863E-03
   7098.33  5.1082370E-03
   7098.67  5.2281335E-03
   7099.00  5.3534156E-03
   7099.33  5.4852500E-03
   7099.67  5.6233994E-03
   7100.00  5.7683322E-03
   7100.33  5.9215837E-03
   7100.67  6.0829213E-03
   7101.00  6.2530126E-03
   7101.33  6.4339439E-03
   7101.67  6.6255229E-03
   7102.00  6.8287405E-03
   7102.33  7.0465463E-03
   7102.67  7.2788707E-03
   7103.00  7.5272589E-03
   7103.33  7.7960935E-03
   7103.67  8.0856210E-03
   7104.00  8.3984036E-03
   7104.33  8.7413808E-03
   7104.67  9.1155926E-03
   7105.00  9.5256352E-03
   7105.33  9.9834460E-03
   7105.67  1.0492143E-02
   7106.00  1.1060864E-02
   7106.33  1.1712559E-02
   7106.67  1.2456335E-02
   7107.00  1.3313077E-02
   7107.33  1.4334332E-02
   7107.67  1.5549421E-02
   7108.00  1.7016698E-02
   7108.33  1.8881793E-02
   7108.67  2.1262140E-02
   7109.00  2.4379890E-02
   7109.33  2.8827417E-02
   7109.67  3.5299022E-02
   7110.00  4.5164793E-02
   7110.33  6.2390963E-02
   7110.67  9.0993948E-02
   7111.00  1.2991755E-01
   7111.33  1.5845184E-01
   7111.67  1.7231135E-01
   7112.00  1.8543065E-01
   7112.33  1.9854751E-01
   7112.67  1.9572099E-01
   7113.00  1.7076488E-01
   7113.33  1.3862359E-01
   7113.67  1.1326131E-01
   7114.00  9.6004591E-02
   7114.33  8.5715219E-02
   7114.67  7.9719793E-02
   7115.00  7.6986248E-02
   7115.33  7.7193837E-02
   7115.67  7.9749615E-02
   7116.00  8.4626963E-02
   7116.33  9.2110230E-02
   7116.67  1.0168464E-01
   7117.00  1.1309604E-01
   7117.33  1.2676595E-01
   7117.67  1.4289505E-01
   7118.00  1.6148761E-01
   7118.33  1.8240410E-01
   7118.67  2.0555519E-01
   7119.00  2.3200184E-01
   7119.33  2.6372984E-01
   7119.67  3.0046241E-01
   7120.00  3.4126381E-01
   7120.33  3.8385129E-01
   7120.67  4.2376242E-01
   7121.00  4.5623225E-01
   7121.33  4.7614036E-01
   7121.67  4.8648997E-01
   7122.00  4.9149803E-01
   7122.33  4.9470038E-01
   7122.67  4.9764447E-01
   7123.00  5.0060878E-01
   7123.33  5.0377210E-01
   7123.67  5.0730953E-01
   7124.00  5.1155951E-01
   7124.33  5.1737971E-01
   7124.67  5.2540415E-01
   7125.00  5.3599623E-01
   7125.33  5.4866308E-01
   7125.67  5.6112129E-01
   7126.00  5.7164376E-01
   7126.33  5.7869509E-01
   7126.67  5.8195301E-01
   7127.00  5.8131906E-01
   7127.33  5.7753823E-01
   7127.67  5.7313779E-01
   7128.00  5.6998617E-01
   7128.33  5.6953722E-01
   7128.67  5.7124089E-01
   7129.00  5.7407654E-01
   7129.33  5.7662965E-01
   7129.67  5.7796136E-01
   7130.00  5.7771188E-01
   7130.33  5.7548563E-01
   7130.67  5.7131735E-01
   7131.00  5.6527788E-01
   7131.33  5.5810406E-01
   7131.67  5.5149878E-01
   7132.00  5.4677501E-01
   7132.33  5.4505589E-01
   7132.67  5.4577937E-01
   7133.00  5.4808032E-01
   7133.33  5.5073383E-01
   7133.67  5.5281542E-01
   7134.00  5.5418687E-01
   7134.33  5.5534168E-01
   7134.67  5.5702919E-01
   7135.00  5.5962792E-01
   7135.33  5.6335124E-01
   7135.67  5.6792872E-01
   7136.00  5.7313901E-01
   7136.33  5.7869878E-01
   7136.67  5.8420155E-01
   7137.00  5.8931190E-01
   7137.33  5.9353934E-01
   7137.67  5.9662534E-01
   7138.00  5.9833639E-01
   7138.33  5.9835029E-01
   7138.67  5.9690174E-01
   7139.00  5.9416640E-01
   7139.33  5.9033604E-01
   7139.67  5.8588992E-01
   7140.00  5.8111712E-01
   7140.33  5.7628947E-01
   7140.67  5.7161790E-01
   7141.00  5.6722759E-01
   7141.33  5.6326546E-01
   7141.67  5.5974255E-01
   7142.00  5.5668431E-01
   7142.33  5.5415559E-01
   7142.67  5.5208143E-01
   7143.00  5.5043081E-01
   7143.33  5.4919101E-01
   7143.67  5.4824100E-01
   7144.00  5.4751190E-01
   7144.33  5.4694031E-01
   7144.67  5.4642917E-01
   7145.00  5.4591340E-01
   7145.33  5.4531460E-01
   7145.67  5.4458346E-01
   7146.00  5.4368086E-01
   7146.33  5.4255142E-01
   7146.67  5.4120888E-01
   7147.00  5.3965888E-01
   7147.33  5.3790101E-01
   7147.67  5.3599425E-01
   7148.00  5.3397535E-01
   7148.33  5.3187825E-01
   7148.67  5.2974679E-01
   7149.00  5.2760057E-01
   7149.33  5.2544481E-01
   7149.67  5.2326632E-01
   7150.00  5.2103891E-01
   7150.33  5.1870885E-01
   7150.67  5.1623797E-01
   7151.00  5.1358467E-01
   7151.33  5.1068056E-01
   7151.67  5.0752646E-01
   7152.00  5.0411188E-01
   7152.33  5.0040739E-01
   7152.67  4.9646316E-01
   7153.00  4.9230477E-01
   7153.33  4.8794787E-01
   7153.67  4.8345696E-01
   7154.00  4.7887040E-01
   7154.33  4.7422727E-01
   7154.67  4.6957924E-01
   7155.00  4.6496463E-01
   7155.33  4.6043437E-01
   7155.67  4.5601747E-01
   7156.00  4.5174570E-01
   7156.33  4.4767607E-01
   7156.67  4.4381545E-01
   7157.00  4.4018288E-01
   7157.33  4.3682220E-01
   7157.67  4.3370824E-01
   7158.00  4.3083773E-01
   7158.33  4.2822689E-01
   7158.67  4.2582890E-01
   7159.00  4.2362715E-01
   7159.33  4.2162495E-01
   7159.67  4.1978228E-01
   7160.00  4.1808555E-01
   7160.33  4.1653886E-01
   7160.67  4.1511674E-01
   7161.00  4.1381284E-01
   7161.33  4.1262889E-01
   7161.67  4.1153856E-01
   7162.00  4.1053720E-01
   7162.33  4.0963537E-01
   7162.67  4.0882204E-01
   7163.00  4.0809812E-01
   7163.33  4.0747986E-01
   7163.67  4.0696414E-01
   7164.00  4.0656077E-01
   7164.33  4.0629839E-01
   7164.67  4.0617452E-01
   7165.00  4.0619896E-01
   7165.33  4.0639890E-01
   7165.67  4.0675667E-01
   7166.00  4.0726863E-01
   7166.33  4.0794308E-01
   7166.67  4.0874682E-01
   7167.00  4.0966407E-01
   7167.33  4.1068695E-01
   7167.67  4.1178371E-01
   7168.00  4.1293763E-01
   7168.33  4.1413589E-01
   7168.67  4.1535820E-01
   7169.00  4.1659310E-01
   7169.33  4.1782906E-01
   7169.67  4.1905538E-01
   7170.00  4.2026303E-01
   7170.33  4.2143731E-01
   7170.67  4.2256923E-01
   7171.00  4.2364499E-01
   7171.33  4.2463113E-01
   7171.67  4.2549779E-01
   7172.00  4.2619513E-01
