    FDMNES
    energy     <xanes>
   7097.00  4.7018913E-03
   7097.33  4.8019573E-03
   7097.67  4.9060416E-03
   7098.00  5.0143891E-03
   7098.33  5.1278849E-03
   7098.67  5.2463031E-03
   7099.00  5.3699704E-03
   7099.33  5.5000168E-03
   7099.67  5.6362034E-03
   7100.00  5.7789780E-03
   7100.33  5.9298192E-03
   7100.67  6.0884881E-03
   7101.00  6.2556173E-03
   7101.33  6.4332014E-03
   7101.67  6.6210307E-03
   7102.00  6.8200337E-03
   7102.33  7.0330013E-03
   7102.67  7.2598215E-03
   7103.00  7.5019203E-03
   7103.33  7.7633864E-03
   7103.67  8.0443627E-03
   7104.00  8.3471675E-03
   7104.33  8.6781495E-03
   7104.67  9.0380880E-03
   7105.00  9.4310344E-03
   7105.33  9.8676223E-03
   7105.67  1.0350268E-02
   7106.00  1.0886756E-02
   7106.33  1.1496809E-02
   7106.67  1.2187433E-02
   7107.00  1.2975677E-02
   7107.33  1.3903799E-02
   7107.67  1.4993803E-02
   7108.00  1.6290931E-02
   7108.33  1.7907960E-02
   7108.67  1.9930135E-02
   7109.00  2.2520826E-02
   7109.33  2.6113579E-02
   7109.67  3.1199583E-02
   7110.00  3.8748738E-02
   7110.33  5.1506357E-02
   7110.67  7.1664893E-02
   7111.00  9.6377717E-02
   7111.33  1.1287256E-01
   7111.67  1.2667089E-01
   7112.00  1.4881202E-01
   7112.33  1.8947227E-01
   7112.67  2.4329985E-01
   7113.00  2.7964106E-01
   7113.33  2.5498104E-01
   7113.67  2.0476815E-01
   7114.00  1.5900900E-01
   7114.33  1.2807170E-01
   7114.67  1.0804456E-01
   7115.00  9.6046369E-02
   7115.33  9.0355289E-02
   7115.67  8.8865373E-02
   7116.00  9.0942186E-02
   7116.33  9.6528727E-02
   7116.67  1.0479302E-01
   7117.00  1.1523428E-01
   7117.33  1.2765029E-01
   7117.67  1.4168513E-01
   7118.00  1.5704641E-01
   7118.33  1.7332047E-01
   7118.67  1.8995486E-01
   7119.00  2.0626539E-01
   7119.33  2.2036692E-01
   7119.67  2.3090429E-01
   7120.00  2.3788710E-01
   7120.33  2.4299882E-01
   7120.67  2.4925351E-01
   7121.00  2.5894036E-01
   7121.33  2.7463331E-01
   7121.67  2.9616456E-01
   7122.00  3.2251718E-01
   7122.33  3.5177108E-01
   7122.67  3.8156195E-01
   7123.00  4.1080865E-01
   7123.33  4.3887184E-01
   7123.67  4.6615485E-01
   7124.00  4.9332847E-01
   7124.33  5.2134015E-01
   7124.67  5.5049248E-01
   7125.00  5.8017526E-01
   7125.33  6.0757633E-01
   7125.67  6.2911005E-01
   7126.00  6.4271767E-01
   7126.33  6.4785340E-01
   7126.67  6.4699638E-01
   7127.00  6.4119158E-01
   7127.33  6.3106874E-01
   7127.67  6.1841138E-01
   7128.00  6.0446813E-01
   7128.33  5.9109645E-01
   7128.67  5.8035025E-01
   7129.00  5.7376670E-01
   7129.33  5.7278478E-01
   7129.67  5.7633458E-01
   7130.00  5.8308535E-01
   7130.33  5.9089048E-01
   7130.67  5.9743387E-01
   7131.00  6.0163399E-01
   7131.33  6.0338366E-01
   7131.67  6.0439472E-01
   7132.00  6.0613052E-01
   7132.33  6.0949486E-01
   7132.67  6.1374809E-01
   7133.00  6.1817920E-01
   7133.33  6.2243887E-01
   7133.67  6.2640227E-01
   7134.00  6.2944467E-01
   7134.33  6.3026677E-01
   7134.67  6.2893214E-01
   7135.00  6.2609275E-01
   7135.33  6.2254521E-01
   7135.67  6.1897796E-01
   7136.00  6.1573224E-01
   7136.33  6.1315947E-01
   7136.67  6.1137449E-01
   7137.00  6.1048333E-01
   7137.33  6.1067024E-01
   7137.67  6.1182338E-01
   7138.00  6.1391073E-01
   7138.33  6.1696445E-01
   7138.67  6.2076621E-01
   7139.00  6.2519325E-01
   7139.33  6.3012323E-01
   7139.67  6.3527908E-01
   7140.00  6.4043427E-01
   7140.33  6.4524937E-01
   7140.67  6.4944850E-01
   7141.00  6.5279631E-01
   7141.33  6.5495302E-01
   7141.67  6.5591189E-01
   7142.00  6.5561363E-01
   7142.33  6.5390795E-01
   7142.67  6.5102895E-01
   7143.00  6.4708444E-01
   7143.33  6.4211161E-01
   7143.67  6.3638551E-01
   7144.00  6.3003951E-01
   7144.33  6.2315304E-01
   7144.67  6.1590344E-01
   7145.00  6.0837345E-01
   7145.33  6.0061521E-01
   7145.67  5.9271514E-01
   7146.00  5.8471558E-01
   7146.33  5.7664890E-01
   7146.67  5.6855514E-01
   7147.00  5.6045838E-01
   7147.33  5.5238688E-01
   7147.67  5.4436220E-01
   7148.00  5.3640390E-01
   7148.33  5.2854314E-01
   7148.67  5.2078710E-01
   7149.00  5.1314998E-01
   7149.33  5.0566345E-01
   7149.67  4.9832462E-01
   7150.00  4.9114575E-01
   7150.33  4.8416221E-01
   7150.67  4.7736453E-01
   7151.00  4.7076194E-01
   7151.33  4.6438885E-01
   7151.67  4.5822859E-01
   7152.00  4.5228926E-01
   7152.33  4.4660860E-01
   7152.67  4.4116658E-01
   7153.00  4.3597105E-01
   7153.33  4.3106298E-01
   7153.67  4.2641910E-01
   7154.00  4.2204629E-01
   7154.33  4.1798517E-01
   7154.67  4.1420447E-01
   7155.00  4.1070563E-01
   7155.33  4.0752398E-01
   7155.67  4.0462318E-01
   7156.00  4.0200251E-01
   7156.33  3.9969554E-01
   7156.67  3.9765771E-01
   7157.00  3.9587330E-01
   7157.33  3.9436007E-01
   7157.67  3.9308182E-01
   7158.00  3.9203512E-01
   7158.33  3.9124620E-01
   7158.67  3.9068503E-01
   7159.00  3.9035081E-01
   7159.33  3.9026918E-01
   7159.67  3.9040636E-01
   7160.00  3.9075458E-01
   7160.33  3.9132630E-01
   7160.67  3.9208208E-01
   7161.00  3.9300763E-01
   7161.33  3.9409887E-01
   7161.67  3.9531765E-01
   7162.00  3.9665516E-01
   7162.33  3.9811850E-01
   7162.67  3.9969473E-01
   7163.00  4.0138929E-01
   7163.33  4.0322397E-01
   7163.67  4.0518945E-01
   7164.00  4.0728885E-01
   7164.33  4.0953673E-01
   7164.67  4.1190680E-01
   7165.00  4.1438433E-01
   7165.33  4.1695645E-01
   7165.67  4.1958388E-01
   7166.00  4.2223892E-01
   7166.33  4.2488715E-01
   7166.67  4.2749663E-01
   7167.00  4.3004202E-01
   7167.33  4.3248743E-01
   7167.67  4.3482461E-01
   7168.00  4.3704082E-01
   7168.33  4.3910837E-01
   7168.67  4.4103583E-01
   7169.00  4.4281839E-01
   7169.33  4.4443361E-01
   7169.67  4.4589735E-01
   7170.00  4.4720750E-01
   7170.33  4.4834141E-01
   7170.67  4.4931549E-01
   7171.00  4.5012850E-01
   7171.33  4.5076328E-01
   7171.67  4.5125041E-01
   7172.00  4.5160986E-01
