    FDMNES
    energy     <xanes>
   7097.00  4.3337818E-03
   7097.33  4.4213035E-03
   7097.67  4.5122357E-03
   7098.00  4.6067855E-03
   7098.33  4.7057033E-03
   7098.67  4.8087975E-03
   7099.00  4.9163453E-03
   7099.33  5.0293067E-03
   7099.67  5.1474809E-03
   7100.00  5.2712502E-03
   7100.33  5.4018751E-03
   7100.67  5.5391582E-03
   7101.00  5.6836442E-03
   7101.33  5.8370425E-03
   7101.67  5.9991881E-03
   7102.00  6.1708884E-03
   7102.33  6.3545550E-03
   7102.67  6.5501211E-03
   7103.00  6.7588435E-03
   7103.33  6.9842966E-03
   7103.67  7.2266660E-03
   7104.00  7.4880298E-03
   7104.33  7.7740286E-03
   7104.67  8.0854801E-03
   7105.00  8.4260957E-03
   7105.33  8.8055340E-03
   7105.67  9.2262599E-03
   7106.00  9.6956084E-03
   7106.33  1.0232032E-02
   7106.67  1.0842714E-02
   7107.00  1.1544294E-02
   7107.33  1.2377857E-02
   7107.67  1.3366403E-02
   7108.00  1.4555938E-02
   7108.33  1.6061135E-02
   7108.67  1.7973048E-02
   7109.00  2.0463938E-02
   7109.33  2.3990843E-02
   7109.67  2.9079655E-02
   7110.00  3.6764642E-02
   7110.33  5.0058686E-02
   7110.67  7.2447197E-02
   7111.00  1.0577786E-01
   7111.33  1.3975413E-01
   7111.67  1.5280082E-01
   7112.00  1.4060577E-01
   7112.33  1.2149206E-01
   7112.67  1.0763152E-01
   7113.00  1.0076043E-01
   7113.33  1.0173329E-01
   7113.67  1.0992248E-01
   7114.00  1.2594390E-01
   7114.33  1.5054049E-01
   7114.67  1.7863750E-01
   7115.00  1.9865634E-01
   7115.33  1.9242961E-01
   7115.67  1.6797356E-01
   7116.00  1.3993622E-01
   7116.33  1.1862052E-01
   7116.67  1.0449872E-01
   7117.00  9.6346239E-02
   7117.33  9.3170695E-02
   7117.67  9.3294830E-02
   7118.00  9.6061692E-02
   7118.33  1.0114745E-01
   7118.67  1.0771097E-01
   7119.00  1.1513038E-01
   7119.33  1.2259681E-01
   7119.67  1.2943937E-01
   7120.00  1.3542088E-01
   7120.33  1.4092222E-01
   7120.67  1.4718955E-01
   7121.00  1.5508940E-01
   7121.33  1.6480477E-01
   7121.67  1.7561607E-01
   7122.00  1.8742905E-01
   7122.33  2.0094584E-01
   7122.67  2.1697900E-01
   7123.00  2.3622540E-01
   7123.33  2.5804378E-01
   7123.67  2.7854954E-01
   7124.00  2.9446409E-01
   7124.33  3.0346638E-01
   7124.67  3.0588211E-01
   7125.00  3.0254068E-01
   7125.33  2.9786234E-01
   7125.67  2.9748695E-01
   7126.00  3.0385832E-01
   7126.33  3.1888205E-01
   7126.67  3.4290648E-01
   7127.00  3.7722646E-01
   7127.33  4.2197392E-01
   7127.67  4.7180294E-01
   7128.00  5.2260720E-01
   7128.33  5.7085995E-01
   7128.67  6.1569091E-01
   7129.00  6.5731618E-01
   7129.33  6.9610625E-01
   7129.67  7.3237935E-01
   7130.00  7.6508452E-01
   7130.33  7.9174851E-01
   7130.67  8.1171212E-01
   7131.00  8.2440667E-01
   7131.33  8.2870817E-01
   7131.67  8.2616050E-01
   7132.00  8.1833955E-01
   7132.33  8.0797556E-01
   7132.67  7.9869856E-01
   7133.00  7.9261659E-01
   7133.33  7.9096377E-01
   7133.67  7.9229656E-01
   7134.00  7.9517919E-01
   7134.33  7.9818677E-01
   7134.67  8.0056585E-01
   7135.00  8.0219940E-01
   7135.33  8.0322934E-01
   7135.67  8.0406886E-01
   7136.00  8.0499240E-01
   7136.33  8.0618422E-01
   7136.67  8.0742608E-01
   7137.00  8.0814831E-01
   7137.33  8.0691465E-01
   7137.67  8.0227688E-01
   7138.00  7.9280211E-01
   7138.33  7.7670701E-01
   7138.67  7.5485644E-01
   7139.00  7.2833920E-01
   7139.33  6.9876351E-01
   7139.67  6.6849383E-01
   7140.00  6.3894762E-01
   7140.33  6.1148316E-01
   7140.67  5.8650035E-01
   7141.00  5.6426008E-01
   7141.33  5.4522053E-01
   7141.67  5.2899630E-01
   7142.00  5.1548964E-01
   7142.33  5.0482812E-01
   7142.67  4.9642957E-01
   7143.00  4.9001061E-01
   7143.33  4.8540675E-01
   7143.67  4.8204972E-01
   7144.00  4.7964661E-01
   7144.33  4.7798488E-01
   7144.67  4.7675266E-01
   7145.00  4.7580957E-01
   7145.33  4.7507629E-01
   7145.67  4.7448175E-01
   7146.00  4.7401889E-01
   7146.33  4.7372585E-01
   7146.67  4.7362039E-01
   7147.00  4.7373795E-01
   7147.33  4.7414800E-01
   7147.67  4.7484479E-01
   7148.00  4.7583796E-01
   7148.33  4.7715310E-01
   7148.67  4.7872319E-01
   7149.00  4.8050451E-01
   7149.33  4.8243526E-01
   7149.67  4.8441924E-01
   7150.00  4.8639784E-01
   7150.33  4.8829910E-01
   7150.67  4.9007908E-01
   7151.00  4.9170861E-01
   7151.33  4.9314397E-01
   7151.67  4.9438047E-01
   7152.00  4.9538354E-01
   7152.33  4.9605634E-01
   7152.67  4.9635258E-01
   7153.00  4.9618572E-01
   7153.33  4.9537419E-01
   7153.67  4.9388296E-01
   7154.00  4.9163375E-01
   7154.33  4.8845718E-01
   7154.67  4.8442218E-01
   7155.00  4.7952640E-01
   7155.33  4.7369304E-01
   7155.67  4.6708371E-01
   7156.00  4.5976851E-01
   7156.33  4.5177069E-01
   7156.67  4.4327565E-01
   7157.00  4.3437947E-01
   7157.33  4.2515470E-01
   7157.67  4.1574611E-01
   7158.00  4.0625256E-01
   7158.33  3.9680806E-01
   7158.67  3.8755192E-01
   7159.00  3.7861879E-01
   7159.33  3.7022988E-01
   7159.67  3.6248370E-01
   7160.00  3.5551099E-01
   7160.33  3.4956252E-01
   7160.67  3.4464240E-01
   7161.00  3.4083859E-01
   7161.33  3.3839093E-01
   7161.67  3.3722107E-01
   7162.00  3.3737797E-01
   7162.33  3.3908260E-01
   7162.67  3.4219979E-01
   7163.00  3.4674465E-01
   7163.33  3.5288307E-01
   7163.67  3.6038133E-01
   7164.00  3.6914098E-01
   7164.33  3.7910793E-01
   7164.67  3.8986818E-01
   7165.00  4.0110589E-01
   7165.33  4.1238168E-01
   7165.67  4.2319628E-01
   7166.00  4.3311975E-01
   7166.33  4.4153536E-01
   7166.67  4.4827816E-01
   7167.00  4.5319519E-01
   7167.33  4.5605929E-01
   7167.67  4.5728740E-01
   7168.00  4.5716660E-01
   7168.33  4.5601235E-01
   7168.67  4.5440626E-01
   7169.00  4.5272891E-01
   7169.33  4.5139453E-01
   7169.67  4.5063695E-01
   7170.00  4.5059185E-01
   7170.33  4.5139647E-01
   7170.67  4.5288612E-01
   7171.00  4.5492336E-01
   7171.33  4.5730944E-01
   7171.67  4.5968578E-01
   7172.00  4.6172605E-01
