    FDMNES
    energy     <xanes>
   7097.00  4.7662197E-03
   7097.33  4.8798948E-03
   7097.67  4.9988355E-03
   7098.00  5.1234088E-03
   7098.33  5.2548516E-03
   7098.67  5.3929301E-03
   7099.00  5.5381494E-03
   7099.33  5.6921419E-03
   7099.67  5.8546755E-03
   7100.00  6.0264654E-03
   7100.33  6.2097274E-03
   7100.67  6.4042622E-03
   7101.00  6.6111173E-03
   7101.33  6.8334031E-03
   7101.67  7.0710225E-03
   7102.00  7.3255730E-03
   7102.33  7.6016023E-03
   7102.67  7.8992715E-03
   7103.00  8.2211398E-03
   7103.33  8.5742006E-03
   7103.67  8.9592362E-03
   7104.00  9.3806063E-03
   7104.33  9.8497742E-03
   7104.67  1.0369044E-02
   7105.00  1.0946450E-02
   7105.33  1.1602410E-02
   7105.67  1.2343203E-02
   7106.00  1.3185248E-02
   7106.33  1.4169241E-02
   7106.67  1.5313031E-02
   7107.00  1.6655347E-02
   7107.33  1.8291220E-02
   7107.67  2.0278541E-02
   7108.00  2.2729757E-02
   7108.33  2.5926093E-02
   7108.67  3.0106572E-02
   7109.00  3.5721145E-02
   7109.33  4.3981796E-02
   7109.67  5.6369072E-02
   7110.00  7.5820353E-02
   7110.33  1.1090866E-01
   7110.67  1.7029036E-01
   7111.00  2.5095948E-01
   7111.33  3.0247815E-01
   7111.67  2.8593905E-01
   7112.00  2.2545821E-01
   7112.33  1.8091647E-01
   7112.67  1.6522463E-01
   7113.00  1.7403498E-01
   7113.33  2.0580427E-01
   7113.67  2.5534161E-01
   7114.00  3.1023530E-01
   7114.33  3.3369216E-01
   7114.67  3.3481125E-01
   7115.00  3.4601945E-01
   7115.33  3.5908724E-01
   7115.67  3.3806725E-01
   7116.00  2.8161410E-01
   7116.33  2.1752686E-01
   7116.67  1.6756884E-01
   7117.00  1.3391331E-01
   7117.33  1.1401761E-01
   7117.67  1.0243031E-01
   7118.00  9.7079248E-02
   7118.33  9.7568248E-02
   7118.67  1.0315565E-01
   7119.00  1.1375459E-01
   7119.33  1.2939056E-01
   7119.67  1.4937903E-01
   7120.00  1.7337019E-01
   7120.33  1.9714788E-01
   7120.67  2.1399018E-01
   7121.00  2.2104022E-01
   7121.33  2.1918195E-01
   7121.67  2.1317647E-01
   7122.00  2.0589152E-01
   7122.33  2.0080758E-01
   7122.67  2.0005544E-01
   7123.00  2.0403282E-01
   7123.33  2.1199753E-01
   7123.67  2.2170498E-01
   7124.00  2.3188599E-01
   7124.33  2.4135995E-01
   7124.67  2.4925951E-01
   7125.00  2.5497122E-01
   7125.33  2.5785861E-01
   7125.67  2.5876030E-01
   7126.00  2.5892120E-01
   7126.33  2.6024007E-01
   7126.67  2.6412409E-01
   7127.00  2.7161483E-01
   7127.33  2.8411749E-01
   7127.67  3.0154367E-01
   7128.00  3.2415295E-01
   7128.33  3.5283190E-01
   7128.67  3.8686806E-01
   7129.00  4.2579796E-01
   7129.33  4.6817745E-01
   7129.67  5.0902224E-01
   7130.00  5.4257874E-01
   7130.33  5.6328220E-01
   7130.67  5.7414050E-01
   7131.00  5.7864853E-01
   7131.33  5.8006036E-01
   7131.67  5.8166933E-01
   7132.00  5.8540782E-01
   7132.33  5.9262493E-01
   7132.67  6.0252881E-01
   7133.00  6.1428058E-01
   7133.33  6.2718365E-01
   7133.67  6.4060471E-01
   7134.00  6.5427609E-01
   7134.33  6.6821627E-01
   7134.67  6.8293873E-01
   7135.00  6.9926525E-01
   7135.33  7.1838287E-01
   7135.67  7.4033915E-01
   7136.00  7.6491546E-01
   7136.33  7.9144843E-01
   7136.67  8.1814921E-01
   7137.00  8.4317009E-01
   7137.33  8.6344026E-01
   7137.67  8.7668525E-01
   7138.00  8.8030598E-01
   7138.33  8.7022372E-01
   7138.67  8.4887971E-01
   7139.00  8.2191679E-01
   7139.33  7.9793578E-01
   7139.67  7.8042928E-01
   7140.00  7.6890766E-01
   7140.33  7.6189751E-01
   7140.67  7.5706733E-01
   7141.00  7.5321618E-01
   7141.33  7.4923982E-01
   7141.67  7.4428352E-01
   7142.00  7.3774630E-01
   7142.33  7.2883788E-01
   7142.67  7.1750103E-01
   7143.00  7.0362539E-01
   7143.33  6.8693342E-01
   7143.67  6.6794454E-01
   7144.00  6.4698501E-01
   7144.33  6.2442146E-01
   7144.67  6.0111672E-01
   7145.00  5.7771795E-01
   7145.33  5.5504612E-01
   7145.67  5.3366043E-01
   7146.00  5.1397648E-01
   7146.33  4.9654048E-01
   7146.67  4.8120819E-01
   7147.00  4.6795290E-01
   7147.33  4.5691299E-01
   7147.67  4.4771454E-01
   7148.00  4.4026546E-01
   7148.33  4.3469533E-01
   7148.67  4.3073267E-01
   7149.00  4.2832576E-01
   7149.33  4.2759100E-01
   7149.67  4.2825871E-01
   7150.00  4.3023736E-01
   7150.33  4.3354197E-01
   7150.67  4.3787995E-01
   7151.00  4.4313948E-01
   7151.33  4.4931564E-01
   7151.67  4.5619705E-01
   7152.00  4.6367712E-01
   7152.33  4.7166471E-01
   7152.67  4.7991688E-01
   7153.00  4.8825844E-01
   7153.33  4.9647936E-01
   7153.67  5.0440561E-01
   7154.00  5.1188945E-01
   7154.33  5.1871235E-01
   7154.67  5.2483674E-01
   7155.00  5.3019156E-01
   7155.33  5.3460760E-01
   7155.67  5.3812892E-01
   7156.00  5.4069753E-01
   7156.33  5.4210473E-01
   7156.67  5.4239129E-01
   7157.00  5.4148438E-01
   7157.33  5.3916124E-01
   7157.67  5.3555054E-01
   7158.00  5.3066521E-01
   7158.33  5.2441520E-01
   7158.67  5.1706048E-01
   7159.00  5.0872511E-01
   7159.33  4.9947954E-01
   7159.67  4.8962009E-01
   7160.00  4.7932791E-01
   7160.33  4.6879282E-01
   7160.67  4.5825732E-01
   7161.00  4.4789695E-01
   7161.33  4.3793828E-01
   7161.67  4.2848746E-01
   7162.00  4.1964657E-01
   7162.33  4.1158265E-01
   7162.67  4.0425037E-01
   7163.00  3.9765955E-01
   7163.33  3.9188931E-01
   7163.67  3.8681753E-01
   7164.00  3.8240738E-01
   7164.33  3.7868668E-01
   7164.67  3.7552788E-01
   7165.00  3.7288748E-01
   7165.33  3.7077500E-01
   7165.67  3.6908491E-01
   7166.00  3.6777940E-01
   7166.33  3.6686148E-01
   7166.67  3.6625379E-01
   7167.00  3.6593213E-01
   7167.33  3.6590750E-01
   7167.67  3.6613208E-01
   7168.00  3.6659889E-01
   7168.33  3.6733528E-01
   7168.67  3.6831215E-01
   7169.00  3.6953017E-01
   7169.33  3.7101629E-01
   7169.67  3.7273266E-01
   7170.00  3.7466737E-01
   7170.33  3.7682264E-01
   7170.67  3.7913777E-01
   7171.00  3.8156349E-01
   7171.33  3.8400566E-01
   7171.67  3.8629104E-01
   7172.00  3.8819640E-01
