    FDMNES
    energy     <xanes>
   7097.00  4.6908518E-03
   7097.33  4.7907094E-03
   7097.67  4.8945656E-03
   7098.00  5.0026628E-03
   7098.33  5.1158799E-03
   7098.67  5.2339905E-03
   7099.00  5.3573178E-03
   7099.33  5.4869823E-03
   7099.67  5.6227444E-03
   7100.00  5.7650463E-03
   7100.33  5.9153523E-03
   7100.67  6.0734216E-03
   7101.00  6.2398783E-03
   7101.33  6.4166940E-03
   7101.67  6.6036555E-03
   7102.00  6.8016765E-03
   7102.33  7.0135104E-03
   7102.67  7.2390367E-03
   7103.00  7.4796549E-03
   7103.33  7.7393870E-03
   7103.67  8.0183554E-03
   7104.00  8.3188253E-03
   7104.33  8.6470149E-03
   7104.67  9.0036478E-03
   7105.00  9.3926540E-03
   7105.33  9.8243713E-03
   7105.67  1.0301045E-02
   7106.00  1.0830130E-02
   7106.33  1.1430534E-02
   7106.67  1.2108647E-02
   7107.00  1.2880385E-02
   7107.33  1.3785153E-02
   7107.67  1.4842168E-02
   7108.00  1.6091586E-02
   7108.33  1.7632523E-02
   7108.67  1.9533221E-02
   7109.00  2.1924250E-02
   7109.33  2.5141212E-02
   7109.67  2.9518189E-02
   7110.00  3.5698318E-02
   7110.33  4.5474453E-02
   7110.67  6.0766871E-02
   7111.00  8.3054904E-02
   7111.33  1.1310300E-01
   7111.67  1.5570914E-01
   7112.00  2.1614701E-01
   7112.33  2.7905664E-01
   7112.67  2.8231904E-01
   7113.00  2.1863900E-01
   7113.33  1.5786848E-01
   7113.67  1.2057773E-01
   7114.00  9.9665593E-02
   7114.33  8.8775009E-02
   7114.67  8.2895134E-02
   7115.00  8.0528970E-02
   7115.33  8.1390013E-02
   7115.67  8.4986751E-02
   7116.00  9.1323432E-02
   7116.33  1.0073503E-01
   7116.67  1.1283287E-01
   7117.00  1.2745892E-01
   7117.33  1.4429074E-01
   7117.67  1.6187156E-01
   7118.00  1.7893769E-01
   7118.33  1.9467653E-01
   7118.67  2.0926852E-01
   7119.00  2.2265688E-01
   7119.33  2.3466868E-01
   7119.67  2.4567892E-01
   7120.00  2.5601925E-01
   7120.33  2.6610305E-01
   7120.67  2.7641956E-01
   7121.00  2.8740337E-01
   7121.33  2.9981634E-01
   7121.67  3.1418072E-01
   7122.00  3.3100351E-01
   7122.33  3.5091014E-01
   7122.67  3.7377385E-01
   7123.00  4.0005160E-01
   7123.33  4.3028117E-01
   7123.67  4.6292166E-01
   7124.00  4.9650439E-01
   7124.33  5.2959624E-01
   7124.67  5.6126601E-01
   7125.00  5.9031602E-01
   7125.33  6.1377335E-01
   7125.67  6.3009837E-01
   7126.00  6.3932726E-01
   7126.33  6.4335424E-01
   7126.67  6.4585719E-01
   7127.00  6.4859547E-01
   7127.33  6.5228509E-01
   7127.67  6.5645245E-01
   7128.00  6.6055167E-01
   7128.33  6.6372943E-01
   7128.67  6.6500713E-01
   7129.00  6.6312855E-01
   7129.33  6.5625615E-01
   7129.67  6.4522715E-01
   7130.00  6.3206814E-01
   7130.33  6.2003647E-01
   7130.67  6.1126795E-01
   7131.00  6.0669433E-01
   7131.33  6.0724449E-01
   7131.67  6.1198870E-01
   7132.00  6.1972336E-01
   7132.33  6.2838744E-01
   7132.67  6.3598746E-01
   7133.00  6.4166621E-01
   7133.33  6.4490450E-01
   7133.67  6.4614810E-01
   7134.00  6.4567078E-01
   7134.33  6.4360839E-01
   7134.67  6.4042952E-01
   7135.00  6.3643131E-01
   7135.33  6.3191438E-01
   7135.67  6.2727283E-01
   7136.00  6.2277666E-01
   7136.33  6.1877248E-01
   7136.67  6.1546350E-01
   7137.00  6.1302914E-01
   7137.33  6.1173092E-01
   7137.67  6.1147011E-01
   7138.00  6.1216546E-01
   7138.33  6.1368270E-01
   7138.67  6.1557959E-01
   7139.00  6.1749029E-01
   7139.33  6.1894235E-01
   7139.67  6.1965580E-01
   7140.00  6.1943596E-01
   7140.33  6.1802078E-01
   7140.67  6.1551259E-01
   7141.00  6.1195030E-01
   7141.33  6.0731100E-01
   7141.67  6.0184209E-01
   7142.00  5.9566197E-01
   7142.33  5.8883220E-01
   7142.67  5.8154466E-01
   7143.00  5.7388769E-01
   7143.33  5.6591214E-01
   7143.67  5.5772379E-01
   7144.00  5.4937251E-01
   7144.33  5.4089184E-01
   7144.67  5.3233634E-01
   7145.00  5.2373668E-01
   7145.33  5.1512524E-01
   7145.67  5.0653880E-01
   7146.00  4.9801062E-01
   7146.33  4.8959576E-01
   7146.67  4.8132980E-01
   7147.00  4.7326017E-01
   7147.33  4.6548152E-01
   7147.67  4.5803175E-01
   7148.00  4.5097935E-01
   7148.33  4.4447462E-01
   7148.67  4.3854376E-01
   7149.00  4.3325472E-01
   7149.33  4.2876618E-01
   7149.67  4.2504210E-01
   7150.00  4.2210864E-01
   7150.33  4.2006767E-01
   7150.67  4.1879045E-01
   7151.00  4.1822586E-01
   7151.33  4.1836454E-01
   7151.67  4.1901804E-01
   7152.00  4.2007663E-01
   7152.33  4.2143203E-01
   7152.67  4.2290886E-01
   7153.00  4.2439220E-01
   7153.33  4.2574528E-01
   7153.67  4.2687845E-01
   7154.00  4.2772345E-01
   7154.33  4.2817685E-01
   7154.67  4.2824385E-01
   7155.00  4.2791546E-01
   7155.33  4.2715526E-01
   7155.67  4.2603763E-01
   7156.00  4.2459312E-01
   7156.33  4.2282753E-01
   7156.67  4.2082028E-01
   7157.00  4.1860814E-01
   7157.33  4.1621122E-01
   7157.67  4.1368697E-01
   7158.00  4.1106408E-01
   7158.33  4.0836497E-01
   7158.67  4.0562668E-01
   7159.00  4.0287273E-01
   7159.33  4.0013290E-01
   7159.67  3.9743597E-01
   7160.00  3.9480944E-01
   7160.33  3.9229967E-01
   7160.67  3.8992865E-01
   7161.00  3.8772682E-01
   7161.33  3.8575296E-01
   7161.67  3.8401108E-01
   7162.00  3.8252273E-01
   7162.33  3.8134273E-01
   7162.67  3.8045262E-01
   7163.00  3.7986291E-01
   7163.33  3.7961939E-01
   7163.67  3.7968531E-01
   7164.00  3.8005962E-01
   7164.33  3.8077600E-01
   7164.67  3.8178972E-01
   7165.00  3.8309379E-01
   7165.33  3.8471330E-01
   7165.67  3.8660180E-01
   7166.00  3.8874986E-01
   7166.33  3.9117799E-01
   7166.67  3.9384430E-01
   7167.00  3.9673881E-01
   7167.33  3.9987599E-01
   7167.67  4.0321582E-01
   7168.00  4.0674656E-01
   7168.33  4.1047590E-01
   7168.67  4.1436596E-01
   7169.00  4.1840146E-01
   7169.33  4.2257752E-01
   7169.67  4.2685412E-01
   7170.00  4.3120592E-01
   7170.33  4.3560002E-01
   7170.67  4.3997967E-01
   7171.00  4.4428063E-01
   7171.33  4.4836015E-01
   7171.67  4.5203792E-01
   7172.00  4.5505358E-01
