    FDMNES
    energy     <xanes>
   7097.00  4.8879411E-03
   7097.33  4.9949852E-03
   7097.67  5.1064390E-03
   7098.00  5.2225702E-03
   7098.33  5.3443475E-03
   7098.67  5.4715196E-03
   7099.00  5.6044396E-03
   7099.33  5.7443353E-03
   7099.67  5.8909342E-03
   7100.00  6.0447115E-03
   7100.33  6.2072556E-03
   7100.67  6.3782793E-03
   7101.00  6.5584381E-03
   7101.33  6.7498349E-03
   7101.67  6.9521862E-03
   7102.00  7.1664215E-03
   7102.33  7.3954033E-03
   7102.67  7.6388921E-03
   7103.00  7.8982510E-03
   7103.33  8.1775079E-03
   7103.67  8.4765583E-03
   7104.00  8.7974827E-03
   7104.33  9.1461838E-03
   7104.67  9.5228969E-03
   7105.00  9.9309608E-03
   7105.33  1.0379476E-02
   7105.67  1.0869504E-02
   7106.00  1.1406755E-02
   7106.33  1.2006223E-02
   7106.67  1.2671036E-02
   7107.00  1.3411839E-02
   7107.33  1.4255692E-02
   7107.67  1.5211400E-02
   7108.00  1.6301448E-02
   7108.33  1.7581840E-02
   7108.67  1.9079967E-02
   7109.00  2.0854114E-02
   7109.33  2.3051255E-02
   7109.67  2.5783707E-02
   7110.00  2.9273473E-02
   7110.33  3.4116183E-02
   7110.67  4.0848283E-02
   7111.00  4.9865016E-02
   7111.33  6.1711965E-02
   7111.67  7.7747576E-02
   7112.00  9.8019083E-02
   7112.33  1.2622440E-01
   7112.67  1.6422241E-01
   7113.00  2.0011011E-01
   7113.33  2.3906438E-01
   7113.67  2.9352860E-01
   7114.00  3.4922430E-01
   7114.33  3.8006176E-01
   7114.67  4.1556135E-01
   7115.00  4.8765895E-01
   7115.33  5.6806330E-01
   7115.67  5.7497199E-01
   7116.00  5.0331106E-01
   7116.33  4.1147994E-01
   7116.67  3.3793557E-01
   7117.00  2.8760484E-01
   7117.33  2.5851541E-01
   7117.67  2.4190515E-01
   7118.00  2.3194693E-01
   7118.33  2.2067307E-01
   7118.67  2.0324363E-01
   7119.00  1.8316577E-01
   7119.33  1.6765113E-01
   7119.67  1.5796822E-01
   7120.00  1.5275791E-01
   7120.33  1.4990452E-01
   7120.67  1.4730231E-01
   7121.00  1.4449221E-01
   7121.33  1.4144087E-01
   7121.67  1.3826093E-01
   7122.00  1.3546261E-01
   7122.33  1.3402534E-01
   7122.67  1.3398452E-01
   7123.00  1.3484895E-01
   7123.33  1.3616394E-01
   7123.67  1.3798914E-01
   7124.00  1.4075793E-01
   7124.33  1.4518515E-01
   7124.67  1.5150318E-01
   7125.00  1.6003469E-01
   7125.33  1.7156362E-01
   7125.67  1.8630012E-01
   7126.00  2.0474075E-01
   7126.33  2.2785781E-01
   7126.67  2.5514557E-01
   7127.00  2.8608734E-01
   7127.33  3.1984185E-01
   7127.67  3.5467436E-01
   7128.00  3.8943052E-01
   7128.33  4.2287177E-01
   7128.67  4.5439144E-01
   7129.00  4.8368639E-01
   7129.33  5.1059522E-01
   7129.67  5.3587430E-01
   7130.00  5.6012849E-01
   7130.33  5.8393436E-01
   7130.67  6.0762510E-01
   7131.00  6.3121640E-01
   7131.33  6.5467063E-01
   7131.67  6.7821371E-01
   7132.00  7.0243245E-01
   7132.33  7.2865389E-01
   7132.67  7.5774242E-01
   7133.00  7.9007423E-01
   7133.33  8.2535134E-01
   7133.67  8.6133163E-01
   7134.00  8.9559426E-01
   7134.33  9.2471267E-01
   7134.67  9.4735512E-01
   7135.00  9.6296956E-01
   7135.33  9.7089945E-01
   7135.67  9.7231830E-01
   7136.00  9.6717369E-01
   7136.33  9.5414250E-01
   7136.67  9.3361401E-01
   7137.00  9.0550975E-01
   7137.33  8.6961238E-01
   7137.67  8.2836157E-01
   7138.00  7.8376662E-01
   7138.33  7.3854858E-01
   7138.67  6.9553228E-01
   7139.00  6.5667154E-01
   7139.33  6.2411165E-01
   7139.67  5.9760844E-01
   7140.00  5.7699469E-01
   7140.33  5.6237111E-01
   7140.67  5.5229495E-01
   7141.00  5.4605307E-01
   7141.33  5.4324906E-01
   7141.67  5.4284393E-01
   7142.00  5.4439050E-01
   7142.33  5.4769108E-01
   7142.67  5.5227459E-01
   7143.00  5.5797557E-01
   7143.33  5.6477861E-01
   7143.67  5.7244759E-01
   7144.00  5.8087046E-01
   7144.33  5.8992110E-01
   7144.67  5.9921079E-01
   7145.00  6.0833656E-01
   7145.33  6.1658053E-01
   7145.67  6.2331734E-01
   7146.00  6.2793307E-01
   7146.33  6.2952174E-01
   7146.67  6.2813127E-01
   7147.00  6.2378856E-01
   7147.33  6.1649190E-01
   7147.67  6.0711860E-01
   7148.00  5.9622109E-01
   7148.33  5.8432278E-01
   7148.67  5.7208838E-01
   7149.00  5.5990068E-01
   7149.33  5.4814276E-01
   7149.67  5.3699804E-01
   7150.00  5.2659793E-01
   7150.33  5.1714116E-01
   7150.67  5.0857449E-01
   7151.00  5.0092218E-01
   7151.33  4.9431589E-01
   7151.67  4.8864661E-01
   7152.00  4.8391597E-01
   7152.33  4.8023971E-01
   7152.67  4.7749829E-01
   7153.00  4.7569015E-01
   7153.33  4.7492690E-01
   7153.67  4.7507765E-01
   7154.00  4.7612132E-01
   7154.33  4.7812890E-01
   7154.67  4.8093576E-01
   7155.00  4.8447076E-01
   7155.33  4.8870043E-01
   7155.67  4.9340824E-01
   7156.00  4.9845662E-01
   7156.33  5.0369647E-01
   7156.67  5.0893939E-01
   7157.00  5.1405629E-01
   7157.33  5.1889423E-01
   7157.67  5.2339963E-01
   7158.00  5.2753061E-01
   7158.33  5.3122230E-01
   7158.67  5.3453568E-01
   7159.00  5.3749647E-01
   7159.33  5.4010558E-01
   7159.67  5.4244598E-01
   7160.00  5.4455396E-01
   7160.33  5.4644232E-01
   7160.67  5.4816453E-01
   7161.00  5.4973798E-01
   7161.33  5.5115695E-01
   7161.67  5.5244053E-01
   7162.00  5.5358328E-01
   7162.33  5.5455232E-01
   7162.67  5.5534675E-01
   7163.00  5.5594472E-01
   7163.33  5.5628868E-01
   7163.67  5.5637481E-01
   7164.00  5.5617519E-01
   7164.33  5.5561893E-01
   7164.67  5.5471409E-01
   7165.00  5.5343424E-01
   7165.33  5.5170057E-01
   7165.67  5.4953791E-01
   7166.00  5.4692595E-01
   7166.33  5.4379115E-01
   7166.67  5.4019061E-01
   7167.00  5.3613187E-01
   7167.33  5.3157729E-01
   7167.67  5.2660927E-01
   7168.00  5.2125949E-01
   7168.33  5.1553328E-01
   7168.67  5.0953133E-01
   7169.00  5.0331300E-01
   7169.33  4.9693772E-01
   7169.67  4.9050698E-01
   7170.00  4.8409825E-01
   7170.33  4.7782150E-01
   7170.67  4.7176467E-01
   7171.00  4.6602618E-01
   7171.33  4.6080649E-01
   7171.67  4.5625483E-01
   7172.00  4.5260758E-01
