    FDMNES
    energy     <xanes>
   7097.00  5.1559321E-03
   7097.33  5.2778099E-03
   7097.67  5.4051918E-03
   7098.00  5.5384467E-03
   7098.33  5.6788422E-03
   7098.67  5.8261124E-03
   7099.00  5.9807579E-03
   7099.33  6.1444308E-03
   7099.67  6.3168564E-03
   7100.00  6.4987323E-03
   7100.33  6.6922667E-03
   7100.67  6.8971999E-03
   7101.00  7.1145346E-03
   7101.33  7.3473133E-03
   7101.67  7.5953456E-03
   7102.00  7.8601268E-03
   7102.33  8.1460082E-03
   7102.67  8.4529900E-03
   7103.00  8.7834072E-03
   7103.33  9.1437773E-03
   7103.67  9.5345743E-03
   7104.00  9.9596622E-03
   7104.33  1.0429400E-02
   7104.67  1.0945434E-02
   7105.00  1.1514661E-02
   7105.33  1.2154902E-02
   7105.67  1.2870867E-02
   7106.00  1.3676200E-02
   7106.33  1.4605142E-02
   7106.67  1.5671344E-02
   7107.00  1.6906101E-02
   7107.33  1.8386858E-02
   7107.67  2.0158645E-02
   7108.00  2.2311296E-02
   7108.33  2.5071424E-02
   7108.67  2.8632144E-02
   7109.00  3.3363389E-02
   7109.33  4.0280650E-02
   7109.67  5.0679669E-02
   7110.00  6.7161089E-02
   7110.33  9.7001648E-02
   7110.67  1.4287851E-01
   7111.00  1.8172806E-01
   7111.33  1.6773071E-01
   7111.67  1.5052370E-01
   7112.00  1.5739914E-01
   7112.33  1.8479302E-01
   7112.67  2.1327379E-01
   7113.00  2.4203258E-01
   7113.33  2.8614275E-01
   7113.67  3.3832151E-01
   7114.00  3.8496174E-01
   7114.33  4.3567639E-01
   7114.67  5.1502870E-01
   7115.00  5.9742736E-01
   7115.33  5.9109362E-01
   7115.67  5.0265359E-01
   7116.00  3.9857958E-01
   7116.33  3.2199441E-01
   7116.67  2.7102255E-01
   7117.00  2.3967398E-01
   7117.33  2.2329677E-01
   7117.67  2.1434654E-01
   7118.00  2.0651755E-01
   7118.33  1.9277425E-01
   7118.67  1.7598835E-01
   7119.00  1.6192349E-01
   7119.33  1.5397794E-01
   7119.67  1.5075065E-01
   7120.00  1.5096871E-01
   7120.33  1.5302788E-01
   7120.67  1.5454669E-01
   7121.00  1.5429955E-01
   7121.33  1.5180050E-01
   7121.67  1.4754642E-01
   7122.00  1.4211773E-01
   7122.33  1.3662741E-01
   7122.67  1.3235615E-01
   7123.00  1.3017734E-01
   7123.33  1.3078176E-01
   7123.67  1.3360173E-01
   7124.00  1.3821287E-01
   7124.33  1.4440446E-01
   7124.67  1.5187652E-01
   7125.00  1.6078242E-01
   7125.33  1.7186206E-01
   7125.67  1.8558222E-01
   7126.00  2.0250341E-01
   7126.33  2.2339126E-01
   7126.67  2.4758706E-01
   7127.00  2.7447987E-01
   7127.33  3.0344153E-01
   7127.67  3.3372669E-01
   7128.00  3.6529735E-01
   7128.33  3.9841498E-01
   7128.67  4.3260602E-01
   7129.00  4.6690641E-01
   7129.33  4.9923218E-01
   7129.67  5.2834949E-01
   7130.00  5.5421240E-01
   7130.33  5.7794911E-01
   7130.67  6.0189101E-01
   7131.00  6.2771232E-01
   7131.33  6.5719487E-01
   7131.67  6.9083370E-01
   7132.00  7.2895945E-01
   7132.33  7.7175582E-01
   7132.67  8.1762893E-01
   7133.00  8.6513625E-01
   7133.33  9.1191027E-01
   7133.67  9.5499375E-01
   7134.00  9.9123754E-01
   7134.33  1.0157071E+00
   7134.67  1.0275050E+00
   7135.00  1.0268641E+00
   7135.33  1.0152501E+00
   7135.67  9.9767386E-01
   7136.00  9.7690565E-01
   7136.33  9.5448360E-01
   7136.67  9.3071090E-01
   7137.00  9.0483508E-01
   7137.33  8.7522715E-01
   7137.67  8.4138812E-01
   7138.00  8.0319668E-01
   7138.33  7.6109978E-01
   7138.67  7.1741903E-01
   7139.00  6.7425492E-01
   7139.33  6.3441434E-01
   7139.67  5.9941597E-01
   7140.00  5.7018022E-01
   7140.33  5.4767778E-01
   7140.67  5.3068757E-01
   7141.00  5.1849261E-01
   7141.33  5.1064862E-01
   7141.67  5.0589596E-01
   7142.00  5.0378836E-01
   7142.33  5.0433148E-01
   7142.67  5.0710660E-01
   7143.00  5.1206210E-01
   7143.33  5.1937600E-01
   7143.67  5.2859897E-01
   7144.00  5.3944182E-01
   7144.33  5.5153210E-01
   7144.67  5.6405082E-01
   7145.00  5.7632903E-01
   7145.33  5.8745935E-01
   7145.67  5.9690077E-01
   7146.00  6.0423462E-01
   7146.33  6.0888255E-01
   7146.67  6.1106605E-01
   7147.00  6.1084850E-01
   7147.33  6.0814146E-01
   7147.67  6.0349955E-01
   7148.00  5.9720425E-01
   7148.33  5.8943461E-01
   7148.67  5.8068761E-01
   7149.00  5.7123408E-01
   7149.33  5.6132790E-01
   7149.67  5.5131714E-01
   7150.00  5.4144427E-01
   7150.33  5.3201342E-01
   7150.67  5.2319172E-01
   7151.00  5.1512694E-01
   7151.33  5.0805387E-01
   7151.67  5.0193948E-01
   7152.00  4.9681882E-01
   7152.33  4.9283037E-01
   7152.67  4.8983924E-01
   7153.00  4.8782886E-01
   7153.33  4.8689637E-01
   7153.67  4.8689777E-01
   7154.00  4.8780918E-01
   7154.33  4.8970429E-01
   7154.67  4.9242678E-01
   7155.00  4.9592437E-01
   7155.33  5.0020559E-01
   7155.67  5.0508259E-01
   7156.00  5.1045047E-01
   7156.33  5.1621118E-01
   7156.67  5.2216279E-01
   7157.00  5.2816125E-01
   7157.33  5.3402115E-01
   7157.67  5.3959300E-01
   7158.00  5.4474492E-01
   7158.33  5.4927061E-01
   7158.67  5.5312538E-01
   7159.00  5.5623125E-01
   7159.33  5.5842066E-01
   7159.67  5.5975750E-01
   7160.00  5.6023118E-01
   7160.33  5.5974714E-01
   7160.67  5.5844662E-01
   7161.00  5.5637486E-01
   7161.33  5.5351092E-01
   7161.67  5.5002099E-01
   7162.00  5.4597704E-01
   7162.33  5.4140738E-01
   7162.67  5.3645824E-01
   7163.00  5.3120330E-01
   7163.33  5.2569875E-01
   7163.67  5.2005329E-01
   7164.00  5.1432914E-01
   7164.33  5.0858961E-01
   7164.67  5.0289715E-01
   7165.00  4.9729821E-01
   7165.33  4.9184810E-01
   7165.67  4.8655717E-01
   7166.00  4.8145303E-01
   7166.33  4.7659417E-01
   7166.67  4.7197697E-01
   7167.00  4.6761531E-01
   7167.33  4.6355157E-01
   7167.67  4.5975476E-01
   7168.00  4.5622096E-01
   7168.33  4.5297070E-01
   7168.67  4.4995621E-01
   7169.00  4.4716025E-01
   7169.33  4.4458299E-01
   7169.67  4.4217325E-01
   7170.00  4.3990817E-01
   7170.33  4.3777925E-01
   7170.67  4.3575530E-01
   7171.00  4.3383335E-01
   7171.33  4.3204799E-01
   7171.67  4.3044668E-01
   7172.00  4.2912303E-01
