    FDMNES
    energy     <xanes>
   7097.00  4.6835621E-03
   7097.33  4.7787183E-03
   7097.67  4.8775665E-03
   7098.00  4.9803282E-03
   7098.33  5.0878115E-03
   7098.67  5.1998057E-03
   7099.00  5.3166073E-03
   7099.33  5.4392480E-03
   7099.67  5.5675074E-03
   7100.00  5.7017945E-03
   7100.33  5.8434632E-03
   7100.67  5.9922979E-03
   7101.00  6.1488826E-03
   7101.33  6.3150554E-03
   7101.67  6.4906391E-03
   7102.00  6.6765049E-03
   7102.33  6.8752554E-03
   7102.67  7.0868303E-03
   7103.00  7.3125996E-03
   7103.33  7.5564511E-03
   7103.67  7.8186274E-03
   7104.00  8.1014301E-03
   7104.33  8.4110803E-03
   7104.67  8.7485910E-03
   7105.00  9.1181699E-03
   7105.33  9.5307063E-03
   7105.67  9.9892719E-03
   7106.00  1.0502452E-02
   7106.33  1.1091748E-02
   7106.67  1.1766320E-02
   7107.00  1.2546505E-02
   7107.33  1.3482468E-02
   7107.67  1.4604694E-02
   7108.00  1.5972756E-02
   7108.33  1.7736077E-02
   7108.67  2.0022551E-02
   7109.00  2.3073322E-02
   7109.33  2.7539715E-02
   7109.67  3.4223703E-02
   7110.00  4.4719244E-02
   7110.33  6.3689759E-02
   7110.67  9.5795102E-02
   7111.00  1.3828652E-01
   7111.33  1.5762395E-01
   7111.67  1.4707933E-01
   7112.00  1.3442144E-01
   7112.33  1.3088895E-01
   7112.67  1.2316671E-01
   7113.00  1.1212131E-01
   7113.33  1.0455388E-01
   7113.67  9.4337466E-02
   7114.00  7.7045832E-02
   7114.33  6.2883408E-02
   7114.67  5.4607058E-02
   7115.00  5.0389344E-02
   7115.33  4.8868371E-02
   7115.67  4.9028418E-02
   7116.00  5.0752639E-02
   7116.33  5.4497119E-02
   7116.67  6.0634704E-02
   7117.00  7.0050966E-02
   7117.33  8.4748504E-02
   7117.67  1.0449891E-01
   7118.00  1.2616660E-01
   7118.33  1.4649049E-01
   7118.67  1.7161179E-01
   7119.00  2.0444067E-01
   7119.33  2.3585020E-01
   7119.67  2.5629104E-01
   7120.00  2.7103984E-01
   7120.33  2.9153756E-01
   7120.67  3.1898503E-01
   7121.00  3.4994445E-01
   7121.33  3.7934140E-01
   7121.67  4.0373571E-01
   7122.00  4.2252019E-01
   7122.33  4.3827730E-01
   7122.67  4.5555621E-01
   7123.00  4.7559708E-01
   7123.33  4.9442121E-01
   7123.67  5.0521771E-01
   7124.00  5.0525477E-01
   7124.33  4.9728001E-01
   7124.67  4.8900910E-01
   7125.00  4.8577818E-01
   7125.33  4.9293361E-01
   7125.67  5.1052548E-01
   7126.00  5.3753656E-01
   7126.33  5.7234793E-01
   7126.67  6.1082580E-01
   7127.00  6.5038424E-01
   7127.33  6.9022978E-01
   7127.67  7.3217476E-01
   7128.00  7.7801628E-01
   7128.33  8.2725674E-01
   7128.67  8.7212910E-01
   7129.00  9.0121311E-01
   7129.33  9.0182349E-01
   7129.67  8.8080296E-01
   7130.00  8.4781744E-01
   7130.33  8.1241380E-01
   7130.67  7.8075646E-01
   7131.00  7.5567911E-01
   7131.33  7.4012247E-01
   7131.67  7.3375908E-01
   7132.00  7.3576898E-01
   7132.33  7.4272278E-01
   7132.67  7.4689747E-01
   7133.00  7.4196404E-01
   7133.33  7.2314877E-01
   7133.67  6.9490140E-01
   7134.00  6.6244716E-01
   7134.33  6.3103026E-01
   7134.67  6.0286288E-01
   7135.00  5.7826442E-01
   7135.33  5.5735326E-01
   7135.67  5.3941964E-01
   7136.00  5.2433693E-01
   7136.33  5.1246513E-01
   7136.67  5.0362245E-01
   7137.00  4.9806116E-01
   7137.33  4.9645132E-01
   7137.67  4.9824863E-01
   7138.00  5.0289722E-01
   7138.33  5.0935819E-01
   7138.67  5.1577840E-01
   7139.00  5.2072411E-01
   7139.33  5.2259119E-01
   7139.67  5.2118397E-01
   7140.00  5.1662491E-01
   7140.33  5.0919645E-01
   7140.67  5.0002609E-01
   7141.00  4.8979921E-01
   7141.33  4.7915044E-01
   7141.67  4.6865267E-01
   7142.00  4.5864241E-01
   7142.33  4.4950033E-01
   7142.67  4.4132225E-01
   7143.00  4.3420938E-01
   7143.33  4.2833354E-01
   7143.67  4.2348835E-01
   7144.00  4.1953483E-01
   7144.33  4.1632447E-01
   7144.67  4.1352058E-01
   7145.00  4.1093559E-01
   7145.33  4.0842696E-01
   7145.67  4.0591413E-01
   7146.00  4.0339716E-01
   7146.33  4.0094610E-01
   7146.67  3.9866560E-01
   7147.00  3.9667113E-01
   7147.33  3.9514416E-01
   7147.67  3.9412996E-01
   7148.00  3.9366958E-01
   7148.33  3.9381897E-01
   7148.67  3.9443487E-01
   7149.00  3.9540933E-01
   7149.33  3.9660836E-01
   7149.67  3.9783628E-01
   7150.00  3.9895762E-01
   7150.33  3.9981861E-01
   7150.67  4.0036796E-01
   7151.00  4.0056812E-01
   7151.33  4.0035309E-01
   7151.67  3.9976222E-01
   7152.00  3.9879114E-01
   7152.33  3.9738509E-01
   7152.67  3.9559522E-01
   7153.00  3.9344108E-01
   7153.33  3.9092654E-01
   7153.67  3.8816164E-01
   7154.00  3.8522378E-01
   7154.33  3.8220805E-01
   7154.67  3.7923887E-01
   7155.00  3.7641964E-01
   7155.33  3.7389798E-01
   7155.67  3.7174228E-01
   7156.00  3.7002744E-01
   7156.33  3.6888542E-01
   7156.67  3.6829887E-01
   7157.00  3.6829176E-01
   7157.33  3.6895180E-01
   7157.67  3.7020810E-01
   7158.00  3.7205944E-01
   7158.33  3.7457831E-01
   7158.67  3.7769095E-01
   7159.00  3.8139985E-01
   7159.33  3.8578497E-01
   7159.67  3.9077342E-01
   7160.00  3.9635686E-01
   7160.33  4.0257318E-01
   7160.67  4.0928786E-01
   7161.00  4.1641374E-01
   7161.33  4.2383630E-01
   7161.67  4.3132865E-01
   7162.00  4.3870158E-01
   7162.33  4.4568383E-01
   7162.67  4.5211181E-01
   7163.00  4.5785152E-01
   7163.33  4.6272743E-01
   7163.67  4.6684985E-01
   7164.00  4.7030200E-01
   7164.33  4.7317570E-01
   7164.67  4.7572307E-01
   7165.00  4.7810720E-01
   7165.33  4.8050014E-01
   7165.67  4.8303794E-01
   7166.00  4.8580631E-01
   7166.33  4.8890488E-01
   7166.67  4.9232287E-01
   7167.00  4.9605684E-01
   7167.33  5.0011408E-01
   7167.67  5.0440851E-01
   7168.00  5.0888372E-01
   7168.33  5.1347677E-01
   7168.67  5.1809234E-01
   7169.00  5.2265953E-01
   7169.33  5.2708569E-01
   7169.67  5.3131911E-01
   7170.00  5.3531109E-01
   7170.33  5.3897949E-01
   7170.67  5.4232233E-01
   7171.00  5.4531003E-01
   7171.33  5.4785852E-01
   7171.67  5.4997625E-01
   7172.00  5.5162898E-01
