    FDMNES
    energy     <xanes>
   7097.00  5.1242494E-03
   7097.33  5.2478919E-03
   7097.67  5.3771750E-03
   7098.00  5.5124753E-03
   7098.33  5.6550887E-03
   7098.67  5.8047392E-03
   7099.00  5.9619352E-03
   7099.33  6.1283588E-03
   7099.67  6.3037203E-03
   7100.00  6.4887216E-03
   7100.33  6.6855975E-03
   7100.67  6.8940628E-03
   7101.00  7.1151139E-03
   7101.33  7.3518000E-03
   7101.67  7.6038832E-03
   7102.00  7.8728233E-03
   7102.33  8.1629156E-03
   7102.67  8.4740620E-03
   7103.00  8.8084842E-03
   7103.33  9.1724689E-03
   7103.67  9.5662634E-03
   7104.00  9.9934084E-03
   7104.33  1.0463548E-02
   7104.67  1.0977749E-02
   7105.00  1.1541986E-02
   7105.33  1.2171963E-02
   7105.67  1.2870721E-02
   7106.00  1.3649122E-02
   7106.33  1.4534815E-02
   7106.67  1.5535946E-02
   7107.00  1.6674361E-02
   7107.33  1.8004351E-02
   7107.67  1.9548977E-02
   7108.00  2.1359251E-02
   7108.33  2.3561088E-02
   7108.67  2.6231585E-02
   7109.00  2.9523190E-02
   7109.33  3.3826266E-02
   7109.67  3.9504726E-02
   7110.00  4.7270000E-02
   7110.33  5.9095114E-02
   7110.67  7.6862543E-02
   7111.00  1.0090779E-01
   7111.33  1.2656711E-01
   7111.67  1.5611590E-01
   7112.00  1.9636085E-01
   7112.33  2.5672259E-01
   7112.67  3.3965715E-01
   7113.00  4.3836554E-01
   7113.33  5.4758966E-01
   7113.67  6.5483369E-01
   7114.00  7.2049744E-01
   7114.33  6.6248114E-01
   7114.67  5.3832011E-01
   7115.00  4.1906910E-01
   7115.33  3.3547575E-01
   7115.67  2.7873150E-01
   7116.00  2.4158853E-01
   7116.33  2.1995894E-01
   7116.67  2.0870688E-01
   7117.00  2.0510813E-01
   7117.33  2.0427985E-01
   7117.67  2.0005049E-01
   7118.00  1.9040194E-01
   7118.33  1.7677370E-01
   7118.67  1.6302551E-01
   7119.00  1.5107616E-01
   7119.33  1.4182265E-01
   7119.67  1.3458655E-01
   7120.00  1.2878569E-01
   7120.33  1.2395591E-01
   7120.67  1.1990086E-01
   7121.00  1.1698737E-01
   7121.33  1.1582723E-01
   7121.67  1.1620274E-01
   7122.00  1.1784815E-01
   7122.33  1.2042788E-01
   7122.67  1.2340624E-01
   7123.00  1.2655222E-01
   7123.33  1.2982719E-01
   7123.67  1.3339101E-01
   7124.00  1.3748147E-01
   7124.33  1.4244237E-01
   7124.67  1.4838021E-01
   7125.00  1.5546742E-01
   7125.33  1.6411122E-01
   7125.67  1.7442928E-01
   7126.00  1.8670799E-01
   7126.33  2.0152444E-01
   7126.67  2.1869247E-01
   7127.00  2.3806013E-01
   7127.33  2.5954112E-01
   7127.67  2.8264763E-01
   7128.00  3.0728456E-01
   7128.33  3.3349811E-01
   7128.67  3.6066932E-01
   7129.00  3.8824136E-01
   7129.33  4.1668490E-01
   7129.67  4.4849905E-01
   7130.00  4.8663617E-01
   7130.33  5.3431482E-01
   7130.67  5.9072619E-01
   7131.00  6.5513632E-01
   7131.33  7.2706539E-01
   7131.67  8.0363294E-01
   7132.00  8.8201311E-01
   7132.33  9.5728029E-01
   7132.67  1.0246623E+00
   7133.00  1.0802254E+00
   7133.33  1.1186072E+00
   7133.67  1.1394543E+00
   7134.00  1.1417322E+00
   7134.33  1.1233703E+00
   7134.67  1.0888310E+00
   7135.00  1.0413907E+00
   7135.33  9.8462546E-01
   7135.67  9.2395554E-01
   7136.00  8.6238069E-01
   7136.33  8.0254285E-01
   7136.67  7.4577580E-01
   7137.00  6.9290061E-01
   7137.33  6.4513327E-01
   7137.67  6.0240654E-01
   7138.00  5.6510004E-01
   7138.33  5.3430764E-01
   7138.67  5.0952434E-01
   7139.00  4.9074027E-01
   7139.33  4.7837619E-01
   7139.67  4.7116015E-01
   7140.00  4.6846098E-01
   7140.33  4.6992833E-01
   7140.67  4.7431348E-01
   7141.00  4.8103168E-01
   7141.33  4.8976306E-01
   7141.67  4.9987708E-01
   7142.00  5.1110194E-01
   7142.33  5.2326799E-01
   7142.67  5.3599870E-01
   7143.00  5.4904078E-01
   7143.33  5.6207019E-01
   7143.67  5.7474788E-01
   7144.00  5.8678393E-01
   7144.33  5.9774698E-01
   7144.67  6.0749123E-01
   7145.00  6.1583794E-01
   7145.33  6.2245127E-01
   7145.67  6.2744792E-01
   7146.00  6.3080789E-01
   7146.33  6.3235486E-01
   7146.67  6.3236488E-01
   7147.00  6.3093673E-01
   7147.33  6.2805691E-01
   7147.67  6.2406001E-01
   7148.00  6.1910658E-01
   7148.33  6.1329271E-01
   7148.67  6.0690834E-01
   7149.00  6.0011795E-01
   7149.33  5.9305918E-01
   7149.67  5.8590166E-01
   7150.00  5.7874765E-01
   7150.33  5.7171109E-01
   7150.67  5.6486549E-01
   7151.00  5.5827242E-01
   7151.33  5.5202877E-01
   7151.67  5.4615001E-01
   7152.00  5.4068529E-01
   7152.33  5.3575750E-01
   7152.67  5.3137844E-01
   7153.00  5.2761642E-01
   7153.33  5.2464549E-01
   7153.67  5.2246363E-01
   7154.00  5.2113675E-01
   7154.33  5.2083965E-01
   7154.67  5.2149304E-01
   7155.00  5.2310154E-01
   7155.33  5.2575267E-01
   7155.67  5.2926447E-01
   7156.00  5.3355091E-01
   7156.33  5.3856250E-01
   7156.67  5.4406326E-01
   7157.00  5.4990623E-01
   7157.33  5.5593323E-01
   7157.67  5.6194513E-01
   7158.00  5.6779393E-01
   7158.33  5.7327857E-01
   7158.67  5.7829564E-01
   7159.00  5.8273698E-01
   7159.33  5.8641138E-01
   7159.67  5.8932095E-01
   7160.00  5.9141362E-01
   7160.33  5.9254479E-01
   7160.67  5.9280674E-01
   7161.00  5.9220345E-01
   7161.33  5.9064983E-01
   7161.67  5.8828090E-01
   7162.00  5.8512837E-01
   7162.33  5.8115540E-01
   7162.67  5.7651691E-01
   7163.00  5.7126560E-01
   7163.33  5.6539171E-01
   7163.67  5.5902521E-01
   7164.00  5.5221718E-01
   7164.33  5.4497630E-01
   7164.67  5.3740544E-01
   7165.00  5.2955043E-01
   7165.33  5.2143332E-01
   7165.67  5.1313356E-01
   7166.00  5.0469602E-01
   7166.33  4.9616402E-01
   7166.67  4.8760393E-01
   7167.00  4.7906587E-01
   7167.33  4.7061860E-01
   7167.67  4.6231042E-01
   7168.00  4.5419141E-01
   7168.33  4.4634849E-01
   7168.67  4.3880406E-01
   7169.00  4.3160283E-01
   7169.33  4.2484367E-01
   7169.67  4.1851771E-01
   7170.00  4.1265116E-01
   7170.33  4.0732902E-01
   7170.67  4.0251252E-01
   7171.00  3.9822034E-01
   7171.33  3.9454877E-01
   7171.67  3.9147432E-01
   7172.00  3.8905162E-01
