    FDMNES
    energy     <xanes>
   7097.00  5.1273140E-03
   7097.33  5.2499635E-03
   7097.67  5.3781846E-03
   7098.00  5.5123490E-03
   7098.33  5.6537359E-03
   7098.67  5.8020721E-03
   7099.00  5.9578591E-03
   7099.33  6.1227574E-03
   7099.67  6.2964804E-03
   7100.00  6.4797211E-03
   7100.33  6.6746857E-03
   7100.67  6.8810930E-03
   7101.00  7.0999271E-03
   7101.33  7.3342000E-03
   7101.67  7.5836783E-03
   7102.00  7.8498059E-03
   7102.33  8.1368291E-03
   7102.67  8.4446559E-03
   7103.00  8.7754875E-03
   7103.33  9.1355477E-03
   7103.67  9.5250935E-03
   7104.00  9.9476412E-03
   7104.33  1.0412759E-02
   7104.67  1.0921533E-02
   7105.00  1.1479915E-02
   7105.33  1.2103534E-02
   7105.67  1.2795478E-02
   7106.00  1.3566617E-02
   7106.33  1.4444581E-02
   7106.67  1.5437651E-02
   7107.00  1.6567803E-02
   7107.33  1.7889588E-02
   7107.67  1.9426491E-02
   7108.00  2.1230104E-02
   7108.33  2.3427660E-02
   7108.67  2.6097645E-02
   7109.00  2.9394608E-02
   7109.33  3.3713564E-02
   7109.67  3.9421712E-02
   7110.00  4.7233691E-02
   7110.33  5.9117590E-02
   7110.67  7.6910891E-02
   7111.00  1.0115011E-01
   7111.33  1.3002077E-01
   7111.67  1.6549938E-01
   7112.00  2.1176175E-01
   7112.33  2.7523827E-01
   7112.67  3.5803141E-01
   7113.00  4.5323540E-01
   7113.33  5.3493609E-01
   7113.67  5.8669974E-01
   7114.00  6.0174503E-01
   7114.33  5.6960816E-01
   7114.67  4.9420693E-01
   7115.00  4.0061147E-01
   7115.33  3.2599787E-01
   7115.67  2.7586003E-01
   7116.00  2.4540193E-01
   7116.33  2.3010455E-01
   7116.67  2.2329638E-01
   7117.00  2.2060155E-01
   7117.33  2.1637190E-01
   7117.67  2.0726486E-01
   7118.00  1.9393675E-01
   7118.33  1.7994717E-01
   7118.67  1.6806330E-01
   7119.00  1.5877688E-01
   7119.33  1.5184744E-01
   7119.67  1.4614399E-01
   7120.00  1.4091254E-01
   7120.33  1.3572954E-01
   7120.67  1.3094273E-01
   7121.00  1.2726303E-01
   7121.33  1.2548380E-01
   7121.67  1.2534934E-01
   7122.00  1.2661873E-01
   7122.33  1.2912200E-01
   7122.67  1.3236568E-01
   7123.00  1.3615707E-01
   7123.33  1.4058266E-01
   7123.67  1.4575706E-01
   7124.00  1.5187403E-01
   7124.33  1.5930984E-01
   7124.67  1.6823395E-01
   7125.00  1.7902710E-01
   7125.33  1.9243218E-01
   7125.67  2.0840461E-01
   7126.00  2.2683866E-01
   7126.33  2.4737820E-01
   7126.67  2.6863710E-01
   7127.00  2.8937006E-01
   7127.33  3.0908510E-01
   7127.67  3.2955546E-01
   7128.00  3.5240157E-01
   7128.33  3.7831039E-01
   7128.67  4.0595285E-01
   7129.00  4.3443663E-01
   7129.33  4.6402736E-01
   7129.67  4.9648127E-01
   7130.00  5.3392435E-01
   7130.33  5.7846215E-01
   7130.67  6.2868422E-01
   7131.00  6.8310886E-01
   7131.33  7.4047600E-01
   7131.67  7.9938620E-01
   7132.00  8.5879268E-01
   7132.33  9.1639208E-01
   7132.67  9.6935241E-01
   7133.00  1.0148137E+00
   7133.33  1.0482974E+00
   7133.67  1.0682473E+00
   7134.00  1.0725393E+00
   7134.33  1.0578514E+00
   7134.67  1.0274214E+00
   7135.00  9.8411764E-01
   7135.33  9.3135501E-01
   7135.67  8.7452769E-01
   7136.00  8.1664684E-01
   7136.33  7.6041637E-01
   7136.67  7.0725550E-01
   7137.00  6.5800684E-01
   7137.33  6.1384302E-01
   7137.67  5.7460089E-01
   7138.00  5.4054947E-01
   7138.33  5.1260937E-01
   7138.67  4.9021971E-01
   7139.00  4.7331664E-01
   7139.33  4.6218811E-01
   7139.67  4.5550860E-01
   7140.00  4.5248430E-01
   7140.33  4.5245167E-01
   7140.67  4.5421008E-01
   7141.00  4.5722312E-01
   7141.33  4.6123555E-01
   7141.67  4.6597719E-01
   7142.00  4.7139928E-01
   7142.33  4.7755181E-01
   7142.67  4.8430108E-01
   7143.00  4.9156468E-01
   7143.33  4.9924234E-01
   7143.67  5.0709159E-01
   7144.00  5.1491413E-01
   7144.33  5.2243169E-01
   7144.67  5.2944654E-01
   7145.00  5.3579257E-01
   7145.33  5.4123760E-01
   7145.67  5.4582931E-01
   7146.00  5.4958696E-01
   7146.33  5.5250313E-01
   7146.67  5.5480390E-01
   7147.00  5.5661946E-01
   7147.33  5.5805470E-01
   7147.67  5.5927388E-01
   7148.00  5.6035405E-01
   7148.33  5.6134639E-01
   7148.67  5.6228838E-01
   7149.00  5.6317013E-01
   7149.33  5.6394101E-01
   7149.67  5.6457198E-01
   7150.00  5.6503505E-01
   7150.33  5.6529214E-01
   7150.67  5.6538378E-01
   7151.00  5.6535558E-01
   7151.33  5.6528785E-01
   7151.67  5.6529476E-01
   7152.00  5.6547921E-01
   7152.33  5.6599275E-01
   7152.67  5.6689513E-01
   7153.00  5.6824675E-01
   7153.33  5.7014854E-01
   7153.67  5.7254415E-01
   7154.00  5.7541027E-01
   7154.33  5.7874254E-01
   7154.67  5.8240588E-01
   7155.00  5.8631103E-01
   7155.33  5.9035423E-01
   7155.67  5.9439036E-01
   7156.00  5.9830439E-01
   7156.33  6.0193719E-01
   7156.67  6.0520920E-01
   7157.00  6.0804451E-01
   7157.33  6.1031794E-01
   7157.67  6.1205671E-01
   7158.00  6.1325026E-01
   7158.33  6.1383698E-01
   7158.67  6.1390325E-01
   7159.00  6.1347058E-01
   7159.33  6.1250573E-01
   7159.67  6.1109113E-01
   7160.00  6.0924307E-01
   7160.33  6.0692165E-01
   7160.67  6.0418336E-01
   7161.00  6.0102819E-01
   7161.33  5.9740342E-01
   7161.67  5.9336123E-01
   7162.00  5.8890320E-01
   7162.33  5.8398074E-01
   7162.67  5.7865528E-01
   7163.00  5.7294476E-01
   7163.33  5.6683478E-01
   7163.67  5.6040871E-01
   7164.00  5.5370612E-01
   7164.33  5.4674922E-01
   7164.67  5.3962012E-01
   7165.00  5.3236474E-01
   7165.33  5.2502331E-01
   7165.67  5.1765159E-01
   7166.00  5.1028601E-01
   7166.33  5.0297156E-01
   7166.67  4.9574060E-01
   7167.00  4.8862461E-01
   7167.33  4.8167643E-01
   7167.67  4.7491051E-01
   7168.00  4.6835437E-01
   7168.33  4.6206742E-01
   7168.67  4.5604894E-01
   7169.00  4.5032424E-01
   7169.33  4.4495551E-01
   7169.67  4.3991651E-01
   7170.00  4.3521504E-01
   7170.33  4.3090168E-01
   7170.67  4.2694139E-01
   7171.00  4.2334528E-01
   7171.33  4.2018891E-01
   7171.67  4.1748376E-01
   7172.00  4.1531450E-01
