    FDMNES
    energy     <xanes>
   7097.00  4.0933409E-03
   7097.33  4.1772608E-03
   7097.67  4.2646030E-03
   7098.00  4.3555919E-03
   7098.33  4.4510097E-03
   7098.67  4.5506882E-03
   7099.00  4.6549364E-03
   7099.33  4.7647786E-03
   7099.67  4.8800481E-03
   7100.00  5.0011837E-03
   7100.33  5.1295689E-03
   7100.67  5.2650602E-03
   7101.00  5.4083036E-03
   7101.33  5.5612391E-03
   7101.67  5.7237931E-03
   7102.00  5.8969598E-03
   7102.33  6.0835845E-03
   7102.67  6.2837701E-03
   7103.00  6.4991290E-03
   7103.33  6.7340702E-03
   7103.67  6.9891217E-03
   7104.00  7.2670728E-03
   7104.33  7.5752390E-03
   7104.67  7.9151925E-03
   7105.00  8.2921629E-03
   7105.33  8.7193914E-03
   7105.67  9.2011815E-03
   7106.00  9.7484143E-03
   7106.33  1.0387953E-02
   7106.67  1.1132060E-02
   7107.00  1.2006791E-02
   7107.33  1.3075882E-02
   7107.67  1.4379021E-02
   7108.00  1.5992460E-02
   7108.33  1.8106377E-02
   7108.67  2.0883062E-02
   7109.00  2.4626265E-02
   7109.33  3.0150607E-02
   7109.67  3.8442460E-02
   7110.00  5.1447843E-02
   7110.33  7.4789546E-02
   7110.67  1.1386327E-01
   7111.00  1.6626488E-01
   7111.33  2.0713374E-01
   7111.67  2.2569167E-01
   7112.00  2.1877256E-01
   7112.33  1.8619523E-01
   7112.67  1.5118124E-01
   7113.00  1.2039670E-01
   7113.33  9.5879127E-02
   7113.67  7.7975868E-02
   7114.00  6.6114772E-02
   7114.33  5.9472729E-02
   7114.67  5.5118091E-02
   7115.00  5.0296304E-02
   7115.33  4.5324418E-02
   7115.67  4.2147851E-02
   7116.00  4.0700208E-02
   7116.33  4.0399075E-02
   7116.67  4.0657641E-02
   7117.00  4.1411203E-02
   7117.33  4.2813059E-02
   7117.67  4.4809448E-02
   7118.00  4.7365622E-02
   7118.33  5.0548561E-02
   7118.67  5.4297478E-02
   7119.00  5.8490938E-02
   7119.33  6.2712396E-02
   7119.67  6.6355275E-02
   7120.00  6.9045039E-02
   7120.33  7.0760691E-02
   7120.67  7.2174617E-02
   7121.00  7.3837438E-02
   7121.33  7.6329114E-02
   7121.67  7.9859199E-02
   7122.00  8.4587984E-02
   7122.33  9.0874147E-02
   7122.67  9.8885338E-02
   7123.00  1.0908656E-01
   7123.33  1.2251942E-01
   7123.67  1.3959055E-01
   7124.00  1.6093619E-01
   7124.33  1.8758716E-01
   7124.67  2.1875174E-01
   7125.00  2.5385097E-01
   7125.33  2.9195474E-01
   7125.67  3.2893936E-01
   7126.00  3.5853174E-01
   7126.33  3.7232788E-01
   7126.67  3.7589062E-01
   7127.00  3.8099940E-01
   7127.33  3.9957317E-01
   7127.67  4.3187402E-01
   7128.00  4.7592333E-01
   7128.33  5.2981512E-01
   7128.67  5.8864805E-01
   7129.00  6.4861152E-01
   7129.33  7.0515371E-01
   7129.67  7.5540669E-01
   7130.00  7.9791844E-01
   7130.33  8.3333638E-01
   7130.67  8.6673226E-01
   7131.00  8.9923241E-01
   7131.33  9.2365714E-01
   7131.67  9.3259036E-01
   7132.00  9.2450388E-01
   7132.33  9.0326438E-01
   7132.67  8.7772958E-01
   7133.00  8.5272944E-01
   7133.33  8.3235668E-01
   7133.67  8.1842492E-01
   7134.00  8.1245602E-01
   7134.33  8.1717592E-01
   7134.67  8.3187891E-01
   7135.00  8.5444386E-01
   7135.33  8.8013410E-01
   7135.67  9.0411817E-01
   7136.00  9.2398720E-01
   7136.33  9.3665418E-01
   7136.67  9.4066484E-01
   7137.00  9.3458138E-01
   7137.33  9.1697737E-01
   7137.67  8.9102272E-01
   7138.00  8.5951092E-01
   7138.33  8.2564431E-01
   7138.67  7.9238155E-01
   7139.00  7.6111597E-01
   7139.33  7.3288609E-01
   7139.67  7.0742853E-01
   7140.00  6.8457635E-01
   7140.33  6.6436866E-01
   7140.67  6.4629318E-01
   7141.00  6.3021144E-01
   7141.33  6.1623447E-01
   7141.67  6.0403289E-01
   7142.00  5.9352667E-01
   7142.33  5.8476453E-01
   7142.67  5.7736590E-01
   7143.00  5.7115832E-01
   7143.33  5.6606310E-01
   7143.67  5.6177185E-01
   7144.00  5.5815554E-01
   7144.33  5.5518089E-01
   7144.67  5.5272324E-01
   7145.00  5.5077160E-01
   7145.33  5.4940450E-01
   7145.67  5.4858262E-01
   7146.00  5.4832553E-01
   7146.33  5.4871359E-01
   7146.67  5.4966143E-01
   7147.00  5.5113723E-01
   7147.33  5.5313989E-01
   7147.67  5.5552956E-01
   7148.00  5.5822111E-01
   7148.33  5.6112233E-01
   7148.67  5.6407344E-01
   7149.00  5.6693287E-01
   7149.33  5.6946985E-01
   7149.67  5.7150955E-01
   7150.00  5.7285910E-01
   7150.33  5.7315562E-01
   7150.67  5.7225719E-01
   7151.00  5.6994789E-01
   7151.33  5.6581095E-01
   7151.67  5.5991079E-01
   7152.00  5.5220835E-01
   7152.33  5.4253533E-01
   7152.67  5.3125937E-01
   7153.00  5.1857598E-01
   7153.33  5.0462616E-01
   7153.67  4.8986091E-01
   7154.00  4.7455495E-01
   7154.33  4.5899687E-01
   7154.67  4.4351145E-01
   7155.00  4.2832414E-01
   7155.33  4.1371081E-01
   7155.67  3.9975535E-01
   7156.00  3.8653224E-01
   7156.33  3.7416779E-01
   7156.67  3.6254983E-01
   7157.00  3.5163792E-01
   7157.33  3.4144930E-01
   7157.67  3.3183919E-01
   7158.00  3.2276276E-01
   7158.33  3.1425174E-01
   7158.67  3.0623926E-01
   7159.00  2.9874491E-01
   7159.33  2.9188702E-01
   7159.67  2.8566352E-01
   7160.00  2.8014291E-01
   7160.33  2.7550265E-01
   7160.67  2.7171475E-01
   7161.00  2.6882589E-01
   7161.33  2.6698684E-01
   7161.67  2.6608757E-01
   7162.00  2.6611122E-01
   7162.33  2.6712865E-01
   7162.67  2.6896911E-01
   7163.00  2.7156992E-01
   7163.33  2.7493112E-01
   7163.67  2.7887304E-01
   7164.00  2.8330408E-01
   7164.33  2.8815622E-01
   7164.67  2.9326556E-01
   7165.00  2.9853480E-01
   7165.33  3.0386868E-01
   7165.67  3.0917593E-01
   7166.00  3.1440335E-01
   7166.33  3.1949732E-01
   7166.67  3.2445656E-01
   7167.00  3.2928353E-01
   7167.33  3.3397983E-01
   7167.67  3.3858188E-01
   7168.00  3.4310911E-01
   7168.33  3.4757529E-01
   7168.67  3.5200205E-01
   7169.00  3.5639588E-01
   7169.33  3.6075261E-01
   7169.67  3.6506826E-01
   7170.00  3.6932933E-01
   7170.33  3.7350190E-01
   7170.67  3.7755946E-01
   7171.00  3.8145567E-01
   7171.33  3.8507286E-01
   7171.67  3.8828881E-01
   7172.00  3.9090709E-01
