    FDMNES
    energy     <xanes>
   7097.00  4.8538152E-03
   7097.33  4.9614947E-03
   7097.67  5.0737328E-03
   7098.00  5.1908160E-03
   7098.33  5.3137617E-03
   7098.67  5.4423229E-03
   7099.00  5.5768811E-03
   7099.33  5.7187378E-03
   7099.67  5.8676286E-03
   7100.00  6.0240726E-03
   7100.33  6.1897717E-03
   7100.67  6.3644546E-03
   7101.00  6.5488466E-03
   7101.33  6.7452304E-03
   7101.67  6.9533529E-03
   7102.00  7.1742593E-03
   7102.33  7.4111054E-03
   7102.67  7.6637129E-03
   7103.00  7.9336439E-03
   7103.33  8.2254236E-03
   7103.67  8.5390749E-03
   7104.00  8.8770386E-03
   7104.33  9.2461022E-03
   7104.67  9.6467799E-03
   7105.00  1.0083102E-02
   7105.33  1.0565847E-02
   7105.67  1.1096723E-02
   7106.00  1.1682876E-02
   7106.33  1.2342755E-02
   7106.67  1.3081120E-02
   7107.00  1.3911928E-02
   7107.33  1.4870181E-02
   7107.67  1.5969335E-02
   7108.00  1.7240692E-02
   7108.33  1.8761640E-02
   7108.67  2.0575413E-02
   7109.00  2.2769315E-02
   7109.33  2.5563521E-02
   7109.67  2.9141739E-02
   7110.00  3.3859640E-02
   7110.33  4.0689521E-02
   7110.67  5.0731658E-02
   7111.00  6.5588541E-02
   7111.33  8.7756802E-02
   7111.67  1.1602312E-01
   7112.00  1.4662782E-01
   7112.33  1.7873087E-01
   7112.67  2.1414044E-01
   7113.00  2.5711488E-01
   7113.33  3.0587246E-01
   7113.67  3.4048578E-01
   7114.00  3.5747227E-01
   7114.33  3.7875757E-01
   7114.67  4.0915703E-01
   7115.00  4.3352101E-01
   7115.33  4.3729355E-01
   7115.67  4.1741383E-01
   7116.00  3.7712326E-01
   7116.33  3.3370216E-01
   7116.67  3.0059869E-01
   7117.00  2.8009466E-01
   7117.33  2.7042013E-01
   7117.67  2.6361625E-01
   7118.00  2.5233386E-01
   7118.33  2.3076666E-01
   7118.67  2.0366881E-01
   7119.00  1.7717498E-01
   7119.33  1.5634253E-01
   7119.67  1.4127338E-01
   7120.00  1.3109606E-01
   7120.33  1.2479476E-01
   7120.67  1.2067547E-01
   7121.00  1.1800972E-01
   7121.33  1.1643214E-01
   7121.67  1.1563609E-01
   7122.00  1.1576905E-01
   7122.33  1.1755803E-01
   7122.67  1.2138546E-01
   7123.00  1.2729930E-01
   7123.33  1.3463067E-01
   7123.67  1.4182228E-01
   7124.00  1.4833970E-01
   7124.33  1.5543577E-01
   7124.67  1.6524611E-01
   7125.00  1.7912141E-01
   7125.33  1.9791718E-01
   7125.67  2.2048085E-01
   7126.00  2.4589079E-01
   7126.33  2.7276521E-01
   7126.67  2.9906137E-01
   7127.00  3.2351142E-01
   7127.33  3.4560255E-01
   7127.67  3.6645263E-01
   7128.00  3.8692554E-01
   7128.33  4.0761711E-01
   7128.67  4.2857918E-01
   7129.00  4.4959210E-01
   7129.33  4.7036747E-01
   7129.67  4.9097732E-01
   7130.00  5.1172262E-01
   7130.33  5.3316278E-01
   7130.67  5.5556128E-01
   7131.00  5.7898051E-01
   7131.33  6.0338416E-01
   7131.67  6.2834882E-01
   7132.00  6.5348351E-01
   7132.33  6.7809439E-01
   7132.67  7.0145078E-01
   7133.00  7.2299460E-01
   7133.33  7.4241380E-01
   7133.67  7.6049934E-01
   7134.00  7.7772966E-01
   7134.33  7.9387137E-01
   7134.67  8.0823581E-01
   7135.00  8.2006448E-01
   7135.33  8.2854431E-01
   7135.67  8.3407259E-01
   7136.00  8.3675812E-01
   7136.33  8.3612895E-01
   7136.67  8.3211238E-01
   7137.00  8.2419453E-01
   7137.33  8.1141879E-01
   7137.67  7.9445161E-01
   7138.00  7.7396717E-01
   7138.33  7.5103668E-01
   7138.67  7.2755757E-01
   7139.00  7.0485831E-01
   7139.33  6.8440802E-01
   7139.67  6.6672879E-01
   7140.00  6.5214135E-01
   7140.33  6.4110149E-01
   7140.67  6.3307865E-01
   7141.00  6.2788545E-01
   7141.33  6.2559316E-01
   7141.67  6.2561025E-01
   7142.00  6.2768568E-01
   7142.33  6.3168650E-01
   7142.67  6.3694597E-01
   7143.00  6.4295224E-01
   7143.33  6.4893105E-01
   7143.67  6.5393992E-01
   7144.00  6.5708997E-01
   7144.33  6.5704615E-01
   7144.67  6.5344020E-01
   7145.00  6.4601181E-01
   7145.33  6.3455106E-01
   7145.67  6.2027536E-01
   7146.00  6.0411721E-01
   7146.33  5.8714958E-01
   7146.67  5.7047460E-01
   7147.00  5.5470122E-01
   7147.33  5.4038291E-01
   7147.67  5.2751924E-01
   7148.00  5.1613291E-01
   7148.33  5.0634359E-01
   7148.67  4.9786742E-01
   7149.00  4.9059744E-01
   7149.33  4.8454532E-01
   7149.67  4.7946638E-01
   7150.00  4.7528198E-01
   7150.33  4.7202057E-01
   7150.67  4.6952155E-01
   7151.00  4.6774608E-01
   7151.33  4.6674527E-01
   7151.67  4.6640664E-01
   7152.00  4.6671041E-01
   7152.33  4.6770818E-01
   7152.67  4.6929943E-01
   7153.00  4.7146629E-01
   7153.33  4.7425603E-01
   7153.67  4.7757505E-01
   7154.00  4.8139986E-01
   7154.33  4.8575723E-01
   7154.67  4.9054477E-01
   7155.00  4.9571513E-01
   7155.33  5.0124251E-01
   7155.67  5.0701006E-01
   7156.00  5.1294104E-01
   7156.33  5.1894137E-01
   7156.67  5.2488952E-01
   7157.00  5.3068049E-01
   7157.33  5.3615357E-01
   7157.67  5.4122298E-01
   7158.00  5.4579523E-01
   7158.33  5.4970921E-01
   7158.67  5.5297941E-01
   7159.00  5.5558148E-01
   7159.33  5.5743334E-01
   7159.67  5.5864669E-01
   7160.00  5.5926198E-01
   7160.33  5.5927088E-01
   7160.67  5.5880579E-01
   7161.00  5.5792271E-01
   7161.33  5.5663950E-01
   7161.67  5.5505831E-01
   7162.00  5.5322247E-01
   7162.33  5.5115007E-01
   7162.67  5.4890685E-01
   7163.00  5.4652162E-01
   7163.33  5.4400867E-01
   7163.67  5.4140619E-01
   7164.00  5.3872827E-01
   7164.33  5.3596831E-01
   7164.67  5.3313682E-01
   7165.00  5.3024002E-01
   7165.33  5.2727592E-01
   7165.67  5.2425377E-01
   7166.00  5.2117292E-01
   7166.33  5.1802465E-01
   7166.67  5.1481682E-01
   7167.00  5.1155120E-01
   7167.33  5.0822503E-01
   7167.67  5.0485241E-01
   7168.00  5.0144217E-01
   7168.33  4.9800266E-01
   7168.67  4.9455090E-01
   7169.00  4.9110336E-01
   7169.33  4.8769051E-01
   7169.67  4.8433392E-01
   7170.00  4.8105313E-01
   7170.33  4.7788653E-01
   7170.67  4.7485347E-01
   7171.00  4.7198946E-01
   7171.33  4.6938199E-01
   7171.67  4.6709817E-01
   7172.00  4.6525471E-01
