    FDMNES
    energy     <xanes>
   7097.00  5.0544307E-03
   7097.33  5.1651418E-03
   7097.67  5.2804422E-03
   7098.00  5.4006152E-03
   7098.33  5.5266762E-03
   7098.67  5.6583703E-03
   7099.00  5.7960731E-03
   7099.33  5.9410796E-03
   7099.67  6.0931161E-03
   7100.00  6.2526935E-03
   7100.33  6.4214990E-03
   7100.67  6.5992515E-03
   7101.00  6.7866634E-03
   7101.33  6.9859922E-03
   7101.67  7.1969740E-03
   7102.00  7.4206355E-03
   7102.33  7.6600922E-03
   7102.67  7.9151554E-03
   7103.00  8.1873622E-03
   7103.33  8.4811798E-03
   7103.67  8.7966251E-03
   7104.00  9.1361103E-03
   7104.33  9.5063547E-03
   7104.67  9.9078858E-03
   7105.00  1.0344723E-02
   7105.33  1.0827616E-02
   7105.67  1.1358364E-02
   7106.00  1.1944219E-02
   7106.33  1.2603868E-02
   7106.67  1.3342507E-02
   7107.00  1.4174748E-02
   7107.33  1.5137236E-02
   7107.67  1.6245529E-02
   7108.00  1.7534528E-02
   7108.33  1.9091249E-02
   7108.67  2.0971695E-02
   7109.00  2.3287300E-02
   7109.33  2.6329831E-02
   7109.67  3.0397813E-02
   7110.00  3.6082954E-02
   7110.33  4.5022082E-02
   7110.67  5.8289340E-02
   7111.00  7.3633970E-02
   7111.33  8.5166275E-02
   7111.67  1.0042672E-01
   7112.00  1.2499684E-01
   7112.33  1.6269900E-01
   7112.67  2.1072484E-01
   7113.00  2.5240433E-01
   7113.33  2.8822608E-01
   7113.67  3.3933079E-01
   7114.00  3.7889360E-01
   7114.33  3.7949488E-01
   7114.67  3.8711434E-01
   7115.00  4.0238096E-01
   7115.33  3.8043954E-01
   7115.67  3.3177938E-01
   7116.00  2.8799700E-01
   7116.33  2.6504363E-01
   7116.67  2.5695018E-01
   7117.00  2.5682354E-01
   7117.33  2.5095641E-01
   7117.67  2.3111435E-01
   7118.00  2.0463565E-01
   7118.33  1.8408201E-01
   7118.67  1.7246055E-01
   7119.00  1.6865666E-01
   7119.33  1.7055132E-01
   7119.67  1.7397793E-01
   7120.00  1.7602374E-01
   7120.33  1.7498226E-01
   7120.67  1.7240483E-01
   7121.00  1.7003406E-01
   7121.33  1.6961752E-01
   7121.67  1.7189117E-01
   7122.00  1.7743737E-01
   7122.33  1.8712528E-01
   7122.67  2.0055106E-01
   7123.00  2.1743799E-01
   7123.33  2.3731539E-01
   7123.67  2.5839112E-01
   7124.00  2.7890507E-01
   7124.33  2.9641375E-01
   7124.67  3.1003993E-01
   7125.00  3.1992593E-01
   7125.33  3.2718433E-01
   7125.67  3.3439203E-01
   7126.00  3.4381182E-01
   7126.33  3.5852389E-01
   7126.67  3.7975983E-01
   7127.00  4.0813851E-01
   7127.33  4.4372167E-01
   7127.67  4.8351454E-01
   7128.00  5.2512392E-01
   7128.33  5.6625108E-01
   7128.67  6.0584056E-01
   7129.00  6.4364415E-01
   7129.33  6.7935397E-01
   7129.67  7.1279359E-01
   7130.00  7.4320818E-01
   7130.33  7.6906139E-01
   7130.67  7.9014517E-01
   7131.00  8.0636314E-01
   7131.33  8.1791674E-01
   7131.67  8.2674046E-01
   7132.00  8.3409795E-01
   7132.33  8.4110106E-01
   7132.67  8.4838297E-01
   7133.00  8.5593113E-01
   7133.33  8.6310018E-01
   7133.67  8.6880168E-01
   7134.00  8.7179775E-01
   7134.33  8.7008775E-01
   7134.67  8.6299916E-01
   7135.00  8.4995835E-01
   7135.33  8.3025335E-01
   7135.67  8.0532103E-01
   7136.00  7.7613352E-01
   7136.33  7.4370237E-01
   7136.67  7.0975162E-01
   7137.00  6.7523926E-01
   7137.33  6.4119502E-01
   7137.67  6.0855213E-01
   7138.00  5.7814087E-01
   7138.33  5.5120326E-01
   7138.67  5.2798821E-01
   7139.00  5.0880381E-01
   7139.33  4.9422716E-01
   7139.67  4.8354336E-01
   7140.00  4.7643125E-01
   7140.33  4.7281556E-01
   7140.67  4.7181345E-01
   7141.00  4.7300841E-01
   7141.33  4.7615702E-01
   7141.67  4.8061470E-01
   7142.00  4.8604314E-01
   7142.33  4.9215971E-01
   7142.67  4.9856936E-01
   7143.00  5.0503325E-01
   7143.33  5.1129121E-01
   7143.67  5.1717089E-01
   7144.00  5.2253608E-01
   7144.33  5.2718249E-01
   7144.67  5.3109848E-01
   7145.00  5.3422308E-01
   7145.33  5.3639171E-01
   7145.67  5.3769074E-01
   7146.00  5.3813897E-01
   7146.33  5.3769153E-01
   7146.67  5.3653756E-01
   7147.00  5.3478093E-01
   7147.33  5.3251248E-01
   7147.67  5.2995881E-01
   7148.00  5.2727659E-01
   7148.33  5.2465656E-01
   7148.67  5.2226827E-01
   7149.00  5.2025412E-01
   7149.33  5.1883188E-01
   7149.67  5.1806681E-01
   7150.00  5.1804763E-01
   7150.33  5.1894179E-01
   7150.67  5.2066563E-01
   7151.00  5.2319378E-01
   7151.33  5.2654516E-01
   7151.67  5.3051992E-01
   7152.00  5.3500348E-01
   7152.33  5.3989063E-01
   7152.67  5.4499758E-01
   7153.00  5.5021866E-01
   7153.33  5.5542876E-01
   7153.67  5.6050338E-01
   7154.00  5.6533558E-01
   7154.33  5.6976008E-01
   7154.67  5.7371242E-01
   7155.00  5.7711183E-01
   7155.33  5.7980786E-01
   7155.67  5.8183413E-01
   7156.00  5.8317549E-01
   7156.33  5.8375488E-01
   7156.67  5.8368768E-01
   7157.00  5.8301481E-01
   7157.33  5.8172822E-01
   7157.67  5.7996533E-01
   7158.00  5.7778988E-01
   7158.33  5.7523632E-01
   7158.67  5.7242271E-01
   7159.00  5.6941231E-01
   7159.33  5.6625963E-01
   7159.67  5.6304645E-01
   7160.00  5.5982540E-01
   7160.33  5.5665806E-01
   7160.67  5.5358651E-01
   7161.00  5.5064540E-01
   7161.33  5.4788831E-01
   7161.67  5.4531983E-01
   7162.00  5.4295506E-01
   7162.33  5.4083188E-01
   7162.67  5.3892689E-01
   7163.00  5.3723683E-01
   7163.33  5.3577739E-01
   7163.67  5.3450690E-01
   7164.00  5.3340666E-01
   7164.33  5.3246813E-01
   7164.67  5.3164279E-01
   7165.00  5.3090048E-01
   7165.33  5.3021201E-01
   7165.67  5.2954200E-01
   7166.00  5.2886302E-01
   7166.33  5.2813391E-01
   7166.67  5.2732437E-01
   7167.00  5.2640426E-01
   7167.33  5.2532218E-01
   7167.67  5.2406528E-01
   7168.00  5.2260935E-01
   7168.33  5.2090034E-01
   7168.67  5.1894379E-01
   7169.00  5.1672490E-01
   7169.33  5.1419969E-01
   7169.67  5.1140258E-01
   7170.00  5.0834453E-01
   7170.33  5.0502462E-01
   7170.67  5.0152350E-01
   7171.00  4.9791356E-01
   7171.33  4.9433687E-01
   7171.67  4.9102560E-01
   7172.00  4.8827033E-01
