    FDMNES
    energy     <xanes>
   7097.00  4.3164306E-03
   7097.33  4.4015960E-03
   7097.67  4.4899862E-03
   7098.00  4.5817942E-03
   7098.33  4.6777257E-03
   7098.67  4.7775969E-03
   7099.00  4.8816675E-03
   7099.33  4.9908402E-03
   7099.67  5.1049244E-03
   7100.00  5.2242800E-03
   7100.33  5.3500956E-03
   7100.67  5.4821876E-03
   7101.00  5.6210734E-03
   7101.33  5.7683735E-03
   7101.67  5.9239432E-03
   7102.00  6.0885594E-03
   7102.33  6.2645300E-03
   7102.67  6.4518219E-03
   7103.00  6.6516653E-03
   7103.33  6.8675310E-03
   7103.67  7.0996693E-03
   7104.00  7.3501602E-03
   7104.33  7.6245953E-03
   7104.67  7.9239382E-03
   7105.00  8.2520090E-03
   7105.33  8.6186530E-03
   7105.67  9.0267189E-03
   7106.00  9.4840167E-03
   7106.33  1.0010043E-02
   7106.67  1.0613167E-02
   7107.00  1.1311833E-02
   7107.33  1.2151433E-02
   7107.67  1.3159416E-02
   7108.00  1.4389312E-02
   7108.33  1.5975019E-02
   7108.67  1.8029782E-02
   7109.00  2.0766814E-02
   7109.33  2.4759681E-02
   7109.67  3.0705665E-02
   7110.00  3.9984423E-02
   7110.33  5.6562526E-02
   7110.67  8.3888839E-02
   7111.00  1.1844455E-01
   7111.33  1.3991149E-01
   7111.67  1.5010775E-01
   7112.00  1.6024069E-01
   7112.33  1.5480455E-01
   7112.67  1.2957175E-01
   7113.00  1.0273822E-01
   7113.33  8.1598344E-02
   7113.67  6.6172907E-02
   7114.00  5.6254872E-02
   7114.33  5.0773066E-02
   7114.67  4.6895406E-02
   7115.00  4.3750316E-02
   7115.33  4.1831468E-02
   7115.67  4.1070079E-02
   7116.00  4.1354789E-02
   7116.33  4.2722523E-02
   7116.67  4.5017421E-02
   7117.00  4.8232501E-02
   7117.33  5.2491163E-02
   7117.67  5.7709034E-02
   7118.00  6.3964983E-02
   7118.33  7.1599390E-02
   7118.67  8.0659849E-02
   7119.00  9.1138964E-02
   7119.33  1.0269170E-01
   7119.67  1.1427825E-01
   7120.00  1.2515336E-01
   7120.33  1.3509254E-01
   7120.67  1.4511513E-01
   7121.00  1.5655879E-01
   7121.33  1.7150342E-01
   7121.67  1.9097831E-01
   7122.00  2.1569378E-01
   7122.33  2.4627786E-01
   7122.67  2.8128993E-01
   7123.00  3.1979860E-01
   7123.33  3.6080486E-01
   7123.67  4.0246345E-01
   7124.00  4.4334551E-01
   7124.33  4.8140636E-01
   7124.67  5.1452840E-01
   7125.00  5.3968408E-01
   7125.33  5.5206833E-01
   7125.67  5.5323953E-01
   7126.00  5.4817028E-01
   7126.33  5.4676023E-01
   7126.67  5.5605931E-01
   7127.00  5.7622964E-01
   7127.33  6.0144900E-01
   7127.67  6.2531345E-01
   7128.00  6.4659162E-01
   7128.33  6.6613316E-01
   7128.67  6.8582622E-01
   7129.00  7.0703754E-01
   7129.33  7.3134689E-01
   7129.67  7.5896563E-01
   7130.00  7.8940470E-01
   7130.33  8.2060481E-01
   7130.67  8.4870400E-01
   7131.00  8.6977712E-01
   7131.33  8.7859699E-01
   7131.67  8.7514519E-01
   7132.00  8.6084367E-01
   7132.33  8.3845898E-01
   7132.67  8.1265288E-01
   7133.00  7.8564603E-01
   7133.33  7.5890164E-01
   7133.67  7.3337525E-01
   7134.00  7.1016491E-01
   7134.33  6.9138317E-01
   7134.67  6.7763861E-01
   7135.00  6.6872552E-01
   7135.33  6.6367047E-01
   7135.67  6.6041465E-01
   7136.00  6.5799211E-01
   7136.33  6.5592073E-01
   7136.67  6.5404904E-01
   7137.00  6.5240111E-01
   7137.33  6.5102459E-01
   7137.67  6.4983640E-01
   7138.00  6.4873128E-01
   7138.33  6.4752754E-01
   7138.67  6.4603952E-01
   7139.00  6.4409485E-01
   7139.33  6.4142491E-01
   7139.67  6.3795337E-01
   7140.00  6.3358382E-01
   7140.33  6.2814337E-01
   7140.67  6.2177085E-01
   7141.00  6.1454492E-01
   7141.33  6.0653403E-01
   7141.67  5.9803178E-01
   7142.00  5.8923640E-01
   7142.33  5.8037148E-01
   7142.67  5.7165287E-01
   7143.00  5.6322499E-01
   7143.33  5.5526217E-01
   7143.67  5.4778831E-01
   7144.00  5.4083463E-01
   7144.33  5.3446905E-01
   7144.67  5.2859954E-01
   7145.00  5.2318815E-01
   7145.33  5.1823337E-01
   7145.67  5.1362857E-01
   7146.00  5.0932549E-01
   7146.33  5.0530097E-01
   7146.67  5.0147591E-01
   7147.00  4.9781686E-01
   7147.33  4.9431414E-01
   7147.67  4.9093820E-01
   7148.00  4.8769094E-01
   7148.33  4.8460529E-01
   7148.67  4.8168997E-01
   7149.00  4.7897574E-01
   7149.33  4.7653004E-01
   7149.67  4.7435406E-01
   7150.00  4.7246612E-01
   7150.33  4.7090991E-01
   7150.67  4.6963580E-01
   7151.00  4.6861548E-01
   7151.33  4.6782056E-01
   7151.67  4.6715219E-01
   7152.00  4.6653188E-01
   7152.33  4.6584619E-01
   7152.67  4.6498660E-01
   7153.00  4.6384919E-01
   7153.33  4.6225877E-01
   7153.67  4.6013975E-01
   7154.00  4.5738856E-01
   7154.33  4.5380949E-01
   7154.67  4.4942832E-01
   7155.00  4.4423389E-01
   7155.33  4.3817932E-01
   7155.67  4.3146929E-01
   7156.00  4.2423091E-01
   7156.33  4.1658237E-01
   7156.67  4.0873013E-01
   7157.00  4.0079949E-01
   7157.33  3.9292129E-01
   7157.67  3.8519445E-01
   7158.00  3.7769810E-01
   7158.33  3.7055763E-01
   7158.67  3.6381792E-01
   7159.00  3.5755236E-01
   7159.33  3.5191750E-01
   7159.67  3.4693048E-01
   7160.00  3.4266423E-01
   7160.33  3.3929726E-01
   7160.67  3.3679658E-01
   7161.00  3.3520607E-01
   7161.33  3.3467510E-01
   7161.67  3.3509328E-01
   7162.00  3.3644475E-01
   7162.33  3.3879470E-01
   7162.67  3.4195704E-01
   7163.00  3.4584342E-01
   7163.33  3.5039852E-01
   7163.67  3.5538180E-01
   7164.00  3.6064887E-01
   7164.33  3.6607722E-01
   7164.67  3.7153082E-01
   7165.00  3.7692663E-01
   7165.33  3.8217600E-01
   7165.67  3.8724947E-01
   7166.00  3.9212741E-01
   7166.33  3.9678161E-01
   7166.67  4.0124916E-01
   7167.00  4.0554883E-01
   7167.33  4.0969003E-01
   7167.67  4.1371987E-01
   7168.00  4.1766483E-01
   7168.33  4.2154750E-01
   7168.67  4.2539892E-01
   7169.00  4.2923355E-01
   7169.33  4.3306033E-01
   7169.67  4.3688518E-01
   7170.00  4.4070832E-01
   7170.33  4.4451188E-01
   7170.67  4.4826243E-01
   7171.00  4.5191110E-01
   7171.33  4.5534096E-01
   7171.67  4.5841584E-01
   7172.00  4.6093383E-01
