    FDMNES
    energy     <xanes>
   7097.00  4.2319366E-03
   7097.33  4.3234034E-03
   7097.67  4.4188551E-03
   7098.00  4.5185672E-03
   7098.33  4.6234730E-03
   7098.67  4.7333948E-03
   7099.00  4.8487143E-03
   7099.33  4.9706675E-03
   7099.67  5.0990825E-03
   7100.00  5.2345051E-03
   7100.33  5.3786227E-03
   7100.67  5.5312965E-03
   7101.00  5.6933357E-03
   7101.33  5.8671292E-03
   7101.67  6.0526320E-03
   7102.00  6.2510948E-03
   7102.33  6.4660510E-03
   7102.67  6.6976835E-03
   7103.00  6.9480268E-03
   7103.33  7.2225912E-03
   7103.67  7.5220990E-03
   7104.00  7.8500708E-03
   7104.33  8.2156820E-03
   7104.67  8.6209624E-03
   7105.00  9.0724932E-03
   7105.33  9.5868760E-03
   7105.67  1.0169516E-02
   7106.00  1.0834006E-02
   7106.33  1.1613831E-02
   7106.67  1.2524074E-02
   7107.00  1.3596842E-02
   7107.33  1.4910501E-02
   7107.67  1.6512718E-02
   7108.00  1.8495283E-02
   7108.33  2.1085991E-02
   7108.67  2.4473112E-02
   7109.00  2.9008005E-02
   7109.33  3.5621992E-02
   7109.67  4.5400101E-02
   7110.00  6.0465754E-02
   7110.33  8.6962379E-02
   7110.67  1.3167621E-01
   7111.00  1.9729218E-01
   7111.33  2.6819287E-01
   7111.67  3.1735878E-01
   7112.00  3.1936939E-01
   7112.33  2.6365160E-01
   7112.67  1.9898779E-01
   7113.00  1.5012794E-01
   7113.33  1.1996031E-01
   7113.67  1.0182818E-01
   7114.00  9.2958432E-02
   7114.33  8.7204608E-02
   7114.67  7.7899650E-02
   7115.00  6.9664527E-02
   7115.33  6.4924129E-02
   7115.67  5.8002790E-02
   7116.00  5.0299912E-02
   7116.33  4.4986191E-02
   7116.67  4.1356012E-02
   7117.00  3.8827424E-02
   7117.33  3.7223292E-02
   7117.67  3.6303358E-02
   7118.00  3.5977557E-02
   7118.33  3.6243568E-02
   7118.67  3.6994419E-02
   7119.00  3.8187084E-02
   7119.33  3.9783087E-02
   7119.67  4.1643041E-02
   7120.00  4.3732346E-02
   7120.33  4.6159651E-02
   7120.67  4.9068465E-02
   7121.00  5.2662196E-02
   7121.33  5.7315670E-02
   7121.67  6.3182676E-02
   7122.00  7.0537873E-02
   7122.33  8.0095472E-02
   7122.67  9.2352858E-02
   7123.00  1.0813029E-01
   7123.33  1.2832397E-01
   7123.67  1.5015928E-01
   7124.00  1.6974183E-01
   7124.33  1.8673394E-01
   7124.67  2.0624416E-01
   7125.00  2.3110762E-01
   7125.33  2.6278976E-01
   7125.67  3.0006474E-01
   7126.00  3.4228545E-01
   7126.33  3.8880782E-01
   7126.67  4.3707305E-01
   7127.00  4.8360448E-01
   7127.33  5.2082380E-01
   7127.67  5.4418293E-01
   7128.00  5.5402382E-01
   7128.33  5.5655210E-01
   7128.67  5.6165633E-01
   7129.00  5.7416672E-01
   7129.33  5.9592611E-01
   7129.67  6.2340784E-01
   7130.00  6.5336085E-01
   7130.33  6.8187937E-01
   7130.67  7.0684856E-01
   7131.00  7.2844941E-01
   7131.33  7.4905688E-01
   7131.67  7.7141544E-01
   7132.00  7.9527071E-01
   7132.33  8.1564404E-01
   7132.67  8.2702647E-01
   7133.00  8.2751576E-01
   7133.33  8.1885370E-01
   7133.67  8.0708101E-01
   7134.00  7.9569810E-01
   7134.33  7.8717323E-01
   7134.67  7.8213142E-01
   7135.00  7.8114231E-01
   7135.33  7.8491419E-01
   7135.67  7.9186032E-01
   7136.00  8.0003947E-01
   7136.33  8.0675663E-01
   7136.67  8.1046337E-01
   7137.00  8.1070112E-01
   7137.33  8.0742727E-01
   7137.67  8.0178896E-01
   7138.00  7.9443800E-01
   7138.33  7.8582308E-01
   7138.67  7.7646504E-01
   7139.00  7.6655297E-01
   7139.33  7.5614244E-01
   7139.67  7.4533328E-01
   7140.00  7.3414544E-01
   7140.33  7.2256892E-01
   7140.67  7.1071468E-01
   7141.00  6.9867938E-01
   7141.33  6.8661776E-01
   7141.67  6.7472933E-01
   7142.00  6.6320005E-01
   7142.33  6.5231733E-01
   7142.67  6.4220379E-01
   7143.00  6.3299323E-01
   7143.33  6.2491573E-01
   7143.67  6.1791148E-01
   7144.00  6.1202511E-01
   7144.33  6.0745235E-01
   7144.67  6.0411759E-01
   7145.00  6.0210009E-01
   7145.33  6.0162938E-01
   7145.67  6.0253604E-01
   7146.00  6.0476744E-01
   7146.33  6.0831548E-01
   7146.67  6.1276128E-01
   7147.00  6.1778298E-01
   7147.33  6.2295738E-01
   7147.67  6.2781831E-01
   7148.00  6.3202363E-01
   7148.33  6.3513851E-01
   7148.67  6.3707031E-01
   7149.00  6.3771461E-01
   7149.33  6.3686530E-01
   7149.67  6.3471689E-01
   7150.00  6.3133021E-01
   7150.33  6.2666337E-01
   7150.67  6.2097894E-01
   7151.00  6.1438522E-01
   7151.33  6.0688920E-01
   7151.67  5.9866220E-01
   7152.00  5.8974307E-01
   7152.33  5.8007423E-01
   7152.67  5.6975006E-01
   7153.00  5.5876988E-01
   7153.33  5.4703909E-01
   7153.67  5.3462641E-01
   7154.00  5.2152406E-01
   7154.33  5.0765726E-01
   7154.67  4.9314654E-01
   7155.00  4.7804327E-01
   7155.33  4.6237026E-01
   7155.67  4.4630907E-01
   7156.00  4.2998781E-01
   7156.33  4.1357326E-01
   7156.67  3.9728075E-01
   7157.00  3.8130485E-01
   7157.33  3.6595360E-01
   7157.67  3.5139796E-01
   7158.00  3.3783697E-01
   7158.33  3.2563247E-01
   7158.67  3.1481068E-01
   7159.00  3.0548833E-01
   7159.33  2.9795228E-01
   7159.67  2.9203809E-01
   7160.00  2.8773077E-01
   7160.33  2.8515552E-01
   7160.67  2.8400398E-01
   7161.00  2.8414476E-01
   7161.33  2.8553174E-01
   7161.67  2.8781973E-01
   7162.00  2.9083032E-01
   7162.33  2.9442347E-01
   7162.67  2.9835493E-01
   7163.00  3.0249892E-01
   7163.33  3.0674832E-01
   7163.67  3.1100092E-01
   7164.00  3.1519985E-01
   7164.33  3.1928716E-01
   7164.67  3.2324699E-01
   7165.00  3.2706456E-01
   7165.33  3.3071051E-01
   7165.67  3.3419866E-01
   7166.00  3.3752803E-01
   7166.33  3.4068280E-01
   7166.67  3.4369134E-01
   7167.00  3.4656621E-01
   7167.33  3.4931431E-01
   7167.67  3.5197649E-01
   7168.00  3.5457919E-01
   7168.33  3.5715236E-01
   7168.67  3.5973196E-01
   7169.00  3.6234353E-01
   7169.33  3.6501934E-01
   7169.67  3.6776841E-01
   7170.00  3.7059390E-01
   7170.33  3.7349403E-01
   7170.67  3.7643284E-01
   7171.00  3.7936697E-01
   7171.33  3.8219678E-01
   7171.67  3.8477689E-01
   7172.00  3.8690676E-01
