    FDMNES
    energy     <xanes>
   7097.00  4.3479214E-03
   7097.33  4.4391676E-03
   7097.67  4.5341201E-03
   7098.00  4.6330137E-03
   7098.33  4.7366802E-03
   7098.67  4.8449243E-03
   7099.00  4.9580641E-03
   7099.33  5.0771750E-03
   7099.67  5.2020561E-03
   7100.00  5.3331507E-03
   7100.33  5.4718885E-03
   7100.67  5.6180800E-03
   7101.00  5.7723644E-03
   7101.33  5.9367072E-03
   7101.67  6.1109682E-03
   7102.00  6.2961080E-03
   7102.33  6.4949412E-03
   7102.67  6.7074629E-03
   7103.00  6.9351892E-03
   7103.33  7.1823598E-03
   7103.67  7.4493043E-03
   7104.00  7.7385651E-03
   7104.33  8.0569456E-03
   7104.67  8.4055990E-03
   7105.00  8.7891260E-03
   7105.33  9.2193684E-03
   7105.67  9.6996037E-03
   7106.00  1.0239024E-02
   7106.33  1.0860575E-02
   7106.67  1.1573568E-02
   7107.00  1.2398986E-02
   7107.33  1.3388392E-02
   7107.67  1.4571081E-02
   7108.00  1.6005005E-02
   7108.33  1.7834061E-02
   7108.67  2.0172081E-02
   7109.00  2.3233315E-02
   7109.33  2.7583133E-02
   7109.67  3.3862894E-02
   7110.00  4.3329037E-02
   7110.33  5.9644186E-02
   7110.67  8.7223689E-02
   7111.00  1.2889833E-01
   7111.33  1.7102037E-01
   7111.67  1.9233684E-01
   7112.00  1.9428770E-01
   7112.33  1.9481235E-01
   7112.67  1.9194357E-01
   7113.00  1.7707681E-01
   7113.33  1.5991131E-01
   7113.67  1.4746389E-01
   7114.00  1.3541349E-01
   7114.33  1.1659505E-01
   7114.67  9.6425675E-02
   7115.00  8.1303723E-02
   7115.33  7.2831004E-02
   7115.67  6.8041768E-02
   7116.00  6.5045368E-02
   7116.33  6.3156194E-02
   7116.67  6.2634648E-02
   7117.00  6.3682634E-02
   7117.33  6.6359837E-02
   7117.67  7.0186582E-02
   7118.00  7.4829065E-02
   7118.33  8.0160817E-02
   7118.67  8.6367538E-02
   7119.00  9.3845679E-02
   7119.33  1.0316514E-01
   7119.67  1.1438017E-01
   7120.00  1.2767024E-01
   7120.33  1.4352231E-01
   7120.67  1.6188775E-01
   7121.00  1.8298408E-01
   7121.33  2.0735298E-01
   7121.67  2.3463070E-01
   7122.00  2.6459902E-01
   7122.33  2.9680181E-01
   7122.67  3.2956042E-01
   7123.00  3.6115120E-01
   7123.33  3.8936608E-01
   7123.67  4.1375663E-01
   7124.00  4.3431069E-01
   7124.33  4.5053335E-01
   7124.67  4.6247976E-01
   7125.00  4.6971732E-01
   7125.33  4.7226263E-01
   7125.67  4.7270462E-01
   7126.00  4.7283670E-01
   7126.33  4.7358848E-01
   7126.67  4.7483128E-01
   7127.00  4.7644351E-01
   7127.33  4.7868437E-01
   7127.67  4.8200322E-01
   7128.00  4.8680411E-01
   7128.33  4.9341065E-01
   7128.67  5.0141431E-01
   7129.00  5.1045077E-01
   7129.33  5.2009044E-01
   7129.67  5.3003236E-01
   7130.00  5.4050342E-01
   7130.33  5.5232244E-01
   7130.67  5.6587742E-01
   7131.00  5.8097332E-01
   7131.33  5.9675301E-01
   7131.67  6.1247169E-01
   7132.00  6.2844053E-01
   7132.33  6.4604564E-01
   7132.67  6.6624410E-01
   7133.00  6.8909630E-01
   7133.33  7.1322267E-01
   7133.67  7.3576151E-01
   7134.00  7.5440775E-01
   7134.33  7.6653638E-01
   7134.67  7.7150142E-01
   7135.00  7.6858320E-01
   7135.33  7.5763735E-01
   7135.67  7.4197799E-01
   7136.00  7.2397029E-01
   7136.33  7.0575102E-01
   7136.67  6.8869730E-01
   7137.00  6.7343609E-01
   7137.33  6.6051419E-01
   7137.67  6.4966203E-01
   7138.00  6.4073819E-01
   7138.33  6.3369903E-01
   7138.67  6.2803455E-01
   7139.00  6.2348115E-01
   7139.33  6.1985801E-01
   7139.67  6.1682303E-01
   7140.00  6.1421686E-01
   7140.33  6.1194466E-01
   7140.67  6.0988888E-01
   7141.00  6.0801333E-01
   7141.33  6.0632326E-01
   7141.67  6.0480111E-01
   7142.00  6.0345817E-01
   7142.33  6.0233888E-01
   7142.67  6.0144441E-01
   7143.00  6.0080098E-01
   7143.33  6.0046600E-01
   7143.67  6.0041537E-01
   7144.00  6.0066213E-01
   7144.33  6.0127498E-01
   7144.67  6.0224973E-01
   7145.00  6.0361890E-01
   7145.33  6.0546800E-01
   7145.67  6.0776075E-01
   7146.00  6.1049198E-01
   7146.33  6.1367334E-01
   7146.67  6.1717281E-01
   7147.00  6.2088050E-01
   7147.33  6.2462453E-01
   7147.67  6.2817735E-01
   7148.00  6.3132788E-01
   7148.33  6.3375665E-01
   7148.67  6.3533608E-01
   7149.00  6.3593227E-01
   7149.33  6.3532106E-01
   7149.67  6.3362318E-01
   7150.00  6.3088733E-01
   7150.33  6.2710544E-01
   7150.67  6.2252921E-01
   7151.00  6.1727972E-01
   7151.33  6.1141965E-01
   7151.67  6.0512479E-01
   7152.00  5.9846502E-01
   7152.33  5.9145666E-01
   7152.67  5.8417006E-01
   7153.00  5.7661959E-01
   7153.33  5.6877811E-01
   7153.67  5.6067509E-01
   7154.00  5.5230805E-01
   7154.33  5.4364751E-01
   7154.67  5.3474467E-01
   7155.00  5.2562861E-01
   7155.33  5.1632132E-01
   7155.67  5.0689650E-01
   7156.00  4.9740792E-01
   7156.33  4.8792687E-01
   7156.67  4.7853020E-01
   7157.00  4.6928769E-01
   7157.33  4.6030091E-01
   7157.67  4.5160356E-01
   7158.00  4.4324061E-01
   7158.33  4.3529874E-01
   7158.67  4.2775761E-01
   7159.00  4.2063093E-01
   7159.33  4.1397915E-01
   7159.67  4.0775313E-01
   7160.00  4.0195628E-01
   7160.33  3.9664972E-01
   7160.67  3.9179069E-01
   7161.00  3.8739324E-01
   7161.33  3.8353448E-01
   7161.67  3.8016939E-01
   7162.00  3.7730659E-01
   7162.33  3.7501129E-01
   7162.67  3.7321269E-01
   7163.00  3.7189480E-01
   7163.33  3.7107738E-01
   7163.67  3.7065270E-01
   7164.00  3.7057247E-01
   7164.33  3.7081485E-01
   7164.67  3.7128919E-01
   7165.00  3.7195053E-01
   7165.33  3.7276857E-01
   7165.67  3.7368558E-01
   7166.00  3.7467346E-01
   7166.33  3.7571365E-01
   7166.67  3.7678589E-01
   7167.00  3.7788506E-01
   7167.33  3.7901451E-01
   7167.67  3.8017463E-01
   7168.00  3.8137004E-01
   7168.33  3.8261099E-01
   7168.67  3.8389547E-01
   7169.00  3.8522328E-01
   7169.33  3.8659593E-01
   7169.67  3.8800174E-01
   7170.00  3.8943232E-01
   7170.33  3.9087613E-01
   7170.67  3.9231360E-01
   7171.00  3.9372265E-01
   7171.33  3.9505505E-01
   7171.67  3.9625127E-01
   7172.00  3.9722456E-01
