    FDMNES
    energy     <xanes>
   7097.00  4.4019845E-03
   7097.33  4.4947290E-03
   7097.67  4.5912607E-03
   7098.00  4.6918202E-03
   7098.33  4.7972584E-03
   7098.67  4.9073769E-03
   7099.00  5.0225014E-03
   7099.33  5.1437326E-03
   7099.67  5.2708662E-03
   7100.00  5.4043562E-03
   7100.33  5.5456663E-03
   7100.67  5.6946031E-03
   7101.00  5.8518214E-03
   7101.33  6.0193328E-03
   7101.67  6.1969938E-03
   7102.00  6.3857871E-03
   7102.33  6.5885920E-03
   7102.67  6.8054015E-03
   7103.00  7.0377642E-03
   7103.33  7.2900119E-03
   7103.67  7.5624751E-03
   7104.00  7.8577448E-03
   7104.33  8.1827588E-03
   7104.67  8.5386755E-03
   7105.00  8.9301688E-03
   7105.33  9.3692772E-03
   7105.67  9.8592876E-03
   7106.00  1.0409495E-02
   7106.33  1.1043121E-02
   7106.67  1.1769461E-02
   7107.00  1.2609604E-02
   7107.33  1.3615366E-02
   7107.67  1.4815817E-02
   7108.00  1.6268671E-02
   7108.33  1.8117097E-02
   7108.67  2.0472973E-02
   7109.00  2.3547061E-02
   7109.33  2.7894109E-02
   7109.67  3.4136545E-02
   7110.00  4.3491211E-02
   7110.33  5.9481939E-02
   7110.67  8.6237689E-02
   7111.00  1.2641956E-01
   7111.33  1.6992777E-01
   7111.67  1.9715817E-01
   7112.00  2.0549197E-01
   7112.33  2.0880243E-01
   7112.67  2.0773270E-01
   7113.00  1.9334203E-01
   7113.33  1.7378687E-01
   7113.67  1.5809044E-01
   7114.00  1.4159872E-01
   7114.33  1.1802522E-01
   7114.67  9.6075737E-02
   7115.00  8.0946357E-02
   7115.33  7.2595550E-02
   7115.67  6.7722894E-02
   7116.00  6.4620226E-02
   7116.33  6.2831100E-02
   7116.67  6.2500137E-02
   7117.00  6.3750414E-02
   7117.33  6.6697209E-02
   7117.67  7.0937580E-02
   7118.00  7.6135721E-02
   7118.33  8.2076019E-02
   7118.67  8.8899654E-02
   7119.00  9.7052561E-02
   7119.33  1.0722133E-01
   7119.67  1.1952034E-01
   7120.00  1.3416498E-01
   7120.33  1.5171831E-01
   7120.67  1.7213381E-01
   7121.00  1.9560771E-01
   7121.33  2.2247011E-01
   7121.67  2.5174147E-01
   7122.00  2.8235626E-01
   7122.33  3.1264630E-01
   7122.67  3.4121661E-01
   7123.00  3.6737084E-01
   7123.33  3.9035227E-01
   7123.67  4.1023693E-01
   7124.00  4.2722261E-01
   7124.33  4.4159945E-01
   7124.67  4.5360460E-01
   7125.00  4.6278017E-01
   7125.33  4.6875997E-01
   7125.67  4.7261554E-01
   7126.00  4.7505371E-01
   7126.33  4.7673771E-01
   7126.67  4.7857169E-01
   7127.00  4.8119917E-01
   7127.33  4.8524201E-01
   7127.67  4.9076889E-01
   7128.00  4.9774872E-01
   7128.33  5.0596219E-01
   7128.67  5.1476604E-01
   7129.00  5.2378700E-01
   7129.33  5.3278518E-01
   7129.67  5.4178070E-01
   7130.00  5.5103390E-01
   7130.33  5.6127184E-01
   7130.67  5.7299419E-01
   7131.00  5.8618027E-01
   7131.33  6.0013646E-01
   7131.67  6.1411963E-01
   7132.00  6.2838625E-01
   7132.33  6.4423845E-01
   7132.67  6.6257741E-01
   7133.00  6.8340618E-01
   7133.33  7.0514573E-01
   7133.67  7.2479966E-01
   7134.00  7.4016140E-01
   7134.33  7.4917601E-01
   7134.67  7.5194707E-01
   7135.00  7.4828069E-01
   7135.33  7.3832654E-01
   7135.67  7.2477960E-01
   7136.00  7.0952012E-01
   7136.33  6.9423780E-01
   7136.67  6.7994488E-01
   7137.00  6.6705127E-01
   7137.33  6.5584938E-01
   7137.67  6.4601771E-01
   7138.00  6.3736578E-01
   7138.33  6.2978392E-01
   7138.67  6.2296344E-01
   7139.00  6.1679116E-01
   7139.33  6.1126764E-01
   7139.67  6.0630367E-01
   7140.00  6.0191357E-01
   7140.33  5.9820278E-01
   7140.67  5.9512227E-01
   7141.00  5.9268220E-01
   7141.33  5.9095319E-01
   7141.67  5.8982616E-01
   7142.00  5.8926114E-01
   7142.33  5.8926378E-01
   7142.67  5.8970894E-01
   7143.00  5.9054537E-01
   7143.33  5.9176247E-01
   7143.67  5.9327115E-01
   7144.00  5.9503899E-01
   7144.33  5.9707671E-01
   7144.67  5.9935537E-01
   7145.00  6.0188828E-01
   7145.33  6.0473428E-01
   7145.67  6.0788401E-01
   7146.00  6.1135374E-01
   7146.33  6.1518848E-01
   7146.67  6.1932677E-01
   7147.00  6.2372034E-01
   7147.33  6.2828584E-01
   7147.67  6.3285612E-01
   7148.00  6.3726885E-01
   7148.33  6.4124600E-01
   7148.67  6.4457443E-01
   7149.00  6.4701903E-01
   7149.33  6.4817161E-01
   7149.67  6.4794600E-01
   7150.00  6.4619861E-01
   7150.33  6.4264611E-01
   7150.67  6.3750673E-01
   7151.00  6.3087380E-01
   7151.33  6.2277120E-01
   7151.67  6.1360657E-01
   7152.00  6.0361115E-01
   7152.33  5.9298527E-01
   7152.67  5.8205015E-01
   7153.00  5.7098929E-01
   7153.33  5.5997357E-01
   7153.67  5.4911580E-01
   7154.00  5.3848311E-01
   7154.33  5.2815369E-01
   7154.67  5.1811585E-01
   7155.00  5.0838192E-01
   7155.33  4.9899251E-01
   7155.67  4.8990082E-01
   7156.00  4.8109905E-01
   7156.33  4.7261685E-01
   7156.67  4.6441852E-01
   7157.00  4.5650527E-01
   7157.33  4.4891120E-01
   7157.67  4.4159864E-01
   7158.00  4.3456588E-01
   7158.33  4.2784472E-01
   7158.67  4.2139841E-01
   7159.00  4.1522846E-01
   7159.33  4.0937878E-01
   7159.67  4.0383225E-01
   7160.00  3.9861382E-01
   7160.33  3.9380710E-01
   7160.67  3.8941106E-01
   7161.00  3.8546531E-01
   7161.33  3.8207175E-01
   7161.67  3.7919942E-01
   7162.00  3.7686472E-01
   7162.33  3.7514146E-01
   7162.67  3.7395126E-01
   7163.00  3.7326913E-01
   7163.33  3.7310623E-01
   7163.67  3.7335145E-01
   7164.00  3.7395594E-01
   7164.33  3.7490208E-01
   7164.67  3.7609803E-01
   7165.00  3.7749870E-01
   7165.33  3.7907432E-01
   7165.67  3.8076087E-01
   7166.00  3.8252451E-01
   7166.33  3.8433818E-01
   7166.67  3.8617129E-01
   7167.00  3.8800769E-01
   7167.33  3.8983336E-01
   7167.67  3.9164236E-01
   7168.00  3.9343198E-01
   7168.33  3.9519874E-01
   7168.67  3.9694442E-01
   7169.00  3.9866710E-01
   7169.33  4.0035958E-01
   7169.67  4.0201943E-01
   7170.00  4.0364001E-01
   7170.33  4.0520541E-01
   7170.67  4.0670865E-01
   7171.00  4.0813404E-01
   7171.33  4.0943976E-01
   7171.67  4.1058847E-01
   7172.00  4.1151425E-01
