    FDMNES
    energy     <xanes>
   7097.00  4.8893442E-03
   7097.33  5.0034066E-03
   7097.67  5.1226339E-03
   7098.00  5.2473787E-03
   7098.33  5.3788421E-03
   7098.67  5.5167845E-03
   7099.00  5.6616884E-03
   7099.33  5.8151293E-03
   7099.67  5.9768649E-03
   7100.00  6.1475732E-03
   7100.33  6.3293771E-03
   7100.67  6.5220572E-03
   7101.00  6.7265973E-03
   7101.33  6.9459494E-03
   7101.67  7.1799750E-03
   7102.00  7.4301557E-03
   7102.33  7.7007554E-03
   7102.67  7.9918435E-03
   7103.00  8.3057550E-03
   7103.33  8.6489392E-03
   7103.67  9.0219633E-03
   7104.00  9.4287151E-03
   7104.33  9.8795262E-03
   7104.67  1.0376155E-02
   7105.00  1.0925539E-02
   7105.33  1.1545486E-02
   7105.67  1.2240740E-02
   7106.00  1.3024849E-02
   7106.33  1.3931610E-02
   7106.67  1.4973972E-02
   7107.00  1.6181816E-02
   7107.33  1.7628469E-02
   7107.67  1.9352949E-02
   7108.00  2.1433821E-02
   7108.33  2.4065137E-02
   7108.67  2.7390589E-02
   7109.00  3.1682274E-02
   7109.33  3.7649517E-02
   7109.67  4.6052893E-02
   7110.00  5.8371983E-02
   7110.33  7.8806553E-02
   7110.67  1.1178163E-01
   7111.00  1.5908546E-01
   7111.33  2.1345509E-01
   7111.67  2.6918240E-01
   7112.00  3.2164559E-01
   7112.33  3.6894051E-01
   7112.67  4.1481907E-01
   7113.00  4.3154687E-01
   7113.33  3.7410218E-01
   7113.67  2.8678999E-01
   7114.00  2.1491430E-01
   7114.33  1.7440573E-01
   7114.67  1.5771558E-01
   7115.00  1.6133098E-01
   7115.33  1.8171428E-01
   7115.67  2.0396279E-01
   7116.00  2.1094119E-01
   7116.33  1.8930479E-01
   7116.67  1.5852499E-01
   7117.00  1.3324103E-01
   7117.33  1.1855137E-01
   7117.67  1.1139403E-01
   7118.00  1.0957063E-01
   7118.33  1.1140063E-01
   7118.67  1.1556237E-01
   7119.00  1.2115301E-01
   7119.33  1.2413299E-01
   7119.67  1.2173975E-01
   7120.00  1.1647912E-01
   7120.33  1.1310207E-01
   7120.67  1.1324479E-01
   7121.00  1.1688103E-01
   7121.33  1.2363352E-01
   7121.67  1.3246852E-01
   7122.00  1.4365379E-01
   7122.33  1.5887701E-01
   7122.67  1.7868286E-01
   7123.00  2.0322184E-01
   7123.33  2.3222586E-01
   7123.67  2.6407568E-01
   7124.00  2.9757277E-01
   7124.33  3.2990847E-01
   7124.67  3.5775846E-01
   7125.00  3.7865660E-01
   7125.33  3.8999928E-01
   7125.67  3.9363817E-01
   7126.00  3.9256383E-01
   7126.33  3.9203531E-01
   7126.67  3.9657909E-01
   7127.00  4.0811040E-01
   7127.33  4.2697961E-01
   7127.67  4.4968126E-01
   7128.00  4.7356429E-01
   7128.33  4.9703913E-01
   7128.67  5.1951810E-01
   7129.00  5.3982792E-01
   7129.33  5.5759551E-01
   7129.67  5.7654842E-01
   7130.00  5.9984330E-01
   7130.33  6.2830173E-01
   7130.67  6.5907375E-01
   7131.00  6.9012692E-01
   7131.33  7.1902717E-01
   7131.67  7.4317872E-01
   7132.00  7.5981105E-01
   7132.33  7.6588462E-01
   7132.67  7.6398669E-01
   7133.00  7.5794632E-01
   7133.33  7.5343018E-01
   7133.67  7.5434805E-01
   7134.00  7.6166595E-01
   7134.33  7.7364192E-01
   7134.67  7.8524199E-01
   7135.00  7.9295403E-01
   7135.33  7.9422336E-01
   7135.67  7.9018445E-01
   7136.00  7.8210812E-01
   7136.33  7.7122461E-01
   7136.67  7.5893093E-01
   7137.00  7.4576734E-01
   7137.33  7.3210892E-01
   7137.67  7.1849482E-01
   7138.00  7.0545049E-01
   7138.33  6.9363571E-01
   7138.67  6.8297450E-01
   7139.00  6.7303628E-01
   7139.33  6.6304959E-01
   7139.67  6.5251695E-01
   7140.00  6.4154424E-01
   7140.33  6.3091074E-01
   7140.67  6.2159435E-01
   7141.00  6.1432926E-01
   7141.33  6.0986974E-01
   7141.67  6.0784429E-01
   7142.00  6.0783649E-01
   7142.33  6.0916672E-01
   7142.67  6.1060539E-01
   7143.00  6.1114957E-01
   7143.33  6.0949510E-01
   7143.67  6.0516130E-01
   7144.00  5.9792636E-01
   7144.33  5.8771041E-01
   7144.67  5.7555017E-01
   7145.00  5.6226358E-01
   7145.33  5.4882560E-01
   7145.67  5.3611156E-01
   7146.00  5.2467121E-01
   7146.33  5.1511921E-01
   7146.67  5.0742163E-01
   7147.00  5.0159213E-01
   7147.33  4.9776534E-01
   7147.67  4.9554037E-01
   7148.00  4.9472180E-01
   7148.33  4.9520726E-01
   7148.67  4.9660289E-01
   7149.00  4.9870126E-01
   7149.33  5.0134119E-01
   7149.67  5.0428238E-01
   7150.00  5.0741266E-01
   7150.33  5.1066567E-01
   7150.67  5.1398872E-01
   7151.00  5.1736598E-01
   7151.33  5.2078813E-01
   7151.67  5.2422892E-01
   7152.00  5.2766296E-01
   7152.33  5.3105469E-01
   7152.67  5.3438478E-01
   7153.00  5.3764085E-01
   7153.33  5.4080479E-01
   7153.67  5.4387742E-01
   7154.00  5.4684197E-01
   7154.33  5.4964596E-01
   7154.67  5.5225879E-01
   7155.00  5.5463405E-01
   7155.33  5.5668307E-01
   7155.67  5.5839586E-01
   7156.00  5.5973869E-01
   7156.33  5.6062803E-01
   7156.67  5.6108502E-01
   7157.00  5.6108535E-01
   7157.33  5.6053853E-01
   7157.67  5.5947275E-01
   7158.00  5.5785740E-01
   7158.33  5.5558149E-01
   7158.67  5.5268301E-01
   7159.00  5.4913911E-01
   7159.33  5.4485881E-01
   7159.67  5.3994280E-01
   7160.00  5.3443502E-01
   7160.33  5.2835707E-01
   7160.67  5.2188927E-01
   7161.00  5.1514956E-01
   7161.33  5.0826720E-01
   7161.67  5.0139646E-01
   7162.00  4.9463982E-01
   7162.33  4.8811264E-01
   7162.67  4.8184416E-01
   7163.00  4.7585744E-01
   7163.33  4.7019370E-01
   7163.67  4.6480559E-01
   7164.00  4.5967613E-01
   7164.33  4.5481538E-01
   7164.67  4.5018014E-01
   7165.00  4.4576729E-01
   7165.33  4.4161328E-01
   7165.67  4.3770750E-01
   7166.00  4.3407014E-01
   7166.33  4.3076188E-01
   7166.67  4.2776646E-01
   7167.00  4.2509425E-01
   7167.33  4.2278554E-01
   7167.67  4.2078626E-01
   7168.00  4.1907469E-01
   7168.33  4.1764909E-01
   7168.67  4.1644163E-01
   7169.00  4.1541699E-01
   7169.33  4.1454788E-01
   7169.67  4.1377820E-01
   7170.00  4.1308144E-01
   7170.33  4.1244134E-01
   7170.67  4.1183884E-01
   7171.00  4.1127152E-01
   7171.33  4.1075133E-01
   7171.67  4.1028903E-01
   7172.00  4.0990224E-01
