    FDMNES
    energy     <xanes>
   7097.00  5.1314096E-03
   7097.33  5.2587365E-03
   7097.67  5.3922054E-03
   7098.00  5.5322633E-03
   7098.33  5.6803859E-03
   7098.67  5.8363285E-03
   7099.00  6.0007153E-03
   7099.33  6.1755211E-03
   7099.67  6.3605162E-03
   7100.00  6.5565994E-03
   7100.33  6.7664949E-03
   7100.67  6.9900363E-03
   7101.00  7.2285647E-03
   7101.33  7.4859777E-03
   7101.67  7.7622773E-03
   7102.00  8.0595527E-03
   7102.33  8.3836295E-03
   7102.67  8.7349145E-03
   7103.00  9.1168347E-03
   7103.33  9.5385776E-03
   7103.67  1.0001506E-02
   7104.00  1.0511612E-02
   7104.33  1.1084387E-02
   7104.67  1.1723528E-02
   7105.00  1.2440382E-02
   7105.33  1.3263412E-02
   7105.67  1.4202420E-02
   7106.00  1.5281254E-02
   7106.33  1.6558485E-02
   7106.67  1.8061793E-02
   7107.00  1.9848923E-02
   7107.33  2.2060864E-02
   7107.67  2.4787453E-02
   7108.00  2.8199991E-02
   7108.33  3.2726177E-02
   7108.67  3.8737592E-02
   7109.00  4.6929172E-02
   7109.33  5.9172777E-02
   7109.67  7.7770580E-02
   7110.00  1.0727060E-01
   7110.33  1.6070796E-01
   7110.67  2.4906532E-01
   7111.00  3.6095122E-01
   7111.33  4.4650355E-01
   7111.67  4.9210511E-01
   7112.00  4.6528858E-01
   7112.33  3.6665527E-01
   7112.67  2.6691157E-01
   7113.00  1.9557590E-01
   7113.33  1.5343247E-01
   7113.67  1.2781172E-01
   7114.00  1.1346048E-01
   7114.33  1.0707740E-01
   7114.67  1.0230468E-01
   7115.00  9.5038755E-02
   7115.33  8.7116832E-02
   7115.67  8.1643665E-02
   7116.00  7.8911891E-02
   7116.33  7.8572562E-02
   7116.67  7.9742725E-02
   7117.00  8.2155067E-02
   7117.33  8.6114981E-02
   7117.67  9.1929640E-02
   7118.00  1.0007358E-01
   7118.33  1.1128839E-01
   7118.67  1.2525282E-01
   7119.00  1.4156919E-01
   7119.33  1.5952519E-01
   7119.67  1.7748709E-01
   7120.00  1.9350345E-01
   7120.33  2.0558890E-01
   7120.67  2.1626651E-01
   7121.00  2.2917553E-01
   7121.33  2.4798806E-01
   7121.67  2.7313474E-01
   7122.00  3.0464250E-01
   7122.33  3.4223620E-01
   7122.67  3.8273295E-01
   7123.00  4.2276033E-01
   7123.33  4.5689328E-01
   7123.67  4.8145882E-01
   7124.00  4.9519647E-01
   7124.33  5.0012576E-01
   7124.67  5.0303274E-01
   7125.00  5.0851231E-01
   7125.33  5.2076316E-01
   7125.67  5.4030401E-01
   7126.00  5.6630347E-01
   7126.33  5.9599091E-01
   7126.67  6.2490992E-01
   7127.00  6.5031442E-01
   7127.33  6.6944229E-01
   7127.67  6.8141862E-01
   7128.00  6.8494009E-01
   7128.33  6.7793199E-01
   7128.67  6.6246709E-01
   7129.00  6.4102905E-01
   7129.33  6.1740206E-01
   7129.67  5.9547521E-01
   7130.00  5.7710251E-01
   7130.33  5.6338928E-01
   7130.67  5.5336489E-01
   7131.00  5.4637145E-01
   7131.33  5.4205128E-01
   7131.67  5.3976403E-01
   7132.00  5.3948942E-01
   7132.33  5.4169201E-01
   7132.67  5.4626878E-01
   7133.00  5.5312788E-01
   7133.33  5.6205612E-01
   7133.67  5.7228241E-01
   7134.00  5.8348813E-01
   7134.33  5.9573287E-01
   7134.67  6.0915565E-01
   7135.00  6.2399883E-01
   7135.33  6.4042078E-01
   7135.67  6.5776244E-01
   7136.00  6.7528008E-01
   7136.33  6.9178136E-01
   7136.67  7.0628121E-01
   7137.00  7.1799021E-01
   7137.33  7.2591379E-01
   7137.67  7.3035482E-01
   7138.00  7.3155546E-01
   7138.33  7.2973667E-01
   7138.67  7.2590887E-01
   7139.00  7.2062063E-01
   7139.33  7.1426492E-01
   7139.67  7.0730132E-01
   7140.00  6.9989531E-01
   7140.33  6.9208440E-01
   7140.67  6.8393466E-01
   7141.00  6.7550386E-01
   7141.33  6.6698631E-01
   7141.67  6.5856561E-01
   7142.00  6.5033420E-01
   7142.33  6.4244113E-01
   7142.67  6.3495280E-01
   7143.00  6.2793847E-01
   7143.33  6.2151488E-01
   7143.67  6.1563972E-01
   7144.00  6.1031954E-01
   7144.33  6.0562287E-01
   7144.67  6.0146790E-01
   7145.00  5.9782375E-01
   7145.33  5.9467026E-01
   7145.67  5.9182940E-01
   7146.00  5.8915903E-01
   7146.33  5.8646241E-01
   7146.67  5.8354097E-01
   7147.00  5.8023436E-01
   7147.33  5.7632069E-01
   7147.67  5.7176021E-01
   7148.00  5.6650327E-01
   7148.33  5.6045187E-01
   7148.67  5.5373084E-01
   7149.00  5.4640057E-01
   7149.33  5.3849022E-01
   7149.67  5.3017276E-01
   7150.00  5.2154371E-01
   7150.33  5.1268394E-01
   7150.67  5.0371611E-01
   7151.00  4.9471409E-01
   7151.33  4.8575898E-01
   7151.67  4.7691639E-01
   7152.00  4.6823924E-01
   7152.33  4.5980866E-01
   7152.67  4.5164790E-01
   7153.00  4.4379275E-01
   7153.33  4.3632495E-01
   7153.67  4.2924388E-01
   7154.00  4.2259094E-01
   7154.33  4.1647870E-01
   7154.67  4.1089910E-01
   7155.00  4.0588801E-01
   7155.33  4.0153215E-01
   7155.67  3.9772163E-01
   7156.00  3.9437048E-01
   7156.33  3.9134837E-01
   7156.67  3.8839647E-01
   7157.00  3.8530443E-01
   7157.33  3.8179307E-01
   7157.67  3.7772873E-01
   7158.00  3.7302158E-01
   7158.33  3.6756643E-01
   7158.67  3.6150367E-01
   7159.00  3.5493107E-01
   7159.33  3.4795391E-01
   7159.67  3.4078989E-01
   7160.00  3.3359547E-01
   7160.33  3.2656878E-01
   7160.67  3.1986177E-01
   7161.00  3.1361065E-01
   7161.33  3.0802957E-01
   7161.67  3.0315726E-01
   7162.00  2.9906651E-01
   7162.33  2.9591318E-01
   7162.67  2.9360304E-01
   7163.00  2.9211471E-01
   7163.33  2.9150354E-01
   7163.67  2.9161773E-01
   7164.00  2.9240449E-01
   7164.33  2.9388009E-01
   7164.67  2.9591585E-01
   7165.00  2.9847554E-01
   7165.33  3.0158646E-01
   7165.67  3.0515749E-01
   7166.00  3.0916313E-01
   7166.33  3.1362139E-01
   7166.67  3.1844434E-01
   7167.00  3.2359402E-01
   7167.33  3.2905415E-01
   7167.67  3.3473340E-01
   7168.00  3.4057963E-01
   7168.33  3.4654343E-01
   7168.67  3.5254836E-01
   7169.00  3.5854050E-01
   7169.33  3.6445084E-01
   7169.67  3.7023260E-01
   7170.00  3.7584082E-01
   7170.33  3.8119754E-01
   7170.67  3.8627942E-01
   7171.00  3.9103550E-01
   7171.33  3.9533024E-01
   7171.67  3.9907074E-01
   7172.00  4.0207371E-01
