    FDMNES
    energy     <xanes>
   7097.00  4.6911069E-03
   7097.33  4.7951313E-03
   7097.67  4.9035561E-03
   7098.00  5.0166628E-03
   7098.33  5.1354431E-03
   7098.67  5.2596674E-03
   7099.00  5.3897155E-03
   7099.33  5.5268678E-03
   7099.67  5.6708855E-03
   7100.00  5.8222945E-03
   7100.33  5.9827919E-03
   7100.67  6.1521467E-03
   7101.00  6.3311113E-03
   7101.33  6.5220062E-03
   7101.67  6.7246480E-03
   7102.00  6.9401556E-03
   7102.33  7.1718246E-03
   7102.67  7.4196106E-03
   7103.00  7.6852564E-03
   7103.33  7.9736708E-03
   7103.67  8.2851588E-03
   7104.00  8.6225996E-03
   7104.33  8.9937601E-03
   7104.67  9.3998110E-03
   7105.00  9.8458807E-03
   7105.33  1.0345269E-02
   7105.67  1.0901394E-02
   7106.00  1.1524348E-02
   7106.33  1.2239493E-02
   7106.67  1.3056679E-02
   7107.00  1.3998731E-02
   7107.33  1.5122035E-02
   7107.67  1.6458188E-02
   7108.00  1.8070536E-02
   7108.33  2.0117510E-02
   7108.67  2.2726791E-02
   7109.00  2.6141384E-02
   7109.33  3.1013534E-02
   7109.67  3.8120384E-02
   7110.00  4.9005575E-02
   7110.33  6.8125062E-02
   7110.67  9.9483571E-02
   7111.00  1.3926621E-01
   7111.33  1.5940541E-01
   7111.67  1.5663961E-01
   7112.00  1.5198625E-01
   7112.33  1.6363429E-01
   7112.67  1.9209866E-01
   7113.00  2.3283543E-01
   7113.33  2.6788816E-01
   7113.67  2.7798700E-01
   7114.00  2.6709061E-01
   7114.33  2.5055542E-01
   7114.67  2.3059910E-01
   7115.00  1.9949595E-01
   7115.33  1.6196967E-01
   7115.67  1.3323192E-01
   7116.00  1.1611312E-01
   7116.33  1.0949501E-01
   7116.67  1.1012740E-01
   7117.00  1.1721155E-01
   7117.33  1.3101346E-01
   7117.67  1.4918827E-01
   7118.00  1.6838305E-01
   7118.33  1.8545729E-01
   7118.67  2.0276855E-01
   7119.00  2.2172019E-01
   7119.33  2.3705790E-01
   7119.67  2.4397777E-01
   7120.00  2.4404495E-01
   7120.33  2.4158155E-01
   7120.67  2.3944596E-01
   7121.00  2.3894654E-01
   7121.33  2.4231108E-01
   7121.67  2.5049416E-01
   7122.00  2.6400567E-01
   7122.33  2.8378496E-01
   7122.67  3.0892597E-01
   7123.00  3.3829181E-01
   7123.33  3.6955065E-01
   7123.67  3.9978440E-01
   7124.00  4.2716832E-01
   7124.33  4.5042035E-01
   7124.67  4.7031889E-01
   7125.00  4.8684923E-01
   7125.33  4.9974474E-01
   7125.67  5.1048783E-01
   7126.00  5.2001131E-01
   7126.33  5.2831491E-01
   7126.67  5.3545955E-01
   7127.00  5.4205694E-01
   7127.33  5.4866639E-01
   7127.67  5.5383760E-01
   7128.00  5.5512346E-01
   7128.33  5.5054285E-01
   7128.67  5.4246081E-01
   7129.00  5.3364832E-01
   7129.33  5.2686133E-01
   7129.67  5.2268390E-01
   7130.00  5.2069819E-01
   7130.33  5.1982236E-01
   7130.67  5.1846841E-01
   7131.00  5.1571265E-01
   7131.33  5.1129623E-01
   7131.67  5.0638246E-01
   7132.00  5.0214963E-01
   7132.33  4.9998990E-01
   7132.67  5.0023991E-01
   7133.00  5.0272586E-01
   7133.33  5.0693251E-01
   7133.67  5.1217599E-01
   7134.00  5.1839089E-01
   7134.33  5.2563009E-01
   7134.67  5.3362031E-01
   7135.00  5.4227476E-01
   7135.33  5.5165305E-01
   7135.67  5.6156013E-01
   7136.00  5.7163903E-01
   7136.33  5.8102630E-01
   7136.67  5.8885891E-01
   7137.00  5.9458282E-01
   7137.33  5.9796430E-01
   7137.67  6.0001810E-01
   7138.00  6.0171040E-01
   7138.33  6.0420798E-01
   7138.67  6.0810462E-01
   7139.00  6.1352682E-01
   7139.33  6.2026688E-01
   7139.67  6.2751918E-01
   7140.00  6.3471528E-01
   7140.33  6.4133176E-01
   7140.67  6.4724870E-01
   7141.00  6.5248516E-01
   7141.33  6.5712355E-01
   7141.67  6.6144097E-01
   7142.00  6.6560837E-01
   7142.33  6.6974523E-01
   7142.67  6.7385077E-01
   7143.00  6.7781108E-01
   7143.33  6.8134234E-01
   7143.67  6.8419478E-01
   7144.00  6.8610991E-01
   7144.33  6.8668488E-01
   7144.67  6.8591168E-01
   7145.00  6.8376423E-01
   7145.33  6.8020240E-01
   7145.67  6.7564363E-01
   7146.00  6.7037765E-01
   7146.33  6.6469910E-01
   7146.67  6.5892551E-01
   7147.00  6.5319207E-01
   7147.33  6.4754489E-01
   7147.67  6.4191173E-01
   7148.00  6.3619697E-01
   7148.33  6.3025815E-01
   7148.67  6.2403082E-01
   7149.00  6.1748389E-01
   7149.33  6.1059901E-01
   7149.67  6.0348013E-01
   7150.00  5.9621151E-01
   7150.33  5.8889954E-01
   7150.67  5.8165478E-01
   7151.00  5.7455111E-01
   7151.33  5.6766866E-01
   7151.67  5.6100146E-01
   7152.00  5.5453793E-01
   7152.33  5.4825963E-01
   7152.67  5.4208978E-01
   7153.00  5.3597463E-01
   7153.33  5.2985278E-01
   7153.67  5.2367488E-01
   7154.00  5.1741148E-01
   7154.33  5.1103378E-01
   7154.67  5.0455848E-01
   7155.00  4.9800370E-01
   7155.33  4.9139694E-01
   7155.67  4.8478372E-01
   7156.00  4.7819685E-01
   7156.33  4.7167113E-01
   7156.67  4.6521157E-01
   7157.00  4.5881386E-01
   7157.33  4.5246252E-01
   7157.67  4.4612275E-01
   7158.00  4.3977126E-01
   7158.33  4.3339242E-01
   7158.67  4.2700226E-01
   7159.00  4.2063876E-01
   7159.33  4.1438866E-01
   7159.67  4.0833574E-01
   7160.00  4.0257381E-01
   7160.33  3.9726416E-01
   7160.67  3.9245490E-01
   7161.00  3.8821110E-01
   7161.33  3.8465411E-01
   7161.67  3.8171903E-01
   7162.00  3.7939558E-01
   7162.33  3.7772366E-01
   7162.67  3.7658088E-01
   7163.00  3.7591595E-01
   7163.33  3.7571672E-01
   7163.67  3.7586781E-01
   7164.00  3.7631811E-01
   7164.33  3.7704527E-01
   7164.67  3.7797348E-01
   7165.00  3.7907047E-01
   7165.33  3.8032215E-01
   7165.67  3.8168432E-01
   7166.00  3.8313639E-01
   7166.33  3.8466775E-01
   7166.67  3.8625460E-01
   7167.00  3.8788659E-01
   7167.33  3.8955901E-01
   7167.67  3.9126150E-01
   7168.00  3.9299211E-01
   7168.33  3.9475633E-01
   7168.67  3.9655605E-01
   7169.00  3.9839835E-01
   7169.33  4.0029980E-01
   7169.67  4.0226417E-01
   7170.00  4.0429860E-01
   7170.33  4.0641511E-01
   7170.67  4.0859577E-01
   7171.00  4.1081608E-01
   7171.33  4.1300845E-01
   7171.67  4.1504371E-01
   7172.00  4.1674187E-01
