    FDMNES
    energy     <xanes>
   7097.00  5.2601533E-03
   7097.33  5.3877479E-03
   7097.67  5.5212463E-03
   7098.00  5.6610507E-03
   7098.33  5.8085318E-03
   7098.67  5.9634128E-03
   7099.00  6.1262409E-03
   7099.33  6.2988075E-03
   7099.67  6.4808275E-03
   7100.00  6.6730640E-03
   7100.33  6.8779172E-03
   7100.67  7.0951184E-03
   7101.00  7.3257634E-03
   7101.33  7.5731635E-03
   7101.67  7.8371219E-03
   7102.00  8.1192679E-03
   7102.33  8.4243310E-03
   7102.67  8.7523086E-03
   7103.00  9.1057266E-03
   7103.33  9.4916313E-03
   7103.67  9.9104900E-03
   7104.00  1.0366423E-02
   7104.33  1.0870494E-02
   7104.67  1.1424287E-02
   7105.00  1.2034970E-02
   7105.33  1.2721118E-02
   7105.67  1.3487076E-02
   7106.00  1.4346394E-02
   7106.33  1.5333164E-02
   7106.67  1.6459132E-02
   7107.00  1.7753030E-02
   7107.33  1.9285734E-02
   7107.67  2.1091809E-02
   7108.00  2.3243334E-02
   7108.33  2.5918340E-02
   7108.67  2.9240095E-02
   7109.00  3.3445657E-02
   7109.33  3.9149951E-02
   7109.67  4.6985504E-02
   7110.00  5.8186186E-02
   7110.33  7.6223599E-02
   7110.67  1.0452163E-01
   7111.00  1.4366108E-01
   7111.33  1.8605040E-01
   7111.67  2.3133143E-01
   7112.00  2.8508226E-01
   7112.33  3.4680892E-01
   7112.67  4.0990767E-01
   7113.00  4.7645761E-01
   7113.33  5.4624330E-01
   7113.67  5.7192446E-01
   7114.00  5.1869259E-01
   7114.33  4.2694662E-01
   7114.67  3.5106288E-01
   7115.00  3.0098054E-01
   7115.33  2.7489982E-01
   7115.67  2.6140948E-01
   7116.00  2.5185634E-01
   7116.33  2.3885644E-01
   7116.67  2.2262660E-01
   7117.00  2.0577255E-01
   7117.33  1.9087155E-01
   7117.67  1.7850720E-01
   7118.00  1.6842291E-01
   7118.33  1.6037836E-01
   7118.67  1.5404784E-01
   7119.00  1.4939817E-01
   7119.33  1.4619902E-01
   7119.67  1.4358747E-01
   7120.00  1.4103046E-01
   7120.33  1.3844771E-01
   7120.67  1.3633262E-01
   7121.00  1.3522063E-01
   7121.33  1.3565214E-01
   7121.67  1.3742323E-01
   7122.00  1.4043445E-01
   7122.33  1.4485931E-01
   7122.67  1.5067825E-01
   7123.00  1.5804353E-01
   7123.33  1.6723658E-01
   7123.67  1.7797569E-01
   7124.00  1.9039209E-01
   7124.33  2.0570730E-01
   7124.67  2.2489746E-01
   7125.00  2.4876056E-01
   7125.33  2.7811667E-01
   7125.67  3.1154107E-01
   7126.00  3.4698311E-01
   7126.33  3.7983262E-01
   7126.67  4.0571847E-01
   7127.00  4.2262833E-01
   7127.33  4.3148716E-01
   7127.67  4.3895402E-01
   7128.00  4.5055086E-01
   7128.33  4.7124232E-01
   7128.67  5.0089619E-01
   7129.00  5.3856040E-01
   7129.33  5.8200283E-01
   7129.67  6.2622611E-01
   7130.00  6.6765357E-01
   7130.33  7.0380268E-01
   7130.67  7.3640966E-01
   7131.00  7.6797919E-01
   7131.33  8.0168882E-01
   7131.67  8.3875506E-01
   7132.00  8.7845449E-01
   7132.33  9.1728309E-01
   7132.67  9.4989699E-01
   7133.00  9.7135192E-01
   7133.33  9.7578402E-01
   7133.67  9.6455837E-01
   7134.00  9.3980030E-01
   7134.33  9.0396522E-01
   7134.67  8.6168743E-01
   7135.00  8.1538480E-01
   7135.33  7.6731758E-01
   7135.67  7.1974020E-01
   7136.00  6.7399351E-01
   7136.33  6.3147610E-01
   7136.67  5.9244457E-01
   7137.00  5.5725201E-01
   7137.33  5.2677219E-01
   7137.67  5.0080174E-01
   7138.00  4.7954659E-01
   7138.33  4.6365683E-01
   7138.67  4.5230303E-01
   7139.00  4.4504528E-01
   7139.33  4.4160362E-01
   7139.67  4.4081018E-01
   7140.00  4.4211891E-01
   7140.33  4.4527627E-01
   7140.67  4.4979701E-01
   7141.00  4.5553861E-01
   7141.33  4.6252079E-01
   7141.67  4.7048577E-01
   7142.00  4.7930327E-01
   7142.33  4.8885998E-01
   7142.67  4.9883158E-01
   7143.00  5.0897931E-01
   7143.33  5.1898812E-01
   7143.67  5.2856963E-01
   7144.00  5.3747577E-01
   7144.33  5.4533563E-01
   7144.67  5.5206614E-01
   7145.00  5.5755183E-01
   7145.33  5.6156786E-01
   7145.67  5.6429545E-01
   7146.00  5.6580967E-01
   7146.33  5.6612546E-01
   7146.67  5.6557540E-01
   7147.00  5.6435677E-01
   7147.33  5.6264978E-01
   7147.67  5.6073389E-01
   7148.00  5.5879690E-01
   7148.33  5.5705341E-01
   7148.67  5.5564008E-01
   7149.00  5.5466491E-01
   7149.33  5.5428534E-01
   7149.67  5.5448712E-01
   7150.00  5.5528327E-01
   7150.33  5.5672563E-01
   7150.67  5.5868828E-01
   7151.00  5.6110180E-01
   7151.33  5.6390925E-01
   7151.67  5.6695370E-01
   7152.00  5.7013591E-01
   7152.33  5.7335069E-01
   7152.67  5.7650072E-01
   7153.00  5.7952221E-01
   7153.33  5.8233918E-01
   7153.67  5.8493865E-01
   7154.00  5.8730068E-01
   7154.33  5.8939053E-01
   7154.67  5.9124753E-01
   7155.00  5.9288325E-01
   7155.33  5.9428619E-01
   7155.67  5.9549533E-01
   7156.00  5.9652015E-01
   7156.33  5.9734767E-01
   7156.67  5.9800645E-01
   7157.00  5.9850032E-01
   7157.33  5.9881052E-01
   7157.67  5.9895589E-01
   7158.00  5.9893273E-01
   7158.33  5.9870995E-01
   7158.67  5.9829709E-01
   7159.00  5.9768079E-01
   7159.33  5.9681414E-01
   7159.67  5.9570255E-01
   7160.00  5.9432517E-01
   7160.33  5.9262107E-01
   7160.67  5.9060306E-01
   7161.00  5.8825540E-01
   7161.33  5.8552395E-01
   7161.67  5.8244367E-01
   7162.00  5.7901554E-01
   7162.33  5.7521367E-01
   7162.67  5.7110374E-01
   7163.00  5.6670910E-01
   7163.33  5.6202565E-01
   7163.67  5.5711180E-01
   7164.00  5.5198806E-01
   7164.33  5.4665088E-01
   7164.67  5.4114091E-01
   7165.00  5.3547233E-01
   7165.33  5.2964473E-01
   7165.67  5.2369478E-01
   7166.00  5.1764193E-01
   7166.33  5.1150349E-01
   7166.67  5.0531889E-01
   7167.00  4.9911603E-01
   7167.33  4.9293291E-01
   7167.67  4.8680599E-01
   7168.00  4.8076883E-01
   7168.33  4.7487354E-01
   7168.67  4.6913806E-01
   7169.00  4.6358835E-01
   7169.33  4.5827547E-01
   7169.67  4.5319544E-01
   7170.00  4.4836690E-01
   7170.33  4.4384460E-01
   7170.67  4.3961768E-01
   7171.00  4.3571297E-01
   7171.33  4.3222794E-01
   7171.67  4.2920984E-01
   7172.00  4.2678083E-01
