    FDMNES
    energy     <xanes>
   7097.00  4.8761530E-03
   7097.33  4.9870530E-03
   7097.67  5.1027021E-03
   7098.00  5.2234045E-03
   7098.33  5.3502302E-03
   7098.67  5.4829312E-03
   7099.00  5.6219164E-03
   7099.33  5.7685657E-03
   7099.67  5.9226187E-03
   7100.00  6.0846396E-03
   7100.33  6.2564517E-03
   7100.67  6.4377989E-03
   7101.00  6.6294829E-03
   7101.33  6.8339848E-03
   7101.67  7.0510901E-03
   7102.00  7.2819793E-03
   7102.33  7.5301490E-03
   7102.67  7.7955108E-03
   7103.00  8.0798781E-03
   7103.33  8.3883955E-03
   7103.67  8.7212911E-03
   7104.00  9.0815001E-03
   7104.33  9.4770076E-03
   7104.67  9.9088086E-03
   7105.00  1.0381975E-02
   7105.33  1.0909778E-02
   7105.67  1.1495121E-02
   7106.00  1.2147541E-02
   7106.33  1.2891177E-02
   7106.67  1.3734056E-02
   7107.00  1.4696289E-02
   7107.33  1.5827620E-02
   7107.67  1.7151792E-02
   7108.00  1.8718810E-02
   7108.33  2.0652161E-02
   7108.67  2.3035667E-02
   7109.00  2.6030852E-02
   7109.33  3.0054552E-02
   7109.67  3.5524751E-02
   7110.00  4.3251869E-02
   7110.33  5.5479199E-02
   7110.67  7.4255264E-02
   7111.00  9.9909837E-02
   7111.33  1.3290236E-01
   7111.67  1.7811301E-01
   7112.00  2.3037052E-01
   7112.33  2.7946802E-01
   7112.67  3.2314776E-01
   7113.00  3.4665012E-01
   7113.33  3.3283534E-01
   7113.67  3.2110466E-01
   7114.00  3.0518031E-01
   7114.33  2.6973277E-01
   7114.67  2.3262194E-01
   7115.00  1.9040093E-01
   7115.33  1.5011870E-01
   7115.67  1.2653947E-01
   7116.00  1.1951528E-01
   7116.33  1.2774525E-01
   7116.67  1.4592556E-01
   7117.00  1.6623114E-01
   7117.33  1.7405944E-01
   7117.67  1.6874427E-01
   7118.00  1.5903048E-01
   7118.33  1.5381437E-01
   7118.67  1.5528093E-01
   7119.00  1.6348831E-01
   7119.33  1.7838011E-01
   7119.67  1.9744323E-01
   7120.00  2.1827544E-01
   7120.33  2.3736041E-01
   7120.67  2.5241462E-01
   7121.00  2.6301052E-01
   7121.33  2.6986812E-01
   7121.67  2.7483523E-01
   7122.00  2.7876937E-01
   7122.33  2.8257841E-01
   7122.67  2.8742708E-01
   7123.00  2.9435132E-01
   7123.33  3.0467286E-01
   7123.67  3.1853660E-01
   7124.00  3.3630132E-01
   7124.33  3.5893009E-01
   7124.67  3.8558717E-01
   7125.00  4.1470398E-01
   7125.33  4.4303594E-01
   7125.67  4.6788049E-01
   7126.00  4.8819965E-01
   7126.33  5.0285423E-01
   7126.67  5.1239253E-01
   7127.00  5.1810838E-01
   7127.33  5.2247201E-01
   7127.67  5.2802979E-01
   7128.00  5.3654585E-01
   7128.33  5.5052659E-01
   7128.67  5.7065565E-01
   7129.00  5.9708652E-01
   7129.33  6.2939552E-01
   7129.67  6.6481937E-01
   7130.00  7.0097492E-01
   7130.33  7.3375491E-01
   7130.67  7.5825491E-01
   7131.00  7.6992614E-01
   7131.33  7.6649910E-01
   7131.67  7.5623959E-01
   7132.00  7.4678851E-01
   7132.33  7.4475923E-01
   7132.67  7.5074672E-01
   7133.00  7.6358323E-01
   7133.33  7.8092947E-01
   7133.67  7.9884047E-01
   7134.00  8.1471009E-01
   7134.33  8.2612343E-01
   7134.67  8.3274417E-01
   7135.00  8.3435320E-01
   7135.33  8.3051538E-01
   7135.67  8.2253410E-01
   7136.00  8.1131352E-01
   7136.33  7.9763911E-01
   7136.67  7.8262472E-01
   7137.00  7.6679871E-01
   7137.33  7.5055661E-01
   7137.67  7.3426599E-01
   7138.00  7.1815260E-01
   7138.33  7.0248722E-01
   7138.67  6.8739113E-01
   7139.00  6.7296467E-01
   7139.33  6.5935507E-01
   7139.67  6.4646422E-01
   7140.00  6.3423754E-01
   7140.33  6.2262417E-01
   7140.67  6.1138119E-01
   7141.00  6.0032195E-01
   7141.33  5.8920337E-01
   7141.67  5.7782109E-01
   7142.00  5.6605635E-01
   7142.33  5.5382797E-01
   7142.67  5.4128411E-01
   7143.00  5.2859099E-01
   7143.33  5.1598856E-01
   7143.67  5.0365840E-01
   7144.00  4.9172023E-01
   7144.33  4.8032713E-01
   7144.67  4.6946512E-01
   7145.00  4.5914972E-01
   7145.33  4.4945934E-01
   7145.67  4.4034294E-01
   7146.00  4.3183278E-01
   7146.33  4.2406696E-01
   7146.67  4.1702911E-01
   7147.00  4.1077638E-01
   7147.33  4.0547009E-01
   7147.67  4.0104230E-01
   7148.00  3.9750693E-01
   7148.33  3.9497308E-01
   7148.67  3.9332105E-01
   7149.00  3.9254284E-01
   7149.33  3.9271983E-01
   7149.67  3.9371261E-01
   7150.00  3.9549019E-01
   7150.33  3.9809999E-01
   7150.67  4.0138848E-01
   7151.00  4.0528168E-01
   7151.33  4.0974067E-01
   7151.67  4.1460110E-01
   7152.00  4.1977078E-01
   7152.33  4.2515768E-01
   7152.67  4.3061615E-01
   7153.00  4.3604282E-01
   7153.33  4.4130220E-01
   7153.67  4.4630113E-01
   7154.00  4.5094960E-01
   7154.33  4.5509642E-01
   7154.67  4.5871454E-01
   7155.00  4.6174444E-01
   7155.33  4.6405393E-01
   7155.67  4.6568791E-01
   7156.00  4.6663162E-01
   7156.33  4.6680594E-01
   7156.67  4.6632951E-01
   7157.00  4.6525001E-01
   7157.33  4.6357288E-01
   7157.67  4.6144817E-01
   7158.00  4.5895294E-01
   7158.33  4.5614204E-01
   7158.67  4.5313451E-01
   7159.00  4.4999422E-01
   7159.33  4.4677431E-01
   7159.67  4.4353213E-01
   7160.00  4.4029927E-01
   7160.33  4.3710628E-01
   7160.67  4.3396578E-01
   7161.00  4.3088720E-01
   7161.33  4.2788614E-01
   7161.67  4.2495883E-01
   7162.00  4.2211014E-01
   7162.33  4.1936012E-01
   7162.67  4.1670550E-01
   7163.00  4.1414913E-01
   7163.33  4.1170569E-01
   7163.67  4.0936833E-01
   7164.00  4.0714634E-01
   7164.33  4.0507209E-01
   7164.67  4.0315042E-01
   7165.00  4.0140314E-01
   7165.33  3.9988413E-01
   7165.67  3.9859701E-01
   7166.00  3.9756374E-01
   7166.33  3.9683595E-01
   7166.67  3.9638601E-01
   7167.00  3.9620920E-01
   7167.33  3.9631971E-01
   7167.67  3.9665578E-01
   7168.00  3.9718380E-01
   7168.33  3.9787706E-01
   7168.67  3.9867057E-01
   7169.00  3.9952673E-01
   7169.33  4.0041092E-01
   7169.67  4.0129088E-01
   7170.00  4.0214866E-01
   7170.33  4.0296634E-01
   7170.67  4.0374093E-01
   7171.00  4.0446805E-01
   7171.33  4.0513200E-01
   7171.67  4.0571747E-01
   7172.00  4.0618892E-01
