    FDMNES
    energy     <xanes>
   7097.00  5.1072671E-03
   7097.33  5.2303908E-03
   7097.67  5.3592823E-03
   7098.00  5.4943458E-03
   7098.33  5.6369397E-03
   7098.67  5.7868109E-03
   7099.00  5.9445155E-03
   7099.33  6.1118478E-03
   7099.67  6.2885559E-03
   7100.00  6.4754268E-03
   7100.33  6.6748960E-03
   7100.67  6.8867463E-03
   7101.00  7.1121287E-03
   7101.33  7.3544590E-03
   7101.67  7.6136283E-03
   7102.00  7.8913868E-03
   7102.33  8.1927184E-03
   7102.67  8.5177865E-03
   7103.00  8.8693813E-03
   7103.33  9.2551356E-03
   7103.67  9.6758628E-03
   7104.00  1.0136279E-02
   7104.33  1.0648806E-02
   7104.67  1.1215830E-02
   7105.00  1.1845933E-02
   7105.33  1.2560981E-02
   7105.67  1.3367379E-02
   7106.00  1.4282341E-02
   7106.33  1.5348592E-02
   7106.67  1.6583917E-02
   7107.00  1.8027732E-02
   7107.33  1.9776633E-02
   7107.67  2.1886189E-02
   7108.00  2.4465689E-02
   7108.33  2.7786493E-02
   7108.67  3.2065321E-02
   7109.00  3.7710041E-02
   7109.33  4.5800675E-02
   7109.67  5.7578110E-02
   7110.00  7.5477584E-02
   7110.33  1.0652770E-01
   7110.67  1.5819072E-01
   7111.00  2.3152013E-01
   7111.33  3.0084030E-01
   7111.67  3.4747132E-01
   7112.00  3.6820837E-01
   7112.33  3.6600930E-01
   7112.67  3.5667744E-01
   7113.00  3.2274670E-01
   7113.33  2.6727529E-01
   7113.67  2.2015137E-01
   7114.00  1.9022218E-01
   7114.33  1.7851645E-01
   7114.67  1.8156799E-01
   7115.00  2.0020519E-01
   7115.33  2.3741211E-01
   7115.67  2.8398059E-01
   7116.00  3.2234769E-01
   7116.33  3.3182453E-01
   7116.67  3.1263014E-01
   7117.00  2.7261113E-01
   7117.33  2.3076135E-01
   7117.67  1.9931660E-01
   7118.00  1.7965874E-01
   7118.33  1.7066872E-01
   7118.67  1.6735758E-01
   7119.00  1.6618795E-01
   7119.33  1.6514790E-01
   7119.67  1.6546425E-01
   7120.00  1.6871684E-01
   7120.33  1.7575056E-01
   7120.67  1.8469843E-01
   7121.00  1.9227893E-01
   7121.33  1.9270885E-01
   7121.67  1.8720593E-01
   7122.00  1.8158784E-01
   7122.33  1.8122274E-01
   7122.67  1.8560376E-01
   7123.00  1.9342348E-01
   7123.33  2.0373850E-01
   7123.67  2.1547317E-01
   7124.00  2.2793171E-01
   7124.33  2.4036193E-01
   7124.67  2.5232565E-01
   7125.00  2.6368124E-01
   7125.33  2.7479042E-01
   7125.67  2.8661926E-01
   7126.00  2.9963150E-01
   7126.33  3.1387429E-01
   7126.67  3.2941813E-01
   7127.00  3.4693316E-01
   7127.33  3.6727343E-01
   7127.67  3.8985293E-01
   7128.00  4.1395926E-01
   7128.33  4.3860896E-01
   7128.67  4.6288960E-01
   7129.00  4.8667116E-01
   7129.33  5.1035513E-01
   7129.67  5.3415155E-01
   7130.00  5.5776793E-01
   7130.33  5.8039676E-01
   7130.67  6.0126896E-01
   7131.00  6.1955290E-01
   7131.33  6.3375302E-01
   7131.67  6.4351761E-01
   7132.00  6.4888390E-01
   7132.33  6.5091768E-01
   7132.67  6.5260509E-01
   7133.00  6.5613774E-01
   7133.33  6.6304297E-01
   7133.67  6.7246693E-01
   7134.00  6.8376863E-01
   7134.33  6.9697434E-01
   7134.67  7.1107595E-01
   7135.00  7.2394976E-01
   7135.33  7.3148893E-01
   7135.67  7.3140765E-01
   7136.00  7.2287679E-01
   7136.33  7.0612480E-01
   7136.67  6.8460504E-01
   7137.00  6.6073279E-01
   7137.33  6.3692718E-01
   7137.67  6.1493611E-01
   7138.00  5.9574192E-01
   7138.33  5.8041764E-01
   7138.67  5.6882542E-01
   7139.00  5.6105768E-01
   7139.33  5.5759357E-01
   7139.67  5.5786455E-01
   7140.00  5.6170800E-01
   7140.33  5.6920668E-01
   7140.67  5.7946044E-01
   7141.00  5.9191285E-01
   7141.33  6.0599219E-01
   7141.67  6.2074412E-01
   7142.00  6.3556409E-01
   7142.33  6.4981622E-01
   7142.67  6.6314901E-01
   7143.00  6.7531451E-01
   7143.33  6.8593571E-01
   7143.67  6.9502928E-01
   7144.00  7.0248697E-01
   7144.33  7.0799407E-01
   7144.67  7.1169210E-01
   7145.00  7.1353845E-01
   7145.33  7.1332246E-01
   7145.67  7.1139703E-01
   7146.00  7.0795623E-01
   7146.33  7.0315903E-01
   7146.67  6.9751512E-01
   7147.00  6.9133177E-01
   7147.33  6.8489203E-01
   7147.67  6.7845451E-01
   7148.00  6.7214597E-01
   7148.33  6.6606696E-01
   7148.67  6.6020264E-01
   7149.00  6.5452208E-01
   7149.33  6.4897252E-01
   7149.67  6.4345534E-01
   7150.00  6.3789668E-01
   7150.33  6.3219438E-01
   7150.67  6.2628577E-01
   7151.00  6.2012093E-01
   7151.33  6.1363752E-01
   7151.67  6.0687437E-01
   7152.00  5.9986117E-01
   7152.33  5.9264311E-01
   7152.67  5.8533902E-01
   7153.00  5.7804862E-01
   7153.33  5.7092790E-01
   7153.67  5.6409741E-01
   7154.00  5.5765720E-01
   7154.33  5.5176575E-01
   7154.67  5.4644191E-01
   7155.00  5.4173820E-01
   7155.33  5.3777636E-01
   7155.67  5.3448846E-01
   7156.00  5.3186832E-01
   7156.33  5.2996977E-01
   7156.67  5.2866905E-01
   7157.00  5.2791760E-01
   7157.33  5.2770932E-01
   7157.67  5.2791054E-01
   7158.00  5.2845579E-01
   7158.33  5.2930234E-01
   7158.67  5.3034402E-01
   7159.00  5.3152380E-01
   7159.33  5.3279265E-01
   7159.67  5.3408834E-01
   7160.00  5.3536746E-01
   7160.33  5.3656719E-01
   7160.67  5.3763665E-01
   7161.00  5.3851998E-01
   7161.33  5.3911607E-01
   7161.67  5.3938640E-01
   7162.00  5.3927584E-01
   7162.33  5.3867762E-01
   7162.67  5.3760664E-01
   7163.00  5.3604259E-01
   7163.33  5.3391413E-01
   7163.67  5.3129692E-01
   7164.00  5.2821659E-01
   7164.33  5.2465632E-01
   7164.67  5.2070839E-01
   7165.00  5.1640623E-01
   7165.33  5.1174878E-01
   7165.67  5.0681505E-01
   7166.00  5.0164304E-01
   7166.33  4.9625557E-01
   7166.67  4.9072201E-01
   7167.00  4.8508276E-01
   7167.33  4.7938139E-01
   7167.67  4.7367863E-01
   7168.00  4.6802203E-01
   7168.33  4.6248256E-01
   7168.67  4.5710535E-01
   7169.00  4.5193481E-01
   7169.33  4.4704480E-01
   7169.67  4.4243530E-01
   7170.00  4.3812663E-01
   7170.33  4.3417678E-01
   7170.67  4.3056058E-01
   7171.00  4.2729134E-01
   7171.33  4.2444047E-01
   7171.67  4.2201295E-01
   7172.00  4.2007879E-01
