    FDMNES
    energy     <xanes>
   7097.00  4.5915406E-03
   7097.33  4.6858344E-03
   7097.67  4.7838243E-03
   7098.00  4.8857332E-03
   7098.33  4.9923715E-03
   7098.67  5.1035289E-03
   7099.00  5.2195033E-03
   7099.33  5.3413287E-03
   7099.67  5.4687841E-03
   7100.00  5.6022784E-03
   7100.33  5.7431664E-03
   7100.67  5.8912288E-03
   7101.00  6.0470468E-03
   7101.33  6.2124520E-03
   7101.67  6.3872579E-03
   7102.00  6.5723233E-03
   7102.33  6.7702253E-03
   7102.67  6.9808792E-03
   7103.00  7.2056193E-03
   7103.33  7.4482551E-03
   7103.67  7.7089674E-03
   7104.00  7.9899603E-03
   7104.33  8.2972332E-03
   7104.67  8.6316363E-03
   7105.00  8.9971066E-03
   7105.33  9.4039074E-03
   7105.67  9.8546422E-03
   7106.00  1.0357103E-02
   7106.33  1.0930910E-02
   7106.67  1.1583717E-02
   7107.00  1.2333258E-02
   7107.33  1.3223365E-02
   7107.67  1.4278741E-02
   7108.00  1.5548787E-02
   7108.33  1.7156910E-02
   7108.67  1.9202409E-02
   7109.00  2.1873630E-02
   7109.33  2.5673919E-02
   7109.67  3.1195992E-02
   7110.00  3.9610506E-02
   7110.33  5.4267455E-02
   7110.67  7.8106946E-02
   7111.00  1.0870148E-01
   7111.33  1.3136003E-01
   7111.67  1.4525396E-01
   7112.00  1.5563623E-01
   7112.33  1.6635766E-01
   7112.67  1.7309592E-01
   7113.00  1.6493885E-01
   7113.33  1.4008475E-01
   7113.67  1.1436885E-01
   7114.00  9.4861008E-02
   7114.33  8.3597538E-02
   7114.67  7.8292525E-02
   7115.00  7.7686679E-02
   7115.33  8.1010061E-02
   7115.67  8.6758245E-02
   7116.00  9.4068052E-02
   7116.33  1.0217067E-01
   7116.67  1.1041921E-01
   7117.00  1.1861839E-01
   7117.33  1.2680384E-01
   7117.67  1.3514639E-01
   7118.00  1.4376665E-01
   7118.33  1.5272528E-01
   7118.67  1.6192809E-01
   7119.00  1.7138176E-01
   7119.33  1.8131432E-01
   7119.67  1.9196455E-01
   7120.00  2.0356893E-01
   7120.33  2.1648142E-01
   7120.67  2.3071708E-01
   7121.00  2.4643519E-01
   7121.33  2.6414877E-01
   7121.67  2.8407159E-01
   7122.00  3.0666013E-01
   7122.33  3.3279769E-01
   7122.67  3.6222596E-01
   7123.00  3.9442055E-01
   7123.33  4.2791231E-01
   7123.67  4.6051874E-01
   7124.00  4.9124556E-01
   7124.33  5.2046741E-01
   7124.67  5.4991964E-01
   7125.00  5.8031640E-01
   7125.33  6.1043735E-01
   7125.67  6.3709060E-01
   7126.00  6.5713348E-01
   7126.33  6.6756345E-01
   7126.67  6.7044546E-01
   7127.00  6.6822690E-01
   7127.33  6.6350423E-01
   7127.67  6.5836485E-01
   7128.00  6.5348214E-01
   7128.33  6.4914126E-01
   7128.67  6.4532545E-01
   7129.00  6.4209562E-01
   7129.33  6.3966664E-01
   7129.67  6.3808377E-01
   7130.00  6.3742498E-01
   7130.33  6.3780796E-01
   7130.67  6.3899070E-01
   7131.00  6.4075906E-01
   7131.33  6.4279465E-01
   7131.67  6.4465963E-01
   7132.00  6.4599893E-01
   7132.33  6.4633042E-01
   7132.67  6.4548492E-01
   7133.00  6.4331729E-01
   7133.33  6.3961953E-01
   7133.67  6.3467090E-01
   7134.00  6.2867594E-01
   7134.33  6.2189157E-01
   7134.67  6.1482554E-01
   7135.00  6.0785877E-01
   7135.33  6.0147215E-01
   7135.67  5.9594304E-01
   7136.00  5.9148214E-01
   7136.33  5.8838217E-01
   7136.67  5.8653188E-01
   7137.00  5.8590072E-01
   7137.33  5.8653976E-01
   7137.67  5.8817738E-01
   7138.00  5.9067866E-01
   7138.33  5.9395116E-01
   7138.67  5.9771111E-01
   7139.00  6.0176642E-01
   7139.33  6.0586781E-01
   7139.67  6.0972898E-01
   7140.00  6.1309357E-01
   7140.33  6.1555740E-01
   7140.67  6.1693055E-01
   7141.00  6.1699528E-01
   7141.33  6.1537051E-01
   7141.67  6.1213629E-01
   7142.00  6.0727812E-01
   7142.33  6.0067513E-01
   7142.67  5.9267748E-01
   7143.00  5.8346877E-01
   7143.33  5.7317656E-01
   7143.67  5.6218359E-01
   7144.00  5.5071313E-01
   7144.33  5.3898168E-01
   7144.67  5.2722493E-01
   7145.00  5.1557086E-01
   7145.33  5.0414869E-01
   7145.67  4.9300638E-01
   7146.00  4.8218734E-01
   7146.33  4.7176342E-01
   7146.67  4.6169832E-01
   7147.00  4.5198683E-01
   7147.33  4.4265826E-01
   7147.67  4.3365876E-01
   7148.00  4.2498715E-01
   7148.33  4.1669963E-01
   7148.67  4.0878563E-01
   7149.00  4.0128598E-01
   7149.33  3.9431604E-01
   7149.67  3.8787601E-01
   7150.00  3.8201305E-01
   7150.33  3.7684937E-01
   7150.67  3.7233735E-01
   7151.00  3.6849082E-01
   7151.33  3.6539576E-01
   7151.67  3.6295798E-01
   7152.00  3.6115891E-01
   7152.33  3.6004272E-01
   7152.67  3.5949126E-01
   7153.00  3.5945936E-01
   7153.33  3.5994403E-01
   7153.67  3.6083284E-01
   7154.00  3.6208623E-01
   7154.33  3.6369653E-01
   7154.67  3.6557306E-01
   7155.00  3.6767061E-01
   7155.33  3.6995814E-01
   7155.67  3.7236504E-01
   7156.00  3.7485259E-01
   7156.33  3.7738793E-01
   7156.67  3.7993708E-01
   7157.00  3.8248493E-01
   7157.33  3.8502635E-01
   7157.67  3.8756928E-01
   7158.00  3.9012131E-01
   7158.33  3.9269134E-01
   7158.67  3.9529444E-01
   7159.00  3.9795582E-01
   7159.33  4.0071631E-01
   7159.67  4.0358834E-01
   7160.00  4.0658557E-01
   7160.33  4.0973282E-01
   7160.67  4.1301099E-01
   7161.00  4.1640951E-01
   7161.33  4.1992773E-01
   7161.67  4.2353694E-01
   7162.00  4.2722206E-01
   7162.33  4.3097245E-01
   7162.67  4.3476401E-01
   7163.00  4.3858298E-01
   7163.33  4.4241321E-01
   7163.67  4.4623443E-01
   7164.00  4.5003154E-01
   7164.33  4.5378487E-01
   7164.67  4.5748684E-01
   7165.00  4.6112787E-01
   7165.33  4.6468892E-01
   7165.67  4.6816955E-01
   7166.00  4.7156238E-01
   7166.33  4.7484799E-01
   7166.67  4.7803199E-01
   7167.00  4.8110953E-01
   7167.33  4.8406188E-01
   7167.67  4.8689924E-01
   7168.00  4.8961930E-01
   7168.33  4.9220588E-01
   7168.67  4.9467367E-01
   7169.00  4.9702325E-01
   7169.33  4.9924184E-01
   7169.67  5.0134622E-01
   7170.00  5.0333802E-01
   7170.33  5.0520475E-01
   7170.67  5.0695984E-01
   7171.00  5.0859850E-01
   7171.33  5.1008660E-01
   7171.67  5.1139855E-01
   7172.00  5.1247275E-01
