    FDMNES
    energy     <xanes>
   7097.00  5.1885060E-03
   7097.33  5.3097066E-03
   7097.67  5.4364014E-03
   7098.00  5.5689618E-03
   7098.33  5.7086587E-03
   7098.67  5.8552310E-03
   7099.00  6.0091839E-03
   7099.33  6.1721768E-03
   7099.67  6.3439411E-03
   7100.00  6.5251819E-03
   7100.33  6.7181217E-03
   7100.67  6.9225082E-03
   7101.00  7.1393552E-03
   7101.33  7.3717297E-03
   7101.67  7.6194489E-03
   7102.00  7.8840238E-03
   7102.33  8.1698410E-03
   7102.67  8.4769050E-03
   7103.00  8.8075668E-03
   7103.33  9.1683807E-03
   7103.67  9.5598050E-03
   7104.00  9.9856960E-03
   7104.33  1.0456396E-02
   7104.67  1.0973449E-02
   7105.00  1.1543618E-02
   7105.33  1.2184400E-02
   7105.67  1.2900051E-02
   7106.00  1.3703507E-02
   7106.33  1.4627250E-02
   7106.67  1.5682899E-02
   7107.00  1.6898322E-02
   7107.33  1.8342170E-02
   7107.67  2.0049107E-02
   7108.00  2.2090449E-02
   7108.33  2.4642345E-02
   7108.67  2.7830075E-02
   7109.00  3.1892703E-02
   7109.33  3.7450026E-02
   7109.67  4.5145080E-02
   7110.00  5.6227093E-02
   7110.33  7.4257431E-02
   7110.67  1.0341568E-01
   7111.00  1.4758750E-01
   7111.33  2.0432753E-01
   7111.67  2.5865026E-01
   7112.00  2.9339175E-01
   7112.33  3.0191182E-01
   7112.67  3.1271068E-01
   7113.00  3.3546595E-01
   7113.33  3.7365040E-01
   7113.67  4.2005496E-01
   7114.00  4.4457025E-01
   7114.33  4.1903325E-01
   7114.67  3.7050998E-01
   7115.00  3.2245681E-01
   7115.33  2.8744208E-01
   7115.67  2.6404798E-01
   7116.00  2.4923075E-01
   7116.33  2.3953985E-01
   7116.67  2.2995265E-01
   7117.00  2.1611874E-01
   7117.33  1.9649472E-01
   7117.67  1.7651027E-01
   7118.00  1.5986267E-01
   7118.33  1.4818762E-01
   7118.67  1.4017367E-01
   7119.00  1.3489662E-01
   7119.33  1.3168129E-01
   7119.67  1.2963664E-01
   7120.00  1.2831779E-01
   7120.33  1.2738159E-01
   7120.67  1.2665643E-01
   7121.00  1.2623879E-01
   7121.33  1.2641977E-01
   7121.67  1.2746937E-01
   7122.00  1.2981834E-01
   7122.33  1.3429364E-01
   7122.67  1.4121403E-01
   7123.00  1.5098986E-01
   7123.33  1.6441543E-01
   7123.67  1.8120260E-01
   7124.00  2.0100632E-01
   7124.33  2.2367317E-01
   7124.67  2.4920746E-01
   7125.00  2.7776781E-01
   7125.33  3.0778196E-01
   7125.67  3.3559996E-01
   7126.00  3.5925810E-01
   7126.33  3.7910938E-01
   7126.67  3.9756089E-01
   7127.00  4.1559592E-01
   7127.33  4.3369512E-01
   7127.67  4.5231683E-01
   7128.00  4.7191588E-01
   7128.33  4.9297913E-01
   7128.67  5.1514945E-01
   7129.00  5.3781723E-01
   7129.33  5.6019616E-01
   7129.67  5.8206391E-01
   7130.00  6.0383695E-01
   7130.33  6.2651796E-01
   7130.67  6.5062039E-01
   7131.00  6.7606842E-01
   7131.33  7.0227995E-01
   7131.67  7.2827775E-01
   7132.00  7.5334262E-01
   7132.33  7.7657580E-01
   7132.67  7.9765628E-01
   7133.00  8.1628273E-01
   7133.33  8.3196248E-01
   7133.67  8.4503959E-01
   7134.00  8.5559093E-01
   7134.33  8.6318692E-01
   7134.67  8.6751189E-01
   7135.00  8.6756536E-01
   7135.33  8.6152292E-01
   7135.67  8.4956937E-01
   7136.00  8.3196282E-01
   7136.33  8.0904679E-01
   7136.67  7.8277145E-01
   7137.00  7.5443173E-01
   7137.33  7.2538801E-01
   7137.67  6.9695779E-01
   7138.00  6.7001747E-01
   7138.33  6.4565733E-01
   7138.67  6.2414768E-01
   7139.00  6.0574777E-01
   7139.33  5.9088342E-01
   7139.67  5.7893075E-01
   7140.00  5.6953379E-01
   7140.33  5.6245980E-01
   7140.67  5.5697078E-01
   7141.00  5.5269677E-01
   7141.33  5.4936323E-01
   7141.67  5.4653117E-01
   7142.00  5.4393808E-01
   7142.33  5.4129289E-01
   7142.67  5.3834203E-01
   7143.00  5.3489428E-01
   7143.33  5.3069939E-01
   7143.67  5.2575523E-01
   7144.00  5.2006754E-01
   7144.33  5.1365705E-01
   7144.67  5.0679198E-01
   7145.00  4.9968013E-01
   7145.33  4.9258389E-01
   7145.67  4.8574760E-01
   7146.00  4.7935119E-01
   7146.33  4.7363191E-01
   7146.67  4.6861261E-01
   7147.00  4.6431375E-01
   7147.33  4.6080683E-01
   7147.67  4.5798462E-01
   7148.00  4.5583013E-01
   7148.33  4.5440287E-01
   7148.67  4.5360225E-01
   7149.00  4.5341501E-01
   7149.33  4.5390708E-01
   7149.67  4.5499892E-01
   7150.00  4.5668831E-01
   7150.33  4.5904912E-01
   7150.67  4.6200839E-01
   7151.00  4.6556297E-01
   7151.33  4.6977001E-01
   7151.67  4.7452475E-01
   7152.00  4.7978427E-01
   7152.33  4.8553644E-01
   7152.67  4.9164397E-01
   7153.00  4.9802653E-01
   7153.33  5.0460647E-01
   7153.67  5.1126025E-01
   7154.00  5.1790220E-01
   7154.33  5.2442306E-01
   7154.67  5.3074531E-01
   7155.00  5.3679930E-01
   7155.33  5.4247634E-01
   7155.67  5.4776700E-01
   7156.00  5.5263842E-01
   7156.33  5.5700846E-01
   7156.67  5.6091732E-01
   7157.00  5.6435892E-01
   7157.33  5.6727486E-01
   7157.67  5.6972968E-01
   7158.00  5.7173236E-01
   7158.33  5.7324226E-01
   7158.67  5.7433160E-01
   7159.00  5.7501791E-01
   7159.33  5.7527751E-01
   7159.67  5.7518527E-01
   7160.00  5.7476746E-01
   7160.33  5.7402114E-01
   7160.67  5.7301958E-01
   7161.00  5.7179656E-01
   7161.33  5.7037068E-01
   7161.67  5.6880633E-01
   7162.00  5.6713934E-01
   7162.33  5.6540500E-01
   7162.67  5.6365384E-01
   7163.00  5.6191732E-01
   7163.33  5.6023499E-01
   7163.67  5.5862747E-01
   7164.00  5.5710758E-01
   7164.33  5.5569056E-01
   7164.67  5.5435634E-01
   7165.00  5.5308958E-01
   7165.33  5.5186967E-01
   7165.67  5.5065785E-01
   7166.00  5.4942052E-01
   7166.33  5.4810772E-01
   7166.67  5.4668668E-01
   7167.00  5.4512345E-01
   7167.33  5.4335954E-01
   7167.67  5.4138792E-01
   7168.00  5.3919048E-01
   7168.33  5.3672660E-01
   7168.67  5.3402881E-01
   7169.00  5.3110605E-01
   7169.33  5.2794790E-01
   7169.67  5.2460747E-01
   7170.00  5.2111689E-01
   7170.33  5.1751090E-01
   7170.67  5.1386426E-01
   7171.00  5.1024750E-01
   7171.33  5.0679700E-01
   7171.67  5.0368204E-01
   7172.00  5.0113000E-01
