    FDMNES
    energy     <xanes>
   7097.00  5.0670100E-03
   7097.33  5.1921945E-03
   7097.67  5.3233215E-03
   7098.00  5.4608122E-03
   7098.33  5.6060740E-03
   7098.67  5.7588521E-03
   7099.00  5.9197278E-03
   7099.33  6.0905655E-03
   7099.67  6.2711145E-03
   7100.00  6.4621999E-03
   7100.33  6.6663613E-03
   7100.67  6.8833881E-03
   7101.00  7.1144911E-03
   7101.33  7.3632456E-03
   7101.67  7.6295608E-03
   7102.00  7.9152842E-03
   7102.33  8.2256528E-03
   7102.67  8.5608724E-03
   7103.00  8.9238979E-03
   7103.33  9.3227817E-03
   7103.67  9.7584306E-03
   7104.00  1.0235853E-02
   7104.33  1.0768203E-02
   7104.67  1.1358073E-02
   7105.00  1.2014596E-02
   7105.33  1.2760992E-02
   7105.67  1.3604144E-02
   7106.00  1.4562387E-02
   7106.33  1.5681152E-02
   7106.67  1.6979426E-02
   7107.00  1.8499147E-02
   7107.33  2.0342980E-02
   7107.67  2.2569938E-02
   7108.00  2.5295987E-02
   7108.33  2.8808894E-02
   7108.67  3.3337966E-02
   7109.00  3.9314874E-02
   7109.33  4.7882774E-02
   7109.67  6.0355132E-02
   7110.00  7.9311864E-02
   7110.33  1.1219418E-01
   7110.67  1.6676323E-01
   7111.00  2.4333657E-01
   7111.33  3.1132892E-01
   7111.67  3.4900591E-01
   7112.00  3.6634124E-01
   7112.33  3.8387179E-01
   7112.67  4.0908649E-01
   7113.00  4.2762680E-01
   7113.33  4.1869031E-01
   7113.67  3.8298299E-01
   7114.00  3.2593959E-01
   7114.33  2.6370086E-01
   7114.67  2.1142978E-01
   7115.00  1.7211178E-01
   7115.33  1.4526424E-01
   7115.67  1.2657044E-01
   7116.00  1.1369629E-01
   7116.33  1.0508453E-01
   7116.67  9.9307336E-02
   7117.00  9.6062536E-02
   7117.33  9.5279158E-02
   7117.67  9.6219559E-02
   7118.00  9.8406323E-02
   7118.33  1.0113063E-01
   7118.67  1.0366993E-01
   7119.00  1.0606820E-01
   7119.33  1.0872163E-01
   7119.67  1.1173705E-01
   7120.00  1.1526553E-01
   7120.33  1.1954687E-01
   7120.67  1.2451493E-01
   7121.00  1.3039577E-01
   7121.33  1.3813056E-01
   7121.67  1.4844053E-01
   7122.00  1.6208446E-01
   7122.33  1.8063440E-01
   7122.67  2.0458156E-01
   7123.00  2.3379107E-01
   7123.33  2.6603107E-01
   7123.67  2.9684529E-01
   7124.00  3.2390214E-01
   7124.33  3.4758146E-01
   7124.67  3.7075332E-01
   7125.00  3.9434048E-01
   7125.33  4.1771140E-01
   7125.67  4.4051075E-01
   7126.00  4.6332879E-01
   7126.33  4.8606331E-01
   7126.67  5.0652828E-01
   7127.00  5.2308980E-01
   7127.33  5.3689615E-01
   7127.67  5.5206202E-01
   7128.00  5.7061401E-01
   7128.33  5.9191723E-01
   7128.67  6.1247856E-01
   7129.00  6.3015339E-01
   7129.33  6.4522624E-01
   7129.67  6.6116703E-01
   7130.00  6.8050794E-01
   7130.33  7.0445313E-01
   7130.67  7.3009900E-01
   7131.00  7.5321592E-01
   7131.33  7.6753416E-01
   7131.67  7.7155231E-01
   7132.00  7.6655902E-01
   7132.33  7.5637935E-01
   7132.67  7.4675974E-01
   7133.00  7.4110867E-01
   7133.33  7.4207604E-01
   7133.67  7.4850185E-01
   7134.00  7.5824938E-01
   7134.33  7.6761456E-01
   7134.67  7.7383720E-01
   7135.00  7.7630321E-01
   7135.33  7.7500554E-01
   7135.67  7.7063026E-01
   7136.00  7.6321201E-01
   7136.33  7.5279456E-01
   7136.67  7.4073163E-01
   7137.00  7.2828690E-01
   7137.33  7.1712695E-01
   7137.67  7.0827905E-01
   7138.00  7.0226396E-01
   7138.33  6.9942752E-01
   7138.67  6.9884845E-01
   7139.00  6.9974053E-01
   7139.33  7.0109357E-01
   7139.67  7.0180595E-01
   7140.00  7.0107299E-01
   7140.33  6.9788100E-01
   7140.67  6.9205395E-01
   7141.00  6.8347290E-01
   7141.33  6.7199795E-01
   7141.67  6.5840971E-01
   7142.00  6.4323247E-01
   7142.33  6.2703837E-01
   7142.67  6.1069816E-01
   7143.00  5.9489616E-01
   7143.33  5.8046388E-01
   7143.67  5.6773196E-01
   7144.00  5.5694365E-01
   7144.33  5.4842333E-01
   7144.67  5.4178409E-01
   7145.00  5.3677889E-01
   7145.33  5.3317448E-01
   7145.67  5.3037627E-01
   7146.00  5.2801227E-01
   7146.33  5.2570473E-01
   7146.67  5.2314798E-01
   7147.00  5.2016267E-01
   7147.33  5.1655142E-01
   7147.67  5.1232028E-01
   7148.00  5.0744883E-01
   7148.33  5.0186197E-01
   7148.67  4.9566668E-01
   7149.00  4.8891495E-01
   7149.33  4.8166428E-01
   7149.67  4.7414584E-01
   7150.00  4.6655090E-01
   7150.33  4.5914223E-01
   7150.67  4.5212896E-01
   7151.00  4.4567785E-01
   7151.33  4.4002365E-01
   7151.67  4.3517123E-01
   7152.00  4.3116339E-01
   7152.33  4.2812053E-01
   7152.67  4.2591306E-01
   7153.00  4.2449604E-01
   7153.33  4.2387691E-01
   7153.67  4.2385723E-01
   7154.00  4.2432294E-01
   7154.33  4.2516406E-01
   7154.67  4.2617377E-01
   7155.00  4.2720707E-01
   7155.33  4.2808432E-01
   7155.67  4.2867864E-01
   7156.00  4.2888718E-01
   7156.33  4.2855914E-01
   7156.67  4.2769652E-01
   7157.00  4.2627693E-01
   7157.33  4.2423332E-01
   7157.67  4.2166323E-01
   7158.00  4.1860786E-01
   7158.33  4.1507855E-01
   7158.67  4.1120597E-01
   7159.00  4.0706526E-01
   7159.33  4.0272698E-01
   7159.67  3.9830523E-01
   7160.00  3.9387407E-01
   7160.33  3.8951737E-01
   7160.67  3.8528708E-01
   7161.00  3.8122008E-01
   7161.33  3.7736474E-01
   7161.67  3.7370523E-01
   7162.00  3.7023855E-01
   7162.33  3.6697438E-01
   7162.67  3.6387034E-01
   7163.00  3.6091462E-01
   7163.33  3.5812495E-01
   7163.67  3.5549370E-01
   7164.00  3.5303827E-01
   7164.33  3.5081173E-01
   7164.67  3.4882239E-01
   7165.00  3.4710156E-01
   7165.33  3.4572079E-01
   7165.67  3.4466992E-01
   7166.00  3.4396744E-01
   7166.33  3.4367286E-01
   7166.67  3.4374617E-01
   7167.00  3.4418540E-01
   7167.33  3.4502689E-01
   7167.67  3.4621203E-01
   7168.00  3.4772458E-01
   7168.33  3.4957924E-01
   7168.67  3.5171101E-01
   7169.00  3.5409425E-01
   7169.33  3.5672385E-01
   7169.67  3.5953673E-01
   7170.00  3.6249919E-01
   7170.33  3.6558070E-01
   7170.67  3.6871597E-01
   7171.00  3.7184729E-01
   7171.33  3.7486207E-01
   7171.67  3.7760396E-01
   7172.00  3.7985675E-01
