    FDMNES
    energy     <xanes>
   7097.00  4.5465393E-03
   7097.33  4.6333504E-03
   7097.67  4.7231785E-03
   7098.00  4.8161801E-03
   7098.33  4.9129744E-03
   7098.67  5.0133558E-03
   7099.00  5.1175257E-03
   7099.33  5.2262459E-03
   7099.67  5.3392931E-03
   7100.00  5.4569329E-03
   7100.33  5.5801232E-03
   7100.67  5.7086272E-03
   7101.00  5.8428061E-03
   7101.33  5.9838975E-03
   7101.67  6.1316635E-03
   7102.00  6.2866150E-03
   7102.33  6.4504089E-03
   7102.67  6.6228374E-03
   7103.00  6.8046603E-03
   7103.33  6.9982030E-03
   7103.67  7.2033656E-03
   7104.00  7.4213552E-03
   7104.33  7.6556512E-03
   7104.67  7.9064619E-03
   7105.00  8.1758787E-03
   7105.33  8.4695924E-03
   7105.67  8.7886770E-03
   7106.00  9.1372045E-03
   7106.33  9.5257230E-03
   7106.67  9.9579312E-03
   7107.00  1.0443130E-02
   7107.33  1.1004694E-02
   7107.67  1.1655622E-02
   7108.00  1.2422525E-02
   7108.33  1.3372653E-02
   7108.67  1.4561675E-02
   7109.00  1.6095954E-02
   7109.33  1.8263050E-02
   7109.67  2.1413210E-02
   7110.00  2.6243733E-02
   7110.33  3.4799830E-02
   7110.67  4.9218118E-02
   7111.00  6.8944587E-02
   7111.33  8.0966608E-02
   7111.67  7.6880788E-02
   7112.00  6.4709652E-02
   7112.33  5.5206650E-02
   7112.67  4.7863404E-02
   7113.00  4.1693341E-02
   7113.33  3.7850349E-02
   7113.67  3.6194128E-02
   7114.00  3.6248812E-02
   7114.33  3.7691807E-02
   7114.67  4.0139539E-02
   7115.00  4.3629209E-02
   7115.33  4.8612920E-02
   7115.67  5.5408832E-02
   7116.00  6.4530620E-02
   7116.33  7.6760420E-02
   7116.67  9.1141744E-02
   7117.00  1.0576364E-01
   7117.33  1.1933675E-01
   7117.67  1.3396149E-01
   7118.00  1.5102842E-01
   7118.33  1.7076670E-01
   7118.67  1.9151536E-01
   7119.00  2.1183351E-01
   7119.33  2.3273021E-01
   7119.67  2.5517952E-01
   7120.00  2.7780807E-01
   7120.33  2.9957419E-01
   7120.67  3.2196422E-01
   7121.00  3.4689639E-01
   7121.33  3.7684076E-01
   7121.67  4.1277737E-01
   7122.00  4.5574009E-01
   7122.33  5.0670044E-01
   7122.67  5.6238225E-01
   7123.00  6.1834315E-01
   7123.33  6.6703676E-01
   7123.67  7.0372610E-01
   7124.00  7.2722239E-01
   7124.33  7.3955812E-01
   7124.67  7.4693080E-01
   7125.00  7.5251272E-01
   7125.33  7.5782982E-01
   7125.67  7.6262332E-01
   7126.00  7.6596966E-01
   7126.33  7.6616419E-01
   7126.67  7.6249722E-01
   7127.00  7.5504355E-01
   7127.33  7.4482347E-01
   7127.67  7.3387922E-01
   7128.00  7.2323914E-01
   7128.33  7.1276712E-01
   7128.67  7.0058608E-01
   7129.00  6.8521947E-01
   7129.33  6.6771741E-01
   7129.67  6.5184409E-01
   7130.00  6.3961428E-01
   7130.33  6.3167566E-01
   7130.67  6.2615866E-01
   7131.00  6.2125310E-01
   7131.33  6.1560724E-01
   7131.67  6.1083515E-01
   7132.00  6.1017037E-01
   7132.33  6.1791577E-01
   7132.67  6.3398942E-01
   7133.00  6.5609665E-01
   7133.33  6.7776499E-01
   7133.67  6.9170590E-01
   7134.00  6.9439506E-01
   7134.33  6.8413385E-01
   7134.67  6.6434367E-01
   7135.00  6.3752307E-01
   7135.33  6.0651782E-01
   7135.67  5.7491512E-01
   7136.00  5.4474900E-01
   7136.33  5.1776717E-01
   7136.67  4.9413786E-01
   7137.00  4.7387328E-01
   7137.33  4.5720151E-01
   7137.67  4.4362677E-01
   7138.00  4.3320180E-01
   7138.33  4.2638753E-01
   7138.67  4.2258267E-01
   7139.00  4.2131681E-01
   7139.33  4.2207978E-01
   7139.67  4.2405413E-01
   7140.00  4.2702613E-01
   7140.33  4.3112473E-01
   7140.67  4.3622113E-01
   7141.00  4.4212075E-01
   7141.33  4.4832717E-01
   7141.67  4.5400624E-01
   7142.00  4.5836986E-01
   7142.33  4.6028906E-01
   7142.67  4.5943920E-01
   7143.00  4.5564930E-01
   7143.33  4.4885302E-01
   7143.67  4.4007963E-01
   7144.00  4.3010191E-01
   7144.33  4.1973238E-01
   7144.67  4.0966544E-01
   7145.00  4.0026099E-01
   7145.33  3.9182877E-01
   7145.67  3.8427341E-01
   7146.00  3.7750101E-01
   7146.33  3.7141425E-01
   7146.67  3.6575027E-01
   7147.00  3.6037066E-01
   7147.33  3.5517421E-01
   7147.67  3.5005607E-01
   7148.00  3.4495995E-01
   7148.33  3.3981960E-01
   7148.67  3.3458578E-01
   7149.00  3.2923138E-01
   7149.33  3.2376137E-01
   7149.67  3.1828692E-01
   7150.00  3.1296772E-01
   7150.33  3.0812364E-01
   7150.67  3.0402869E-01
   7151.00  3.0097652E-01
   7151.33  2.9943901E-01
   7151.67  2.9945211E-01
   7152.00  3.0107776E-01
   7152.33  3.0444388E-01
   7152.67  3.0919152E-01
   7153.00  3.1514732E-01
   7153.33  3.2223210E-01
   7153.67  3.3013788E-01
   7154.00  3.3873094E-01
   7154.33  3.4794783E-01
   7154.67  3.5759983E-01
   7155.00  3.6758224E-01
   7155.33  3.7779218E-01
   7155.67  3.8807255E-01
   7156.00  3.9830499E-01
   7156.33  4.0832728E-01
   7156.67  4.1803050E-01
   7157.00  4.2731328E-01
   7157.33  4.3602137E-01
   7157.67  4.4417059E-01
   7158.00  4.5175870E-01
   7158.33  4.5875640E-01
   7158.67  4.6528954E-01
   7159.00  4.7141335E-01
   7159.33  4.7713017E-01
   7159.67  4.8250393E-01
   7160.00  4.8753070E-01
   7160.33  4.9215218E-01
   7160.67  4.9640526E-01
   7161.00  5.0029240E-01
   7161.33  5.0379354E-01
   7161.67  5.0700311E-01
   7162.00  5.0998476E-01
   7162.33  5.1281460E-01
   7162.67  5.1561775E-01
   7163.00  5.1849067E-01
   7163.33  5.2155677E-01
   7163.67  5.2486650E-01
   7164.00  5.2844411E-01
   7164.33  5.3229514E-01
   7164.67  5.3630473E-01
   7165.00  5.4035954E-01
   7165.33  5.4428671E-01
   7165.67  5.4793866E-01
   7166.00  5.5119366E-01
   7166.33  5.5388472E-01
   7166.67  5.5601861E-01
   7167.00  5.5758718E-01
   7167.33  5.5855625E-01
   7167.67  5.5905581E-01
   7168.00  5.5915631E-01
   7168.33  5.5891469E-01
   7168.67  5.5846999E-01
   7169.00  5.5790727E-01
   7169.33  5.5731380E-01
   7169.67  5.5676893E-01
   7170.00  5.5632257E-01
   7170.33  5.5603043E-01
   7170.67  5.5589292E-01
   7171.00  5.5590855E-01
   7171.33  5.5607176E-01
   7171.67  5.5631789E-01
   7172.00  5.5658201E-01
