    FDMNES
    energy     <xanes>
   7097.00  4.1802782E-03
   7097.33  4.2705239E-03
   7097.67  4.3647359E-03
   7098.00  4.4631886E-03
   7098.33  4.5668114E-03
   7098.67  4.6754273E-03
   7099.00  4.7894159E-03
   7099.33  4.9100062E-03
   7099.67  5.0370256E-03
   7100.00  5.1710152E-03
   7100.33  5.3136494E-03
   7100.67  5.4647857E-03
   7101.00  5.6252229E-03
   7101.33  5.7973246E-03
   7101.67  5.9810357E-03
   7102.00  6.1775852E-03
   7102.33  6.3904545E-03
   7102.67  6.6198033E-03
   7103.00  6.8676198E-03
   7103.33  7.1393053E-03
   7103.67  7.4355297E-03
   7104.00  7.7597123E-03
   7104.33  8.1207928E-03
   7104.67  8.5206789E-03
   7105.00  8.9657228E-03
   7105.33  9.4719920E-03
   7105.67  1.0044592E-02
   7106.00  1.0696568E-02
   7106.33  1.1460117E-02
   7106.67  1.2349529E-02
   7107.00  1.3395488E-02
   7107.33  1.4673002E-02
   7107.67  1.6227430E-02
   7108.00  1.8146504E-02
   7108.33  2.0648407E-02
   7108.67  2.3914204E-02
   7109.00  2.8283067E-02
   7109.33  3.4658689E-02
   7109.67  4.4109257E-02
   7110.00  5.8736366E-02
   7110.33  8.4625125E-02
   7110.67  1.2809293E-01
   7111.00  1.8897663E-01
   7111.33  2.4020780E-01
   7111.67  2.5998045E-01
   7112.00  2.6570646E-01
   7112.33  2.7256203E-01
   7112.67  2.5053850E-01
   7113.00  1.9988277E-01
   7113.33  1.5304733E-01
   7113.67  1.2139981E-01
   7114.00  1.0225092E-01
   7114.33  9.1998198E-02
   7114.67  8.5575430E-02
   7115.00  8.0775228E-02
   7115.33  7.7759417E-02
   7115.67  7.6443288E-02
   7116.00  7.5508623E-02
   7116.33  7.3899673E-02
   7116.67  7.1832409E-02
   7117.00  6.9597753E-02
   7117.33  6.7869181E-02
   7117.67  6.7187369E-02
   7118.00  6.7766068E-02
   7118.33  6.9702278E-02
   7118.67  7.2575971E-02
   7119.00  7.6059165E-02
   7119.33  7.9906828E-02
   7119.67  8.4077104E-02
   7120.00  8.8777814E-02
   7120.33  9.4272646E-02
   7120.67  1.0012608E-01
   7121.00  1.0574801E-01
   7121.33  1.1082813E-01
   7121.67  1.1594059E-01
   7122.00  1.2154874E-01
   7122.33  1.2803503E-01
   7122.67  1.3613813E-01
   7123.00  1.4664723E-01
   7123.33  1.5987067E-01
   7123.67  1.7431622E-01
   7124.00  1.8873652E-01
   7124.33  2.0278362E-01
   7124.67  2.1711234E-01
   7125.00  2.3205067E-01
   7125.33  2.4799708E-01
   7125.67  2.6565040E-01
   7126.00  2.8617052E-01
   7126.33  3.1145378E-01
   7126.67  3.4166154E-01
   7127.00  3.7663306E-01
   7127.33  4.1614930E-01
   7127.67  4.5888520E-01
   7128.00  5.0416523E-01
   7128.33  5.5119968E-01
   7128.67  5.9807147E-01
   7129.00  6.4216267E-01
   7129.33  6.7824766E-01
   7129.67  7.0306684E-01
   7130.00  7.1482027E-01
   7130.33  7.1257056E-01
   7130.67  7.0038425E-01
   7131.00  6.8073258E-01
   7131.33  6.5541642E-01
   7131.67  6.2692043E-01
   7132.00  5.9651729E-01
   7132.33  5.6537615E-01
   7132.67  5.3463719E-01
   7133.00  5.0506095E-01
   7133.33  4.7765939E-01
   7133.67  4.5288447E-01
   7134.00  4.3119363E-01
   7134.33  4.1328751E-01
   7134.67  3.9874907E-01
   7135.00  3.8741995E-01
   7135.33  3.7939782E-01
   7135.67  3.7403488E-01
   7136.00  3.7111271E-01
   7136.33  3.7068415E-01
   7136.67  3.7227397E-01
   7137.00  3.7572682E-01
   7137.33  3.8108568E-01
   7137.67  3.8798267E-01
   7138.00  3.9629686E-01
   7138.33  4.0606993E-01
   7138.67  4.1704047E-01
   7139.00  4.2911875E-01
   7139.33  4.4227755E-01
   7139.67  4.5625966E-01
   7140.00  4.7098867E-01
   7140.33  4.8648606E-01
   7140.67  5.0260986E-01
   7141.00  5.1929884E-01
   7141.33  5.3650000E-01
   7141.67  5.5399332E-01
   7142.00  5.7160671E-01
   7142.33  5.8912012E-01
   7142.67  6.0631025E-01
   7143.00  6.2296412E-01
   7143.33  6.3887391E-01
   7143.67  6.5408221E-01
   7144.00  6.6858238E-01
   7144.33  6.8231081E-01
   7144.67  6.9537881E-01
   7145.00  7.0780298E-01
   7145.33  7.1951987E-01
   7145.67  7.3062021E-01
   7146.00  7.4111237E-01
   7146.33  7.5092734E-01
   7146.67  7.6013757E-01
   7147.00  7.6872948E-01
   7147.33  7.7659277E-01
   7147.67  7.8376529E-01
   7148.00  7.9020163E-01
   7148.33  7.9574294E-01
   7148.67  8.0041693E-01
   7149.00  8.0415231E-01
   7149.33  8.0674145E-01
   7149.67  8.0824289E-01
   7150.00  8.0861592E-01
   7150.33  8.0773627E-01
   7150.67  8.0581503E-01
   7151.00  8.0290732E-01
   7151.33  7.9898570E-01
   7151.67  7.9427416E-01
   7152.00  7.8888030E-01
   7152.33  7.8287191E-01
   7152.67  7.7645636E-01
   7153.00  7.6974811E-01
   7153.33  7.6284608E-01
   7153.67  7.5587456E-01
   7154.00  7.4890618E-01
   7154.33  7.4201558E-01
   7154.67  7.3524184E-01
   7155.00  7.2861294E-01
   7155.33  7.2216696E-01
   7155.67  7.1588558E-01
   7156.00  7.0975867E-01
   7156.33  7.0377614E-01
   7156.67  6.9788014E-01
   7157.00  6.9202519E-01
   7157.33  6.8614641E-01
   7157.67  6.8017170E-01
   7158.00  6.7402781E-01
   7158.33  6.6759309E-01
   7158.67  6.6081840E-01
   7159.00  6.5364469E-01
   7159.33  6.4596395E-01
   7159.67  6.3780847E-01
   7160.00  6.2918408E-01
   7160.33  6.2007472E-01
   7160.67  6.1060208E-01
   7161.00  6.0084287E-01
   7161.33  5.9087473E-01
   7161.67  5.8082542E-01
   7162.00  5.7078179E-01
   7162.33  5.6084668E-01
   7162.67  5.5108332E-01
   7163.00  5.4154195E-01
   7163.33  5.3229494E-01
   7163.67  5.2333105E-01
   7164.00  5.1465724E-01
   7164.33  5.0630680E-01
   7164.67  4.9823365E-01
   7165.00  4.9042630E-01
   7165.33  4.8290117E-01
   7165.67  4.7561301E-01
   7166.00  4.6855363E-01
   7166.33  4.6174765E-01
   7166.67  4.5517005E-01
   7167.00  4.4882854E-01
   7167.33  4.4276789E-01
   7167.67  4.3697409E-01
   7168.00  4.3146315E-01
   7168.33  4.2629104E-01
   7168.67  4.2143737E-01
   7169.00  4.1691510E-01
   7169.33  4.1277826E-01
   7169.67  4.0899088E-01
   7170.00  4.0555529E-01
   7170.33  4.0251343E-01
   7170.67  3.9981574E-01
   7171.00  3.9745588E-01
   7171.33  3.9546954E-01
   7171.67  3.9381625E-01
   7172.00  3.9250225E-01
