    FDMNES
    energy     <xanes>
   7097.00  4.2622479E-03
   7097.33  4.3477513E-03
   7097.67  4.4367781E-03
   7098.00  4.5295559E-03
   7098.33  4.6268826E-03
   7098.67  4.7285779E-03
   7099.00  4.8349500E-03
   7099.33  4.9470328E-03
   7099.67  5.0646396E-03
   7100.00  5.1881992E-03
   7100.33  5.3190861E-03
   7100.67  5.4571220E-03
   7101.00  5.6029215E-03
   7101.33  5.7583698E-03
   7101.67  5.9233288E-03
   7102.00  6.0987131E-03
   7102.33  6.2872052E-03
   7102.67  6.4887791E-03
   7103.00  6.7048569E-03
   7103.33  6.9394319E-03
   7103.67  7.1927527E-03
   7104.00  7.4671530E-03
   7104.33  7.7689196E-03
   7104.67  8.0989625E-03
   7105.00  8.4613788E-03
   7105.33  8.8667963E-03
   7105.67  9.3177762E-03
   7106.00  9.8221663E-03
   7106.33  1.0399692E-02
   7106.67  1.1057384E-02
   7107.00  1.1812137E-02
   7107.33  1.2705552E-02
   7107.67  1.3758470E-02
   7108.00  1.5013766E-02
   7108.33  1.6576970E-02
   7108.67  1.8521407E-02
   7109.00  2.0986338E-02
   7109.33  2.4327883E-02
   7109.67  2.8896182E-02
   7110.00  3.5360747E-02
   7110.33  4.5618646E-02
   7110.67  6.2266155E-02
   7111.00  9.0082200E-02
   7111.33  1.3883008E-01
   7111.67  1.9479525E-01
   7112.00  2.0914812E-01
   7112.33  1.8786056E-01
   7112.67  1.7444756E-01
   7113.00  1.6397417E-01
   7113.33  1.6565914E-01
   7113.67  1.8099455E-01
   7114.00  2.1547639E-01
   7114.33  2.8301733E-01
   7114.67  3.1650836E-01
   7115.00  2.6289482E-01
   7115.33  1.9149582E-01
   7115.67  1.4266492E-01
   7116.00  1.0846587E-01
   7116.33  8.3302737E-02
   7116.67  6.7026822E-02
   7117.00  5.7478824E-02
   7117.33  5.2545528E-02
   7117.67  5.0117598E-02
   7118.00  4.9453783E-02
   7118.33  5.0467555E-02
   7118.67  5.3003283E-02
   7119.00  5.7099315E-02
   7119.33  6.3022366E-02
   7119.67  7.0709798E-02
   7120.00  8.0357304E-02
   7120.33  9.2521687E-02
   7120.67  1.0706175E-01
   7121.00  1.2357628E-01
   7121.33  1.4060686E-01
   7121.67  1.5630821E-01
   7122.00  1.6985592E-01
   7122.33  1.8093993E-01
   7122.67  1.9132423E-01
   7123.00  2.0314107E-01
   7123.33  2.1782788E-01
   7123.67  2.3389156E-01
   7124.00  2.4960511E-01
   7124.33  2.6230336E-01
   7124.67  2.7016277E-01
   7125.00  2.7365031E-01
   7125.33  2.7663210E-01
   7125.67  2.8332922E-01
   7126.00  2.9545176E-01
   7126.33  3.1330027E-01
   7126.67  3.3404627E-01
   7127.00  3.5480853E-01
   7127.33  3.7134402E-01
   7127.67  3.8163714E-01
   7128.00  3.8596575E-01
   7128.33  3.8656999E-01
   7128.67  3.8693536E-01
   7129.00  3.8886832E-01
   7129.33  3.9355860E-01
   7129.67  4.0046663E-01
   7130.00  4.0869475E-01
   7130.33  4.1677954E-01
   7130.67  4.2373443E-01
   7131.00  4.2962106E-01
   7131.33  4.3508137E-01
   7131.67  4.4071195E-01
   7132.00  4.4671448E-01
   7132.33  4.5324524E-01
   7132.67  4.6034015E-01
   7133.00  4.6810456E-01
   7133.33  4.7674846E-01
   7133.67  4.8621608E-01
   7134.00  4.9644651E-01
   7134.33  5.0728674E-01
   7134.67  5.1826394E-01
   7135.00  5.2888974E-01
   7135.33  5.3836982E-01
   7135.67  5.4619944E-01
   7136.00  5.5199684E-01
   7136.33  5.5535291E-01
   7136.67  5.5676257E-01
   7137.00  5.5665025E-01
   7137.33  5.5551239E-01
   7137.67  5.5400368E-01
   7138.00  5.5243138E-01
   7138.33  5.5096693E-01
   7138.67  5.4959820E-01
   7139.00  5.4827413E-01
   7139.33  5.4693161E-01
   7139.67  5.4552194E-01
   7140.00  5.4402311E-01
   7140.33  5.4245510E-01
   7140.67  5.4092819E-01
   7141.00  5.3958725E-01
   7141.33  5.3869069E-01
   7141.67  5.3838911E-01
   7142.00  5.3882031E-01
   7142.33  5.4021716E-01
   7142.67  5.4256780E-01
   7143.00  5.4593410E-01
   7143.33  5.5049678E-01
   7143.67  5.5612796E-01
   7144.00  5.6277892E-01
   7144.33  5.7041854E-01
   7144.67  5.7868880E-01
   7145.00  5.8728876E-01
   7145.33  5.9576615E-01
   7145.67  6.0364984E-01
   7146.00  6.1054689E-01
   7146.33  6.1591617E-01
   7146.67  6.1969770E-01
   7147.00  6.2182874E-01
   7147.33  6.2219184E-01
   7147.67  6.2119537E-01
   7148.00  6.1909317E-01
   7148.33  6.1611140E-01
   7148.67  6.1262298E-01
   7149.00  6.0880031E-01
   7149.33  6.0477498E-01
   7149.67  6.0068604E-01
   7150.00  5.9660826E-01
   7150.33  5.9261860E-01
   7150.67  5.8876471E-01
   7151.00  5.8509522E-01
   7151.33  5.8169975E-01
   7151.67  5.7860792E-01
   7152.00  5.7586766E-01
   7152.33  5.7357291E-01
   7152.67  5.7170020E-01
   7153.00  5.7025447E-01
   7153.33  5.6927279E-01
   7153.67  5.6867101E-01
   7154.00  5.6841053E-01
   7154.33  5.6847452E-01
   7154.67  5.6876971E-01
   7155.00  5.6924589E-01
   7155.33  5.6985972E-01
   7155.67  5.7053745E-01
   7156.00  5.7122915E-01
   7156.33  5.7187274E-01
   7156.67  5.7241987E-01
   7157.00  5.7282633E-01
   7157.33  5.7301978E-01
   7157.67  5.7298208E-01
   7158.00  5.7268693E-01
   7158.33  5.7208616E-01
   7158.67  5.7122168E-01
   7159.00  5.7011998E-01
   7159.33  5.6881163E-01
   7159.67  5.6739451E-01
   7160.00  5.6594543E-01
   7160.33  5.6456908E-01
   7160.67  5.6335384E-01
   7161.00  5.6237672E-01
   7161.33  5.6175493E-01
   7161.67  5.6151014E-01
   7162.00  5.6167998E-01
   7162.33  5.6234544E-01
   7162.67  5.6345823E-01
   7163.00  5.6500926E-01
   7163.33  5.6702275E-01
   7163.67  5.6940297E-01
   7164.00  5.7209944E-01
   7164.33  5.7507516E-01
   7164.67  5.7822436E-01
   7165.00  5.8147909E-01
   7165.33  5.8476192E-01
   7165.67  5.8799116E-01
   7166.00  5.9110356E-01
   7166.33  5.9400980E-01
   7166.67  5.9667615E-01
   7167.00  5.9906257E-01
   7167.33  6.0109253E-01
   7167.67  6.0277703E-01
   7168.00  6.0409603E-01
   7168.33  6.0498114E-01
   7168.67  6.0546285E-01
   7169.00  6.0552859E-01
   7169.33  6.0511632E-01
   7169.67  6.0428030E-01
   7170.00  6.0303339E-01
   7170.33  6.0136195E-01
   7170.67  5.9937208E-01
   7171.00  5.9714066E-01
   7171.33  5.9478930E-01
   7171.67  5.9254371E-01
   7172.00  5.9065687E-01
