    FDMNES
    energy     <xanes>
   7097.00  5.2226602E-03
   7097.33  5.3588601E-03
   7097.67  5.5017914E-03
   7098.00  5.6519453E-03
   7098.33  5.8109405E-03
   7098.67  5.9785088E-03
   7099.00  6.1553338E-03
   7099.33  6.3435780E-03
   7099.67  6.5429862E-03
   7100.00  6.7545380E-03
   7100.33  6.9812082E-03
   7100.67  7.2228033E-03
   7101.00  7.4807772E-03
   7101.33  7.7593668E-03
   7101.67  8.0585477E-03
   7102.00  8.3805687E-03
   7102.33  8.7317235E-03
   7102.67  9.1123970E-03
   7103.00  9.5262455E-03
   7103.33  9.9831134E-03
   7103.67  1.0484353E-02
   7104.00  1.1036287E-02
   7104.33  1.1655344E-02
   7104.67  1.2345224E-02
   7105.00  1.3117753E-02
   7105.33  1.4002717E-02
   7105.67  1.5009918E-02
   7106.00  1.6163846E-02
   7106.33  1.7524816E-02
   7106.67  1.9120304E-02
   7107.00  2.1008588E-02
   7107.33  2.3332062E-02
   7107.67  2.6178774E-02
   7108.00  2.9718008E-02
   7108.33  3.4371510E-02
   7108.67  4.0496375E-02
   7109.00  4.8760889E-02
   7109.33  6.0953369E-02
   7109.67  7.9223314E-02
   7110.00  1.0781250E-01
   7110.33  1.5910764E-01
   7110.67  2.4650571E-01
   7111.00  3.7041134E-01
   7111.33  4.6515679E-01
   7111.67  4.7507678E-01
   7112.00  4.3159245E-01
   7112.33  3.8593074E-01
   7112.67  3.4861503E-01
   7113.00  3.1033862E-01
   7113.33  2.7292853E-01
   7113.67  2.4428199E-01
   7114.00  2.2531781E-01
   7114.33  2.1211110E-01
   7114.67  1.9621060E-01
   7115.00  1.7417333E-01
   7115.33  1.5065850E-01
   7115.67  1.3184635E-01
   7116.00  1.1911965E-01
   7116.33  1.1232535E-01
   7116.67  1.0966166E-01
   7117.00  1.1043390E-01
   7117.33  1.1445109E-01
   7117.67  1.2094545E-01
   7118.00  1.2973179E-01
   7118.33  1.4131887E-01
   7118.67  1.5595494E-01
   7119.00  1.7397861E-01
   7119.33  1.9537056E-01
   7119.67  2.1810719E-01
   7120.00  2.3986690E-01
   7120.33  2.5792171E-01
   7120.67  2.7287537E-01
   7121.00  2.8682667E-01
   7121.33  3.0247957E-01
   7121.67  3.2056025E-01
   7122.00  3.4106035E-01
   7122.33  3.6590813E-01
   7122.67  3.9646181E-01
   7123.00  4.3117671E-01
   7123.33  4.6445932E-01
   7123.67  4.9186533E-01
   7124.00  5.1246088E-01
   7124.33  5.2685941E-01
   7124.67  5.3720694E-01
   7125.00  5.4350884E-01
   7125.33  5.4458509E-01
   7125.67  5.4208854E-01
   7126.00  5.3834075E-01
   7126.33  5.3583961E-01
   7126.67  5.3533675E-01
   7127.00  5.3662726E-01
   7127.33  5.3894605E-01
   7127.67  5.4114279E-01
   7128.00  5.4273348E-01
   7128.33  5.4389255E-01
   7128.67  5.4535719E-01
   7129.00  5.4759508E-01
   7129.33  5.5051319E-01
   7129.67  5.5308027E-01
   7130.00  5.5453679E-01
   7130.33  5.5484281E-01
   7130.67  5.5503516E-01
   7131.00  5.5574453E-01
   7131.33  5.5690036E-01
   7131.67  5.5754828E-01
   7132.00  5.5679268E-01
   7132.33  5.5379503E-01
   7132.67  5.4894816E-01
   7133.00  5.4286689E-01
   7133.33  5.3642285E-01
   7133.67  5.3030229E-01
   7134.00  5.2464503E-01
   7134.33  5.1941136E-01
   7134.67  5.1463492E-01
   7135.00  5.1059933E-01
   7135.33  5.0780316E-01
   7135.67  5.0635109E-01
   7136.00  5.0634325E-01
   7136.33  5.0797404E-01
   7136.67  5.1098027E-01
   7137.00  5.1524567E-01
   7137.33  5.2079067E-01
   7137.67  5.2743417E-01
   7138.00  5.3520222E-01
   7138.33  5.4421159E-01
   7138.67  5.5403503E-01
   7139.00  5.6415007E-01
   7139.33  5.7384389E-01
   7139.67  5.8255940E-01
   7140.00  5.8990169E-01
   7140.33  5.9548992E-01
   7140.67  5.9966852E-01
   7141.00  6.0278339E-01
   7141.33  6.0531115E-01
   7141.67  6.0785230E-01
   7142.00  6.1074937E-01
   7142.33  6.1426384E-01
   7142.67  6.1829126E-01
   7143.00  6.2264447E-01
   7143.33  6.2697383E-01
   7143.67  6.3086454E-01
   7144.00  6.3396040E-01
   7144.33  6.3576592E-01
   7144.67  6.3617958E-01
   7145.00  6.3508811E-01
   7145.33  6.3227165E-01
   7145.67  6.2798325E-01
   7146.00  6.2232724E-01
   7146.33  6.1531375E-01
   7146.67  6.0728127E-01
   7147.00  5.9840330E-01
   7147.33  5.8880763E-01
   7147.67  5.7878598E-01
   7148.00  5.6853081E-01
   7148.33  5.5826689E-01
   7148.67  5.4820371E-01
   7149.00  5.3850918E-01
   7149.33  5.2943951E-01
   7149.67  5.2109352E-01
   7150.00  5.1359053E-01
   7150.33  5.0714456E-01
   7150.67  5.0168347E-01
   7151.00  4.9720814E-01
   7151.33  4.9380390E-01
   7151.67  4.9129345E-01
   7152.00  4.8961691E-01
   7152.33  4.8879779E-01
   7152.67  4.8867345E-01
   7153.00  4.8919205E-01
   7153.33  4.9037336E-01
   7153.67  4.9209364E-01
   7154.00  4.9430789E-01
   7154.33  4.9700626E-01
   7154.67  5.0004788E-01
   7155.00  5.0333043E-01
   7155.33  5.0670592E-01
   7155.67  5.0996415E-01
   7156.00  5.1290827E-01
   7156.33  5.1522667E-01
   7156.67  5.1675878E-01
   7157.00  5.1734321E-01
   7157.33  5.1672189E-01
   7157.67  5.1497790E-01
   7158.00  5.1211919E-01
   7158.33  5.0806637E-01
   7158.67  5.0303461E-01
   7159.00  4.9710660E-01
   7159.33  4.9028450E-01
   7159.67  4.8277040E-01
   7160.00  4.7465331E-01
   7160.33  4.6597514E-01
   7160.67  4.5690324E-01
   7161.00  4.4752996E-01
   7161.33  4.3794090E-01
   7161.67  4.2827052E-01
   7162.00  4.1861435E-01
   7162.33  4.0909619E-01
   7162.67  3.9979977E-01
   7163.00  3.9079936E-01
   7163.33  3.8221481E-01
   7163.67  3.7406004E-01
   7164.00  3.6637478E-01
   7164.33  3.5925382E-01
   7164.67  3.5265559E-01
   7165.00  3.4659228E-01
   7165.33  3.4113852E-01
   7165.67  3.3622500E-01
   7166.00  3.3184533E-01
   7166.33  3.2805362E-01
   7166.67  3.2477041E-01
   7167.00  3.2198230E-01
   7167.33  3.1973297E-01
   7167.67  3.1794761E-01
   7168.00  3.1661610E-01
   7168.33  3.1578581E-01
   7168.67  3.1539482E-01
   7169.00  3.1543673E-01
   7169.33  3.1595062E-01
   7169.67  3.1685969E-01
   7170.00  3.1813156E-01
   7170.33  3.1975184E-01
   7170.67  3.2161042E-01
   7171.00  3.2362885E-01
   7171.33  3.2569086E-01
   7171.67  3.2761550E-01
   7172.00  3.2919910E-01
