    FDMNES
    energy     <xanes>
   7097.00  5.0438655E-03
   7097.33  5.1660442E-03
   7097.67  5.2938414E-03
   7098.00  5.4276435E-03
   7098.33  5.5687621E-03
   7098.67  5.7169414E-03
   7099.00  5.8727121E-03
   7099.33  6.0378005E-03
   7099.67  6.2119511E-03
   7100.00  6.3959143E-03
   7100.33  6.5920272E-03
   7100.67  6.8000675E-03
   7101.00  7.0211327E-03
   7101.33  7.2584966E-03
   7101.67  7.5120425E-03
   7102.00  7.7834438E-03
   7102.33  8.0774791E-03
   7102.67  8.3943021E-03
   7103.00  8.7365938E-03
   7103.33  9.1116960E-03
   7103.67  9.5204157E-03
   7104.00  9.9673235E-03
   7104.33  1.0464452E-02
   7104.67  1.1014212E-02
   7105.00  1.1625034E-02
   7105.33  1.2318362E-02
   7105.67  1.3100787E-02
   7106.00  1.3989560E-02
   7106.33  1.5027430E-02
   7106.67  1.6233142E-02
   7107.00  1.7647358E-02
   7107.33  1.9369800E-02
   7107.67  2.1461058E-02
   7108.00  2.4038782E-02
   7108.33  2.7396892E-02
   7108.67  3.1783919E-02
   7109.00  3.7667465E-02
   7109.33  4.6305123E-02
   7109.67  5.9225464E-02
   7110.00  7.9454967E-02
   7110.33  1.1572966E-01
   7110.67  1.7598898E-01
   7111.00  2.5389627E-01
   7111.33  3.0352637E-01
   7111.67  3.1335029E-01
   7112.00  2.9962547E-01
   7112.33  2.7737919E-01
   7112.67  2.5634043E-01
   7113.00  2.4027108E-01
   7113.33  2.3016290E-01
   7113.67  2.2258326E-01
   7114.00  2.1374660E-01
   7114.33  1.9978116E-01
   7114.67  1.8241199E-01
   7115.00  1.6543925E-01
   7115.33  1.5326517E-01
   7115.67  1.4678210E-01
   7116.00  1.4568688E-01
   7116.33  1.4946963E-01
   7116.67  1.5637740E-01
   7117.00  1.6528357E-01
   7117.33  1.7458160E-01
   7117.67  1.8283845E-01
   7118.00  1.9015544E-01
   7118.33  1.9798904E-01
   7118.67  2.0743389E-01
   7119.00  2.1820286E-01
   7119.33  2.2921592E-01
   7119.67  2.4033516E-01
   7120.00  2.5244588E-01
   7120.33  2.6695067E-01
   7120.67  2.8391744E-01
   7121.00  3.0322685E-01
   7121.33  3.2533611E-01
   7121.67  3.5024045E-01
   7122.00  3.7755739E-01
   7122.33  4.0626136E-01
   7122.67  4.3534479E-01
   7123.00  4.6450654E-01
   7123.33  4.9316020E-01
   7123.67  5.2012698E-01
   7124.00  5.4348906E-01
   7124.33  5.5936843E-01
   7124.67  5.6635346E-01
   7125.00  5.6465008E-01
   7125.33  5.5650074E-01
   7125.67  5.4687407E-01
   7126.00  5.3852556E-01
   7126.33  5.3265739E-01
   7126.67  5.2806376E-01
   7127.00  5.2358519E-01
   7127.33  5.1838859E-01
   7127.67  5.1265434E-01
   7128.00  5.0678992E-01
   7128.33  5.0110090E-01
   7128.67  4.9562104E-01
   7129.00  4.9054371E-01
   7129.33  4.8651411E-01
   7129.67  4.8374304E-01
   7130.00  4.8199538E-01
   7130.33  4.8078387E-01
   7130.67  4.7984091E-01
   7131.00  4.7938472E-01
   7131.33  4.7990237E-01
   7131.67  4.8152044E-01
   7132.00  4.8430158E-01
   7132.33  4.8832508E-01
   7132.67  4.9330374E-01
   7133.00  4.9916604E-01
   7133.33  5.0613688E-01
   7133.67  5.1425531E-01
   7134.00  5.2352547E-01
   7134.33  5.3386400E-01
   7134.67  5.4485196E-01
   7135.00  5.5628339E-01
   7135.33  5.6812803E-01
   7135.67  5.8043207E-01
   7136.00  5.9332880E-01
   7136.33  6.0700375E-01
   7136.67  6.2132343E-01
   7137.00  6.3610515E-01
   7137.33  6.5099860E-01
   7137.67  6.6550839E-01
   7138.00  6.7916818E-01
   7138.33  6.9126561E-01
   7138.67  7.0151566E-01
   7139.00  7.0964755E-01
   7139.33  7.1526015E-01
   7139.67  7.1873230E-01
   7140.00  7.2028853E-01
   7140.33  7.2007874E-01
   7140.67  7.1869028E-01
   7141.00  7.1646481E-01
   7141.33  7.1367479E-01
   7141.67  7.1058676E-01
   7142.00  7.0726655E-01
   7142.33  7.0366648E-01
   7142.67  6.9974943E-01
   7143.00  6.9544938E-01
   7143.33  6.9064985E-01
   7143.67  6.8537672E-01
   7144.00  6.7963616E-01
   7144.33  6.7341902E-01
   7144.67  6.6685013E-01
   7145.00  6.5999524E-01
   7145.33  6.5287962E-01
   7145.67  6.4554552E-01
   7146.00  6.3797203E-01
   7146.33  6.3007729E-01
   7146.67  6.2184595E-01
   7147.00  6.1323912E-01
   7147.33  6.0417532E-01
   7147.67  5.9469658E-01
   7148.00  5.8481591E-01
   7148.33  5.7453225E-01
   7148.67  5.6396928E-01
   7149.00  5.5322074E-01
   7149.33  5.4240820E-01
   7149.67  5.3167384E-01
   7150.00  5.2112636E-01
   7150.33  5.1090754E-01
   7150.67  5.0105733E-01
   7151.00  4.9161805E-01
   7151.33  4.8266744E-01
   7151.67  4.7415225E-01
   7152.00  4.6606139E-01
   7152.33  4.5842353E-01
   7152.67  4.5116333E-01
   7153.00  4.4426124E-01
   7153.33  4.3774240E-01
   7153.67  4.3155446E-01
   7154.00  4.2569538E-01
   7154.33  4.2020973E-01
   7154.67  4.1506384E-01
   7155.00  4.1026803E-01
   7155.33  4.0588236E-01
   7155.67  4.0187551E-01
   7156.00  3.9825541E-01
   7156.33  3.9506766E-01
   7156.67  3.9224548E-01
   7157.00  3.8975872E-01
   7157.33  3.8758928E-01
   7157.67  3.8562940E-01
   7158.00  3.8380415E-01
   7158.33  3.8202116E-01
   7158.67  3.8017747E-01
   7159.00  3.7819682E-01
   7159.33  3.7598658E-01
   7159.67  3.7353551E-01
   7160.00  3.7083958E-01
   7160.33  3.6789842E-01
   7160.67  3.6479669E-01
   7161.00  3.6160432E-01
   7161.33  3.5841895E-01
   7161.67  3.5534304E-01
   7162.00  3.5246333E-01
   7162.33  3.4990664E-01
   7162.67  3.4771048E-01
   7163.00  3.4592144E-01
   7163.33  3.4462956E-01
   7163.67  3.4379413E-01
   7164.00  3.4341256E-01
   7164.33  3.4352098E-01
   7164.67  3.4403400E-01
   7165.00  3.4491726E-01
   7165.33  3.4616272E-01
   7165.67  3.4767537E-01
   7166.00  3.4940692E-01
   7166.33  3.5132344E-01
   7166.67  3.5335321E-01
   7167.00  3.5545559E-01
   7167.33  3.5759140E-01
   7167.67  3.5971910E-01
   7168.00  3.6181077E-01
   7168.33  3.6383187E-01
   7168.67  3.6576980E-01
   7169.00  3.6761195E-01
   7169.33  3.6933604E-01
   7169.67  3.7095139E-01
   7170.00  3.7245835E-01
   7170.33  3.7384687E-01
   7170.67  3.7513375E-01
   7171.00  3.7631988E-01
   7171.33  3.7738426E-01
   7171.67  3.7831299E-01
   7172.00  3.7906138E-01
