    FDMNES
    energy     <xanes>
   7097.00  4.4488754E-03
   7097.33  4.5425836E-03
   7097.67  4.6401198E-03
   7098.00  4.7417270E-03
   7098.33  4.8482652E-03
   7098.67  4.9595334E-03
   7099.00  5.0758608E-03
   7099.33  5.1983600E-03
   7099.67  5.3268244E-03
   7100.00  5.4617133E-03
   7100.33  5.6045067E-03
   7100.67  5.7550105E-03
   7101.00  5.9138879E-03
   7101.33  6.0831759E-03
   7101.67  6.2627334E-03
   7102.00  6.4535592E-03
   7102.33  6.6585764E-03
   7102.67  6.8777891E-03
   7103.00  7.1127797E-03
   7103.33  7.3679664E-03
   7103.67  7.6437146E-03
   7104.00  7.9426940E-03
   7104.33  8.2720353E-03
   7104.67  8.6330014E-03
   7105.00  9.0304696E-03
   7105.33  9.4769676E-03
   7105.67  9.9761063E-03
   7106.00  1.0537770E-02
   7106.33  1.1186598E-02
   7106.67  1.1932999E-02
   7107.00  1.2800025E-02
   7107.33  1.3844336E-02
   7107.67  1.5099494E-02
   7108.00  1.6631203E-02
   7108.33  1.8603321E-02
   7108.67  2.1151203E-02
   7109.00  2.4529427E-02
   7109.33  2.9417527E-02
   7109.67  3.6620254E-02
   7110.00  4.7722827E-02
   7110.33  6.7315030E-02
   7110.67  1.0012948E-01
   7111.00  1.4605042E-01
   7111.33  1.8703964E-01
   7111.67  2.0588350E-01
   7112.00  1.9931255E-01
   7112.33  1.7330087E-01
   7112.67  1.4663155E-01
   7113.00  1.2726526E-01
   7113.33  1.1282393E-01
   7113.67  9.9583301E-02
   7114.00  8.9801794E-02
   7114.33  8.7191070E-02
   7114.67  8.9813660E-02
   7115.00  9.4081312E-02
   7115.33  9.5350971E-02
   7115.67  9.2465104E-02
   7116.00  8.8956901E-02
   7116.33  8.9469490E-02
   7116.67  9.4876763E-02
   7117.00  1.0545387E-01
   7117.33  1.2230583E-01
   7117.67  1.4495498E-01
   7118.00  1.7295740E-01
   7118.33  2.0444987E-01
   7118.67  2.3287531E-01
   7119.00  2.5014548E-01
   7119.33  2.4914402E-01
   7119.67  2.3764673E-01
   7120.00  2.2419096E-01
   7120.33  2.1500341E-01
   7120.67  2.1063033E-01
   7121.00  2.1050201E-01
   7121.33  2.1447797E-01
   7121.67  2.2206560E-01
   7122.00  2.3355286E-01
   7122.33  2.4969837E-01
   7122.67  2.6960006E-01
   7123.00  2.9210906E-01
   7123.33  3.1477016E-01
   7123.67  3.3432549E-01
   7124.00  3.4867704E-01
   7124.33  3.5710101E-01
   7124.67  3.6226102E-01
   7125.00  3.6607671E-01
   7125.33  3.6960906E-01
   7125.67  3.7292221E-01
   7126.00  3.7610847E-01
   7126.33  3.7978299E-01
   7126.67  3.8453127E-01
   7127.00  3.9080047E-01
   7127.33  3.9952530E-01
   7127.67  4.1135720E-01
   7128.00  4.2691870E-01
   7128.33  4.4657966E-01
   7128.67  4.6881496E-01
   7129.00  4.9224461E-01
   7129.33  5.1536402E-01
   7129.67  5.3747844E-01
   7130.00  5.5881160E-01
   7130.33  5.8064952E-01
   7130.67  6.0458632E-01
   7131.00  6.3163733E-01
   7131.33  6.6237807E-01
   7131.67  6.9553923E-01
   7132.00  7.2987426E-01
   7132.33  7.6344055E-01
   7132.67  7.9402914E-01
   7133.00  8.1967873E-01
   7133.33  8.3860353E-01
   7133.67  8.5286608E-01
   7134.00  8.6469864E-01
   7134.33  8.7475354E-01
   7134.67  8.8052436E-01
   7135.00  8.7873825E-01
   7135.33  8.6655246E-01
   7135.67  8.4627500E-01
   7136.00  8.2028150E-01
   7136.33  7.9130529E-01
   7136.67  7.6215747E-01
   7137.00  7.3425625E-01
   7137.33  7.0881552E-01
   7137.67  6.8597303E-01
   7138.00  6.6582323E-01
   7138.33  6.4863516E-01
   7138.67  6.3391886E-01
   7139.00  6.2149033E-01
   7139.33  6.1134464E-01
   7139.67  6.0291796E-01
   7140.00  5.9590034E-01
   7140.33  5.9001610E-01
   7140.67  5.8473043E-01
   7141.00  5.7972703E-01
   7141.33  5.7472314E-01
   7141.67  5.6955698E-01
   7142.00  5.6419097E-01
   7142.33  5.5867547E-01
   7142.67  5.5320657E-01
   7143.00  5.4801069E-01
   7143.33  5.4344566E-01
   7143.67  5.3971005E-01
   7144.00  5.3698659E-01
   7144.33  5.3553691E-01
   7144.67  5.3522654E-01
   7145.00  5.3598100E-01
   7145.33  5.3775998E-01
   7145.67  5.4025038E-01
   7146.00  5.4326125E-01
   7146.33  5.4659254E-01
   7146.67  5.4996278E-01
   7147.00  5.5315553E-01
   7147.33  5.5586569E-01
   7147.67  5.5791210E-01
   7148.00  5.5913345E-01
   7148.33  5.5929480E-01
   7148.67  5.5847383E-01
   7149.00  5.5668567E-01
   7149.33  5.5386617E-01
   7149.67  5.5019748E-01
   7150.00  5.4573938E-01
   7150.33  5.4046710E-01
   7150.67  5.3453494E-01
   7151.00  5.2799904E-01
   7151.33  5.2086122E-01
   7151.67  5.1325921E-01
   7152.00  5.0525459E-01
   7152.33  4.9688159E-01
   7152.67  4.8825977E-01
   7153.00  4.7946027E-01
   7153.33  4.7055636E-01
   7153.67  4.6165140E-01
   7154.00  4.5283345E-01
   7154.33  4.4423832E-01
   7154.67  4.3595539E-01
   7155.00  4.2807861E-01
   7155.33  4.2076720E-01
   7155.67  4.1403415E-01
   7156.00  4.0792440E-01
   7156.33  4.0254504E-01
   7156.67  3.9781269E-01
   7157.00  3.9370534E-01
   7157.33  3.9024973E-01
   7157.67  3.8731168E-01
   7158.00  3.8483165E-01
   7158.33  3.8278982E-01
   7158.67  3.8107832E-01
   7159.00  3.7965877E-01
   7159.33  3.7853481E-01
   7159.67  3.7765847E-01
   7160.00  3.7702600E-01
   7160.33  3.7667049E-01
   7160.67  3.7656646E-01
   7161.00  3.7671898E-01
   7161.33  3.7716475E-01
   7161.67  3.7786882E-01
   7162.00  3.7882460E-01
   7162.33  3.8004805E-01
   7162.67  3.8149421E-01
   7163.00  3.8315004E-01
   7163.33  3.8502083E-01
   7163.67  3.8705995E-01
   7164.00  3.8924499E-01
   7164.33  3.9156283E-01
   7164.67  3.9397031E-01
   7165.00  3.9644319E-01
   7165.33  3.9895904E-01
   7165.67  4.0148790E-01
   7166.00  4.0401087E-01
   7166.33  4.0650719E-01
   7166.67  4.0896636E-01
   7167.00  4.1138018E-01
   7167.33  4.1373855E-01
   7167.67  4.1605077E-01
   7168.00  4.1832454E-01
   7168.33  4.2057031E-01
   7168.67  4.2280681E-01
   7169.00  4.2504642E-01
   7169.33  4.2730124E-01
   7169.67  4.2957334E-01
   7170.00  4.3185909E-01
   7170.33  4.3414513E-01
   7170.67  4.3640617E-01
   7171.00  4.3860828E-01
   7171.33  4.4067500E-01
   7171.67  4.4252109E-01
   7172.00  4.4402578E-01
