    FDMNES
    energy     <xanes>
   7097.00  4.8608834E-03
   7097.33  4.9762775E-03
   7097.67  5.0970900E-03
   7098.00  5.2237056E-03
   7098.33  5.3574095E-03
   7098.67  5.4979711E-03
   7099.00  5.6459225E-03
   7099.33  5.8029684E-03
   7099.67  5.9688835E-03
   7100.00  6.1444249E-03
   7100.33  6.3319188E-03
   7100.67  6.5311794E-03
   7101.00  6.7433209E-03
   7101.33  6.9716258E-03
   7101.67  7.2160236E-03
   7102.00  7.4782201E-03
   7102.33  7.7630390E-03
   7102.67  8.0706928E-03
   7103.00  8.4039216E-03
   7103.33  8.7701734E-03
   7103.67  9.1703304E-03
   7104.00  9.6090627E-03
   7104.33  1.0098603E-02
   7104.67  1.0641449E-02
   7105.00  1.1246179E-02
   7105.33  1.1934540E-02
   7105.67  1.2713173E-02
   7106.00  1.3599447E-02
   7106.33  1.4636325E-02
   7106.67  1.5842215E-02
   7107.00  1.7257291E-02
   7107.33  1.8979837E-02
   7107.67  2.1067520E-02
   7108.00  2.3632890E-02
   7108.33  2.6955351E-02
   7108.67  3.1260859E-02
   7109.00  3.6973438E-02
   7109.33  4.5216588E-02
   7109.67  5.7288549E-02
   7110.00  7.5734666E-02
   7110.33  1.0790242E-01
   7110.67  1.6168104E-01
   7111.00  2.3934458E-01
   7111.33  3.2101604E-01
   7111.67  3.7165702E-01
   7112.00  3.6262014E-01
   7112.33  3.1503362E-01
   7112.67  2.8226948E-01
   7113.00  2.7413285E-01
   7113.33  2.8133100E-01
   7113.67  2.7914050E-01
   7114.00  2.5361793E-01
   7114.33  2.2281604E-01
   7114.67  2.0498069E-01
   7115.00  1.9387801E-01
   7115.33  1.8201686E-01
   7115.67  1.7116943E-01
   7116.00  1.6158738E-01
   7116.33  1.5572686E-01
   7116.67  1.5689275E-01
   7117.00  1.6466917E-01
   7117.33  1.7208278E-01
   7117.67  1.7069654E-01
   7118.00  1.5993803E-01
   7118.33  1.4526883E-01
   7118.67  1.3205452E-01
   7119.00  1.2202146E-01
   7119.33  1.1587821E-01
   7119.67  1.1270122E-01
   7120.00  1.1192088E-01
   7120.33  1.1308113E-01
   7120.67  1.1525902E-01
   7121.00  1.1786910E-01
   7121.33  1.2049200E-01
   7121.67  1.2314399E-01
   7122.00  1.2612959E-01
   7122.33  1.3007715E-01
   7122.67  1.3546562E-01
   7123.00  1.4271888E-01
   7123.33  1.5210825E-01
   7123.67  1.6279553E-01
   7124.00  1.7434505E-01
   7124.33  1.8733618E-01
   7124.67  2.0230569E-01
   7125.00  2.1915209E-01
   7125.33  2.3720889E-01
   7125.67  2.5550157E-01
   7126.00  2.7360115E-01
   7126.33  2.9131218E-01
   7126.67  3.0903186E-01
   7127.00  3.2736922E-01
   7127.33  3.4712640E-01
   7127.67  3.6882165E-01
   7128.00  3.9289503E-01
   7128.33  4.1924288E-01
   7128.67  4.4661695E-01
   7129.00  4.7463745E-01
   7129.33  5.0408145E-01
   7129.67  5.3579611E-01
   7130.00  5.7012909E-01
   7130.33  6.0658200E-01
   7130.67  6.4323785E-01
   7131.00  6.7856831E-01
   7131.33  7.1114230E-01
   7131.67  7.4107614E-01
   7132.00  7.6875474E-01
   7132.33  7.9460256E-01
   7132.67  8.1915059E-01
   7133.00  8.4209867E-01
   7133.33  8.6184686E-01
   7133.67  8.7674695E-01
   7134.00  8.8496382E-01
   7134.33  8.8378130E-01
   7134.67  8.7341012E-01
   7135.00  8.5401535E-01
   7135.33  8.2578032E-01
   7135.67  7.9143540E-01
   7136.00  7.5271881E-01
   7136.33  7.1161483E-01
   7136.67  6.7070553E-01
   7137.00  6.3179176E-01
   7137.33  5.9695794E-01
   7137.67  5.6677853E-01
   7138.00  5.4167983E-01
   7138.33  5.2237690E-01
   7138.67  5.0796843E-01
   7139.00  4.9806190E-01
   7139.33  4.9256840E-01
   7139.67  4.9034789E-01
   7140.00  4.9082571E-01
   7140.33  4.9361244E-01
   7140.67  4.9788430E-01
   7141.00  5.0326282E-01
   7141.33  5.0958222E-01
   7141.67  5.1666381E-01
   7142.00  5.2457253E-01
   7142.33  5.3357349E-01
   7142.67  5.4365404E-01
   7143.00  5.5480704E-01
   7143.33  5.6698184E-01
   7143.67  5.7975031E-01
   7144.00  5.9277246E-01
   7144.33  6.0563588E-01
   7144.67  6.1803645E-01
   7145.00  6.2978533E-01
   7145.33  6.4066375E-01
   7145.67  6.5072013E-01
   7146.00  6.5994056E-01
   7146.33  6.6820336E-01
   7146.67  6.7557806E-01
   7147.00  6.8200459E-01
   7147.33  6.8723527E-01
   7147.67  6.9124304E-01
   7148.00  6.9387336E-01
   7148.33  6.9475541E-01
   7148.67  6.9393296E-01
   7149.00  6.9132146E-01
   7149.33  6.8668752E-01
   7149.67  6.8036884E-01
   7150.00  6.7256348E-01
   7150.33  6.6345062E-01
   7150.67  6.5353062E-01
   7151.00  6.4307635E-01
   7151.33  6.3232439E-01
   7151.67  6.2152604E-01
   7152.00  6.1083069E-01
   7152.33  6.0037421E-01
   7152.67  5.9015404E-01
   7153.00  5.8014737E-01
   7153.33  5.7032250E-01
   7153.67  5.6060162E-01
   7154.00  5.5094660E-01
   7154.33  5.4134489E-01
   7154.67  5.3180898E-01
   7155.00  5.2238657E-01
   7155.33  5.1319010E-01
   7155.67  5.0430631E-01
   7156.00  4.9584218E-01
   7156.33  4.8799241E-01
   7156.67  4.8080745E-01
   7157.00  4.7437711E-01
   7157.33  4.6889256E-01
   7157.67  4.6431369E-01
   7158.00  4.6067909E-01
   7158.33  4.5813352E-01
   7158.67  4.5655560E-01
   7159.00  4.5592343E-01
   7159.33  4.5628889E-01
   7159.67  4.5744436E-01
   7160.00  4.5928533E-01
   7160.33  4.6174265E-01
   7160.67  4.6459863E-01
   7161.00  4.6772169E-01
   7161.33  4.7097765E-01
   7161.67  4.7422583E-01
   7162.00  4.7738377E-01
   7162.33  4.8036452E-01
   7162.67  4.8314965E-01
   7163.00  4.8572625E-01
   7163.33  4.8807025E-01
   7163.67  4.9021846E-01
   7164.00  4.9218061E-01
   7164.33  4.9393897E-01
   7164.67  4.9550799E-01
   7165.00  4.9686768E-01
   7165.33  4.9794833E-01
   7165.67  4.9872806E-01
   7166.00  4.9915378E-01
   7166.33  4.9911069E-01
   7166.67  4.9859997E-01
   7167.00  4.9758637E-01
   7167.33  4.9596548E-01
   7167.67  4.9377810E-01
   7168.00  4.9101697E-01
   7168.33  4.8762610E-01
   7168.67  4.8371450E-01
   7169.00  4.7933507E-01
   7169.33  4.7452214E-01
   7169.67  4.6942572E-01
   7170.00  4.6414418E-01
   7170.33  4.5879125E-01
   7170.67  4.5350153E-01
   7171.00  4.4839099E-01
   7171.33  4.4366190E-01
   7171.67  4.3949347E-01
   7172.00  4.3613605E-01
