    FDMNES
    energy     <xanes>
   7097.00  4.8799552E-03
   7097.33  4.9991132E-03
   7097.67  5.1239477E-03
   7098.00  5.2548677E-03
   7098.33  5.3932304E-03
   7098.67  5.5388039E-03
   7099.00  5.6921576E-03
   7099.33  5.8551022E-03
   7099.67  6.0274170E-03
   7100.00  6.2099191E-03
   7100.33  6.4050976E-03
   7100.67  6.6127848E-03
   7101.00  6.8341955E-03
   7101.33  7.0728753E-03
   7101.67  7.3288020E-03
   7102.00  7.6038583E-03
   7102.33  7.9033182E-03
   7102.67  8.2275099E-03
   7103.00  8.5795052E-03
   7103.33  8.9675729E-03
   7103.67  9.3928716E-03
   7104.00  9.8607372E-03
   7104.33  1.0385019E-02
   7104.67  1.0968899E-02
   7105.00  1.1622410E-02
   7105.33  1.2370798E-02
   7105.67  1.3222523E-02
   7106.00  1.4198511E-02
   7106.33  1.5350252E-02
   7106.67  1.6701601E-02
   7107.00  1.8302797E-02
   7107.33  2.0276599E-02
   7107.67  2.2700104E-02
   7108.00  2.5720996E-02
   7108.33  2.9707787E-02
   7108.67  3.4977204E-02
   7109.00  4.2121993E-02
   7109.33  5.2734858E-02
   7109.67  6.8757660E-02
   7110.00  9.4030493E-02
   7110.33  1.3974168E-01
   7110.67  2.1730321E-01
   7111.00  3.2370445E-01
   7111.33  3.9694330E-01
   7111.67  3.9443501E-01
   7112.00  3.4787771E-01
   7112.33  3.0554383E-01
   7112.67  2.7432711E-01
   7113.00  2.4835610E-01
   7113.33  2.2249632E-01
   7113.67  1.9924670E-01
   7114.00  1.8085249E-01
   7114.33  1.6392896E-01
   7114.67  1.4366633E-01
   7115.00  1.2229981E-01
   7115.33  1.0542183E-01
   7115.67  9.3818463E-02
   7116.00  8.6661677E-02
   7116.33  8.3203901E-02
   7116.67  8.2212123E-02
   7117.00  8.3245718E-02
   7117.33  8.6222270E-02
   7117.67  9.0800928E-02
   7118.00  9.6960721E-02
   7118.33  1.0479663E-01
   7118.67  1.1381366E-01
   7119.00  1.2374640E-01
   7119.33  1.3472889E-01
   7119.67  1.4687998E-01
   7120.00  1.6046281E-01
   7120.33  1.7592145E-01
   7120.67  1.9276794E-01
   7121.00  2.1033890E-01
   7121.33  2.2800991E-01
   7121.67  2.4589294E-01
   7122.00  2.6472804E-01
   7122.33  2.8562082E-01
   7122.67  3.0840274E-01
   7123.00  3.3235569E-01
   7123.33  3.5606516E-01
   7123.67  3.7810191E-01
   7124.00  3.9771769E-01
   7124.33  4.1489790E-01
   7124.67  4.3113748E-01
   7125.00  4.4725765E-01
   7125.33  4.6181185E-01
   7125.67  4.7080498E-01
   7126.00  4.7186305E-01
   7126.33  4.6744837E-01
   7126.67  4.6341081E-01
   7127.00  4.6228386E-01
   7127.33  4.6557749E-01
   7127.67  4.7264162E-01
   7128.00  4.8234743E-01
   7128.33  4.9238674E-01
   7128.67  5.0038558E-01
   7129.00  5.0559142E-01
   7129.33  5.0877341E-01
   7129.67  5.1194087E-01
   7130.00  5.1616129E-01
   7130.33  5.2201455E-01
   7130.67  5.2924505E-01
   7131.00  5.3772417E-01
   7131.33  5.4743812E-01
   7131.67  5.5807750E-01
   7132.00  5.6952481E-01
   7132.33  5.8188988E-01
   7132.67  5.9525266E-01
   7133.00  6.0975493E-01
   7133.33  6.2526394E-01
   7133.67  6.4068909E-01
   7134.00  6.5475420E-01
   7134.33  6.6575887E-01
   7134.67  6.7347022E-01
   7135.00  6.7818792E-01
   7135.33  6.8053355E-01
   7135.67  6.8169921E-01
   7136.00  6.8229858E-01
   7136.33  6.8279916E-01
   7136.67  6.8348125E-01
   7137.00  6.8444290E-01
   7137.33  6.8571740E-01
   7137.67  6.8719202E-01
   7138.00  6.8877655E-01
   7138.33  6.9036529E-01
   7138.67  6.9184073E-01
   7139.00  6.9307307E-01
   7139.33  6.9384514E-01
   7139.67  6.9407818E-01
   7140.00  6.9372791E-01
   7140.33  6.9277873E-01
   7140.67  6.9144535E-01
   7141.00  6.8989948E-01
   7141.33  6.8834388E-01
   7141.67  6.8694717E-01
   7142.00  6.8580357E-01
   7142.33  6.8499146E-01
   7142.67  6.8444344E-01
   7143.00  6.8408426E-01
   7143.33  6.8380117E-01
   7143.67  6.8345773E-01
   7144.00  6.8291827E-01
   7144.33  6.8193155E-01
   7144.67  6.8033184E-01
   7145.00  6.7794570E-01
   7145.33  6.7450172E-01
   7145.67  6.7005660E-01
   7146.00  6.6465197E-01
   7146.33  6.5834532E-01
   7146.67  6.5148552E-01
   7147.00  6.4431827E-01
   7147.33  6.3710900E-01
   7147.67  6.3007622E-01
   7148.00  6.2334619E-01
   7148.33  6.1705163E-01
   7148.67  6.1116852E-01
   7149.00  6.0568129E-01
   7149.33  6.0058780E-01
   7149.67  5.9577807E-01
   7150.00  5.9118334E-01
   7150.33  5.8672629E-01
   7150.67  5.8228580E-01
   7151.00  5.7776457E-01
   7151.33  5.7302582E-01
   7151.67  5.6797740E-01
   7152.00  5.6252098E-01
   7152.33  5.5649430E-01
   7152.67  5.4988969E-01
   7153.00  5.4267525E-01
   7153.33  5.3477600E-01
   7153.67  5.2631025E-01
   7154.00  5.1734137E-01
   7154.33  5.0791190E-01
   7154.67  4.9817612E-01
   7155.00  4.8822144E-01
   7155.33  4.7812500E-01
   7155.67  4.6798349E-01
   7156.00  4.5785822E-01
   7156.33  4.4782390E-01
   7156.67  4.3793245E-01
   7157.00  4.2823797E-01
   7157.33  4.1883793E-01
   7157.67  4.0976614E-01
   7158.00  4.0107866E-01
   7158.33  3.9288870E-01
   7158.67  3.8518507E-01
   7159.00  3.7799146E-01
   7159.33  3.7138315E-01
   7159.67  3.6528628E-01
   7160.00  3.5967963E-01
   7160.33  3.5458485E-01
   7160.67  3.4990302E-01
   7161.00  3.4559792E-01
   7161.33  3.4167448E-01
   7161.67  3.3805900E-01
   7162.00  3.3473111E-01
   7162.33  3.3171061E-01
   7162.67  3.2895823E-01
   7163.00  3.2647561E-01
   7163.33  3.2430381E-01
   7163.67  3.2241746E-01
   7164.00  3.2082398E-01
   7164.33  3.1956664E-01
   7164.67  3.1861147E-01
   7165.00  3.1795998E-01
   7165.33  3.1765052E-01
   7165.67  3.1764475E-01
   7166.00  3.1794281E-01
   7166.33  3.1858386E-01
   7166.67  3.1953100E-01
   7167.00  3.2078432E-01
   7167.33  3.2238042E-01
   7167.67  3.2427719E-01
   7168.00  3.2646850E-01
   7168.33  3.2897894E-01
   7168.67  3.3175757E-01
   7169.00  3.3478758E-01
   7169.33  3.3807396E-01
   7169.67  3.4156000E-01
   7170.00  3.4521681E-01
   7170.33  3.4901933E-01
   7170.67  3.5289644E-01
   7171.00  3.5678077E-01
   7171.33  3.6053341E-01
   7171.67  3.6395409E-01
   7172.00  3.6676867E-01
