    FDMNES
    energy     <xanes>
   7097.00  4.8599117E-03
   7097.33  4.9791479E-03
   7097.67  5.1040901E-03
   7098.00  5.2351503E-03
   7098.33  5.3736935E-03
   7098.67  5.5194873E-03
   7099.00  5.6731045E-03
   7099.33  5.8363664E-03
   7099.67  6.0090510E-03
   7100.00  6.1919799E-03
   7100.33  6.3876551E-03
   7100.67  6.5959069E-03
   7101.00  6.8179547E-03
   7101.33  7.0573598E-03
   7101.67  7.3140952E-03
   7102.00  7.5900477E-03
   7102.33  7.8905060E-03
   7102.67  8.2157881E-03
   7103.00  8.5689643E-03
   7103.33  8.9583071E-03
   7103.67  9.3849502E-03
   7104.00  9.8542077E-03
   7104.33  1.0379888E-02
   7104.67  1.0965105E-02
   7105.00  1.1619805E-02
   7105.33  1.2369035E-02
   7105.67  1.3221051E-02
   7106.00  1.4196458E-02
   7106.33  1.5346003E-02
   7106.67  1.6692819E-02
   7107.00  1.8285950E-02
   7107.33  2.0245219E-02
   7107.67  2.2644724E-02
   7108.00  2.5626908E-02
   7108.33  2.9546628E-02
   7108.67  3.4704380E-02
   7109.00  4.1662649E-02
   7109.33  5.1927283E-02
   7109.67  6.7310066E-02
   7110.00  9.1383105E-02
   7110.33  1.3447411E-01
   7110.67  2.0673707E-01
   7111.00  3.0532020E-01
   7111.33  3.8720954E-01
   7111.67  4.1751060E-01
   7112.00  3.8929298E-01
   7112.33  3.3774125E-01
   7112.67  2.9158619E-01
   7113.00  2.5263891E-01
   7113.33  2.2162353E-01
   7113.67  1.9848476E-01
   7114.00  1.8276040E-01
   7114.33  1.7100935E-01
   7114.67  1.5633924E-01
   7115.00  1.3716561E-01
   7115.33  1.1870653E-01
   7115.67  1.0500619E-01
   7116.00  9.6314299E-02
   7116.33  9.2017128E-02
   7116.67  9.0523794E-02
   7117.00  9.1123437E-02
   7117.33  9.3390245E-02
   7117.67  9.6767067E-02
   7118.00  1.0117806E-01
   7118.33  1.0689554E-01
   7118.67  1.1383229E-01
   7119.00  1.2177384E-01
   7119.33  1.3060641E-01
   7119.67  1.4084471E-01
   7120.00  1.5338257E-01
   7120.33  1.6889240E-01
   7120.67  1.8668306E-01
   7121.00  2.0647098E-01
   7121.33  2.2839265E-01
   7121.67  2.5173399E-01
   7122.00  2.7511969E-01
   7122.33  2.9581495E-01
   7122.67  3.1296088E-01
   7123.00  3.2733074E-01
   7123.33  3.3998524E-01
   7123.67  3.5165636E-01
   7124.00  3.6222582E-01
   7124.33  3.7089810E-01
   7124.67  3.7780921E-01
   7125.00  3.8393941E-01
   7125.33  3.9084837E-01
   7125.67  3.9864409E-01
   7126.00  4.0627104E-01
   7126.33  4.1269262E-01
   7126.67  4.1854899E-01
   7127.00  4.2467043E-01
   7127.33  4.3193069E-01
   7127.67  4.4090752E-01
   7128.00  4.5230306E-01
   7128.33  4.6721738E-01
   7128.67  4.8540862E-01
   7129.00  5.0628273E-01
   7129.33  5.2834883E-01
   7129.67  5.4894285E-01
   7130.00  5.6553327E-01
   7130.33  5.7520201E-01
   7130.67  5.7883170E-01
   7131.00  5.7832047E-01
   7131.33  5.7629007E-01
   7131.67  5.7498132E-01
   7132.00  5.7538878E-01
   7132.33  5.7837333E-01
   7132.67  5.8368860E-01
   7133.00  5.9081416E-01
   7133.33  5.9878794E-01
   7133.67  6.0674708E-01
   7134.00  6.1467209E-01
   7134.33  6.2274998E-01
   7134.67  6.3054076E-01
   7135.00  6.3741760E-01
   7135.33  6.4303311E-01
   7135.67  6.4800222E-01
   7136.00  6.5289643E-01
   7136.33  6.5820175E-01
   7136.67  6.6390608E-01
   7137.00  6.6971804E-01
   7137.33  6.7499155E-01
   7137.67  6.7915346E-01
   7138.00  6.8180224E-01
   7138.33  6.8255156E-01
   7138.67  6.8175265E-01
   7139.00  6.7970553E-01
   7139.33  6.7674543E-01
   7139.67  6.7339420E-01
   7140.00  6.6994546E-01
   7140.33  6.6666244E-01
   7140.67  6.6367897E-01
   7141.00  6.6107402E-01
   7141.33  6.5896159E-01
   7141.67  6.5733286E-01
   7142.00  6.5623730E-01
   7142.33  6.5582648E-01
   7142.67  6.5609265E-01
   7143.00  6.5706503E-01
   7143.33  6.5882801E-01
   7143.67  6.6122854E-01
   7144.00  6.6412815E-01
   7144.33  6.6732278E-01
   7144.67  6.7048658E-01
   7145.00  6.7334147E-01
   7145.33  6.7548880E-01
   7145.67  6.7673503E-01
   7146.00  6.7691367E-01
   7146.33  6.7578042E-01
   7146.67  6.7348753E-01
   7147.00  6.7012100E-01
   7147.33  6.6575403E-01
   7147.67  6.6073876E-01
   7148.00  6.5527695E-01
   7148.33  6.4951117E-01
   7148.67  6.4356494E-01
   7149.00  6.3745331E-01
   7149.33  6.3113118E-01
   7149.67  6.2459787E-01
   7150.00  6.1785282E-01
   7150.33  6.1090084E-01
   7150.67  6.0381257E-01
   7151.00  5.9663015E-01
   7151.33  5.8938488E-01
   7151.67  5.8210946E-01
   7152.00  5.7481727E-01
   7152.33  5.6751400E-01
   7152.67  5.6020218E-01
   7153.00  5.5288019E-01
   7153.33  5.4554072E-01
   7153.67  5.3817721E-01
   7154.00  5.3077987E-01
   7154.33  5.2332618E-01
   7154.67  5.1580074E-01
   7155.00  5.0818216E-01
   7155.33  5.0042940E-01
   7155.67  4.9253386E-01
   7156.00  4.8448118E-01
   7156.33  4.7624530E-01
   7156.67  4.6785771E-01
   7157.00  4.5934380E-01
   7157.33  4.5074077E-01
   7157.67  4.4212218E-01
   7158.00  4.3355250E-01
   7158.33  4.2512615E-01
   7158.67  4.1690168E-01
   7159.00  4.0893487E-01
   7159.33  4.0131480E-01
   7159.67  3.9403552E-01
   7160.00  3.8711162E-01
   7160.33  3.8059426E-01
   7160.67  3.7443577E-01
   7161.00  3.6862733E-01
   7161.33  3.6319826E-01
   7161.67  3.5809596E-01
   7162.00  3.5331237E-01
   7162.33  3.4887873E-01
   7162.67  3.4475171E-01
   7163.00  3.4093050E-01
   7163.33  3.3745661E-01
   7163.67  3.3429767E-01
   7164.00  3.3146106E-01
   7164.33  3.2899890E-01
   7164.67  3.2688109E-01
   7165.00  3.2511746E-01
   7165.33  3.2376495E-01
   7165.67  3.2278804E-01
   7166.00  3.2219352E-01
   7166.33  3.2203469E-01
   7166.67  3.2226480E-01
   7167.00  3.2288172E-01
   7167.33  3.2392407E-01
   7167.67  3.2532983E-01
   7168.00  3.2708230E-01
   7168.33  3.2919804E-01
   7168.67  3.3160815E-01
   7169.00  3.3428436E-01
   7169.33  3.3721873E-01
   7169.67  3.4034275E-01
   7170.00  3.4361970E-01
   7170.33  3.4701603E-01
   7170.67  3.5046289E-01
   7171.00  3.5389802E-01
   7171.33  3.5719746E-01
   7171.67  3.6019116E-01
   7172.00  3.6264387E-01
