    FDMNES
    energy     <xanes>
   7097.00  4.8758366E-03
   7097.33  4.9869877E-03
   7097.67  5.1030771E-03
   7098.00  5.2244381E-03
   7098.33  5.3522130E-03
   7098.67  5.4861679E-03
   7099.00  5.6267584E-03
   7099.33  5.7754799E-03
   7099.67  5.9320952E-03
   7100.00  6.0972441E-03
   7100.33  6.2729381E-03
   7100.67  6.4589614E-03
   7101.00  6.6562423E-03
   7101.33  6.8675745E-03
   7101.67  7.0928190E-03
   7102.00  7.3333748E-03
   7102.33  7.5932756E-03
   7102.67  7.8725816E-03
   7103.00  8.1735012E-03
   7103.33  8.5021406E-03
   7103.67  8.8590403E-03
   7104.00  9.2478897E-03
   7104.33  9.6784961E-03
   7104.67  1.0152557E-02
   7105.00  1.0676697E-02
   7105.33  1.1267906E-02
   7105.67  1.1930818E-02
   7106.00  1.2678490E-02
   7106.33  1.3543478E-02
   7106.67  1.4538610E-02
   7107.00  1.5693133E-02
   7107.33  1.7078866E-02
   7107.67  1.8735326E-02
   7108.00  2.0741441E-02
   7108.33  2.3292967E-02
   7108.67  2.6540969E-02
   7109.00  3.0771476E-02
   7109.33  3.6739499E-02
   7109.67  4.5295736E-02
   7110.00  5.8109788E-02
   7110.33  7.9939124E-02
   7110.67  1.1523810E-01
   7111.00  1.6218490E-01
   7111.33  2.0068931E-01
   7111.67  2.3274186E-01
   7112.00  2.8528179E-01
   7112.33  3.6112181E-01
   7112.67  4.0162410E-01
   7113.00  3.7156600E-01
   7113.33  2.8788009E-01
   7113.67  2.1629567E-01
   7114.00  1.7537485E-01
   7114.33  1.5888389E-01
   7114.67  1.5210300E-01
   7115.00  1.5433768E-01
   7115.33  1.7015738E-01
   7115.67  1.9323457E-01
   7116.00  2.0984177E-01
   7116.33  2.0400083E-01
   7116.67  1.8372708E-01
   7117.00  1.6012953E-01
   7117.33  1.4169048E-01
   7117.67  1.2974759E-01
   7118.00  1.2325231E-01
   7118.33  1.2079633E-01
   7118.67  1.2098887E-01
   7119.00  1.2292234E-01
   7119.33  1.2478000E-01
   7119.67  1.2529621E-01
   7120.00  1.2473876E-01
   7120.33  1.2446514E-01
   7120.67  1.2566916E-01
   7121.00  1.2895691E-01
   7121.33  1.3496653E-01
   7121.67  1.4354851E-01
   7122.00  1.5479981E-01
   7122.33  1.6923240E-01
   7122.67  1.8667980E-01
   7123.00  2.0711078E-01
   7123.33  2.3025549E-01
   7123.67  2.5473539E-01
   7124.00  2.7949862E-01
   7124.33  3.0320651E-01
   7124.67  3.2449431E-01
   7125.00  3.4182332E-01
   7125.33  3.5283034E-01
   7125.67  3.5757282E-01
   7126.00  3.5730211E-01
   7126.33  3.5563607E-01
   7126.67  3.5698767E-01
   7127.00  3.6368016E-01
   7127.33  3.7775340E-01
   7127.67  3.9948451E-01
   7128.00  4.2995598E-01
   7128.33  4.7047353E-01
   7128.67  5.1780564E-01
   7129.00  5.6806642E-01
   7129.33  6.1490629E-01
   7129.67  6.5329528E-01
   7130.00  6.8091193E-01
   7130.33  6.9786116E-01
   7130.67  7.0988019E-01
   7131.00  7.2129511E-01
   7131.33  7.3580167E-01
   7131.67  7.5418281E-01
   7132.00  7.7618503E-01
   7132.33  8.0115603E-01
   7132.67  8.2737127E-01
   7133.00  8.5341043E-01
   7133.33  8.7732265E-01
   7133.67  8.9784097E-01
   7134.00  9.1396345E-01
   7134.33  9.2407192E-01
   7134.67  9.2789434E-01
   7135.00  9.2467876E-01
   7135.33  9.1313577E-01
   7135.67  8.9478190E-01
   7136.00  8.7088622E-01
   7136.33  8.4301436E-01
   7136.67  8.1370843E-01
   7137.00  7.8453728E-01
   7137.33  7.5705360E-01
   7137.67  7.3192073E-01
   7138.00  7.0953057E-01
   7138.33  6.9042066E-01
   7138.67  6.7419449E-01
   7139.00  6.6074341E-01
   7139.33  6.5021950E-01
   7139.67  6.4206323E-01
   7140.00  6.3599968E-01
   7140.33  6.3180114E-01
   7140.67  6.2869929E-01
   7141.00  6.2613760E-01
   7141.33  6.2342904E-01
   7141.67  6.1998624E-01
   7142.00  6.1541233E-01
   7142.33  6.0925771E-01
   7142.67  6.0163055E-01
   7143.00  5.9261219E-01
   7143.33  5.8226155E-01
   7143.67  5.7100675E-01
   7144.00  5.5912081E-01
   7144.33  5.4690971E-01
   7144.67  5.3477194E-01
   7145.00  5.2301764E-01
   7145.33  5.1204950E-01
   7145.67  5.0204032E-01
   7146.00  4.9317683E-01
   7146.33  4.8578149E-01
   7146.67  4.7976911E-01
   7147.00  4.7513317E-01
   7147.33  4.7193554E-01
   7147.67  4.6984483E-01
   7148.00  4.6868580E-01
   7148.33  4.6834093E-01
   7148.67  4.6853412E-01
   7149.00  4.6913460E-01
   7149.33  4.7005887E-01
   7149.67  4.7118899E-01
   7150.00  4.7248390E-01
   7150.33  4.7393981E-01
   7150.67  4.7553720E-01
   7151.00  4.7728508E-01
   7151.33  4.7922114E-01
   7151.67  4.8134226E-01
   7152.00  4.8366020E-01
   7152.33  4.8620517E-01
   7152.67  4.8894037E-01
   7153.00  4.9183573E-01
   7153.33  4.9485215E-01
   7153.67  4.9791520E-01
   7154.00  5.0096534E-01
   7154.33  5.0391706E-01
   7154.67  5.0670767E-01
   7155.00  5.0927928E-01
   7155.33  5.1153957E-01
   7155.67  5.1347696E-01
   7156.00  5.1506057E-01
   7156.33  5.1621636E-01
   7156.67  5.1697478E-01
   7157.00  5.1732814E-01
   7157.33  5.1722480E-01
   7157.67  5.1672331E-01
   7158.00  5.1583727E-01
   7158.33  5.1454612E-01
   7158.67  5.1292872E-01
   7159.00  5.1102111E-01
   7159.33  5.0884119E-01
   7159.67  5.0647101E-01
   7160.00  5.0395535E-01
   7160.33  5.0133158E-01
   7160.67  4.9865630E-01
   7161.00  4.9596232E-01
   7161.33  4.9327716E-01
   7161.67  4.9061209E-01
   7162.00  4.8796738E-01
   7162.33  4.8533275E-01
   7162.67  4.8268534E-01
   7163.00  4.8000369E-01
   7163.33  4.7725811E-01
   7163.67  4.7443820E-01
   7164.00  4.7153467E-01
   7164.33  4.6853531E-01
   7164.67  4.6546243E-01
   7165.00  4.6233712E-01
   7165.33  4.5919313E-01
   7165.67  4.5607915E-01
   7166.00  4.5304135E-01
   7166.33  4.5015138E-01
   7166.67  4.4744429E-01
   7167.00  4.4495860E-01
   7167.33  4.4276194E-01
   7167.67  4.4084527E-01
   7168.00  4.3921767E-01
   7168.33  4.3791476E-01
   7168.67  4.3689051E-01
   7169.00  4.3613062E-01
   7169.33  4.3564448E-01
   7169.67  4.3537673E-01
   7170.00  4.3530200E-01
   7170.33  4.3540895E-01
   7170.67  4.3564498E-01
   7171.00  4.3598017E-01
   7171.33  4.3637989E-01
   7171.67  4.3677954E-01
   7172.00  4.3711433E-01
