    FDMNES
    energy     <xanes>
   7097.00  5.1143546E-03
   7097.33  5.2448471E-03
   7097.67  5.3817173E-03
   7098.00  5.5254262E-03
   7098.33  5.6775004E-03
   7098.67  5.8376797E-03
   7099.00  6.0066037E-03
   7099.33  6.1863050E-03
   7099.67  6.3765318E-03
   7100.00  6.5781968E-03
   7100.33  6.7940843E-03
   7100.67  7.0239932E-03
   7101.00  7.2692701E-03
   7101.33  7.5338590E-03
   7101.67  7.8177031E-03
   7102.00  8.1228693E-03
   7102.33  8.4551751E-03
   7102.67  8.8149146E-03
   7103.00  9.2054173E-03
   7103.33  9.6356990E-03
   7103.67  1.0106881E-02
   7104.00  1.0624655E-02
   7104.33  1.1203885E-02
   7104.67  1.1847686E-02
   7105.00  1.2566543E-02
   7105.33  1.3386983E-02
   7105.67  1.4317238E-02
   7106.00  1.5378604E-02
   7106.33  1.6623694E-02
   7106.67  1.8075285E-02
   7107.00  1.9782800E-02
   7107.33  2.1867075E-02
   7107.67  2.4399476E-02
   7108.00  2.7518916E-02
   7108.33  3.1570178E-02
   7108.67  3.6833100E-02
   7109.00  4.3832229E-02
   7109.33  5.3957149E-02
   7109.67  6.8815113E-02
   7110.00  9.1558968E-02
   7110.33  1.3135894E-01
   7110.67  1.9871972E-01
   7111.00  2.9836498E-01
   7111.33  3.9638119E-01
   7111.67  4.4401485E-01
   7112.00  4.3736883E-01
   7112.33  3.9636067E-01
   7112.67  3.5003274E-01
   7113.00  3.1671868E-01
   7113.33  3.0994419E-01
   7113.67  3.2165080E-01
   7114.00  3.3019427E-01
   7114.33  3.0587460E-01
   7114.67  2.6208626E-01
   7115.00  2.1831858E-01
   7115.33  1.8442589E-01
   7115.67  1.5980222E-01
   7116.00  1.4349059E-01
   7116.33  1.3435268E-01
   7116.67  1.2944847E-01
   7117.00  1.2724264E-01
   7117.33  1.2671445E-01
   7117.67  1.2710759E-01
   7118.00  1.2829265E-01
   7118.33  1.3038952E-01
   7118.67  1.3326404E-01
   7119.00  1.3691186E-01
   7119.33  1.4166124E-01
   7119.67  1.4786832E-01
   7120.00  1.5615983E-01
   7120.33  1.6733135E-01
   7120.67  1.8069262E-01
   7121.00  1.9531871E-01
   7121.33  2.1034417E-01
   7121.67  2.2595828E-01
   7122.00  2.4278060E-01
   7122.33  2.6066837E-01
   7122.67  2.7856950E-01
   7123.00  2.9628080E-01
   7123.33  3.1423280E-01
   7123.67  3.3260149E-01
   7124.00  3.5107633E-01
   7124.33  3.6899339E-01
   7124.67  3.8636024E-01
   7125.00  4.0381956E-01
   7125.33  4.2205929E-01
   7125.67  4.4048433E-01
   7126.00  4.5819409E-01
   7126.33  4.7414391E-01
   7126.67  4.8751115E-01
   7127.00  4.9731945E-01
   7127.33  5.0312123E-01
   7127.67  5.0715790E-01
   7128.00  5.1166379E-01
   7128.33  5.1905733E-01
   7128.67  5.2971898E-01
   7129.00  5.4263615E-01
   7129.33  5.5448887E-01
   7129.67  5.6139275E-01
   7130.00  5.6150882E-01
   7130.33  5.5570844E-01
   7130.67  5.4851417E-01
   7131.00  5.4264317E-01
   7131.33  5.3979497E-01
   7131.67  5.3986725E-01
   7132.00  5.4279411E-01
   7132.33  5.4855969E-01
   7132.67  5.5616563E-01
   7133.00  5.6485025E-01
   7133.33  5.7339610E-01
   7133.67  5.7976837E-01
   7134.00  5.8166744E-01
   7134.33  5.7657792E-01
   7134.67  5.6574324E-01
   7135.00  5.5103747E-01
   7135.33  5.3521592E-01
   7135.67  5.2086461E-01
   7136.00  5.0916956E-01
   7136.33  5.0093700E-01
   7136.67  4.9570461E-01
   7137.00  4.9333950E-01
   7137.33  4.9409879E-01
   7137.67  4.9759492E-01
   7138.00  5.0377392E-01
   7138.33  5.1277613E-01
   7138.67  5.2390382E-01
   7139.00  5.3661432E-01
   7139.33  5.5015405E-01
   7139.67  5.6350110E-01
   7140.00  5.7594291E-01
   7140.33  5.8669317E-01
   7140.67  5.9562086E-01
   7141.00  6.0264821E-01
   7141.33  6.0766787E-01
   7141.67  6.1126023E-01
   7142.00  6.1392287E-01
   7142.33  6.1631326E-01
   7142.67  6.1908833E-01
   7143.00  6.2262007E-01
   7143.33  6.2717946E-01
   7143.67  6.3251751E-01
   7144.00  6.3834503E-01
   7144.33  6.4422988E-01
   7144.67  6.4971886E-01
   7145.00  6.5448630E-01
   7145.33  6.5814501E-01
   7145.67  6.6069855E-01
   7146.00  6.6216047E-01
   7146.33  6.6254599E-01
   7146.67  6.6220732E-01
   7147.00  6.6139813E-01
   7147.33  6.6042740E-01
   7147.67  6.5963482E-01
   7148.00  6.5925442E-01
   7148.33  6.5955880E-01
   7148.67  6.6058493E-01
   7149.00  6.6236299E-01
   7149.33  6.6494111E-01
   7149.67  6.6811297E-01
   7150.00  6.7172712E-01
   7150.33  6.7560663E-01
   7150.67  6.7950446E-01
   7151.00  6.8322848E-01
   7151.33  6.8650937E-01
   7151.67  6.8919322E-01
   7152.00  6.9112581E-01
   7152.33  6.9204035E-01
   7152.67  6.9192246E-01
   7153.00  6.9068088E-01
   7153.33  6.8807794E-01
   7153.67  6.8420200E-01
   7154.00  6.7902109E-01
   7154.33  6.7236496E-01
   7154.67  6.6443263E-01
   7155.00  6.5529288E-01
   7155.33  6.4493757E-01
   7155.67  6.3367647E-01
   7156.00  6.2169188E-01
   7156.33  6.0915972E-01
   7156.67  5.9638684E-01
   7157.00  5.8357745E-01
   7157.33  5.7096700E-01
   7157.67  5.5871064E-01
   7158.00  5.4692887E-01
   7158.33  5.3579668E-01
   7158.67  5.2530768E-01
   7159.00  5.1549302E-01
   7159.33  5.0644820E-01
   7159.67  4.9806962E-01
   7160.00  4.9031962E-01
   7160.33  4.8320556E-01
   7160.67  4.7657908E-01
   7161.00  4.7036233E-01
   7161.33  4.6449984E-01
   7161.67  4.5886665E-01
   7162.00  4.5340385E-01
   7162.33  4.4807832E-01
   7162.67  4.4284850E-01
   7163.00  4.3770530E-01
   7163.33  4.3265622E-01
   7163.67  4.2768971E-01
   7164.00  4.2280285E-01
   7164.33  4.1799650E-01
   7164.67  4.1325097E-01
   7165.00  4.0855789E-01
   7165.33  4.0391562E-01
   7165.67  3.9931522E-01
   7166.00  3.9475934E-01
   7166.33  3.9026137E-01
   7166.67  3.8582291E-01
   7167.00  3.8145282E-01
   7167.33  3.7717367E-01
   7167.67  3.7299089E-01
   7168.00  3.6892088E-01
   7168.33  3.6500280E-01
   7168.67  3.6124456E-01
   7169.00  3.5766826E-01
   7169.33  3.5432623E-01
   7169.67  3.5121923E-01
   7170.00  3.4836976E-01
   7170.33  3.4583720E-01
   7170.67  3.4360655E-01
   7171.00  3.4169051E-01
   7171.33  3.4013607E-01
   7171.67  3.3889626E-01
   7172.00  3.3794696E-01
