    FDMNES
    energy     <xanes>
   7097.00  4.9918734E-03
   7097.33  5.1147654E-03
   7097.67  5.2434380E-03
   7098.00  5.3782953E-03
   7098.33  5.5206975E-03
   7098.67  5.6703896E-03
   7099.00  5.8279276E-03
   7099.33  5.9951068E-03
   7099.67  6.1716729E-03
   7100.00  6.3584124E-03
   7100.33  6.5577603E-03
   7100.67  6.7694965E-03
   7101.00  6.9947700E-03
   7101.33  7.2369935E-03
   7101.67  7.4960536E-03
   7102.00  7.7736958E-03
   7102.33  8.0748945E-03
   7102.67  8.3998051E-03
   7103.00  8.7512062E-03
   7103.33  9.1367060E-03
   7103.67  9.5570995E-03
   7104.00  1.0017073E-02
   7104.33  1.0528983E-02
   7104.67  1.1095164E-02
   7105.00  1.1724117E-02
   7105.33  1.2437511E-02
   7105.67  1.3241597E-02
   7106.00  1.4153325E-02
   7106.33  1.5214778E-02
   7106.67  1.6443179E-02
   7107.00  1.7876971E-02
   7107.33  1.9610319E-02
   7107.67  2.1696353E-02
   7108.00  2.4240038E-02
   7108.33  2.7501411E-02
   7108.67  3.1683740E-02
   7109.00  3.7169814E-02
   7109.33  4.4967976E-02
   7109.67  5.6212950E-02
   7110.00  7.3122901E-02
   7110.33  1.0203055E-01
   7110.67  1.4931579E-01
   7111.00  2.1550547E-01
   7111.33  2.8530105E-01
   7111.67  3.5022558E-01
   7112.00  4.0063384E-01
   7112.33  4.1757072E-01
   7112.67  4.0126362E-01
   7113.00  3.5681495E-01
   7113.33  3.0818195E-01
   7113.67  2.7733421E-01
   7114.00  2.6549053E-01
   7114.33  2.4896767E-01
   7114.67  2.1079482E-01
   7115.00  1.6673825E-01
   7115.33  1.3490896E-01
   7115.67  1.1530612E-01
   7116.00  1.0543472E-01
   7116.33  1.0346868E-01
   7116.67  1.0611842E-01
   7117.00  1.1156442E-01
   7117.33  1.1887694E-01
   7117.67  1.2776253E-01
   7118.00  1.3818836E-01
   7118.33  1.4987124E-01
   7118.67  1.6227626E-01
   7119.00  1.7545120E-01
   7119.33  1.8955031E-01
   7119.67  2.0376117E-01
   7120.00  2.1765300E-01
   7120.33  2.3176709E-01
   7120.67  2.4708563E-01
   7121.00  2.6384110E-01
   7121.33  2.8221370E-01
   7121.67  3.0385049E-01
   7122.00  3.3069446E-01
   7122.33  3.6304010E-01
   7122.67  3.9727135E-01
   7123.00  4.2895372E-01
   7123.33  4.5116678E-01
   7123.67  4.6247809E-01
   7124.00  4.6499013E-01
   7124.33  4.6288527E-01
   7124.67  4.6074459E-01
   7125.00  4.5922018E-01
   7125.33  4.5523184E-01
   7125.67  4.4707321E-01
   7126.00  4.3589324E-01
   7126.33  4.2460609E-01
   7126.67  4.1560469E-01
   7127.00  4.0992848E-01
   7127.33  4.0849504E-01
   7127.67  4.1051322E-01
   7128.00  4.1505663E-01
   7128.33  4.2133205E-01
   7128.67  4.2900857E-01
   7129.00  4.3819507E-01
   7129.33  4.4859896E-01
   7129.67  4.5935095E-01
   7130.00  4.7011206E-01
   7130.33  4.8107576E-01
   7130.67  4.9296367E-01
   7131.00  5.0660009E-01
   7131.33  5.2277260E-01
   7131.67  5.4080807E-01
   7132.00  5.5997696E-01
   7132.33  5.7993633E-01
   7132.67  6.0090606E-01
   7133.00  6.2316900E-01
   7133.33  6.4621702E-01
   7133.67  6.6823791E-01
   7134.00  6.8729328E-01
   7134.33  7.0038395E-01
   7134.67  7.0620919E-01
   7135.00  7.0405475E-01
   7135.33  6.9399718E-01
   7135.67  6.7936230E-01
   7136.00  6.6249059E-01
   7136.33  6.4549556E-01
   7136.67  6.2964200E-01
   7137.00  6.1538090E-01
   7137.33  6.0291279E-01
   7137.67  5.9174963E-01
   7138.00  5.8163336E-01
   7138.33  5.7253077E-01
   7138.67  5.6437165E-01
   7139.00  5.5727920E-01
   7139.33  5.5153509E-01
   7139.67  5.4702409E-01
   7140.00  5.4371150E-01
   7140.33  5.4170701E-01
   7140.67  5.4089495E-01
   7141.00  5.4135159E-01
   7141.33  5.4330957E-01
   7141.67  5.4653668E-01
   7142.00  5.5082385E-01
   7142.33  5.5583923E-01
   7142.67  5.6097144E-01
   7143.00  5.6574676E-01
   7143.33  5.6958580E-01
   7143.67  5.7228333E-01
   7144.00  5.7374412E-01
   7144.33  5.7390388E-01
   7144.67  5.7314228E-01
   7145.00  5.7173314E-01
   7145.33  5.6998473E-01
   7145.67  5.6826921E-01
   7146.00  5.6685136E-01
   7146.33  5.6608008E-01
   7146.67  5.6610712E-01
   7147.00  5.6706322E-01
   7147.33  5.6915080E-01
   7147.67  5.7223566E-01
   7148.00  5.7624267E-01
   7148.33  5.8110994E-01
   7148.67  5.8652453E-01
   7149.00  5.9226592E-01
   7149.33  5.9807004E-01
   7149.67  6.0368810E-01
   7150.00  6.0894332E-01
   7150.33  6.1356568E-01
   7150.67  6.1742737E-01
   7151.00  6.2036860E-01
   7151.33  6.2209425E-01
   7151.67  6.2262005E-01
   7152.00  6.2188137E-01
   7152.33  6.1968237E-01
   7152.67  6.1618752E-01
   7153.00  6.1141945E-01
   7153.33  6.0526996E-01
   7153.67  5.9796008E-01
   7154.00  5.8957081E-01
   7154.33  5.8011172E-01
   7154.67  5.6986998E-01
   7155.00  5.5901826E-01
   7155.33  5.4772988E-01
   7155.67  5.3628031E-01
   7156.00  5.2485399E-01
   7156.33  5.1366442E-01
   7156.67  5.0283340E-01
   7157.00  4.9245410E-01
   7157.33  4.8266228E-01
   7157.67  4.7342753E-01
   7158.00  4.6475600E-01
   7158.33  4.5670309E-01
   7158.67  4.4917292E-01
   7159.00  4.4213274E-01
   7159.33  4.3558828E-01
   7159.67  4.2942511E-01
   7160.00  4.2358396E-01
   7160.33  4.1801688E-01
   7160.67  4.1261089E-01
   7161.00  4.0729786E-01
   7161.33  4.0201443E-01
   7161.67  3.9671597E-01
   7162.00  3.9139500E-01
   7162.33  3.8607838E-01
   7162.67  3.8082505E-01
   7163.00  3.7570469E-01
   7163.33  3.7083328E-01
   7163.67  3.6626632E-01
   7164.00  3.6206582E-01
   7164.33  3.5834145E-01
   7164.67  3.5507889E-01
   7165.00  3.5229721E-01
   7165.33  3.5006536E-01
   7165.67  3.4831809E-01
   7166.00  3.4704423E-01
   7166.33  3.4628009E-01
   7166.67  3.4594127E-01
   7167.00  3.4599737E-01
   7167.33  3.4645370E-01
   7167.67  3.4722738E-01
   7168.00  3.4828478E-01
   7168.33  3.4961729E-01
   7168.67  3.5115795E-01
   7169.00  3.5287918E-01
   7169.33  3.5477278E-01
   7169.67  3.5679661E-01
   7170.00  3.5893291E-01
   7170.33  3.6117150E-01
   7170.67  3.6347310E-01
   7171.00  3.6580155E-01
   7171.33  3.6807812E-01
   7171.67  3.7017198E-01
   7172.00  3.7190091E-01
