    FDMNES
    energy     <xanes>
   7097.00  5.0666058E-03
   7097.33  5.1819056E-03
   7097.67  5.3021986E-03
   7098.00  5.4278049E-03
   7098.33  5.5598505E-03
   7098.67  5.6980743E-03
   7099.00  5.8429056E-03
   7099.33  5.9957935E-03
   7099.67  6.1564614E-03
   7100.00  6.3254984E-03
   7100.33  6.5048132E-03
   7100.67  6.6941285E-03
   7101.00  6.8942755E-03
   7101.33  7.1078377E-03
   7101.67  7.3345713E-03
   7102.00  7.5756888E-03
   7102.33  7.8348031E-03
   7102.67  8.1117809E-03
   7103.00  8.4084621E-03
   7103.33  8.7301056E-03
   7103.67  9.0768620E-03
   7104.00  9.4516640E-03
   7104.33  9.8625576E-03
   7104.67  1.0310385E-02
   7105.00  1.0800120E-02
   7105.33  1.1344889E-02
   7105.67  1.1947253E-02
   7106.00  1.2616364E-02
   7106.33  1.3375565E-02
   7106.67  1.4232003E-02
   7107.00  1.5204527E-02
   7107.33  1.6340040E-02
   7107.67  1.7659681E-02
   7108.00  1.9209283E-02
   7108.33  2.1102398E-02
   7108.67  2.3413566E-02
   7109.00  2.6288279E-02
   7109.33  3.0102215E-02
   7109.67  3.5226602E-02
   7110.00  4.2385843E-02
   7110.33  5.3634899E-02
   7110.67  7.1359231E-02
   7111.00  9.7906968E-02
   7111.33  1.3184279E-01
   7111.67  1.6252365E-01
   7112.00  1.8380191E-01
   7112.33  1.9898556E-01
   7112.67  2.1987375E-01
   7113.00  2.5365822E-01
   7113.33  2.8640068E-01
   7113.67  3.1961659E-01
   7114.00  3.8031917E-01
   7114.33  4.8106798E-01
   7114.67  5.5442319E-01
   7115.00  5.3710817E-01
   7115.33  4.4488771E-01
   7115.67  3.5551067E-01
   7116.00  2.9294370E-01
   7116.33  2.5806148E-01
   7116.67  2.3811928E-01
   7117.00  2.2404916E-01
   7117.33  2.0614961E-01
   7117.67  1.8322493E-01
   7118.00  1.6149868E-01
   7118.33  1.4817445E-01
   7118.67  1.4342488E-01
   7119.00  1.4643466E-01
   7119.33  1.5584927E-01
   7119.67  1.6604791E-01
   7120.00  1.7279070E-01
   7120.33  1.7568637E-01
   7120.67  1.7691541E-01
   7121.00  1.7813565E-01
   7121.33  1.8213546E-01
   7121.67  1.8919905E-01
   7122.00  1.9814782E-01
   7122.33  2.0836774E-01
   7122.67  2.2005063E-01
   7123.00  2.3228825E-01
   7123.33  2.4223424E-01
   7123.67  2.4925778E-01
   7124.00  2.5464527E-01
   7124.33  2.6052463E-01
   7124.67  2.6808090E-01
   7125.00  2.7746874E-01
   7125.33  2.8885723E-01
   7125.67  3.0226753E-01
   7126.00  3.1784987E-01
   7126.33  3.3567958E-01
   7126.67  3.5516633E-01
   7127.00  3.7608593E-01
   7127.33  3.9865419E-01
   7127.67  4.2295726E-01
   7128.00  4.4909564E-01
   7128.33  4.7683595E-01
   7128.67  5.0518462E-01
   7129.00  5.3335010E-01
   7129.33  5.6040443E-01
   7129.67  5.8597275E-01
   7130.00  6.0986660E-01
   7130.33  6.3203262E-01
   7130.67  6.5326634E-01
   7131.00  6.7414020E-01
   7131.33  6.9505279E-01
   7131.67  7.1609016E-01
   7132.00  7.3719549E-01
   7132.33  7.5822843E-01
   7132.67  7.7892031E-01
   7133.00  7.9879963E-01
   7133.33  8.1676214E-01
   7133.67  8.3186608E-01
   7134.00  8.4309688E-01
   7134.33  8.4885933E-01
   7134.67  8.4909734E-01
   7135.00  8.4353225E-01
   7135.33  8.3151634E-01
   7135.67  8.1432500E-01
   7136.00  7.9280455E-01
   7136.33  7.6780808E-01
   7136.67  7.4098575E-01
   7137.00  7.1327406E-01
   7137.33  6.8553397E-01
   7137.67  6.5846598E-01
   7138.00  6.3259046E-01
   7138.33  6.0867953E-01
   7138.67  5.8703172E-01
   7139.00  5.6804997E-01
   7139.33  5.5248022E-01
   7139.67  5.4012404E-01
   7140.00  5.3094628E-01
   7140.33  5.2506511E-01
   7140.67  5.2172608E-01
   7141.00  5.2055927E-01
   7141.33  5.2135357E-01
   7141.67  5.2344625E-01
   7142.00  5.2639766E-01
   7142.33  5.2960865E-01
   7142.67  5.3231138E-01
   7143.00  5.3384939E-01
   7143.33  5.3336105E-01
   7143.67  5.3077729E-01
   7144.00  5.2621009E-01
   7144.33  5.1997336E-01
   7144.67  5.1295118E-01
   7145.00  5.0573050E-01
   7145.33  4.9888903E-01
   7145.67  4.9271779E-01
   7146.00  4.8735741E-01
   7146.33  4.8295869E-01
   7146.67  4.7938304E-01
   7147.00  4.7657688E-01
   7147.33  4.7456128E-01
   7147.67  4.7319252E-01
   7148.00  4.7243706E-01
   7148.33  4.7234700E-01
   7148.67  4.7284236E-01
   7149.00  4.7392728E-01
   7149.33  4.7568750E-01
   7149.67  4.7805858E-01
   7150.00  4.8104407E-01
   7150.33  4.8471337E-01
   7150.67  4.8896723E-01
   7151.00  4.9376909E-01
   7151.33  4.9911764E-01
   7151.67  5.0486845E-01
   7152.00  5.1093321E-01
   7152.33  5.1721891E-01
   7152.67  5.2357492E-01
   7153.00  5.2989398E-01
   7153.33  5.3604485E-01
   7153.67  5.4195448E-01
   7154.00  5.4756282E-01
   7154.33  5.5278056E-01
   7154.67  5.5762940E-01
   7155.00  5.6210617E-01
   7155.33  5.6617457E-01
   7155.67  5.6989719E-01
   7156.00  5.7329144E-01
   7156.33  5.7633864E-01
   7156.67  5.7909383E-01
   7157.00  5.8156564E-01
   7157.33  5.8372005E-01
   7157.67  5.8558429E-01
   7158.00  5.8714476E-01
   7158.33  5.8833800E-01
   7158.67  5.8917748E-01
   7159.00  5.8963919E-01
   7159.33  5.8964896E-01
   7159.67  5.8924193E-01
   7160.00  5.8841472E-01
   7160.33  5.8712443E-01
   7160.67  5.8544397E-01
   7161.00  5.8340013E-01
   7161.33  5.8098913E-01
   7161.67  5.7829068E-01
   7162.00  5.7533691E-01
   7162.33  5.7213336E-01
   7162.67  5.6873337E-01
   7163.00  5.6515276E-01
   7163.33  5.6138418E-01
   7163.67  5.5745963E-01
   7164.00  5.5338782E-01
   7164.33  5.4916298E-01
   7164.67  5.4481770E-01
   7165.00  5.4036861E-01
   7165.33  5.3582881E-01
   7165.67  5.3123704E-01
   7166.00  5.2662277E-01
   7166.33  5.2202580E-01
   7166.67  5.1748324E-01
   7167.00  5.1302824E-01
   7167.33  5.0871307E-01
   7167.67  5.0455500E-01
   7168.00  5.0057718E-01
   7168.33  4.9682400E-01
   7168.67  4.9328213E-01
   7169.00  4.8995580E-01
   7169.33  4.8686987E-01
   7169.67  4.8398891E-01
   7170.00  4.8130170E-01
   7170.33  4.7881466E-01
   7170.67  4.7648728E-01
   7171.00  4.7431179E-01
   7171.33  4.7232320E-01
   7171.67  4.7055702E-01
   7172.00  4.6910442E-01
