    FDMNES
    energy     <xanes>
   7097.00  5.1704275E-03
   7097.33  5.2919845E-03
   7097.67  5.4190209E-03
   7098.00  5.5519030E-03
   7098.33  5.6918910E-03
   7098.67  5.8387187E-03
   7099.00  5.9928825E-03
   7099.33  6.1560221E-03
   7099.67  6.3278612E-03
   7100.00  6.5090889E-03
   7100.33  6.7018925E-03
   7100.67  6.9060064E-03
   7101.00  7.1224166E-03
   7101.33  7.3541253E-03
   7101.67  7.6009263E-03
   7102.00  7.8642795E-03
   7102.33  8.1484514E-03
   7102.67  8.4534016E-03
   7103.00  8.7813837E-03
   7103.33  9.1387219E-03
   7103.67  9.5257818E-03
   7104.00  9.9462248E-03
   7104.33  1.0409930E-02
   7104.67  1.0918237E-02
   7105.00  1.1477488E-02
   7105.33  1.2104192E-02
   7105.67  1.2802096E-02
   7106.00  1.3583158E-02
   7106.33  1.4477538E-02
   7106.67  1.5495461E-02
   7107.00  1.6662216E-02
   7107.33  1.8040275E-02
   7107.67  1.9659844E-02
   7108.00  2.1584206E-02
   7108.33  2.3969711E-02
   7108.67  2.6923928E-02
   7109.00  3.0653815E-02
   7109.33  3.5694840E-02
   7109.67  4.2591522E-02
   7110.00  5.2403672E-02
   7110.33  6.8137301E-02
   7110.67  9.3180334E-02
   7111.00  1.3022290E-01
   7111.33  1.7552837E-01
   7111.67  2.1783109E-01
   7112.00  2.5509105E-01
   7112.33  2.8896098E-01
   7112.67  3.1714139E-01
   7113.00  3.4915563E-01
   7113.33  3.9886114E-01
   7113.67  4.5819935E-01
   7114.00  5.0245362E-01
   7114.33  4.8871019E-01
   7114.67  4.2978353E-01
   7115.00  3.6002165E-01
   7115.33  3.0545904E-01
   7115.67  2.6786606E-01
   7116.00  2.4405986E-01
   7116.33  2.3007413E-01
   7116.67  2.1911380E-01
   7117.00  2.0627139E-01
   7117.33  1.8923175E-01
   7117.67  1.7248785E-01
   7118.00  1.5957179E-01
   7118.33  1.5198113E-01
   7118.67  1.4810380E-01
   7119.00  1.4651856E-01
   7119.33  1.4548122E-01
   7119.67  1.4379530E-01
   7120.00  1.4127733E-01
   7120.33  1.3821551E-01
   7120.67  1.3529606E-01
   7121.00  1.3298622E-01
   7121.33  1.3170591E-01
   7121.67  1.3175898E-01
   7122.00  1.3387095E-01
   7122.33  1.3941197E-01
   7122.67  1.4851504E-01
   7123.00  1.6104569E-01
   7123.33  1.7694297E-01
   7123.67  1.9547689E-01
   7124.00  2.1610330E-01
   7124.33  2.3763378E-01
   7124.67  2.5865809E-01
   7125.00  2.7884089E-01
   7125.33  2.9860192E-01
   7125.67  3.1857623E-01
   7126.00  3.3913774E-01
   7126.33  3.6102003E-01
   7126.67  3.8493975E-01
   7127.00  4.1150845E-01
   7127.33  4.4080749E-01
   7127.67  4.7097919E-01
   7128.00  5.0019255E-01
   7128.33  5.2650572E-01
   7128.67  5.4977667E-01
   7129.00  5.7039204E-01
   7129.33  5.8898811E-01
   7129.67  6.0691317E-01
   7130.00  6.2534135E-01
   7130.33  6.4590512E-01
   7130.67  6.6922576E-01
   7131.00  6.9521461E-01
   7131.33  7.2289976E-01
   7131.67  7.5022284E-01
   7132.00  7.7562149E-01
   7132.33  7.9748910E-01
   7132.67  8.1566364E-01
   7133.00  8.2994898E-01
   7133.33  8.3972588E-01
   7133.67  8.4552957E-01
   7134.00  8.4765565E-01
   7134.33  8.4639981E-01
   7134.67  8.4268272E-01
   7135.00  8.3637525E-01
   7135.33  8.2626222E-01
   7135.67  8.1201955E-01
   7136.00  7.9353285E-01
   7136.33  7.7088624E-01
   7136.67  7.4554651E-01
   7137.00  7.1849966E-01
   7137.33  6.9077228E-01
   7137.67  6.6340608E-01
   7138.00  6.3714884E-01
   7138.33  6.1309562E-01
   7138.67  5.9179776E-01
   7139.00  5.7380044E-01
   7139.33  5.5990857E-01
   7139.67  5.4966186E-01
   7140.00  5.4282520E-01
   7140.33  5.3935800E-01
   7140.67  5.3844863E-01
   7141.00  5.3976593E-01
   7141.33  5.4322254E-01
   7141.67  5.4828199E-01
   7142.00  5.5465683E-01
   7142.33  5.6201501E-01
   7142.67  5.6963778E-01
   7143.00  5.7686289E-01
   7143.33  5.8267349E-01
   7143.67  5.8643095E-01
   7144.00  5.8763509E-01
   7144.33  5.8567820E-01
   7144.67  5.8105381E-01
   7145.00  5.7414984E-01
   7145.33  5.6537775E-01
   7145.67  5.5559474E-01
   7146.00  5.4529903E-01
   7146.33  5.3495079E-01
   7146.67  5.2489432E-01
   7147.00  5.1533190E-01
   7147.33  5.0650158E-01
   7147.67  4.9841819E-01
   7148.00  4.9113213E-01
   7148.33  4.8478215E-01
   7148.67  4.7928367E-01
   7149.00  4.7464712E-01
   7149.33  4.7098942E-01
   7149.67  4.6820716E-01
   7150.00  4.6630365E-01
   7150.33  4.6539136E-01
   7150.67  4.6535834E-01
   7151.00  4.6619647E-01
   7151.33  4.6799508E-01
   7151.67  4.7062008E-01
   7152.00  4.7403830E-01
   7152.33  4.7829326E-01
   7152.67  4.8322920E-01
   7153.00  4.8877883E-01
   7153.33  4.9491454E-01
   7153.67  5.0146439E-01
   7154.00  5.0832723E-01
   7154.33  5.1540278E-01
   7154.67  5.2254212E-01
   7155.00  5.2964058E-01
   7155.33  5.3656584E-01
   7155.67  5.4323731E-01
   7156.00  5.4958110E-01
   7156.33  5.5547552E-01
   7156.67  5.6091243E-01
   7157.00  5.6585063E-01
   7157.33  5.7018241E-01
   7157.67  5.7394072E-01
   7158.00  5.7709944E-01
   7158.33  5.7955428E-01
   7158.67  5.8136213E-01
   7159.00  5.8250937E-01
   7159.33  5.8290681E-01
   7159.67  5.8264661E-01
   7160.00  5.8174929E-01
   7160.33  5.8017922E-01
   7160.67  5.7806596E-01
   7161.00  5.7546735E-01
   7161.33  5.7240868E-01
   7161.67  5.6902253E-01
   7162.00  5.6537849E-01
   7162.33  5.6152933E-01
   7162.67  5.5756654E-01
   7163.00  5.5354299E-01
   7163.33  5.4949940E-01
   7163.67  5.4545202E-01
   7164.00  5.4140082E-01
   7164.33  5.3734080E-01
   7164.67  5.3326299E-01
   7165.00  5.2915729E-01
   7165.33  5.2501138E-01
   7165.67  5.2082972E-01
   7166.00  5.1661968E-01
   7166.33  5.1239751E-01
   7166.67  5.0819058E-01
   7167.00  5.0402480E-01
   7167.33  4.9994015E-01
   7167.67  4.9595738E-01
   7168.00  4.9209898E-01
   7168.33  4.8840251E-01
   7168.67  4.8486158E-01
   7169.00  4.8148092E-01
   7169.33  4.7827761E-01
   7169.67  4.7522074E-01
   7170.00  4.7229927E-01
   7170.33  4.6951951E-01
   7170.67  4.6686380E-01
   7171.00  4.6434210E-01
   7171.33  4.6201268E-01
   7171.67  4.5993874E-01
   7172.00  4.5823825E-01
