    FDMNES
    energy     <xanes>
   7097.00  5.0867632E-03
   7097.33  5.2025237E-03
   7097.67  5.3233070E-03
   7098.00  5.4494367E-03
   7098.33  5.5820475E-03
   7098.67  5.7208788E-03
   7099.00  5.8663647E-03
   7099.33  6.0199678E-03
   7099.67  6.1814125E-03
   7100.00  6.3512957E-03
   7100.33  6.5315467E-03
   7100.67  6.7218905E-03
   7101.00  6.9231709E-03
   7101.33  7.1380038E-03
   7101.67  7.3661504E-03
   7102.00  7.6088437E-03
   7102.33  7.8697489E-03
   7102.67  8.1487428E-03
   7103.00  8.4476997E-03
   7103.33  8.7719648E-03
   7103.67  9.1217077E-03
   7104.00  9.4999196E-03
   7104.33  9.9147908E-03
   7104.67  1.0367198E-02
   7105.00  1.0862213E-02
   7105.33  1.1413202E-02
   7105.67  1.2022776E-02
   7106.00  1.2700238E-02
   7106.33  1.3469285E-02
   7106.67  1.4337079E-02
   7107.00  1.5322587E-02
   7107.33  1.6472929E-02
   7107.67  1.7808726E-02
   7108.00  1.9374994E-02
   7108.33  2.1282720E-02
   7108.67  2.3601165E-02
   7109.00  2.6465761E-02
   7109.33  3.0220934E-02
   7109.67  3.5182487E-02
   7110.00  4.1958718E-02
   7110.33  5.2230122E-02
   7110.67  6.7873555E-02
   7111.00  9.1201017E-02
   7111.33  1.2602531E-01
   7111.67  1.7121994E-01
   7112.00  2.1791344E-01
   7112.33  2.6085817E-01
   7112.67  2.9618977E-01
   7113.00  3.0756598E-01
   7113.33  3.2031904E-01
   7113.67  3.5992537E-01
   7114.00  4.0175259E-01
   7114.33  4.0375511E-01
   7114.67  3.9499107E-01
   7115.00  3.7742070E-01
   7115.33  3.3736770E-01
   7115.67  2.9470576E-01
   7116.00  2.6279519E-01
   7116.33  2.4553435E-01
   7116.67  2.3753166E-01
   7117.00  2.3348076E-01
   7117.33  2.2459757E-01
   7117.67  2.0857174E-01
   7118.00  1.9140223E-01
   7118.33  1.8095322E-01
   7118.67  1.7793506E-01
   7119.00  1.8069982E-01
   7119.33  1.8637251E-01
   7119.67  1.9108145E-01
   7120.00  1.9225586E-01
   7120.33  1.8865191E-01
   7120.67  1.8418505E-01
   7121.00  1.8187393E-01
   7121.33  1.8221620E-01
   7121.67  1.8398833E-01
   7122.00  1.8695154E-01
   7122.33  1.9124991E-01
   7122.67  1.9698497E-01
   7123.00  2.0421640E-01
   7123.33  2.1258917E-01
   7123.67  2.2176886E-01
   7124.00  2.3234452E-01
   7124.33  2.4582480E-01
   7124.67  2.6288954E-01
   7125.00  2.8368110E-01
   7125.33  3.0702133E-01
   7125.67  3.2912898E-01
   7126.00  3.4646796E-01
   7126.33  3.5651749E-01
   7126.67  3.6275382E-01
   7127.00  3.6966348E-01
   7127.33  3.8285127E-01
   7127.67  4.0468900E-01
   7128.00  4.3617217E-01
   7128.33  4.7765369E-01
   7128.67  5.2486692E-01
   7129.00  5.7330714E-01
   7129.33  6.1652819E-01
   7129.67  6.5138607E-01
   7130.00  6.7775133E-01
   7130.33  6.9730039E-01
   7130.67  7.1399972E-01
   7131.00  7.3005249E-01
   7131.33  7.4699419E-01
   7131.67  7.6513412E-01
   7132.00  7.8423800E-01
   7132.33  8.0366935E-01
   7132.67  8.2255714E-01
   7133.00  8.4021093E-01
   7133.33  8.5566577E-01
   7133.67  8.6846334E-01
   7134.00  8.7792300E-01
   7134.33  8.8256191E-01
   7134.67  8.8184848E-01
   7135.00  8.7490277E-01
   7135.33  8.6015559E-01
   7135.67  8.3845218E-01
   7136.00  8.1046726E-01
   7136.33  7.7712124E-01
   7136.67  7.4097973E-01
   7137.00  7.0374953E-01
   7137.33  6.6721948E-01
   7137.67  6.3264237E-01
   7138.00  6.0089979E-01
   7138.33  5.7323265E-01
   7138.67  5.4971357E-01
   7139.00  5.3053540E-01
   7139.33  5.1610620E-01
   7139.67  5.0545146E-01
   7140.00  4.9802070E-01
   7140.33  4.9342659E-01
   7140.67  4.9069274E-01
   7141.00  4.8933046E-01
   7141.33  4.8898176E-01
   7141.67  4.8914022E-01
   7142.00  4.8950940E-01
   7142.33  4.8980284E-01
   7142.67  4.8984817E-01
   7143.00  4.8957430E-01
   7143.33  4.8894555E-01
   7143.67  4.8806895E-01
   7144.00  4.8702171E-01
   7144.33  4.8587630E-01
   7144.67  4.8470657E-01
   7145.00  4.8354735E-01
   7145.33  4.8242850E-01
   7145.67  4.8136451E-01
   7146.00  4.8037304E-01
   7146.33  4.7949425E-01
   7146.67  4.7875338E-01
   7147.00  4.7819084E-01
   7147.33  4.7789024E-01
   7147.67  4.7788206E-01
   7148.00  4.7821881E-01
   7148.33  4.7901048E-01
   7148.67  4.8026040E-01
   7149.00  4.8200812E-01
   7149.33  4.8435699E-01
   7149.67  4.8726508E-01
   7150.00  4.9074397E-01
   7150.33  4.9486599E-01
   7150.67  4.9953829E-01
   7151.00  5.0472088E-01
   7151.33  5.1041442E-01
   7151.67  5.1649258E-01
   7152.00  5.2287855E-01
   7152.33  5.2948774E-01
   7152.67  5.3616722E-01
   7153.00  5.4279597E-01
   7153.33  5.4920350E-01
   7153.67  5.5527387E-01
   7154.00  5.6090042E-01
   7154.33  5.6591693E-01
   7154.67  5.7032746E-01
   7155.00  5.7410534E-01
   7155.33  5.7716831E-01
   7155.67  5.7961796E-01
   7156.00  5.8148706E-01
   7156.33  5.8275557E-01
   7156.67  5.8354055E-01
   7157.00  5.8388562E-01
   7157.33  5.8379253E-01
   7157.67  5.8335945E-01
   7158.00  5.8262778E-01
   7158.33  5.8161290E-01
   7158.67  5.8039111E-01
   7159.00  5.7899843E-01
   7159.33  5.7745590E-01
   7159.67  5.7581156E-01
   7160.00  5.7408655E-01
   7160.33  5.7229057E-01
   7160.67  5.7044188E-01
   7161.00  5.6854423E-01
   7161.33  5.6658957E-01
   7161.67  5.6457619E-01
   7162.00  5.6249427E-01
   7162.33  5.6032074E-01
   7162.67  5.5805294E-01
   7163.00  5.5568227E-01
   7163.33  5.5318828E-01
   7163.67  5.5058040E-01
   7164.00  5.4785687E-01
   7164.33  5.4500610E-01
   7164.67  5.4205778E-01
   7165.00  5.3902789E-01
   7165.33  5.3591975E-01
   7165.67  5.3275394E-01
   7166.00  5.2954144E-01
   7166.33  5.2629001E-01
   7166.67  5.2301523E-01
   7167.00  5.1972599E-01
   7167.33  5.1642999E-01
   7167.67  5.1313392E-01
   7168.00  5.0984172E-01
   7168.33  5.0655825E-01
   7168.67  5.0328650E-01
   7169.00  5.0003003E-01
   7169.33  4.9679509E-01
   7169.67  4.9358447E-01
   7170.00  4.9040579E-01
   7170.33  4.8727960E-01
   7170.67  4.8422452E-01
   7171.00  4.8127307E-01
   7171.33  4.7851144E-01
   7171.67  4.7603830E-01
   7172.00  4.7401069E-01
