    FDMNES
    energy     <xanes>
   7097.00  4.6000521E-03
   7097.33  4.6972114E-03
   7097.67  4.7982059E-03
   7098.00  4.9032636E-03
   7098.33  5.0132195E-03
   7098.67  5.1278500E-03
   7099.00  5.2474571E-03
   7099.33  5.3730998E-03
   7099.67  5.5045397E-03
   7100.00  5.6421872E-03
   7100.33  5.7874180E-03
   7100.67  5.9399891E-03
   7101.00  6.1004761E-03
   7101.33  6.2707188E-03
   7101.67  6.4504950E-03
   7102.00  6.6406427E-03
   7102.33  6.8437140E-03
   7102.67  7.0595659E-03
   7103.00  7.2894767E-03
   7103.33  7.5371527E-03
   7103.67  7.8026688E-03
   7104.00  8.0880919E-03
   7104.33  8.3991343E-03
   7104.67  8.7364292E-03
   7105.00  9.1035815E-03
   7105.33  9.5101170E-03
   7105.67  9.9581355E-03
   7106.00  1.0454589E-02
   7106.33  1.1017170E-02
   7106.67  1.1652179E-02
   7107.00  1.2375019E-02
   7107.33  1.3223983E-02
   7107.67  1.4219419E-02
   7108.00  1.5403039E-02
   7108.33  1.6879098E-02
   7108.67  1.8728241E-02
   7109.00  2.1104426E-02
   7109.33  2.4416483E-02
   7109.67  2.9131317E-02
   7110.00  3.6170615E-02
   7110.33  4.8228714E-02
   7110.67  6.8449869E-02
   7111.00  9.8263926E-02
   7111.33  1.2421970E-01
   7111.67  1.2925537E-01
   7112.00  1.2348560E-01
   7112.33  1.2045680E-01
   7112.67  1.2335350E-01
   7113.00  1.3158829E-01
   7113.33  1.4353035E-01
   7113.67  1.5396881E-01
   7114.00  1.5273670E-01
   7114.33  1.3584132E-01
   7114.67  1.1823257E-01
   7115.00  1.0779408E-01
   7115.33  1.0809670E-01
   7115.67  1.1899402E-01
   7116.00  1.4197609E-01
   7116.33  1.7706772E-01
   7116.67  2.1434204E-01
   7117.00  2.4163782E-01
   7117.33  2.3984901E-01
   7117.67  2.2399377E-01
   7118.00  2.1420226E-01
   7118.33  2.1810529E-01
   7118.67  2.2905650E-01
   7119.00  2.4330620E-01
   7119.33  2.6094338E-01
   7119.67  2.8265017E-01
   7120.00  3.0838124E-01
   7120.33  3.3537452E-01
   7120.67  3.5937965E-01
   7121.00  3.8034296E-01
   7121.33  4.0049939E-01
   7121.67  4.1980710E-01
   7122.00  4.3595029E-01
   7122.33  4.4616377E-01
   7122.67  4.5089604E-01
   7123.00  4.5020660E-01
   7123.33  4.4320759E-01
   7123.67  4.3142750E-01
   7124.00  4.1760455E-01
   7124.33  4.0697552E-01
   7124.67  4.0258634E-01
   7125.00  4.0481288E-01
   7125.33  4.1232714E-01
   7125.67  4.2155891E-01
   7126.00  4.3065778E-01
   7126.33  4.3945266E-01
   7126.67  4.4926706E-01
   7127.00  4.6114774E-01
   7127.33  4.7584359E-01
   7127.67  4.9259313E-01
   7128.00  5.1055602E-01
   7128.33  5.2889475E-01
   7128.67  5.4697844E-01
   7129.00  5.6418246E-01
   7129.33  5.7938114E-01
   7129.67  5.9201547E-01
   7130.00  6.0161824E-01
   7130.33  6.0729273E-01
   7130.67  6.0906479E-01
   7131.00  6.0696130E-01
   7131.33  6.0153461E-01
   7131.67  5.9489574E-01
   7132.00  5.8872835E-01
   7132.33  5.8488239E-01
   7132.67  5.8386557E-01
   7133.00  5.8551310E-01
   7133.33  5.8907813E-01
   7133.67  5.9317651E-01
   7134.00  5.9711326E-01
   7134.33  6.0050803E-01
   7134.67  6.0341702E-01
   7135.00  6.0593127E-01
   7135.33  6.0816129E-01
   7135.67  6.1029019E-01
   7136.00  6.1244434E-01
   7136.33  6.1480995E-01
   7136.67  6.1755079E-01
   7137.00  6.2078372E-01
   7137.33  6.2450715E-01
   7137.67  6.2834257E-01
   7138.00  6.3186373E-01
   7138.33  6.3441797E-01
   7138.67  6.3556871E-01
   7139.00  6.3486552E-01
   7139.33  6.3161487E-01
   7139.67  6.2598638E-01
   7140.00  6.1819460E-01
   7140.33  6.0854964E-01
   7140.67  5.9789223E-01
   7141.00  5.8676481E-01
   7141.33  5.7571841E-01
   7141.67  5.6514708E-01
   7142.00  5.5529308E-01
   7142.33  5.4647243E-01
   7142.67  5.3873213E-01
   7143.00  5.3220226E-01
   7143.33  5.2718744E-01
   7143.67  5.2361340E-01
   7144.00  5.2150330E-01
   7144.33  5.2097119E-01
   7144.67  5.2167836E-01
   7145.00  5.2341063E-01
   7145.33  5.2594894E-01
   7145.67  5.2886251E-01
   7146.00  5.3185770E-01
   7146.33  5.3459036E-01
   7146.67  5.3682657E-01
   7147.00  5.3839637E-01
   7147.33  5.3908981E-01
   7147.67  5.3899332E-01
   7148.00  5.3816101E-01
   7148.33  5.3663050E-01
   7148.67  5.3463223E-01
   7149.00  5.3230727E-01
   7149.33  5.2978230E-01
   7149.67  5.2718814E-01
   7150.00  5.2457390E-01
   7150.33  5.2194127E-01
   7150.67  5.1924996E-01
   7151.00  5.1644296E-01
   7151.33  5.1342869E-01
   7151.67  5.1017912E-01
   7152.00  5.0667350E-01
   7152.33  5.0288064E-01
   7152.67  4.9885423E-01
   7153.00  4.9462701E-01
   7153.33  4.9023499E-01
   7153.67  4.8577032E-01
   7154.00  4.8131259E-01
   7154.33  4.7697884E-01
   7154.67  4.7285723E-01
   7155.00  4.6902512E-01
   7155.33  4.6559538E-01
   7155.67  4.6256047E-01
   7156.00  4.5992312E-01
   7156.33  4.5769882E-01
   7156.67  4.5578311E-01
   7157.00  4.5411162E-01
   7157.33  4.5262527E-01
   7157.67  4.5123155E-01
   7158.00  4.4988101E-01
   7158.33  4.4853254E-01
   7158.67  4.4716023E-01
   7159.00  4.4575055E-01
   7159.33  4.4429022E-01
   7159.67  4.4278085E-01
   7160.00  4.4121754E-01
   7160.33  4.3958931E-01
   7160.67  4.3790436E-01
   7161.00  4.3616827E-01
   7161.33  4.3438916E-01
   7161.67  4.3259282E-01
   7162.00  4.3080443E-01
   7162.33  4.2906583E-01
   7162.67  4.2741280E-01
   7163.00  4.2588202E-01
   7163.33  4.2453522E-01
   7163.67  4.2338972E-01
   7164.00  4.2247336E-01
   7164.33  4.2184268E-01
   7164.67  4.2148040E-01
   7165.00  4.2138954E-01
   7165.33  4.2159590E-01
   7165.67  4.2204845E-01
   7166.00  4.2272372E-01
   7166.33  4.2361020E-01
   7166.67  4.2464305E-01
   7167.00  4.2578314E-01
   7167.33  4.2699112E-01
   7167.67  4.2821478E-01
   7168.00  4.2941980E-01
   7168.33  4.3056717E-01
   7168.67  4.3164108E-01
   7169.00  4.3263178E-01
   7169.33  4.3352761E-01
   7169.67  4.3434746E-01
   7170.00  4.3510461E-01
   7170.33  4.3581342E-01
   7170.67  4.3649877E-01
   7171.00  4.3717232E-01
   7171.33  4.3783252E-01
   7171.67  4.3845313E-01
   7172.00  4.3898038E-01
