    FDMNES
    energy     <xanes>
   7097.00  4.9655329E-03
   7097.33  5.0838657E-03
   7097.67  5.2076117E-03
   7098.00  5.3371395E-03
   7098.33  5.4737056E-03
   7098.67  5.6170568E-03
   7099.00  5.7676955E-03
   7099.33  5.9272665E-03
   7099.67  6.0955106E-03
   7100.00  6.2731311E-03
   7100.33  6.4623366E-03
   7100.67  6.6628872E-03
   7101.00  6.8757976E-03
   7101.33  7.1041255E-03
   7101.67  7.3477057E-03
   7102.00  7.6080568E-03
   7102.33  7.8895696E-03
   7102.67  8.1922772E-03
   7103.00  8.5185541E-03
   7103.33  8.8749947E-03
   7103.67  9.2621104E-03
   7104.00  9.6838221E-03
   7104.33  1.0150604E-02
   7104.67  1.0664117E-02
   7105.00  1.1231298E-02
   7105.33  1.1870028E-02
   7105.67  1.2584865E-02
   7106.00  1.3389239E-02
   7106.33  1.4316785E-02
   7106.67  1.5380056E-02
   7107.00  1.6608518E-02
   7107.33  1.8074720E-02
   7107.67  1.9816930E-02
   7108.00  2.1912853E-02
   7108.33  2.4555194E-02
   7108.67  2.7888171E-02
   7109.00  3.2186515E-02
   7109.33  3.8173005E-02
   7109.67  4.6645545E-02
   7110.00  5.9170298E-02
   7110.33  8.0222457E-02
   7110.67  1.1428467E-01
   7111.00  1.6131973E-01
   7111.33  2.0571647E-01
   7111.67  2.3917315E-01
   7112.00  2.6921941E-01
   7112.33  3.0214204E-01
   7112.67  3.2783785E-01
   7113.00  3.4364277E-01
   7113.33  3.6184301E-01
   7113.67  3.8883548E-01
   7114.00  4.1402490E-01
   7114.33  4.1315278E-01
   7114.67  3.8369758E-01
   7115.00  3.3826202E-01
   7115.33  2.9452925E-01
   7115.67  2.6065872E-01
   7116.00  2.3696597E-01
   7116.33  2.2027464E-01
   7116.67  2.0383799E-01
   7117.00  1.8427487E-01
   7117.33  1.6294803E-01
   7117.67  1.4413265E-01
   7118.00  1.2952327E-01
   7118.33  1.1954168E-01
   7118.67  1.1297402E-01
   7119.00  1.0925942E-01
   7119.33  1.0799283E-01
   7119.67  1.0822392E-01
   7120.00  1.0961708E-01
   7120.33  1.1232659E-01
   7120.67  1.1642470E-01
   7121.00  1.2201506E-01
   7121.33  1.2889734E-01
   7121.67  1.3606068E-01
   7122.00  1.4301116E-01
   7122.33  1.5028066E-01
   7122.67  1.5896654E-01
   7123.00  1.6986108E-01
   7123.33  1.8364587E-01
   7123.67  1.9947944E-01
   7124.00  2.1655635E-01
   7124.33  2.3492466E-01
   7124.67  2.5484884E-01
   7125.00  2.7566552E-01
   7125.33  2.9496386E-01
   7125.67  3.1098171E-01
   7126.00  3.2366848E-01
   7126.33  3.3443390E-01
   7126.67  3.4564618E-01
   7127.00  3.5892939E-01
   7127.33  3.7643556E-01
   7127.67  3.9914929E-01
   7128.00  4.2755254E-01
   7128.33  4.6122428E-01
   7128.67  4.9734204E-01
   7129.00  5.3402798E-01
   7129.33  5.7005248E-01
   7129.67  6.0509420E-01
   7130.00  6.3825373E-01
   7130.33  6.6701239E-01
   7130.67  6.9092780E-01
   7131.00  7.1129195E-01
   7131.33  7.3037238E-01
   7131.67  7.4959437E-01
   7132.00  7.6858548E-01
   7132.33  7.8528172E-01
   7132.67  7.9752242E-01
   7133.00  8.0372531E-01
   7133.33  8.0302158E-01
   7133.67  7.9828416E-01
   7134.00  7.9208595E-01
   7134.33  7.8649210E-01
   7134.67  7.8169588E-01
   7135.00  7.7698817E-01
   7135.33  7.7095771E-01
   7135.67  7.6257523E-01
   7136.00  7.5140238E-01
   7136.33  7.3745152E-01
   7136.67  7.2191949E-01
   7137.00  7.0570259E-01
   7137.33  6.8972168E-01
   7137.67  6.7449224E-01
   7138.00  6.6017623E-01
   7138.33  6.4683366E-01
   7138.67  6.3422143E-01
   7139.00  6.2226439E-01
   7139.33  6.1106917E-01
   7139.67  6.0068087E-01
   7140.00  5.9125819E-01
   7140.33  5.8314820E-01
   7140.67  5.7641308E-01
   7141.00  5.7123130E-01
   7141.33  5.6799782E-01
   7141.67  5.6659994E-01
   7142.00  5.6704926E-01
   7142.33  5.6950760E-01
   7142.67  5.7364239E-01
   7143.00  5.7933498E-01
   7143.33  5.8656503E-01
   7143.67  5.9482702E-01
   7144.00  6.0362800E-01
   7144.33  6.1207467E-01
   7144.67  6.1907584E-01
   7145.00  6.2354904E-01
   7145.33  6.2397057E-01
   7145.67  6.2030756E-01
   7146.00  6.1278743E-01
   7146.33  6.0193487E-01
   7146.67  5.8933211E-01
   7147.00  5.7598017E-01
   7147.33  5.6281748E-01
   7147.67  5.5042831E-01
   7148.00  5.3912040E-01
   7148.33  5.2924163E-01
   7148.67  5.2070904E-01
   7149.00  5.1353797E-01
   7149.33  5.0789504E-01
   7149.67  5.0358752E-01
   7150.00  5.0055921E-01
   7150.33  4.9885181E-01
   7150.67  4.9817596E-01
   7151.00  4.9838272E-01
   7151.33  4.9936749E-01
   7151.67  5.0086143E-01
   7152.00  5.0274257E-01
   7152.33  5.0495245E-01
   7152.67  5.0739123E-01
   7153.00  5.1001744E-01
   7153.33  5.1280556E-01
   7153.67  5.1569249E-01
   7154.00  5.1863719E-01
   7154.33  5.2159376E-01
   7154.67  5.2451906E-01
   7155.00  5.2738538E-01
   7155.33  5.3016145E-01
   7155.67  5.3284353E-01
   7156.00  5.3541950E-01
   7156.33  5.3785092E-01
   7156.67  5.4011572E-01
   7157.00  5.4216569E-01
   7157.33  5.4389221E-01
   7157.67  5.4524631E-01
   7158.00  5.4615209E-01
   7158.33  5.4646065E-01
   7158.67  5.4617107E-01
   7159.00  5.4524344E-01
   7159.33  5.4357382E-01
   7159.67  5.4125216E-01
   7160.00  5.3830792E-01
   7160.33  5.3472986E-01
   7160.67  5.3067516E-01
   7161.00  5.2624138E-01
   7161.33  5.2151842E-01
   7161.67  5.1664416E-01
   7162.00  5.1170025E-01
   7162.33  5.0678819E-01
   7162.67  5.0198909E-01
   7163.00  4.9735456E-01
   7163.33  4.9294226E-01
   7163.67  4.8873283E-01
   7164.00  4.8471144E-01
   7164.33  4.8086108E-01
   7164.67  4.7711271E-01
   7165.00  4.7341855E-01
   7165.33  4.6972319E-01
   7165.67  4.6597809E-01
   7166.00  4.6215154E-01
   7166.33  4.5820732E-01
   7166.67  4.5415146E-01
   7167.00  4.4999401E-01
   7167.33  4.4575079E-01
   7167.67  4.4146311E-01
   7168.00  4.3716208E-01
   7168.33  4.3289031E-01
   7168.67  4.2868703E-01
   7169.00  4.2458961E-01
   7169.33  4.2065838E-01
   7169.67  4.1691393E-01
   7170.00  4.1338757E-01
   7170.33  4.1014419E-01
   7170.67  4.0718306E-01
   7171.00  4.0452943E-01
   7171.33  4.0225631E-01
   7171.67  4.0035865E-01
   7172.00  3.9887094E-01
