    FDMNES
    energy     <xanes>
   7097.00  5.2525605E-03
   7097.33  5.3831483E-03
   7097.67  5.5199175E-03
   7098.00  5.6632965E-03
   7098.33  5.8147327E-03
   7098.67  5.9739462E-03
   7099.00  6.1415216E-03
   7099.33  6.3193583E-03
   7099.67  6.5071695E-03
   7100.00  6.7057734E-03
   7100.33  6.9177247E-03
   7100.67  7.1427577E-03
   7101.00  7.3820509E-03
   7101.33  7.6391419E-03
   7101.67  7.9138467E-03
   7102.00  8.2079221E-03
   7102.33  8.5264391E-03
   7102.67  8.8694285E-03
   7103.00  9.2396189E-03
   7103.33  9.6445889E-03
   7103.67  1.0084882E-02
   7104.00  1.0564952E-02
   7104.33  1.1096725E-02
   7104.67  1.1681951E-02
   7105.00  1.2328372E-02
   7105.33  1.3056014E-02
   7105.67  1.3869577E-02
   7106.00  1.4783643E-02
   7106.33  1.5834848E-02
   7106.67  1.7035671E-02
   7107.00  1.8416727E-02
   7107.33  2.0053401E-02
   7107.67  2.1981520E-02
   7108.00  2.4276158E-02
   7108.33  2.7121801E-02
   7108.67  3.0640505E-02
   7109.00  3.5066744E-02
   7109.33  4.0998729E-02
   7109.67  4.9008427E-02
   7110.00  6.0195332E-02
   7110.33  7.7619877E-02
   7110.67  1.0476499E-01
   7111.00  1.4570074E-01
   7111.33  2.0593034E-01
   7111.67  2.8276695E-01
   7112.00  3.5560240E-01
   7112.33  3.9348845E-01
   7112.67  4.3690373E-01
   7113.00  5.1615567E-01
   7113.33  6.0362356E-01
   7113.67  6.3061404E-01
   7114.00  5.7244230E-01
   7114.33  4.6878454E-01
   7114.67  3.7615191E-01
   7115.00  3.0792061E-01
   7115.33  2.6405225E-01
   7115.67  2.3596605E-01
   7116.00  2.2007599E-01
   7116.33  2.1487218E-01
   7116.67  2.1570636E-01
   7117.00  2.1696820E-01
   7117.33  2.1088647E-01
   7117.67  1.9808908E-01
   7118.00  1.8265033E-01
   7118.33  1.6825500E-01
   7118.67  1.5608666E-01
   7119.00  1.4638048E-01
   7119.33  1.3926377E-01
   7119.67  1.3387614E-01
   7120.00  1.2954404E-01
   7120.33  1.2596219E-01
   7120.67  1.2355657E-01
   7121.00  1.2295988E-01
   7121.33  1.2418620E-01
   7121.67  1.2602182E-01
   7122.00  1.2775277E-01
   7122.33  1.2917216E-01
   7122.67  1.3062943E-01
   7123.00  1.3242344E-01
   7123.33  1.3477876E-01
   7123.67  1.3766983E-01
   7124.00  1.4113029E-01
   7124.33  1.4535639E-01
   7124.67  1.5048067E-01
   7125.00  1.5678303E-01
   7125.33  1.6487911E-01
   7125.67  1.7497363E-01
   7126.00  1.8720909E-01
   7126.33  2.0156717E-01
   7126.67  2.1763006E-01
   7127.00  2.3618829E-01
   7127.33  2.5993487E-01
   7127.67  2.9055938E-01
   7128.00  3.2941208E-01
   7128.33  3.7783010E-01
   7128.67  4.3251355E-01
   7129.00  4.8879384E-01
   7129.33  5.3925480E-01
   7129.67  5.8120134E-01
   7130.00  6.1639656E-01
   7130.33  6.4967925E-01
   7130.67  6.8552515E-01
   7131.00  7.2520207E-01
   7131.33  7.6810846E-01
   7131.67  8.1187518E-01
   7132.00  8.5517083E-01
   7132.33  8.9757566E-01
   7132.67  9.3989167E-01
   7133.00  9.8252518E-01
   7133.33  1.0235991E+00
   7133.67  1.0574094E+00
   7134.00  1.0759379E+00
   7134.33  1.0682151E+00
   7134.67  1.0363855E+00
   7135.00  9.8609043E-01
   7135.33  9.2532292E-01
   7135.67  8.6276163E-01
   7136.00  8.0241020E-01
   7136.33  7.4721448E-01
   7136.67  6.9744243E-01
   7137.00  6.5316230E-01
   7137.33  6.1476605E-01
   7137.67  5.8123137E-01
   7138.00  5.5227480E-01
   7138.33  5.2818896E-01
   7138.67  5.0825350E-01
   7139.00  4.9232889E-01
   7139.33  4.8068879E-01
   7139.67  4.7257947E-01
   7140.00  4.6769954E-01
   7140.33  4.6599774E-01
   7140.67  4.6670094E-01
   7141.00  4.6946959E-01
   7141.33  4.7417662E-01
   7141.67  4.8033762E-01
   7142.00  4.8778014E-01
   7142.33  4.9649508E-01
   7142.67  5.0621298E-01
   7143.00  5.1681354E-01
   7143.33  5.2820602E-01
   7143.67  5.4006962E-01
   7144.00  5.5216474E-01
   7144.33  5.6417585E-01
   7144.67  5.7580198E-01
   7145.00  5.8679107E-01
   7145.33  5.9676790E-01
   7145.67  6.0562102E-01
   7146.00  6.1319040E-01
   7146.33  6.1915162E-01
   7146.67  6.2358805E-01
   7147.00  6.2646518E-01
   7147.33  6.2760869E-01
   7147.67  6.2728862E-01
   7148.00  6.2561517E-01
   7148.33  6.2260788E-01
   7148.67  6.1861225E-01
   7149.00  6.1382067E-01
   7149.33  6.0840972E-01
   7149.67  6.0267208E-01
   7150.00  5.9677187E-01
   7150.33  5.9088118E-01
   7150.67  5.8515008E-01
   7151.00  5.7969280E-01
   7151.33  5.7467438E-01
   7151.67  5.7014570E-01
   7152.00  5.6617958E-01
   7152.33  5.6292378E-01
   7152.67  5.6034943E-01
   7153.00  5.5848273E-01
   7153.33  5.5742240E-01
   7153.67  5.5706423E-01
   7154.00  5.5737674E-01
   7154.33  5.5837978E-01
   7154.67  5.5992157E-01
   7155.00  5.6192552E-01
   7155.33  5.6433409E-01
   7155.67  5.6698908E-01
   7156.00  5.6978946E-01
   7156.33  5.7262025E-01
   7156.67  5.7536221E-01
   7157.00  5.7792047E-01
   7157.33  5.8015688E-01
   7157.67  5.8201631E-01
   7158.00  5.8343209E-01
   7158.33  5.8427917E-01
   7158.67  5.8457752E-01
   7159.00  5.8430455E-01
   7159.33  5.8337605E-01
   7159.67  5.8187001E-01
   7160.00  5.7980281E-01
   7160.33  5.7713767E-01
   7160.67  5.7397873E-01
   7161.00  5.7036145E-01
   7161.33  5.6627643E-01
   7161.67  5.6181888E-01
   7162.00  5.5702652E-01
   7162.33  5.5190760E-01
   7162.67  5.4654078E-01
   7163.00  5.4095929E-01
   7163.33  5.3517594E-01
   7163.67  5.2924559E-01
   7164.00  5.2319448E-01
   7164.33  5.1703902E-01
   7164.67  5.1081503E-01
   7165.00  5.0453952E-01
   7165.33  4.9822327E-01
   7165.67  4.9188284E-01
   7166.00  4.8552758E-01
   7166.33  4.7916797E-01
   7166.67  4.7281648E-01
   7167.00  4.6648540E-01
   7167.33  4.6019628E-01
   7167.67  4.5396383E-01
   7168.00  4.4780795E-01
   7168.33  4.4176997E-01
   7168.67  4.3586972E-01
   7169.00  4.3013751E-01
   7169.33  4.2463625E-01
   7169.67  4.1937925E-01
   7170.00  4.1440158E-01
   7170.33  4.0978434E-01
   7170.67  4.0552868E-01
   7171.00  4.0167210E-01
   7171.33  3.9832172E-01
   7171.67  3.9549009E-01
   7172.00  3.9325023E-01
