    FDMNES
    energy     <xanes>
   7097.00  5.3364701E-03
   7097.33  5.4702993E-03
   7097.67  5.6105254E-03
   7098.00  5.7575962E-03
   7098.33  5.9130165E-03
   7098.67  6.0765028E-03
   7099.00  6.2486676E-03
   7099.33  6.4314914E-03
   7099.67  6.6246860E-03
   7100.00  6.8291113E-03
   7100.33  7.0474397E-03
   7100.67  7.2794091E-03
   7101.00  7.5262628E-03
   7101.33  7.7917153E-03
   7101.67  8.0755978E-03
   7102.00  8.3797716E-03
   7102.33  8.7095853E-03
   7102.67  9.0651099E-03
   7103.00  9.4492517E-03
   7103.33  9.8700469E-03
   7103.67  1.0328136E-02
   7104.00  1.0828295E-02
   7104.33  1.1383250E-02
   7104.67  1.1994988E-02
   7105.00  1.2671868E-02
   7105.33  1.3435445E-02
   7105.67  1.4291000E-02
   7106.00  1.5254439E-02
   7106.33  1.6365603E-02
   7106.67  1.7638558E-02
   7107.00  1.9107123E-02
   7107.33  2.0854428E-02
   7107.67  2.2921233E-02
   7108.00  2.5391887E-02
   7108.33  2.8473739E-02
   7108.67  3.2307885E-02
   7109.00  3.7163854E-02
   7109.33  4.3731672E-02
   7109.67  5.2687420E-02
   7110.00  6.5332629E-02
   7110.33  8.5333901E-02
   7110.67  1.1715671E-01
   7111.00  1.6659528E-01
   7111.33  2.3783860E-01
   7111.67  3.1313609E-01
   7112.00  3.6980665E-01
   7112.33  4.2095588E-01
   7112.67  4.9456316E-01
   7113.00  5.7059915E-01
   7113.33  6.0510261E-01
   7113.67  5.8481818E-01
   7114.00  5.1709411E-01
   7114.33  4.3115747E-01
   7114.67  3.5633440E-01
   7115.00  3.0085911E-01
   7115.33  2.6543712E-01
   7115.67  2.4348244E-01
   7116.00  2.3166871E-01
   7116.33  2.2705786E-01
   7116.67  2.2397328E-01
   7117.00  2.1779993E-01
   7117.33  2.0540492E-01
   7117.67  1.8966673E-01
   7118.00  1.7372947E-01
   7118.33  1.6024040E-01
   7118.67  1.4971218E-01
   7119.00  1.4200813E-01
   7119.33  1.3668418E-01
   7119.67  1.3255694E-01
   7120.00  1.2916276E-01
   7120.33  1.2695322E-01
   7120.67  1.2636609E-01
   7121.00  1.2705288E-01
   7121.33  1.2783657E-01
   7121.67  1.2803321E-01
   7122.00  1.2782729E-01
   7122.33  1.2769061E-01
   7122.67  1.2791204E-01
   7123.00  1.2860290E-01
   7123.33  1.2988854E-01
   7123.67  1.3174683E-01
   7124.00  1.3422851E-01
   7124.33  1.3751613E-01
   7124.67  1.4166322E-01
   7125.00  1.4684212E-01
   7125.33  1.5349188E-01
   7125.67  1.6184357E-01
   7126.00  1.7239209E-01
   7126.33  1.8640569E-01
   7126.67  2.0485934E-01
   7127.00  2.2933258E-01
   7127.33  2.6304249E-01
   7127.67  3.0708317E-01
   7128.00  3.6237938E-01
   7128.33  4.2775192E-01
   7128.67  4.9316258E-01
   7129.00  5.4793696E-01
   7129.33  5.8593016E-01
   7129.67  6.1634117E-01
   7130.00  6.4643261E-01
   7130.33  6.8073097E-01
   7130.67  7.2022548E-01
   7131.00  7.6596050E-01
   7131.33  8.1970029E-01
   7131.67  8.7993338E-01
   7132.00  9.4440050E-01
   7132.33  1.0083234E+00
   7132.67  1.0649163E+00
   7133.00  1.1070510E+00
   7133.33  1.1242306E+00
   7133.67  1.1156519E+00
   7134.00  1.0832726E+00
   7134.33  1.0315927E+00
   7134.67  9.7062072E-01
   7135.00  9.0600812E-01
   7135.33  8.4236693E-01
   7135.67  7.8211175E-01
   7136.00  7.2630730E-01
   7136.33  6.7607728E-01
   7136.67  6.3090211E-01
   7137.00  5.9073109E-01
   7137.33  5.5607107E-01
   7137.67  5.2621293E-01
   7138.00  5.0109606E-01
   7138.33  4.8124216E-01
   7138.67  4.6597142E-01
   7139.00  4.5513529E-01
   7139.33  4.4895334E-01
   7139.67  4.4647134E-01
   7140.00  4.4723805E-01
   7140.33  4.5104207E-01
   7140.67  4.5704097E-01
   7141.00  4.6487543E-01
   7141.33  4.7441388E-01
   7141.67  4.8522939E-01
   7142.00  4.9715330E-01
   7142.33  5.1010394E-01
   7142.67  5.2373894E-01
   7143.00  5.3782290E-01
   7143.33  5.5205536E-01
   7143.67  5.6607431E-01
   7144.00  5.7958065E-01
   7144.33  5.9214496E-01
   7144.67  6.0359435E-01
   7145.00  6.1373910E-01
   7145.33  6.2223815E-01
   7145.67  6.2918274E-01
   7146.00  6.3454289E-01
   7146.33  6.3813199E-01
   7146.67  6.4018957E-01
   7147.00  6.4077301E-01
   7147.33  6.3979967E-01
   7147.67  6.3755656E-01
   7148.00  6.3415904E-01
   7148.33  6.2963513E-01
   7148.67  6.2428045E-01
   7149.00  6.1825409E-01
   7149.33  6.1170729E-01
   7149.67  6.0492069E-01
   7150.00  5.9806810E-01
   7150.33  5.9134762E-01
   7150.67  5.8490956E-01
   7151.00  5.7887643E-01
   7151.33  5.7342868E-01
   7151.67  5.6858518E-01
   7152.00  5.6439292E-01
   7152.33  5.6096446E-01
   7152.67  5.5821761E-01
   7153.00  5.5613887E-01
   7153.33  5.5477857E-01
   7153.67  5.5401679E-01
   7154.00  5.5381338E-01
   7154.33  5.5417945E-01
   7154.67  5.5499397E-01
   7155.00  5.5620362E-01
   7155.33  5.5778427E-01
   7155.67  5.5962664E-01
   7156.00  5.6167054E-01
   7156.33  5.6386127E-01
   7156.67  5.6611189E-01
   7157.00  5.6836294E-01
   7157.33  5.7053824E-01
   7157.67  5.7257961E-01
   7158.00  5.7443319E-01
   7158.33  5.7601156E-01
   7158.67  5.7729376E-01
   7159.00  5.7823952E-01
   7159.33  5.7876017E-01
   7159.67  5.7886809E-01
   7160.00  5.7853884E-01
   7160.33  5.7769278E-01
   7160.67  5.7637066E-01
   7161.00  5.7456187E-01
   7161.33  5.7219759E-01
   7161.67  5.6933860E-01
   7162.00  5.6598929E-01
   7162.33  5.6210042E-01
   7162.67  5.5774679E-01
   7163.00  5.5294488E-01
   7163.33  5.4766626E-01
   7163.67  5.4199470E-01
   7164.00  5.3596170E-01
   7164.33  5.2956866E-01
   7164.67  5.2290076E-01
   7165.00  5.1599928E-01
   7165.33  5.0889104E-01
   7165.67  5.0165118E-01
   7166.00  4.9432633E-01
   7166.33  4.8696600E-01
   7166.67  4.7962631E-01
   7167.00  4.7235086E-01
   7167.33  4.6520060E-01
   7167.67  4.5820579E-01
   7168.00  4.5140350E-01
   7168.33  4.4486378E-01
   7168.67  4.3859306E-01
   7169.00  4.3261824E-01
   7169.33  4.2701096E-01
   7169.67  4.2175698E-01
   7170.00  4.1687464E-01
   7170.33  4.1243136E-01
   7170.67  4.0839649E-01
   7171.00  4.0478719E-01
   7171.33  4.0168597E-01
   7171.67  3.9907944E-01
   7172.00  3.9701910E-01
