    FDMNES
    energy     <xanes>
   7097.00  4.4378370E-03
   7097.33  4.5255054E-03
   7097.67  4.6165093E-03
   7098.00  4.7110479E-03
   7098.33  4.8098500E-03
   7098.67  4.9127243E-03
   7099.00  5.0199381E-03
   7099.33  5.1324216E-03
   7099.67  5.2499754E-03
   7100.00  5.3729682E-03
   7100.33  5.5026210E-03
   7100.67  5.6387392E-03
   7101.00  5.7818494E-03
   7101.33  5.9336098E-03
   7101.67  6.0938604E-03
   7102.00  6.2633867E-03
   7102.33  6.4445358E-03
   7102.67  6.6372519E-03
   7103.00  6.8427684E-03
   7103.33  7.0645868E-03
   7103.67  7.3029184E-03
   7104.00  7.5598281E-03
   7104.33  7.8408994E-03
   7104.67  8.1470172E-03
   7105.00  8.4819300E-03
   7105.33  8.8553479E-03
   7105.67  9.2699326E-03
   7106.00  9.7332488E-03
   7106.33  1.0264255E-02
   7106.67  1.0870794E-02
   7107.00  1.1570496E-02
   7107.33  1.2406842E-02
   7107.67  1.3405505E-02
   7108.00  1.4617025E-02
   7108.33  1.6167888E-02
   7108.67  1.8163650E-02
   7109.00  2.0803706E-02
   7109.33  2.4624159E-02
   7109.67  3.0273148E-02
   7110.00  3.9034787E-02
   7110.33  5.4618769E-02
   7110.67  8.0437332E-02
   7111.00  1.1394259E-01
   7111.33  1.3503278E-01
   7111.67  1.3911253E-01
   7112.00  1.3473987E-01
   7112.33  1.2375734E-01
   7112.67  1.1484046E-01
   7113.00  1.1483313E-01
   7113.33  1.2278437E-01
   7113.67  1.3220497E-01
   7114.00  1.3680475E-01
   7114.33  1.2614788E-01
   7114.67  1.0327370E-01
   7115.00  7.9887357E-02
   7115.33  6.4543387E-02
   7115.67  5.5447366E-02
   7116.00  5.0631522E-02
   7116.33  4.8844596E-02
   7116.67  4.8618398E-02
   7117.00  4.9105130E-02
   7117.33  5.0026145E-02
   7117.67  5.1714951E-02
   7118.00  5.4368158E-02
   7118.33  5.8050208E-02
   7118.67  6.2687854E-02
   7119.00  6.8567926E-02
   7119.33  7.6376924E-02
   7119.67  8.6105036E-02
   7120.00  9.7439730E-02
   7120.33  1.0971342E-01
   7120.67  1.2251762E-01
   7121.00  1.3654006E-01
   7121.33  1.5344803E-01
   7121.67  1.7381474E-01
   7122.00  1.9785703E-01
   7122.33  2.2640029E-01
   7122.67  2.6038017E-01
   7123.00  3.0218687E-01
   7123.33  3.5601253E-01
   7123.67  4.2017643E-01
   7124.00  4.8904379E-01
   7124.33  5.5011633E-01
   7124.67  5.9512487E-01
   7125.00  6.2267244E-01
   7125.33  6.3541369E-01
   7125.67  6.4214338E-01
   7126.00  6.4803968E-01
   7126.33  6.5621438E-01
   7126.67  6.6665250E-01
   7127.00  6.7930821E-01
   7127.33  6.9494049E-01
   7127.67  7.1211514E-01
   7128.00  7.2818402E-01
   7128.33  7.4019789E-01
   7128.67  7.4888086E-01
   7129.00  7.5631548E-01
   7129.33  7.6469060E-01
   7129.67  7.7324922E-01
   7130.00  7.7921988E-01
   7130.33  7.7840726E-01
   7130.67  7.7039042E-01
   7131.00  7.5651187E-01
   7131.33  7.3979618E-01
   7131.67  7.2426567E-01
   7132.00  7.1232859E-01
   7132.33  7.0599135E-01
   7132.67  7.0480657E-01
   7133.00  7.0839694E-01
   7133.33  7.1632760E-01
   7133.67  7.2651155E-01
   7134.00  7.3702757E-01
   7134.33  7.4486108E-01
   7134.67  7.4720351E-01
   7135.00  7.4183926E-01
   7135.33  7.2769237E-01
   7135.67  7.0873421E-01
   7136.00  6.8835407E-01
   7136.33  6.6947213E-01
   7136.67  6.5295226E-01
   7137.00  6.3879028E-01
   7137.33  6.2683276E-01
   7137.67  6.1637094E-01
   7138.00  6.0707578E-01
   7138.33  5.9880537E-01
   7138.67  5.9134911E-01
   7139.00  5.8474131E-01
   7139.33  5.7921126E-01
   7139.67  5.7477821E-01
   7140.00  5.7154747E-01
   7140.33  5.6972341E-01
   7140.67  5.6908246E-01
   7141.00  5.6947855E-01
   7141.33  5.7075106E-01
   7141.67  5.7247834E-01
   7142.00  5.7436946E-01
   7142.33  5.7610993E-01
   7142.67  5.7750631E-01
   7143.00  5.7845685E-01
   7143.33  5.7884423E-01
   7143.67  5.7869342E-01
   7144.00  5.7794959E-01
   7144.33  5.7642129E-01
   7144.67  5.7406907E-01
   7145.00  5.7079836E-01
   7145.33  5.6642891E-01
   7145.67  5.6110056E-01
   7146.00  5.5488833E-01
   7146.33  5.4783194E-01
   7146.67  5.4017020E-01
   7147.00  5.3200584E-01
   7147.33  5.2335350E-01
   7147.67  5.1427799E-01
   7148.00  5.0475247E-01
   7148.33  4.9466021E-01
   7148.67  4.8402050E-01
   7149.00  4.7283193E-01
   7149.33  4.6108514E-01
   7149.67  4.4894370E-01
   7150.00  4.3651441E-01
   7150.33  4.2390804E-01
   7150.67  4.1127733E-01
   7151.00  3.9873450E-01
   7151.33  3.8642786E-01
   7151.67  3.7443970E-01
   7152.00  3.6285140E-01
   7152.33  3.5180299E-01
   7152.67  3.4129667E-01
   7153.00  3.3136973E-01
   7153.33  3.2212860E-01
   7153.67  3.1352490E-01
   7154.00  3.0558092E-01
   7154.33  2.9840058E-01
   7154.67  2.9191351E-01
   7155.00  2.8612871E-01
   7155.33  2.8113796E-01
   7155.67  2.7684814E-01
   7156.00  2.7324874E-01
   7156.33  2.7040487E-01
   7156.67  2.6820977E-01
   7157.00  2.6664329E-01
   7157.33  2.6575980E-01
   7157.67  2.6546862E-01
   7158.00  2.6576503E-01
   7158.33  2.6672813E-01
   7158.67  2.6830138E-01
   7159.00  2.7050997E-01
   7159.33  2.7347772E-01
   7159.67  2.7716621E-01
   7160.00  2.8161439E-01
   7160.33  2.8696030E-01
   7160.67  2.9312896E-01
   7161.00  3.0012606E-01
   7161.33  3.0803748E-01
   7161.67  3.1671747E-01
   7162.00  3.2610532E-01
   7162.33  3.3618242E-01
   7162.67  3.4675174E-01
   7163.00  3.5769323E-01
   7163.33  3.6888133E-01
   7163.67  3.8012880E-01
   7164.00  3.9129956E-01
   7164.33  4.0221768E-01
   7164.67  4.1278266E-01
   7165.00  4.2290328E-01
   7165.33  4.3243066E-01
   7165.67  4.4137568E-01
   7166.00  4.4971572E-01
   7166.33  4.5737601E-01
   7166.67  4.6445671E-01
   7167.00  4.7099304E-01
   7167.33  4.7697558E-01
   7167.67  4.8252307E-01
   7168.00  4.8768412E-01
   7168.33  4.9246880E-01
   7168.67  4.9696091E-01
   7169.00  5.0118634E-01
   7169.33  5.0513235E-01
   7169.67  5.0883598E-01
   7170.00  5.1229362E-01
   7170.33  5.1546109E-01
   7170.67  5.1835272E-01
   7171.00  5.2094969E-01
   7171.33  5.2318584E-01
   7171.67  5.2506748E-01
   7172.00  5.2656173E-01
