    FDMNES
    energy     <xanes>
   7097.00  4.8541718E-03
   7097.33  4.9631083E-03
   7097.67  5.0767610E-03
   7098.00  5.1954361E-03
   7098.33  5.3202031E-03
   7098.67  5.4508210E-03
   7099.00  5.5877025E-03
   7099.33  5.7322308E-03
   7099.67  5.8841536E-03
   7100.00  6.0440416E-03
   7100.33  6.2137281E-03
   7100.67  6.3929669E-03
   7101.00  6.5825714E-03
   7101.33  6.7850442E-03
   7101.67  7.0001855E-03
   7102.00  7.2291966E-03
   7102.33  7.4756196E-03
   7102.67  7.7393904E-03
   7103.00  8.0223651E-03
   7103.33  8.3297848E-03
   7103.67  8.6619298E-03
   7104.00  9.0218315E-03
   7104.33  9.4176998E-03
   7104.67  9.8506658E-03
   7105.00  1.0326050E-02
   7105.33  1.0857717E-02
   7105.67  1.1448989E-02
   7106.00  1.2110156E-02
   7106.33  1.2867175E-02
   7106.67  1.3729599E-02
   7107.00  1.4720224E-02
   7107.33  1.5895514E-02
   7107.67  1.7285869E-02
   7108.00  1.8953205E-02
   7108.33  2.1052384E-02
   7108.67  2.3704906E-02
   7109.00  2.7143233E-02
   7109.33  3.1989544E-02
   7109.67  3.8973020E-02
   7110.00  4.9540781E-02
   7110.33  6.7860764E-02
   7110.67  9.7770834E-02
   7111.00  1.3703911E-01
   7111.33  1.6458987E-01
   7111.67  1.6492500E-01
   7112.00  1.5170095E-01
   7112.33  1.5134466E-01
   7112.67  1.5944864E-01
   7113.00  1.7299876E-01
   7113.33  2.1452867E-01
   7113.67  2.8370326E-01
   7114.00  3.4249392E-01
   7114.33  3.5360593E-01
   7114.67  3.5471710E-01
   7115.00  3.7992358E-01
   7115.33  4.2091596E-01
   7115.67  4.0476560E-01
   7116.00  3.2276096E-01
   7116.33  2.4570178E-01
   7116.67  2.0415628E-01
   7117.00  1.9573472E-01
   7117.33  2.2125323E-01
   7117.67  2.7418744E-01
   7118.00  3.3485585E-01
   7118.33  3.4828281E-01
   7118.67  3.0932433E-01
   7119.00  2.5433468E-01
   7119.33  2.1361114E-01
   7119.67  1.8919432E-01
   7120.00  1.7739540E-01
   7120.33  1.7276070E-01
   7120.67  1.6947645E-01
   7121.00  1.6630895E-01
   7121.33  1.6230027E-01
   7121.67  1.5674711E-01
   7122.00  1.5020404E-01
   7122.33  1.4432062E-01
   7122.67  1.4017173E-01
   7123.00  1.3818574E-01
   7123.33  1.3889308E-01
   7123.67  1.4209401E-01
   7124.00  1.4772452E-01
   7124.33  1.5576739E-01
   7124.67  1.6574669E-01
   7125.00  1.7771454E-01
   7125.33  1.9165585E-01
   7125.67  2.0660675E-01
   7126.00  2.2205724E-01
   7126.33  2.3784833E-01
   7126.67  2.5384723E-01
   7127.00  2.7004643E-01
   7127.33  2.8687054E-01
   7127.67  3.0486252E-01
   7128.00  3.2431999E-01
   7128.33  3.4513789E-01
   7128.67  3.6650949E-01
   7129.00  3.8808803E-01
   7129.33  4.1022213E-01
   7129.67  4.3364794E-01
   7130.00  4.5903603E-01
   7130.33  4.8721232E-01
   7130.67  5.1808672E-01
   7131.00  5.5147774E-01
   7131.33  5.8661282E-01
   7131.67  6.2154206E-01
   7132.00  6.5472087E-01
   7132.33  6.8504986E-01
   7132.67  7.1343918E-01
   7133.00  7.4112431E-01
   7133.33  7.6942263E-01
   7133.67  7.9829770E-01
   7134.00  8.2653296E-01
   7134.33  8.5135569E-01
   7134.67  8.7077582E-01
   7135.00  8.8346925E-01
   7135.33  8.8792454E-01
   7135.67  8.8523878E-01
   7136.00  8.7606286E-01
   7136.33  8.6099813E-01
   7136.67  8.4229242E-01
   7137.00  8.2132733E-01
   7137.33  7.9929090E-01
   7137.67  7.7712112E-01
   7138.00  7.5512658E-01
   7138.33  7.3331498E-01
   7138.67  7.1146370E-01
   7139.00  6.8947449E-01
   7139.33  6.6755243E-01
   7139.67  6.4626825E-01
   7140.00  6.2629229E-01
   7140.33  6.0859595E-01
   7140.67  5.9336889E-01
   7141.00  5.8072545E-01
   7141.33  5.7087250E-01
   7141.67  5.6326746E-01
   7142.00  5.5769315E-01
   7142.33  5.5416148E-01
   7142.67  5.5227439E-01
   7143.00  5.5187796E-01
   7143.33  5.5291398E-01
   7143.67  5.5497226E-01
   7144.00  5.5780050E-01
   7144.33  5.6110481E-01
   7144.67  5.6444318E-01
   7145.00  5.6747257E-01
   7145.33  5.6972891E-01
   7145.67  5.7096659E-01
   7146.00  5.7094699E-01
   7146.33  5.6926795E-01
   7146.67  5.6598083E-01
   7147.00  5.6106771E-01
   7147.33  5.5447370E-01
   7147.67  5.4670684E-01
   7148.00  5.3818448E-01
   7148.33  5.2947995E-01
   7148.67  5.2122841E-01
   7149.00  5.1389725E-01
   7149.33  5.0805834E-01
   7149.67  5.0376857E-01
   7150.00  5.0107561E-01
   7150.33  5.0009731E-01
   7150.67  5.0048373E-01
   7151.00  5.0205452E-01
   7151.33  5.0469044E-01
   7151.67  5.0804182E-01
   7152.00  5.1193358E-01
   7152.33  5.1624433E-01
   7152.67  5.2080357E-01
   7153.00  5.2554233E-01
   7153.33  5.3044092E-01
   7153.67  5.3548165E-01
   7154.00  5.4068104E-01
   7154.33  5.4608857E-01
   7154.67  5.5170120E-01
   7155.00  5.5751369E-01
   7155.33  5.6350020E-01
   7155.67  5.6954967E-01
   7156.00  5.7554757E-01
   7156.33  5.8130233E-01
   7156.67  5.8666570E-01
   7157.00  5.9149801E-01
   7157.33  5.9558482E-01
   7157.67  5.9892259E-01
   7158.00  6.0147666E-01
   7158.33  6.0315309E-01
   7158.67  6.0409188E-01
   7159.00  6.0435126E-01
   7159.33  6.0393863E-01
   7159.67  6.0301534E-01
   7160.00  6.0165207E-01
   7160.33  5.9987462E-01
   7160.67  5.9778591E-01
   7161.00  5.9542180E-01
   7161.33  5.9277780E-01
   7161.67  5.8989629E-01
   7162.00  5.8677596E-01
   7162.33  5.8337433E-01
   7162.67  5.7970889E-01
   7163.00  5.7577151E-01
   7163.33  5.7151677E-01
   7163.67  5.6697214E-01
   7164.00  5.6213971E-01
   7164.33  5.5699860E-01
   7164.67  5.5160855E-01
   7165.00  5.4600331E-01
   7165.33  5.4021314E-01
   7165.67  5.3431761E-01
   7166.00  5.2837129E-01
   7166.33  5.2244165E-01
   7166.67  5.1659163E-01
   7167.00  5.1087441E-01
   7167.33  5.0537106E-01
   7167.67  5.0010764E-01
   7168.00  4.9511878E-01
   7168.33  4.9047173E-01
   7168.67  4.8614451E-01
   7169.00  4.8213889E-01
   7169.33  4.7848147E-01
   7169.67  4.7510898E-01
   7170.00  4.7199319E-01
   7170.33  4.6912439E-01
   7170.67  4.6644022E-01
   7171.00  4.6392159E-01
   7171.33  4.6159829E-01
   7171.67  4.5951620E-01
   7172.00  4.5778977E-01
