    FDMNES
    energy     <xanes>
   7097.00  4.2108666E-03
   7097.33  4.2960586E-03
   7097.67  4.3845782E-03
   7098.00  4.4766304E-03
   7098.33  4.5729529E-03
   7098.67  4.6733636E-03
   7099.00  4.7781396E-03
   7099.33  4.8882301E-03
   7099.67  5.0034473E-03
   7100.00  5.1241768E-03
   7100.33  5.2516753E-03
   7100.67  5.3857642E-03
   7101.00  5.5269990E-03
   7101.33  5.6771020E-03
   7101.67  5.8359375E-03
   7102.00  6.0043408E-03
   7102.33  6.1847735E-03
   7102.67  6.3772199E-03
   7103.00  6.5830011E-03
   7103.33  6.8058256E-03
   7103.67  7.0459764E-03
   7104.00  7.3056798E-03
   7104.33  7.5909022E-03
   7104.67  7.9026697E-03
   7105.00  8.2450416E-03
   7105.33  8.6284674E-03
   7105.67  9.0559112E-03
   7106.00  9.5355756E-03
   7106.33  1.0087932E-02
   7106.67  1.0721528E-02
   7107.00  1.1455404E-02
   7107.33  1.2336365E-02
   7107.67  1.3391845E-02
   7108.00  1.4675696E-02
   7108.33  1.6322073E-02
   7108.67  1.8440596E-02
   7109.00  2.1237427E-02
   7109.33  2.5261146E-02
   7109.67  3.1154336E-02
   7110.00  4.0182400E-02
   7110.33  5.6046996E-02
   7110.67  8.2997308E-02
   7111.00  1.2219512E-01
   7111.33  1.5527460E-01
   7111.67  1.6835876E-01
   7112.00  1.6409817E-01
   7112.33  1.4807747E-01
   7112.67  1.3012271E-01
   7113.00  1.1681877E-01
   7113.33  1.1554080E-01
   7113.67  1.2453526E-01
   7114.00  1.3473022E-01
   7114.33  1.2507364E-01
   7114.67  9.9725575E-02
   7115.00  7.4912899E-02
   7115.33  5.9814573E-02
   7115.67  5.1316679E-02
   7116.00  4.6926108E-02
   7116.33  4.5199806E-02
   7116.67  4.4941707E-02
   7117.00  4.5680391E-02
   7117.33  4.7106418E-02
   7117.67  4.8990935E-02
   7118.00  5.1415474E-02
   7118.33  5.4649060E-02
   7118.67  5.8734934E-02
   7119.00  6.3741650E-02
   7119.33  6.9911246E-02
   7119.67  7.7374760E-02
   7120.00  8.6493516E-02
   7120.33  9.8083501E-02
   7120.67  1.1251228E-01
   7121.00  1.3038751E-01
   7121.33  1.5290267E-01
   7121.67  1.7995276E-01
   7122.00  2.1139157E-01
   7122.33  2.4646245E-01
   7122.67  2.8233561E-01
   7123.00  3.1645849E-01
   7123.33  3.4644084E-01
   7123.67  3.7258318E-01
   7124.00  3.9544857E-01
   7124.33  4.1563907E-01
   7124.67  4.3463947E-01
   7125.00  4.5316131E-01
   7125.33  4.7050806E-01
   7125.67  4.8485833E-01
   7126.00  4.9446580E-01
   7126.33  4.9805302E-01
   7126.67  4.9806984E-01
   7127.00  4.9756427E-01
   7127.33  5.0048008E-01
   7127.67  5.0816642E-01
   7128.00  5.2011003E-01
   7128.33  5.3462686E-01
   7128.67  5.4966256E-01
   7129.00  5.6478504E-01
   7129.33  5.8092758E-01
   7129.67  5.9942587E-01
   7130.00  6.2133903E-01
   7130.33  6.4776965E-01
   7130.67  6.7798932E-01
   7131.00  7.1106731E-01
   7131.33  7.4510555E-01
   7131.67  7.7710746E-01
   7132.00  8.0422571E-01
   7132.33  8.2256526E-01
   7132.67  8.3161712E-01
   7133.00  8.3170090E-01
   7133.33  8.2388336E-01
   7133.67  8.1170626E-01
   7134.00  7.9707691E-01
   7134.33  7.8096932E-01
   7134.67  7.6395199E-01
   7135.00  7.4634029E-01
   7135.33  7.2861473E-01
   7135.67  7.1133132E-01
   7136.00  6.9494043E-01
   7136.33  6.8004663E-01
   7136.67  6.6675921E-01
   7137.00  6.5516474E-01
   7137.33  6.4545657E-01
   7137.67  6.3736087E-01
   7138.00  6.3082441E-01
   7138.33  6.2600318E-01
   7138.67  6.2271368E-01
   7139.00  6.2099482E-01
   7139.33  6.2111232E-01
   7139.67  6.2288475E-01
   7140.00  6.2623236E-01
   7140.33  6.3103422E-01
   7140.67  6.3664233E-01
   7141.00  6.4255762E-01
   7141.33  6.4823213E-01
   7141.67  6.5335129E-01
   7142.00  6.5778136E-01
   7142.33  6.6140881E-01
   7142.67  6.6437026E-01
   7143.00  6.6673332E-01
   7143.33  6.6852699E-01
   7143.67  6.6989482E-01
   7144.00  6.7088522E-01
   7144.33  6.7148334E-01
   7144.67  6.7173247E-01
   7145.00  6.7161095E-01
   7145.33  6.7101540E-01
   7145.67  6.6993256E-01
   7146.00  6.6830533E-01
   7146.33  6.6599968E-01
   7146.67  6.6304550E-01
   7147.00  6.5941503E-01
   7147.33  6.5500073E-01
   7147.67  6.4988061E-01
   7148.00  6.4405426E-01
   7148.33  6.3743866E-01
   7148.67  6.3013072E-01
   7149.00  6.2214344E-01
   7149.33  6.1341557E-01
   7149.67  6.0405689E-01
   7150.00  5.9409625E-01
   7150.33  5.8350097E-01
   7150.67  5.7238329E-01
   7151.00  5.6078212E-01
   7151.33  5.4869147E-01
   7151.67  5.3622031E-01
   7152.00  5.2342456E-01
   7152.33  5.1034835E-01
   7152.67  4.9710692E-01
   7153.00  4.8377814E-01
   7153.33  4.7044667E-01
   7153.67  4.5719266E-01
   7154.00  4.4408688E-01
   7154.33  4.3124219E-01
   7154.67  4.1870625E-01
   7155.00  4.0652178E-01
   7155.33  3.9475965E-01
   7155.67  3.8338729E-01
   7156.00  3.7241543E-01
   7156.33  3.6191082E-01
   7156.67  3.5184630E-01
   7157.00  3.4225722E-01
   7157.33  3.3327139E-01
   7157.67  3.2490134E-01
   7158.00  3.1722594E-01
   7158.33  3.1043781E-01
   7158.67  3.0452075E-01
   7159.00  2.9952405E-01
   7159.33  2.9558453E-01
   7159.67  2.9255720E-01
   7160.00  2.9038297E-01
   7160.33  2.8905572E-01
   7160.67  2.8836530E-01
   7161.00  2.8821566E-01
   7161.33  2.8857070E-01
   7161.67  2.8931464E-01
   7162.00  2.9042528E-01
   7162.33  2.9195179E-01
   7162.67  2.9387807E-01
   7163.00  2.9624348E-01
   7163.33  2.9915131E-01
   7163.67  3.0255828E-01
   7164.00  3.0646128E-01
   7164.33  3.1089999E-01
   7164.67  3.1576906E-01
   7165.00  3.2101229E-01
   7165.33  3.2657904E-01
   7165.67  3.3232838E-01
   7166.00  3.3816301E-01
   7166.33  3.4396821E-01
   7166.67  3.4964765E-01
   7167.00  3.5513151E-01
   7167.33  3.6032973E-01
   7167.67  3.6524140E-01
   7168.00  3.6985734E-01
   7168.33  3.7414948E-01
   7168.67  3.7817624E-01
   7169.00  3.8196395E-01
   7169.33  3.8552164E-01
   7169.67  3.8890916E-01
   7170.00  3.9215266E-01
   7170.33  3.9526057E-01
   7170.67  3.9825904E-01
   7171.00  4.0114122E-01
   7171.33  4.0384502E-01
   7171.67  4.0628225E-01
   7172.00  4.0829454E-01
