    FDMNES
    energy     <xanes>
   7097.00  5.0653096E-03
   7097.33  5.1804200E-03
   7097.67  5.3005694E-03
   7098.00  5.4260873E-03
   7098.33  5.5581203E-03
   7098.67  5.6964139E-03
   7099.00  5.8414126E-03
   7099.33  5.9946015E-03
   7099.67  6.1557142E-03
   7100.00  6.3253660E-03
   7100.33  6.5055272E-03
   7100.67  6.6959385E-03
   7101.00  6.8974764E-03
   7101.33  7.1128329E-03
   7101.67  7.3417972E-03
   7102.00  7.5856634E-03
   7102.33  7.8482397E-03
   7102.67  8.1294582E-03
   7103.00  8.4313119E-03
   7103.33  8.7594253E-03
   7103.67  9.1140865E-03
   7104.00  9.4985308E-03
   7104.33  9.9215252E-03
   7104.67  1.0384221E-02
   7105.00  1.0892234E-02
   7105.33  1.1460212E-02
   7105.67  1.2091474E-02
   7106.00  1.2796654E-02
   7106.33  1.3602623E-02
   7106.67  1.4518599E-02
   7107.00  1.5567303E-02
   7107.33  1.6804921E-02
   7107.67  1.8259211E-02
   7108.00  1.9987998E-02
   7108.33  2.2134461E-02
   7108.67  2.4799719E-02
   7109.00  2.8177779E-02
   7109.33  3.2773046E-02
   7109.67  3.9111379E-02
   7110.00  4.8218536E-02
   7110.33  6.3031176E-02
   7110.67  8.6990874E-02
   7111.00  1.2289939E-01
   7111.33  1.6460156E-01
   7111.67  1.9935833E-01
   7112.00  2.2975020E-01
   7112.33  2.5770385E-01
   7112.67  2.7412986E-01
   7113.00  2.7832845E-01
   7113.33  2.8482372E-01
   7113.67  3.0253286E-01
   7114.00  3.2318661E-01
   7114.33  3.3167009E-01
   7114.67  3.2951345E-01
   7115.00  3.2115878E-01
   7115.33  3.0764007E-01
   7115.67  2.9338566E-01
   7116.00  2.8309103E-01
   7116.33  2.7865905E-01
   7116.67  2.7757723E-01
   7117.00  2.7999360E-01
   7117.33  2.8521306E-01
   7117.67  2.8425151E-01
   7118.00  2.6942433E-01
   7118.33  2.4229075E-01
   7118.67  2.1398586E-01
   7119.00  1.8974939E-01
   7119.33  1.7185760E-01
   7119.67  1.5903450E-01
   7120.00  1.5041193E-01
   7120.33  1.4550402E-01
   7120.67  1.4318512E-01
   7121.00  1.4295519E-01
   7121.33  1.4469585E-01
   7121.67  1.4826795E-01
   7122.00  1.5398992E-01
   7122.33  1.6262006E-01
   7122.67  1.7415121E-01
   7123.00  1.8863221E-01
   7123.33  2.0619855E-01
   7123.67  2.2602698E-01
   7124.00  2.4747975E-01
   7124.33  2.6980989E-01
   7124.67  2.9213766E-01
   7125.00  3.1389123E-01
   7125.33  3.3454200E-01
   7125.67  3.5418328E-01
   7126.00  3.7297234E-01
   7126.33  3.9113107E-01
   7126.67  4.0914945E-01
   7127.00  4.2725678E-01
   7127.33  4.4498406E-01
   7127.67  4.6144988E-01
   7128.00  4.7644806E-01
   7128.33  4.9107743E-01
   7128.67  5.0668731E-01
   7129.00  5.2293825E-01
   7129.33  5.3696910E-01
   7129.67  5.4635215E-01
   7130.00  5.5102016E-01
   7130.33  5.5257512E-01
   7130.67  5.5350914E-01
   7131.00  5.5542959E-01
   7131.33  5.6038109E-01
   7131.67  5.6901623E-01
   7132.00  5.8111234E-01
   7132.33  5.9567055E-01
   7132.67  6.1101986E-01
   7133.00  6.2646691E-01
   7133.33  6.4185933E-01
   7133.67  6.5743253E-01
   7134.00  6.7339226E-01
   7134.33  6.8978807E-01
   7134.67  7.0615027E-01
   7135.00  7.2172209E-01
   7135.33  7.3500817E-01
   7135.67  7.4496595E-01
   7136.00  7.5079368E-01
   7136.33  7.5171461E-01
   7136.67  7.4888923E-01
   7137.00  7.4338417E-01
   7137.33  7.3659099E-01
   7137.67  7.3014590E-01
   7138.00  7.2509859E-01
   7138.33  7.2257652E-01
   7138.67  7.2270844E-01
   7139.00  7.2547898E-01
   7139.33  7.3068166E-01
   7139.67  7.3705509E-01
   7140.00  7.4335997E-01
   7140.33  7.4763987E-01
   7140.67  7.4845622E-01
   7141.00  7.4481281E-01
   7141.33  7.3578046E-01
   7141.67  7.2252413E-01
   7142.00  7.0600888E-01
   7142.33  6.8726747E-01
   7142.67  6.6767510E-01
   7143.00  6.4795870E-01
   7143.33  6.2874115E-01
   7143.67  6.1030812E-01
   7144.00  5.9284034E-01
   7144.33  5.7661989E-01
   7144.67  5.6161875E-01
   7145.00  5.4791883E-01
   7145.33  5.3577159E-01
   7145.67  5.2504693E-01
   7146.00  5.1572856E-01
   7146.33  5.0791853E-01
   7146.67  5.0137224E-01
   7147.00  4.9602322E-01
   7147.33  4.9193138E-01
   7147.67  4.8887446E-01
   7148.00  4.8677885E-01
   7148.33  4.8566106E-01
   7148.67  4.8530953E-01
   7149.00  4.8562435E-01
   7149.33  4.8654028E-01
   7149.67  4.8784272E-01
   7150.00  4.8939572E-01
   7150.33  4.9104718E-01
   7150.67  4.9263717E-01
   7151.00  4.9406463E-01
   7151.33  4.9522087E-01
   7151.67  4.9609981E-01
   7152.00  4.9670130E-01
   7152.33  4.9702207E-01
   7152.67  4.9714205E-01
   7153.00  4.9711256E-01
   7153.33  4.9698546E-01
   7153.67  4.9683170E-01
   7154.00  4.9669849E-01
   7154.33  4.9664374E-01
   7154.67  4.9670101E-01
   7155.00  4.9690060E-01
   7155.33  4.9729203E-01
   7155.67  4.9787457E-01
   7156.00  4.9865971E-01
   7156.33  4.9968017E-01
   7156.67  5.0090860E-01
   7157.00  5.0233821E-01
   7157.33  5.0397922E-01
   7157.67  5.0578979E-01
   7158.00  5.0775058E-01
   7158.33  5.0985162E-01
   7158.67  5.1204938E-01
   7159.00  5.1431887E-01
   7159.33  5.1663605E-01
   7159.67  5.1896647E-01
   7160.00  5.2128547E-01
   7160.33  5.2356089E-01
   7160.67  5.2577260E-01
   7161.00  5.2789874E-01
   7161.33  5.2989881E-01
   7161.67  5.3176161E-01
   7162.00  5.3346426E-01
   7162.33  5.3495475E-01
   7162.67  5.3622869E-01
   7163.00  5.3727126E-01
   7163.33  5.3805168E-01
   7163.67  5.3859746E-01
   7164.00  5.3890369E-01
   7164.33  5.3893861E-01
   7164.67  5.3873690E-01
   7165.00  5.3830575E-01
   7165.33  5.3762818E-01
   7165.67  5.3674370E-01
   7166.00  5.3566266E-01
   7166.33  5.3437099E-01
   7166.67  5.3289735E-01
   7167.00  5.3124425E-01
   7167.33  5.2939677E-01
   7167.67  5.2738421E-01
   7168.00  5.2520574E-01
   7168.33  5.2284045E-01
   7168.67  5.2031617E-01
   7169.00  5.1764510E-01
   7169.33  5.1483172E-01
   7169.67  5.1191884E-01
   7170.00  5.0893586E-01
   7170.33  5.0592093E-01
   7170.67  5.0292862E-01
   7171.00  5.0001324E-01
   7171.33  4.9728085E-01
   7171.67  4.9484398E-01
   7172.00  4.9286280E-01
