    FDMNES
    energy     <xanes>
   7097.00  4.2811925E-03
   7097.33  4.3639077E-03
   7097.67  4.4495554E-03
   7098.00  4.5382925E-03
   7098.33  4.6307285E-03
   7098.67  4.7266699E-03
   7099.00  4.8263197E-03
   7099.33  4.9304332E-03
   7099.67  5.0388004E-03
   7100.00  5.1516911E-03
   7100.33  5.2700612E-03
   7100.67  5.3936892E-03
   7101.00  5.5229438E-03
   7101.33  5.6590687E-03
   7101.67  5.8018431E-03
   7102.00  5.9517904E-03
   7102.33  6.1105851E-03
   7102.67  6.2780381E-03
   7103.00  6.4549282E-03
   7103.33  6.6436131E-03
   7103.67  6.8440105E-03
   7104.00  7.0573507E-03
   7104.33  7.2871572E-03
   7104.67  7.5336430E-03
   7105.00  7.7989118E-03
   7105.33  8.0886739E-03
   7105.67  8.4039475E-03
   7106.00  8.7487322E-03
   7106.33  9.1333907E-03
   7106.67  9.5613039E-03
   7107.00  1.0041277E-02
   7107.33  1.0595435E-02
   7107.67  1.1235212E-02
   7108.00  1.1984559E-02
   7108.33  1.2903732E-02
   7108.67  1.4039531E-02
   7109.00  1.5482007E-02
   7109.33  1.7472127E-02
   7109.67  2.0290398E-02
   7110.00  2.4492366E-02
   7110.33  3.1674355E-02
   7110.67  4.3320652E-02
   7111.00  5.8732120E-02
   7111.33  7.1425959E-02
   7111.67  7.7607436E-02
   7112.00  7.9078530E-02
   7112.33  7.9412231E-02
   7112.67  7.7321755E-02
   7113.00  7.1893798E-02
   7113.33  6.4463559E-02
   7113.67  5.8753922E-02
   7114.00  5.5712553E-02
   7114.33  5.5214778E-02
   7114.67  5.6473527E-02
   7115.00  5.9254515E-02
   7115.33  6.3650040E-02
   7115.67  6.9526464E-02
   7116.00  7.6991553E-02
   7116.33  8.6446283E-02
   7116.67  9.7901252E-02
   7117.00  1.1158621E-01
   7117.33  1.2806305E-01
   7117.67  1.4719989E-01
   7118.00  1.6900487E-01
   7118.33  1.9338750E-01
   7118.67  2.1904240E-01
   7119.00  2.4485048E-01
   7119.33  2.7005687E-01
   7119.67  2.9418568E-01
   7120.00  3.1635295E-01
   7120.33  3.3588350E-01
   7120.67  3.5416848E-01
   7121.00  3.7278845E-01
   7121.33  3.9293342E-01
   7121.67  4.1344026E-01
   7122.00  4.3229648E-01
   7122.33  4.4684835E-01
   7122.67  4.5600942E-01
   7123.00  4.5910311E-01
   7123.33  4.5635051E-01
   7123.67  4.5102631E-01
   7124.00  4.4586319E-01
   7124.33  4.4389088E-01
   7124.67  4.4639865E-01
   7125.00  4.5392130E-01
   7125.33  4.6683878E-01
   7125.67  4.8375602E-01
   7126.00  5.0374635E-01
   7126.33  5.2559274E-01
   7126.67  5.4714247E-01
   7127.00  5.6643737E-01
   7127.33  5.8091404E-01
   7127.67  5.9004619E-01
   7128.00  5.9391101E-01
   7128.33  5.9287030E-01
   7128.67  5.8870322E-01
   7129.00  5.8247160E-01
   7129.33  5.7529440E-01
   7129.67  5.6851032E-01
   7130.00  5.6295160E-01
   7130.33  5.5896450E-01
   7130.67  5.5572768E-01
   7131.00  5.5255813E-01
   7131.33  5.4894612E-01
   7131.67  5.4490650E-01
   7132.00  5.4064810E-01
   7132.33  5.3656687E-01
   7132.67  5.3305551E-01
   7133.00  5.3044135E-01
   7133.33  5.2914250E-01
   7133.67  5.2899942E-01
   7134.00  5.2965591E-01
   7134.33  5.3055709E-01
   7134.67  5.3138249E-01
   7135.00  5.3213489E-01
   7135.33  5.3280874E-01
   7135.67  5.3328483E-01
   7136.00  5.3338305E-01
   7136.33  5.3282117E-01
   7136.67  5.3152833E-01
   7137.00  5.2945526E-01
   7137.33  5.2653976E-01
   7137.67  5.2299755E-01
   7138.00  5.1899113E-01
   7138.33  5.1471809E-01
   7138.67  5.1044296E-01
   7139.00  5.0635007E-01
   7139.33  5.0265923E-01
   7139.67  4.9944963E-01
   7140.00  4.9678720E-01
   7140.33  4.9478346E-01
   7140.67  4.9337547E-01
   7141.00  4.9256046E-01
   7141.33  4.9240575E-01
   7141.67  4.9283717E-01
   7142.00  4.9386203E-01
   7142.33  4.9557639E-01
   7142.67  4.9793325E-01
   7143.00  5.0095939E-01
   7143.33  5.0475416E-01
   7143.67  5.0922396E-01
   7144.00  5.1435524E-01
   7144.33  5.2020568E-01
   7144.67  5.2665889E-01
   7145.00  5.3366726E-01
   7145.33  5.4121163E-01
   7145.67  5.4912507E-01
   7146.00  5.5729614E-01
   7146.33  5.6559469E-01
   7146.67  5.7385279E-01
   7147.00  5.8193804E-01
   7147.33  5.8966521E-01
   7147.67  5.9694441E-01
   7148.00  6.0368012E-01
   7148.33  6.0970273E-01
   7148.67  6.1502321E-01
   7149.00  6.1959941E-01
   7149.33  6.2330389E-01
   7149.67  6.2622164E-01
   7150.00  6.2835634E-01
   7150.33  6.2963462E-01
   7150.67  6.3019348E-01
   7151.00  6.3008624E-01
   7151.33  6.2931633E-01
   7151.67  6.2803951E-01
   7152.00  6.2632929E-01
   7152.33  6.2423059E-01
   7152.67  6.2187397E-01
   7153.00  6.1933099E-01
   7153.33  6.1666433E-01
   7153.67  6.1395473E-01
   7154.00  6.1125107E-01
   7154.33  6.0860521E-01
   7154.67  6.0604277E-01
   7155.00  6.0358033E-01
   7155.33  6.0123840E-01
   7155.67  5.9899878E-01
   7156.00  5.9684830E-01
   7156.33  5.9476999E-01
   7156.67  5.9272630E-01
   7157.00  5.9069129E-01
   7157.33  5.8863163E-01
   7157.67  5.8652197E-01
   7158.00  5.8434287E-01
   7158.33  5.8206720E-01
   7158.67  5.7969623E-01
   7159.00  5.7722791E-01
   7159.33  5.7465468E-01
   7159.67  5.7199827E-01
   7160.00  5.6927186E-01
   7160.33  5.6648621E-01
   7160.67  5.6366472E-01
   7161.00  5.6082451E-01
   7161.33  5.5798593E-01
   7161.67  5.5516344E-01
   7162.00  5.5236610E-01
   7162.33  5.4960632E-01
   7162.67  5.4688430E-01
   7163.00  5.4419933E-01
   7163.33  5.4154881E-01
   7163.67  5.3891753E-01
   7164.00  5.3629240E-01
   7164.33  5.3365276E-01
   7164.67  5.3097744E-01
   7165.00  5.2824402E-01
   7165.33  5.2541325E-01
   7165.67  5.2246699E-01
   7166.00  5.1938101E-01
   7166.33  5.1610738E-01
   7166.67  5.1264184E-01
   7167.00  5.0896458E-01
   7167.33  5.0502657E-01
   7167.67  5.0084249E-01
   7168.00  4.9640583E-01
   7168.33  4.9168469E-01
   7168.67  4.8671923E-01
   7169.00  4.8152438E-01
   7169.33  4.7610034E-01
   7169.67  4.7050900E-01
   7170.00  4.6479206E-01
   7170.33  4.5900445E-01
   7170.67  4.5323782E-01
   7171.00  4.4758954E-01
   7171.33  4.4226030E-01
   7171.67  4.3748028E-01
   7172.00  4.3357216E-01
