    FDMNES
    energy     <xanes>
   7097.00  5.7129177E-03
   7097.33  5.8708936E-03
   7097.67  6.0370639E-03
   7098.00  6.2120378E-03
   7098.33  6.3978032E-03
   7098.67  6.5940453E-03
   7099.00  6.8016088E-03
   7099.33  7.0231499E-03
   7099.67  7.2583632E-03
   7100.00  7.5084518E-03
   7100.33  7.7770587E-03
   7100.67  8.0639391E-03
   7101.00  8.3708592E-03
   7101.33  8.7029717E-03
   7101.67  9.0602027E-03
   7102.00  9.4452400E-03
   7102.33  9.8656427E-03
   7102.67  1.0321747E-02
   7103.00  1.0817824E-02
   7103.33  1.1365460E-02
   7103.67  1.1965941E-02
   7104.00  1.2626412E-02
   7104.33  1.3365627E-02
   7104.67  1.4187082E-02
   7105.00  1.5103544E-02
   7105.33  1.6147496E-02
   7105.67  1.7327863E-02
   7106.00  1.8669425E-02
   7106.33  2.0233672E-02
   7106.67  2.2043997E-02
   7107.00  2.4154140E-02
   7107.33  2.6695365E-02
   7107.67  2.9735056E-02
   7108.00  3.3409334E-02
   7108.33  3.8051412E-02
   7108.67  4.3892381E-02
   7109.00  5.1368277E-02
   7109.33  6.1588538E-02
   7109.67  7.5628943E-02
   7110.00  9.5537618E-02
   7110.33  1.2702008E-01
   7110.67  1.7700858E-01
   7111.00  2.5533700E-01
   7111.33  3.7710258E-01
   7111.67  5.4291060E-01
   7112.00  7.3563473E-01
   7112.33  8.7283435E-01
   7112.67  8.8509541E-01
   7113.00  7.8656611E-01
   7113.33  6.4735333E-01
   7113.67  5.2222811E-01
   7114.00  4.2333372E-01
   7114.33  3.5193742E-01
   7114.67  2.9882406E-01
   7115.00  2.5918561E-01
   7115.33  2.3017936E-01
   7115.67  2.0788766E-01
   7116.00  1.9068288E-01
   7116.33  1.7779540E-01
   7116.67  1.6789986E-01
   7117.00  1.6029271E-01
   7117.33  1.5420594E-01
   7117.67  1.4891468E-01
   7118.00  1.4450221E-01
   7118.33  1.4140562E-01
   7118.67  1.3950428E-01
   7119.00  1.3848197E-01
   7119.33  1.3763823E-01
   7119.67  1.3635706E-01
   7120.00  1.3464015E-01
   7120.33  1.3274082E-01
   7120.67  1.3126296E-01
   7121.00  1.3092576E-01
   7121.33  1.3226207E-01
   7121.67  1.3484095E-01
   7122.00  1.3833670E-01
   7122.33  1.4258723E-01
   7122.67  1.4741325E-01
   7123.00  1.5273294E-01
   7123.33  1.5841829E-01
   7123.67  1.6440666E-01
   7124.00  1.7107851E-01
   7124.33  1.7942916E-01
   7124.67  1.8983109E-01
   7125.00  2.0232289E-01
   7125.33  2.1694784E-01
   7125.67  2.3325962E-01
   7126.00  2.5110114E-01
   7126.33  2.7045406E-01
   7126.67  2.9099243E-01
   7127.00  3.1270199E-01
   7127.33  3.3601151E-01
   7127.67  3.6136145E-01
   7128.00  3.8938764E-01
   7128.33  4.2076233E-01
   7128.67  4.5455789E-01
   7129.00  4.8971881E-01
   7129.33  5.2482756E-01
   7129.67  5.5884776E-01
   7130.00  5.9144348E-01
   7130.33  6.2249550E-01
   7130.67  6.5212969E-01
   7131.00  6.7987905E-01
   7131.33  7.0438765E-01
   7131.67  7.2494679E-01
   7132.00  7.4089621E-01
   7132.33  7.5124115E-01
   7132.67  7.5649875E-01
   7133.00  7.5665036E-01
   7133.33  7.5112790E-01
   7133.67  7.4085711E-01
   7134.00  7.2633590E-01
   7134.33  7.0782465E-01
   7134.67  6.8637705E-01
   7135.00  6.6240578E-01
   7135.33  6.3611410E-01
   7135.67  6.0831008E-01
   7136.00  5.7958066E-01
   7136.33  5.5074782E-01
   7136.67  5.2278892E-01
   7137.00  4.9657105E-01
   7137.33  4.7336871E-01
   7137.67  4.5361247E-01
   7138.00  4.3777959E-01
   7138.33  4.2673699E-01
   7138.67  4.2005506E-01
   7139.00  4.1764784E-01
   7139.33  4.1973397E-01
   7139.67  4.2537356E-01
   7140.00  4.3409125E-01
   7140.33  4.4556843E-01
   7140.67  4.5885203E-01
   7141.00  4.7341572E-01
   7141.33  4.8882729E-01
   7141.67  5.0459770E-01
   7142.00  5.2049551E-01
   7142.33  5.3634522E-01
   7142.67  5.5204725E-01
   7143.00  5.6753139E-01
   7143.33  5.8267706E-01
   7143.67  5.9742838E-01
   7144.00  6.1170154E-01
   7144.33  6.2534022E-01
   7144.67  6.3835506E-01
   7145.00  6.5072116E-01
   7145.33  6.6236244E-01
   7145.67  6.7339481E-01
   7146.00  6.8386580E-01
   7146.33  6.9377927E-01
   7146.67  7.0326347E-01
   7147.00  7.1236861E-01
   7147.33  7.2109773E-01
   7147.67  7.2951656E-01
   7148.00  7.3762426E-01
   7148.33  7.4534657E-01
   7148.67  7.5266792E-01
   7149.00  7.5952322E-01
   7149.33  7.6574358E-01
   7149.67  7.7128844E-01
   7150.00  7.7605831E-01
   7150.33  7.7982688E-01
   7150.67  7.8260072E-01
   7151.00  7.8430656E-01
   7151.33  7.8474814E-01
   7151.67  7.8405018E-01
   7152.00  7.8223532E-01
   7152.33  7.7924211E-01
   7152.67  7.7531337E-01
   7153.00  7.7057180E-01
   7153.33  7.6509897E-01
   7153.67  7.5914725E-01
   7154.00  7.5285944E-01
   7154.33  7.4636366E-01
   7154.67  7.3981001E-01
   7155.00  7.3328361E-01
   7155.33  7.2686585E-01
   7155.67  7.2058329E-01
   7156.00  7.1444610E-01
   7156.33  7.0845782E-01
   7156.67  7.0256666E-01
   7157.00  6.9672807E-01
   7157.33  6.9087383E-01
   7157.67  6.8492620E-01
   7158.00  6.7880970E-01
   7158.33  6.7239878E-01
   7158.67  6.6563283E-01
   7159.00  6.5843446E-01
   7159.33  6.5065509E-01
   7159.67  6.4228787E-01
   7160.00  6.3328563E-01
   7160.33  6.2352800E-01
   7160.67  6.1308785E-01
   7161.00  6.0197905E-01
   7161.33  5.9016715E-01
   7161.67  5.7780404E-01
   7162.00  5.6497492E-01
   7162.33  5.5175541E-01
   7162.67  5.3832237E-01
   7163.00  5.2479577E-01
   7163.33  5.1132002E-01
   7163.67  4.9802158E-01
   7164.00  4.8500527E-01
   7164.33  4.7242839E-01
   7164.67  4.6033000E-01
   7165.00  4.4876751E-01
   7165.33  4.3786082E-01
   7165.67  4.2756565E-01
   7166.00  4.1789322E-01
   7166.33  4.0891658E-01
   7166.67  4.0053464E-01
   7167.00  3.9272029E-01
   7167.33  3.8550775E-01
   7167.67  3.7879276E-01
   7168.00  3.7254211E-01
   7168.33  3.6677118E-01
   7168.67  3.6139088E-01
   7169.00  3.5637264E-01
   7169.33  3.5172741E-01
   7169.67  3.4738767E-01
   7170.00  3.4333477E-01
   7170.33  3.3958411E-01
   7170.67  3.3609071E-01
   7171.00  3.3285529E-01
   7171.33  3.2993693E-01
   7171.67  3.2737001E-01
   7172.00  3.2525925E-01
