    FDMNES
    energy     <xanes>
   7097.00  4.5920705E-03
   7097.33  4.6987564E-03
   7097.67  4.8103066E-03
   7098.00  4.9270590E-03
   7098.33  5.0501555E-03
   7098.67  5.1793798E-03
   7099.00  5.3151980E-03
   7099.33  5.4591178E-03
   7099.67  5.6109255E-03
   7100.00  5.7712826E-03
   7100.33  5.9422376E-03
   7100.67  6.1236091E-03
   7101.00  6.3163677E-03
   7101.33  6.5233935E-03
   7101.67  6.7446025E-03
   7102.00  6.9814785E-03
   7102.33  7.2382400E-03
   7102.67  7.5150474E-03
   7103.00  7.8142826E-03
   7103.33  8.1424453E-03
   7103.67  8.5002801E-03
   7104.00  8.8918511E-03
   7104.33  9.3278298E-03
   7104.67  9.8103845E-03
   7105.00  1.0347007E-02
   7105.33  1.0956719E-02
   7105.67  1.1645382E-02
   7106.00  1.2428285E-02
   7106.33  1.3343285E-02
   7106.67  1.4406921E-02
   7107.00  1.5655082E-02
   7107.33  1.7175740E-02
   7107.67  1.9022026E-02
   7108.00  2.1297228E-02
   7108.33  2.4259244E-02
   7108.67  2.8125017E-02
   7109.00  3.3303000E-02
   7109.33  4.0891228E-02
   7109.67  5.2221220E-02
   7110.00  6.9930398E-02
   7110.33  1.0163149E-01
   7110.67  1.5422433E-01
   7111.00  2.2204754E-01
   7111.33  2.6321977E-01
   7111.67  2.6502974E-01
   7112.00  2.5152728E-01
   7112.33  2.5077225E-01
   7112.67  2.5613132E-01
   7113.00  2.5664434E-01
   7113.33  2.4386337E-01
   7113.67  2.2298020E-01
   7114.00  2.0236301E-01
   7114.33  1.9167082E-01
   7114.67  1.9589255E-01
   7115.00  2.1480786E-01
   7115.33  2.2940960E-01
   7115.67  2.1737719E-01
   7116.00  1.8818634E-01
   7116.33  1.6012789E-01
   7116.67  1.3955131E-01
   7117.00  1.2642519E-01
   7117.33  1.1940947E-01
   7117.67  1.1607918E-01
   7118.00  1.1568821E-01
   7118.33  1.1862805E-01
   7118.67  1.2453897E-01
   7119.00  1.3136863E-01
   7119.33  1.3393877E-01
   7119.67  1.3292541E-01
   7120.00  1.3208382E-01
   7120.33  1.3334888E-01
   7120.67  1.3510807E-01
   7121.00  1.3466326E-01
   7121.33  1.2878053E-01
   7121.67  1.2047181E-01
   7122.00  1.1377553E-01
   7122.33  1.1145815E-01
   7122.67  1.1321544E-01
   7123.00  1.1882425E-01
   7123.33  1.2855990E-01
   7123.67  1.4162957E-01
   7124.00  1.5737424E-01
   7124.33  1.7492649E-01
   7124.67  1.9349382E-01
   7125.00  2.1389633E-01
   7125.33  2.3896832E-01
   7125.67  2.6923882E-01
   7126.00  3.0216278E-01
   7126.33  3.3157047E-01
   7126.67  3.5467096E-01
   7127.00  3.7218282E-01
   7127.33  3.8514775E-01
   7127.67  3.9574621E-01
   7128.00  4.0628013E-01
   7128.33  4.2025171E-01
   7128.67  4.3931914E-01
   7129.00  4.6364388E-01
   7129.33  4.9182874E-01
   7129.67  5.1987047E-01
   7130.00  5.4576965E-01
   7130.33  5.7040563E-01
   7130.67  5.9544800E-01
   7131.00  6.2059430E-01
   7131.33  6.4525935E-01
   7131.67  6.7045161E-01
   7132.00  6.9743369E-01
   7132.33  7.2720770E-01
   7132.67  7.5926854E-01
   7133.00  7.9313889E-01
   7133.33  8.2790272E-01
   7133.67  8.6117776E-01
   7134.00  8.8990871E-01
   7134.33  9.0963514E-01
   7134.67  9.1910035E-01
   7135.00  9.1722813E-01
   7135.33  9.0259481E-01
   7135.67  8.7867883E-01
   7136.00  8.4863805E-01
   7136.33  8.1611510E-01
   7136.67  7.8431426E-01
   7137.00  7.5456123E-01
   7137.33  7.2751109E-01
   7137.67  7.0249433E-01
   7138.00  6.7909775E-01
   7138.33  6.5729384E-01
   7138.67  6.3706421E-01
   7139.00  6.1868057E-01
   7139.33  6.0263148E-01
   7139.67  5.8867994E-01
   7140.00  5.7672257E-01
   7140.33  5.6688411E-01
   7140.67  5.5894053E-01
   7141.00  5.5296968E-01
   7141.33  5.4925175E-01
   7141.67  5.4740490E-01
   7142.00  5.4720293E-01
   7142.33  5.4851684E-01
   7142.67  5.5094722E-01
   7143.00  5.5439507E-01
   7143.33  5.5898833E-01
   7143.67  5.6465259E-01
   7144.00  5.7136774E-01
   7144.33  5.7898289E-01
   7144.67  5.8679368E-01
   7145.00  5.9401005E-01
   7145.33  5.9937950E-01
   7145.67  6.0224368E-01
   7146.00  6.0222805E-01
   7146.33  5.9903696E-01
   7146.67  5.9346715E-01
   7147.00  5.8603257E-01
   7147.33  5.7716551E-01
   7147.67  5.6755722E-01
   7148.00  5.5764630E-01
   7148.33  5.4794985E-01
   7148.67  5.3888316E-01
   7149.00  5.3078066E-01
   7149.33  5.2411308E-01
   7149.67  5.1891186E-01
   7150.00  5.1524095E-01
   7150.33  5.1325932E-01
   7150.67  5.1266642E-01
   7151.00  5.1332458E-01
   7151.33  5.1517876E-01
   7151.67  5.1788449E-01
   7152.00  5.2124299E-01
   7152.33  5.2506188E-01
   7152.67  5.2905670E-01
   7153.00  5.3305621E-01
   7153.33  5.3690268E-01
   7153.67  5.4055756E-01
   7154.00  5.4405060E-01
   7154.33  5.4749853E-01
   7154.67  5.5110277E-01
   7155.00  5.5506929E-01
   7155.33  5.5972938E-01
   7155.67  5.6524246E-01
   7156.00  5.7176960E-01
   7156.33  5.7955508E-01
   7156.67  5.8843588E-01
   7157.00  5.9826257E-01
   7157.33  6.0876414E-01
   7157.67  6.1933586E-01
   7158.00  6.2940191E-01
   7158.33  6.3806196E-01
   7158.67  6.4475323E-01
   7159.00  6.4896950E-01
   7159.33  6.4998386E-01
   7159.67  6.4806446E-01
   7160.00  6.4335812E-01
   7160.33  6.3593183E-01
   7160.67  6.2658609E-01
   7161.00  6.1578976E-01
   7161.33  6.0393941E-01
   7161.67  5.9157056E-01
   7162.00  5.7896393E-01
   7162.33  5.6636658E-01
   7162.67  5.5394543E-01
   7163.00  5.4179133E-01
   7163.33  5.3000084E-01
   7163.67  5.1855088E-01
   7164.00  5.0743663E-01
   7164.33  4.9667987E-01
   7164.67  4.8622059E-01
   7165.00  4.7604729E-01
   7165.33  4.6619395E-01
   7165.67  4.5663982E-01
   7166.00  4.4740956E-01
   7166.33  4.3858469E-01
   7166.67  4.3016019E-01
   7167.00  4.2216884E-01
   7167.33  4.1469946E-01
   7167.67  4.0771639E-01
   7168.00  4.0123204E-01
   7168.33  3.9531024E-01
   7168.67  3.8987830E-01
   7169.00  3.8492728E-01
   7169.33  3.8050462E-01
   7169.67  3.7653757E-01
   7170.00  3.7301265E-01
   7170.33  3.6996656E-01
   7170.67  3.6732966E-01
   7171.00  3.6508752E-01
   7171.33  3.6326790E-01
   7171.67  3.6179995E-01
   7172.00  3.6065502E-01
