    FDMNES
    energy     <xanes>
   7097.00  4.5683931E-03
   7097.33  4.6605506E-03
   7097.67  4.7561332E-03
   7098.00  4.8553319E-03
   7098.33  4.9588714E-03
   7098.67  5.0665358E-03
   7099.00  5.1785743E-03
   7099.33  5.2958928E-03
   7099.67  5.4182580E-03
   7100.00  5.5460037E-03
   7100.33  5.6802876E-03
   7100.67  5.8208656E-03
   7101.00  5.9681983E-03
   7101.33  6.1238065E-03
   7101.67  6.2874523E-03
   7102.00  6.4597948E-03
   7102.33  6.6429025E-03
   7102.67  6.8365838E-03
   7103.00  7.0418258E-03
   7103.33  7.2615690E-03
   7103.67  7.4957640E-03
   7104.00  7.7459762E-03
   7104.33  8.0166336E-03
   7104.67  8.3080638E-03
   7105.00  8.6229412E-03
   7105.33  8.9684635E-03
   7105.67  9.3459570E-03
   7106.00  9.7604614E-03
   7106.33  1.0224968E-02
   7106.67  1.0743639E-02
   7107.00  1.1327340E-02
   7107.33  1.2003263E-02
   7107.67  1.2784859E-02
   7108.00  1.3700553E-02
   7108.33  1.4821389E-02
   7108.67  1.6199496E-02
   7109.00  1.7935366E-02
   7109.33  2.0294163E-02
   7109.67  2.3567748E-02
   7110.00  2.8329574E-02
   7110.33  3.6205160E-02
   7110.67  4.8691628E-02
   7111.00  6.5347587E-02
   7111.33  8.2021608E-02
   7111.67  1.0003480E-01
   7112.00  1.1980635E-01
   7112.33  1.3161414E-01
   7112.67  1.3064958E-01
   7113.00  1.2278733E-01
   7113.33  1.1307187E-01
   7113.67  1.0142315E-01
   7114.00  8.8392288E-02
   7114.33  7.7000648E-02
   7114.67  6.9070168E-02
   7115.00  6.4818031E-02
   7115.33  6.4276109E-02
   7115.67  6.6826596E-02
   7116.00  7.2687922E-02
   7116.33  8.3195554E-02
   7116.67  9.9250618E-02
   7117.00  1.2221825E-01
   7117.33  1.5327084E-01
   7117.67  1.8799361E-01
   7118.00  2.2006655E-01
   7118.33  2.4132767E-01
   7118.67  2.5192806E-01
   7119.00  2.5552045E-01
   7119.33  2.5612882E-01
   7119.67  2.5686479E-01
   7120.00  2.6017459E-01
   7120.33  2.6951670E-01
   7120.67  2.8501141E-01
   7121.00  3.0599903E-01
   7121.33  3.3316981E-01
   7121.67  3.6710380E-01
   7122.00  4.0850078E-01
   7122.33  4.5633948E-01
   7122.67  5.0354734E-01
   7123.00  5.4383605E-01
   7123.33  5.7429664E-01
   7123.67  5.9780627E-01
   7124.00  6.1482894E-01
   7124.33  6.2548621E-01
   7124.67  6.3412527E-01
   7125.00  6.4496229E-01
   7125.33  6.5987779E-01
   7125.67  6.7301902E-01
   7126.00  6.7998738E-01
   7126.33  6.8191558E-01
   7126.67  6.8265379E-01
   7127.00  6.8313670E-01
   7127.33  6.8415625E-01
   7127.67  6.8656371E-01
   7128.00  6.8939414E-01
   7128.33  6.8851531E-01
   7128.67  6.8252599E-01
   7129.00  6.7403894E-01
   7129.33  6.6812974E-01
   7129.67  6.6585210E-01
   7130.00  6.6478577E-01
   7130.33  6.6073049E-01
   7130.67  6.5154565E-01
   7131.00  6.3688299E-01
   7131.33  6.1807497E-01
   7131.67  5.9896548E-01
   7132.00  5.8237761E-01
   7132.33  5.7076354E-01
   7132.67  5.6375894E-01
   7133.00  5.6044783E-01
   7133.33  5.5923628E-01
   7133.67  5.5810440E-01
   7134.00  5.5637508E-01
   7134.33  5.5399505E-01
   7134.67  5.5079821E-01
   7135.00  5.4670139E-01
   7135.33  5.4241571E-01
   7135.67  5.3865352E-01
   7136.00  5.3546956E-01
   7136.33  5.3267125E-01
   7136.67  5.3002131E-01
   7137.00  5.2746112E-01
   7137.33  5.2502950E-01
   7137.67  5.2280270E-01
   7138.00  5.2089616E-01
   7138.33  5.1952472E-01
   7138.67  5.1876472E-01
   7139.00  5.1867555E-01
   7139.33  5.1929751E-01
   7139.67  5.2038502E-01
   7140.00  5.2171505E-01
   7140.33  5.2298956E-01
   7140.67  5.2396137E-01
   7141.00  5.2448591E-01
   7141.33  5.2442907E-01
   7141.67  5.2386671E-01
   7142.00  5.2283718E-01
   7142.33  5.2133082E-01
   7142.67  5.1942259E-01
   7143.00  5.1710799E-01
   7143.33  5.1430073E-01
   7143.67  5.1100275E-01
   7144.00  5.0716108E-01
   7144.33  5.0264851E-01
   7144.67  4.9752424E-01
   7145.00  4.9182660E-01
   7145.33  4.8561167E-01
   7145.67  4.7910424E-01
   7146.00  4.7245766E-01
   7146.33  4.6582495E-01
   7146.67  4.5930924E-01
   7147.00  4.5296060E-01
   7147.33  4.4682228E-01
   7147.67  4.4087218E-01
   7148.00  4.3510679E-01
   7148.33  4.2953104E-01
   7148.67  4.2411151E-01
   7149.00  4.1885563E-01
   7149.33  4.1382224E-01
   7149.67  4.0904705E-01
   7150.00  4.0459697E-01
   7150.33  4.0061542E-01
   7150.67  3.9712977E-01
   7151.00  3.9418863E-01
   7151.33  3.9189690E-01
   7151.67  3.9018573E-01
   7152.00  3.8903427E-01
   7152.33  3.8846131E-01
   7152.67  3.8834622E-01
   7153.00  3.8864173E-01
   7153.33  3.8934749E-01
   7153.67  3.9038443E-01
   7154.00  3.9173108E-01
   7154.33  3.9340067E-01
   7154.67  3.9533147E-01
   7155.00  3.9749637E-01
   7155.33  3.9988630E-01
   7155.67  4.0244649E-01
   7156.00  4.0516024E-01
   7156.33  4.0804192E-01
   7156.67  4.1108577E-01
   7157.00  4.1431233E-01
   7157.33  4.1777179E-01
   7157.67  4.2145298E-01
   7158.00  4.2535584E-01
   7158.33  4.2948631E-01
   7158.67  4.3377682E-01
   7159.00  4.3817504E-01
   7159.33  4.4261363E-01
   7159.67  4.4701121E-01
   7160.00  4.5130321E-01
   7160.33  4.5540360E-01
   7160.67  4.5928567E-01
   7161.00  4.6292457E-01
   7161.33  4.6627976E-01
   7161.67  4.6938780E-01
   7162.00  4.7225711E-01
   7162.33  4.7487092E-01
   7162.67  4.7726527E-01
   7163.00  4.7943853E-01
   7163.33  4.8134833E-01
   7163.67  4.8300120E-01
   7164.00  4.8437483E-01
   7164.33  4.8540989E-01
   7164.67  4.8613402E-01
   7165.00  4.8655239E-01
   7165.33  4.8665330E-01
   7165.67  4.8651309E-01
   7166.00  4.8617827E-01
   7166.33  4.8569450E-01
   7166.67  4.8514324E-01
   7167.00  4.8457759E-01
   7167.33  4.8405656E-01
   7167.67  4.8361713E-01
   7168.00  4.8328400E-01
   7168.33  4.8308831E-01
   7168.67  4.8301851E-01
   7169.00  4.8306995E-01
   7169.33  4.8324357E-01
   7169.67  4.8350773E-01
   7170.00  4.8384493E-01
   7170.33  4.8424129E-01
   7170.67  4.8467087E-01
   7171.00  4.8511783E-01
   7171.33  4.8556189E-01
   7171.67  4.8597574E-01
   7172.00  4.8632463E-01
