    FDMNES
    energy     <xanes>
   7097.00  5.0677111E-03
   7097.33  5.1835354E-03
   7097.67  5.3044063E-03
   7098.00  5.4306498E-03
   7098.33  5.5634069E-03
   7098.67  5.7024164E-03
   7099.00  5.8481153E-03
   7099.33  6.0019742E-03
   7099.67  6.1637162E-03
   7100.00  6.3339415E-03
   7100.33  6.5145889E-03
   7100.67  6.7053810E-03
   7101.00  6.9071647E-03
   7101.33  7.1225657E-03
   7101.67  7.3513403E-03
   7102.00  7.5947223E-03
   7102.33  7.8563836E-03
   7102.67  8.1361899E-03
   7103.00  8.4360095E-03
   7103.33  8.7611796E-03
   7103.67  9.1118447E-03
   7104.00  9.4909692E-03
   7104.33  9.9066903E-03
   7104.67  1.0359823E-02
   7105.00  1.0855353E-02
   7105.33  1.1406461E-02
   7105.67  1.2015593E-02
   7106.00  1.2691793E-02
   7106.33  1.3458173E-02
   7106.67  1.4321407E-02
   7107.00  1.5299655E-02
   7107.33  1.6438135E-02
   7107.67  1.7755819E-02
   7108.00  1.9294909E-02
   7108.33  2.1159465E-02
   7108.67  2.3411979E-02
   7109.00  2.6175886E-02
   7109.33  2.9764151E-02
   7109.67  3.4455051E-02
   7110.00  4.0785890E-02
   7110.33  5.0233036E-02
   7110.67  6.4385364E-02
   7111.00  8.4907561E-02
   7111.33  1.1294590E-01
   7111.67  1.5071825E-01
   7112.00  2.0488349E-01
   7112.33  2.6935305E-01
   7112.67  3.0990829E-01
   7113.00  3.1494100E-01
   7113.33  3.1658541E-01
   7113.67  3.4167964E-01
   7114.00  3.9737706E-01
   7114.33  4.6978716E-01
   7114.67  5.0603737E-01
   7115.00  4.7439609E-01
   7115.33  3.9588806E-01
   7115.67  3.2616304E-01
   7116.00  2.8321987E-01
   7116.33  2.6956703E-01
   7116.67  2.7165109E-01
   7117.00  2.7310666E-01
   7117.33  2.5774825E-01
   7117.67  2.3167351E-01
   7118.00  2.0351817E-01
   7118.33  1.8105717E-01
   7118.67  1.6550558E-01
   7119.00  1.5558622E-01
   7119.33  1.4938419E-01
   7119.67  1.4438796E-01
   7120.00  1.3992318E-01
   7120.33  1.3681823E-01
   7120.67  1.3501809E-01
   7121.00  1.3378335E-01
   7121.33  1.3239845E-01
   7121.67  1.3081027E-01
   7122.00  1.2933106E-01
   7122.33  1.2855153E-01
   7122.67  1.2916617E-01
   7123.00  1.3201494E-01
   7123.33  1.3818848E-01
   7123.67  1.4756690E-01
   7124.00  1.6029451E-01
   7124.33  1.7712389E-01
   7124.67  1.9772379E-01
   7125.00  2.2173095E-01
   7125.33  2.4828133E-01
   7125.67  2.7543820E-01
   7126.00  3.0192595E-01
   7126.33  3.2696357E-01
   7126.67  3.5116326E-01
   7127.00  3.7533045E-01
   7127.33  4.0019725E-01
   7127.67  4.2565675E-01
   7128.00  4.5124271E-01
   7128.33  4.7626746E-01
   7128.67  5.0046849E-01
   7129.00  5.2398720E-01
   7129.33  5.4725507E-01
   7129.67  5.7059859E-01
   7130.00  5.9393829E-01
   7130.33  6.1690393E-01
   7130.67  6.3951754E-01
   7131.00  6.6229647E-01
   7131.33  6.8652514E-01
   7131.67  7.1314943E-01
   7132.00  7.4249367E-01
   7132.33  7.7408821E-01
   7132.67  8.0579504E-01
   7133.00  8.3533324E-01
   7133.33  8.5923175E-01
   7133.67  8.7575116E-01
   7134.00  8.8370691E-01
   7134.33  8.8192072E-01
   7134.67  8.7264743E-01
   7135.00  8.5752416E-01
   7135.33  8.3814779E-01
   7135.67  8.1677402E-01
   7136.00  7.9453705E-01
   7136.33  7.7232217E-01
   7136.67  7.5062041E-01
   7137.00  7.2961223E-01
   7137.33  7.0942458E-01
   7137.67  6.8996201E-01
   7138.00  6.7129852E-01
   7138.33  6.5380200E-01
   7138.67  6.3771084E-01
   7139.00  6.2336487E-01
   7139.33  6.1134266E-01
   7139.67  6.0157392E-01
   7140.00  5.9411904E-01
   7140.33  5.8922625E-01
   7140.67  5.8648449E-01
   7141.00  5.8577959E-01
   7141.33  5.8724631E-01
   7141.67  5.9053629E-01
   7142.00  5.9551689E-01
   7142.33  6.0210404E-01
   7142.67  6.0967551E-01
   7143.00  6.1766973E-01
   7143.33  6.2518130E-01
   7143.67  6.3131071E-01
   7144.00  6.3531498E-01
   7144.33  6.3628941E-01
   7144.67  6.3445775E-01
   7145.00  6.3008043E-01
   7145.33  6.2349025E-01
   7145.67  6.1561091E-01
   7146.00  6.0697420E-01
   7146.33  5.9802778E-01
   7146.67  5.8912677E-01
   7147.00  5.8043380E-01
   7147.33  5.7208068E-01
   7147.67  5.6406147E-01
   7148.00  5.5638017E-01
   7148.33  5.4907677E-01
   7148.67  5.4211963E-01
   7149.00  5.3554806E-01
   7149.33  5.2948396E-01
   7149.67  5.2392739E-01
   7150.00  5.1892648E-01
   7150.33  5.1461546E-01
   7150.67  5.1096788E-01
   7151.00  5.0801221E-01
   7151.33  5.0584978E-01
   7151.67  5.0438502E-01
   7152.00  5.0359673E-01
   7152.33  5.0352633E-01
   7152.67  5.0404279E-01
   7153.00  5.0509265E-01
   7153.33  5.0667074E-01
   7153.67  5.0865691E-01
   7154.00  5.1100031E-01
   7154.33  5.1368141E-01
   7154.67  5.1660722E-01
   7155.00  5.1973031E-01
   7155.33  5.2301226E-01
   7155.67  5.2637776E-01
   7156.00  5.2977600E-01
   7156.33  5.3314379E-01
   7156.67  5.3642497E-01
   7157.00  5.3956926E-01
   7157.33  5.4249636E-01
   7157.67  5.4517839E-01
   7158.00  5.4757500E-01
   7158.33  5.4960427E-01
   7158.67  5.5127285E-01
   7159.00  5.5255769E-01
   7159.33  5.5339011E-01
   7159.67  5.5381167E-01
   7160.00  5.5382243E-01
   7160.33  5.5337976E-01
   7160.67  5.5254895E-01
   7161.00  5.5134892E-01
   7161.33  5.4976898E-01
   7161.67  5.4788792E-01
   7162.00  5.4573533E-01
   7162.33  5.4331517E-01
   7162.67  5.4069052E-01
   7163.00  5.3788881E-01
   7163.33  5.3492087E-01
   7163.67  5.3183073E-01
   7164.00  5.2863661E-01
   7164.33  5.2534258E-01
   7164.67  5.2196770E-01
   7165.00  5.1851574E-01
   7165.33  5.1498451E-01
   7165.67  5.1139243E-01
   7166.00  5.0775052E-01
   7166.33  5.0407039E-01
   7166.67  5.0037553E-01
   7167.00  4.9668525E-01
   7167.33  4.9302723E-01
   7167.67  4.8942191E-01
   7168.00  4.8588913E-01
   7168.33  4.8246226E-01
   7168.67  4.7914843E-01
   7169.00  4.7596034E-01
   7169.33  4.7292528E-01
   7169.67  4.7003418E-01
   7170.00  4.6729276E-01
   7170.33  4.6472064E-01
   7170.67  4.6229880E-01
   7171.00  4.6003374E-01
   7171.33  4.5797329E-01
   7171.67  4.5615666E-01
   7172.00  4.5467441E-01
