    FDMNES
    energy     <xanes>
   7097.00  4.5157018E-03
   7097.33  4.6155904E-03
   7097.67  4.7197310E-03
   7098.00  4.8283981E-03
   7098.33  4.9425540E-03
   7098.67  5.0619804E-03
   7099.00  5.1870483E-03
   7099.33  5.3190032E-03
   7099.67  5.4576182E-03
   7100.00  5.6034083E-03
   7100.33  5.7580277E-03
   7100.67  5.9212584E-03
   7101.00  6.0938380E-03
   7101.33  6.2780327E-03
   7101.67  6.4736725E-03
   7102.00  6.6818550E-03
   7102.33  6.9058037E-03
   7102.67  7.1454849E-03
   7103.00  7.4026083E-03
   7103.33  7.6819783E-03
   7103.67  7.9839005E-03
   7104.00  8.3111937E-03
   7104.33  8.6714513E-03
   7104.67  9.0658105E-03
   7105.00  9.4992670E-03
   7105.33  9.9847701E-03
   7105.67  1.0525581E-02
   7106.00  1.1131433E-02
   7106.33  1.1826776E-02
   7106.67  1.2620814E-02
   7107.00  1.3535140E-02
   7107.33  1.4622991E-02
   7107.67  1.5912945E-02
   7108.00  1.7462781E-02
   7108.33  1.9415975E-02
   7108.67  2.1881676E-02
   7109.00  2.5067126E-02
   7109.33  2.9517881E-02
   7109.67  3.5840194E-02
   7110.00  4.5221609E-02
   7110.33  6.1068006E-02
   7110.67  8.6998624E-02
   7111.00  1.2415054E-01
   7111.33  1.6313792E-01
   7111.67  1.9170318E-01
   7112.00  2.1290553E-01
   7112.33  2.2859152E-01
   7112.67  2.2729090E-01
   7113.00  2.1045817E-01
   7113.33  1.8266538E-01
   7113.67  1.6315755E-01
   7114.00  1.6031695E-01
   7114.33  1.7611881E-01
   7114.67  2.0664245E-01
   7115.00  2.4135180E-01
   7115.33  2.5364874E-01
   7115.67  2.4138961E-01
   7116.00  2.2184545E-01
   7116.33  1.9896390E-01
   7116.67  1.7028503E-01
   7117.00  1.4478624E-01
   7117.33  1.3035886E-01
   7117.67  1.2532145E-01
   7118.00  1.2794120E-01
   7118.33  1.3685625E-01
   7118.67  1.4855719E-01
   7119.00  1.6001919E-01
   7119.33  1.6878403E-01
   7119.67  1.7590132E-01
   7120.00  1.8279539E-01
   7120.33  1.8990518E-01
   7120.67  1.9653046E-01
   7121.00  2.0213209E-01
   7121.33  2.0674194E-01
   7121.67  2.1140086E-01
   7122.00  2.1734605E-01
   7122.33  2.2650905E-01
   7122.67  2.3934368E-01
   7123.00  2.5556227E-01
   7123.33  2.7472402E-01
   7123.67  2.9623423E-01
   7124.00  3.2037372E-01
   7124.33  3.4812746E-01
   7124.67  3.7930084E-01
   7125.00  4.1292642E-01
   7125.33  4.4584570E-01
   7125.67  4.7367921E-01
   7126.00  4.9358630E-01
   7126.33  5.0435591E-01
   7126.67  5.0837662E-01
   7127.00  5.0677704E-01
   7127.33  5.0123776E-01
   7127.67  4.9533934E-01
   7128.00  4.9141747E-01
   7128.33  4.9147867E-01
   7128.67  4.9555621E-01
   7129.00  5.0327277E-01
   7129.33  5.1347370E-01
   7129.67  5.2365841E-01
   7130.00  5.3192151E-01
   7130.33  5.3616419E-01
   7130.67  5.3594817E-01
   7131.00  5.3134501E-01
   7131.33  5.2319809E-01
   7131.67  5.1398037E-01
   7132.00  5.0548709E-01
   7132.33  4.9936683E-01
   7132.67  4.9575394E-01
   7133.00  4.9435849E-01
   7133.33  4.9466799E-01
   7133.67  4.9579740E-01
   7134.00  4.9740731E-01
   7134.33  4.9960133E-01
   7134.67  5.0274522E-01
   7135.00  5.0732673E-01
   7135.33  5.1390985E-01
   7135.67  5.2200243E-01
   7136.00  5.3084919E-01
   7136.33  5.3943379E-01
   7136.67  5.4732936E-01
   7137.00  5.5469112E-01
   7137.33  5.6197967E-01
   7137.67  5.6961412E-01
   7138.00  5.7778071E-01
   7138.33  5.8658351E-01
   7138.67  5.9583967E-01
   7139.00  6.0537685E-01
   7139.33  6.1495391E-01
   7139.67  6.2431268E-01
   7140.00  6.3325054E-01
   7140.33  6.4148583E-01
   7140.67  6.4893487E-01
   7141.00  6.5548746E-01
   7141.33  6.6091669E-01
   7141.67  6.6527429E-01
   7142.00  6.6853127E-01
   7142.33  6.7058248E-01
   7142.67  6.7167926E-01
   7143.00  6.7199726E-01
   7143.33  6.7174536E-01
   7143.67  6.7128506E-01
   7144.00  6.7084841E-01
   7144.33  6.7066228E-01
   7144.67  6.7079871E-01
   7145.00  6.7126393E-01
   7145.33  6.7202106E-01
   7145.67  6.7290988E-01
   7146.00  6.7379584E-01
   7146.33  6.7449228E-01
   7146.67  6.7483716E-01
   7147.00  6.7466452E-01
   7147.33  6.7369762E-01
   7147.67  6.7185777E-01
   7148.00  6.6903610E-01
   7148.33  6.6503286E-01
   7148.67  6.5998313E-01
   7149.00  6.5394552E-01
   7149.33  6.4692920E-01
   7149.67  6.3919562E-01
   7150.00  6.3089355E-01
   7150.33  6.2214349E-01
   7150.67  6.1313906E-01
   7151.00  6.0398359E-01
   7151.33  5.9476796E-01
   7151.67  5.8557072E-01
   7152.00  5.7643603E-01
   7152.33  5.6740905E-01
   7152.67  5.5849723E-01
   7153.00  5.4971130E-01
   7153.33  5.4107706E-01
   7153.67  5.3258677E-01
   7154.00  5.2425192E-01
   7154.33  5.1611328E-01
   7154.67  5.0817280E-01
   7155.00  5.0045281E-01
   7155.33  4.9300988E-01
   7155.67  4.8583674E-01
   7156.00  4.7894995E-01
   7156.33  4.7239902E-01
   7156.67  4.6615101E-01
   7157.00  4.6020503E-01
   7157.33  4.5459333E-01
   7157.67  4.4927199E-01
   7158.00  4.4423534E-01
   7158.33  4.3951297E-01
   7158.67  4.3506750E-01
   7159.00  4.3089913E-01
   7159.33  4.2704402E-01
   7159.67  4.2346899E-01
   7160.00  4.2017489E-01
   7160.33  4.1719591E-01
   7160.67  4.1449442E-01
   7161.00  4.1206701E-01
   7161.33  4.0994302E-01
   7161.67  4.0808476E-01
   7162.00  4.0648564E-01
   7162.33  4.0516077E-01
   7162.67  4.0405937E-01
   7163.00  4.0315961E-01
   7163.33  4.0245005E-01
   7163.67  4.0187001E-01
   7164.00  4.0138108E-01
   7164.33  4.0094379E-01
   7164.67  4.0051348E-01
   7165.00  4.0006464E-01
   7165.33  3.9957414E-01
   7165.67  3.9904101E-01
   7166.00  3.9847111E-01
   7166.33  3.9788071E-01
   7166.67  3.9730039E-01
   7167.00  3.9675898E-01
   7167.33  3.9630122E-01
   7167.67  3.9595303E-01
   7168.00  3.9574265E-01
   7168.33  3.9571951E-01
   7168.67  3.9588448E-01
   7169.00  3.9624887E-01
   7169.33  3.9684209E-01
   7169.67  3.9763256E-01
   7170.00  3.9860662E-01
   7170.33  3.9975808E-01
   7170.67  4.0102947E-01
   7171.00  4.0237631E-01
   7171.33  4.0372716E-01
   7171.67  4.0497633E-01
   7172.00  4.0600375E-01
