    FDMNES
    energy     <xanes>
   7097.00  4.3526907E-03
   7097.33  4.4441182E-03
   7097.67  4.5392652E-03
   7098.00  4.6383691E-03
   7098.33  4.7422679E-03
   7098.67  4.8507686E-03
   7099.00  4.9641940E-03
   7099.33  5.0836311E-03
   7099.67  5.2088834E-03
   7100.00  5.3404032E-03
   7100.33  5.4796417E-03
   7100.67  5.6264174E-03
   7101.00  5.7813870E-03
   7101.33  5.9465567E-03
   7101.67  6.1218021E-03
   7102.00  6.3081173E-03
   7102.33  6.5083960E-03
   7102.67  6.7226655E-03
   7103.00  6.9525092E-03
   7103.33  7.2023245E-03
   7103.67  7.4725112E-03
   7104.00  7.7657524E-03
   7104.33  8.0891826E-03
   7104.67  8.4441169E-03
   7105.00  8.8354713E-03
   7105.33  9.2758286E-03
   7105.67  9.7688774E-03
   7106.00  1.0324580E-02
   7106.33  1.0967707E-02
   7106.67  1.1708747E-02
   7107.00  1.2570825E-02
   7107.33  1.3610669E-02
   7107.67  1.4861600E-02
   7108.00  1.6388806E-02
   7108.33  1.8354397E-02
   7108.67  2.0890276E-02
   7109.00  2.4244201E-02
   7109.33  2.9074198E-02
   7109.67  3.6146678E-02
   7110.00  4.6967069E-02
   7110.33  6.5885963E-02
   7110.67  9.7468518E-02
   7111.00  1.4192401E-01
   7111.33  1.8201446E-01
   7111.67  2.0635431E-01
   7112.00  2.1859818E-01
   7112.33  2.1974392E-01
   7112.67  2.0414688E-01
   7113.00  1.7244154E-01
   7113.33  1.3637599E-01
   7113.67  1.1031871E-01
   7114.00  9.4332329E-02
   7114.33  8.3428316E-02
   7114.67  7.3156933E-02
   7115.00  6.1877078E-02
   7115.33  5.3244659E-02
   7115.67  4.8132765E-02
   7116.00  4.5649426E-02
   7116.33  4.5128372E-02
   7116.67  4.5869200E-02
   7117.00  4.7614538E-02
   7117.33  5.0206425E-02
   7117.67  5.3383113E-02
   7118.00  5.7149605E-02
   7118.33  6.1690267E-02
   7118.67  6.6950648E-02
   7119.00  7.2962055E-02
   7119.33  8.0093862E-02
   7119.67  8.8688416E-02
   7120.00  9.9122792E-02
   7120.33  1.1184371E-01
   7120.67  1.2681555E-01
   7121.00  1.4452516E-01
   7121.33  1.6555236E-01
   7121.67  1.8866241E-01
   7122.00  2.1280696E-01
   7122.33  2.3745306E-01
   7122.67  2.6283080E-01
   7123.00  2.8979885E-01
   7123.33  3.1948241E-01
   7123.67  3.5087885E-01
   7124.00  3.8248908E-01
   7124.33  4.1363429E-01
   7124.67  4.4533402E-01
   7125.00  4.7803232E-01
   7125.33  5.1002504E-01
   7125.67  5.3757771E-01
   7126.00  5.5753181E-01
   7126.33  5.6809729E-01
   7126.67  5.7207321E-01
   7127.00  5.7173906E-01
   7127.33  5.7063556E-01
   7127.67  5.7245257E-01
   7128.00  5.7909471E-01
   7128.33  5.9136448E-01
   7128.67  6.0738253E-01
   7129.00  6.2594570E-01
   7129.33  6.4635144E-01
   7129.67  6.6847371E-01
   7130.00  6.9328577E-01
   7130.33  7.2212985E-01
   7130.67  7.5316697E-01
   7131.00  7.8315772E-01
   7131.33  8.0769014E-01
   7131.67  8.2612406E-01
   7132.00  8.3963846E-01
   7132.33  8.4992477E-01
   7132.67  8.5790945E-01
   7133.00  8.6218068E-01
   7133.33  8.5922764E-01
   7133.67  8.4865376E-01
   7134.00  8.3206006E-01
   7134.33  8.1267514E-01
   7134.67  7.9340411E-01
   7135.00  7.7501083E-01
   7135.33  7.5763397E-01
   7135.67  7.4118010E-01
   7136.00  7.2592041E-01
   7136.33  7.1249274E-01
   7136.67  7.0097295E-01
   7137.00  6.9136428E-01
   7137.33  6.8362741E-01
   7137.67  6.7713414E-01
   7138.00  6.7145958E-01
   7138.33  6.6614078E-01
   7138.67  6.6069136E-01
   7139.00  6.5482520E-01
   7139.33  6.4829168E-01
   7139.67  6.4114721E-01
   7140.00  6.3346686E-01
   7140.33  6.2535411E-01
   7140.67  6.1706697E-01
   7141.00  6.0883458E-01
   7141.33  6.0099665E-01
   7141.67  5.9376133E-01
   7142.00  5.8724706E-01
   7142.33  5.8149313E-01
   7142.67  5.7617676E-01
   7143.00  5.7103036E-01
   7143.33  5.6579068E-01
   7143.67  5.6037777E-01
   7144.00  5.5486505E-01
   7144.33  5.4947280E-01
   7144.67  5.4442597E-01
   7145.00  5.3988227E-01
   7145.33  5.3600635E-01
   7145.67  5.3271813E-01
   7146.00  5.2994792E-01
   7146.33  5.2760982E-01
   7146.67  5.2549105E-01
   7147.00  5.2345479E-01
   7147.33  5.2136538E-01
   7147.67  5.1913724E-01
   7148.00  5.1672859E-01
   7148.33  5.1411522E-01
   7148.67  5.1136786E-01
   7149.00  5.0856137E-01
   7149.33  5.0581452E-01
   7149.67  5.0324582E-01
   7150.00  5.0096291E-01
   7150.33  4.9911701E-01
   7150.67  4.9771632E-01
   7151.00  4.9675975E-01
   7151.33  4.9622504E-01
   7151.67  4.9592422E-01
   7152.00  4.9568112E-01
   7152.33  4.9519544E-01
   7152.67  4.9416426E-01
   7153.00  4.9228277E-01
   7153.33  4.8905407E-01
   7153.67  4.8433188E-01
   7154.00  4.7793828E-01
   7154.33  4.6957249E-01
   7154.67  4.5952777E-01
   7155.00  4.4798546E-01
   7155.33  4.3511268E-01
   7155.67  4.2143507E-01
   7156.00  4.0728649E-01
   7156.33  3.9301174E-01
   7156.67  3.7892410E-01
   7157.00  3.6522319E-01
   7157.33  3.5214571E-01
   7157.67  3.3973246E-01
   7158.00  3.2804538E-01
   7158.33  3.1723045E-01
   7158.67  3.0722958E-01
   7159.00  2.9807718E-01
   7159.33  2.8993506E-01
   7159.67  2.8275664E-01
   7160.00  2.7660953E-01
   7160.33  2.7171736E-01
   7160.67  2.6802378E-01
   7161.00  2.6559132E-01
   7161.33  2.6463333E-01
   7161.67  2.6499866E-01
   7162.00  2.6666518E-01
   7162.33  2.6972012E-01
   7162.67  2.7389343E-01
   7163.00  2.7904331E-01
   7163.33  2.8507139E-01
   7163.67  2.9167563E-01
   7164.00  2.9868388E-01
   7164.33  3.0594633E-01
   7164.67  3.1328722E-01
   7165.00  3.2060662E-01
   7165.33  3.2780636E-01
   7165.67  3.3484324E-01
   7166.00  3.4168496E-01
   7166.33  3.4827821E-01
   7166.67  3.5462992E-01
   7167.00  3.6072079E-01
   7167.33  3.6648870E-01
   7167.67  3.7194087E-01
   7168.00  3.7705321E-01
   7168.33  3.8175741E-01
   7168.67  3.8608514E-01
   7169.00  3.9003411E-01
   7169.33  3.9356742E-01
   7169.67  3.9675220E-01
   7170.00  3.9961393E-01
   7170.33  4.0215228E-01
   7170.67  4.0443998E-01
   7171.00  4.0650355E-01
   7171.33  4.0833063E-01
   7171.67  4.0992456E-01
   7172.00  4.1122643E-01
