    FDMNES
    energy     <xanes>
   7097.00  4.8955389E-03
   7097.33  5.0080785E-03
   7097.67  5.1254960E-03
   7098.00  5.2481076E-03
   7098.33  5.3770193E-03
   7098.67  5.5119818E-03
   7099.00  5.6534226E-03
   7099.33  5.8027737E-03
   7099.67  5.9597766E-03
   7100.00  6.1250247E-03
   7100.33  6.3004212E-03
   7100.67  6.4857184E-03
   7101.00  6.6817669E-03
   7101.33  6.8911770E-03
   7101.67  7.1137576E-03
   7102.00  7.3507763E-03
   7102.33  7.6059516E-03
   7102.67  7.8792535E-03
   7103.00  8.1726611E-03
   7103.33  8.4917286E-03
   7103.67  8.8368276E-03
   7104.00  9.2112323E-03
   7104.33  9.6237505E-03
   7104.67  1.0075740E-02
   7105.00  1.0573032E-02
   7105.33  1.1130718E-02
   7105.67  1.1752686E-02
   7106.00  1.2450370E-02
   7106.33  1.3252448E-02
   7106.67  1.4169933E-02
   7107.00  1.5228386E-02
   7107.33  1.6490796E-02
   7107.67  1.7991527E-02
   7108.00  1.9799654E-02
   7108.33  2.2086755E-02
   7108.67  2.4985059E-02
   7109.00  2.8745113E-02
   7109.33  3.4027640E-02
   7109.67  4.1573875E-02
   7110.00  5.2836558E-02
   7110.33  7.1987580E-02
   7110.67  1.0343677E-01
   7111.00  1.4829482E-01
   7111.33  1.9472137E-01
   7111.67  2.2856284E-01
   7112.00  2.4434166E-01
   7112.33  2.4967740E-01
   7112.67  2.5745096E-01
   7113.00  2.6541453E-01
   7113.33  2.5789994E-01
   7113.67  2.3373914E-01
   7114.00  2.0242688E-01
   7114.33  1.7363555E-01
   7114.67  1.5094084E-01
   7115.00  1.3512223E-01
   7115.33  1.2685555E-01
   7115.67  1.2514688E-01
   7116.00  1.3028165E-01
   7116.33  1.4336629E-01
   7116.67  1.6093573E-01
   7117.00  1.7711458E-01
   7117.33  1.8752376E-01
   7117.67  1.9641487E-01
   7118.00  2.0538032E-01
   7118.33  2.1182678E-01
   7118.67  2.1538144E-01
   7119.00  2.1880051E-01
   7119.33  2.2466227E-01
   7119.67  2.3258201E-01
   7120.00  2.4376442E-01
   7120.33  2.6198170E-01
   7120.67  2.8776867E-01
   7121.00  3.2011630E-01
   7121.33  3.5742184E-01
   7121.67  3.9746614E-01
   7122.00  4.3898461E-01
   7122.33  4.7830786E-01
   7122.67  5.1065182E-01
   7123.00  5.3346788E-01
   7123.33  5.4508232E-01
   7123.67  5.4922254E-01
   7124.00  5.5051273E-01
   7124.33  5.5377597E-01
   7124.67  5.5990255E-01
   7125.00  5.6795518E-01
   7125.33  5.7574832E-01
   7125.67  5.8105518E-01
   7126.00  5.8322892E-01
   7126.33  5.8330443E-01
   7126.67  5.8346828E-01
   7127.00  5.8473491E-01
   7127.33  5.8730922E-01
   7127.67  5.8985347E-01
   7128.00  5.9071761E-01
   7128.33  5.8812893E-01
   7128.67  5.8240314E-01
   7129.00  5.7421754E-01
   7129.33  5.6425520E-01
   7129.67  5.5322832E-01
   7130.00  5.4150130E-01
   7130.33  5.3009560E-01
   7130.67  5.2034061E-01
   7131.00  5.1302797E-01
   7131.33  5.0856804E-01
   7131.67  5.0607640E-01
   7132.00  5.0486286E-01
   7132.33  5.0414138E-01
   7132.67  5.0300712E-01
   7133.00  5.0096181E-01
   7133.33  4.9814878E-01
   7133.67  4.9572278E-01
   7134.00  4.9468051E-01
   7134.33  4.9596590E-01
   7134.67  4.9951801E-01
   7135.00  5.0529200E-01
   7135.33  5.1328495E-01
   7135.67  5.2270277E-01
   7136.00  5.3276161E-01
   7136.33  5.4215102E-01
   7136.67  5.4974376E-01
   7137.00  5.5488470E-01
   7137.33  5.5715678E-01
   7137.67  5.5744948E-01
   7138.00  5.5658833E-01
   7138.33  5.5565865E-01
   7138.67  5.5568822E-01
   7139.00  5.5733400E-01
   7139.33  5.6119149E-01
   7139.67  5.6685704E-01
   7140.00  5.7383535E-01
   7140.33  5.8133749E-01
   7140.67  5.8839272E-01
   7141.00  5.9434872E-01
   7141.33  5.9853422E-01
   7141.67  6.0099994E-01
   7142.00  6.0182187E-01
   7142.33  6.0102375E-01
   7142.67  5.9902250E-01
   7143.00  5.9602187E-01
   7143.33  5.9217151E-01
   7143.67  5.8782678E-01
   7144.00  5.8322486E-01
   7144.33  5.7865304E-01
   7144.67  5.7438709E-01
   7145.00  5.7064776E-01
   7145.33  5.6773735E-01
   7145.67  5.6569737E-01
   7146.00  5.6456766E-01
   7146.33  5.6441096E-01
   7146.67  5.6497693E-01
   7147.00  5.6606152E-01
   7147.33  5.6736220E-01
   7147.67  5.6846879E-01
   7148.00  5.6904359E-01
   7148.33  5.6864584E-01
   7148.67  5.6716869E-01
   7149.00  5.6452174E-01
   7149.33  5.6054480E-01
   7149.67  5.5545258E-01
   7150.00  5.4934466E-01
   7150.33  5.4225125E-01
   7150.67  5.3442732E-01
   7151.00  5.2599374E-01
   7151.33  5.1702654E-01
   7151.67  5.0772203E-01
   7152.00  4.9820662E-01
   7152.33  4.8863502E-01
   7152.67  4.7918304E-01
   7153.00  4.6999036E-01
   7153.33  4.6123956E-01
   7153.67  4.5296382E-01
   7154.00  4.4518510E-01
   7154.33  4.3793238E-01
   7154.67  4.3106951E-01
   7155.00  4.2450387E-01
   7155.33  4.1813681E-01
   7155.67  4.1183117E-01
   7156.00  4.0550665E-01
   7156.33  3.9909432E-01
   7156.67  3.9258908E-01
   7157.00  3.8601456E-01
   7157.33  3.7943954E-01
   7157.67  3.7296648E-01
   7158.00  3.6669357E-01
   7158.33  3.6077307E-01
   7158.67  3.5526786E-01
   7159.00  3.5025205E-01
   7159.33  3.4586271E-01
   7159.67  3.4207628E-01
   7160.00  3.3891627E-01
   7160.33  3.3647366E-01
   7160.67  3.3466629E-01
   7161.00  3.3348364E-01
   7161.33  3.3298001E-01
   7161.67  3.3305087E-01
   7162.00  3.3366613E-01
   7162.33  3.3484831E-01
   7162.67  3.3648878E-01
   7163.00  3.3854514E-01
   7163.33  3.4101058E-01
   7163.67  3.4378483E-01
   7164.00  3.4681930E-01
   7164.33  3.5008173E-01
   7164.67  3.5348957E-01
   7165.00  3.5699526E-01
   7165.33  3.6055296E-01
   7165.67  3.6411137E-01
   7166.00  3.6763708E-01
   7166.33  3.7109062E-01
   7166.67  3.7445922E-01
   7167.00  3.7773514E-01
   7167.33  3.8091030E-01
   7167.67  3.8401081E-01
   7168.00  3.8705699E-01
   7168.33  3.9007590E-01
   7168.67  3.9310443E-01
   7169.00  3.9617194E-01
   7169.33  3.9931836E-01
   7169.67  4.0255853E-01
   7170.00  4.0590310E-01
   7170.33  4.0936110E-01
   7170.67  4.1289263E-01
   7171.00  4.1644744E-01
   7171.33  4.1990602E-01
   7171.67  4.2307975E-01
   7172.00  4.2571229E-01
