    FDMNES
    energy     <xanes>
   7097.00  5.4264988E-03
   7097.33  5.5669110E-03
   7097.67  5.7142650E-03
   7098.00  5.8690633E-03
   7098.33  6.0329676E-03
   7098.67  6.2056937E-03
   7099.00  6.3879364E-03
   7099.33  6.5819042E-03
   7099.67  6.7873182E-03
   7100.00  7.0051647E-03
   7100.33  7.2384588E-03
   7100.67  7.4869684E-03
   7101.00  7.7521384E-03
   7101.33  8.0382169E-03
   7101.67  8.3451087E-03
   7102.00  8.6750109E-03
   7102.33  9.0341369E-03
   7102.67  9.4227268E-03
   7103.00  9.8442718E-03
   7103.33  1.0308283E-02
   7103.67  1.0815782E-02
   7104.00  1.1372626E-02
   7104.33  1.1994211E-02
   7104.67  1.2683406E-02
   7105.00  1.3450717E-02
   7105.33  1.4322909E-02
   7105.67  1.5307430E-02
   7106.00  1.6424846E-02
   7106.33  1.7726217E-02
   7106.67  1.9231418E-02
   7107.00  2.0985711E-02
   7107.33  2.3099783E-02
   7107.67  2.5632331E-02
   7108.00  2.8701051E-02
   7108.33  3.2595355E-02
   7108.67  3.7525216E-02
   7109.00  4.3886627E-02
   7109.33  5.2701215E-02
   7109.67  6.5023696E-02
   7110.00  8.2888550E-02
   7110.33  1.1208427E-01
   7110.67  1.5967639E-01
   7111.00  2.3363321E-01
   7111.33  3.3237891E-01
   7111.67  4.2689388E-01
   7112.00  5.0476702E-01
   7112.33  5.8637010E-01
   7112.67  6.7680603E-01
   7113.00  7.1414838E-01
   7113.33  6.1503496E-01
   7113.67  4.6933774E-01
   7114.00  3.4227397E-01
   7114.33  2.5482168E-01
   7114.67  1.9683629E-01
   7115.00  1.6094221E-01
   7115.33  1.4263188E-01
   7115.67  1.3519938E-01
   7116.00  1.3258410E-01
   7116.33  1.2629432E-01
   7116.67  1.1926864E-01
   7117.00  1.1725843E-01
   7117.33  1.2045973E-01
   7117.67  1.2137537E-01
   7118.00  1.1830582E-01
   7118.33  1.1694723E-01
   7118.67  1.1936889E-01
   7119.00  1.2383902E-01
   7119.33  1.2855768E-01
   7119.67  1.3270652E-01
   7120.00  1.3520966E-01
   7120.33  1.3575180E-01
   7120.67  1.3617825E-01
   7121.00  1.3815506E-01
   7121.33  1.4315441E-01
   7121.67  1.5116540E-01
   7122.00  1.6228345E-01
   7122.33  1.7706003E-01
   7122.67  1.9539126E-01
   7123.00  2.1767096E-01
   7123.33  2.4495972E-01
   7123.67  2.7685322E-01
   7124.00  3.1253008E-01
   7124.33  3.4912652E-01
   7124.67  3.8154901E-01
   7125.00  4.0549424E-01
   7125.33  4.1762384E-01
   7125.67  4.2182495E-01
   7126.00  4.2269508E-01
   7126.33  4.2550382E-01
   7126.67  4.3264030E-01
   7127.00  4.4409840E-01
   7127.33  4.5841748E-01
   7127.67  4.7292914E-01
   7128.00  4.8630445E-01
   7128.33  4.9839354E-01
   7128.67  5.1075937E-01
   7129.00  5.2520234E-01
   7129.33  5.4425877E-01
   7129.67  5.6875404E-01
   7130.00  5.9897333E-01
   7130.33  6.3442280E-01
   7130.67  6.7159888E-01
   7131.00  7.0684729E-01
   7131.33  7.3537458E-01
   7131.67  7.5584089E-01
   7132.00  7.6837120E-01
   7132.33  7.7355849E-01
   7132.67  7.7375518E-01
   7133.00  7.6977308E-01
   7133.33  7.6125001E-01
   7133.67  7.4818439E-01
   7134.00  7.3004874E-01
   7134.33  7.0608801E-01
   7134.67  6.7775109E-01
   7135.00  6.4638249E-01
   7135.33  6.1377243E-01
   7135.67  5.8195719E-01
   7136.00  5.5232514E-01
   7136.33  5.2651964E-01
   7136.67  5.0487991E-01
   7137.00  4.8772394E-01
   7137.33  4.7564615E-01
   7137.67  4.6785264E-01
   7138.00  4.6405875E-01
   7138.33  4.6441566E-01
   7138.67  4.6822098E-01
   7139.00  4.7525401E-01
   7139.33  4.8538978E-01
   7139.67  4.9745294E-01
   7140.00  5.1054311E-01
   7140.33  5.2375446E-01
   7140.67  5.3656994E-01
   7141.00  5.4889290E-01
   7141.33  5.6075689E-01
   7141.67  5.7230111E-01
   7142.00  5.8351130E-01
   7142.33  5.9419746E-01
   7142.67  6.0421171E-01
   7143.00  6.1337194E-01
   7143.33  6.2139183E-01
   7143.67  6.2832292E-01
   7144.00  6.3416155E-01
   7144.33  6.3885831E-01
   7144.67  6.4272680E-01
   7145.00  6.4599938E-01
   7145.33  6.4894911E-01
   7145.67  6.5190620E-01
   7146.00  6.5507260E-01
   7146.33  6.5863899E-01
   7146.67  6.6260004E-01
   7147.00  6.6690820E-01
   7147.33  6.7145883E-01
   7147.67  6.7603719E-01
   7148.00  6.8045920E-01
   7148.33  6.8446251E-01
   7148.67  6.8789748E-01
   7149.00  6.9062313E-01
   7149.33  6.9241379E-01
   7149.67  6.9330335E-01
   7150.00  6.9326368E-01
   7150.33  6.9217467E-01
   7150.67  6.9018360E-01
   7151.00  6.8734235E-01
   7151.33  6.8364006E-01
   7151.67  6.7927691E-01
   7152.00  6.7435083E-01
   7152.33  6.6891587E-01
   7152.67  6.6312306E-01
   7153.00  6.5703415E-01
   7153.33  6.5066444E-01
   7153.67  6.4406939E-01
   7154.00  6.3726105E-01
   7154.33  6.3022973E-01
   7154.67  6.2302620E-01
   7155.00  6.1568699E-01
   7155.33  6.0826278E-01
   7155.67  6.0083726E-01
   7156.00  5.9347888E-01
   7156.33  5.8628186E-01
   7156.67  5.7929456E-01
   7157.00  5.7256059E-01
   7157.33  5.6613598E-01
   7157.67  5.5997731E-01
   7158.00  5.5406667E-01
   7158.33  5.4839403E-01
   7158.67  5.4288044E-01
   7159.00  5.3747251E-01
   7159.33  5.3210145E-01
   7159.67  5.2668392E-01
   7160.00  5.2115119E-01
   7160.33  5.1540999E-01
   7160.67  5.0943386E-01
   7161.00  5.0319870E-01
   7161.33  4.9666555E-01
   7161.67  4.8988540E-01
   7162.00  4.8289121E-01
   7162.33  4.7571834E-01
   7162.67  4.6845546E-01
   7163.00  4.6116831E-01
   7163.33  4.5394142E-01
   7163.67  4.4684284E-01
   7164.00  4.3993256E-01
   7164.33  4.3330448E-01
   7164.67  4.2698104E-01
   7165.00  4.2100162E-01
   7165.33  4.1545051E-01
   7165.67  4.1030616E-01
   7166.00  4.0558322E-01
   7166.33  4.0134328E-01
   7166.67  3.9752959E-01
   7167.00  3.9413165E-01
   7167.33  3.9118070E-01
   7167.67  3.8860383E-01
   7168.00  3.8637802E-01
   7168.33  3.8451356E-01
   7168.67  3.8293955E-01
   7169.00  3.8163058E-01
   7169.33  3.8058878E-01
   7169.67  3.7975983E-01
   7170.00  3.7912472E-01
   7170.33  3.7868514E-01
   7170.67  3.7840036E-01
   7171.00  3.7825237E-01
   7171.33  3.7822655E-01
   7171.67  3.7826384E-01
   7172.00  3.7830602E-01
