    FDMNES
    energy     <xanes>
   7097.00  3.7486250E-03
   7097.33  3.8114055E-03
   7097.67  3.8761722E-03
   7098.00  3.9430280E-03
   7098.33  4.0123810E-03
   7098.67  4.0840975E-03
   7099.00  4.1583128E-03
   7099.33  4.2355342E-03
   7099.67  4.3156206E-03
   7100.00  4.3987553E-03
   7100.33  4.4855867E-03
   7100.67  4.5759723E-03
   7101.00  4.6701697E-03
   7101.33  4.7690374E-03
   7101.67  4.8724450E-03
   7102.00  4.9807720E-03
   7102.33  5.0952054E-03
   7102.67  5.2156600E-03
   7103.00  5.3427265E-03
   7103.33  5.4781401E-03
   7103.67  5.6219386E-03
   7104.00  5.7751061E-03
   7104.33  5.9403667E-03
   7104.67  6.1180759E-03
   7105.00  6.3100176E-03
   7105.33  6.5208801E-03
   7105.67  6.7518659E-03
   7106.00  7.0065788E-03
   7106.33  7.2941168E-03
   7106.67  7.6181555E-03
   7107.00  7.9870952E-03
   7107.33  8.4216996E-03
   7107.67  8.9340697E-03
   7108.00  9.5481143E-03
   7108.33  1.0323509E-02
   7108.67  1.1309068E-02
   7109.00  1.2596607E-02
   7109.33  1.4430227E-02
   7109.67  1.7094908E-02
   7110.00  2.1150111E-02
   7110.33  2.8224696E-02
   7110.67  4.0191281E-02
   7111.00  5.8014448E-02
   7111.33  7.7085522E-02
   7111.67  8.6723383E-02
   7112.00  7.9778996E-02
   7112.33  6.4423282E-02
   7112.67  5.1637509E-02
   7113.00  4.2860581E-02
   7113.33  3.7657237E-02
   7113.67  3.4760048E-02
   7114.00  3.3346671E-02
   7114.33  3.2092221E-02
   7114.67  3.0988729E-02
   7115.00  2.9942488E-02
   7115.33  2.7767141E-02
   7115.67  2.5836747E-02
   7116.00  2.4839249E-02
   7116.33  2.4698373E-02
   7116.67  2.5106928E-02
   7117.00  2.5992631E-02
   7117.33  2.7421907E-02
   7117.67  2.9401859E-02
   7118.00  3.2007069E-02
   7118.33  3.5360875E-02
   7118.67  3.9278880E-02
   7119.00  4.3516444E-02
   7119.33  4.7667291E-02
   7119.67  5.1410013E-02
   7120.00  5.4569772E-02
   7120.33  5.6765772E-02
   7120.67  5.7933669E-02
   7121.00  5.8609107E-02
   7121.33  5.9859014E-02
   7121.67  6.2269727E-02
   7122.00  6.6230247E-02
   7122.33  7.2555601E-02
   7122.67  8.1744409E-02
   7123.00  9.4507500E-02
   7123.33  1.1151164E-01
   7123.67  1.3047550E-01
   7124.00  1.4794547E-01
   7124.33  1.5988966E-01
   7124.67  1.6742000E-01
   7125.00  1.7327165E-01
   7125.33  1.8095078E-01
   7125.67  1.9302644E-01
   7126.00  2.1114456E-01
   7126.33  2.3626744E-01
   7126.67  2.6640163E-01
   7127.00  3.0077782E-01
   7127.33  3.4020418E-01
   7127.67  3.8588733E-01
   7128.00  4.3995324E-01
   7128.33  5.0391237E-01
   7128.67  5.7270621E-01
   7129.00  6.4018176E-01
   7129.33  6.9695301E-01
   7129.67  7.3736413E-01
   7130.00  7.6028395E-01
   7130.33  7.7042106E-01
   7130.67  7.7704040E-01
   7131.00  7.8345117E-01
   7131.33  7.9023177E-01
   7131.67  7.9719096E-01
   7132.00  8.0484827E-01
   7132.33  8.1481720E-01
   7132.67  8.2851555E-01
   7133.00  8.4735740E-01
   7133.33  8.7349522E-01
   7133.67  9.0625161E-01
   7134.00  9.4339920E-01
   7134.33  9.7810163E-01
   7134.67  1.0020993E+00
   7135.00  1.0109617E+00
   7135.33  1.0042401E+00
   7135.67  9.8926446E-01
   7136.00  9.7098168E-01
   7136.33  9.5355323E-01
   7136.67  9.3916426E-01
   7137.00  9.2879798E-01
   7137.33  9.2343381E-01
   7137.67  9.2228450E-01
   7138.00  9.2452963E-01
   7138.33  9.2835966E-01
   7138.67  9.3019885E-01
   7139.00  9.2605858E-01
   7139.33  9.0968250E-01
   7139.67  8.7938084E-01
   7140.00  8.3563126E-01
   7140.33  7.8153597E-01
   7140.67  7.2430977E-01
   7141.00  6.6855992E-01
   7141.33  6.1834910E-01
   7141.67  5.7456423E-01
   7142.00  5.3746344E-01
   7142.33  5.0752353E-01
   7142.67  4.8333076E-01
   7143.00  4.6426847E-01
   7143.33  4.5014923E-01
   7143.67  4.3973121E-01
   7144.00  4.3249141E-01
   7144.33  4.2825093E-01
   7144.67  4.2627306E-01
   7145.00  4.2629583E-01
   7145.33  4.2832410E-01
   7145.67  4.3199296E-01
   7146.00  4.3721452E-01
   7146.33  4.4407221E-01
   7146.67  4.5229865E-01
   7147.00  4.6181733E-01
   7147.33  4.7264825E-01
   7147.67  4.8446961E-01
   7148.00  4.9708521E-01
   7148.33  5.1024216E-01
   7148.67  5.2350260E-01
   7149.00  5.3656352E-01
   7149.33  5.4901536E-01
   7149.67  5.6058159E-01
   7150.00  5.7097774E-01
   7150.33  5.7973136E-01
   7150.67  5.8680958E-01
   7151.00  5.9211439E-01
   7151.33  5.9545177E-01
   7151.67  5.9719620E-01
   7152.00  5.9754409E-01
   7152.33  5.9661380E-01
   7152.67  5.9480646E-01
   7153.00  5.9231623E-01
   7153.33  5.8923415E-01
   7153.67  5.8570070E-01
   7154.00  5.8173401E-01
   7154.33  5.7723530E-01
   7154.67  5.7216010E-01
   7155.00  5.6638301E-01
   7155.33  5.5963080E-01
   7155.67  5.5185592E-01
   7156.00  5.4295514E-01
   7156.33  5.3271798E-01
   7156.67  5.2130739E-01
   7157.00  5.0879668E-01
   7157.33  4.9520774E-01
   7157.67  4.8084143E-01
   7158.00  4.6586665E-01
   7158.33  4.5042640E-01
   7158.67  4.3475718E-01
   7159.00  4.1901104E-01
   7159.33  4.0337476E-01
   7159.67  3.8801136E-01
   7160.00  3.7307420E-01
   7160.33  3.5882523E-01
   7160.67  3.4538130E-01
   7161.00  3.3290664E-01
   7161.33  3.2172595E-01
   7161.67  3.1186507E-01
   7162.00  3.0346106E-01
   7162.33  2.9686190E-01
   7162.67  2.9199883E-01
   7163.00  2.8897010E-01
   7163.33  2.8810909E-01
   7163.67  2.8923811E-01
   7164.00  2.9238326E-01
   7164.33  2.9778872E-01
   7164.67  3.0515224E-01
   7165.00  3.1439336E-01
   7165.33  3.2559071E-01
   7165.67  3.3833036E-01
   7166.00  3.5240128E-01
   7166.33  3.6765570E-01
   7166.67  3.8364147E-01
   7167.00  4.0004787E-01
   7167.33  4.1648456E-01
   7167.67  4.3252741E-01
   7168.00  4.4779831E-01
   7168.33  4.6171093E-01
   7168.67  4.7401864E-01
   7169.00  4.8443637E-01
   7169.33  4.9246045E-01
   7169.67  4.9824283E-01
   7170.00  5.0179349E-01
   7170.33  5.0298845E-01
   7170.67  5.0235591E-01
   7171.00  5.0022138E-01
   7171.33  4.9696146E-01
   7171.67  4.9337860E-01
   7172.00  4.9020104E-01
