    FDMNES
    energy     <xanes>
   7097.00  4.8683307E-03
   7097.33  4.9856402E-03
   7097.67  5.1084698E-03
   7098.00  5.2372086E-03
   7098.33  5.3731611E-03
   7098.67  5.5160882E-03
   7099.00  5.6665267E-03
   7099.33  5.8262022E-03
   7099.67  5.9948785E-03
   7100.00  6.1733168E-03
   7100.33  6.3638647E-03
   7100.67  6.5663219E-03
   7101.00  6.7818042E-03
   7101.33  7.0136127E-03
   7101.67  7.2616566E-03
   7102.00  7.5276374E-03
   7102.33  7.8163869E-03
   7102.67  8.1280873E-03
   7103.00  8.4654616E-03
   7103.33  8.8359386E-03
   7103.67  9.2403527E-03
   7104.00  9.6833290E-03
   7104.33  1.0177021E-02
   7104.67  1.0723846E-02
   7105.00  1.1332280E-02
   7105.33  1.2023870E-02
   7105.67  1.2805119E-02
   7106.00  1.3693197E-02
   7106.33  1.4730657E-02
   7106.67  1.5935734E-02
   7107.00  1.7348338E-02
   7107.33  1.9066303E-02
   7107.67  2.1147651E-02
   7108.00  2.3705692E-02
   7108.33  2.7022811E-02
   7108.67  3.1332181E-02
   7109.00  3.7072679E-02
   7109.33  4.5417353E-02
   7109.67  5.7760820E-02
   7110.00  7.6856772E-02
   7110.33  1.1069718E-01
   7110.67  1.6747693E-01
   7111.00  2.4605771E-01
   7111.33  3.0773446E-01
   7111.67  3.2208284E-01
   7112.00  3.0171432E-01
   7112.33  2.7494603E-01
   7112.67  2.5161264E-01
   7113.00  2.3073964E-01
   7113.33  2.2096299E-01
   7113.67  2.3033654E-01
   7114.00  2.6425737E-01
   7114.33  3.2500807E-01
   7114.67  3.8946627E-01
   7115.00  4.2330837E-01
   7115.33  3.9087289E-01
   7115.67  3.1587899E-01
   7116.00  2.3686541E-01
   7116.33  1.8061613E-01
   7116.67  1.4401975E-01
   7117.00  1.2169376E-01
   7117.33  1.1012837E-01
   7117.67  1.0561819E-01
   7118.00  1.0665644E-01
   7118.33  1.1101373E-01
   7118.67  1.1516709E-01
   7119.00  1.1794234E-01
   7119.33  1.2001517E-01
   7119.67  1.2266679E-01
   7120.00  1.2693032E-01
   7120.33  1.3418004E-01
   7120.67  1.4467738E-01
   7121.00  1.5846314E-01
   7121.33  1.7505865E-01
   7121.67  1.9227081E-01
   7122.00  2.0748505E-01
   7122.33  2.1661712E-01
   7122.67  2.1984129E-01
   7123.00  2.1963520E-01
   7123.33  2.1895889E-01
   7123.67  2.1939814E-01
   7124.00  2.2128430E-01
   7124.33  2.2432359E-01
   7124.67  2.2761716E-01
   7125.00  2.3091106E-01
   7125.33  2.3463821E-01
   7125.67  2.3932443E-01
   7126.00  2.4528863E-01
   7126.33  2.5272321E-01
   7126.67  2.6119027E-01
   7127.00  2.7073661E-01
   7127.33  2.8269764E-01
   7127.67  2.9823720E-01
   7128.00  3.1795221E-01
   7128.33  3.4220784E-01
   7128.67  3.6997852E-01
   7129.00  4.0090697E-01
   7129.33  4.3493081E-01
   7129.67  4.7027578E-01
   7130.00  5.0414325E-01
   7130.33  5.3179195E-01
   7130.67  5.5193956E-01
   7131.00  5.6581229E-01
   7131.33  5.7620933E-01
   7131.67  5.8585913E-01
   7132.00  5.9511989E-01
   7132.33  6.0353144E-01
   7132.67  6.1186189E-01
   7133.00  6.2176196E-01
   7133.33  6.3550507E-01
   7133.67  6.5321584E-01
   7134.00  6.7419890E-01
   7134.33  6.9739754E-01
   7134.67  7.2194915E-01
   7135.00  7.4809456E-01
   7135.33  7.7640481E-01
   7135.67  8.0633998E-01
   7136.00  8.3711534E-01
   7136.33  8.6723413E-01
   7136.67  8.9455303E-01
   7137.00  9.1609184E-01
   7137.33  9.2539009E-01
   7137.67  9.1816988E-01
   7138.00  8.9258965E-01
   7138.33  8.5336181E-01
   7138.67  8.1378502E-01
   7139.00  7.8060388E-01
   7139.33  7.5612628E-01
   7139.67  7.3780113E-01
   7140.00  7.2419978E-01
   7140.33  7.1433845E-01
   7140.67  7.0646473E-01
   7141.00  6.9949997E-01
   7141.33  6.9243930E-01
   7141.67  6.8466249E-01
   7142.00  6.7586469E-01
   7142.33  6.6571621E-01
   7142.67  6.5432478E-01
   7143.00  6.4174358E-01
   7143.33  6.2797915E-01
   7143.67  6.1336849E-01
   7144.00  5.9815539E-01
   7144.33  5.8269260E-01
   7144.67  5.6744626E-01
   7145.00  5.5277903E-01
   7145.33  5.3916474E-01
   7145.67  5.2673350E-01
   7146.00  5.1560518E-01
   7146.33  5.0601248E-01
   7146.67  4.9779631E-01
   7147.00  4.9094566E-01
   7147.33  4.8560363E-01
   7147.67  4.8156144E-01
   7148.00  4.7876527E-01
   7148.33  4.7728497E-01
   7148.67  4.7687964E-01
   7149.00  4.7745205E-01
   7149.33  4.7900408E-01
   7149.67  4.8134924E-01
   7150.00  4.8444174E-01
   7150.33  4.8832412E-01
   7150.67  4.9284964E-01
   7151.00  4.9793751E-01
   7151.33  5.0349295E-01
   7151.67  5.0925772E-01
   7152.00  5.1501857E-01
   7152.33  5.2046062E-01
   7152.67  5.2532659E-01
   7153.00  5.2938403E-01
   7153.33  5.3228115E-01
   7153.67  5.3397441E-01
   7154.00  5.3436693E-01
   7154.33  5.3325825E-01
   7154.67  5.3087527E-01
   7155.00  5.2733989E-01
   7155.33  5.2273824E-01
   7155.67  5.1743014E-01
   7156.00  5.1162482E-01
   7156.33  5.0550470E-01
   7156.67  4.9927449E-01
   7157.00  4.9303583E-01
   7157.33  4.8686718E-01
   7157.67  4.8079141E-01
   7158.00  4.7481359E-01
   7158.33  4.6893742E-01
   7158.67  4.6314012E-01
   7159.00  4.5741376E-01
   7159.33  4.5176270E-01
   7159.67  4.4617813E-01
   7160.00  4.4066034E-01
   7160.33  4.3522383E-01
   7160.67  4.2987932E-01
   7161.00  4.2465665E-01
   7161.33  4.1962163E-01
   7161.67  4.1480316E-01
   7162.00  4.1024380E-01
   7162.33  4.0602783E-01
   7162.67  4.0215557E-01
   7163.00  3.9865064E-01
   7163.33  3.9557917E-01
   7163.67  3.9290342E-01
   7164.00  3.9062457E-01
   7164.33  3.8878266E-01
   7164.67  3.8731177E-01
   7165.00  3.8619094E-01
   7165.33  3.8542896E-01
   7165.67  3.8494983E-01
   7166.00  3.8472128E-01
   7166.33  3.8473413E-01
   7166.67  3.8493038E-01
   7167.00  3.8528942E-01
   7167.33  3.8581671E-01
   7167.67  3.8649461E-01
   7168.00  3.8733608E-01
   7168.33  3.8839258E-01
   7168.67  3.8967679E-01
   7169.00  3.9122290E-01
   7169.33  3.9310552E-01
   7169.67  3.9531430E-01
   7170.00  3.9785814E-01
   7170.33  4.0076397E-01
   7170.67  4.0394438E-01
   7171.00  4.0732297E-01
   7171.33  4.1075482E-01
   7171.67  4.1397718E-01
   7172.00  4.1667107E-01
