    FDMNES
    energy     <xanes>
   7097.00  4.8732969E-03
   7097.33  4.9915493E-03
   7097.67  5.1153915E-03
   7098.00  5.2452188E-03
   7098.33  5.3823538E-03
   7098.67  5.5265560E-03
   7099.00  5.6783707E-03
   7099.33  5.8395490E-03
   7099.67  6.0098534E-03
   7100.00  6.1900577E-03
   7100.33  6.3825452E-03
   7100.67  6.5871156E-03
   7101.00  6.8049034E-03
   7101.33  7.0392618E-03
   7101.67  7.2901020E-03
   7102.00  7.5591545E-03
   7102.33  7.8513290E-03
   7102.67  8.1668146E-03
   7103.00  8.5083800E-03
   7103.33  8.8835751E-03
   7103.67  9.2932502E-03
   7104.00  9.7421056E-03
   7104.33  1.0242488E-02
   7104.67  1.0796849E-02
   7105.00  1.1413790E-02
   7105.33  1.2115173E-02
   7105.67  1.2907566E-02
   7106.00  1.3808341E-02
   7106.33  1.4860552E-02
   7106.67  1.6082505E-02
   7107.00  1.7514365E-02
   7107.33  1.9254531E-02
   7107.67  2.1360710E-02
   7108.00  2.3945778E-02
   7108.33  2.7290412E-02
   7108.67  3.1622830E-02
   7109.00  3.7372011E-02
   7109.33  4.5677976E-02
   7109.67  5.7870113E-02
   7110.00  7.6561827E-02
   7110.33  1.0932662E-01
   7110.67  1.6434390E-01
   7111.00  2.4356114E-01
   7111.33  3.2087206E-01
   7111.67  3.5650636E-01
   7112.00  3.3909261E-01
   7112.33  2.9338925E-01
   7112.67  2.4980342E-01
   7113.00  2.2727410E-01
   7113.33  2.2917567E-01
   7113.67  2.4346945E-01
   7114.00  2.6712740E-01
   7114.33  3.0064331E-01
   7114.67  3.3144987E-01
   7115.00  3.4900858E-01
   7115.33  3.5313278E-01
   7115.67  3.3432431E-01
   7116.00  2.8005400E-01
   7116.33  2.1452393E-01
   7116.67  1.6473131E-01
   7117.00  1.3276619E-01
   7117.33  1.1533736E-01
   7117.67  1.0675864E-01
   7118.00  1.0504585E-01
   7118.33  1.0946878E-01
   7118.67  1.1802242E-01
   7119.00  1.2891285E-01
   7119.33  1.3955316E-01
   7119.67  1.4853330E-01
   7120.00  1.5647381E-01
   7120.33  1.6522417E-01
   7120.67  1.7520111E-01
   7121.00  1.8540799E-01
   7121.33  1.9398811E-01
   7121.67  1.9981244E-01
   7122.00  2.0241381E-01
   7122.33  2.0190234E-01
   7122.67  1.9979668E-01
   7123.00  1.9734915E-01
   7123.33  1.9588564E-01
   7123.67  1.9565334E-01
   7124.00  1.9646183E-01
   7124.33  1.9836462E-01
   7124.67  2.0110944E-01
   7125.00  2.0427630E-01
   7125.33  2.0761279E-01
   7125.67  2.1147192E-01
   7126.00  2.1645065E-01
   7126.33  2.2324515E-01
   7126.67  2.3157830E-01
   7127.00  2.4101959E-01
   7127.33  2.5181042E-01
   7127.67  2.6512937E-01
   7128.00  2.8256587E-01
   7128.33  3.0668192E-01
   7128.67  3.3839285E-01
   7129.00  3.7888128E-01
   7129.33  4.2976501E-01
   7129.67  4.8741421E-01
   7130.00  5.4603111E-01
   7130.33  5.9585472E-01
   7130.67  6.3220570E-01
   7131.00  6.5482338E-01
   7131.33  6.6574600E-01
   7131.67  6.7064703E-01
   7132.00  6.7249370E-01
   7132.33  6.7309644E-01
   7132.67  6.7332812E-01
   7133.00  6.7344597E-01
   7133.33  6.7383789E-01
   7133.67  6.7485016E-01
   7134.00  6.7658749E-01
   7134.33  6.7890527E-01
   7134.67  6.8173274E-01
   7135.00  6.8590469E-01
   7135.33  6.9368477E-01
   7135.67  7.0640459E-01
   7136.00  7.2466125E-01
   7136.33  7.4844864E-01
   7136.67  7.7529127E-01
   7137.00  8.0271255E-01
   7137.33  8.2649585E-01
   7137.67  8.4287058E-01
   7138.00  8.4917152E-01
   7138.33  8.4420524E-01
   7138.67  8.3338371E-01
   7139.00  8.2137629E-01
   7139.33  8.1152320E-01
   7139.67  8.0374777E-01
   7140.00  7.9718168E-01
   7140.33  7.9082679E-01
   7140.67  7.8384662E-01
   7141.00  7.7562427E-01
   7141.33  7.6526693E-01
   7141.67  7.5255797E-01
   7142.00  7.3742070E-01
   7142.33  7.1996727E-01
   7142.67  7.0121627E-01
   7143.00  6.8192854E-01
   7143.33  6.6287425E-01
   7143.67  6.4444884E-01
   7144.00  6.2672402E-01
   7144.33  6.0962188E-01
   7144.67  5.9284562E-01
   7145.00  5.7622581E-01
   7145.33  5.5967173E-01
   7145.67  5.4323481E-01
   7146.00  5.2709530E-01
   7146.33  5.1166898E-01
   7146.67  4.9729687E-01
   7147.00  4.8434595E-01
   7147.33  4.7340674E-01
   7147.67  4.6450667E-01
   7148.00  4.5774377E-01
   7148.33  4.5335938E-01
   7148.67  4.5093180E-01
   7149.00  4.5023229E-01
   7149.33  4.5111162E-01
   7149.67  4.5307268E-01
   7150.00  4.5587791E-01
   7150.33  4.5940249E-01
   7150.67  4.6344327E-01
   7151.00  4.6794298E-01
   7151.33  4.7291011E-01
   7151.67  4.7824757E-01
   7152.00  4.8391306E-01
   7152.33  4.8990032E-01
   7152.67  4.9612145E-01
   7153.00  5.0250234E-01
   7153.33  5.0891563E-01
   7153.67  5.1518014E-01
   7154.00  5.2111359E-01
   7154.33  5.2641348E-01
   7154.67  5.3091517E-01
   7155.00  5.3442778E-01
   7155.33  5.3660605E-01
   7155.67  5.3743964E-01
   7156.00  5.3683249E-01
   7156.33  5.3454580E-01
   7156.67  5.3079140E-01
   7157.00  5.2565862E-01
   7157.33  5.1917692E-01
   7157.67  5.1173996E-01
   7158.00  5.0358806E-01
   7158.33  4.9495785E-01
   7158.67  4.8617924E-01
   7159.00  4.7746349E-01
   7159.33  4.6904683E-01
   7159.67  4.6105067E-01
   7160.00  4.5356859E-01
   7160.33  4.4673384E-01
   7160.67  4.4048889E-01
   7161.00  4.3481430E-01
   7161.33  4.2972126E-01
   7161.67  4.2506495E-01
   7162.00  4.2076348E-01
   7162.33  4.1675408E-01
   7162.67  4.1292221E-01
   7163.00  4.0921511E-01
   7163.33  4.0560710E-01
   7163.67  4.0208120E-01
   7164.00  3.9865693E-01
   7164.33  3.9539458E-01
   7164.67  3.9232967E-01
   7165.00  3.8950960E-01
   7165.33  3.8701924E-01
   7165.67  3.8485688E-01
   7166.00  3.8304110E-01
   7166.33  3.8162710E-01
   7166.67  3.8057231E-01
   7167.00  3.7987453E-01
   7167.33  3.7957311E-01
   7167.67  3.7961889E-01
   7168.00  3.8000690E-01
   7168.33  3.8077031E-01
   7168.67  3.8185320E-01
   7169.00  3.8323751E-01
   7169.33  3.8493014E-01
   7169.67  3.8686431E-01
   7170.00  3.8900922E-01
   7170.33  3.9134753E-01
   7170.67  3.9381186E-01
   7171.00  3.9634928E-01
   7171.33  3.9886273E-01
   7171.67  4.0119142E-01
   7172.00  4.0312296E-01
