    FDMNES
    energy     <xanes>
   7097.00  4.8734770E-03
   7097.33  4.9917712E-03
   7097.67  5.1156592E-03
   7098.00  5.2455364E-03
   7098.33  5.3827268E-03
   7098.67  5.5269898E-03
   7099.00  5.6788713E-03
   7099.33  5.8401240E-03
   7099.67  6.0105108E-03
   7100.00  6.1908060E-03
   7100.33  6.3833958E-03
   7100.67  6.5880801E-03
   7101.00  6.8059947E-03
   7101.33  7.0404971E-03
   7101.67  7.2914991E-03
   7102.00  7.5607337E-03
   7102.33  7.8531174E-03
   7102.67  8.1688407E-03
   7103.00  8.5106771E-03
   7103.33  8.8861883E-03
   7103.67  9.2962280E-03
   7104.00  9.7455057E-03
   7104.33  1.0246390E-02
   7104.67  1.0801342E-02
   7105.00  1.1418982E-02
   7105.33  1.2121218E-02
   7105.67  1.2914640E-02
   7106.00  1.3816667E-02
   7106.33  1.4870462E-02
   7106.67  1.6094399E-02
   7107.00  1.7528770E-02
   7107.33  1.9272283E-02
   7107.67  2.1382886E-02
   7108.00  2.3973897E-02
   7108.33  2.7327113E-02
   7108.67  3.1671899E-02
   7109.00  3.7439377E-02
   7109.33  4.5775565E-02
   7109.67  5.8018185E-02
   7110.00  7.6797477E-02
   7110.33  1.0973661E-01
   7110.67  1.6505546E-01
   7111.00  2.4461242E-01
   7111.33  3.2172527E-01
   7111.67  3.5657911E-01
   7112.00  3.3862447E-01
   7112.33  2.9289119E-01
   7112.67  2.4947920E-01
   7113.00  2.2710540E-01
   7113.33  2.2904326E-01
   7113.67  2.4323037E-01
   7114.00  2.6675194E-01
   7114.33  3.0030041E-01
   7114.67  3.3141143E-01
   7115.00  3.4935799E-01
   7115.33  3.5353569E-01
   7115.67  3.3450101E-01
   7116.00  2.8003398E-01
   7116.33  2.1451121E-01
   7116.67  1.6476230E-01
   7117.00  1.3281249E-01
   7117.33  1.1535875E-01
   7117.67  1.0672605E-01
   7118.00  1.0493777E-01
   7118.33  1.0927251E-01
   7118.67  1.1773572E-01
   7119.00  1.2855402E-01
   7119.33  1.3918874E-01
   7119.67  1.4823460E-01
   7120.00  1.5628049E-01
   7120.33  1.6513807E-01
   7120.67  1.7522912E-01
   7121.00  1.8556120E-01
   7121.33  1.9424439E-01
   7121.67  2.0012741E-01
   7122.00  2.0275538E-01
   7122.33  2.0226612E-01
   7122.67  2.0018971E-01
   7123.00  1.9777803E-01
   7123.33  1.9636427E-01
   7123.67  1.9620055E-01
   7124.00  1.9708778E-01
   7124.33  1.9903946E-01
   7124.67  2.0176145E-01
   7125.00  2.0481988E-01
   7125.33  2.0798237E-01
   7125.67  2.1164959E-01
   7126.00  2.1643901E-01
   7126.33  2.2305097E-01
   7126.67  2.3119785E-01
   7127.00  2.4044820E-01
   7127.33  2.5106110E-01
   7127.67  2.6421687E-01
   7128.00  2.8147933E-01
   7128.33  3.0535028E-01
   7128.67  3.3670182E-01
   7129.00  3.7671640E-01
   7129.33  4.2715856E-01
   7129.67  4.8470703E-01
   7130.00  5.4377022E-01
   7130.33  5.9449107E-01
   7130.67  6.3174653E-01
   7131.00  6.5507683E-01
   7131.33  6.6647410E-01
   7131.67  6.7166414E-01
   7132.00  6.7360408E-01
   7132.33  6.7407416E-01
   7132.67  6.7403628E-01
   7133.00  6.7385170E-01
   7133.33  6.7402333E-01
   7133.67  6.7491589E-01
   7134.00  6.7660248E-01
   7134.33  6.7889323E-01
   7134.67  6.8169137E-01
   7135.00  6.8583516E-01
   7135.33  6.9360499E-01
   7135.67  7.0633810E-01
   7136.00  7.2462221E-01
   7136.33  7.4841847E-01
   7136.67  7.7522674E-01
   7137.00  8.0258067E-01
   7137.33  8.2632456E-01
   7137.67  8.4274776E-01
   7138.00  8.4920293E-01
   7138.33  8.4447909E-01
   7138.67  8.3392191E-01
   7139.00  8.2215133E-01
   7139.33  8.1246889E-01
   7139.67  8.0480044E-01
   7140.00  7.9827899E-01
   7140.33  7.9190541E-01
   7140.67  7.8487173E-01
   7141.00  7.7659051E-01
   7141.33  7.6620149E-01
   7141.67  7.5349162E-01
   7142.00  7.3836894E-01
   7142.33  7.2091498E-01
   7142.67  7.0212735E-01
   7143.00  6.8276093E-01
   7143.33  6.6358864E-01
   7143.67  6.4502482E-01
   7144.00  6.2715267E-01
   7144.33  6.0989888E-01
   7144.67  5.9296492E-01
   7145.00  5.7617770E-01
   7145.33  5.5944303E-01
   7145.67  5.4281742E-01
   7146.00  5.2648891E-01
   7146.33  5.1088612E-01
   7146.67  4.9635832E-01
   7147.00  4.8327678E-01
   7147.33  4.7223571E-01
   7147.67  4.6325750E-01
   7148.00  4.5643901E-01
   7148.33  4.5202429E-01
   7148.67  4.4958914E-01
   7149.00  4.4890439E-01
   7149.33  4.4982163E-01
   7149.67  4.5183840E-01
   7150.00  4.5471473E-01
   7150.33  4.5832544E-01
   7150.67  4.6246498E-01
   7151.00  4.6707653E-01
   7151.33  4.7217148E-01
   7151.67  4.7765060E-01
   7152.00  4.8346917E-01
   7152.33  4.8962033E-01
   7152.67  4.9601475E-01
   7153.00  5.0257819E-01
   7153.33  5.0918332E-01
   7153.67  5.1564497E-01
   7154.00  5.2177577E-01
   7154.33  5.2726299E-01
   7154.67  5.3193135E-01
   7155.00  5.3557936E-01
   7155.33  5.3784575E-01
   7155.67  5.3871869E-01
   7156.00  5.3810063E-01
   7156.33  5.3575075E-01
   7156.67  5.3189563E-01
   7157.00  5.2663515E-01
   7157.33  5.2001049E-01
   7157.67  5.1242935E-01
   7158.00  5.0414046E-01
   7158.33  4.9538869E-01
   7158.67  4.8650534E-01
   7159.00  4.7770212E-01
   7159.33  4.6921594E-01
   7159.67  4.6116382E-01
   7160.00  4.5363700E-01
   7160.33  4.4676711E-01
   7160.67  4.4049327E-01
   7161.00  4.3479445E-01
   7161.33  4.2968049E-01
   7161.67  4.2500560E-01
   7162.00  4.2068848E-01
   7162.33  4.1666707E-01
   7162.67  4.1282661E-01
   7163.00  4.0911468E-01
   7163.33  4.0550663E-01
   7163.67  4.0198547E-01
   7164.00  3.9857102E-01
   7164.33  3.9532437E-01
   7164.67  3.9228003E-01
   7165.00  3.8948475E-01
   7165.33  3.8702257E-01
   7165.67  3.8488989E-01
   7166.00  3.8310373E-01
   7166.33  3.8171702E-01
   7166.67  3.8068539E-01
   7167.00  3.8000492E-01
   7167.33  3.7971217E-01
   7167.67  3.7975756E-01
   7168.00  3.8013547E-01
   7168.33  3.8087791E-01
   7168.67  3.8193119E-01
   7169.00  3.8327872E-01
   7169.33  3.8492901E-01
   7169.67  3.8681830E-01
   7170.00  3.8891774E-01
   7170.33  3.9121210E-01
   7170.67  3.9363550E-01
   7171.00  3.9613627E-01
   7171.33  3.9861894E-01
   7171.67  4.0092264E-01
   7172.00  4.0283527E-01
