    FDMNES
    energy     <xanes>
   7097.00  5.1062204E-03
   7097.33  5.2235489E-03
   7097.67  5.3460890E-03
   7098.00  5.4741870E-03
   7098.33  5.6090383E-03
   7098.67  5.7503873E-03
   7099.00  5.8987032E-03
   7099.33  6.0555408E-03
   7099.67  6.2206349E-03
   7100.00  6.3946377E-03
   7100.33  6.5796221E-03
   7100.67  6.7753341E-03
   7101.00  6.9827077E-03
   7101.33  7.2045890E-03
   7101.67  7.4407821E-03
   7102.00  7.6926723E-03
   7102.33  7.9643077E-03
   7102.67  8.2556541E-03
   7103.00  8.5688547E-03
   7103.33  8.9099207E-03
   7103.67  9.2792129E-03
   7104.00  9.6802244E-03
   7104.33  1.0122372E-02
   7104.67  1.0606963E-02
   7105.00  1.1140076E-02
   7105.33  1.1737506E-02
   7105.67  1.2402914E-02
   7106.00  1.3147815E-02
   7106.33  1.4001218E-02
   7106.67  1.4973129E-02
   7107.00  1.6088048E-02
   7107.33  1.7406448E-02
   7107.67  1.8957967E-02
   7108.00  2.0804322E-02
   7108.33  2.3097932E-02
   7108.67  2.5944612E-02
   7109.00  2.9547344E-02
   7109.33  3.4431253E-02
   7109.67  4.1132350E-02
   7110.00  5.0693027E-02
   7110.33  6.6078053E-02
   7110.67  9.0713680E-02
   7111.00  1.2747910E-01
   7111.33  1.7160964E-01
   7111.67  2.1200505E-01
   7112.00  2.4904362E-01
   7112.33  2.8645594E-01
   7112.67  3.2552050E-01
   7113.00  3.7239873E-01
   7113.33  4.1175511E-01
   7113.67  4.2394209E-01
   7114.00  4.0440874E-01
   7114.33  3.5818767E-01
   7114.67  3.0923577E-01
   7115.00  2.6945639E-01
   7115.33  2.4308613E-01
   7115.67  2.2660027E-01
   7116.00  2.1802001E-01
   7116.33  2.1558764E-01
   7116.67  2.1362146E-01
   7117.00  2.0656751E-01
   7117.33  1.9273994E-01
   7117.67  1.7832858E-01
   7118.00  1.6710031E-01
   7118.33  1.6025800E-01
   7118.67  1.5593195E-01
   7119.00  1.5264228E-01
   7119.33  1.4919321E-01
   7119.67  1.4531600E-01
   7120.00  1.4128308E-01
   7120.33  1.3759548E-01
   7120.67  1.3457456E-01
   7121.00  1.3246279E-01
   7121.33  1.3178127E-01
   7121.67  1.3286524E-01
   7122.00  1.3610333E-01
   7122.33  1.4198548E-01
   7122.67  1.5016513E-01
   7123.00  1.6060075E-01
   7123.33  1.7372806E-01
   7123.67  1.8955056E-01
   7124.00  2.0834290E-01
   7124.33  2.3068424E-01
   7124.67  2.5605870E-01
   7125.00  2.8397875E-01
   7125.33  3.1350726E-01
   7125.67  3.4283592E-01
   7126.00  3.7040905E-01
   7126.33  3.9433295E-01
   7126.67  4.1436857E-01
   7127.00  4.3080652E-01
   7127.33  4.4447144E-01
   7127.67  4.5724036E-01
   7128.00  4.7049889E-01
   7128.33  4.8591271E-01
   7128.67  5.0438330E-01
   7129.00  5.2659354E-01
   7129.33  5.5339878E-01
   7129.67  5.8423673E-01
   7130.00  6.1873591E-01
   7130.33  6.5639152E-01
   7130.67  6.9570176E-01
   7131.00  7.3567469E-01
   7131.33  7.7537347E-01
   7131.67  8.1418414E-01
   7132.00  8.5156713E-01
   7132.33  8.8647803E-01
   7132.67  9.1832302E-01
   7133.00  9.4627223E-01
   7133.33  9.6837288E-01
   7133.67  9.8337780E-01
   7134.00  9.8932156E-01
   7134.33  9.8288713E-01
   7134.67  9.6485933E-01
   7135.00  9.3622699E-01
   7135.33  8.9855644E-01
   7135.67  8.5605766E-01
   7136.00  8.1130790E-01
   7136.33  7.6668871E-01
   7136.67  7.2382085E-01
   7137.00  6.8364971E-01
   7137.33  6.4736861E-01
   7137.67  6.1506424E-01
   7138.00  5.8703749E-01
   7138.33  5.6405011E-01
   7138.67  5.4554038E-01
   7139.00  5.3130584E-01
   7139.33  5.2136368E-01
   7139.67  5.1461805E-01
   7140.00  5.1049751E-01
   7140.33  5.0862406E-01
   7140.67  5.0820745E-01
   7141.00  5.0885822E-01
   7141.33  5.1027214E-01
   7141.67  5.1201645E-01
   7142.00  5.1380865E-01
   7142.33  5.1529962E-01
   7142.67  5.1623395E-01
   7143.00  5.1640454E-01
   7143.33  5.1553123E-01
   7143.67  5.1367312E-01
   7144.00  5.1086241E-01
   7144.33  5.0708915E-01
   7144.67  5.0261375E-01
   7145.00  4.9761132E-01
   7145.33  4.9227588E-01
   7145.67  4.8687785E-01
   7146.00  4.8160373E-01
   7146.33  4.7668277E-01
   7146.67  4.7223189E-01
   7147.00  4.6835822E-01
   7147.33  4.6524242E-01
   7147.67  4.6287075E-01
   7148.00  4.6128666E-01
   7148.33  4.6062711E-01
   7148.67  4.6080831E-01
   7149.00  4.6183557E-01
   7149.33  4.6380786E-01
   7149.67  4.6660047E-01
   7150.00  4.7018085E-01
   7150.33  4.7457736E-01
   7150.67  4.7962518E-01
   7151.00  4.8525372E-01
   7151.33  4.9142412E-01
   7151.67  4.9796044E-01
   7152.00  5.0475595E-01
   7152.33  5.1169861E-01
   7152.67  5.1864627E-01
   7153.00  5.2550073E-01
   7153.33  5.3213570E-01
   7153.67  5.3848699E-01
   7154.00  5.4449055E-01
   7154.33  5.5003600E-01
   7154.67  5.5512982E-01
   7155.00  5.5974440E-01
   7155.33  5.6379623E-01
   7155.67  5.6733696E-01
   7156.00  5.7036361E-01
   7156.33  5.7281538E-01
   7156.67  5.7476511E-01
   7157.00  5.7622446E-01
   7157.33  5.7715213E-01
   7157.67  5.7762890E-01
   7158.00  5.7767615E-01
   7158.33  5.7727211E-01
   7158.67  5.7649927E-01
   7159.00  5.7538867E-01
   7159.33  5.7394280E-01
   7159.67  5.7224211E-01
   7160.00  5.7032579E-01
   7160.33  5.6821999E-01
   7160.67  5.6599333E-01
   7161.00  5.6368552E-01
   7161.33  5.6133503E-01
   7161.67  5.5898498E-01
   7162.00  5.5666340E-01
   7162.33  5.5440225E-01
   7162.67  5.5221153E-01
   7163.00  5.5009894E-01
   7163.33  5.4807793E-01
   7163.67  5.4613559E-01
   7164.00  5.4426163E-01
   7164.33  5.4244830E-01
   7164.67  5.4067324E-01
   7165.00  5.3891628E-01
   7165.33  5.3714828E-01
   7165.67  5.3534258E-01
   7166.00  5.3347708E-01
   7166.33  5.3151755E-01
   7166.67  5.2945259E-01
   7167.00  5.2726651E-01
   7167.33  5.2492913E-01
   7167.67  5.2244952E-01
   7168.00  5.1982527E-01
   7168.33  5.1704145E-01
   7168.67  5.1412609E-01
   7169.00  5.1109415E-01
   7169.33  5.0795659E-01
   7169.67  5.0475220E-01
   7170.00  5.0150887E-01
   7170.33  4.9826609E-01
   7170.67  4.9507266E-01
   7171.00  4.9198177E-01
   7171.33  4.8910228E-01
   7171.67  4.8654327E-01
   7172.00  4.8446370E-01
