    FDMNES
    energy     <xanes>
   7097.00  4.7803278E-03
   7097.33  4.8914147E-03
   7097.67  5.0075716E-03
   7098.00  5.1291521E-03
   7098.33  5.2573481E-03
   7098.67  5.3919359E-03
   7099.00  5.5334037E-03
   7099.33  5.6833276E-03
   7099.67  5.8414878E-03
   7100.00  6.0085784E-03
   7100.33  6.1867445E-03
   7100.67  6.3758020E-03
   7101.00  6.5767717E-03
   7101.33  6.7926753E-03
   7101.67  7.0234343E-03
   7102.00  7.2706120E-03
   7102.33  7.5386436E-03
   7102.67  7.8277117E-03
   7103.00  8.1403302E-03
   7103.33  8.4833441E-03
   7103.67  8.8575553E-03
   7104.00  9.2672531E-03
   7104.33  9.7236831E-03
   7104.67  1.0229139E-02
   7105.00  1.0791508E-02
   7105.33  1.1430790E-02
   7105.67  1.2153092E-02
   7106.00  1.2974380E-02
   7106.33  1.3934139E-02
   7106.67  1.5049234E-02
   7107.00  1.6356476E-02
   7107.33  1.7945827E-02
   7107.67  1.9869608E-02
   7108.00  2.2229942E-02
   7108.33  2.5279627E-02
   7108.67  2.9219731E-02
   7109.00  3.4426702E-02
   7109.33  4.1890939E-02
   7109.67  5.2729901E-02
   7110.00  6.9122034E-02
   7110.33  9.7336737E-02
   7110.67  1.4441959E-01
   7111.00  2.1437411E-01
   7111.33  2.9592626E-01
   7111.67  3.6326549E-01
   7112.00  3.8955073E-01
   7112.33  3.6707619E-01
   7112.67  3.3155287E-01
   7113.00  2.8965351E-01
   7113.33  2.3528051E-01
   7113.67  1.8268330E-01
   7114.00  1.4188922E-01
   7114.33  1.1532990E-01
   7114.67  9.7664025E-02
   7115.00  8.6082102E-02
   7115.33  7.9056472E-02
   7115.67  7.4789167E-02
   7116.00  7.2561625E-02
   7116.33  7.2073906E-02
   7116.67  7.2865698E-02
   7117.00  7.4789609E-02
   7117.33  7.7828893E-02
   7117.67  8.1749590E-02
   7118.00  8.6532631E-02
   7118.33  9.2445068E-02
   7118.67  9.9605426E-02
   7119.00  1.0814603E-01
   7119.33  1.1821276E-01
   7119.67  1.2955344E-01
   7120.00  1.4221458E-01
   7120.33  1.5663635E-01
   7120.67  1.7290849E-01
   7121.00  1.9111205E-01
   7121.33  2.1116495E-01
   7121.67  2.3210051E-01
   7122.00  2.5298175E-01
   7122.33  2.7254869E-01
   7122.67  2.9026410E-01
   7123.00  3.0617352E-01
   7123.33  3.2085977E-01
   7123.67  3.3532174E-01
   7124.00  3.4989136E-01
   7124.33  3.6423918E-01
   7124.67  3.7777722E-01
   7125.00  3.9028963E-01
   7125.33  4.0205373E-01
   7125.67  4.1378168E-01
   7126.00  4.2553482E-01
   7126.33  4.3604381E-01
   7126.67  4.4466251E-01
   7127.00  4.5287029E-01
   7127.33  4.6413256E-01
   7127.67  4.7996541E-01
   7128.00  4.9994112E-01
   7128.33  5.2214143E-01
   7128.67  5.4416116E-01
   7129.00  5.6525217E-01
   7129.33  5.8559749E-01
   7129.67  6.0566606E-01
   7130.00  6.2513449E-01
   7130.33  6.4258137E-01
   7130.67  6.5697309E-01
   7131.00  6.6791231E-01
   7131.33  6.7553047E-01
   7131.67  6.8115128E-01
   7132.00  6.8539368E-01
   7132.33  6.8821603E-01
   7132.67  6.8927683E-01
   7133.00  6.8797371E-01
   7133.33  6.8379413E-01
   7133.67  6.7811269E-01
   7134.00  6.7274013E-01
   7134.33  6.6985965E-01
   7134.67  6.6971440E-01
   7135.00  6.7165855E-01
   7135.33  6.7456230E-01
   7135.67  6.7729354E-01
   7136.00  6.7941859E-01
   7136.33  6.8083442E-01
   7136.67  6.8188338E-01
   7137.00  6.8284182E-01
   7137.33  6.8398249E-01
   7137.67  6.8541379E-01
   7138.00  6.8714437E-01
   7138.33  6.8911178E-01
   7138.67  6.9112553E-01
   7139.00  6.9301252E-01
   7139.33  6.9452026E-01
   7139.67  6.9549419E-01
   7140.00  6.9580128E-01
   7140.33  6.9525835E-01
   7140.67  6.9394886E-01
   7141.00  6.9192125E-01
   7141.33  6.8920999E-01
   7141.67  6.8604071E-01
   7142.00  6.8255751E-01
   7142.33  6.7891045E-01
   7142.67  6.7527050E-01
   7143.00  6.7174680E-01
   7143.33  6.6846964E-01
   7143.67  6.6550078E-01
   7144.00  6.6287976E-01
   7144.33  6.6063429E-01
   7144.67  6.5867035E-01
   7145.00  6.5692310E-01
   7145.33  6.5531586E-01
   7145.67  6.5373058E-01
   7146.00  6.5207671E-01
   7146.33  6.5023091E-01
   7146.67  6.4812513E-01
   7147.00  6.4569308E-01
   7147.33  6.4281223E-01
   7147.67  6.3946364E-01
   7148.00  6.3559310E-01
   7148.33  6.3107494E-01
   7148.67  6.2594415E-01
   7149.00  6.2018575E-01
   7149.33  6.1371747E-01
   7149.67  6.0662707E-01
   7150.00  5.9893296E-01
   7150.33  5.9059460E-01
   7150.67  5.8172055E-01
   7151.00  5.7234455E-01
   7151.33  5.6244644E-01
   7151.67  5.5211838E-01
   7152.00  5.4138706E-01
   7152.33  5.3023510E-01
   7152.67  5.1873830E-01
   7153.00  5.0692332E-01
   7153.33  4.9479333E-01
   7153.67  4.8242989E-01
   7154.00  4.6988191E-01
   7154.33  4.5721023E-01
   7154.67  4.4452788E-01
   7155.00  4.3193758E-01
   7155.33  4.1959969E-01
   7155.67  4.0762483E-01
   7156.00  3.9613062E-01
   7156.33  3.8531824E-01
   7156.67  3.7521666E-01
   7157.00  3.6589438E-01
   7157.33  3.5750705E-01
   7157.67  3.4997469E-01
   7158.00  3.4329893E-01
   7158.33  3.3756845E-01
   7158.67  3.3264720E-01
   7159.00  3.2850027E-01
   7159.33  3.2517147E-01
   7159.67  3.2251895E-01
   7160.00  3.2049727E-01
   7160.33  3.1912466E-01
   7160.67  3.1827634E-01
   7161.00  3.1790980E-01
   7161.33  3.1803480E-01
   7161.67  3.1855679E-01
   7162.00  3.1944325E-01
   7162.33  3.2069772E-01
   7162.67  3.2224549E-01
   7163.00  3.2406417E-01
   7163.33  3.2616561E-01
   7163.67  3.2850288E-01
   7164.00  3.3106453E-01
   7164.33  3.3386532E-01
   7164.67  3.3686861E-01
   7165.00  3.4006648E-01
   7165.33  3.4347248E-01
   7165.67  3.4705212E-01
   7166.00  3.5079348E-01
   7166.33  3.5469773E-01
   7166.67  3.5872555E-01
   7167.00  3.6285506E-01
   7167.33  3.6706685E-01
   7167.67  3.7132064E-01
   7168.00  3.7558846E-01
   7168.33  3.7983558E-01
   7168.67  3.8403316E-01
   7169.00  3.8815615E-01
   7169.33  3.9216540E-01
   7169.67  3.9604977E-01
   7170.00  3.9979031E-01
   7170.33  4.0334446E-01
   7170.67  4.0670807E-01
   7171.00  4.0985282E-01
   7171.33  4.1269286E-01
   7171.67  4.1516886E-01
   7172.00  4.1716065E-01
