    FDMNES
    energy     <xanes>
   7097.00  4.5432449E-03
   7097.33  4.6421516E-03
   7097.67  4.7453563E-03
   7098.00  4.8531427E-03
   7098.33  4.9664937E-03
   7098.67  5.0851961E-03
   7099.00  5.2096339E-03
   7099.33  5.3410831E-03
   7099.67  5.4793219E-03
   7100.00  5.6248827E-03
   7100.33  5.7794633E-03
   7100.67  5.9428490E-03
   7101.00  6.1158003E-03
   7101.33  6.3006416E-03
   7101.67  6.4972019E-03
   7102.00  6.7066042E-03
   7102.33  6.9321427E-03
   7102.67  7.1737695E-03
   7103.00  7.4332130E-03
   7103.33  7.7153395E-03
   7103.67  8.0204037E-03
   7104.00  8.3512022E-03
   7104.33  8.7153044E-03
   7104.67  9.1136876E-03
   7105.00  9.5511713E-03
   7105.33  1.0040328E-02
   7105.67  1.0583917E-02
   7106.00  1.1190949E-02
   7106.33  1.1884204E-02
   7106.67  1.2671172E-02
   7107.00  1.3570685E-02
   7107.33  1.4629305E-02
   7107.67  1.5868840E-02
   7108.00  1.7335472E-02
   7108.33  1.9143017E-02
   7108.67  2.1366775E-02
   7109.00  2.4151952E-02
   7109.33  2.7869994E-02
   7109.67  3.2878624E-02
   7110.00  3.9867938E-02
   7110.33  5.0793399E-02
   7110.67  6.8194564E-02
   7111.00  9.5885415E-02
   7111.33  1.3560247E-01
   7111.67  1.7656197E-01
   7112.00  2.1171631E-01
   7112.33  2.2849905E-01
   7112.67  2.3841748E-01
   7113.00  2.5445027E-01
   7113.33  2.7285262E-01
   7113.67  2.9557776E-01
   7114.00  3.3462302E-01
   7114.33  3.8634474E-01
   7114.67  4.1353898E-01
   7115.00  4.0235177E-01
   7115.33  3.5860230E-01
   7115.67  2.9600424E-01
   7116.00  2.3428462E-01
   7116.33  1.8975454E-01
   7116.67  1.5937404E-01
   7117.00  1.3823186E-01
   7117.33  1.2258741E-01
   7117.67  1.1067739E-01
   7118.00  1.0276591E-01
   7118.33  9.8741128E-02
   7118.67  9.6768838E-02
   7119.00  9.5783930E-02
   7119.33  9.5396244E-02
   7119.67  9.5863335E-02
   7120.00  9.7708141E-02
   7120.33  1.0163474E-01
   7120.67  1.0740787E-01
   7121.00  1.1432729E-01
   7121.33  1.2094189E-01
   7121.67  1.2610709E-01
   7122.00  1.2955159E-01
   7122.33  1.3135823E-01
   7122.67  1.3205587E-01
   7123.00  1.3211117E-01
   7123.33  1.3235094E-01
   7123.67  1.3351152E-01
   7124.00  1.3608478E-01
   7124.33  1.4066212E-01
   7124.67  1.4707044E-01
   7125.00  1.5506263E-01
   7125.33  1.6431549E-01
   7125.67  1.7436350E-01
   7126.00  1.8521410E-01
   7126.33  1.9725915E-01
   7126.67  2.1059116E-01
   7127.00  2.2514348E-01
   7127.33  2.4051537E-01
   7127.67  2.5565910E-01
   7128.00  2.6950766E-01
   7128.33  2.8068193E-01
   7128.67  2.8913467E-01
   7129.00  2.9534568E-01
   7129.33  3.0042823E-01
   7129.67  3.0599589E-01
   7130.00  3.1317828E-01
   7130.33  3.2325267E-01
   7130.67  3.3644779E-01
   7131.00  3.5296663E-01
   7131.33  3.7322102E-01
   7131.67  3.9658080E-01
   7132.00  4.2269369E-01
   7132.33  4.5118566E-01
   7132.67  4.8094043E-01
   7133.00  5.1117712E-01
   7133.33  5.4107256E-01
   7133.67  5.7009522E-01
   7134.00  5.9790833E-01
   7134.33  6.2405365E-01
   7134.67  6.4853253E-01
   7135.00  6.7124832E-01
   7135.33  6.9189533E-01
   7135.67  7.1055619E-01
   7136.00  7.2693907E-01
   7136.33  7.4001627E-01
   7136.67  7.4909947E-01
   7137.00  7.5319202E-01
   7137.33  7.5115208E-01
   7137.67  7.4475675E-01
   7138.00  7.3600317E-01
   7138.33  7.2718832E-01
   7138.67  7.1956304E-01
   7139.00  7.1327712E-01
   7139.33  7.0807057E-01
   7139.67  7.0335882E-01
   7140.00  6.9888878E-01
   7140.33  6.9459717E-01
   7140.67  6.9054798E-01
   7141.00  6.8688238E-01
   7141.33  6.8386397E-01
   7141.67  6.8162529E-01
   7142.00  6.8035573E-01
   7142.33  6.8041121E-01
   7142.67  6.8178280E-01
   7143.00  6.8454921E-01
   7143.33  6.8894825E-01
   7143.67  6.9476003E-01
   7144.00  7.0183001E-01
   7144.33  7.0993244E-01
   7144.67  7.1846673E-01
   7145.00  7.2695076E-01
   7145.33  7.3475413E-01
   7145.67  7.4148953E-01
   7146.00  7.4688272E-01
   7146.33  7.5059544E-01
   7146.67  7.5283039E-01
   7147.00  7.5370334E-01
   7147.33  7.5327149E-01
   7147.67  7.5190008E-01
   7148.00  7.4975682E-01
   7148.33  7.4690681E-01
   7148.67  7.4350639E-01
   7149.00  7.3957465E-01
   7149.33  7.3502614E-01
   7149.67  7.2988610E-01
   7150.00  7.2411284E-01
   7150.33  7.1760155E-01
   7150.67  7.1045589E-01
   7151.00  7.0273252E-01
   7151.33  6.9447985E-01
   7151.67  6.8589884E-01
   7152.00  6.7712783E-01
   7152.33  6.6832713E-01
   7152.67  6.5965077E-01
   7153.00  6.5120768E-01
   7153.33  6.4313332E-01
   7153.67  6.3544324E-01
   7154.00  6.2815674E-01
   7154.33  6.2131557E-01
   7154.67  6.1483696E-01
   7155.00  6.0867806E-01
   7155.33  6.0281123E-01
   7155.67  5.9713975E-01
   7156.00  5.9160989E-01
   7156.33  5.8617610E-01
   7156.67  5.8078209E-01
   7157.00  5.7539727E-01
   7157.33  5.6999172E-01
   7157.67  5.6454827E-01
   7158.00  5.5905812E-01
   7158.33  5.5351733E-01
   7158.67  5.4794739E-01
   7159.00  5.4237219E-01
   7159.33  5.3683328E-01
   7159.67  5.3137338E-01
   7160.00  5.2603864E-01
   7160.33  5.2090981E-01
   7160.67  5.1602573E-01
   7161.00  5.1144042E-01
   7161.33  5.0724983E-01
   7161.67  5.0344788E-01
   7162.00  5.0005655E-01
   7162.33  4.9714151E-01
   7162.67  4.9464916E-01
   7163.00  4.9256939E-01
   7163.33  4.9093014E-01
   7163.67  4.8965342E-01
   7164.00  4.8871079E-01
   7164.33  4.8810446E-01
   7164.67  4.8775164E-01
   7165.00  4.8760575E-01
   7165.33  4.8764238E-01
   7165.67  4.8780357E-01
   7166.00  4.8805734E-01
   7166.33  4.8837452E-01
   7166.67  4.8871499E-01
   7167.00  4.8905376E-01
   7167.33  4.8936140E-01
   7167.67  4.8961919E-01
   7168.00  4.8981124E-01
   7168.33  4.8991314E-01
   7168.67  4.8993066E-01
   7169.00  4.8986952E-01
   7169.33  4.8972399E-01
   7169.67  4.8950632E-01
   7170.00  4.8922279E-01
   7170.33  4.8887497E-01
   7170.67  4.8848078E-01
   7171.00  4.8805304E-01
   7171.33  4.8761190E-01
   7171.67  4.8719243E-01
   7172.00  4.8683448E-01
