    FDMNES
    energy     <xanes>
   7097.00  4.9564523E-03
   7097.33  5.0668404E-03
   7097.67  5.1819756E-03
   7098.00  5.3021655E-03
   7098.33  5.4284857E-03
   7098.67  5.5606929E-03
   7099.00  5.6992016E-03
   7099.33  5.8454024E-03
   7099.67  5.9990406E-03
   7100.00  6.1606893E-03
   7100.33  6.3321906E-03
   7100.67  6.5132956E-03
   7101.00  6.7048199E-03
   7101.33  6.9092760E-03
   7101.67  7.1264588E-03
   7102.00  7.3575706E-03
   7102.33  7.6061594E-03
   7102.67  7.8721493E-03
   7103.00  8.1573883E-03
   7103.33  8.4671034E-03
   7103.67  8.8015410E-03
   7104.00  9.1636908E-03
   7104.33  9.5616705E-03
   7104.67  9.9965030E-03
   7105.00  1.0473347E-02
   7105.33  1.1005687E-02
   7105.67  1.1596473E-02
   7106.00  1.2255381E-02
   7106.33  1.3006896E-02
   7106.67  1.3859120E-02
   7107.00  1.4832387E-02
   7107.33  1.5976993E-02
   7107.67  1.7316761E-02
   7108.00  1.8901976E-02
   7108.33  2.0856679E-02
   7108.67  2.3264077E-02
   7109.00  2.6284385E-02
   7109.33  3.0328689E-02
   7109.67  3.5799341E-02
   7110.00  4.3473395E-02
   7110.33  5.5544354E-02
   7110.67  7.4688210E-02
   7111.00  1.0438727E-01
   7111.33  1.4731137E-01
   7111.67  1.9270363E-01
   7112.00  2.2766919E-01
   7112.33  2.4793331E-01
   7112.67  2.5823324E-01
   7113.00  2.7402326E-01
   7113.33  3.1178316E-01
   7113.67  3.5393370E-01
   7114.00  3.6649290E-01
   7114.33  3.4714309E-01
   7114.67  3.2926744E-01
   7115.00  3.1144383E-01
   7115.33  2.8160701E-01
   7115.67  2.4800173E-01
   7116.00  2.2005208E-01
   7116.33  2.0237196E-01
   7116.67  1.9143874E-01
   7117.00  1.8227771E-01
   7117.33  1.6899680E-01
   7117.67  1.5349449E-01
   7118.00  1.3981429E-01
   7118.33  1.3054765E-01
   7118.67  1.2537771E-01
   7119.00  1.2414311E-01
   7119.33  1.2617757E-01
   7119.67  1.2872276E-01
   7120.00  1.2994379E-01
   7120.33  1.2984672E-01
   7120.67  1.3021285E-01
   7121.00  1.3214842E-01
   7121.33  1.3593976E-01
   7121.67  1.4076548E-01
   7122.00  1.4670526E-01
   7122.33  1.5505830E-01
   7122.67  1.6660817E-01
   7123.00  1.8148109E-01
   7123.33  1.9893505E-01
   7123.67  2.1703640E-01
   7124.00  2.3472630E-01
   7124.33  2.5159303E-01
   7124.67  2.6809832E-01
   7125.00  2.8473590E-01
   7125.33  3.0219305E-01
   7125.67  3.2098758E-01
   7126.00  3.4155909E-01
   7126.33  3.6427031E-01
   7126.67  3.8842537E-01
   7127.00  4.1333610E-01
   7127.33  4.3816665E-01
   7127.67  4.6214524E-01
   7128.00  4.8459981E-01
   7128.33  5.0489976E-01
   7128.67  5.2397932E-01
   7129.00  5.4331970E-01
   7129.33  5.6512239E-01
   7129.67  5.9057128E-01
   7130.00  6.2061857E-01
   7130.33  6.5675984E-01
   7130.67  6.9826988E-01
   7131.00  7.4397589E-01
   7131.33  7.9183887E-01
   7131.67  8.3928942E-01
   7132.00  8.8436783E-01
   7132.33  9.2324646E-01
   7132.67  9.5206917E-01
   7133.00  9.6666806E-01
   7133.33  9.6208035E-01
   7133.67  9.4220112E-01
   7134.00  9.1347765E-01
   7134.33  8.8591881E-01
   7134.67  8.6322416E-01
   7135.00  8.4337990E-01
   7135.33  8.2342221E-01
   7135.67  8.0189511E-01
   7136.00  7.7858511E-01
   7136.33  7.5398094E-01
   7136.67  7.2952794E-01
   7137.00  7.0649093E-01
   7137.33  6.8631481E-01
   7137.67  6.6920605E-01
   7138.00  6.5520126E-01
   7138.33  6.4443369E-01
   7138.67  6.3620930E-01
   7139.00  6.3023428E-01
   7139.33  6.2642545E-01
   7139.67  6.2423484E-01
   7140.00  6.2340258E-01
   7140.33  6.2374996E-01
   7140.67  6.2482268E-01
   7141.00  6.2633068E-01
   7141.33  6.2792986E-01
   7141.67  6.2923945E-01
   7142.00  6.2992692E-01
   7142.33  6.2947265E-01
   7142.67  6.2766361E-01
   7143.00  6.2430328E-01
   7143.33  6.1911188E-01
   7143.67  6.1239234E-01
   7144.00  6.0435183E-01
   7144.33  5.9519813E-01
   7144.67  5.8541968E-01
   7145.00  5.7531212E-01
   7145.33  5.6516071E-01
   7145.67  5.5518895E-01
   7146.00  5.4552915E-01
   7146.33  5.3633340E-01
   7146.67  5.2760877E-01
   7147.00  5.1938487E-01
   7147.33  5.1174957E-01
   7147.67  5.0465729E-01
   7148.00  4.9812878E-01
   7148.33  4.9226993E-01
   7148.67  4.8704725E-01
   7149.00  4.8250064E-01
   7149.33  4.7876360E-01
   7149.67  4.7577929E-01
   7150.00  4.7356283E-01
   7150.33  4.7220746E-01
   7150.67  4.7159107E-01
   7151.00  4.7166976E-01
   7151.33  4.7243911E-01
   7151.67  4.7371266E-01
   7152.00  4.7538552E-01
   7152.33  4.7735702E-01
   7152.67  4.7944954E-01
   7153.00  4.8153586E-01
   7153.33  4.8345258E-01
   7153.67  4.8508570E-01
   7154.00  4.8633653E-01
   7154.33  4.8705560E-01
   7154.67  4.8724336E-01
   7155.00  4.8687669E-01
   7155.33  4.8589194E-01
   7155.67  4.8439574E-01
   7156.00  4.8244536E-01
   7156.33  4.8008790E-01
   7156.67  4.7748190E-01
   7157.00  4.7473489E-01
   7157.33  4.7197547E-01
   7157.67  4.6933348E-01
   7158.00  4.6691216E-01
   7158.33  4.6485758E-01
   7158.67  4.6321267E-01
   7159.00  4.6202879E-01
   7159.33  4.6140230E-01
   7159.67  4.6127934E-01
   7160.00  4.6164779E-01
   7160.33  4.6253220E-01
   7160.67  4.6382642E-01
   7161.00  4.6547878E-01
   7161.33  4.6745808E-01
   7161.67  4.6965601E-01
   7162.00  4.7200881E-01
   7162.33  4.7445361E-01
   7162.67  4.7691043E-01
   7163.00  4.7932281E-01
   7163.33  4.8161903E-01
   7163.67  4.8376261E-01
   7164.00  4.8571250E-01
   7164.33  4.8737896E-01
   7164.67  4.8875159E-01
   7165.00  4.8982259E-01
   7165.33  4.9056193E-01
   7165.67  4.9102258E-01
   7166.00  4.9122515E-01
   7166.33  4.9117203E-01
   7166.67  4.9092703E-01
   7167.00  4.9052172E-01
   7167.33  4.8997731E-01
   7167.67  4.8934426E-01
   7168.00  4.8865020E-01
   7168.33  4.8792212E-01
   7168.67  4.8719638E-01
   7169.00  4.8649467E-01
   7169.33  4.8583571E-01
   7169.67  4.8522398E-01
   7170.00  4.8466519E-01
   7170.33  4.8417015E-01
   7170.67  4.8373224E-01
   7171.00  4.8335034E-01
   7171.33  4.8302998E-01
   7171.67  4.8276539E-01
   7172.00  4.8256028E-01
