    FDMNES
    energy     <xanes>
   7097.00  4.9048151E-03
   7097.33  5.0108100E-03
   7097.67  5.1209718E-03
   7098.00  5.2355394E-03
   7098.33  5.3554048E-03
   7098.67  5.4803121E-03
   7099.00  5.6105727E-03
   7099.33  5.7473034E-03
   7099.67  5.8902248E-03
   7100.00  6.0397515E-03
   7100.33  6.1973097E-03
   7100.67  6.3626021E-03
   7101.00  6.5361946E-03
   7101.33  6.7199522E-03
   7101.67  6.9135742E-03
   7102.00  7.1178570E-03
   7102.33  7.3353111E-03
   7102.67  7.5656677E-03
   7103.00  7.8100897E-03
   7103.33  8.0720791E-03
   7103.67  8.3514811E-03
   7104.00  8.6500735E-03
   7104.33  8.9729671E-03
   7104.67  9.3203144E-03
   7105.00  9.6949947E-03
   7105.33  1.0104918E-02
   7105.67  1.0551021E-02
   7106.00  1.1038333E-02
   7106.33  1.1580098E-02
   7106.67  1.2179320E-02
   7107.00  1.2845737E-02
   7107.33  1.3604088E-02
   7107.67  1.4463399E-02
   7108.00  1.5445492E-02
   7108.33  1.6604717E-02
   7108.67  1.7971055E-02
   7109.00  1.9605748E-02
   7109.33  2.1663752E-02
   7109.67  2.4274432E-02
   7110.00  2.7688591E-02
   7110.33  3.2595011E-02
   7110.67  3.9810357E-02
   7111.00  5.0615912E-02
   7111.33  6.6457652E-02
   7111.67  8.6559218E-02
   7112.00  1.1437560E-01
   7112.33  1.5041604E-01
   7112.67  1.7011640E-01
   7113.00  1.6397940E-01
   7113.33  1.5938901E-01
   7113.67  1.7525130E-01
   7114.00  2.1599254E-01
   7114.33  2.7120953E-01
   7114.67  2.9513742E-01
   7115.00  2.6385061E-01
   7115.33  2.0911032E-01
   7115.67  1.6609042E-01
   7116.00  1.3898364E-01
   7116.33  1.2537605E-01
   7116.67  1.2029038E-01
   7117.00  1.2233566E-01
   7117.33  1.3228302E-01
   7117.67  1.5063000E-01
   7118.00  1.7985939E-01
   7118.33  2.2650798E-01
   7118.67  2.9435674E-01
   7119.00  3.8620646E-01
   7119.33  4.9535142E-01
   7119.67  5.9137565E-01
   7120.00  6.4823834E-01
   7120.33  6.5844159E-01
   7120.67  6.4604211E-01
   7121.00  6.2266570E-01
   7121.33  5.9191128E-01
   7121.67  5.5862644E-01
   7122.00  5.2786598E-01
   7122.33  5.0301179E-01
   7122.67  4.8155015E-01
   7123.00  4.6167137E-01
   7123.33  4.4417355E-01
   7123.67  4.3059255E-01
   7124.00  4.2155626E-01
   7124.33  4.1698495E-01
   7124.67  4.1553156E-01
   7125.00  4.1692447E-01
   7125.33  4.2178327E-01
   7125.67  4.2998466E-01
   7126.00  4.4143472E-01
   7126.33  4.5616548E-01
   7126.67  4.7353638E-01
   7127.00  4.9337512E-01
   7127.33  5.1561933E-01
   7127.67  5.3935783E-01
   7128.00  5.6381324E-01
   7128.33  5.8791125E-01
   7128.67  6.1064577E-01
   7129.00  6.3119094E-01
   7129.33  6.4817200E-01
   7129.67  6.6097033E-01
   7130.00  6.6885762E-01
   7130.33  6.7078678E-01
   7130.67  6.6774200E-01
   7131.00  6.6057061E-01
   7131.33  6.5037249E-01
   7131.67  6.3903986E-01
   7132.00  6.2772470E-01
   7132.33  6.1746826E-01
   7132.67  6.0858999E-01
   7133.00  6.0115681E-01
   7133.33  5.9523167E-01
   7133.67  5.9053401E-01
   7134.00  5.8706226E-01
   7134.33  5.8510735E-01
   7134.67  5.8464579E-01
   7135.00  5.8566575E-01
   7135.33  5.8793771E-01
   7135.67  5.9049186E-01
   7136.00  5.9235665E-01
   7136.33  5.9222276E-01
   7136.67  5.8965652E-01
   7137.00  5.8458713E-01
   7137.33  5.7713892E-01
   7137.67  5.6820913E-01
   7138.00  5.5834242E-01
   7138.33  5.4800367E-01
   7138.67  5.3761907E-01
   7139.00  5.2741674E-01
   7139.33  5.1763833E-01
   7139.67  5.0837849E-01
   7140.00  4.9972156E-01
   7140.33  4.9180221E-01
   7140.67  4.8455551E-01
   7141.00  4.7798077E-01
   7141.33  4.7214874E-01
   7141.67  4.6695968E-01
   7142.00  4.6239877E-01
   7142.33  4.5852724E-01
   7142.67  4.5525504E-01
   7143.00  4.5257005E-01
   7143.33  4.5052422E-01
   7143.67  4.4901741E-01
   7144.00  4.4801307E-01
   7144.33  4.4750805E-01
   7144.67  4.4737130E-01
   7145.00  4.4752681E-01
   7145.33  4.4790280E-01
   7145.67  4.4837749E-01
   7146.00  4.4887223E-01
   7146.33  4.4929754E-01
   7146.67  4.4959404E-01
   7147.00  4.4972074E-01
   7147.33  4.4962852E-01
   7147.67  4.4934278E-01
   7148.00  4.4888472E-01
   7148.33  4.4828421E-01
   7148.67  4.4762059E-01
   7149.00  4.4695690E-01
   7149.33  4.4637350E-01
   7149.67  4.4592025E-01
   7150.00  4.4563088E-01
   7150.33  4.4554135E-01
   7150.67  4.4561493E-01
   7151.00  4.4581928E-01
   7151.33  4.4611088E-01
   7151.67  4.4642167E-01
   7152.00  4.4670604E-01
   7152.33  4.4691726E-01
   7152.67  4.4704679E-01
   7153.00  4.4709744E-01
   7153.33  4.4708030E-01
   7153.67  4.4703458E-01
   7154.00  4.4699343E-01
   7154.33  4.4700086E-01
   7154.67  4.4708462E-01
   7155.00  4.4726711E-01
   7155.33  4.4758128E-01
   7155.67  4.4802185E-01
   7156.00  4.4858963E-01
   7156.33  4.4929419E-01
   7156.67  4.5010995E-01
   7157.00  4.5102563E-01
   7157.33  4.5203680E-01
   7157.67  4.5311732E-01
   7158.00  4.5425493E-01
   7158.33  4.5544330E-01
   7158.67  4.5666684E-01
   7159.00  4.5791798E-01
   7159.33  4.5919150E-01
   7159.67  4.6047863E-01
   7160.00  4.6177295E-01
   7160.33  4.6306383E-01
   7160.67  4.6433899E-01
   7161.00  4.6558764E-01
   7161.33  4.6679058E-01
   7161.67  4.6793328E-01
   7162.00  4.6899610E-01
   7162.33  4.6994086E-01
   7162.67  4.7075831E-01
   7163.00  4.7144525E-01
   7163.33  4.7198836E-01
   7163.67  4.7239119E-01
   7164.00  4.7264255E-01
   7164.33  4.7271592E-01
   7164.67  4.7263109E-01
   7165.00  4.7239276E-01
   7165.33  4.7199274E-01
   7165.67  4.7146267E-01
   7166.00  4.7081719E-01
   7166.33  4.7006458E-01
   7166.67  4.6923938E-01
   7167.00  4.6836200E-01
   7167.33  4.6745248E-01
   7167.67  4.6653654E-01
   7168.00  4.6563167E-01
   7168.33  4.6475938E-01
   7168.67  4.6393079E-01
   7169.00  4.6315571E-01
   7169.33  4.6244932E-01
   7169.67  4.6180780E-01
   7170.00  4.6123183E-01
   7170.33  4.6072737E-01
   7170.67  4.6028245E-01
   7171.00  4.5989325E-01
   7171.33  4.5956305E-01
   7171.67  4.5928589E-01
   7172.00  4.5906692E-01
