    FDMNES
    energy     <xanes>
   7097.00  4.4733738E-03
   7097.33  4.5677663E-03
   7097.67  4.6658895E-03
   7098.00  4.7679671E-03
   7098.33  4.8748153E-03
   7098.67  4.9862199E-03
   7099.00  5.1024787E-03
   7099.33  5.2246301E-03
   7099.67  5.3524470E-03
   7100.00  5.4863363E-03
   7100.33  5.6276520E-03
   7100.67  5.7761652E-03
   7101.00  5.9324494E-03
   7101.33  6.0983239E-03
   7101.67  6.2735842E-03
   7102.00  6.4590691E-03
   7102.33  6.6573146E-03
   7102.67  6.8682006E-03
   7103.00  7.0930110E-03
   7103.33  7.3354457E-03
   7103.67  7.5956073E-03
   7104.00  7.8755750E-03
   7104.33  8.1810669E-03
   7104.67  8.5127422E-03
   7105.00  8.8742162E-03
   7105.33  9.2750084E-03
   7105.67  9.7172017E-03
   7106.00  1.0207689E-02
   7106.33  1.0763971E-02
   7106.67  1.1392065E-02
   7107.00  1.2106864E-02
   7107.33  1.2945283E-02
   7107.67  1.3925869E-02
   7108.00  1.5087126E-02
   7108.33  1.6524609E-02
   7108.67  1.8307290E-02
   7109.00  2.0567360E-02
   7109.33  2.3650595E-02
   7109.67  2.7927121E-02
   7110.00  3.4119899E-02
   7110.33  4.4251227E-02
   7110.67  6.0042031E-02
   7111.00  8.0477808E-02
   7111.33  1.0066501E-01
   7111.67  1.2763231E-01
   7112.00  1.7031106E-01
   7112.33  2.2865115E-01
   7112.67  2.5930588E-01
   7113.00  2.2684162E-01
   7113.33  1.6772082E-01
   7113.67  1.2462740E-01
   7114.00  9.8672733E-02
   7114.33  8.4744447E-02
   7114.67  7.7014058E-02
   7115.00  7.3473454E-02
   7115.33  7.3480724E-02
   7115.67  7.6239182E-02
   7116.00  8.1568892E-02
   7116.33  8.9665709E-02
   7116.67  1.0011668E-01
   7117.00  1.1265597E-01
   7117.33  1.2670553E-01
   7117.67  1.4146204E-01
   7118.00  1.5701694E-01
   7118.33  1.7328315E-01
   7118.67  1.8975562E-01
   7119.00  2.0619177E-01
   7119.33  2.2223899E-01
   7119.67  2.3760962E-01
   7120.00  2.5205416E-01
   7120.33  2.6528077E-01
   7120.67  2.7750191E-01
   7121.00  2.8898138E-01
   7121.33  3.0024683E-01
   7121.67  3.1213069E-01
   7122.00  3.2542391E-01
   7122.33  3.4099653E-01
   7122.67  3.5832141E-01
   7123.00  3.7680297E-01
   7123.33  3.9705214E-01
   7123.67  4.2018669E-01
   7124.00  4.4717230E-01
   7124.33  4.7929081E-01
   7124.67  5.1468475E-01
   7125.00  5.5000751E-01
   7125.33  5.8020703E-01
   7125.67  6.0279822E-01
   7126.00  6.1680753E-01
   7126.33  6.2149283E-01
   7126.67  6.1897783E-01
   7127.00  6.1109097E-01
   7127.33  6.0121582E-01
   7127.67  5.9292436E-01
   7128.00  5.8748344E-01
   7128.33  5.8523414E-01
   7128.67  5.8505431E-01
   7129.00  5.8596358E-01
   7129.33  5.8648500E-01
   7129.67  5.8510597E-01
   7130.00  5.8088232E-01
   7130.33  5.7414424E-01
   7130.67  5.6823653E-01
   7131.00  5.6621366E-01
   7131.33  5.7018753E-01
   7131.67  5.7856446E-01
   7132.00  5.8964829E-01
   7132.33  6.0147909E-01
   7132.67  6.1249039E-01
   7133.00  6.2194978E-01
   7133.33  6.2906189E-01
   7133.67  6.3374917E-01
   7134.00  6.3596127E-01
   7134.33  6.3569184E-01
   7134.67  6.3372993E-01
   7135.00  6.3059133E-01
   7135.33  6.2678911E-01
   7135.67  6.2291732E-01
   7136.00  6.1935281E-01
   7136.33  6.1652658E-01
   7136.67  6.1461338E-01
   7137.00  6.1376967E-01
   7137.33  6.1424451E-01
   7137.67  6.1588780E-01
   7138.00  6.1859474E-01
   7138.33  6.2221854E-01
   7138.67  6.2629488E-01
   7139.00  6.3046639E-01
   7139.33  6.3429987E-01
   7139.67  6.3752804E-01
   7140.00  6.3998882E-01
   7140.33  6.4149440E-01
   7140.67  6.4215086E-01
   7141.00  6.4199232E-01
   7141.33  6.4096859E-01
   7141.67  6.3921401E-01
   7142.00  6.3675332E-01
   7142.33  6.3351756E-01
   7142.67  6.2959584E-01
   7143.00  6.2498640E-01
   7143.33  6.1960562E-01
   7143.67  6.1355274E-01
   7144.00  6.0685193E-01
   7144.33  5.9947073E-01
   7144.67  5.9154567E-01
   7145.00  5.8314553E-01
   7145.33  5.7432250E-01
   7145.67  5.6524216E-01
   7146.00  5.5601984E-01
   7146.33  5.4680156E-01
   7146.67  5.3773942E-01
   7147.00  5.2896569E-01
   7147.33  5.2068765E-01
   7147.67  5.1299091E-01
   7148.00  5.0597510E-01
   7148.33  4.9982450E-01
   7148.67  4.9449932E-01
   7149.00  4.9002042E-01
   7149.33  4.8648240E-01
   7149.67  4.8373467E-01
   7150.00  4.8171322E-01
   7150.33  4.8040096E-01
   7150.67  4.7960718E-01
   7151.00  4.7922791E-01
   7151.33  4.7917396E-01
   7151.67  4.7928406E-01
   7152.00  4.7945378E-01
   7152.33  4.7955874E-01
   7152.67  4.7949336E-01
   7153.00  4.7916720E-01
   7153.33  4.7844229E-01
   7153.67  4.7728274E-01
   7154.00  4.7563115E-01
   7154.33  4.7336522E-01
   7154.67  4.7050980E-01
   7155.00  4.6703771E-01
   7155.33  4.6285243E-01
   7155.67  4.5803154E-01
   7156.00  4.5258523E-01
   7156.33  4.4646469E-01
   7156.67  4.3978864E-01
   7157.00  4.3261047E-01
   7157.33  4.2495762E-01
   7157.67  4.1698017E-01
   7158.00  4.0877431E-01
   7158.33  4.0045035E-01
   7158.67  3.9215331E-01
   7159.00  3.8399882E-01
   7159.33  3.7615101E-01
   7159.67  3.6869495E-01
   7160.00  3.6171971E-01
   7160.33  3.5537926E-01
   7160.67  3.4966287E-01
   7161.00  3.4460288E-01
   7161.33  3.4029833E-01
   7161.67  3.3665879E-01
   7162.00  3.3366540E-01
   7162.33  3.3136269E-01
   7162.67  3.2963517E-01
   7163.00  3.2844632E-01
   7163.33  3.2781516E-01
   7163.67  3.2763876E-01
   7164.00  3.2788476E-01
   7164.33  3.2856810E-01
   7164.67  3.2960962E-01
   7165.00  3.3098550E-01
   7165.33  3.3271199E-01
   7165.67  3.3473195E-01
   7166.00  3.3703197E-01
   7166.33  3.3963159E-01
   7166.67  3.4248504E-01
   7167.00  3.4558189E-01
   7167.33  3.4893862E-01
   7167.67  3.5251260E-01
   7168.00  3.5628982E-01
   7168.33  3.6027393E-01
   7168.67  3.6441886E-01
   7169.00  3.6870135E-01
   7169.33  3.7310352E-01
   7169.67  3.7757602E-01
   7170.00  3.8208340E-01
   7170.33  3.8657636E-01
   7170.67  3.9099816E-01
   7171.00  3.9528352E-01
   7171.33  3.9928945E-01
   7171.67  4.0286058E-01
   7172.00  4.0576443E-01
