    FDMNES
    energy     <xanes>
   7097.00  4.7805962E-03
   7097.33  4.8942645E-03
   7097.67  5.0132782E-03
   7098.00  5.1380186E-03
   7098.33  5.2697566E-03
   7098.67  5.4082674E-03
   7099.00  5.5540791E-03
   7099.33  5.7088802E-03
   7099.67  5.8724521E-03
   7100.00  6.0455476E-03
   7100.33  6.2304746E-03
   7100.67  6.4270556E-03
   7101.00  6.6364001E-03
   7101.33  6.8617706E-03
   7101.67  7.1031065E-03
   7102.00  7.3621093E-03
   7102.33  7.6435806E-03
   7102.67  7.9477450E-03
   7103.00  8.2773379E-03
   7103.33  8.6397825E-03
   7103.67  9.0359730E-03
   7104.00  9.4705715E-03
   7104.33  9.9557744E-03
   7104.67  1.0494082E-02
   7105.00  1.1094042E-02
   7105.33  1.1777312E-02
   7105.67  1.2550477E-02
   7106.00  1.3430773E-02
   7106.33  1.4460817E-02
   7106.67  1.5658678E-02
   7107.00  1.7063911E-02
   7107.33  1.8773198E-02
   7107.67  2.0842426E-02
   7108.00  2.3380973E-02
   7108.33  2.6659822E-02
   7108.67  3.0894476E-02
   7109.00  3.6489670E-02
   7109.33  4.4514313E-02
   7109.67  5.6187465E-02
   7110.00  7.3896625E-02
   7110.33  1.0449178E-01
   7110.67  1.5493746E-01
   7111.00  2.2492167E-01
   7111.33  2.8884842E-01
   7111.67  3.4189096E-01
   7112.00  3.9845551E-01
   7112.33  4.4597536E-01
   7112.67  4.5651434E-01
   7113.00  4.0257615E-01
   7113.33  2.9615570E-01
   7113.67  2.1148344E-01
   7114.00  1.5983758E-01
   7114.33  1.3147711E-01
   7114.67  1.1354354E-01
   7115.00  1.0227060E-01
   7115.33  9.7929484E-02
   7115.67  1.0106523E-01
   7116.00  1.1289648E-01
   7116.33  1.3031811E-01
   7116.67  1.3834489E-01
   7117.00  1.3077216E-01
   7117.33  1.1690082E-01
   7117.67  1.0576861E-01
   7118.00  9.8915624E-02
   7118.33  9.5839126E-02
   7118.67  9.4700582E-02
   7119.00  9.4962109E-02
   7119.33  9.6557700E-02
   7119.67  9.8907063E-02
   7120.00  1.0166563E-01
   7120.33  1.0489800E-01
   7120.67  1.0886429E-01
   7121.00  1.1381322E-01
   7121.33  1.1997176E-01
   7121.67  1.2699616E-01
   7122.00  1.3447422E-01
   7122.33  1.4193203E-01
   7122.67  1.4928887E-01
   7123.00  1.5686689E-01
   7123.33  1.6554341E-01
   7123.67  1.7628289E-01
   7124.00  1.9005543E-01
   7124.33  2.0775630E-01
   7124.67  2.2843610E-01
   7125.00  2.5197412E-01
   7125.33  2.7965511E-01
   7125.67  3.1090498E-01
   7126.00  3.4387831E-01
   7126.33  3.7590978E-01
   7126.67  4.0592461E-01
   7127.00  4.3328740E-01
   7127.33  4.5622849E-01
   7127.67  4.7494701E-01
   7128.00  4.9101268E-01
   7128.33  5.0728000E-01
   7128.67  5.2545256E-01
   7129.00  5.4495954E-01
   7129.33  5.6290356E-01
   7129.67  5.7621599E-01
   7130.00  5.8307886E-01
   7130.33  5.8275594E-01
   7130.67  5.7820541E-01
   7131.00  5.7190705E-01
   7131.33  5.6665299E-01
   7131.67  5.6465021E-01
   7132.00  5.6768221E-01
   7132.33  5.7817149E-01
   7132.67  5.9588378E-01
   7133.00  6.2029595E-01
   7133.33  6.5025856E-01
   7133.67  6.8250144E-01
   7134.00  7.1453142E-01
   7134.33  7.4355421E-01
   7134.67  7.6819515E-01
   7135.00  7.8731624E-01
   7135.33  7.9905820E-01
   7135.67  8.0395678E-01
   7136.00  8.0256059E-01
   7136.33  7.9577840E-01
   7136.67  7.8642853E-01
   7137.00  7.7653754E-01
   7137.33  7.6807151E-01
   7137.67  7.6167547E-01
   7138.00  7.5723879E-01
   7138.33  7.5412828E-01
   7138.67  7.5111469E-01
   7139.00  7.4733643E-01
   7139.33  7.4194069E-01
   7139.67  7.3487437E-01
   7140.00  7.2625052E-01
   7140.33  7.1629612E-01
   7140.67  7.0565171E-01
   7141.00  6.9473328E-01
   7141.33  6.8393951E-01
   7141.67  6.7347383E-01
   7142.00  6.6336944E-01
   7142.33  6.5353373E-01
   7142.67  6.4370308E-01
   7143.00  6.3365883E-01
   7143.33  6.2316152E-01
   7143.67  6.1221164E-01
   7144.00  6.0090409E-01
   7144.33  5.8949098E-01
   7144.67  5.7837593E-01
   7145.00  5.6795534E-01
   7145.33  5.5885258E-01
   7145.67  5.5136389E-01
   7146.00  5.4580439E-01
   7146.33  5.4268964E-01
   7146.67  5.4183917E-01
   7147.00  5.4321727E-01
   7147.33  5.4689503E-01
   7147.67  5.5227268E-01
   7148.00  5.5895139E-01
   7148.33  5.6651333E-01
   7148.67  5.7437880E-01
   7149.00  5.8222016E-01
   7149.33  5.8974493E-01
   7149.67  5.9683422E-01
   7150.00  6.0340136E-01
   7150.33  6.0931527E-01
   7150.67  6.1462391E-01
   7151.00  6.1929731E-01
   7151.33  6.2318470E-01
   7151.67  6.2627887E-01
   7152.00  6.2847761E-01
   7152.33  6.2952071E-01
   7152.67  6.2941354E-01
   7153.00  6.2807163E-01
   7153.33  6.2526948E-01
   7153.67  6.2115238E-01
   7154.00  6.1574374E-01
   7154.33  6.0895629E-01
   7154.67  6.0104369E-01
   7155.00  5.9212155E-01
   7155.33  5.8223748E-01
   7155.67  5.7166253E-01
   7156.00  5.6056202E-01
   7156.33  5.4912751E-01
   7156.67  5.3765286E-01
   7157.00  5.2636433E-01
   7157.33  5.1556226E-01
   7157.67  5.0539992E-01
   7158.00  4.9601408E-01
   7158.33  4.8762086E-01
   7158.67  4.8015988E-01
   7159.00  4.7363256E-01
   7159.33  4.6810763E-01
   7159.67  4.6339030E-01
   7160.00  4.5938359E-01
   7160.33  4.5602770E-01
   7160.67  4.5311110E-01
   7161.00  4.5051876E-01
   7161.33  4.4815617E-01
   7161.67  4.4590049E-01
   7162.00  4.4369072E-01
   7162.33  4.4148229E-01
   7162.67  4.3925383E-01
   7163.00  4.3699910E-01
   7163.33  4.3472216E-01
   7163.67  4.3244439E-01
   7164.00  4.3018245E-01
   7164.33  4.2795246E-01
   7164.67  4.2575214E-01
   7165.00  4.2357574E-01
   7165.33  4.2141614E-01
   7165.67  4.1926391E-01
   7166.00  4.1711719E-01
   7166.33  4.1498402E-01
   7166.67  4.1287772E-01
   7167.00  4.1081350E-01
   7167.33  4.0881340E-01
   7167.67  4.0687908E-01
   7168.00  4.0501281E-01
   7168.33  4.0322298E-01
   7168.67  4.0150770E-01
   7169.00  3.9988738E-01
   7169.33  3.9841961E-01
   7169.67  3.9714110E-01
   7170.00  3.9610424E-01
   7170.33  3.9540258E-01
   7170.67  3.9503484E-01
   7171.00  3.9500342E-01
   7171.33  3.9529894E-01
   7171.67  3.9576726E-01
   7172.00  3.9624385E-01
