    FDMNES
    energy     <xanes>
   7097.00  5.4241281E-03
   7097.33  5.5655511E-03
   7097.67  5.7140163E-03
   7098.00  5.8700382E-03
   7098.33  6.0353107E-03
   7098.67  6.2095525E-03
   7099.00  6.3934772E-03
   7099.33  6.5893437E-03
   7099.67  6.7968799E-03
   7100.00  7.0171037E-03
   7100.33  7.2531116E-03
   7100.67  7.5046867E-03
   7101.00  7.7733287E-03
   7101.33  8.0634226E-03
   7101.67  8.3749070E-03
   7102.00  8.7100775E-03
   7102.33  9.0753902E-03
   7102.67  9.4711596E-03
   7103.00  9.9010641E-03
   7103.33  1.0375070E-02
   7103.67  1.0894367E-02
   7104.00  1.1465190E-02
   7104.33  1.2103849E-02
   7104.67  1.2813613E-02
   7105.00  1.3605820E-02
   7105.33  1.4509212E-02
   7105.67  1.5532274E-02
   7106.00  1.6697578E-02
   7106.33  1.8060953E-02
   7106.67  1.9645264E-02
   7107.00  2.1501268E-02
   7107.33  2.3752901E-02
   7107.67  2.6468923E-02
   7108.00  2.9785119E-02
   7108.33  3.4036020E-02
   7108.67  3.9474540E-02
   7109.00  4.6575225E-02
   7109.33  5.6571362E-02
   7109.67  7.0784953E-02
   7110.00  9.1774663E-02
   7110.33  1.2685226E-01
   7110.67  1.8462139E-01
   7111.00  2.7237204E-01
   7111.33  3.8144476E-01
   7111.67  4.9199254E-01
   7112.00  5.9707929E-01
   7112.33  6.6890942E-01
   7112.67  6.7317391E-01
   7113.00  5.7848027E-01
   7113.33  4.2760190E-01
   7113.67  3.0612188E-01
   7114.00  2.2600224E-01
   7114.33  1.7910241E-01
   7114.67  1.5104603E-01
   7115.00  1.3665864E-01
   7115.33  1.3238548E-01
   7115.67  1.2951981E-01
   7116.00  1.2346789E-01
   7116.33  1.1865888E-01
   7116.67  1.1874235E-01
   7117.00  1.2113306E-01
   7117.33  1.2004557E-01
   7117.67  1.1659694E-01
   7118.00  1.1422534E-01
   7118.33  1.1573587E-01
   7118.67  1.2111605E-01
   7119.00  1.2853959E-01
   7119.33  1.3446222E-01
   7119.67  1.3853743E-01
   7120.00  1.4274617E-01
   7120.33  1.4970934E-01
   7120.67  1.6059566E-01
   7121.00  1.7624648E-01
   7121.33  1.9824171E-01
   7121.67  2.2664938E-01
   7122.00  2.6142915E-01
   7122.33  3.0065972E-01
   7122.67  3.3871457E-01
   7123.00  3.7214673E-01
   7123.33  4.0198810E-01
   7123.67  4.3309836E-01
   7124.00  4.6696576E-01
   7124.33  5.0057448E-01
   7124.67  5.2766398E-01
   7125.00  5.4331796E-01
   7125.33  5.4500112E-01
   7125.67  5.3903674E-01
   7126.00  5.3125560E-01
   7126.33  5.2681121E-01
   7126.67  5.2618865E-01
   7127.00  5.2725261E-01
   7127.33  5.2602144E-01
   7127.67  5.2056191E-01
   7128.00  5.1126051E-01
   7128.33  4.9983552E-01
   7128.67  4.8850466E-01
   7129.00  4.7845912E-01
   7129.33  4.7080940E-01
   7129.67  4.6566942E-01
   7130.00  4.6299886E-01
   7130.33  4.6263732E-01
   7130.67  4.6376231E-01
   7131.00  4.6605556E-01
   7131.33  4.6969261E-01
   7131.67  4.7472972E-01
   7132.00  4.8103655E-01
   7132.33  4.8790030E-01
   7132.67  4.9422595E-01
   7133.00  4.9944399E-01
   7133.33  5.0335753E-01
   7133.67  5.0644653E-01
   7134.00  5.0898909E-01
   7134.33  5.1101747E-01
   7134.67  5.1240546E-01
   7135.00  5.1288409E-01
   7135.33  5.1210500E-01
   7135.67  5.1032904E-01
   7136.00  5.0795897E-01
   7136.33  5.0564945E-01
   7136.67  5.0398270E-01
   7137.00  5.0329410E-01
   7137.33  5.0394805E-01
   7137.67  5.0593412E-01
   7138.00  5.0936338E-01
   7138.33  5.1454618E-01
   7138.67  5.2135387E-01
   7139.00  5.2978426E-01
   7139.33  5.3996157E-01
   7139.67  5.5156973E-01
   7140.00  5.6448391E-01
   7140.33  5.7870025E-01
   7140.67  5.9392689E-01
   7141.00  6.1003247E-01
   7141.33  6.2693312E-01
   7141.67  6.4432918E-01
   7142.00  6.6199433E-01
   7142.33  6.7959818E-01
   7142.67  6.9676321E-01
   7143.00  7.1312556E-01
   7143.33  7.2810379E-01
   7143.67  7.4146729E-01
   7144.00  7.5295208E-01
   7144.33  7.6209586E-01
   7144.67  7.6908989E-01
   7145.00  7.7398403E-01
   7145.33  7.7670304E-01
   7145.67  7.7772926E-01
   7146.00  7.7728672E-01
   7146.33  7.7545988E-01
   7146.67  7.7259278E-01
   7147.00  7.6881139E-01
   7147.33  7.6414135E-01
   7147.67  7.5880840E-01
   7148.00  7.5293852E-01
   7148.33  7.4665471E-01
   7148.67  7.4018454E-01
   7149.00  7.3367905E-01
   7149.33  7.2730289E-01
   7149.67  7.2114880E-01
   7150.00  7.1526820E-01
   7150.33  7.0971243E-01
   7150.67  7.0442354E-01
   7151.00  6.9936240E-01
   7151.33  6.9448622E-01
   7151.67  6.8969847E-01
   7152.00  6.8492802E-01
   7152.33  6.8007760E-01
   7152.67  6.7506406E-01
   7153.00  6.6980836E-01
   7153.33  6.6417978E-01
   7153.67  6.5813749E-01
   7154.00  6.5162085E-01
   7154.33  6.4450960E-01
   7154.67  6.3683864E-01
   7155.00  6.2860280E-01
   7155.33  6.1975250E-01
   7155.67  6.1040029E-01
   7156.00  6.0060211E-01
   7156.33  5.9039226E-01
   7156.67  5.7990617E-01
   7157.00  5.6922347E-01
   7157.33  5.5842164E-01
   7157.67  5.4759972E-01
   7158.00  5.3682571E-01
   7158.33  5.2618434E-01
   7158.67  5.1571982E-01
   7159.00  5.0547397E-01
   7159.33  4.9551746E-01
   7159.67  4.8584484E-01
   7160.00  4.7647034E-01
   7160.33  4.6744332E-01
   7160.67  4.5873139E-01
   7161.00  4.5033782E-01
   7161.33  4.4230710E-01
   7161.67  4.3460562E-01
   7162.00  4.2724273E-01
   7162.33  4.2027872E-01
   7162.67  4.1368990E-01
   7163.00  4.0749591E-01
   7163.33  4.0177247E-01
   7163.67  3.9648981E-01
   7164.00  3.9166412E-01
   7164.33  3.8736665E-01
   7164.67  3.8354362E-01
   7165.00  3.8019210E-01
   7165.33  3.7735553E-01
   7165.67  3.7495208E-01
   7166.00  3.7295384E-01
   7166.33  3.7136447E-01
   7166.67  3.7008677E-01
   7167.00  3.6907304E-01
   7167.33  3.6829175E-01
   7167.67  3.6766038E-01
   7168.00  3.6713414E-01
   7168.33  3.6667600E-01
   7168.67  3.6624462E-01
   7169.00  3.6582151E-01
   7169.33  3.6539798E-01
   7169.67  3.6497763E-01
   7170.00  3.6457086E-01
   7170.33  3.6419790E-01
   7170.67  3.6387161E-01
   7171.00  3.6360333E-01
   7171.33  3.6340677E-01
   7171.67  3.6326563E-01
   7172.00  3.6315756E-01
