    FDMNES
    energy     <xanes>
   7097.00  5.1447612E-03
   7097.33  5.2674413E-03
   7097.67  5.3957508E-03
   7098.00  5.5300732E-03
   7098.33  5.6717154E-03
   7098.67  5.8204141E-03
   7099.00  5.9766917E-03
   7099.33  6.1422583E-03
   7099.67  6.3168439E-03
   7100.00  6.5011788E-03
   7100.33  6.6975582E-03
   7100.67  6.9057306E-03
   7101.00  7.1267484E-03
   7101.33  7.3637854E-03
   7101.67  7.6166652E-03
   7102.00  7.8869596E-03
   7102.33  8.1792186E-03
   7102.67  8.4934648E-03
   7103.00  8.8321492E-03
   7103.33  9.2020871E-03
   7103.67  9.6037820E-03
   7104.00  1.0041263E-02
   7104.33  1.0525312E-02
   7104.67  1.1057582E-02
   7105.00  1.1645154E-02
   7105.33  1.2306319E-02
   7105.67  1.3045595E-02
   7106.00  1.3876557E-02
   7106.33  1.4833257E-02
   7106.67  1.5927984E-02
   7107.00  1.7190046E-02
   7107.33  1.8691585E-02
   7107.67  2.0469203E-02
   7108.00  2.2598002E-02
   7108.33  2.5263381E-02
   7108.67  2.8597415E-02
   7109.00  3.2851833E-02
   7109.33  3.8678924E-02
   7109.67  4.6754985E-02
   7110.00  5.8393108E-02
   7110.33  7.7335856E-02
   7110.67  1.0797928E-01
   7111.00  1.5435434E-01
   7111.33  2.1246883E-01
   7111.67  2.6763098E-01
   7112.00  3.1553572E-01
   7112.33  3.4659515E-01
   7112.67  3.5146523E-01
   7113.00  3.4784402E-01
   7113.33  3.6932091E-01
   7113.67  4.0920111E-01
   7114.00  4.3619914E-01
   7114.33  4.1904488E-01
   7114.67  3.7558052E-01
   7115.00  3.2762354E-01
   7115.33  2.8991263E-01
   7115.67  2.6361227E-01
   7116.00  2.4653939E-01
   7116.33  2.3415900E-01
   7116.67  2.2027386E-01
   7117.00  2.0210347E-01
   7117.33  1.8054277E-01
   7117.67  1.6087585E-01
   7118.00  1.4618294E-01
   7118.33  1.3782014E-01
   7118.67  1.3441173E-01
   7119.00  1.3542493E-01
   7119.33  1.4046625E-01
   7119.67  1.4685923E-01
   7120.00  1.5228295E-01
   7120.33  1.5589457E-01
   7120.67  1.5899349E-01
   7121.00  1.6155982E-01
   7121.33  1.6162943E-01
   7121.67  1.5872145E-01
   7122.00  1.5438420E-01
   7122.33  1.5146044E-01
   7122.67  1.5123227E-01
   7123.00  1.5390660E-01
   7123.33  1.5978313E-01
   7123.67  1.6869954E-01
   7124.00  1.8103325E-01
   7124.33  1.9762133E-01
   7124.67  2.1781160E-01
   7125.00  2.4069302E-01
   7125.33  2.6459474E-01
   7125.67  2.8766620E-01
   7126.00  3.0905725E-01
   7126.33  3.2828682E-01
   7126.67  3.4573365E-01
   7127.00  3.6181970E-01
   7127.33  3.7791547E-01
   7127.67  3.9636248E-01
   7128.00  4.1925044E-01
   7128.33  4.4880066E-01
   7128.67  4.8431971E-01
   7129.00  5.2495207E-01
   7129.33  5.6982681E-01
   7129.67  6.1687435E-01
   7130.00  6.6415875E-01
   7130.33  7.0802065E-01
   7130.67  7.4521219E-01
   7131.00  7.7382623E-01
   7131.33  7.9335831E-01
   7131.67  8.0760326E-01
   7132.00  8.1919011E-01
   7132.33  8.2992350E-01
   7132.67  8.4040428E-01
   7133.00  8.5041197E-01
   7133.33  8.5935490E-01
   7133.67  8.6683194E-01
   7134.00  8.7230060E-01
   7134.33  8.7456295E-01
   7134.67  8.7296914E-01
   7135.00  8.6669978E-01
   7135.33  8.5446651E-01
   7135.67  8.3685229E-01
   7136.00  8.1423118E-01
   7136.33  7.8689259E-01
   7136.67  7.5643541E-01
   7137.00  7.2393284E-01
   7137.33  6.9069035E-01
   7137.67  6.5822049E-01
   7138.00  6.2763975E-01
   7138.33  6.0029909E-01
   7138.67  5.7639946E-01
   7139.00  5.5608821E-01
   7139.33  5.3967128E-01
   7139.67  5.2639648E-01
   7140.00  5.1593024E-01
   7140.33  5.0819793E-01
   7140.67  5.0257333E-01
   7141.00  4.9882976E-01
   7141.33  4.9696039E-01
   7141.67  4.9659179E-01
   7142.00  4.9761009E-01
   7142.33  5.0005192E-01
   7142.67  5.0362996E-01
   7143.00  5.0821361E-01
   7143.33  5.1371560E-01
   7143.67  5.1979306E-01
   7144.00  5.2619370E-01
   7144.33  5.3256864E-01
   7144.67  5.3852829E-01
   7145.00  5.4373261E-01
   7145.33  5.4770017E-01
   7145.67  5.5032340E-01
   7146.00  5.5150110E-01
   7146.33  5.5108328E-01
   7146.67  5.4941942E-01
   7147.00  5.4674389E-01
   7147.33  5.4329524E-01
   7147.67  5.3948722E-01
   7148.00  5.3556918E-01
   7148.33  5.3177714E-01
   7148.67  5.2823589E-01
   7149.00  5.2501162E-01
   7149.33  5.2218032E-01
   7149.67  5.1968808E-01
   7150.00  5.1750317E-01
   7150.33  5.1561359E-01
   7150.67  5.1394854E-01
   7151.00  5.1249026E-01
   7151.33  5.1126805E-01
   7151.67  5.1028566E-01
   7152.00  5.0958703E-01
   7152.33  5.0927870E-01
   7152.67  5.0938142E-01
   7153.00  5.0994141E-01
   7153.33  5.1105422E-01
   7153.67  5.1266521E-01
   7154.00  5.1475642E-01
   7154.33  5.1733500E-01
   7154.67  5.2027729E-01
   7155.00  5.2351153E-01
   7155.33  5.2697247E-01
   7155.67  5.3054408E-01
   7156.00  5.3415299E-01
   7156.33  5.3771743E-01
   7156.67  5.4117440E-01
   7157.00  5.4447350E-01
   7157.33  5.4754106E-01
   7157.67  5.5036461E-01
   7158.00  5.5291649E-01
   7158.33  5.5512987E-01
   7158.67  5.5701353E-01
   7159.00  5.5854146E-01
   7159.33  5.5963329E-01
   7159.67  5.6030506E-01
   7160.00  5.6053073E-01
   7160.33  5.6022648E-01
   7160.67  5.5943263E-01
   7161.00  5.5813890E-01
   7161.33  5.5627885E-01
   7161.67  5.5392412E-01
   7162.00  5.5109358E-01
   7162.33  5.4776100E-01
   7162.67  5.4401133E-01
   7163.00  5.3988235E-01
   7163.33  5.3539826E-01
   7163.67  5.3066861E-01
   7164.00  5.2575421E-01
   7164.33  5.2070901E-01
   7164.67  5.1561128E-01
   7165.00  5.1051061E-01
   7165.33  5.0546363E-01
   7165.67  5.0050935E-01
   7166.00  4.9568126E-01
   7166.33  4.9102968E-01
   7166.67  4.8655822E-01
   7167.00  4.8228251E-01
   7167.33  4.7824159E-01
   7167.67  4.7441651E-01
   7168.00  4.7080980E-01
   7168.33  4.6744858E-01
   7168.67  4.6430291E-01
   7169.00  4.6136938E-01
   7169.33  4.5866904E-01
   7169.67  4.5616929E-01
   7170.00  4.5386378E-01
   7170.33  4.5176997E-01
   7170.67  4.4986065E-01
   7171.00  4.4813611E-01
   7171.33  4.4662901E-01
   7171.67  4.4533993E-01
   7172.00  4.4430471E-01
