    FDMNES
    energy     <xanes>
   7097.00  5.5043192E-03
   7097.33  5.6507341E-03
   7097.67  5.8044466E-03
   7098.00  5.9659792E-03
   7098.33  6.1370676E-03
   7098.67  6.3174027E-03
   7099.00  6.5077006E-03
   7099.33  6.7102546E-03
   7099.67  6.9247516E-03
   7100.00  7.1521986E-03
   7100.33  7.3956999E-03
   7100.67  7.6549741E-03
   7101.00  7.9314773E-03
   7101.33  8.2295341E-03
   7101.67  8.5489705E-03
   7102.00  8.8919641E-03
   7102.33  9.2647459E-03
   7102.67  9.6674145E-03
   7103.00  1.0103357E-02
   7103.33  1.0581922E-02
   7103.67  1.1103844E-02
   7104.00  1.1674650E-02
   7104.33  1.2309071E-02
   7104.67  1.3009314E-02
   7105.00  1.3784946E-02
   7105.33  1.4660644E-02
   7105.67  1.5642139E-02
   7106.00  1.6747261E-02
   7106.33  1.8020736E-02
   7106.67  1.9477310E-02
   7107.00  2.1153621E-02
   7107.33  2.3139693E-02
   7107.67  2.5476025E-02
   7108.00  2.8248726E-02
   7108.33  3.1667964E-02
   7108.67  3.5861678E-02
   7109.00  4.1077103E-02
   7109.33  4.7931311E-02
   7109.67  5.6947293E-02
   7110.00  6.9112828E-02
   7110.33  8.7069684E-02
   7110.67  1.1364517E-01
   7111.00  1.5285059E-01
   7111.33  2.1347354E-01
   7111.67  3.0722616E-01
   7112.00  4.5205208E-01
   7112.33  6.5872265E-01
   7112.67  8.5239219E-01
   7113.00  9.3457542E-01
   7113.33  8.4701514E-01
   7113.67  6.8500022E-01
   7114.00  5.2935788E-01
   7114.33  4.1744504E-01
   7114.67  3.3888215E-01
   7115.00  2.8412653E-01
   7115.33  2.4664531E-01
   7115.67  2.1925820E-01
   7116.00  1.9924128E-01
   7116.33  1.8553665E-01
   7116.67  1.7693249E-01
   7117.00  1.7362198E-01
   7117.33  1.7566439E-01
   7117.67  1.7891790E-01
   7118.00  1.7965624E-01
   7118.33  1.7736899E-01
   7118.67  1.7427084E-01
   7119.00  1.7075952E-01
   7119.33  1.6612820E-01
   7119.67  1.5995973E-01
   7120.00  1.5255797E-01
   7120.33  1.4580926E-01
   7120.67  1.4157232E-01
   7121.00  1.4012432E-01
   7121.33  1.4101129E-01
   7121.67  1.4315448E-01
   7122.00  1.4599816E-01
   7122.33  1.4899717E-01
   7122.67  1.5168761E-01
   7123.00  1.5414456E-01
   7123.33  1.5733940E-01
   7123.67  1.6211612E-01
   7124.00  1.6872179E-01
   7124.33  1.7728317E-01
   7124.67  1.8752742E-01
   7125.00  1.9948059E-01
   7125.33  2.1311251E-01
   7125.67  2.2750472E-01
   7126.00  2.4188562E-01
   7126.33  2.5589962E-01
   7126.67  2.7017181E-01
   7127.00  2.8545182E-01
   7127.33  3.0241336E-01
   7127.67  3.2085847E-01
   7128.00  3.4070813E-01
   7128.33  3.6234753E-01
   7128.67  3.8604370E-01
   7129.00  4.1224871E-01
   7129.33  4.4170135E-01
   7129.67  4.7416380E-01
   7130.00  5.0948537E-01
   7130.33  5.4743027E-01
   7130.67  5.8679613E-01
   7131.00  6.2653666E-01
   7131.33  6.6509643E-01
   7131.67  7.0114575E-01
   7132.00  7.3353216E-01
   7132.33  7.6035907E-01
   7132.67  7.8095278E-01
   7133.00  7.9424265E-01
   7133.33  7.9820733E-01
   7133.67  7.9344512E-01
   7134.00  7.8014332E-01
   7134.33  7.5819040E-01
   7134.67  7.2991006E-01
   7135.00  6.9671141E-01
   7135.33  6.5990523E-01
   7135.67  6.2147666E-01
   7136.00  5.8259363E-01
   7136.33  5.4451200E-01
   7136.67  5.0823715E-01
   7137.00  4.7473059E-01
   7137.33  4.4555136E-01
   7137.67  4.2107508E-01
   7138.00  4.0176730E-01
   7138.33  3.8854483E-01
   7138.67  3.8072413E-01
   7139.00  3.7815378E-01
   7139.33  3.8114046E-01
   7139.67  3.8863241E-01
   7140.00  4.0016735E-01
   7140.33  4.1552446E-01
   7140.67  4.3351058E-01
   7141.00  4.5337637E-01
   7141.33  4.7433046E-01
   7141.67  4.9543752E-01
   7142.00  5.1620497E-01
   7142.33  5.3629021E-01
   7142.67  5.5575253E-01
   7143.00  5.7465627E-01
   7143.33  5.9297485E-01
   7143.67  6.1070964E-01
   7144.00  6.2772507E-01
   7144.33  6.4369151E-01
   7144.67  6.5849680E-01
   7145.00  6.7196141E-01
   7145.33  6.8375049E-01
   7145.67  6.9398358E-01
   7146.00  7.0267340E-01
   7146.33  7.0973724E-01
   7146.67  7.1553085E-01
   7147.00  7.2024746E-01
   7147.33  7.2403248E-01
   7147.67  7.2723821E-01
   7148.00  7.3006320E-01
   7148.33  7.3268979E-01
   7148.67  7.3531049E-01
   7149.00  7.3804399E-01
   7149.33  7.4102923E-01
   7149.67  7.4431440E-01
   7150.00  7.4792906E-01
   7150.33  7.5192016E-01
   7150.67  7.5622385E-01
   7151.00  7.6079876E-01
   7151.33  7.6559377E-01
   7151.67  7.7046412E-01
   7152.00  7.7526824E-01
   7152.33  7.7977129E-01
   7152.67  7.8377494E-01
   7153.00  7.8706516E-01
   7153.33  7.8927028E-01
   7153.67  7.9028180E-01
   7154.00  7.8993690E-01
   7154.33  7.8791244E-01
   7154.67  7.8432668E-01
   7155.00  7.7917774E-01
   7155.33  7.7233695E-01
   7155.67  7.6410876E-01
   7156.00  7.5462831E-01
   7156.33  7.4394376E-01
   7156.67  7.3238219E-01
   7157.00  7.2010865E-01
   7157.33  7.0723679E-01
   7157.67  6.9399136E-01
   7158.00  6.8048815E-01
   7158.33  6.6682576E-01
   7158.67  6.5312045E-01
   7159.00  6.3944093E-01
   7159.33  6.2586381E-01
   7159.67  6.1243739E-01
   7160.00  5.9920984E-01
   7160.33  5.8626528E-01
   7160.67  5.7362692E-01
   7161.00  5.6134251E-01
   7161.33  5.4951346E-01
   7161.67  5.3813255E-01
   7162.00  5.2723053E-01
   7162.33  5.1689601E-01
   7162.67  5.0708011E-01
   7163.00  4.9778624E-01
   7163.33  4.8907247E-01
   7163.67  4.8085932E-01
   7164.00  4.7312857E-01
   7164.33  4.6590891E-01
   7164.67  4.5910804E-01
   7165.00  4.5268937E-01
   7165.33  4.4664279E-01
   7165.67  4.4086542E-01
   7166.00  4.3529525E-01
   7166.33  4.2986771E-01
   7166.67  4.2448450E-01
   7167.00  4.1908315E-01
   7167.33  4.1359840E-01
   7167.67  4.0800282E-01
   7168.00  4.0228474E-01
   7168.33  3.9644096E-01
   7168.67  3.9052005E-01
   7169.00  3.8456536E-01
   7169.33  3.7863854E-01
   7169.67  3.7279842E-01
   7170.00  3.6709761E-01
   7170.33  3.6161878E-01
   7170.67  3.5639387E-01
   7171.00  3.5147801E-01
   7171.33  3.4701123E-01
   7171.67  3.4309428E-01
   7172.00  3.3991564E-01
