    FDMNES
    energy     <xanes>
   7097.00  4.9505810E-03
   7097.33  5.0621961E-03
   7097.67  5.1785107E-03
   7098.00  5.2998198E-03
   7098.33  5.4271727E-03
   7098.67  5.5603162E-03
   7099.00  5.6996458E-03
   7099.33  5.8465093E-03
   7099.67  6.0006405E-03
   7100.00  6.1625840E-03
   7100.33  6.3341148E-03
   7100.67  6.5149704E-03
   7101.00  6.7059246E-03
   7101.33  6.9093881E-03
   7101.67  7.1251404E-03
   7102.00  7.3543243E-03
   7102.33  7.6003386E-03
   7102.67  7.8630935E-03
   7103.00  8.1443571E-03
   7103.33  8.4491512E-03
   7103.67  8.7777226E-03
   7104.00  9.1329705E-03
   7104.33  9.5227713E-03
   7104.67  9.9482098E-03
   7105.00  1.0414406E-02
   7105.33  1.0934713E-02
   7105.67  1.1512377E-02
   7106.00  1.2157363E-02
   7106.33  1.2894796E-02
   7106.67  1.3734020E-02
   7107.00  1.4697171E-02
   7107.33  1.5838944E-02
   7107.67  1.7188680E-02
   7108.00  1.8805853E-02
   7108.33  2.0838368E-02
   7108.67  2.3399281E-02
   7109.00  2.6703488E-02
   7109.33  3.1318026E-02
   7109.67  3.7877945E-02
   7110.00  4.7628294E-02
   7110.33  6.4114456E-02
   7110.67  9.0737394E-02
   7111.00  1.2689655E-01
   7111.33  1.6152189E-01
   7111.67  1.9443294E-01
   7112.00  2.3612871E-01
   7112.33  2.7115728E-01
   7112.67  2.6148028E-01
   7113.00  2.2093663E-01
   7113.33  1.8431118E-01
   7113.67  1.5750497E-01
   7114.00  1.3522728E-01
   7114.33  1.1336072E-01
   7114.67  9.6401133E-02
   7115.00  8.6528764E-02
   7115.33  8.3492607E-02
   7115.67  8.5435694E-02
   7116.00  9.2173016E-02
   7116.33  1.0508361E-01
   7116.67  1.2482512E-01
   7117.00  1.5219015E-01
   7117.33  1.8660389E-01
   7117.67  2.2572114E-01
   7118.00  2.7343489E-01
   7118.33  3.3810302E-01
   7118.67  4.0989160E-01
   7119.00  4.6101483E-01
   7119.33  4.6013545E-01
   7119.67  4.3672111E-01
   7120.00  4.1958496E-01
   7120.33  4.2232518E-01
   7120.67  4.3958796E-01
   7121.00  4.6507037E-01
   7121.33  4.9117285E-01
   7121.67  5.1221395E-01
   7122.00  5.2650785E-01
   7122.33  5.3466670E-01
   7122.67  5.3975532E-01
   7123.00  5.4299346E-01
   7123.33  5.4382833E-01
   7123.67  5.4142132E-01
   7124.00  5.3551711E-01
   7124.33  5.2679433E-01
   7124.67  5.1735164E-01
   7125.00  5.0897571E-01
   7125.33  5.0386152E-01
   7125.67  5.0232707E-01
   7126.00  5.0382544E-01
   7126.33  5.0765456E-01
   7126.67  5.1298687E-01
   7127.00  5.1880441E-01
   7127.33  5.2268045E-01
   7127.67  5.2408298E-01
   7128.00  5.2483879E-01
   7128.33  5.2854964E-01
   7128.67  5.3715464E-01
   7129.00  5.5109217E-01
   7129.33  5.6948735E-01
   7129.67  5.8871497E-01
   7130.00  6.0554343E-01
   7130.33  6.1626406E-01
   7130.67  6.1993275E-01
   7131.00  6.1618488E-01
   7131.33  6.0473624E-01
   7131.67  5.8801303E-01
   7132.00  5.6796432E-01
   7132.33  5.4690494E-01
   7132.67  5.2694031E-01
   7133.00  5.0917483E-01
   7133.33  4.9461828E-01
   7133.67  4.8320107E-01
   7134.00  4.7506647E-01
   7134.33  4.7053794E-01
   7134.67  4.6868572E-01
   7135.00  4.6884405E-01
   7135.33  4.7051296E-01
   7135.67  4.7313703E-01
   7136.00  4.7658832E-01
   7136.33  4.8096996E-01
   7136.67  4.8622688E-01
   7137.00  4.9233195E-01
   7137.33  4.9912612E-01
   7137.67  5.0604033E-01
   7138.00  5.1252898E-01
   7138.33  5.1788066E-01
   7138.67  5.2186983E-01
   7139.00  5.2445494E-01
   7139.33  5.2569175E-01
   7139.67  5.2605535E-01
   7140.00  5.2581228E-01
   7140.33  5.2516638E-01
   7140.67  5.2436975E-01
   7141.00  5.2360113E-01
   7141.33  5.2311430E-01
   7141.67  5.2308805E-01
   7142.00  5.2365487E-01
   7142.33  5.2495904E-01
   7142.67  5.2687634E-01
   7143.00  5.2931271E-01
   7143.33  5.3219658E-01
   7143.67  5.3536858E-01
   7144.00  5.3873827E-01
   7144.33  5.4220674E-01
   7144.67  5.4563978E-01
   7145.00  5.4891630E-01
   7145.33  5.5183957E-01
   7145.67  5.5428442E-01
   7146.00  5.5611789E-01
   7146.33  5.5712018E-01
   7146.67  5.5729969E-01
   7147.00  5.5662404E-01
   7147.33  5.5499208E-01
   7147.67  5.5254840E-01
   7148.00  5.4933857E-01
   7148.33  5.4534059E-01
   7148.67  5.4072297E-01
   7149.00  5.3556132E-01
   7149.33  5.2989563E-01
   7149.67  5.2388028E-01
   7150.00  5.1760037E-01
   7150.33  5.1114786E-01
   7150.67  5.0467216E-01
   7151.00  4.9827971E-01
   7151.33  4.9208979E-01
   7151.67  4.8615340E-01
   7152.00  4.8051965E-01
   7152.33  4.7527000E-01
   7152.67  4.7037896E-01
   7153.00  4.6584624E-01
   7153.33  4.6170247E-01
   7153.67  4.5788408E-01
   7154.00  4.5437130E-01
   7154.33  4.5117775E-01
   7154.67  4.4824932E-01
   7155.00  4.4557230E-01
   7155.33  4.4316258E-01
   7155.67  4.4097954E-01
   7156.00  4.3901592E-01
   7156.33  4.3729139E-01
   7156.67  4.3577562E-01
   7157.00  4.3446984E-01
   7157.33  4.3340758E-01
   7157.67  4.3257151E-01
   7158.00  4.3197258E-01
   7158.33  4.3165990E-01
   7158.67  4.3162295E-01
   7159.00  4.3188138E-01
   7159.33  4.3249623E-01
   7159.67  4.3344416E-01
   7160.00  4.3473309E-01
   7160.33  4.3640509E-01
   7160.67  4.3840361E-01
   7161.00  4.4070345E-01
   7161.33  4.4328926E-01
   7161.67  4.4606662E-01
   7162.00  4.4896893E-01
   7162.33  4.5191000E-01
   7162.67  4.5479082E-01
   7163.00  4.5752838E-01
   7163.33  4.5999939E-01
   7163.67  4.6215750E-01
   7164.00  4.6395657E-01
   7164.33  4.6531478E-01
   7164.67  4.6626851E-01
   7165.00  4.6682055E-01
   7165.33  4.6693885E-01
   7165.67  4.6669829E-01
   7166.00  4.6612831E-01
   7166.33  4.6523278E-01
   7166.67  4.6409213E-01
   7167.00  4.6274656E-01
   7167.33  4.6122458E-01
   7167.67  4.5959337E-01
   7168.00  4.5789126E-01
   7168.33  4.5615485E-01
   7168.67  4.5442375E-01
   7169.00  4.5272471E-01
   7169.33  4.5109096E-01
   7169.67  4.4953561E-01
   7170.00  4.4807191E-01
   7170.33  4.4672406E-01
   7170.67  4.4548750E-01
   7171.00  4.4436898E-01
   7171.33  4.4339592E-01
   7171.67  4.4257234E-01
   7172.00  4.4192340E-01
