    FDMNES
    energy     <xanes>
   7097.00  4.9035123E-03
   7097.33  5.0124365E-03
   7097.67  5.1258668E-03
   7098.00  5.2440812E-03
   7098.33  5.3680776E-03
   7098.67  5.4976067E-03
   7099.00  5.6330396E-03
   7099.33  5.7756526E-03
   7099.67  5.9251819E-03
   7100.00  6.0821361E-03
   7100.33  6.2481880E-03
   7100.67  6.4230738E-03
   7101.00  6.6075127E-03
   7101.33  6.8037639E-03
   7101.67  7.0115979E-03
   7102.00  7.2320705E-03
   7102.33  7.4683480E-03
   7102.67  7.7203129E-03
   7103.00  7.9895892E-03
   7103.33  8.2808237E-03
   7103.67  8.5941936E-03
   7104.00  8.9323449E-03
   7104.33  9.3025117E-03
   7104.67  9.7056098E-03
   7105.00  1.0146281E-02
   7105.33  1.0636689E-02
   7105.67  1.1179662E-02
   7106.00  1.1784169E-02
   7106.33  1.2472907E-02
   7106.67  1.3254094E-02
   7107.00  1.4147523E-02
   7107.33  1.5202214E-02
   7107.67  1.6444074E-02
   7108.00  1.7926039E-02
   7108.33  1.9779962E-02
   7108.67  2.2106221E-02
   7109.00  2.5096400E-02
   7109.33  2.9257600E-02
   7109.67  3.5161579E-02
   7110.00  4.3932698E-02
   7110.33  5.8753980E-02
   7110.67  8.2340870E-02
   7111.00  1.1252924E-01
   7111.33  1.3793700E-01
   7111.67  1.6370884E-01
   7112.00  2.0279734E-01
   7112.33  2.4835951E-01
   7112.67  2.5655832E-01
   7113.00  2.2417966E-01
   7113.33  1.8832238E-01
   7113.67  1.6343264E-01
   7114.00  1.4299482E-01
   7114.33  1.2003681E-01
   7114.67  1.0006037E-01
   7115.00  8.7190472E-02
   7115.33  8.1828162E-02
   7115.67  8.1671432E-02
   7116.00  8.6114150E-02
   7116.33  9.5994513E-02
   7116.67  1.1175516E-01
   7117.00  1.3420373E-01
   7117.33  1.6233059E-01
   7117.67  1.9172821E-01
   7118.00  2.2449427E-01
   7118.33  2.7056178E-01
   7118.67  3.3353054E-01
   7119.00  4.0670630E-01
   7119.33  4.5974084E-01
   7119.67  4.7308497E-01
   7120.00  4.6097049E-01
   7120.33  4.5101065E-01
   7120.67  4.5294803E-01
   7121.00  4.6570761E-01
   7121.33  4.8675882E-01
   7121.67  5.1114573E-01
   7122.00  5.3547716E-01
   7122.33  5.5652996E-01
   7122.67  5.7316977E-01
   7123.00  5.8466850E-01
   7123.33  5.8882305E-01
   7123.67  5.8495204E-01
   7124.00  5.7369003E-01
   7124.33  5.5873256E-01
   7124.67  5.4591181E-01
   7125.00  5.3836095E-01
   7125.33  5.3725275E-01
   7125.67  5.3980388E-01
   7126.00  5.4380387E-01
   7126.33  5.4672894E-01
   7126.67  5.4695539E-01
   7127.00  5.4447240E-01
   7127.33  5.4036628E-01
   7127.67  5.3550596E-01
   7128.00  5.2978876E-01
   7128.33  5.2435923E-01
   7128.67  5.2236509E-01
   7129.00  5.2649972E-01
   7129.33  5.3847946E-01
   7129.67  5.5552803E-01
   7130.00  5.7468398E-01
   7130.33  5.9204958E-01
   7130.67  6.0455473E-01
   7131.00  6.0995887E-01
   7131.33  6.0582642E-01
   7131.67  5.9374491E-01
   7132.00  5.7548155E-01
   7132.33  5.5331176E-01
   7132.67  5.3033102E-01
   7133.00  5.0847437E-01
   7133.33  4.8974726E-01
   7133.67  4.7468043E-01
   7134.00  4.6334466E-01
   7134.33  4.5554690E-01
   7134.67  4.5008447E-01
   7135.00  4.4645679E-01
   7135.33  4.4454867E-01
   7135.67  4.4405804E-01
   7136.00  4.4501260E-01
   7136.33  4.4775608E-01
   7136.67  4.5227021E-01
   7137.00  4.5864358E-01
   7137.33  4.6702067E-01
   7137.67  4.7685471E-01
   7138.00  4.8769216E-01
   7138.33  4.9893712E-01
   7138.67  5.0989626E-01
   7139.00  5.2009064E-01
   7139.33  5.2898526E-01
   7139.67  5.3652708E-01
   7140.00  5.4268784E-01
   7140.33  5.4741932E-01
   7140.67  5.5110584E-01
   7141.00  5.5398434E-01
   7141.33  5.5624455E-01
   7141.67  5.5813601E-01
   7142.00  5.5972980E-01
   7142.33  5.6098417E-01
   7142.67  5.6188442E-01
   7143.00  5.6239054E-01
   7143.33  5.6243365E-01
   7143.67  5.6208813E-01
   7144.00  5.6141162E-01
   7144.33  5.6048357E-01
   7144.67  5.5946442E-01
   7145.00  5.5846570E-01
   7145.33  5.5759918E-01
   7145.67  5.5688705E-01
   7146.00  5.5630332E-01
   7146.33  5.5575935E-01
   7146.67  5.5510948E-01
   7147.00  5.5421626E-01
   7147.33  5.5287897E-01
   7147.67  5.5102748E-01
   7148.00  5.4859470E-01
   7148.33  5.4546979E-01
   7148.67  5.4174428E-01
   7149.00  5.3746053E-01
   7149.33  5.3262354E-01
   7149.67  5.2736399E-01
   7150.00  5.2173485E-01
   7150.33  5.1575457E-01
   7150.67  5.0953179E-01
   7151.00  5.0313556E-01
   7151.33  4.9662057E-01
   7151.67  4.9006043E-01
   7152.00  4.8350811E-01
   7152.33  4.7703576E-01
   7152.67  4.7069590E-01
   7153.00  4.6453763E-01
   7153.33  4.5864281E-01
   7153.67  4.5302899E-01
   7154.00  4.4773066E-01
   7154.33  4.4282411E-01
   7154.67  4.3828977E-01
   7155.00  4.3413979E-01
   7155.33  4.3042613E-01
   7155.67  4.2709411E-01
   7156.00  4.2413270E-01
   7156.33  4.2156923E-01
   7156.67  4.1934318E-01
   7157.00  4.1744496E-01
   7157.33  4.1591346E-01
   7157.67  4.1471891E-01
   7158.00  4.1388006E-01
   7158.33  4.1347477E-01
   7158.67  4.1348858E-01
   7159.00  4.1394954E-01
   7159.33  4.1494360E-01
   7159.67  4.1642669E-01
   7160.00  4.1839979E-01
   7160.33  4.2090631E-01
   7160.67  4.2385036E-01
   7161.00  4.2718323E-01
   7161.33  4.3086463E-01
   7161.67  4.3475155E-01
   7162.00  4.3874678E-01
   7162.33  4.4274478E-01
   7162.67  4.4665189E-01
   7163.00  4.5039820E-01
   7163.33  4.5388450E-01
   7163.67  4.5708716E-01
   7164.00  4.5997805E-01
   7164.33  4.6249579E-01
   7164.67  4.6466777E-01
   7165.00  4.6648271E-01
   7165.33  4.6788218E-01
   7165.67  4.6890391E-01
   7166.00  4.6954647E-01
   7166.33  4.6977099E-01
   7166.67  4.6964222E-01
   7167.00  4.6918392E-01
   7167.33  4.6839440E-01
   7167.67  4.6735021E-01
   7168.00  4.6608590E-01
   7168.33  4.6461732E-01
   7168.67  4.6300453E-01
   7169.00  4.6127954E-01
   7169.33  4.5947135E-01
   7169.67  4.5762961E-01
   7170.00  4.5579085E-01
   7170.33  4.5400534E-01
   7170.67  4.5231222E-01
   7171.00  4.5074993E-01
   7171.33  4.4938518E-01
   7171.67  4.4824219E-01
   7172.00  4.4735867E-01
