    FDMNES
    energy     <xanes>
   7097.00  4.5957231E-03
   7097.33  4.6955229E-03
   7097.67  4.7995236E-03
   7098.00  4.9079966E-03
   7098.33  5.0218929E-03
   7098.67  5.1409973E-03
   7099.00  5.2656776E-03
   7099.33  5.3971672E-03
   7099.67  5.5352447E-03
   7100.00  5.6804234E-03
   7100.33  5.8343469E-03
   7100.67  5.9968074E-03
   7101.00  6.1685453E-03
   7101.33  6.3518252E-03
   7101.67  6.5464970E-03
   7102.00  6.7536737E-03
   7102.33  6.9766046E-03
   7102.67  7.2152977E-03
   7103.00  7.4715114E-03
   7103.33  7.7501505E-03
   7103.67  8.0516159E-03
   7104.00  8.3788631E-03
   7104.33  8.7397877E-03
   7104.67  9.1357653E-03
   7105.00  9.5721720E-03
   7105.33  1.0062827E-02
   7105.67  1.0611658E-02
   7106.00  1.1229512E-02
   7106.33  1.1943458E-02
   7106.67  1.2764828E-02
   7107.00  1.3718853E-02
   7107.33  1.4867643E-02
   7107.67  1.6247923E-02
   7108.00  1.7931838E-02
   7108.33  2.0099801E-02
   7108.67  2.2902257E-02
   7109.00  2.6623412E-02
   7109.33  3.2027690E-02
   7109.67  4.0040242E-02
   7110.00  5.2494491E-02
   7110.33  7.4662127E-02
   7110.67  1.1107295E-01
   7111.00  1.5663611E-01
   7111.33  1.8262183E-01
   7111.67  1.9064021E-01
   7112.00  1.9415595E-01
   7112.33  1.9694021E-01
   7112.67  1.9535338E-01
   7113.00  1.8528872E-01
   7113.33  1.6866448E-01
   7113.67  1.5480727E-01
   7114.00  1.4646707E-01
   7114.33  1.3818576E-01
   7114.67  1.2295650E-01
   7115.00  1.0320808E-01
   7115.33  8.8814342E-02
   7115.67  8.1877821E-02
   7116.00  8.1138081E-02
   7116.33  8.6030192E-02
   7116.67  9.5671988E-02
   7117.00  1.1035527E-01
   7117.33  1.3130815E-01
   7117.67  1.5809523E-01
   7118.00  1.9035796E-01
   7118.33  2.2703771E-01
   7118.67  2.6484801E-01
   7119.00  3.0085310E-01
   7119.33  3.2916455E-01
   7119.67  3.4408377E-01
   7120.00  3.4423808E-01
   7120.33  3.3486034E-01
   7120.67  3.2424066E-01
   7121.00  3.1531028E-01
   7121.33  3.0918953E-01
   7121.67  3.0553699E-01
   7122.00  3.0426762E-01
   7122.33  3.0556749E-01
   7122.67  3.0898773E-01
   7123.00  3.1422242E-01
   7123.33  3.2082311E-01
   7123.67  3.2804819E-01
   7124.00  3.3569086E-01
   7124.33  3.4391961E-01
   7124.67  3.5302687E-01
   7125.00  3.6338186E-01
   7125.33  3.7513697E-01
   7125.67  3.8753179E-01
   7126.00  4.0000227E-01
   7126.33  4.1232172E-01
   7126.67  4.2458953E-01
   7127.00  4.3667323E-01
   7127.33  4.4752704E-01
   7127.67  4.5569607E-01
   7128.00  4.6048408E-01
   7128.33  4.6278742E-01
   7128.67  4.6539810E-01
   7129.00  4.7017872E-01
   7129.33  4.7832481E-01
   7129.67  4.8912374E-01
   7130.00  5.0189202E-01
   7130.33  5.1555941E-01
   7130.67  5.2834951E-01
   7131.00  5.3872329E-01
   7131.33  5.4504780E-01
   7131.67  5.4767557E-01
   7132.00  5.4723729E-01
   7132.33  5.4454223E-01
   7132.67  5.4092631E-01
   7133.00  5.3732775E-01
   7133.33  5.3510645E-01
   7133.67  5.3543006E-01
   7134.00  5.3933118E-01
   7134.33  5.4789765E-01
   7134.67  5.5998135E-01
   7135.00  5.7414889E-01
   7135.33  5.8846106E-01
   7135.67  6.0142309E-01
   7136.00  6.1244997E-01
   7136.33  6.2141872E-01
   7136.67  6.2924196E-01
   7137.00  6.3663699E-01
   7137.33  6.4418334E-01
   7137.67  6.5183627E-01
   7138.00  6.5906569E-01
   7138.33  6.6472320E-01
   7138.67  6.6803313E-01
   7139.00  6.6850788E-01
   7139.33  6.6579955E-01
   7139.67  6.6082901E-01
   7140.00  6.5434700E-01
   7140.33  6.4718306E-01
   7140.67  6.4012078E-01
   7141.00  6.3350634E-01
   7141.33  6.2749025E-01
   7141.67  6.2181775E-01
   7142.00  6.1621114E-01
   7142.33  6.1033077E-01
   7142.67  6.0402098E-01
   7143.00  5.9725075E-01
   7143.33  5.9006919E-01
   7143.67  5.8270818E-01
   7144.00  5.7535692E-01
   7144.33  5.6825659E-01
   7144.67  5.6156051E-01
   7145.00  5.5539060E-01
   7145.33  5.4992959E-01
   7145.67  5.4516910E-01
   7146.00  5.4114737E-01
   7146.33  5.3798184E-01
   7146.67  5.3557883E-01
   7147.00  5.3392464E-01
   7147.33  5.3307218E-01
   7147.67  5.3285165E-01
   7148.00  5.3315001E-01
   7148.33  5.3382945E-01
   7148.67  5.3462863E-01
   7149.00  5.3535425E-01
   7149.33  5.3577308E-01
   7149.67  5.3577841E-01
   7150.00  5.3530997E-01
   7150.33  5.3431738E-01
   7150.67  5.3294569E-01
   7151.00  5.3131336E-01
   7151.33  5.2958051E-01
   7151.67  5.2794715E-01
   7152.00  5.2656031E-01
   7152.33  5.2559541E-01
   7152.67  5.2507494E-01
   7153.00  5.2500812E-01
   7153.33  5.2540424E-01
   7153.67  5.2612919E-01
   7154.00  5.2709576E-01
   7154.33  5.2821488E-01
   7154.67  5.2937954E-01
   7155.00  5.3054094E-01
   7155.33  5.3167585E-01
   7155.67  5.3280098E-01
   7156.00  5.3394740E-01
   7156.33  5.3516920E-01
   7156.67  5.3649974E-01
   7157.00  5.3796242E-01
   7157.33  5.3958096E-01
   7157.67  5.4131892E-01
   7158.00  5.4313847E-01
   7158.33  5.4497627E-01
   7158.67  5.4675291E-01
   7159.00  5.4840095E-01
   7159.33  5.4982177E-01
   7159.67  5.5097000E-01
   7160.00  5.5178868E-01
   7160.33  5.5218613E-01
   7160.67  5.5217923E-01
   7161.00  5.5174936E-01
   7161.33  5.5083238E-01
   7161.67  5.4948507E-01
   7162.00  5.4771573E-01
   7162.33  5.4549370E-01
   7162.67  5.4290210E-01
   7163.00  5.3997966E-01
   7163.33  5.3674733E-01
   7163.67  5.3330134E-01
   7164.00  5.2969396E-01
   7164.33  5.2596522E-01
   7164.67  5.2217661E-01
   7165.00  5.1836340E-01
   7165.33  5.1455454E-01
   7165.67  5.1076455E-01
   7166.00  5.0699822E-01
   7166.33  5.0325774E-01
   7166.67  4.9953606E-01
   7167.00  4.9582857E-01
   7167.33  4.9213124E-01
   7167.67  4.8844001E-01
   7168.00  4.8475450E-01
   7168.33  4.8107652E-01
   7168.67  4.7740733E-01
   7169.00  4.7374929E-01
   7169.33  4.7010747E-01
   7169.67  4.6648605E-01
   7170.00  4.6289439E-01
   7170.33  4.5935697E-01
   7170.67  4.5589877E-01
   7171.00  4.5256202E-01
   7171.33  4.4945119E-01
   7171.67  4.4667785E-01
   7172.00  4.4441310E-01
