    FDMNES
    energy     <xanes>
   7097.00  4.4764249E-03
   7097.33  4.5695611E-03
   7097.67  4.6663897E-03
   7098.00  4.7671363E-03
   7098.33  4.8726156E-03
   7098.67  4.9826219E-03
   7099.00  5.0974577E-03
   7099.33  5.2181665E-03
   7099.67  5.3445328E-03
   7100.00  5.4769740E-03
   7100.33  5.6168620E-03
   7100.67  5.7639855E-03
   7101.00  5.9189395E-03
   7101.33  6.0835866E-03
   7101.67  6.2577516E-03
   7102.00  6.4423170E-03
   7102.33  6.6399137E-03
   7102.67  6.8504746E-03
   7103.00  7.0753739E-03
   7103.33  7.3185144E-03
   7103.67  7.5801052E-03
   7104.00  7.8624180E-03
   7104.33  8.1716127E-03
   7104.67  8.5085848E-03
   7105.00  8.8773844E-03
   7105.33  9.2885429E-03
   7105.67  9.7447286E-03
   7106.00  1.0253904E-02
   7106.33  1.0836089E-02
   7106.67  1.1498956E-02
   7107.00  1.2260368E-02
   7107.33  1.3164374E-02
   7107.67  1.4235047E-02
   7108.00  1.5520742E-02
   7108.33  1.7141510E-02
   7108.67  1.9189682E-02
   7109.00  2.1839856E-02
   7109.33  2.5551000E-02
   7109.67  3.0833094E-02
   7110.00  3.8682423E-02
   7110.33  5.1967147E-02
   7110.67  7.3922178E-02
   7111.00  1.0629913E-01
   7111.33  1.4230663E-01
   7111.67  1.7174983E-01
   7112.00  1.9067149E-01
   7112.33  1.9163111E-01
   7112.67  1.7752626E-01
   7113.00  1.6167404E-01
   7113.33  1.5037004E-01
   7113.67  1.3694724E-01
   7114.00  1.1746556E-01
   7114.33  9.7962402E-02
   7114.67  8.3705810E-02
   7115.00  7.4874887E-02
   7115.33  7.0886385E-02
   7115.67  7.0094608E-02
   7116.00  7.1854057E-02
   7116.33  7.5731002E-02
   7116.67  8.0665273E-02
   7117.00  8.6848737E-02
   7117.33  9.5930938E-02
   7117.67  1.0789632E-01
   7118.00  1.2133341E-01
   7118.33  1.3360368E-01
   7118.67  1.4392693E-01
   7119.00  1.5257442E-01
   7119.33  1.5968032E-01
   7119.67  1.6635304E-01
   7120.00  1.7359430E-01
   7120.33  1.8300298E-01
   7120.67  1.9612186E-01
   7121.00  2.1397180E-01
   7121.33  2.3686855E-01
   7121.67  2.6299018E-01
   7122.00  2.9172312E-01
   7122.33  3.2431707E-01
   7122.67  3.6109014E-01
   7123.00  4.0038438E-01
   7123.33  4.3660259E-01
   7123.67  4.6457626E-01
   7124.00  4.8287485E-01
   7124.33  4.9262685E-01
   7124.67  4.9836014E-01
   7125.00  5.0285035E-01
   7125.33  5.0818640E-01
   7125.67  5.1616792E-01
   7126.00  5.2843459E-01
   7126.33  5.4471513E-01
   7126.67  5.6262539E-01
   7127.00  5.8203246E-01
   7127.33  6.0305475E-01
   7127.67  6.2341903E-01
   7128.00  6.4069905E-01
   7128.33  6.5250489E-01
   7128.67  6.5918933E-01
   7129.00  6.6163311E-01
   7129.33  6.6126955E-01
   7129.67  6.5994559E-01
   7130.00  6.5837542E-01
   7130.33  6.5688303E-01
   7130.67  6.5548692E-01
   7131.00  6.5404101E-01
   7131.33  6.5227236E-01
   7131.67  6.5023796E-01
   7132.00  6.4831634E-01
   7132.33  6.4720221E-01
   7132.67  6.4721543E-01
   7133.00  6.4846407E-01
   7133.33  6.5101008E-01
   7133.67  6.5453037E-01
   7134.00  6.5890845E-01
   7134.33  6.6424083E-01
   7134.67  6.7045222E-01
   7135.00  6.7750186E-01
   7135.33  6.8534124E-01
   7135.67  6.9370310E-01
   7136.00  7.0242644E-01
   7136.33  7.1132176E-01
   7136.67  7.2008454E-01
   7137.00  7.2835946E-01
   7137.33  7.3544408E-01
   7137.67  7.4076546E-01
   7138.00  7.4368351E-01
   7138.33  7.4315805E-01
   7138.67  7.3914201E-01
   7139.00  7.3151788E-01
   7139.33  7.2003515E-01
   7139.67  7.0560039E-01
   7140.00  6.8879139E-01
   7140.33  6.7016288E-01
   7140.67  6.5065711E-01
   7141.00  6.3084085E-01
   7141.33  6.1128713E-01
   7141.67  5.9237004E-01
   7142.00  5.7433022E-01
   7142.33  5.5747613E-01
   7142.67  5.4176635E-01
   7143.00  5.2722872E-01
   7143.33  5.1400102E-01
   7143.67  5.0190240E-01
   7144.00  4.9088920E-01
   7144.33  4.8102629E-01
   7144.67  4.7211362E-01
   7145.00  4.6408413E-01
   7145.33  4.5695136E-01
   7145.67  4.5052194E-01
   7146.00  4.4471664E-01
   7146.33  4.3951740E-01
   7146.67  4.3478117E-01
   7147.00  4.3045249E-01
   7147.33  4.2652354E-01
   7147.67  4.2291265E-01
   7148.00  4.1960094E-01
   7148.33  4.1661253E-01
   7148.67  4.1390129E-01
   7149.00  4.1145856E-01
   7149.33  4.0930039E-01
   7149.67  4.0737747E-01
   7150.00  4.0568812E-01
   7150.33  4.0427838E-01
   7150.67  4.0314794E-01
   7151.00  4.0233276E-01
   7151.33  4.0192352E-01
   7151.67  4.0192516E-01
   7152.00  4.0238063E-01
   7152.33  4.0339017E-01
   7152.67  4.0490532E-01
   7153.00  4.0690499E-01
   7153.33  4.0937087E-01
   7153.67  4.1213408E-01
   7154.00  4.1506319E-01
   7154.33  4.1798392E-01
   7154.67  4.2072576E-01
   7155.00  4.2316319E-01
   7155.33  4.2514352E-01
   7155.67  4.2667173E-01
   7156.00  4.2775162E-01
   7156.33  4.2837799E-01
   7156.67  4.2867383E-01
   7157.00  4.2870814E-01
   7157.33  4.2852920E-01
   7157.67  4.2821118E-01
   7158.00  4.2777564E-01
   7158.33  4.2720936E-01
   7158.67  4.2651126E-01
   7159.00  4.2566393E-01
   7159.33  4.2463276E-01
   7159.67  4.2343956E-01
   7160.00  4.2210074E-01
   7160.33  4.2063774E-01
   7160.67  4.1911428E-01
   7161.00  4.1757755E-01
   7161.33  4.1608387E-01
   7161.67  4.1467434E-01
   7162.00  4.1338324E-01
   7162.33  4.1226356E-01
   7162.67  4.1132529E-01
   7163.00  4.1058997E-01
   7163.33  4.1010317E-01
   7163.67  4.0984887E-01
   7164.00  4.0983371E-01
   7164.33  4.1008976E-01
   7164.67  4.1058054E-01
   7165.00  4.1129355E-01
   7165.33  4.1223083E-01
   7165.67  4.1333605E-01
   7166.00  4.1457662E-01
   7166.33  4.1592232E-01
   7166.67  4.1731967E-01
   7167.00  4.1873725E-01
   7167.33  4.2014803E-01
   7167.67  4.2154220E-01
   7168.00  4.2292533E-01
   7168.33  4.2432169E-01
   7168.67  4.2576613E-01
   7169.00  4.2729581E-01
   7169.33  4.2896974E-01
   7169.67  4.3080612E-01
   7170.00  4.3282095E-01
   7170.33  4.3503364E-01
   7170.67  4.3739248E-01
   7171.00  4.3984594E-01
   7171.33  4.4229183E-01
   7171.67  4.4456260E-01
   7172.00  4.4645329E-01
