    FDMNES
    energy     <xanes>
   7097.00  4.2427146E-03
   7097.33  4.3226243E-03
   7097.67  4.4054760E-03
   7098.00  4.4914438E-03
   7098.33  4.5811686E-03
   7098.67  4.6744804E-03
   7099.00  4.7716136E-03
   7099.33  4.8733867E-03
   7099.67  4.9796240E-03
   7100.00  5.0906502E-03
   7100.33  5.2075419E-03
   7100.67  5.3301294E-03
   7101.00  5.4588796E-03
   7101.33  5.5952591E-03
   7101.67  5.7391333E-03
   7102.00  5.8912031E-03
   7102.33  6.0535551E-03
   7102.67  6.2261550E-03
   7103.00  6.4101118E-03
   7103.33  6.6085595E-03
   7103.67  6.8217171E-03
   7104.00  7.0514572E-03
   7104.33  7.3028184E-03
   7104.67  7.5766542E-03
   7105.00  7.8763926E-03
   7105.33  8.2108750E-03
   7105.67  8.5826217E-03
   7106.00  8.9986031E-03
   7106.33  9.4762290E-03
   7106.67  1.0022862E-02
   7107.00  1.0654830E-02
   7107.33  1.1412315E-02
   7107.67  1.2319258E-02
   7108.00  1.3422530E-02
   7108.33  1.4839236E-02
   7108.67  1.6667174E-02
   7109.00  1.9090699E-02
   7109.33  2.2604864E-02
   7109.67  2.7806778E-02
   7110.00  3.5876532E-02
   7110.33  5.0177239E-02
   7110.67  7.3373826E-02
   7111.00  1.0167742E-01
   7111.33  1.1992820E-01
   7111.67  1.3280954E-01
   7112.00  1.4757902E-01
   7112.33  1.5931423E-01
   7112.67  1.4950528E-01
   7113.00  1.1805200E-01
   7113.33  8.8324107E-02
   7113.67  6.8942105E-02
   7114.00  5.7887655E-02
   7114.33  5.1580847E-02
   7114.67  4.5994950E-02
   7115.00  4.0607362E-02
   7115.33  3.6956594E-02
   7115.67  3.5134308E-02
   7116.00  3.4761087E-02
   7116.33  3.5541908E-02
   7116.67  3.6975653E-02
   7117.00  3.8708832E-02
   7117.33  4.0264279E-02
   7117.67  4.1369811E-02
   7118.00  4.2116424E-02
   7118.33  4.2954411E-02
   7118.67  4.4346297E-02
   7119.00  4.6556904E-02
   7119.33  4.9855798E-02
   7119.67  5.4107149E-02
   7120.00  5.9081535E-02
   7120.33  6.4354761E-02
   7120.67  6.9820436E-02
   7121.00  7.6000243E-02
   7121.33  8.3885473E-02
   7121.67  9.3892150E-02
   7122.00  1.0646385E-01
   7122.33  1.2281077E-01
   7122.67  1.4392348E-01
   7123.00  1.7149179E-01
   7123.33  2.0873488E-01
   7123.67  2.5615528E-01
   7124.00  3.1347106E-01
   7124.33  3.7703279E-01
   7124.67  4.3778183E-01
   7125.00  4.8949543E-01
   7125.33  5.2865292E-01
   7125.67  5.5773320E-01
   7126.00  5.7797322E-01
   7126.33  5.9276367E-01
   7126.67  6.1000959E-01
   7127.00  6.3303614E-01
   7127.33  6.5968272E-01
   7127.67  6.8442477E-01
   7128.00  7.0505601E-01
   7128.33  7.2231314E-01
   7128.67  7.3678978E-01
   7129.00  7.4589672E-01
   7129.33  7.4629877E-01
   7129.67  7.4018228E-01
   7130.00  7.3016096E-01
   7130.33  7.1931002E-01
   7130.67  7.1147958E-01
   7131.00  7.1026555E-01
   7131.33  7.1971738E-01
   7131.67  7.3863804E-01
   7132.00  7.6444663E-01
   7132.33  7.9193470E-01
   7132.67  8.1508559E-01
   7133.00  8.3089964E-01
   7133.33  8.3835629E-01
   7133.67  8.3995597E-01
   7134.00  8.3639373E-01
   7134.33  8.2703150E-01
   7134.67  8.1318859E-01
   7135.00  7.9654106E-01
   7135.33  7.7968729E-01
   7135.67  7.6485999E-01
   7136.00  7.5299623E-01
   7136.33  7.4442962E-01
   7136.67  7.3811275E-01
   7137.00  7.3345531E-01
   7137.33  7.3028036E-01
   7137.67  7.2844684E-01
   7138.00  7.2807546E-01
   7138.33  7.2932311E-01
   7138.67  7.3164148E-01
   7139.00  7.3444870E-01
   7139.33  7.3689303E-01
   7139.67  7.3829209E-01
   7140.00  7.3821925E-01
   7140.33  7.3619761E-01
   7140.67  7.3235249E-01
   7141.00  7.2667916E-01
   7141.33  7.1900206E-01
   7141.67  7.0964197E-01
   7142.00  6.9872560E-01
   7142.33  6.8626704E-01
   7142.67  6.7264263E-01
   7143.00  6.5802811E-01
   7143.33  6.4251297E-01
   7143.67  6.2636610E-01
   7144.00  6.0971900E-01
   7144.33  5.9267218E-01
   7144.67  5.7541468E-01
   7145.00  5.5807451E-01
   7145.33  5.4081362E-01
   7145.67  5.2378167E-01
   7146.00  5.0712029E-01
   7146.33  4.9106842E-01
   7146.67  4.7573447E-01
   7147.00  4.6126743E-01
   7147.33  4.4795503E-01
   7147.67  4.3580381E-01
   7148.00  4.2490201E-01
   7148.33  4.1547387E-01
   7148.67  4.0736255E-01
   7149.00  4.0052517E-01
   7149.33  3.9499438E-01
   7149.67  3.9045031E-01
   7150.00  3.8670626E-01
   7150.33  3.8358836E-01
   7150.67  3.8078246E-01
   7151.00  3.7810704E-01
   7151.33  3.7540833E-01
   7151.67  3.7260439E-01
   7152.00  3.6965699E-01
   7152.33  3.6651041E-01
   7152.67  3.6314386E-01
   7153.00  3.5950578E-01
   7153.33  3.5548757E-01
   7153.67  3.5107105E-01
   7154.00  3.4621545E-01
   7154.33  3.4083174E-01
   7154.67  3.3496960E-01
   7155.00  3.2864054E-01
   7155.33  3.2183075E-01
   7155.67  3.1467422E-01
   7156.00  3.0727794E-01
   7156.33  2.9977737E-01
   7156.67  2.9234884E-01
   7157.00  2.8514448E-01
   7157.33  2.7839115E-01
   7157.67  2.7220176E-01
   7158.00  2.6669671E-01
   7158.33  2.6208332E-01
   7158.67  2.5832976E-01
   7159.00  2.5545949E-01
   7159.33  2.5356921E-01
   7159.67  2.5250245E-01
   7160.00  2.5220145E-01
   7160.33  2.5268255E-01
   7160.67  2.5380404E-01
   7161.00  2.5554633E-01
   7161.33  2.5801120E-01
   7161.67  2.6118550E-01
   7162.00  2.6514566E-01
   7162.33  2.7007770E-01
   7162.67  2.7591565E-01
   7163.00  2.8267090E-01
   7163.33  2.9043438E-01
   7163.67  2.9902854E-01
   7164.00  3.0837164E-01
   7164.33  3.1843892E-01
   7164.67  3.2905040E-01
   7165.00  3.4013395E-01
   7165.33  3.5167706E-01
   7165.67  3.6358472E-01
   7166.00  3.7582946E-01
   7166.33  3.8842180E-01
   7166.67  4.0128830E-01
   7167.00  4.1438395E-01
   7167.33  4.2764488E-01
   7167.67  4.4093337E-01
   7168.00  4.5411918E-01
   7168.33  4.6698774E-01
   7168.67  4.7937388E-01
   7169.00  4.9109973E-01
   7169.33  5.0186179E-01
   7169.67  5.1160162E-01
   7170.00  5.2021588E-01
   7170.33  5.2749293E-01
   7170.67  5.3358321E-01
   7171.00  5.3853634E-01
   7171.33  5.4232793E-01
   7171.67  5.4523155E-01
   7172.00  5.4739839E-01
