    FDMNES
    energy     <xanes>
   7097.00  5.3136179E-03
   7097.33  5.4427114E-03
   7097.67  5.5778539E-03
   7098.00  5.7194660E-03
   7098.33  5.8689660E-03
   7098.67  6.0260828E-03
   7099.00  6.1913921E-03
   7099.33  6.3667605E-03
   7099.67  6.5519140E-03
   7100.00  6.7476630E-03
   7100.33  6.9565288E-03
   7100.67  7.1782657E-03
   7101.00  7.4140502E-03
   7101.33  7.6673957E-03
   7101.67  7.9381535E-03
   7102.00  8.2280958E-03
   7102.33  8.5423050E-03
   7102.67  8.8808809E-03
   7103.00  9.2466155E-03
   7103.33  9.6472038E-03
   7103.67  1.0083340E-02
   7104.00  1.0559670E-02
   7104.33  1.1088530E-02
   7104.67  1.1672035E-02
   7105.00  1.2318479E-02
   7105.33  1.3049136E-02
   7105.67  1.3869703E-02
   7106.00  1.4796398E-02
   7106.33  1.5869675E-02
   7106.67  1.7105146E-02
   7107.00  1.8538749E-02
   7107.33  2.0258748E-02
   7107.67  2.2312724E-02
   7108.00  2.4796326E-02
   7108.33  2.7946527E-02
   7108.67  3.1942783E-02
   7109.00  3.7125527E-02
   7109.33  4.4390016E-02
   7109.67  5.4727994E-02
   7110.00  7.0082839E-02
   7110.33  9.6004144E-02
   7110.67  1.3806888E-01
   7111.00  1.9642952E-01
   7111.33  2.5325036E-01
   7111.67  2.9807690E-01
   7112.00  3.3445654E-01
   7112.33  3.7267227E-01
   7112.67  4.1903457E-01
   7113.00  4.6180933E-01
   7113.33  4.7034511E-01
   7113.67  4.4059715E-01
   7114.00  3.8766968E-01
   7114.33  3.3439852E-01
   7114.67  2.9274710E-01
   7115.00  2.6438371E-01
   7115.33  2.4871751E-01
   7115.67  2.4052159E-01
   7116.00  2.3455533E-01
   7116.33  2.2261967E-01
   7116.67  2.0325959E-01
   7117.00  1.8176206E-01
   7117.33  1.6509442E-01
   7117.67  1.5383929E-01
   7118.00  1.4651176E-01
   7118.33  1.4226378E-01
   7118.67  1.4024009E-01
   7119.00  1.3972153E-01
   7119.33  1.3980905E-01
   7119.67  1.3991046E-01
   7120.00  1.3993838E-01
   7120.33  1.4016833E-01
   7120.67  1.4133629E-01
   7121.00  1.4421840E-01
   7121.33  1.4935928E-01
   7121.67  1.5618242E-01
   7122.00  1.6462999E-01
   7122.33  1.7527494E-01
   7122.67  1.8742196E-01
   7123.00  1.9976672E-01
   7123.33  2.1227226E-01
   7123.67  2.2732947E-01
   7124.00  2.4647961E-01
   7124.33  2.6976821E-01
   7124.67  2.9454278E-01
   7125.00  3.1857730E-01
   7125.33  3.4010839E-01
   7125.67  3.6007490E-01
   7126.00  3.8049877E-01
   7126.33  4.0427608E-01
   7126.67  4.3218773E-01
   7127.00  4.6373498E-01
   7127.33  4.9726083E-01
   7127.67  5.3003431E-01
   7128.00  5.5967185E-01
   7128.33  5.8280248E-01
   7128.67  5.9866184E-01
   7129.00  6.0779817E-01
   7129.33  6.1247071E-01
   7129.67  6.1658694E-01
   7130.00  6.2245983E-01
   7130.33  6.3208948E-01
   7130.67  6.4570606E-01
   7131.00  6.6346318E-01
   7131.33  6.8576118E-01
   7131.67  7.1146219E-01
   7132.00  7.3929214E-01
   7132.33  7.6685451E-01
   7132.67  7.9141162E-01
   7133.00  8.1086205E-01
   7133.33  8.2268195E-01
   7133.67  8.2703493E-01
   7134.00  8.2417307E-01
   7134.33  8.1436514E-01
   7134.67  7.9961053E-01
   7135.00  7.8082661E-01
   7135.33  7.5872852E-01
   7135.67  7.3483510E-01
   7136.00  7.0999809E-01
   7136.33  6.8487083E-01
   7136.67  6.5993266E-01
   7137.00  6.3553163E-01
   7137.33  6.1231646E-01
   7137.67  5.9083756E-01
   7138.00  5.7174939E-01
   7138.33  5.5610302E-01
   7138.67  5.4389618E-01
   7139.00  5.3515098E-01
   7139.33  5.2999012E-01
   7139.67  5.2755887E-01
   7140.00  5.2743007E-01
   7140.33  5.2937697E-01
   7140.67  5.3279995E-01
   7141.00  5.3746412E-01
   7141.33  5.4330754E-01
   7141.67  5.5005908E-01
   7142.00  5.5760460E-01
   7142.33  5.6584563E-01
   7142.67  5.7443928E-01
   7143.00  5.8307391E-01
   7143.33  5.9124427E-01
   7143.67  5.9848822E-01
   7144.00  6.0437329E-01
   7144.33  6.0826183E-01
   7144.67  6.1011612E-01
   7145.00  6.0985651E-01
   7145.33  6.0728091E-01
   7145.67  6.0281874E-01
   7146.00  5.9667726E-01
   7146.33  5.8896665E-01
   7146.67  5.8018150E-01
   7147.00  5.7062135E-01
   7147.33  5.6058627E-01
   7147.67  5.5044557E-01
   7148.00  5.4044348E-01
   7148.33  5.3089726E-01
   7148.67  5.2200096E-01
   7149.00  5.1394453E-01
   7149.33  5.0704878E-01
   7149.67  5.0132332E-01
   7150.00  4.9683592E-01
   7150.33  4.9376474E-01
   7150.67  4.9191155E-01
   7151.00  4.9119356E-01
   7151.33  4.9159545E-01
   7151.67  4.9282408E-01
   7152.00  4.9472536E-01
   7152.33  4.9718553E-01
   7152.67  4.9998266E-01
   7153.00  5.0299925E-01
   7153.33  5.0613828E-01
   7153.67  5.0930296E-01
   7154.00  5.1244150E-01
   7154.33  5.1550334E-01
   7154.67  5.1846808E-01
   7155.00  5.2131638E-01
   7155.33  5.2401003E-01
   7155.67  5.2654260E-01
   7156.00  5.2889215E-01
   7156.33  5.3100899E-01
   7156.67  5.3289984E-01
   7157.00  5.3455426E-01
   7157.33  5.3593985E-01
   7157.67  5.3709479E-01
   7158.00  5.3803423E-01
   7158.33  5.3876209E-01
   7158.67  5.3933494E-01
   7159.00  5.3977771E-01
   7159.33  5.4010002E-01
   7159.67  5.4032976E-01
   7160.00  5.4047030E-01
   7160.33  5.4050214E-01
   7160.67  5.4041864E-01
   7161.00  5.4019654E-01
   7161.33  5.3978171E-01
   7161.67  5.3916168E-01
   7162.00  5.3830782E-01
   7162.33  5.3715278E-01
   7162.67  5.3571686E-01
   7163.00  5.3400872E-01
   7163.33  5.3201906E-01
   7163.67  5.2980879E-01
   7164.00  5.2740735E-01
   7164.33  5.2483124E-01
   7164.67  5.2213439E-01
   7165.00  5.1934451E-01
   7165.33  5.1648276E-01
   7165.67  5.1358094E-01
   7166.00  5.1065449E-01
   7166.33  5.0771454E-01
   7166.67  5.0476919E-01
   7167.00  5.0181920E-01
   7167.33  4.9886049E-01
   7167.67  4.9589144E-01
   7168.00  4.9291203E-01
   7168.33  4.8991826E-01
   7168.67  4.8690922E-01
   7169.00  4.8388632E-01
   7169.33  4.8085549E-01
   7169.67  4.7783039E-01
   7170.00  4.7482708E-01
   7170.33  4.7187663E-01
   7170.67  4.6900797E-01
   7171.00  4.6626191E-01
   7171.33  4.6373080E-01
   7171.67  4.6149791E-01
   7172.00  4.5968956E-01
