    FDMNES
    energy     <xanes>
   7097.00  4.3624330E-03
   7097.33  4.4515019E-03
   7097.67  4.5440866E-03
   7098.00  4.6404048E-03
   7098.33  4.7412372E-03
   7098.67  4.8463924E-03
   7099.00  4.9561644E-03
   7099.33  5.0715584E-03
   7099.67  5.1923771E-03
   7100.00  5.3190295E-03
   7100.33  5.4528475E-03
   7100.67  5.5936437E-03
   7101.00  5.7420082E-03
   7101.33  5.8997679E-03
   7101.67  6.0667823E-03
   7102.00  6.2439401E-03
   7102.33  6.4338578E-03
   7102.67  6.6365260E-03
   7103.00  6.8533561E-03
   7103.33  7.0883028E-03
   7103.67  7.3416879E-03
   7104.00  7.6159050E-03
   7104.33  7.9173576E-03
   7104.67  8.2472008E-03
   7105.00  8.6098489E-03
   7105.33  9.0166422E-03
   7105.67  9.4709535E-03
   7106.00  9.9818669E-03
   7106.33  1.0572025E-02
   7106.67  1.1251374E-02
   7107.00  1.2041619E-02
   7107.33  1.2996195E-02
   7107.67  1.4148206E-02
   7108.00  1.5561907E-02
   7108.33  1.7398607E-02
   7108.67  1.9798441E-02
   7109.00  2.3025513E-02
   7109.33  2.7795950E-02
   7109.67  3.5003646E-02
   7110.00  4.6429516E-02
   7110.33  6.7281483E-02
   7110.67  1.0251730E-01
   7111.00  1.4757357E-01
   7111.33  1.6217350E-01
   7111.67  1.4297070E-01
   7112.00  1.2220974E-01
   7112.33  1.1879366E-01
   7112.67  1.2590015E-01
   7113.00  1.2877378E-01
   7113.33  1.1888673E-01
   7113.67  1.0527382E-01
   7114.00  9.1259385E-02
   7114.33  8.0290007E-02
   7114.67  7.3646971E-02
   7115.00  7.0874395E-02
   7115.33  7.1314945E-02
   7115.67  7.3820156E-02
   7116.00  7.7965420E-02
   7116.33  8.3641374E-02
   7116.67  9.0497382E-02
   7117.00  9.8392287E-02
   7117.33  1.0727460E-01
   7117.67  1.1686799E-01
   7118.00  1.2697989E-01
   7118.33  1.3729846E-01
   7118.67  1.4741126E-01
   7119.00  1.5709968E-01
   7119.33  1.6642595E-01
   7119.67  1.7595990E-01
   7120.00  1.8627564E-01
   7120.33  1.9788743E-01
   7120.67  2.1054085E-01
   7121.00  2.2391976E-01
   7121.33  2.3770108E-01
   7121.67  2.5160523E-01
   7122.00  2.6559112E-01
   7122.33  2.7988867E-01
   7122.67  2.9484310E-01
   7123.00  3.1070698E-01
   7123.33  3.2758675E-01
   7123.67  3.4508291E-01
   7124.00  3.6283173E-01
   7124.33  3.8032199E-01
   7124.67  3.9702760E-01
   7125.00  4.1248242E-01
   7125.33  4.2622894E-01
   7125.67  4.3882193E-01
   7126.00  4.5114396E-01
   7126.33  4.6452669E-01
   7126.67  4.7958755E-01
   7127.00  4.9633064E-01
   7127.33  5.1436963E-01
   7127.67  5.3270250E-01
   7128.00  5.5033075E-01
   7128.33  5.6554037E-01
   7128.67  5.7730877E-01
   7129.00  5.8538273E-01
   7129.33  5.9064465E-01
   7129.67  5.9526832E-01
   7130.00  6.0035462E-01
   7130.33  6.0641921E-01
   7130.67  6.1326305E-01
   7131.00  6.2080951E-01
   7131.33  6.2931120E-01
   7131.67  6.3897907E-01
   7132.00  6.4996576E-01
   7132.33  6.6202679E-01
   7132.67  6.7383482E-01
   7133.00  6.8385939E-01
   7133.33  6.9024258E-01
   7133.67  6.9323590E-01
   7134.00  6.9376342E-01
   7134.33  6.9311314E-01
   7134.67  6.9238792E-01
   7135.00  6.9194533E-01
   7135.33  6.9188560E-01
   7135.67  6.9204340E-01
   7136.00  6.9234252E-01
   7136.33  6.9286200E-01
   7136.67  6.9373115E-01
   7137.00  6.9507008E-01
   7137.33  6.9698808E-01
   7137.67  6.9933012E-01
   7138.00  7.0191173E-01
   7138.33  7.0441146E-01
   7138.67  7.0646658E-01
   7139.00  7.0775354E-01
   7139.33  7.0780081E-01
   7139.67  7.0650184E-01
   7140.00  7.0374314E-01
   7140.33  6.9932861E-01
   7140.67  6.9354695E-01
   7141.00  6.8655971E-01
   7141.33  6.7848315E-01
   7141.67  6.6969306E-01
   7142.00  6.6039863E-01
   7142.33  6.5077692E-01
   7142.67  6.4103594E-01
   7143.00  6.3128862E-01
   7143.33  6.2164103E-01
   7143.67  6.1214529E-01
   7144.00  6.0283726E-01
   7144.33  5.9377098E-01
   7144.67  5.8493851E-01
   7145.00  5.7635463E-01
   7145.33  5.6807215E-01
   7145.67  5.6008247E-01
   7146.00  5.5240606E-01
   7146.33  5.4508613E-01
   7146.67  5.3807416E-01
   7147.00  5.3136856E-01
   7147.33  5.2501327E-01
   7147.67  5.1897792E-01
   7148.00  5.1327054E-01
   7148.33  5.0794093E-01
   7148.67  5.0295211E-01
   7149.00  4.9830587E-01
   7149.33  4.9404317E-01
   7149.67  4.9011525E-01
   7150.00  4.8651290E-01
   7150.33  4.8325899E-01
   7150.67  4.8029352E-01
   7151.00  4.7759382E-01
   7151.33  4.7515772E-01
   7151.67  4.7291997E-01
   7152.00  4.7084714E-01
   7152.33  4.6891383E-01
   7152.67  4.6706376E-01
   7153.00  4.6526195E-01
   7153.33  4.6346748E-01
   7153.67  4.6164646E-01
   7154.00  4.5978030E-01
   7154.33  4.5785616E-01
   7154.67  4.5589216E-01
   7155.00  4.5391202E-01
   7155.33  4.5196126E-01
   7155.67  4.5009118E-01
   7156.00  4.4835405E-01
   7156.33  4.4683372E-01
   7156.67  4.4555584E-01
   7157.00  4.4454876E-01
   7157.33  4.4386027E-01
   7157.67  4.4344240E-01
   7158.00  4.4326354E-01
   7158.33  4.4329361E-01
   7158.67  4.4344825E-01
   7159.00  4.4367544E-01
   7159.33  4.4392333E-01
   7159.67  4.4414731E-01
   7160.00  4.4432228E-01
   7160.33  4.4442331E-01
   7160.67  4.4445361E-01
   7161.00  4.4441401E-01
   7161.33  4.4430214E-01
   7161.67  4.4413881E-01
   7162.00  4.4393763E-01
   7162.33  4.4371034E-01
   7162.67  4.4347174E-01
   7163.00  4.4323031E-01
   7163.33  4.4299485E-01
   7163.67  4.4277054E-01
   7164.00  4.4256003E-01
   7164.33  4.4236484E-01
   7164.67  4.4218018E-01
   7165.00  4.4200190E-01
   7165.33  4.4182410E-01
   7165.67  4.4164010E-01
   7166.00  4.4144386E-01
   7166.33  4.4122673E-01
   7166.67  4.4098682E-01
   7167.00  4.4072286E-01
   7167.33  4.4043369E-01
   7167.67  4.4012742E-01
   7168.00  4.3981119E-01
   7168.33  4.3949644E-01
   7168.67  4.3919759E-01
   7169.00  4.3892925E-01
   7169.33  4.3871619E-01
   7169.67  4.3857138E-01
   7170.00  4.3851020E-01
   7170.33  4.3855969E-01
   7170.67  4.3871644E-01
   7171.00  4.3898039E-01
   7171.33  4.3934622E-01
   7171.67  4.3975452E-01
   7172.00  4.4013091E-01
