    FDMNES
    energy     <xanes>
   7097.00  4.4348248E-03
   7097.33  4.5311698E-03
   7097.67  4.6317001E-03
   7098.00  4.7366930E-03
   7098.33  4.8471067E-03
   7098.67  4.9627346E-03
   7099.00  5.0839518E-03
   7099.33  5.2120035E-03
   7099.67  5.3466748E-03
   7100.00  5.4884864E-03
   7100.33  5.6390958E-03
   7100.67  5.7982957E-03
   7101.00  5.9668292E-03
   7101.33  6.1469666E-03
   7101.67  6.3385423E-03
   7102.00  6.5426533E-03
   7102.33  6.7625147E-03
   7102.67  6.9980781E-03
   7103.00  7.2510268E-03
   7103.33  7.5260999E-03
   7103.67  7.8235314E-03
   7104.00  8.1460282E-03
   7104.33  8.5009218E-03
   7104.67  8.8891065E-03
   7105.00  9.3151897E-03
   7105.33  9.7912122E-03
   7105.67  1.0319638E-02
   7106.00  1.0908890E-02
   7106.33  1.1580294E-02
   7106.67  1.2340268E-02
   7107.00  1.3205688E-02
   7107.33  1.4218252E-02
   7107.67  1.5395340E-02
   7108.00  1.6775213E-02
   7108.33  1.8451269E-02
   7108.67  2.0476211E-02
   7109.00  2.2953665E-02
   7109.33  2.6139554E-02
   7109.67  3.0231927E-02
   7110.00  3.5603115E-02
   7110.33  4.3222393E-02
   7110.67  5.4062324E-02
   7111.00  6.9658674E-02
   7111.33  9.3900651E-02
   7111.67  1.3205122E-01
   7112.00  1.9398805E-01
   7112.33  3.0379803E-01
   7112.67  4.5343275E-01
   7113.00  5.6323481E-01
   7113.33  4.9500515E-01
   7113.67  3.5676511E-01
   7114.00  2.3980859E-01
   7114.33  1.7683633E-01
   7114.67  1.4815135E-01
   7115.00  1.4333658E-01
   7115.33  1.5357675E-01
   7115.67  1.6445383E-01
   7116.00  1.7273222E-01
   7116.33  1.7277463E-01
   7116.67  1.6259172E-01
   7117.00  1.4401921E-01
   7117.33  1.2196038E-01
   7117.67  1.0487120E-01
   7118.00  9.0896796E-02
   7118.33  7.7672771E-02
   7118.67  6.7612922E-02
   7119.00  6.1440934E-02
   7119.33  5.8535775E-02
   7119.67  5.7396250E-02
   7120.00  5.7478852E-02
   7120.33  5.9155682E-02
   7120.67  6.2686143E-02
   7121.00  6.8031404E-02
   7121.33  7.4726348E-02
   7121.67  8.2090035E-02
   7122.00  9.0265301E-02
   7122.33  9.9924315E-02
   7122.67  1.1055597E-01
   7123.00  1.2074913E-01
   7123.33  1.2969724E-01
   7123.67  1.3921780E-01
   7124.00  1.5079582E-01
   7124.33  1.6534560E-01
   7124.67  1.8214339E-01
   7125.00  2.0045961E-01
   7125.33  2.1977055E-01
   7125.67  2.3949966E-01
   7126.00  2.5881414E-01
   7126.33  2.7698505E-01
   7126.67  2.9513372E-01
   7127.00  3.1405915E-01
   7127.33  3.3344424E-01
   7127.67  3.5350369E-01
   7128.00  3.7607197E-01
   7128.33  4.0441809E-01
   7128.67  4.3908380E-01
   7129.00  4.7915473E-01
   7129.33  5.2179920E-01
   7129.67  5.6258432E-01
   7130.00  5.9832979E-01
   7130.33  6.2564049E-01
   7130.67  6.4436557E-01
   7131.00  6.5457002E-01
   7131.33  6.5629888E-01
   7131.67  6.5198927E-01
   7132.00  6.4353121E-01
   7132.33  6.3461524E-01
   7132.67  6.2918126E-01
   7133.00  6.2796513E-01
   7133.33  6.2858512E-01
   7133.67  6.2744503E-01
   7134.00  6.2264974E-01
   7134.33  6.1277047E-01
   7134.67  5.9856503E-01
   7135.00  5.8083172E-01
   7135.33  5.6075499E-01
   7135.67  5.4024040E-01
   7136.00  5.2058020E-01
   7136.33  5.0318080E-01
   7136.67  4.8850170E-01
   7137.00  4.7683874E-01
   7137.33  4.6865125E-01
   7137.67  4.6342356E-01
   7138.00  4.6093526E-01
   7138.33  4.6114133E-01
   7138.67  4.6333273E-01
   7139.00  4.6712552E-01
   7139.33  4.7220338E-01
   7139.67  4.7798605E-01
   7140.00  4.8413577E-01
   7140.33  4.9033574E-01
   7140.67  4.9638591E-01
   7141.00  5.0221963E-01
   7141.33  5.0781212E-01
   7141.67  5.1323504E-01
   7142.00  5.1852485E-01
   7142.33  5.2367793E-01
   7142.67  5.2868845E-01
   7143.00  5.3353063E-01
   7143.33  5.3817294E-01
   7143.67  5.4266077E-01
   7144.00  5.4703833E-01
   7144.33  5.5139351E-01
   7144.67  5.5583098E-01
   7145.00  5.6041399E-01
   7145.33  5.6519105E-01
   7145.67  5.7015528E-01
   7146.00  5.7532347E-01
   7146.33  5.8073447E-01
   7146.67  5.8635316E-01
   7147.00  5.9216210E-01
   7147.33  5.9816638E-01
   7147.67  6.0433108E-01
   7148.00  6.1064232E-01
   7148.33  6.1709145E-01
   7148.67  6.2362594E-01
   7149.00  6.3020034E-01
   7149.33  6.3674163E-01
   7149.67  6.4316848E-01
   7150.00  6.4940023E-01
   7150.33  6.5530781E-01
   7150.67  6.6084586E-01
   7151.00  6.6596142E-01
   7151.33  6.7056148E-01
   7151.67  6.7470294E-01
   7152.00  6.7842430E-01
   7152.33  6.8175658E-01
   7152.67  6.8482020E-01
   7153.00  6.8768407E-01
   7153.33  6.9040964E-01
   7153.67  6.9307614E-01
   7154.00  6.9572493E-01
   7154.33  6.9838602E-01
   7154.67  7.0106197E-01
   7155.00  7.0373642E-01
   7155.33  7.0636416E-01
   7155.67  7.0888991E-01
   7156.00  7.1124732E-01
   7156.33  7.1331299E-01
   7156.67  7.1501785E-01
   7157.00  7.1627082E-01
   7157.33  7.1689820E-01
   7157.67  7.1687540E-01
   7158.00  7.1613581E-01
   7158.33  7.1452732E-01
   7158.67  7.1211771E-01
   7159.00  7.0890437E-01
   7159.33  7.0481080E-01
   7159.67  6.9997924E-01
   7160.00  6.9446276E-01
   7160.33  6.8825891E-01
   7160.67  6.8152735E-01
   7161.00  6.7434552E-01
   7161.33  6.6675984E-01
   7161.67  6.5890217E-01
   7162.00  6.5084442E-01
   7162.33  6.4264896E-01
   7162.67  6.3439757E-01
   7163.00  6.2613716E-01
   7163.33  6.1791499E-01
   7163.67  6.0975918E-01
   7164.00  6.0169053E-01
   7164.33  5.9373987E-01
   7164.67  5.8590823E-01
   7165.00  5.7820701E-01
   7165.33  5.7066724E-01
   7165.67  5.6328490E-01
   7166.00  5.5607289E-01
   7166.33  5.4906892E-01
   7166.67  5.4226445E-01
   7167.00  5.3567237E-01
   7167.33  5.2933572E-01
   7167.67  5.2324030E-01
   7168.00  5.1739787E-01
   7168.33  5.1185377E-01
   7168.67  5.0658483E-01
   7169.00  5.0159775E-01
   7169.33  4.9693431E-01
   7169.67  4.9256265E-01
   7170.00  4.8848525E-01
   7170.33  4.8474139E-01
   7170.67  4.8129760E-01
   7171.00  4.7816144E-01
   7171.33  4.7539665E-01
   7171.67  4.7301592E-01
   7172.00  4.7109686E-01
