    FDMNES
    energy     <xanes>
   7097.00  4.3219750E-03
   7097.33  4.4107724E-03
   7097.67  4.5031023E-03
   7098.00  4.5991846E-03
   7098.33  4.6998061E-03
   7098.67  4.8047760E-03
   7099.00  4.9143913E-03
   7099.33  5.0296657E-03
   7099.67  5.1504021E-03
   7100.00  5.2770137E-03
   7100.33  5.4108433E-03
   7100.67  5.5517029E-03
   7101.00  5.7001872E-03
   7101.33  5.8581363E-03
   7101.67  6.0254064E-03
   7102.00  6.2028895E-03
   7102.33  6.3932130E-03
   7102.67  6.5963573E-03
   7103.00  6.8137291E-03
   7103.33  7.0492766E-03
   7103.67  7.3032907E-03
   7104.00  7.5781301E-03
   7104.33  7.8801238E-03
   7104.67  8.2103303E-03
   7105.00  8.5730255E-03
   7105.33  8.9792311E-03
   7105.67  9.4319995E-03
   7106.00  9.9399042E-03
   7106.33  1.0524367E-02
   7106.67  1.1194145E-02
   7107.00  1.1968942E-02
   7107.33  1.2897209E-02
   7107.67  1.4006816E-02
   7108.00  1.5352778E-02
   7108.33  1.7071993E-02
   7108.67  1.9274501E-02
   7109.00  2.2167562E-02
   7109.33  2.6301024E-02
   7109.67  3.2310644E-02
   7110.00  4.1445641E-02
   7110.33  5.7331413E-02
   7110.67  8.3979883E-02
   7111.00  1.2255225E-01
   7111.33  1.5813802E-01
   7111.67  1.7408630E-01
   7112.00  1.7675877E-01
   7112.33  1.7776777E-01
   7112.67  1.7436323E-01
   7113.00  1.6074914E-01
   7113.33  1.3896611E-01
   7113.67  1.2025583E-01
   7114.00  1.0646647E-01
   7114.33  9.2384362E-02
   7114.67  7.9650870E-02
   7115.00  7.1253145E-02
   7115.33  6.7145458E-02
   7115.67  6.5016233E-02
   7116.00  6.3886965E-02
   7116.33  6.4034528E-02
   7116.67  6.5750136E-02
   7117.00  6.8849434E-02
   7117.33  7.2596232E-02
   7117.67  7.6426937E-02
   7118.00  8.0695437E-02
   7118.33  8.6195137E-02
   7118.67  9.3054178E-02
   7119.00  1.0124176E-01
   7119.33  1.1107932E-01
   7119.67  1.2285731E-01
   7120.00  1.3700966E-01
   7120.33  1.5421949E-01
   7120.67  1.7427430E-01
   7121.00  1.9710318E-01
   7121.33  2.2274361E-01
   7121.67  2.5046586E-01
   7122.00  2.7982412E-01
   7122.33  3.1007465E-01
   7122.67  3.3962843E-01
   7123.00  3.6679677E-01
   7123.33  3.8911899E-01
   7123.67  4.0640862E-01
   7124.00  4.2002984E-01
   7124.33  4.3196047E-01
   7124.67  4.4270734E-01
   7125.00  4.5091398E-01
   7125.33  4.5427633E-01
   7125.67  4.5374221E-01
   7126.00  4.5114864E-01
   7126.33  4.4864694E-01
   7126.67  4.4782924E-01
   7127.00  4.4959271E-01
   7127.33  4.5486405E-01
   7127.67  4.6339568E-01
   7128.00  4.7513191E-01
   7128.33  4.9020380E-01
   7128.67  5.0772763E-01
   7129.00  5.2687759E-01
   7129.33  5.4614558E-01
   7129.67  5.6387919E-01
   7130.00  5.7930481E-01
   7130.33  5.9259035E-01
   7130.67  6.0528501E-01
   7131.00  6.1832454E-01
   7131.33  6.3214813E-01
   7131.67  6.4675440E-01
   7132.00  6.6255478E-01
   7132.33  6.8036511E-01
   7132.67  6.9955067E-01
   7133.00  7.1852215E-01
   7133.33  7.3480618E-01
   7133.67  7.4771753E-01
   7134.00  7.5703534E-01
   7134.33  7.6140220E-01
   7134.67  7.6041481E-01
   7135.00  7.5419083E-01
   7135.33  7.4375555E-01
   7135.67  7.3154940E-01
   7136.00  7.1895227E-01
   7136.33  7.0700538E-01
   7136.67  6.9594484E-01
   7137.00  6.8563703E-01
   7137.33  6.7574772E-01
   7137.67  6.6586260E-01
   7138.00  6.5581769E-01
   7138.33  6.4562497E-01
   7138.67  6.3549297E-01
   7139.00  6.2563554E-01
   7139.33  6.1636795E-01
   7139.67  6.0783632E-01
   7140.00  6.0016928E-01
   7140.33  5.9356326E-01
   7140.67  5.8790779E-01
   7141.00  5.8316338E-01
   7141.33  5.7935117E-01
   7141.67  5.7626781E-01
   7142.00  5.7383237E-01
   7142.33  5.7204743E-01
   7142.67  5.7080941E-01
   7143.00  5.7012334E-01
   7143.33  5.7009751E-01
   7143.67  5.7071274E-01
   7144.00  5.7202258E-01
   7144.33  5.7418599E-01
   7144.67  5.7716757E-01
   7145.00  5.8100660E-01
   7145.33  5.8583475E-01
   7145.67  5.9152954E-01
   7146.00  5.9803488E-01
   7146.33  6.0527656E-01
   7146.67  6.1289141E-01
   7147.00  6.2053812E-01
   7147.33  6.2767387E-01
   7147.67  6.3384032E-01
   7148.00  6.3864227E-01
   7148.33  6.4153873E-01
   7148.67  6.4259106E-01
   7149.00  6.4180860E-01
   7149.33  6.3911808E-01
   7149.67  6.3494716E-01
   7150.00  6.2949551E-01
   7150.33  6.2285071E-01
   7150.67  6.1534780E-01
   7151.00  6.0714373E-01
   7151.33  5.9832188E-01
   7151.67  5.8907869E-01
   7152.00  5.7951521E-01
   7152.33  5.6971819E-01
   7152.67  5.5982366E-01
   7153.00  5.4992596E-01
   7153.33  5.4014753E-01
   7153.67  5.3058191E-01
   7154.00  5.2131723E-01
   7154.33  5.1248502E-01
   7154.67  5.0409450E-01
   7155.00  4.9617562E-01
   7155.33  4.8879827E-01
   7155.67  4.8188215E-01
   7156.00  4.7538550E-01
   7156.33  4.6927066E-01
   7156.67  4.6338494E-01
   7157.00  4.5762009E-01
   7157.33  4.5184386E-01
   7157.67  4.4593731E-01
   7158.00  4.3982002E-01
   7158.33  4.3340498E-01
   7158.67  4.2672307E-01
   7159.00  4.1981497E-01
   7159.33  4.1275387E-01
   7159.67  4.0568189E-01
   7160.00  3.9872335E-01
   7160.33  3.9206165E-01
   7160.67  3.8580841E-01
   7161.00  3.8007667E-01
   7161.33  3.7505749E-01
   7161.67  3.7075730E-01
   7162.00  3.6722661E-01
   7162.33  3.6459317E-01
   7162.67  3.6274570E-01
   7163.00  3.6165114E-01
   7163.33  3.6134125E-01
   7163.67  3.6165530E-01
   7164.00  3.6251989E-01
   7164.33  3.6390080E-01
   7164.67  3.6564844E-01
   7165.00  3.6768791E-01
   7165.33  3.6996759E-01
   7165.67  3.7239451E-01
   7166.00  3.7492303E-01
   7166.33  3.7752224E-01
   7166.67  3.8016016E-01
   7167.00  3.8282586E-01
   7167.33  3.8551836E-01
   7167.67  3.8823694E-01
   7168.00  3.9098569E-01
   7168.33  3.9377331E-01
   7168.67  3.9659627E-01
   7169.00  3.9945069E-01
   7169.33  4.0232880E-01
   7169.67  4.0521052E-01
   7170.00  4.0807422E-01
   7170.33  4.1087912E-01
   7170.67  4.1358734E-01
   7171.00  4.1615197E-01
   7171.33  4.1847698E-01
   7171.67  4.2049318E-01
   7172.00  4.2209752E-01
