    FDMNES
    energy     <xanes>
   7097.00  4.1389142E-03
   7097.33  4.2242920E-03
   7097.67  4.3131348E-03
   7098.00  4.4056600E-03
   7098.33  4.5026414E-03
   7098.67  4.6038926E-03
   7099.00  4.7097059E-03
   7099.33  4.8210758E-03
   7099.67  4.9378069E-03
   7100.00  5.0603016E-03
   7100.33  5.1898705E-03
   7100.67  5.3263205E-03
   7101.00  5.4702228E-03
   7101.33  5.6233560E-03
   7101.67  5.7855557E-03
   7102.00  5.9576621E-03
   7102.33  6.1421753E-03
   7102.67  6.3390187E-03
   7103.00  6.5494811E-03
   7103.33  6.7772309E-03
   7103.67  7.0224128E-03
   7104.00  7.2871078E-03
   7104.33  7.5769921E-03
   7104.67  7.8927450E-03
   7105.00  8.2379494E-03
   7105.33  8.6219996E-03
   7105.67  9.0468969E-03
   7106.00  9.5193398E-03
   7106.33  1.0056307E-02
   7106.67  1.0663309E-02
   7107.00  1.1354331E-02
   7107.33  1.2163979E-02
   7107.67  1.3108318E-02
   7108.00  1.4221484E-02
   7108.33  1.5587537E-02
   7108.67  1.7261435E-02
   7109.00  1.9349224E-02
   7109.33  2.2121337E-02
   7109.67  2.5834177E-02
   7110.00  3.0980703E-02
   7110.33  3.8933892E-02
   7110.67  5.1280338E-02
   7111.00  6.9887883E-02
   7111.33  9.6226114E-02
   7111.67  1.2863224E-01
   7112.00  1.6595298E-01
   7112.33  2.1273076E-01
   7112.67  2.5098933E-01
   7113.00  2.4915164E-01
   7113.33  2.2365809E-01
   7113.67  2.0989645E-01
   7114.00  2.0676816E-01
   7114.33  1.9240369E-01
   7114.67  1.6742900E-01
   7115.00  1.4242338E-01
   7115.33  1.2182905E-01
   7115.67  1.0746850E-01
   7116.00  1.0077125E-01
   7116.33  1.0368292E-01
   7116.67  1.1589978E-01
   7117.00  1.3909426E-01
   7117.33  1.7781969E-01
   7117.67  2.1737671E-01
   7118.00  2.2336687E-01
   7118.33  1.8245675E-01
   7118.67  1.4004426E-01
   7119.00  1.1331545E-01
   7119.33  1.0215800E-01
   7119.67  9.5102706E-02
   7120.00  8.5897729E-02
   7120.33  7.7566382E-02
   7120.67  7.2826807E-02
   7121.00  7.1761722E-02
   7121.33  7.4455738E-02
   7121.67  8.0382459E-02
   7122.00  8.9579542E-02
   7122.33  1.0194074E-01
   7122.67  1.1537056E-01
   7123.00  1.2809452E-01
   7123.33  1.3986274E-01
   7123.67  1.5217936E-01
   7124.00  1.6631911E-01
   7124.33  1.8393742E-01
   7124.67  2.0497953E-01
   7125.00  2.2856900E-01
   7125.33  2.5314036E-01
   7125.67  2.7785066E-01
   7126.00  3.0333848E-01
   7126.33  3.2987705E-01
   7126.67  3.5369372E-01
   7127.00  3.6875498E-01
   7127.33  3.6940541E-01
   7127.67  3.6259102E-01
   7128.00  3.5751026E-01
   7128.33  3.6308313E-01
   7128.67  3.7936314E-01
   7129.00  4.0371115E-01
   7129.33  4.3266093E-01
   7129.67  4.6085655E-01
   7130.00  4.8429590E-01
   7130.33  5.0423035E-01
   7130.67  5.2625769E-01
   7131.00  5.5006481E-01
   7131.33  5.6855922E-01
   7131.67  5.7552277E-01
   7132.00  5.7109101E-01
   7132.33  5.6454297E-01
   7132.67  5.6596817E-01
   7133.00  5.7683890E-01
   7133.33  5.9490381E-01
   7133.67  6.1569428E-01
   7134.00  6.3633158E-01
   7134.33  6.5391280E-01
   7134.67  6.6768028E-01
   7135.00  6.7782519E-01
   7135.33  6.8521394E-01
   7135.67  6.9193898E-01
   7136.00  6.9936489E-01
   7136.33  7.0818999E-01
   7136.67  7.1744948E-01
   7137.00  7.2598929E-01
   7137.33  7.3322958E-01
   7137.67  7.4042584E-01
   7138.00  7.4901386E-01
   7138.33  7.6030310E-01
   7138.67  7.7381246E-01
   7139.00  7.8861281E-01
   7139.33  8.0325346E-01
   7139.67  8.1644833E-01
   7140.00  8.2734715E-01
   7140.33  8.3480529E-01
   7140.67  8.3852125E-01
   7141.00  8.3788895E-01
   7141.33  8.3156801E-01
   7141.67  8.1966017E-01
   7142.00  8.0208197E-01
   7142.33  7.7874221E-01
   7142.67  7.5148548E-01
   7143.00  7.2165049E-01
   7143.33  6.9069080E-01
   7143.67  6.6007510E-01
   7144.00  6.3067500E-01
   7144.33  6.0341692E-01
   7144.67  5.7845941E-01
   7145.00  5.5596628E-01
   7145.33  5.3629665E-01
   7145.67  5.1907885E-01
   7146.00  5.0421002E-01
   7146.33  4.9179987E-01
   7146.67  4.8138259E-01
   7147.00  4.7278681E-01
   7147.33  4.6603003E-01
   7147.67  4.6075114E-01
   7148.00  4.5684702E-01
   7148.33  4.5438075E-01
   7148.67  4.5309572E-01
   7149.00  4.5289706E-01
   7149.33  4.5379883E-01
   7149.67  4.5559895E-01
   7150.00  4.5825084E-01
   7150.33  4.6178483E-01
   7150.67  4.6598498E-01
   7151.00  4.7070938E-01
   7151.33  4.7581185E-01
   7151.67  4.8107195E-01
   7152.00  4.8637106E-01
   7152.33  4.9161706E-01
   7152.67  4.9678738E-01
   7153.00  5.0190640E-01
   7153.33  5.0706271E-01
   7153.67  5.1237669E-01
   7154.00  5.1794631E-01
   7154.33  5.2381889E-01
   7154.67  5.2974643E-01
   7155.00  5.3529198E-01
   7155.33  5.3954464E-01
   7155.67  5.4182316E-01
   7156.00  5.4162867E-01
   7156.33  5.3852946E-01
   7156.67  5.3325107E-01
   7157.00  5.2641040E-01
   7157.33  5.1869709E-01
   7157.67  5.1084190E-01
   7158.00  5.0316052E-01
   7158.33  4.9576203E-01
   7158.67  4.8843904E-01
   7159.00  4.8092427E-01
   7159.33  4.7282766E-01
   7159.67  4.6398627E-01
   7160.00  4.5434376E-01
   7160.33  4.4393270E-01
   7160.67  4.3312251E-01
   7161.00  4.2223179E-01
   7161.33  4.1167158E-01
   7161.67  4.0171165E-01
   7162.00  3.9253605E-01
   7162.33  3.8439562E-01
   7162.67  3.7726072E-01
   7163.00  3.7118766E-01
   7163.33  3.6637379E-01
   7163.67  3.6273007E-01
   7164.00  3.6029775E-01
   7164.33  3.5927694E-01
   7164.67  3.5954115E-01
   7165.00  3.6110124E-01
   7165.33  3.6410638E-01
   7165.67  3.6834605E-01
   7166.00  3.7373405E-01
   7166.33  3.8024725E-01
   7166.67  3.8756784E-01
   7167.00  3.9548879E-01
   7167.33  4.0376150E-01
   7167.67  4.1202302E-01
   7168.00  4.1998428E-01
   7168.33  4.2724583E-01
   7168.67  4.3361185E-01
   7169.00  4.3891010E-01
   7169.33  4.4288820E-01
   7169.67  4.4569965E-01
   7170.00  4.4743787E-01
   7170.33  4.4818837E-01
   7170.67  4.4831905E-01
   7171.00  4.4807101E-01
   7171.33  4.4769145E-01
   7171.67  4.4738738E-01
   7172.00  4.4722944E-01
