    FDMNES
    energy     <xanes>
   7097.00  5.0373059E-03
   7097.33  5.1567547E-03
   7097.67  5.2817070E-03
   7098.00  5.4125416E-03
   7098.33  5.5505429E-03
   7098.67  5.6954592E-03
   7099.00  5.8478085E-03
   7099.33  6.0092770E-03
   7099.67  6.1796092E-03
   7100.00  6.3595323E-03
   7100.33  6.5513186E-03
   7100.67  6.7547355E-03
   7101.00  6.9708363E-03
   7101.33  7.2027783E-03
   7101.67  7.4504117E-03
   7102.00  7.7153185E-03
   7102.33  8.0020510E-03
   7102.67  8.3106739E-03
   7103.00  8.6436704E-03
   7103.33  9.0079062E-03
   7103.67  9.4039597E-03
   7104.00  9.8359455E-03
   7104.33  1.0314816E-02
   7104.67  1.0842378E-02
   7105.00  1.1425932E-02
   7105.33  1.2084255E-02
   7105.67  1.2822229E-02
   7106.00  1.3654027E-02
   7106.33  1.4615068E-02
   7106.67  1.5718693E-02
   7107.00  1.6995996E-02
   7107.33  1.8523412E-02
   7107.67  2.0341240E-02
   7108.00  2.2531090E-02
   7108.33  2.5294865E-02
   7108.67  2.8782119E-02
   7109.00  3.3276966E-02
   7109.33  3.9522373E-02
   7109.67  4.8321906E-02
   7110.00  6.1245388E-02
   7110.33  8.2793389E-02
   7110.67  1.1798631E-01
   7111.00  1.6958223E-01
   7111.33  2.2654955E-01
   7111.67  2.7042013E-01
   7112.00  2.9596399E-01
   7112.33  3.1114036E-01
   7112.67  3.3297095E-01
   7113.00  3.7042547E-01
   7113.33  4.2102634E-01
   7113.67  4.6008907E-01
   7114.00  4.6208324E-01
   7114.33  4.1318130E-01
   7114.67  3.4578599E-01
   7115.00  2.8443654E-01
   7115.33  2.4071670E-01
   7115.67  2.1061475E-01
   7116.00  1.9013066E-01
   7116.33  1.7518435E-01
   7116.67  1.6113447E-01
   7117.00  1.4669085E-01
   7117.33  1.3353002E-01
   7117.67  1.2279136E-01
   7118.00  1.1431862E-01
   7118.33  1.0832565E-01
   7118.67  1.0454478E-01
   7119.00  1.0249745E-01
   7119.33  1.0119770E-01
   7119.67  1.0004511E-01
   7120.00  9.9683875E-02
   7120.33  1.0104202E-01
   7120.67  1.0357901E-01
   7121.00  1.0641736E-01
   7121.33  1.0924251E-01
   7121.67  1.1291451E-01
   7122.00  1.1829765E-01
   7122.33  1.2626139E-01
   7122.67  1.3661709E-01
   7123.00  1.4901527E-01
   7123.33  1.6319006E-01
   7123.67  1.7937070E-01
   7124.00  1.9784285E-01
   7124.33  2.1729264E-01
   7124.67  2.3587335E-01
   7125.00  2.5399712E-01
   7125.33  2.7330335E-01
   7125.67  2.9394247E-01
   7126.00  3.1553312E-01
   7126.33  3.3868411E-01
   7126.67  3.6427973E-01
   7127.00  3.9294159E-01
   7127.33  4.2518454E-01
   7127.67  4.5996148E-01
   7128.00  4.9619103E-01
   7128.33  5.3170087E-01
   7128.67  5.6347763E-01
   7129.00  5.8914898E-01
   7129.33  6.0699737E-01
   7129.67  6.1869299E-01
   7130.00  6.2567014E-01
   7130.33  6.3043615E-01
   7130.67  6.3626238E-01
   7131.00  6.4443094E-01
   7131.33  6.5472809E-01
   7131.67  6.6603687E-01
   7132.00  6.7860056E-01
   7132.33  6.9448297E-01
   7132.67  7.1541843E-01
   7133.00  7.4214037E-01
   7133.33  7.7353436E-01
   7133.67  8.0505751E-01
   7134.00  8.3286788E-01
   7134.33  8.5361187E-01
   7134.67  8.6759741E-01
   7135.00  8.7372754E-01
   7135.33  8.6786426E-01
   7135.67  8.5121935E-01
   7136.00  8.2746505E-01
   7136.33  8.0149232E-01
   7136.67  7.7650998E-01
   7137.00  7.5327391E-01
   7137.33  7.3190863E-01
   7137.67  7.1189624E-01
   7138.00  6.9308622E-01
   7138.33  6.7569498E-01
   7138.67  6.5986120E-01
   7139.00  6.4597177E-01
   7139.33  6.3483546E-01
   7139.67  6.2658740E-01
   7140.00  6.2146175E-01
   7140.33  6.1984322E-01
   7140.67  6.2094674E-01
   7141.00  6.2409137E-01
   7141.33  6.2827459E-01
   7141.67  6.3213413E-01
   7142.00  6.3473241E-01
   7142.33  6.3512874E-01
   7142.67  6.3339368E-01
   7143.00  6.2973319E-01
   7143.33  6.2443050E-01
   7143.67  6.1817288E-01
   7144.00  6.1131090E-01
   7144.33  6.0406020E-01
   7144.67  5.9657745E-01
   7145.00  5.8888751E-01
   7145.33  5.8097421E-01
   7145.67  5.7290029E-01
   7146.00  5.6473738E-01
   7146.33  5.5660216E-01
   7146.67  5.4860564E-01
   7147.00  5.4082387E-01
   7147.33  5.3334397E-01
   7147.67  5.2615978E-01
   7148.00  5.1929216E-01
   7148.33  5.1282119E-01
   7148.67  5.0675019E-01
   7149.00  5.0112487E-01
   7149.33  4.9606024E-01
   7149.67  4.9153570E-01
   7150.00  4.8757841E-01
   7150.33  4.8428202E-01
   7150.67  4.8158411E-01
   7151.00  4.7949138E-01
   7151.33  4.7808997E-01
   7151.67  4.7731760E-01
   7152.00  4.7719093E-01
   7152.33  4.7781402E-01
   7152.67  4.7911875E-01
   7153.00  4.8110713E-01
   7153.33  4.8384576E-01
   7153.67  4.8720732E-01
   7154.00  4.9112769E-01
   7154.33  4.9556039E-01
   7154.67  5.0032009E-01
   7155.00  5.0528158E-01
   7155.33  5.1029277E-01
   7155.67  5.1518294E-01
   7156.00  5.1980758E-01
   7156.33  5.2394394E-01
   7156.67  5.2748082E-01
   7157.00  5.3028220E-01
   7157.33  5.3209235E-01
   7157.67  5.3289852E-01
   7158.00  5.3262493E-01
   7158.33  5.3109381E-01
   7158.67  5.2847119E-01
   7159.00  5.2483344E-01
   7159.33  5.2021657E-01
   7159.67  5.1491771E-01
   7160.00  5.0911515E-01
   7160.33  5.0297555E-01
   7160.67  4.9671793E-01
   7161.00  4.9047113E-01
   7161.33  4.8436658E-01
   7161.67  4.7847219E-01
   7162.00  4.7283727E-01
   7162.33  4.6752706E-01
   7162.67  4.6251394E-01
   7163.00  4.5780719E-01
   7163.33  4.5346361E-01
   7163.67  4.4945839E-01
   7164.00  4.4580281E-01
   7164.33  4.4255282E-01
   7164.67  4.3967075E-01
   7165.00  4.3715928E-01
   7165.33  4.3506378E-01
   7165.67  4.3333285E-01
   7166.00  4.3195814E-01
   7166.33  4.3096863E-01
   7166.67  4.3030396E-01
   7167.00  4.2994558E-01
   7167.33  4.2990450E-01
   7167.67  4.3012129E-01
   7168.00  4.3057267E-01
   7168.33  4.3125680E-01
   7168.67  4.3212264E-01
   7169.00  4.3315065E-01
   7169.33  4.3433822E-01
   7169.67  4.3564879E-01
   7170.00  4.3706582E-01
   7170.33  4.3857732E-01
   7170.67  4.4014380E-01
   7171.00  4.4173158E-01
   7171.33  4.4327760E-01
   7171.67  4.4469010E-01
   7172.00  4.4584891E-01
