    FDMNES
    energy     <xanes>
   7097.00  4.6123036E-03
   7097.33  4.7096969E-03
   7097.67  4.8110741E-03
   7098.00  4.9166892E-03
   7098.33  5.0274391E-03
   7098.67  5.1431165E-03
   7099.00  5.2640665E-03
   7099.33  5.3914522E-03
   7099.67  5.5250621E-03
   7100.00  5.6653798E-03
   7100.33  5.8139576E-03
   7100.67  5.9706006E-03
   7101.00  6.1360109E-03
   7101.33  6.3123355E-03
   7101.67  6.4994419E-03
   7102.00  6.6983955E-03
   7102.33  6.9122976E-03
   7102.67  7.1411838E-03
   7103.00  7.3867586E-03
   7103.33  7.6537518E-03
   7103.67  7.9426167E-03
   7104.00  8.2562645E-03
   7104.33  8.6024245E-03
   7104.67  8.9825932E-03
   7105.00  9.4021764E-03
   7105.33  9.8749850E-03
   7105.67  1.0405287E-02
   7106.00  1.1004277E-02
   7106.33  1.1699768E-02
   7106.67  1.2504251E-02
   7107.00  1.3444648E-02
   7107.33  1.4587169E-02
   7107.67  1.5973427E-02
   7108.00  1.7683848E-02
   7108.33  1.9920625E-02
   7108.67  2.2861993E-02
   7109.00  2.6844458E-02
   7109.33  3.2786501E-02
   7109.67  4.1856509E-02
   7110.00  5.6383072E-02
   7110.33  8.2943814E-02
   7110.67  1.2514917E-01
   7111.00  1.6780827E-01
   7111.33  1.7492902E-01
   7111.67  1.7436838E-01
   7112.00  1.8421845E-01
   7112.33  1.8992598E-01
   7112.67  1.7556287E-01
   7113.00  1.5115705E-01
   7113.33  1.3376431E-01
   7113.67  1.2284994E-01
   7114.00  1.0969252E-01
   7114.33  9.3201424E-02
   7114.67  7.9651498E-02
   7115.00  7.0388731E-02
   7115.33  6.5247130E-02
   7115.67  6.3114521E-02
   7116.00  6.3447900E-02
   7116.33  6.5356416E-02
   7116.67  6.7140584E-02
   7117.00  6.8540914E-02
   7117.33  7.1294026E-02
   7117.67  7.6406850E-02
   7118.00  8.4042631E-02
   7118.33  9.4156384E-02
   7118.67  1.0561069E-01
   7119.00  1.1777582E-01
   7119.33  1.3043869E-01
   7119.67  1.4289695E-01
   7120.00  1.5489174E-01
   7120.33  1.6724070E-01
   7120.67  1.8083148E-01
   7121.00  1.9667083E-01
   7121.33  2.1736374E-01
   7121.67  2.4403088E-01
   7122.00  2.7695895E-01
   7122.33  3.1620640E-01
   7122.67  3.5962482E-01
   7123.00  4.0529173E-01
   7123.33  4.4981473E-01
   7123.67  4.8887219E-01
   7124.00  5.1900030E-01
   7124.33  5.3908939E-01
   7124.67  5.5446871E-01
   7125.00  5.6840167E-01
   7125.33  5.8086465E-01
   7125.67  5.9094425E-01
   7126.00  6.0278598E-01
   7126.33  6.2046502E-01
   7126.67  6.3930125E-01
   7127.00  6.5772703E-01
   7127.33  6.7846027E-01
   7127.67  7.0230023E-01
   7128.00  7.2754609E-01
   7128.33  7.5049587E-01
   7128.67  7.6815455E-01
   7129.00  7.7863394E-01
   7129.33  7.8028178E-01
   7129.67  7.7494781E-01
   7130.00  7.6406490E-01
   7130.33  7.4923720E-01
   7130.67  7.3317759E-01
   7131.00  7.1755444E-01
   7131.33  7.0348953E-01
   7131.67  6.9076773E-01
   7132.00  6.7912133E-01
   7132.33  6.6866573E-01
   7132.67  6.5971811E-01
   7133.00  6.5295196E-01
   7133.33  6.4935226E-01
   7133.67  6.4822751E-01
   7134.00  6.4840182E-01
   7134.33  6.4851655E-01
   7134.67  6.4818841E-01
   7135.00  6.4777559E-01
   7135.33  6.4800842E-01
   7135.67  6.4934682E-01
   7136.00  6.5203992E-01
   7136.33  6.5632749E-01
   7136.67  6.6188450E-01
   7137.00  6.6842038E-01
   7137.33  6.7544391E-01
   7137.67  6.8214126E-01
   7138.00  6.8774698E-01
   7138.33  6.9110911E-01
   7138.67  6.9169380E-01
   7139.00  6.8902835E-01
   7139.33  6.8244515E-01
   7139.67  6.7250106E-01
   7140.00  6.5955780E-01
   7140.33  6.4395682E-01
   7140.67  6.2673351E-01
   7141.00  6.0851821E-01
   7141.33  5.8992520E-01
   7141.67  5.7152817E-01
   7142.00  5.5367369E-01
   7142.33  5.3674663E-01
   7142.67  5.2081349E-01
   7143.00  5.0594901E-01
   7143.33  4.9231625E-01
   7143.67  4.7976061E-01
   7144.00  4.6824474E-01
   7144.33  4.5782667E-01
   7144.67  4.4830327E-01
   7145.00  4.3960497E-01
   7145.33  4.3175696E-01
   7145.67  4.2460849E-01
   7146.00  4.1811955E-01
   7146.33  4.1232681E-01
   7146.67  4.0711569E-01
   7147.00  4.0245474E-01
   7147.33  3.9837074E-01
   7147.67  3.9476324E-01
   7148.00  3.9159778E-01
   7148.33  3.8887764E-01
   7148.67  3.8650470E-01
   7149.00  3.8443480E-01
   7149.33  3.8264543E-01
   7149.67  3.8105384E-01
   7150.00  3.7962184E-01
   7150.33  3.7833079E-01
   7150.67  3.7714158E-01
   7151.00  3.7604983E-01
   7151.33  3.7509042E-01
   7151.67  3.7428708E-01
   7152.00  3.7367797E-01
   7152.33  3.7332823E-01
   7152.67  3.7323233E-01
   7153.00  3.7339386E-01
   7153.33  3.7381673E-01
   7153.67  3.7441262E-01
   7154.00  3.7510784E-01
   7154.33  3.7580318E-01
   7154.67  3.7640388E-01
   7155.00  3.7684566E-01
   7155.33  3.7705828E-01
   7155.67  3.7706034E-01
   7156.00  3.7687443E-01
   7156.33  3.7653398E-01
   7156.67  3.7612041E-01
   7157.00  3.7569031E-01
   7157.33  3.7530790E-01
   7157.67  3.7501442E-01
   7158.00  3.7483852E-01
   7158.33  3.7482018E-01
   7158.67  3.7495718E-01
   7159.00  3.7525970E-01
   7159.33  3.7576164E-01
   7159.67  3.7645628E-01
   7160.00  3.7736347E-01
   7160.33  3.7854819E-01
   7160.67  3.8002608E-01
   7161.00  3.8184379E-01
   7161.33  3.8410603E-01
   7161.67  3.8681164E-01
   7162.00  3.8998935E-01
   7162.33  3.9371348E-01
   7162.67  3.9791433E-01
   7163.00  4.0256737E-01
   7163.33  4.0767944E-01
   7163.67  4.1314146E-01
   7164.00  4.1889246E-01
   7164.33  4.2487383E-01
   7164.67  4.3096436E-01
   7165.00  4.3707393E-01
   7165.33  4.4307702E-01
   7165.67  4.4886566E-01
   7166.00  4.5433609E-01
   7166.33  4.5931918E-01
   7166.67  4.6376896E-01
   7167.00  4.6761853E-01
   7167.33  4.7073992E-01
   7167.67  4.7320722E-01
   7168.00  4.7505014E-01
   7168.33  4.7627714E-01
   7168.67  4.7707476E-01
   7169.00  4.7756956E-01
   7169.33  4.7790726E-01
   7169.67  4.7826724E-01
   7170.00  4.7877249E-01
   7170.33  4.7956376E-01
   7170.67  4.8066780E-01
   7171.00  4.8208320E-01
   7171.33  4.8376220E-01
   7171.67  4.8549484E-01
   7172.00  4.8703871E-01
