    FDMNES
    energy     <xanes>
   7097.00  5.6597303E-03
   7097.33  5.8166115E-03
   7097.67  5.9816724E-03
   7098.00  6.1555266E-03
   7098.33  6.3401683E-03
   7098.67  6.5352919E-03
   7099.00  6.7417517E-03
   7099.33  6.9622214E-03
   7099.67  7.1964100E-03
   7100.00  7.4455397E-03
   7100.33  7.7132936E-03
   7100.67  7.9994509E-03
   7101.00  8.3058164E-03
   7101.33  8.6376273E-03
   7101.67  8.9948534E-03
   7102.00  9.3802605E-03
   7102.33  9.8015831E-03
   7102.67  1.0259245E-02
   7103.00  1.0757676E-02
   7103.33  1.1308835E-02
   7103.67  1.1914193E-02
   7104.00  1.2581244E-02
   7104.33  1.3329553E-02
   7104.67  1.4163048E-02
   7105.00  1.5095305E-02
   7105.33  1.6160696E-02
   7105.67  1.7369267E-02
   7106.00  1.8747845E-02
   7106.33  2.0362761E-02
   7106.67  2.2240712E-02
   7107.00  2.4441346E-02
   7107.33  2.7110216E-02
   7107.67  3.0326314E-02
   7108.00  3.4246478E-02
   7108.33  3.9256209E-02
   7108.67  4.5639703E-02
   7109.00  5.3930912E-02
   7109.33  6.5509185E-02
   7109.67  8.1813826E-02
   7110.00  1.0561928E-01
   7110.33  1.4480098E-01
   7110.67  2.0868088E-01
   7111.00  3.0672256E-01
   7111.33  4.3845575E-01
   7111.67  5.7667732E-01
   7112.00  6.9571556E-01
   7112.33  8.1049242E-01
   7112.67  8.9606695E-01
   7113.00  8.4646621E-01
   7113.33  6.5318155E-01
   7113.67  4.6609547E-01
   7114.00  3.3390936E-01
   7114.33  2.5397137E-01
   7114.67  2.0227669E-01
   7115.00  1.6837193E-01
   7115.33  1.4650561E-01
   7115.67  1.3139745E-01
   7116.00  1.2091866E-01
   7116.33  1.1384145E-01
   7116.67  1.0917357E-01
   7117.00  1.0679089E-01
   7117.33  1.0673889E-01
   7117.67  1.0817331E-01
   7118.00  1.1063262E-01
   7118.33  1.1467078E-01
   7118.67  1.2030939E-01
   7119.00  1.2631144E-01
   7119.33  1.2958851E-01
   7119.67  1.2897105E-01
   7120.00  1.2619984E-01
   7120.33  1.2446841E-01
   7120.67  1.2536485E-01
   7121.00  1.2963335E-01
   7121.33  1.3824765E-01
   7121.67  1.5032368E-01
   7122.00  1.6488860E-01
   7122.33  1.8198935E-01
   7122.67  2.0218680E-01
   7123.00  2.2582083E-01
   7123.33  2.5303437E-01
   7123.67  2.8277305E-01
   7124.00  3.1386042E-01
   7124.33  3.4308491E-01
   7124.67  3.6582227E-01
   7125.00  3.7858155E-01
   7125.33  3.8041868E-01
   7125.67  3.7700085E-01
   7126.00  3.7277391E-01
   7126.33  3.7177964E-01
   7126.67  3.7517045E-01
   7127.00  3.8283415E-01
   7127.33  3.9431559E-01
   7127.67  4.0838446E-01
   7128.00  4.2458331E-01
   7128.33  4.4261317E-01
   7128.67  4.6165256E-01
   7129.00  4.8127691E-01
   7129.33  5.0194815E-01
   7129.67  5.2500126E-01
   7130.00  5.5160790E-01
   7130.33  5.8185653E-01
   7130.67  6.1277749E-01
   7131.00  6.4107356E-01
   7131.33  6.6243443E-01
   7131.67  6.7589498E-01
   7132.00  6.8181656E-01
   7132.33  6.8135175E-01
   7132.67  6.7736471E-01
   7133.00  6.7115058E-01
   7133.33  6.6288656E-01
   7133.67  6.5206051E-01
   7134.00  6.3758756E-01
   7134.33  6.1795843E-01
   7134.67  5.9387389E-01
   7135.00  5.6647738E-01
   7135.33  5.3777335E-01
   7135.67  5.1021485E-01
   7136.00  4.8542503E-01
   7136.33  4.6515704E-01
   7136.67  4.4958710E-01
   7137.00  4.3905756E-01
   7137.33  4.3461139E-01
   7137.67  4.3603224E-01
   7138.00  4.4375176E-01
   7138.33  4.5888938E-01
   7138.67  4.8025805E-01
   7139.00  5.0668366E-01
   7139.33  5.3604685E-01
   7139.67  5.6493396E-01
   7140.00  5.9085175E-01
   7140.33  6.1108228E-01
   7140.67  6.2527177E-01
   7141.00  6.3335091E-01
   7141.33  6.3518621E-01
   7141.67  6.3245914E-01
   7142.00  6.2618279E-01
   7142.33  6.1727087E-01
   7142.67  6.0712384E-01
   7143.00  5.9655059E-01
   7143.33  5.8634120E-01
   7143.67  5.7700087E-01
   7144.00  5.6885177E-01
   7144.33  5.6230766E-01
   7144.67  5.5731474E-01
   7145.00  5.5392734E-01
   7145.33  5.5239702E-01
   7145.67  5.5258146E-01
   7146.00  5.5457202E-01
   7146.33  5.5877442E-01
   7146.67  5.6515615E-01
   7147.00  5.7393565E-01
   7147.33  5.8573940E-01
   7147.67  6.0053537E-01
   7148.00  6.1855520E-01
   7148.33  6.4039645E-01
   7148.67  6.6562371E-01
   7149.00  6.9401679E-01
   7149.33  7.2534348E-01
   7149.67  7.5837270E-01
   7150.00  7.9207147E-01
   7150.33  8.2492785E-01
   7150.67  8.5552463E-01
   7151.00  8.8262357E-01
   7151.33  9.0441968E-01
   7151.67  9.2065958E-01
   7152.00  9.3097437E-01
   7152.33  9.3460051E-01
   7152.67  9.3263214E-01
   7153.00  9.2558118E-01
   7153.33  9.1363427E-01
   7153.67  8.9811105E-01
   7154.00  8.7965491E-01
   7154.33  8.5866865E-01
   7154.67  8.3603579E-01
   7155.00  8.1221974E-01
   7155.33  7.8762460E-01
   7155.67  7.6276722E-01
   7156.00  7.3796752E-01
   7156.33  7.1358978E-01
   7156.67  6.8984774E-01
   7157.00  6.6692171E-01
   7157.33  6.4509483E-01
   7157.67  6.2435742E-01
   7158.00  6.0477005E-01
   7158.33  5.8651071E-01
   7158.67  5.6942603E-01
   7159.00  5.5348326E-01
   7159.33  5.3874679E-01
   7159.67  5.2499359E-01
   7160.00  5.1214331E-01
   7160.33  5.0020769E-01
   7160.67  4.8900643E-01
   7161.00  4.7848711E-01
   7161.33  4.6868606E-01
   7161.67  4.5949418E-01
   7162.00  4.5089014E-01
   7162.33  4.4291085E-01
   7162.67  4.3544085E-01
   7163.00  4.2842945E-01
   7163.33  4.2185519E-01
   7163.67  4.1559336E-01
   7164.00  4.0957875E-01
   7164.33  4.0376397E-01
   7164.67  3.9807055E-01
   7165.00  3.9246481E-01
   7165.33  3.8693433E-01
   7165.67  3.8146630E-01
   7166.00  3.7606158E-01
   7166.33  3.7072803E-01
   7166.67  3.6546867E-01
   7167.00  3.6030116E-01
   7167.33  3.5526455E-01
   7167.67  3.5037325E-01
   7168.00  3.4565569E-01
   7168.33  3.4117539E-01
   7168.67  3.3694696E-01
   7169.00  3.3300663E-01
   7169.33  3.2943424E-01
   7169.67  3.2622093E-01
   7170.00  3.2338718E-01
   7170.33  3.2099606E-01
   7170.67  3.1899961E-01
   7171.00  3.1738682E-01
   7171.33  3.1617216E-01
   7171.67  3.1525750E-01
   7172.00  3.1457194E-01
