    FDMNES
    energy     <xanes>
   7097.00  5.1299627E-03
   7097.33  5.2576579E-03
   7097.67  5.3914361E-03
   7098.00  5.5317230E-03
   7098.33  5.6799500E-03
   7098.67  5.8358475E-03
   7099.00  5.9999987E-03
   7099.33  6.1742875E-03
   7099.67  6.3584410E-03
   7100.00  6.5532781E-03
   7100.33  6.7613432E-03
   7100.67  6.9823892E-03
   7101.00  7.2176019E-03
   7101.33  7.4705215E-03
   7101.67  7.7409924E-03
   7102.00  8.0307933E-03
   7102.33  8.3450295E-03
   7102.67  8.6837809E-03
   7103.00  9.0498318E-03
   7103.33  9.4508714E-03
   7103.67  9.8875394E-03
   7104.00  1.0364428E-02
   7104.33  1.0893762E-02
   7104.67  1.1477507E-02
   7105.00  1.2123755E-02
   7105.33  1.2853328E-02
   7105.67  1.3671485E-02
   7106.00  1.4593764E-02
   7106.33  1.5659035E-02
   7106.67  1.6881479E-02
   7107.00  1.8294661E-02
   7107.33  1.9981109E-02
   7107.67  2.1982916E-02
   7108.00  2.4386235E-02
   7108.33  2.7403817E-02
   7108.67  3.1188210E-02
   7109.00  3.6030439E-02
   7109.33  4.2687559E-02
   7109.67  5.1956284E-02
   7110.00  6.5389621E-02
   7110.33  8.7393841E-02
   7110.67  1.2263690E-01
   7111.00  1.7329358E-01
   7111.33  2.3106470E-01
   7111.67  2.8292115E-01
   7112.00  3.2636977E-01
   7112.33  3.7140242E-01
   7112.67  4.2935701E-01
   7113.00  4.9330951E-01
   7113.33  5.5519487E-01
   7113.67  6.0027538E-01
   7114.00  5.7241852E-01
   7114.33  4.5758184E-01
   7114.67  3.4291172E-01
   7115.00  2.6267403E-01
   7115.33  2.1981385E-01
   7115.67  2.0094464E-01
   7116.00  1.9987941E-01
   7116.33  2.0893139E-01
   7116.67  2.1767102E-01
   7117.00  2.2259304E-01
   7117.33  2.1858912E-01
   7117.67  2.0385441E-01
   7118.00  1.8265649E-01
   7118.33  1.6243754E-01
   7118.67  1.4649083E-01
   7119.00  1.3471358E-01
   7119.33  1.2673958E-01
   7119.67  1.2153379E-01
   7120.00  1.1860203E-01
   7120.33  1.1736737E-01
   7120.67  1.1587267E-01
   7121.00  1.1279396E-01
   7121.33  1.0902704E-01
   7121.67  1.0650577E-01
   7122.00  1.0586198E-01
   7122.33  1.0726360E-01
   7122.67  1.1034796E-01
   7123.00  1.1501394E-01
   7123.33  1.2107900E-01
   7123.67  1.2784129E-01
   7124.00  1.3491970E-01
   7124.33  1.4237279E-01
   7124.67  1.5068281E-01
   7125.00  1.6016235E-01
   7125.33  1.7073542E-01
   7125.67  1.8223336E-01
   7126.00  1.9518620E-01
   7126.33  2.1082351E-01
   7126.67  2.2967991E-01
   7127.00  2.5223648E-01
   7127.33  2.7929200E-01
   7127.67  3.1056613E-01
   7128.00  3.4632049E-01
   7128.33  3.8685270E-01
   7128.67  4.2974949E-01
   7129.00  4.7224548E-01
   7129.33  5.1077591E-01
   7129.67  5.4446165E-01
   7130.00  5.7464106E-01
   7130.33  6.0506640E-01
   7130.67  6.3873100E-01
   7131.00  6.7616685E-01
   7131.33  7.1632015E-01
   7131.67  7.5603931E-01
   7132.00  7.9223966E-01
   7132.33  8.2128042E-01
   7132.67  8.4349109E-01
   7133.00  8.6032812E-01
   7133.33  8.7351118E-01
   7133.67  8.8435985E-01
   7134.00  8.9239669E-01
   7134.33  8.9606970E-01
   7134.67  8.9511197E-01
   7135.00  8.8897397E-01
   7135.33  8.7615570E-01
   7135.67  8.5676440E-01
   7136.00  8.3064712E-01
   7136.33  7.9772337E-01
   7136.67  7.6041117E-01
   7137.00  7.2061769E-01
   7137.33  6.8058649E-01
   7137.67  6.4232521E-01
   7138.00  6.0721339E-01
   7138.33  5.7705053E-01
   7138.67  5.5218480E-01
   7139.00  5.3311815E-01
   7139.33  5.2087665E-01
   7139.67  5.1461111E-01
   7140.00  5.1390168E-01
   7140.33  5.1833515E-01
   7140.67  5.2581381E-01
   7141.00  5.3473867E-01
   7141.33  5.4325033E-01
   7141.67  5.5010683E-01
   7142.00  5.5486355E-01
   7142.33  5.5749791E-01
   7142.67  5.5892774E-01
   7143.00  5.5980892E-01
   7143.33  5.6074388E-01
   7143.67  5.6207616E-01
   7144.00  5.6394607E-01
   7144.33  5.6646290E-01
   7144.67  5.6949755E-01
   7145.00  5.7294384E-01
   7145.33  5.7665714E-01
   7145.67  5.8040610E-01
   7146.00  5.8403183E-01
   7146.33  5.8739343E-01
   7146.67  5.9053921E-01
   7147.00  5.9360569E-01
   7147.33  5.9688744E-01
   7147.67  6.0068641E-01
   7148.00  6.0526806E-01
   7148.33  6.1097882E-01
   7148.67  6.1775164E-01
   7149.00  6.2546682E-01
   7149.33  6.3383546E-01
   7149.67  6.4221272E-01
   7150.00  6.4999710E-01
   7150.33  6.5628794E-01
   7150.67  6.6060853E-01
   7151.00  6.6258027E-01
   7151.33  6.6172037E-01
   7151.67  6.5845676E-01
   7152.00  6.5305744E-01
   7152.33  6.4574657E-01
   7152.67  6.3723362E-01
   7153.00  6.2794098E-01
   7153.33  6.1826870E-01
   7153.67  6.0862331E-01
   7154.00  5.9924896E-01
   7154.33  5.9041326E-01
   7154.67  5.8219252E-01
   7155.00  5.7465675E-01
   7155.33  5.6793309E-01
   7155.67  5.6193396E-01
   7156.00  5.5663503E-01
   7156.33  5.5205852E-01
   7156.67  5.4804868E-01
   7157.00  5.4453460E-01
   7157.33  5.4148559E-01
   7157.67  5.3877404E-01
   7158.00  5.3634360E-01
   7158.33  5.3416748E-01
   7158.67  5.3217350E-01
   7159.00  5.3033274E-01
   7159.33  5.2863451E-01
   7159.67  5.2703941E-01
   7160.00  5.2552633E-01
   7160.33  5.2407475E-01
   7160.67  5.2264553E-01
   7161.00  5.2120509E-01
   7161.33  5.1969824E-01
   7161.67  5.1807894E-01
   7162.00  5.1629852E-01
   7162.33  5.1427259E-01
   7162.67  5.1197757E-01
   7163.00  5.0937862E-01
   7163.33  5.0640653E-01
   7163.67  5.0309098E-01
   7164.00  4.9943497E-01
   7164.33  4.9541480E-01
   7164.67  4.9109855E-01
   7165.00  4.8651470E-01
   7165.33  4.8166760E-01
   7165.67  4.7661719E-01
   7166.00  4.7138640E-01
   7166.33  4.6597906E-01
   7166.67  4.6043420E-01
   7167.00  4.5476755E-01
   7167.33  4.4898732E-01
   7167.67  4.4313137E-01
   7168.00  4.3722796E-01
   7168.33  4.3132317E-01
   7168.67  4.2547356E-01
   7169.00  4.1972770E-01
   7169.33  4.1416128E-01
   7169.67  4.0881335E-01
   7170.00  4.0373537E-01
   7170.33  3.9902436E-01
   7170.67  3.9469002E-01
   7171.00  3.9077267E-01
   7171.33  3.8738002E-01
   7171.67  3.8451886E-01
   7172.00  3.8226004E-01
