    FDMNES
    energy     <xanes>
   7097.00  4.8928499E-03
   7097.33  4.9996905E-03
   7097.67  5.1109718E-03
   7098.00  5.2269747E-03
   7098.33  5.3486950E-03
   7098.67  5.4758977E-03
   7099.00  5.6089620E-03
   7099.33  5.7491728E-03
   7099.67  5.8962863E-03
   7100.00  6.0508291E-03
   7100.33  6.2145041E-03
   7100.67  6.3870777E-03
   7101.00  6.5693055E-03
   7101.33  6.7635196E-03
   7101.67  6.9695390E-03
   7102.00  7.1884927E-03
   7102.33  7.4237037E-03
   7102.67  7.6751404E-03
   7103.00  7.9445733E-03
   7103.33  8.2369769E-03
   7103.67  8.5526930E-03
   7104.00  8.8946687E-03
   7104.33  9.2708279E-03
   7104.67  9.6824319E-03
   7105.00  1.0134770E-02
   7105.33  1.0641511E-02
   7105.67  1.1206280E-02
   7106.00  1.1839539E-02
   7106.33  1.2567480E-02
   7106.67  1.3400389E-02
   7107.00  1.4361842E-02
   7107.33  1.5509829E-02
   7107.67  1.6876389E-02
   7108.00  1.8525451E-02
   7108.33  2.0615433E-02
   7108.67  2.3268259E-02
   7109.00  2.6713676E-02
   7109.33  3.1553626E-02
   7109.67  3.8451304E-02
   7110.00  4.8698784E-02
   7110.33  6.6038825E-02
   7110.67  9.5092005E-02
   7111.00  1.4006157E-01
   7111.33  1.9318479E-01
   7111.67  2.2894140E-01
   7112.00  2.4692824E-01
   7112.33  2.6066967E-01
   7112.67  2.4431358E-01
   7113.00  2.0121535E-01
   7113.33  1.6316286E-01
   7113.67  1.4276764E-01
   7114.00  1.3606464E-01
   7114.33  1.4021179E-01
   7114.67  1.3886689E-01
   7115.00  1.1794745E-01
   7115.33  9.2093983E-02
   7115.67  7.5022365E-02
   7116.00  6.5609691E-02
   7116.33  6.1340758E-02
   7116.67  5.9833418E-02
   7117.00  6.0345336E-02
   7117.33  6.2748710E-02
   7117.67  6.6846769E-02
   7118.00  7.2863944E-02
   7118.33  8.1583196E-02
   7118.67  9.3376633E-02
   7119.00  1.0899045E-01
   7119.33  1.3042023E-01
   7119.67  1.5829582E-01
   7120.00  1.9239902E-01
   7120.33  2.3103627E-01
   7120.67  2.7127206E-01
   7121.00  3.1256379E-01
   7121.33  3.5550743E-01
   7121.67  3.9975695E-01
   7122.00  4.4473227E-01
   7122.33  4.8994378E-01
   7122.67  5.3491264E-01
   7123.00  5.7884325E-01
   7123.33  6.1964999E-01
   7123.67  6.5518943E-01
   7124.00  6.8303702E-01
   7124.33  6.9930464E-01
   7124.67  7.0385813E-01
   7125.00  6.9690517E-01
   7125.33  6.7971466E-01
   7125.67  6.5842990E-01
   7126.00  6.3803443E-01
   7126.33  6.2324771E-01
   7126.67  6.1517906E-01
   7127.00  6.1420918E-01
   7127.33  6.2116366E-01
   7127.67  6.3478363E-01
   7128.00  6.5455432E-01
   7128.33  6.8049564E-01
   7128.67  7.1114419E-01
   7129.00  7.4553893E-01
   7129.33  7.8228529E-01
   7129.67  8.1876417E-01
   7130.00  8.5243049E-01
   7130.33  8.7918411E-01
   7130.67  8.9659679E-01
   7131.00  9.0265539E-01
   7131.33  8.9506930E-01
   7131.67  8.7656710E-01
   7132.00  8.4947209E-01
   7132.33  8.1643652E-01
   7132.67  7.8124936E-01
   7133.00  7.4611944E-01
   7133.33  7.1324910E-01
   7133.67  6.8369631E-01
   7134.00  6.5809384E-01
   7134.33  6.3715333E-01
   7134.67  6.2002384E-01
   7135.00  6.0606252E-01
   7135.33  5.9448450E-01
   7135.67  5.8386888E-01
   7136.00  5.7337771E-01
   7136.33  5.6246517E-01
   7136.67  5.5135467E-01
   7137.00  5.4059549E-01
   7137.33  5.3109783E-01
   7137.67  5.2335579E-01
   7138.00  5.1764276E-01
   7138.33  5.1412742E-01
   7138.67  5.1209129E-01
   7139.00  5.1089230E-01
   7139.33  5.0969232E-01
   7139.67  5.0773726E-01
   7140.00  5.0452654E-01
   7140.33  4.9952110E-01
   7140.67  4.9287381E-01
   7141.00  4.8474648E-01
   7141.33  4.7532722E-01
   7141.67  4.6514162E-01
   7142.00  4.5449458E-01
   7142.33  4.4365466E-01
   7142.67  4.3285773E-01
   7143.00  4.2223793E-01
   7143.33  4.1194628E-01
   7143.67  4.0202768E-01
   7144.00  3.9252907E-01
   7144.33  3.8353672E-01
   7144.67  3.7500289E-01
   7145.00  3.6692324E-01
   7145.33  3.5934186E-01
   7145.67  3.5219421E-01
   7146.00  3.4547995E-01
   7146.33  3.3926632E-01
   7146.67  3.3352264E-01
   7147.00  3.2827836E-01
   7147.33  3.2363782E-01
   7147.67  3.1956750E-01
   7148.00  3.1608829E-01
   7148.33  3.1328593E-01
   7148.67  3.1107905E-01
   7149.00  3.0944927E-01
   7149.33  3.0842926E-01
   7149.67  3.0790214E-01
   7150.00  3.0781766E-01
   7150.33  3.0816244E-01
   7150.67  3.0882948E-01
   7151.00  3.0977473E-01
   7151.33  3.1098420E-01
   7151.67  3.1239360E-01
   7152.00  3.1398299E-01
   7152.33  3.1576413E-01
   7152.67  3.1771875E-01
   7153.00  3.1985679E-01
   7153.33  3.2222021E-01
   7153.67  3.2480279E-01
   7154.00  3.2761918E-01
   7154.33  3.3071255E-01
   7154.67  3.3405617E-01
   7155.00  3.3764442E-01
   7155.33  3.4148881E-01
   7155.67  3.4553567E-01
   7156.00  3.4975950E-01
   7156.33  3.5414698E-01
   7156.67  3.5864828E-01
   7157.00  3.6323773E-01
   7157.33  3.6789676E-01
   7157.67  3.7259635E-01
   7158.00  3.7732197E-01
   7158.33  3.8206218E-01
   7158.67  3.8680587E-01
   7159.00  3.9154679E-01
   7159.33  3.9627788E-01
   7159.67  4.0099418E-01
   7160.00  4.0568936E-01
   7160.33  4.1035083E-01
   7160.67  4.1497174E-01
   7161.00  4.1954147E-01
   7161.33  4.2403815E-01
   7161.67  4.2845476E-01
   7162.00  4.3277740E-01
   7162.33  4.3697573E-01
   7162.67  4.4104748E-01
   7163.00  4.4498194E-01
   7163.33  4.4875108E-01
   7163.67  4.5235540E-01
   7164.00  4.5577421E-01
   7164.33  4.5897005E-01
   7164.67  4.6196579E-01
   7165.00  4.6476452E-01
   7165.33  4.6735255E-01
   7165.67  4.6976970E-01
   7166.00  4.7203498E-01
   7166.33  4.7415998E-01
   7166.67  4.7619101E-01
   7167.00  4.7815547E-01
   7167.33  4.8007969E-01
   7167.67  4.8199576E-01
   7168.00  4.8392373E-01
   7168.33  4.8588531E-01
   7168.67  4.8788845E-01
   7169.00  4.8993823E-01
   7169.33  4.9204116E-01
   7169.67  4.9418675E-01
   7170.00  4.9636702E-01
   7170.33  4.9857015E-01
   7170.67  5.0077136E-01
   7171.00  5.0294133E-01
   7171.33  5.0501283E-01
   7171.67  5.0689551E-01
   7172.00  5.0845707E-01
