    FDMNES
    energy     <xanes>
   7097.00  5.1054753E-03
   7097.33  5.2279725E-03
   7097.67  5.3560388E-03
   7098.00  5.4900449E-03
   7098.33  5.6312687E-03
   7098.67  5.7794363E-03
   7099.00  5.9350478E-03
   7099.33  6.0997609E-03
   7099.67  6.2732874E-03
   7100.00  6.4563176E-03
   7100.33  6.6510515E-03
   7100.67  6.8572051E-03
   7101.00  7.0757571E-03
   7101.33  7.3097067E-03
   7101.67  7.5588148E-03
   7102.00  7.8245142E-03
   7102.33  8.1110254E-03
   7102.67  8.4182446E-03
   7103.00  8.7483499E-03
   7103.33  9.1075119E-03
   7103.67  9.4959622E-03
   7104.00  9.9171682E-03
   7104.33  1.0380586E-02
   7104.67  1.0887243E-02
   7105.00  1.1442986E-02
   7105.33  1.2063194E-02
   7105.67  1.2750824E-02
   7106.00  1.3516498E-02
   7106.33  1.4387275E-02
   7106.67  1.5371107E-02
   7107.00  1.6489372E-02
   7107.33  1.7795234E-02
   7107.67  1.9311324E-02
   7108.00  2.1087728E-02
   7108.33  2.3248211E-02
   7108.67  2.5869158E-02
   7109.00  2.9101653E-02
   7109.33  3.3333695E-02
   7109.67  3.8932016E-02
   7110.00  4.6615678E-02
   7110.33  5.8397307E-02
   7110.67  7.6301330E-02
   7111.00  1.0090701E-01
   7111.33  1.2563741E-01
   7111.67  1.4856835E-01
   7112.00  1.8061165E-01
   7112.33  2.3910517E-01
   7112.67  3.2410933E-01
   7113.00  4.2137980E-01
   7113.33  5.1284653E-01
   7113.67  6.1871020E-01
   7114.00  7.1644819E-01
   7114.33  6.9788542E-01
   7114.67  5.8634998E-01
   7115.00  4.5168820E-01
   7115.33  3.4856320E-01
   7115.67  2.7985319E-01
   7116.00  2.3866222E-01
   7116.33  2.2024065E-01
   7116.67  2.1575222E-01
   7117.00  2.1660943E-01
   7117.33  2.1128968E-01
   7117.67  1.9933882E-01
   7118.00  1.8437818E-01
   7118.33  1.6896958E-01
   7118.67  1.5485851E-01
   7119.00  1.4307906E-01
   7119.33  1.3430871E-01
   7119.67  1.2788235E-01
   7120.00  1.2318959E-01
   7120.33  1.1952292E-01
   7120.67  1.1641882E-01
   7121.00  1.1418903E-01
   7121.33  1.1356833E-01
   7121.67  1.1457135E-01
   7122.00  1.1697234E-01
   7122.33  1.2035234E-01
   7122.67  1.2394516E-01
   7123.00  1.2730357E-01
   7123.33  1.3048246E-01
   7123.67  1.3406395E-01
   7124.00  1.3848500E-01
   7124.33  1.4421515E-01
   7124.67  1.5133150E-01
   7125.00  1.5999896E-01
   7125.33  1.7065963E-01
   7125.67  1.8338536E-01
   7126.00  1.9845929E-01
   7126.33  2.1641947E-01
   7126.67  2.3673337E-01
   7127.00  2.5852372E-01
   7127.33  2.7974622E-01
   7127.67  2.9831336E-01
   7128.00  3.1337784E-01
   7128.33  3.2551611E-01
   7128.67  3.3775384E-01
   7129.00  3.5316126E-01
   7129.33  3.7595219E-01
   7129.67  4.0785381E-01
   7130.00  4.4989239E-01
   7130.33  5.0172301E-01
   7130.67  5.5705844E-01
   7131.00  6.1072932E-01
   7131.33  6.6134301E-01
   7131.67  7.1318630E-01
   7132.00  7.6944084E-01
   7132.33  8.3188998E-01
   7132.67  8.9862237E-01
   7133.00  9.6722125E-01
   7133.33  1.0330206E+00
   7133.67  1.0903547E+00
   7134.00  1.1332949E+00
   7134.33  1.1528536E+00
   7134.67  1.1478035E+00
   7135.00  1.1182988E+00
   7135.33  1.0663657E+00
   7135.67  1.0019338E+00
   7136.00  9.3153401E-01
   7136.33  8.6107914E-01
   7136.67  7.9425001E-01
   7137.00  7.3276210E-01
   7137.33  6.7837476E-01
   7137.67  6.3069697E-01
   7138.00  5.8988478E-01
   7138.33  5.5692640E-01
   7138.67  5.3103102E-01
   7139.00  5.1221570E-01
   7139.33  5.0123536E-01
   7139.67  4.9688165E-01
   7140.00  4.9864187E-01
   7140.33  5.0626565E-01
   7140.67  5.1784349E-01
   7141.00  5.3203678E-01
   7141.33  5.4722933E-01
   7141.67  5.6164845E-01
   7142.00  5.7415051E-01
   7142.33  5.8361457E-01
   7142.67  5.9025409E-01
   7143.00  5.9440557E-01
   7143.33  5.9652532E-01
   7143.67  5.9756733E-01
   7144.00  5.9802533E-01
   7144.33  5.9818966E-01
   7144.67  5.9814426E-01
   7145.00  5.9776916E-01
   7145.33  5.9675630E-01
   7145.67  5.9492731E-01
   7146.00  5.9211596E-01
   7146.33  5.8809221E-01
   7146.67  5.8300874E-01
   7147.00  5.7693742E-01
   7147.33  5.6990488E-01
   7147.67  5.6221081E-01
   7148.00  5.5405313E-01
   7148.33  5.4564804E-01
   7148.67  5.3726432E-01
   7149.00  5.2910279E-01
   7149.33  5.2142801E-01
   7149.67  5.1435470E-01
   7150.00  5.0799988E-01
   7150.33  5.0258174E-01
   7150.67  4.9808488E-01
   7151.00  4.9455653E-01
   7151.33  4.9214948E-01
   7151.67  4.9074461E-01
   7152.00  4.9033431E-01
   7152.33  4.9102216E-01
   7152.67  4.9265829E-01
   7153.00  4.9521290E-01
   7153.33  4.9875626E-01
   7153.67  5.0313446E-01
   7154.00  5.0830538E-01
   7154.33  5.1430315E-01
   7154.67  5.2096130E-01
   7155.00  5.2820049E-01
   7155.33  5.3597402E-01
   7155.67  5.4410546E-01
   7156.00  5.5248932E-01
   7156.33  5.6101908E-01
   7156.67  5.6956046E-01
   7157.00  5.7801813E-01
   7157.33  5.8626601E-01
   7157.67  5.9423136E-01
   7158.00  6.0183431E-01
   7158.33  6.0892460E-01
   7158.67  6.1546219E-01
   7159.00  6.2135848E-01
   7159.33  6.2640942E-01
   7159.67  6.3059460E-01
   7160.00  6.3381706E-01
   7160.33  6.3583784E-01
   7160.67  6.3670206E-01
   7161.00  6.3635457E-01
   7161.33  6.3460255E-01
   7161.67  6.3159994E-01
   7162.00  6.2738161E-01
   7162.33  6.2188438E-01
   7162.67  6.1535849E-01
   7163.00  6.0791265E-01
   7163.33  5.9958603E-01
   7163.67  5.9061638E-01
   7164.00  5.8111974E-01
   7164.33  5.7117202E-01
   7164.67  5.6093857E-01
   7165.00  5.5050972E-01
   7165.33  5.3996825E-01
   7165.67  5.2941341E-01
   7166.00  5.1891503E-01
   7166.33  5.0856689E-01
   7166.67  4.9842474E-01
   7167.00  4.8854718E-01
   7167.33  4.7903781E-01
   7167.67  4.6991043E-01
   7168.00  4.6120488E-01
   7168.33  4.5301738E-01
   7168.67  4.4532068E-01
   7169.00  4.3813427E-01
   7169.33  4.3154225E-01
   7169.67  4.2549200E-01
   7170.00  4.1998548E-01
   7170.33  4.1508143E-01
   7170.67  4.1070251E-01
   7171.00  4.0684279E-01
   7171.33  4.0356850E-01
   7171.67  4.0083478E-01
   7172.00  3.9867508E-01
