    FDMNES
    energy     <xanes>
   7097.00  5.0648745E-03
   7097.33  5.1849256E-03
   7097.67  5.3103617E-03
   7098.00  5.4415368E-03
   7098.33  5.5796791E-03
   7098.67  5.7245178E-03
   7099.00  5.8765290E-03
   7099.33  6.0373008E-03
   7099.67  6.2065469E-03
   7100.00  6.3849222E-03
   7100.33  6.5745273E-03
   7100.67  6.7750764E-03
   7101.00  6.9874950E-03
   7101.33  7.2146356E-03
   7101.67  7.4562505E-03
   7102.00  7.7136890E-03
   7102.33  7.9909487E-03
   7102.67  8.2879018E-03
   7103.00  8.6065919E-03
   7103.33  8.9528373E-03
   7103.67  9.3268139E-03
   7104.00  9.7317622E-03
   7104.33  1.0176558E-02
   7104.67  1.0662105E-02
   7105.00  1.1193849E-02
   7105.33  1.1786167E-02
   7105.67  1.2441741E-02
   7106.00  1.3170450E-02
   7106.33  1.3997532E-02
   7106.67  1.4930334E-02
   7107.00  1.5988798E-02
   7107.33  1.7222644E-02
   7107.67  1.8653260E-02
   7108.00  2.0328047E-02
   7108.33  2.2364719E-02
   7108.67  2.4838560E-02
   7109.00  2.7898843E-02
   7109.33  3.1934680E-02
   7109.67  3.7338383E-02
   7110.00  4.4886639E-02
   7110.33  5.6742287E-02
   7110.67  7.4554012E-02
   7111.00  9.6391380E-02
   7111.33  1.1397472E-01
   7111.67  1.2957114E-01
   7112.00  1.5122157E-01
   7112.33  1.9283197E-01
   7112.67  2.6021041E-01
   7113.00  3.5376862E-01
   7113.33  4.6178556E-01
   7113.67  5.6537543E-01
   7114.00  6.6165957E-01
   7114.33  7.0742934E-01
   7114.67  6.4696241E-01
   7115.00  5.2160765E-01
   7115.33  4.0897888E-01
   7115.67  3.2805161E-01
   7116.00  2.7423677E-01
   7116.33  2.4262658E-01
   7116.67  2.2598396E-01
   7117.00  2.2088140E-01
   7117.33  2.1987838E-01
   7117.67  2.1262219E-01
   7118.00  1.9801111E-01
   7118.33  1.8059318E-01
   7118.67  1.6401452E-01
   7119.00  1.4963536E-01
   7119.33  1.3843418E-01
   7119.67  1.2986622E-01
   7120.00  1.2345066E-01
   7120.33  1.1873430E-01
   7120.67  1.1508205E-01
   7121.00  1.1245892E-01
   7121.33  1.1127296E-01
   7121.67  1.1154943E-01
   7122.00  1.1316283E-01
   7122.33  1.1582610E-01
   7122.67  1.1910521E-01
   7123.00  1.2286471E-01
   7123.33  1.2692164E-01
   7123.67  1.3105044E-01
   7124.00  1.3542238E-01
   7124.33  1.4060195E-01
   7124.67  1.4686571E-01
   7125.00  1.5438679E-01
   7125.33  1.6346242E-01
   7125.67  1.7399823E-01
   7126.00  1.8602882E-01
   7126.33  1.9975825E-01
   7126.67  2.1502809E-01
   7127.00  2.3191599E-01
   7127.33  2.5077143E-01
   7127.67  2.7142720E-01
   7128.00  2.9380653E-01
   7128.33  3.1797159E-01
   7128.67  3.4360586E-01
   7129.00  3.7065409E-01
   7129.33  3.9940887E-01
   7129.67  4.3021139E-01
   7130.00  4.6412150E-01
   7130.33  5.0369552E-01
   7130.67  5.5008993E-01
   7131.00  6.0370860E-01
   7131.33  6.6402135E-01
   7131.67  7.2794397E-01
   7132.00  7.9347344E-01
   7132.33  8.5865594E-01
   7132.67  9.2193840E-01
   7133.00  9.8213032E-01
   7133.33  1.0374533E+00
   7133.67  1.0867174E+00
   7134.00  1.1269890E+00
   7134.33  1.1506321E+00
   7134.67  1.1530475E+00
   7135.00  1.1313087E+00
   7135.33  1.0848036E+00
   7135.67  1.0231364E+00
   7136.00  9.5324887E-01
   7136.33  8.8163488E-01
   7136.67  8.1280257E-01
   7137.00  7.4883457E-01
   7137.33  6.9172962E-01
   7137.67  6.4127568E-01
   7138.00  5.9769393E-01
   7138.33  5.6196972E-01
   7138.67  5.3320334E-01
   7139.00  5.1124950E-01
   7139.33  4.9657662E-01
   7139.67  4.8780154E-01
   7140.00  4.8422984E-01
   7140.33  4.8538680E-01
   7140.67  4.8965592E-01
   7141.00  4.9614379E-01
   7141.33  5.0415096E-01
   7141.67  5.1289700E-01
   7142.00  5.2206393E-01
   7142.33  5.3149444E-01
   7142.67  5.4107899E-01
   7143.00  5.5076031E-01
   7143.33  5.6041969E-01
   7143.67  5.6986425E-01
   7144.00  5.7887403E-01
   7144.33  5.8708698E-01
   7144.67  5.9435085E-01
   7145.00  6.0050761E-01
   7145.33  6.0527268E-01
   7145.67  6.0873229E-01
   7146.00  6.1087706E-01
   7146.33  6.1157827E-01
   7146.67  6.1105799E-01
   7147.00  6.0939005E-01
   7147.33  6.0655892E-01
   7147.67  6.0281654E-01
   7148.00  5.9827077E-01
   7148.33  5.9297447E-01
   7148.67  5.8715769E-01
   7149.00  5.8095136E-01
   7149.33  5.7447963E-01
   7149.67  5.6792195E-01
   7150.00  5.6140049E-01
   7150.33  5.5506655E-01
   7150.67  5.4901599E-01
   7151.00  5.4334150E-01
   7151.33  5.3819426E-01
   7151.67  5.3358160E-01
   7152.00  5.2954375E-01
   7152.33  5.2619502E-01
   7152.67  5.2348889E-01
   7153.00  5.2144450E-01
   7153.33  5.2016304E-01
   7153.67  5.1957251E-01
   7154.00  5.1968137E-01
   7154.33  5.2058358E-01
   7154.67  5.2218935E-01
   7155.00  5.2448739E-01
   7155.33  5.2753132E-01
   7155.67  5.3118871E-01
   7156.00  5.3540009E-01
   7156.33  5.4013683E-01
   7156.67  5.4523917E-01
   7157.00  5.5061360E-01
   7157.33  5.5616994E-01
   7157.67  5.6178050E-01
   7158.00  5.6735745E-01
   7158.33  5.7278861E-01
   7158.67  5.7800040E-01
   7159.00  5.8291929E-01
   7159.33  5.8741515E-01
   7159.67  5.9145395E-01
   7160.00  5.9496860E-01
   7160.33  5.9780537E-01
   7160.67  5.9995930E-01
   7161.00  6.0136485E-01
   7161.33  6.0185254E-01
   7161.67  6.0146980E-01
   7162.00  6.0018088E-01
   7162.33  5.9784123E-01
   7162.67  5.9456780E-01
   7163.00  5.9038462E-01
   7163.33  5.8522909E-01
   7163.67  5.7927383E-01
   7164.00  5.7259520E-01
   7164.33  5.6522069E-01
   7164.67  5.5734036E-01
   7165.00  5.4905225E-01
   7165.33  5.4042929E-01
   7165.67  5.3161083E-01
   7166.00  5.2267737E-01
   7166.33  5.1370877E-01
   7166.67  5.0478156E-01
   7167.00  4.9595058E-01
   7167.33  4.8728971E-01
   7167.67  4.7882589E-01
   7168.00  4.7059373E-01
   7168.33  4.6266374E-01
   7168.67  4.5503571E-01
   7169.00  4.4773599E-01
   7169.33  4.4083924E-01
   7169.67  4.3433232E-01
   7170.00  4.2824188E-01
   7170.33  4.2264723E-01
   7170.67  4.1751506E-01
   7171.00  4.1286808E-01
   7171.33  4.0881594E-01
   7171.67  4.0537161E-01
   7172.00  4.0263310E-01
