    FDMNES
    energy     <xanes>
   7097.00  4.8847371E-03
   7097.33  5.0007842E-03
   7097.67  5.1220772E-03
   7098.00  5.2489667E-03
   7098.33  5.3826589E-03
   7098.67  5.5228984E-03
   7099.00  5.6701597E-03
   7099.33  5.8260111E-03
   7099.67  5.9901865E-03
   7100.00  6.1633435E-03
   7100.33  6.3475712E-03
   7100.67  6.5426116E-03
   7101.00  6.7494030E-03
   7101.33  6.9708068E-03
   7101.67  7.2066171E-03
   7102.00  7.4582175E-03
   7102.33  7.7296613E-03
   7102.67  8.0208899E-03
   7103.00  8.3340276E-03
   7103.33  8.6750528E-03
   7103.67  9.0442687E-03
   7104.00  9.4450993E-03
   7104.33  9.8868165E-03
   7104.67  1.0370584E-02
   7105.00  1.0902271E-02
   7105.33  1.1497205E-02
   7105.67  1.2158658E-02
   7106.00  1.2897525E-02
   7106.33  1.3741383E-02
   7106.67  1.4699078E-02
   7107.00  1.5793176E-02
   7107.33  1.7079544E-02
   7107.67  1.8583860E-02
   7108.00  2.0361028E-02
   7108.33  2.2546631E-02
   7108.67  2.5229884E-02
   7109.00  2.8584143E-02
   7109.33  3.3056077E-02
   7109.67  3.9085460E-02
   7110.00  4.7529776E-02
   7110.33  6.0812887E-02
   7110.67  8.1643337E-02
   7111.00  1.1212280E-01
   7111.33  1.4811716E-01
   7111.67  1.8046455E-01
   7112.00  2.0974311E-01
   7112.33  2.4293769E-01
   7112.67  2.9246696E-01
   7113.00  3.6900837E-01
   7113.33  4.5970637E-01
   7113.67  5.5056509E-01
   7114.00  6.2763841E-01
   7114.33  6.1004834E-01
   7114.67  5.0123494E-01
   7115.00  3.7519347E-01
   7115.33  2.8368270E-01
   7115.67  2.2305547E-01
   7116.00  1.8471998E-01
   7116.33  1.6254409E-01
   7116.67  1.4955805E-01
   7117.00  1.4218680E-01
   7117.33  1.3647676E-01
   7117.67  1.2974726E-01
   7118.00  1.2265742E-01
   7118.33  1.1772006E-01
   7118.67  1.1605620E-01
   7119.00  1.1734066E-01
   7119.33  1.1885717E-01
   7119.67  1.1688387E-01
   7120.00  1.1197579E-01
   7120.33  1.0785171E-01
   7120.67  1.0631575E-01
   7121.00  1.0746291E-01
   7121.33  1.1102847E-01
   7121.67  1.1604662E-01
   7122.00  1.2202946E-01
   7122.33  1.2912250E-01
   7122.67  1.3782641E-01
   7123.00  1.4863358E-01
   7123.33  1.6186715E-01
   7123.67  1.7649278E-01
   7124.00  1.9160111E-01
   7124.33  2.0733290E-01
   7124.67  2.2476958E-01
   7125.00  2.4450518E-01
   7125.33  2.6614032E-01
   7125.67  2.8738619E-01
   7126.00  3.0579382E-01
   7126.33  3.1907824E-01
   7126.67  3.2889814E-01
   7127.00  3.3753800E-01
   7127.33  3.4777375E-01
   7127.67  3.6162249E-01
   7128.00  3.8056345E-01
   7128.33  4.0623461E-01
   7128.67  4.3726875E-01
   7129.00  4.7146424E-01
   7129.33  5.0457053E-01
   7129.67  5.3292074E-01
   7130.00  5.5530693E-01
   7130.33  5.7237482E-01
   7130.67  5.8720652E-01
   7131.00  6.0159462E-01
   7131.33  6.1647798E-01
   7131.67  6.3176839E-01
   7132.00  6.4766574E-01
   7132.33  6.6559544E-01
   7132.67  6.8688673E-01
   7133.00  7.1211485E-01
   7133.33  7.4072694E-01
   7133.67  7.7010316E-01
   7134.00  7.9827967E-01
   7134.33  8.2396250E-01
   7134.67  8.4776467E-01
   7135.00  8.6952218E-01
   7135.33  8.8593039E-01
   7135.67  8.9337001E-01
   7136.00  8.8937637E-01
   7136.33  8.7180629E-01
   7136.67  8.4363780E-01
   7137.00  8.0778369E-01
   7137.33  7.6854597E-01
   7137.67  7.3078414E-01
   7138.00  6.9708956E-01
   7138.33  6.6936810E-01
   7138.67  6.4684659E-01
   7139.00  6.2898321E-01
   7139.33  6.1565898E-01
   7139.67  6.0591314E-01
   7140.00  5.9941464E-01
   7140.33  5.9609053E-01
   7140.67  5.9509913E-01
   7141.00  5.9599183E-01
   7141.33  5.9842888E-01
   7141.67  6.0177706E-01
   7142.00  6.0568107E-01
   7142.33  6.0975410E-01
   7142.67  6.1353987E-01
   7143.00  6.1664037E-01
   7143.33  6.1848770E-01
   7143.67  6.1892408E-01
   7144.00  6.1786171E-01
   7144.33  6.1524328E-01
   7144.67  6.1155386E-01
   7145.00  6.0715698E-01
   7145.33  6.0247112E-01
   7145.67  5.9793536E-01
   7146.00  5.9382582E-01
   7146.33  5.9043768E-01
   7146.67  5.8778450E-01
   7147.00  5.8585762E-01
   7147.33  5.8465961E-01
   7147.67  5.8398825E-01
   7148.00  5.8371909E-01
   7148.33  5.8372866E-01
   7148.67  5.8383466E-01
   7149.00  5.8392109E-01
   7149.33  5.8387517E-01
   7149.67  5.8366217E-01
   7150.00  5.8327450E-01
   7150.33  5.8271497E-01
   7150.67  5.8204526E-01
   7151.00  5.8130799E-01
   7151.33  5.8054766E-01
   7151.67  5.7980522E-01
   7152.00  5.7910129E-01
   7152.33  5.7844871E-01
   7152.67  5.7783418E-01
   7153.00  5.7724225E-01
   7153.33  5.7664698E-01
   7153.67  5.7601822E-01
   7154.00  5.7532880E-01
   7154.33  5.7453718E-01
   7154.67  5.7362828E-01
   7155.00  5.7258526E-01
   7155.33  5.7137873E-01
   7155.67  5.7002319E-01
   7156.00  5.6851867E-01
   7156.33  5.6684582E-01
   7156.67  5.6501800E-01
   7157.00  5.6302425E-01
   7157.33  5.6081989E-01
   7157.67  5.5840038E-01
   7158.00  5.5574110E-01
   7158.33  5.5278655E-01
   7158.67  5.4956017E-01
   7159.00  5.4606811E-01
   7159.33  5.4230441E-01
   7159.67  5.3833889E-01
   7160.00  5.3421247E-01
   7160.33  5.2995754E-01
   7160.67  5.2562485E-01
   7161.00  5.2123186E-01
   7161.33  5.1677135E-01
   7161.67  5.1223260E-01
   7162.00  5.0759128E-01
   7162.33  5.0279591E-01
   7162.67  4.9783026E-01
   7163.00  4.9267283E-01
   7163.33  4.8729151E-01
   7163.67  4.8172080E-01
   7164.00  4.7597889E-01
   7164.33  4.7007596E-01
   7164.67  4.6406173E-01
   7165.00  4.5796544E-01
   7165.33  4.5181553E-01
   7165.67  4.4565239E-01
   7166.00  4.3950658E-01
   7166.33  4.3342027E-01
   7166.67  4.2742016E-01
   7167.00  4.2153233E-01
   7167.33  4.1580164E-01
   7167.67  4.1023867E-01
   7168.00  4.0486928E-01
   7168.33  3.9974497E-01
   7168.67  3.9486194E-01
   7169.00  3.9024374E-01
   7169.33  3.8595672E-01
   7169.67  3.8199443E-01
   7170.00  3.7838243E-01
   7170.33  3.7519446E-01
   7170.67  3.7240388E-01
   7171.00  3.7002135E-01
   7171.33  3.6809946E-01
   7171.67  3.6657263E-01
   7172.00  3.6540915E-01
