    FDMNES
    energy     <xanes>
   7097.00  4.9027035E-03
   7097.33  5.0186292E-03
   7097.67  5.1397751E-03
   7098.00  5.2664889E-03
   7098.33  5.3999693E-03
   7098.67  5.5399606E-03
   7099.00  5.6869333E-03
   7099.33  5.8424448E-03
   7099.67  6.0062286E-03
   7100.00  6.1789365E-03
   7100.33  6.3626415E-03
   7100.67  6.5570849E-03
   7101.00  6.7631962E-03
   7101.33  6.9838132E-03
   7101.67  7.2187283E-03
   7102.00  7.4693120E-03
   7102.33  7.7395819E-03
   7102.67  8.0294764E-03
   7103.00  8.3410991E-03
   7103.33  8.6803747E-03
   7103.67  9.0476003E-03
   7104.00  9.4461678E-03
   7104.33  9.8852665E-03
   7104.67  1.0366050E-02
   7105.00  1.0894337E-02
   7105.33  1.1485330E-02
   7105.67  1.2142287E-02
   7106.00  1.2876031E-02
   7106.33  1.3713964E-02
   7106.67  1.4664933E-02
   7107.00  1.5751438E-02
   7107.33  1.7029198E-02
   7107.67  1.8524054E-02
   7108.00  2.0291112E-02
   7108.33  2.2466557E-02
   7108.67  2.5141044E-02
   7109.00  2.8490511E-02
   7109.33  3.2969388E-02
   7109.67  3.9030838E-02
   7110.00  4.7559367E-02
   7110.33  6.1059341E-02
   7110.67  8.2300382E-02
   7111.00  1.1319313E-01
   7111.33  1.4898799E-01
   7111.67  1.8257893E-01
   7112.00  2.1464467E-01
   7112.33  2.4104331E-01
   7112.67  2.7077052E-01
   7113.00  3.2459130E-01
   7113.33  4.1790150E-01
   7113.67  5.3045255E-01
   7114.00  6.2785511E-01
   7114.33  6.2301950E-01
   7114.67  5.1908351E-01
   7115.00  3.9258721E-01
   7115.33  2.9865437E-01
   7115.67  2.3531961E-01
   7116.00  1.9431737E-01
   7116.33  1.6950120E-01
   7116.67  1.5378380E-01
   7117.00  1.4363736E-01
   7117.33  1.3559200E-01
   7117.67  1.2756214E-01
   7118.00  1.2047743E-01
   7118.33  1.1626972E-01
   7118.67  1.1494202E-01
   7119.00  1.1601762E-01
   7119.33  1.1800747E-01
   7119.67  1.1855289E-01
   7120.00  1.1712602E-01
   7120.33  1.1502704E-01
   7120.67  1.1364381E-01
   7121.00  1.1326011E-01
   7121.33  1.1439930E-01
   7121.67  1.1764662E-01
   7122.00  1.2332667E-01
   7122.33  1.3166800E-01
   7122.67  1.4245585E-01
   7123.00  1.5589264E-01
   7123.33  1.7210545E-01
   7123.67  1.8956163E-01
   7124.00  2.0693742E-01
   7124.33  2.2404312E-01
   7124.67  2.4209716E-01
   7125.00  2.6179296E-01
   7125.33  2.8231281E-01
   7125.67  3.0111447E-01
   7126.00  3.1626026E-01
   7126.33  3.2665918E-01
   7126.67  3.3428919E-01
   7127.00  3.4150039E-01
   7127.33  3.5157785E-01
   7127.67  3.6635754E-01
   7128.00  3.8664289E-01
   7128.33  4.1276205E-01
   7128.67  4.4248663E-01
   7129.00  4.7372353E-01
   7129.33  5.0397364E-01
   7129.67  5.3217329E-01
   7130.00  5.5820870E-01
   7130.33  5.8127089E-01
   7130.67  6.0068012E-01
   7131.00  6.1645765E-01
   7131.33  6.3002927E-01
   7131.67  6.4360382E-01
   7132.00  6.5837742E-01
   7132.33  6.7587543E-01
   7132.67  6.9671866E-01
   7133.00  7.2077441E-01
   7133.33  7.4658366E-01
   7133.67  7.7142130E-01
   7134.00  7.9362978E-01
   7134.33  8.1275022E-01
   7134.67  8.3033205E-01
   7135.00  8.4665437E-01
   7135.33  8.5931396E-01
   7135.67  8.6500467E-01
   7136.00  8.6021997E-01
   7136.33  8.4040970E-01
   7136.67  8.0838380E-01
   7137.00  7.6901523E-01
   7137.33  7.2934257E-01
   7137.67  6.9435450E-01
   7138.00  6.6580235E-01
   7138.33  6.4452767E-01
   7138.67  6.2875798E-01
   7139.00  6.1750317E-01
   7139.33  6.1022963E-01
   7139.67  6.0580636E-01
   7140.00  6.0381786E-01
   7140.33  6.0412413E-01
   7140.67  6.0607675E-01
   7141.00  6.0928756E-01
   7141.33  6.1332704E-01
   7141.67  6.1754511E-01
   7142.00  6.2148064E-01
   7142.33  6.2458683E-01
   7142.67  6.2664888E-01
   7143.00  6.2755143E-01
   7143.33  6.2719329E-01
   7143.67  6.2590514E-01
   7144.00  6.2392989E-01
   7144.33  6.2154646E-01
   7144.67  6.1912532E-01
   7145.00  6.1692050E-01
   7145.33  6.1523554E-01
   7145.67  6.1418731E-01
   7146.00  6.1385671E-01
   7146.33  6.1433439E-01
   7146.67  6.1542681E-01
   7147.00  6.1697183E-01
   7147.33  6.1873827E-01
   7147.67  6.2039404E-01
   7148.00  6.2165724E-01
   7148.33  6.2212523E-01
   7148.67  6.2162560E-01
   7149.00  6.2000572E-01
   7149.33  6.1704811E-01
   7149.67  6.1295209E-01
   7150.00  6.0784613E-01
   7150.33  6.0186150E-01
   7150.67  5.9538121E-01
   7151.00  5.8867050E-01
   7151.33  5.8204518E-01
   7151.67  5.7577177E-01
   7152.00  5.7004306E-01
   7152.33  5.6511014E-01
   7152.67  5.6097615E-01
   7153.00  5.5766250E-01
   7153.33  5.5522953E-01
   7153.67  5.5348536E-01
   7154.00  5.5231563E-01
   7154.33  5.5161338E-01
   7154.67  5.5115482E-01
   7155.00  5.5079517E-01
   7155.33  5.5037437E-01
   7155.67  5.4976901E-01
   7156.00  5.4888713E-01
   7156.33  5.4759717E-01
   7156.67  5.4587761E-01
   7157.00  5.4368439E-01
   7157.33  5.4091776E-01
   7157.67  5.3762505E-01
   7158.00  5.3381147E-01
   7158.33  5.2944761E-01
   7158.67  5.2465458E-01
   7159.00  5.1950412E-01
   7159.33  5.1406588E-01
   7159.67  5.0848546E-01
   7160.00  5.0286321E-01
   7160.33  4.9731988E-01
   7160.67  4.9194628E-01
   7161.00  4.8681387E-01
   7161.33  4.8202371E-01
   7161.67  4.7757389E-01
   7162.00  4.7347265E-01
   7162.33  4.6974229E-01
   7162.67  4.6628284E-01
   7163.00  4.6300849E-01
   7163.33  4.5980286E-01
   7163.67  4.5652676E-01
   7164.00  4.5307313E-01
   7164.33  4.4930856E-01
   7164.67  4.4521724E-01
   7165.00  4.4080320E-01
   7165.33  4.3608912E-01
   7165.67  4.3120611E-01
   7166.00  4.2625576E-01
   7166.33  4.2136259E-01
   7166.67  4.1662281E-01
   7167.00  4.1210538E-01
   7167.33  4.0789933E-01
   7167.67  4.0399873E-01
   7168.00  4.0041499E-01
   7168.33  3.9718619E-01
   7168.67  3.9425657E-01
   7169.00  3.9160781E-01
   7169.33  3.8925081E-01
   7169.67  3.8713490E-01
   7170.00  3.8524848E-01
   7170.33  3.8361013E-01
   7170.67  3.8218694E-01
   7171.00  3.8097578E-01
   7171.33  3.7999813E-01
   7171.67  3.7921765E-01
   7172.00  3.7861468E-01
