    FDMNES
    energy     <xanes>
   7097.00  4.2648553E-03
   7097.33  4.3480578E-03
   7097.67  4.4343838E-03
   7098.00  4.5240209E-03
   7098.33  4.6176536E-03
   7098.67  4.7151053E-03
   7099.00  4.8166294E-03
   7099.33  4.9231046E-03
   7099.67  5.0343501E-03
   7100.00  5.1507197E-03
   7100.33  5.2733768E-03
   7100.67  5.4021517E-03
   7101.00  5.5375589E-03
   7101.33  5.6811976E-03
   7101.67  5.8329464E-03
   7102.00  5.9935888E-03
   7102.33  6.1654310E-03
   7102.67  6.3484833E-03
   7103.00  6.5440108E-03
   7103.33  6.7555434E-03
   7103.67  6.9834258E-03
   7104.00  7.2298513E-03
   7104.33  7.5006498E-03
   7104.67  7.7970169E-03
   7105.00  8.1231152E-03
   7105.33  8.4895620E-03
   7105.67  8.8998633E-03
   7106.00  9.3628927E-03
   7106.33  9.9006508E-03
   7106.67  1.0523672E-02
   7107.00  1.1254075E-02
   7107.33  1.2146249E-02
   7107.67  1.3236318E-02
   7108.00  1.4593091E-02
   7108.33  1.6390136E-02
   7108.67  1.8786708E-02
   7109.00  2.2082142E-02
   7109.33  2.7097372E-02
   7109.67  3.4898666E-02
   7110.00  4.7618015E-02
   7110.33  7.1438749E-02
   7110.67  1.1122647E-01
   7111.00  1.5715385E-01
   7111.33  1.6193320E-01
   7111.67  1.3124476E-01
   7112.00  9.8252478E-02
   7112.33  7.7921079E-02
   7112.67  6.4199967E-02
   7113.00  5.5180249E-02
   7113.33  5.1007227E-02
   7113.67  4.8272847E-02
   7114.00  4.4934706E-02
   7114.33  4.0628224E-02
   7114.67  3.6105743E-02
   7115.00  3.2972924E-02
   7115.33  3.1677055E-02
   7115.67  3.1566590E-02
   7116.00  3.2370634E-02
   7116.33  3.3996168E-02
   7116.67  3.6241526E-02
   7117.00  3.9036666E-02
   7117.33  4.2333554E-02
   7117.67  4.6008618E-02
   7118.00  5.0199565E-02
   7118.33  5.5384153E-02
   7118.67  6.1707322E-02
   7119.00  6.9181465E-02
   7119.33  7.8066333E-02
   7119.67  8.8999857E-02
   7120.00  1.0338935E-01
   7120.33  1.2400795E-01
   7120.67  1.5112214E-01
   7121.00  1.8161154E-01
   7121.33  2.0545299E-01
   7121.67  2.2046776E-01
   7122.00  2.3522227E-01
   7122.33  2.6136792E-01
   7122.67  3.0028242E-01
   7123.00  3.4900742E-01
   7123.33  4.0324417E-01
   7123.67  4.5827215E-01
   7124.00  5.0894256E-01
   7124.33  5.4180570E-01
   7124.67  5.5157898E-01
   7125.00  5.4416138E-01
   7125.33  5.3154632E-01
   7125.67  5.2238277E-01
   7126.00  5.1852272E-01
   7126.33  5.2051910E-01
   7126.67  5.2982824E-01
   7127.00  5.4998470E-01
   7127.33  5.8527838E-01
   7127.67  6.3372002E-01
   7128.00  6.9325484E-01
   7128.33  7.5990329E-01
   7128.67  8.2426568E-01
   7129.00  8.7648148E-01
   7129.33  9.0398328E-01
   7129.67  9.0707758E-01
   7130.00  8.9101019E-01
   7130.33  8.6480645E-01
   7130.67  8.3644310E-01
   7131.00  8.0707230E-01
   7131.33  7.7769611E-01
   7131.67  7.5189439E-01
   7132.00  7.3231090E-01
   7132.33  7.2051054E-01
   7132.67  7.1471906E-01
   7133.00  7.1391928E-01
   7133.33  7.1768687E-01
   7133.67  7.2469351E-01
   7134.00  7.3424120E-01
   7134.33  7.4584868E-01
   7134.67  7.5853695E-01
   7135.00  7.7124210E-01
   7135.33  7.8157486E-01
   7135.67  7.8696412E-01
   7136.00  7.8520411E-01
   7136.33  7.7422376E-01
   7136.67  7.5625343E-01
   7137.00  7.3366440E-01
   7137.33  7.0924940E-01
   7137.67  6.8538470E-01
   7138.00  6.6303083E-01
   7138.33  6.4277902E-01
   7138.67  6.2439371E-01
   7139.00  6.0782648E-01
   7139.33  5.9329200E-01
   7139.67  5.8058558E-01
   7140.00  5.6968273E-01
   7140.33  5.6063158E-01
   7140.67  5.5290036E-01
   7141.00  5.4609365E-01
   7141.33  5.3973124E-01
   7141.67  5.3326194E-01
   7142.00  5.2637182E-01
   7142.33  5.1888838E-01
   7142.67  5.1111795E-01
   7143.00  5.0347338E-01
   7143.33  4.9653474E-01
   7143.67  4.9054761E-01
   7144.00  4.8560538E-01
   7144.33  4.8179934E-01
   7144.67  4.7890388E-01
   7145.00  4.7682286E-01
   7145.33  4.7552895E-01
   7145.67  4.7481087E-01
   7146.00  4.7454937E-01
   7146.33  4.7462341E-01
   7146.67  4.7480869E-01
   7147.00  4.7491974E-01
   7147.33  4.7470162E-01
   7147.67  4.7402233E-01
   7148.00  4.7281323E-01
   7148.33  4.7106043E-01
   7148.67  4.6900336E-01
   7149.00  4.6685050E-01
   7149.33  4.6484453E-01
   7149.67  4.6310378E-01
   7150.00  4.6163462E-01
   7150.33  4.6033463E-01
   7150.67  4.5897223E-01
   7151.00  4.5735070E-01
   7151.33  4.5520350E-01
   7151.67  4.5241396E-01
   7152.00  4.4886718E-01
   7152.33  4.4436784E-01
   7152.67  4.3898301E-01
   7153.00  4.3272317E-01
   7153.33  4.2554563E-01
   7153.67  4.1765915E-01
   7154.00  4.0918811E-01
   7154.33  4.0024797E-01
   7154.67  3.9106312E-01
   7155.00  3.8177270E-01
   7155.33  3.7252819E-01
   7155.67  3.6345988E-01
   7156.00  3.5468216E-01
   7156.33  3.4638122E-01
   7156.67  3.3863224E-01
   7157.00  3.3153261E-01
   7157.33  3.2526008E-01
   7157.67  3.1976951E-01
   7158.00  3.1506598E-01
   7158.33  3.1120981E-01
   7158.67  3.0804369E-01
   7159.00  3.0550462E-01
   7159.33  3.0359437E-01
   7159.67  3.0219249E-01
   7160.00  3.0127488E-01
   7160.33  3.0089893E-01
   7160.67  3.0102525E-01
   7161.00  3.0168291E-01
   7161.33  3.0297622E-01
   7161.67  3.0485596E-01
   7162.00  3.0732311E-01
   7162.33  3.1042333E-01
   7162.67  3.1403207E-01
   7163.00  3.1807970E-01
   7163.33  3.2250729E-01
   7163.67  3.2715522E-01
   7164.00  3.3191737E-01
   7164.33  3.3669358E-01
   7164.67  3.4141340E-01
   7165.00  3.4604411E-01
   7165.33  3.5056688E-01
   7165.67  3.5501596E-01
   7166.00  3.5942772E-01
   7166.33  3.6385926E-01
   7166.67  3.6836863E-01
   7167.00  3.7300631E-01
   7167.33  3.7784868E-01
   7167.67  3.8291885E-01
   7168.00  3.8824942E-01
   7168.33  3.9390753E-01
   7168.67  3.9987996E-01
   7169.00  4.0618063E-01
   7169.33  4.1286032E-01
   7169.67  4.1987329E-01
   7170.00  4.2720360E-01
   7170.33  4.3484724E-01
   7170.67  4.4269416E-01
   7171.00  4.5062954E-01
   7171.33  4.5839202E-01
   7171.67  4.6554844E-01
   7172.00  4.7150453E-01
