    FDMNES
    energy     <xanes>
   7097.00  4.3139987E-03
   7097.33  4.4053807E-03
   7097.67  4.5005320E-03
   7098.00  4.5996961E-03
   7098.33  4.7037272E-03
   7098.67  4.8124339E-03
   7099.00  4.9261483E-03
   7099.33  5.0459816E-03
   7099.67  5.1717397E-03
   7100.00  5.3038889E-03
   7100.33  5.4439175E-03
   7100.67  5.5916482E-03
   7101.00  5.7477600E-03
   7101.33  5.9143168E-03
   7101.67  6.0912030E-03
   7102.00  6.2794493E-03
   7102.33  6.4820431E-03
   7102.67  6.6990310E-03
   7103.00  6.9320605E-03
   7103.33  7.1856903E-03
   7103.67  7.4603646E-03
   7104.00  7.7588880E-03
   7104.33  8.0886958E-03
   7104.67  8.4512134E-03
   7105.00  8.8516135E-03
   7105.33  9.3031046E-03
   7105.67  9.8096798E-03
   7106.00  1.0381924E-02
   7106.33  1.1046124E-02
   7106.67  1.1813735E-02
   7107.00  1.2709708E-02
   7107.33  1.3795282E-02
   7107.67  1.5107545E-02
   7108.00  1.6718588E-02
   7108.33  1.8808437E-02
   7108.67  2.1528740E-02
   7109.00  2.5164672E-02
   7109.33  3.0481878E-02
   7109.67  3.8406178E-02
   7110.00  5.0769180E-02
   7110.33  7.2874606E-02
   7110.67  1.0978639E-01
   7111.00  1.5855366E-01
   7111.33  1.8981536E-01
   7111.67  1.9479547E-01
   7112.00  1.8984654E-01
   7112.33  1.8778761E-01
   7112.67  1.8342507E-01
   7113.00  1.7007498E-01
   7113.33  1.4681132E-01
   7113.67  1.2432467E-01
   7114.00  1.0803241E-01
   7114.33  9.6499212E-02
   7114.67  8.5293604E-02
   7115.00  7.5990387E-02
   7115.33  7.0342543E-02
   7115.67  6.6328506E-02
   7116.00  6.3214468E-02
   7116.33  6.1689439E-02
   7116.67  6.1912250E-02
   7117.00  6.3792544E-02
   7117.33  6.7301578E-02
   7117.67  7.1921817E-02
   7118.00  7.7218123E-02
   7118.33  8.3028550E-02
   7118.67  8.9676602E-02
   7119.00  9.7582075E-02
   7119.33  1.0721193E-01
   7119.67  1.1847933E-01
   7120.00  1.3142405E-01
   7120.33  1.4628561E-01
   7120.67  1.6286650E-01
   7121.00  1.8119504E-01
   7121.33  2.0159868E-01
   7121.67  2.2403759E-01
   7122.00  2.4864726E-01
   7122.33  2.7540745E-01
   7122.67  3.0302620E-01
   7123.00  3.3004973E-01
   7123.33  3.5448348E-01
   7123.67  3.7589146E-01
   7124.00  3.9505088E-01
   7124.33  4.1366999E-01
   7124.67  4.3246875E-01
   7125.00  4.5031032E-01
   7125.33  4.6485828E-01
   7125.67  4.7550629E-01
   7126.00  4.8215876E-01
   7126.33  4.8446043E-01
   7126.67  4.8364154E-01
   7127.00  4.8114247E-01
   7127.33  4.7908990E-01
   7127.67  4.7889550E-01
   7128.00  4.8082332E-01
   7128.33  4.8445308E-01
   7128.67  4.8886033E-01
   7129.00  4.9386325E-01
   7129.33  4.9967390E-01
   7129.67  5.0613836E-01
   7130.00  5.1298360E-01
   7130.33  5.2001485E-01
   7130.67  5.2743364E-01
   7131.00  5.3576249E-01
   7131.33  5.4604958E-01
   7131.67  5.5919192E-01
   7132.00  5.7630864E-01
   7132.33  5.9889521E-01
   7132.67  6.2599605E-01
   7133.00  6.5617667E-01
   7133.33  6.8726554E-01
   7133.67  7.1717275E-01
   7134.00  7.4458313E-01
   7134.33  7.6736448E-01
   7134.67  7.8410981E-01
   7135.00  7.9350433E-01
   7135.33  7.9429393E-01
   7135.67  7.8856844E-01
   7136.00  7.7804093E-01
   7136.33  7.6456384E-01
   7136.67  7.5030487E-01
   7137.00  7.3636862E-01
   7137.33  7.2362998E-01
   7137.67  7.1224356E-01
   7138.00  7.0220739E-01
   7138.33  6.9349792E-01
   7138.67  6.8572869E-01
   7139.00  6.7869469E-01
   7139.33  6.7225470E-01
   7139.67  6.6618942E-01
   7140.00  6.6041648E-01
   7140.33  6.5492054E-01
   7140.67  6.4966047E-01
   7141.00  6.4463885E-01
   7141.33  6.3988400E-01
   7141.67  6.3535276E-01
   7142.00  6.3102589E-01
   7142.33  6.2690427E-01
   7142.67  6.2295584E-01
   7143.00  6.1919065E-01
   7143.33  6.1567314E-01
   7143.67  6.1244088E-01
   7144.00  6.0957116E-01
   7144.33  6.0723004E-01
   7144.67  6.0546406E-01
   7145.00  6.0435676E-01
   7145.33  6.0410162E-01
   7145.67  6.0469339E-01
   7146.00  6.0618502E-01
   7146.33  6.0870862E-01
   7146.67  6.1210672E-01
   7147.00  6.1628970E-01
   7147.33  6.2117367E-01
   7147.67  6.2645562E-01
   7148.00  6.3188555E-01
   7148.33  6.3707356E-01
   7148.67  6.4161239E-01
   7149.00  6.4509315E-01
   7149.33  6.4686502E-01
   7149.67  6.4675509E-01
   7150.00  6.4458265E-01
   7150.33  6.4007092E-01
   7150.67  6.3367597E-01
   7151.00  6.2569735E-01
   7151.33  6.1641877E-01
   7151.67  6.0641607E-01
   7152.00  5.9601421E-01
   7152.33  5.8549972E-01
   7152.67  5.7508792E-01
   7153.00  5.6487999E-01
   7153.33  5.5495571E-01
   7153.67  5.4528199E-01
   7154.00  5.3583637E-01
   7154.33  5.2659807E-01
   7154.67  5.1748917E-01
   7155.00  5.0846232E-01
   7155.33  4.9947475E-01
   7155.67  4.9048951E-01
   7156.00  4.8149170E-01
   7156.33  4.7247705E-01
   7156.67  4.6346316E-01
   7157.00  4.5447774E-01
   7157.33  4.4557046E-01
   7157.67  4.3678058E-01
   7158.00  4.2815423E-01
   7158.33  4.1977507E-01
   7158.67  4.1167254E-01
   7159.00  4.0389470E-01
   7159.33  3.9654115E-01
   7159.67  3.8961253E-01
   7160.00  3.8314531E-01
   7160.33  3.7723684E-01
   7160.67  3.7185344E-01
   7161.00  3.6701459E-01
   7161.33  3.6280431E-01
   7161.67  3.5915955E-01
   7162.00  3.5608266E-01
   7162.33  3.5364244E-01
   7162.67  3.5175957E-01
   7163.00  3.5042375E-01
   7163.33  3.4969050E-01
   7163.67  3.4947698E-01
   7164.00  3.4976158E-01
   7164.33  3.5056536E-01
   7164.67  3.5178068E-01
   7165.00  3.5335370E-01
   7165.33  3.5524624E-01
   7165.67  3.5734102E-01
   7166.00  3.5956480E-01
   7166.33  3.6183925E-01
   7166.67  3.6408260E-01
   7167.00  3.6624011E-01
   7167.33  3.6824697E-01
   7167.67  3.7008988E-01
   7168.00  3.7175775E-01
   7168.33  3.7323210E-01
   7168.67  3.7455066E-01
   7169.00  3.7573409E-01
   7169.33  3.7679724E-01
   7169.67  3.7778240E-01
   7170.00  3.7871204E-01
   7170.33  3.7960232E-01
   7170.67  3.8046930E-01
   7171.00  3.8131343E-01
   7171.33  3.8211546E-01
   7171.67  3.8284193E-01
   7172.00  3.8343841E-01
