    FDMNES
    energy     <xanes>
   7097.00  5.1967038E-03
   7097.33  5.3240404E-03
   7097.67  5.4572878E-03
   7098.00  5.5968493E-03
   7098.33  5.7440976E-03
   7098.67  5.8987560E-03
   7099.00  6.0613730E-03
   7099.33  6.2337436E-03
   7099.67  6.4155829E-03
   7100.00  6.6076563E-03
   7100.33  6.8123700E-03
   7100.67  7.0294566E-03
   7101.00  7.2600165E-03
   7101.33  7.5073720E-03
   7101.67  7.7713305E-03
   7102.00  8.0535313E-03
   7102.33  8.3587274E-03
   7102.67  8.6869279E-03
   7103.00  9.0406819E-03
   7103.33  9.4270914E-03
   7103.67  9.8466559E-03
   7104.00  1.0303555E-02
   7104.33  1.0808995E-02
   7104.67  1.1364655E-02
   7105.00  1.1977866E-02
   7105.33  1.2667602E-02
   7105.67  1.3438499E-02
   7106.00  1.4304616E-02
   7106.33  1.5301271E-02
   7106.67  1.6441223E-02
   7107.00  1.7754967E-02
   7107.33  1.9317717E-02
   7107.67  2.1168154E-02
   7108.00  2.3385610E-02
   7108.33  2.6166794E-02
   7108.67  2.9655994E-02
   7109.00  3.4128974E-02
   7109.33  4.0308902E-02
   7109.67  4.8980800E-02
   7110.00  6.1684474E-02
   7110.33  8.2843711E-02
   7110.67  1.1732552E-01
   7111.00  1.6739863E-01
   7111.33  2.1937434E-01
   7111.67  2.4961143E-01
   7112.00  2.6113646E-01
   7112.33  2.7766004E-01
   7112.67  3.1140904E-01
   7113.00  3.6454925E-01
   7113.33  4.3247866E-01
   7113.67  4.9365385E-01
   7114.00  5.2077925E-01
   7114.33  4.9258689E-01
   7114.67  4.3552757E-01
   7115.00  3.7756986E-01
   7115.33  3.3857480E-01
   7115.67  3.1685936E-01
   7116.00  3.0496705E-01
   7116.33  2.9240772E-01
   7116.67  2.7611067E-01
   7117.00  2.5909124E-01
   7117.33  2.4417974E-01
   7117.67  2.3062818E-01
   7118.00  2.1711449E-01
   7118.33  2.0258122E-01
   7118.67  1.8760286E-01
   7119.00  1.7359847E-01
   7119.33  1.6230476E-01
   7119.67  1.5358306E-01
   7120.00  1.4681083E-01
   7120.33  1.4138332E-01
   7120.67  1.3697176E-01
   7121.00  1.3379526E-01
   7121.33  1.3223852E-01
   7121.67  1.3221880E-01
   7122.00  1.3378154E-01
   7122.33  1.3706517E-01
   7122.67  1.4186833E-01
   7123.00  1.4838079E-01
   7123.33  1.5738826E-01
   7123.67  1.6943778E-01
   7124.00  1.8548838E-01
   7124.33  2.0750506E-01
   7124.67  2.3583697E-01
   7125.00  2.7023827E-01
   7125.33  3.0795211E-01
   7125.67  3.4211720E-01
   7126.00  3.6682449E-01
   7126.33  3.7778392E-01
   7126.67  3.7924649E-01
   7127.00  3.7576925E-01
   7127.33  3.7228134E-01
   7127.67  3.7193718E-01
   7128.00  3.7609791E-01
   7128.33  3.8603523E-01
   7128.67  4.0111593E-01
   7129.00  4.2112240E-01
   7129.33  4.4634918E-01
   7129.67  4.7594013E-01
   7130.00  5.0971339E-01
   7130.33  5.4816743E-01
   7130.67  5.9096609E-01
   7131.00  6.3825792E-01
   7131.33  6.9038530E-01
   7131.67  7.4584517E-01
   7132.00  8.0297103E-01
   7132.33  8.5857601E-01
   7132.67  9.0876526E-01
   7133.00  9.4948122E-01
   7133.33  9.7419117E-01
   7133.67  9.8101059E-01
   7134.00  9.6875816E-01
   7134.33  9.3700942E-01
   7134.67  8.9248654E-01
   7135.00  8.4005592E-01
   7135.33  7.8462192E-01
   7135.67  7.3045128E-01
   7136.00  6.7972162E-01
   7136.33  6.3435610E-01
   7136.67  5.9414073E-01
   7137.00  5.5896567E-01
   7137.33  5.2910917E-01
   7137.67  5.0367945E-01
   7138.00  4.8248492E-01
   7138.33  4.6585127E-01
   7138.67  4.5307933E-01
   7139.00  4.4396836E-01
   7139.33  4.3865878E-01
   7139.67  4.3641650E-01
   7140.00  4.3697484E-01
   7140.33  4.4034443E-01
   7140.67  4.4591507E-01
   7141.00  4.5342853E-01
   7141.33  4.6278144E-01
   7141.67  4.7345475E-01
   7142.00  4.8517610E-01
   7142.33  4.9772368E-01
   7142.67  5.1070267E-01
   7143.00  5.2386654E-01
   7143.33  5.3694130E-01
   7143.67  5.4970450E-01
   7144.00  5.6198666E-01
   7144.33  5.7355042E-01
   7144.67  5.8436325E-01
   7145.00  5.9436504E-01
   7145.33  6.0342145E-01
   7145.67  6.1164610E-01
   7146.00  6.1907051E-01
   7146.33  6.2566095E-01
   7146.67  6.3158385E-01
   7147.00  6.3690679E-01
   7147.33  6.4164230E-01
   7147.67  6.4592696E-01
   7148.00  6.4981405E-01
   7148.33  6.5331150E-01
   7148.67  6.5650044E-01
   7149.00  6.5940210E-01
   7149.33  6.6199565E-01
   7149.67  6.6431812E-01
   7150.00  6.6636414E-01
   7150.33  6.6808592E-01
   7150.67  6.6950481E-01
   7151.00  6.7060748E-01
   7151.33  6.7133806E-01
   7151.67  6.7172556E-01
   7152.00  6.7176214E-01
   7152.33  6.7139827E-01
   7152.67  6.7067766E-01
   7153.00  6.6960306E-01
   7153.33  6.6813779E-01
   7153.67  6.6633473E-01
   7154.00  6.6420402E-01
   7154.33  6.6172041E-01
   7154.67  6.5893808E-01
   7155.00  6.5586936E-01
   7155.33  6.5249286E-01
   7155.67  6.4885373E-01
   7156.00  6.4495953E-01
   7156.33  6.4078479E-01
   7156.67  6.3636318E-01
   7157.00  6.3169506E-01
   7157.33  6.2674847E-01
   7157.67  6.2155297E-01
   7158.00  6.1610792E-01
   7158.33  6.1038309E-01
   7158.67  6.0441468E-01
   7159.00  5.9821215E-01
   7159.33  5.9176580E-01
   7159.67  5.8512718E-01
   7160.00  5.7832241E-01
   7160.33  5.7137042E-01
   7160.67  5.6432725E-01
   7161.00  5.5722904E-01
   7161.33  5.5011688E-01
   7161.67  5.4303474E-01
   7162.00  5.3601857E-01
   7162.33  5.2912078E-01
   7162.67  5.2235956E-01
   7163.00  5.1575460E-01
   7163.33  5.0934358E-01
   7163.67  5.0311421E-01
   7164.00  4.9706884E-01
   7164.33  4.9122614E-01
   7164.67  4.8555329E-01
   7165.00  4.8003752E-01
   7165.33  4.7467786E-01
   7165.67  4.6943545E-01
   7166.00  4.6429028E-01
   7166.33  4.5922739E-01
   7166.67  4.5421293E-01
   7167.00  4.4922697E-01
   7167.33  4.4425173E-01
   7167.67  4.3927327E-01
   7168.00  4.3428551E-01
   7168.33  4.2928297E-01
   7168.67  4.2427094E-01
   7169.00  4.1926039E-01
   7169.33  4.1427180E-01
   7169.67  4.0932746E-01
   7170.00  4.0445478E-01
   7170.33  3.9970668E-01
   7170.67  3.9511951E-01
   7171.00  3.9075061E-01
   7171.33  3.8673661E-01
   7171.67  3.8319527E-01
   7172.00  3.8031692E-01
