    FDMNES
    energy     <xanes>
   7097.00  4.2586704E-03
   7097.33  4.3472159E-03
   7097.67  4.4393662E-03
   7098.00  4.5353450E-03
   7098.33  4.6359526E-03
   7098.67  4.7409911E-03
   7099.00  4.8507588E-03
   7099.33  4.9662791E-03
   7099.67  5.0873411E-03
   7100.00  5.2143521E-03
   7100.33  5.3486508E-03
   7100.67  5.4900227E-03
   7101.00  5.6390390E-03
   7101.33  5.7974983E-03
   7101.67  5.9652040E-03
   7102.00  6.1429833E-03
   7102.33  6.3333300E-03
   7102.67  6.5361135E-03
   7103.00  6.7525772E-03
   7103.33  6.9863138E-03
   7103.67  7.2373641E-03
   7104.00  7.5076846E-03
   7104.33  7.8026963E-03
   7104.67  8.1228534E-03
   7105.00  8.4714099E-03
   7105.33  8.8570329E-03
   7105.67  9.2811713E-03
   7106.00  9.7496310E-03
   7106.33  1.0277337E-02
   7106.67  1.0868249E-02
   7107.00  1.1533728E-02
   7107.33  1.2302156E-02
   7107.67  1.3184485E-02
   7108.00  1.4205982E-02
   7108.33  1.5428820E-02
   7108.67  1.6886893E-02
   7109.00  1.8648456E-02
   7109.33  2.0883749E-02
   7109.67  2.3726682E-02
   7110.00  2.7433929E-02
   7110.33  3.2690956E-02
   7110.67  4.0238648E-02
   7111.00  5.1277009E-02
   7111.33  6.8506417E-02
   7111.67  9.2991982E-02
   7112.00  1.2410767E-01
   7112.33  1.5087216E-01
   7112.67  1.8148224E-01
   7113.00  2.4494774E-01
   7113.33  3.5446299E-01
   7113.67  4.2707256E-01
   7114.00  4.0121319E-01
   7114.33  3.3894626E-01
   7114.67  2.7821844E-01
   7115.00  2.2060126E-01
   7115.33  1.6914982E-01
   7115.67  1.3442613E-01
   7116.00  1.1346637E-01
   7116.33  9.6210924E-02
   7116.67  8.1396111E-02
   7117.00  7.2545994E-02
   7117.33  7.0081863E-02
   7117.67  7.0957597E-02
   7118.00  7.4463313E-02
   7118.33  8.1742201E-02
   7118.67  8.9923132E-02
   7119.00  9.5239149E-02
   7119.33  9.8132882E-02
   7119.67  1.0125603E-01
   7120.00  1.0490906E-01
   7120.33  1.0979324E-01
   7120.67  1.1587915E-01
   7121.00  1.2237884E-01
   7121.33  1.2867475E-01
   7121.67  1.3611692E-01
   7122.00  1.4622850E-01
   7122.33  1.5927171E-01
   7122.67  1.7346563E-01
   7123.00  1.8839661E-01
   7123.33  2.0562608E-01
   7123.67  2.2630483E-01
   7124.00  2.5083849E-01
   7124.33  2.7966136E-01
   7124.67  3.1255451E-01
   7125.00  3.4968215E-01
   7125.33  3.8899639E-01
   7125.67  4.2447802E-01
   7126.00  4.5079439E-01
   7126.33  4.6441904E-01
   7126.67  4.7012311E-01
   7127.00  4.7267676E-01
   7127.33  4.7695433E-01
   7127.67  4.8492234E-01
   7128.00  4.9572997E-01
   7128.33  5.0566074E-01
   7128.67  5.1109093E-01
   7129.00  5.1085546E-01
   7129.33  5.0534743E-01
   7129.67  4.9711154E-01
   7130.00  4.8773499E-01
   7130.33  4.7863317E-01
   7130.67  4.7074459E-01
   7131.00  4.6470263E-01
   7131.33  4.6118186E-01
   7131.67  4.5989029E-01
   7132.00  4.6093397E-01
   7132.33  4.6508010E-01
   7132.67  4.7183102E-01
   7133.00  4.8017434E-01
   7133.33  4.8836252E-01
   7133.67  4.9489447E-01
   7134.00  4.9909970E-01
   7134.33  5.0076432E-01
   7134.67  5.0081949E-01
   7135.00  4.9988646E-01
   7135.33  4.9832232E-01
   7135.67  4.9627323E-01
   7136.00  4.9362829E-01
   7136.33  4.9011901E-01
   7136.67  4.8576162E-01
   7137.00  4.8061186E-01
   7137.33  4.7482397E-01
   7137.67  4.6884881E-01
   7138.00  4.6308209E-01
   7138.33  4.5804477E-01
   7138.67  4.5397147E-01
   7139.00  4.5097651E-01
   7139.33  4.4919255E-01
   7139.67  4.4843852E-01
   7140.00  4.4868092E-01
   7140.33  4.5002673E-01
   7140.67  4.5234825E-01
   7141.00  4.5562020E-01
   7141.33  4.5985840E-01
   7141.67  4.6481374E-01
   7142.00  4.7036713E-01
   7142.33  4.7643965E-01
   7142.67  4.8284154E-01
   7143.00  4.8947831E-01
   7143.33  4.9630930E-01
   7143.67  5.0331778E-01
   7144.00  5.1056891E-01
   7144.33  5.1827489E-01
   7144.67  5.2659106E-01
   7145.00  5.3567456E-01
   7145.33  5.4574694E-01
   7145.67  5.5670234E-01
   7146.00  5.6845011E-01
   7146.33  5.8085794E-01
   7146.67  5.9356250E-01
   7147.00  6.0627505E-01
   7147.33  6.1861526E-01
   7147.67  6.3033274E-01
   7148.00  6.4124899E-01
   7148.33  6.5114347E-01
   7148.67  6.6012414E-01
   7149.00  6.6825704E-01
   7149.33  6.7559316E-01
   7149.67  6.8239348E-01
   7150.00  6.8880181E-01
   7150.33  6.9491814E-01
   7150.67  7.0084914E-01
   7151.00  7.0660705E-01
   7151.33  7.1212856E-01
   7151.67  7.1736442E-01
   7152.00  7.2223490E-01
   7152.33  7.2659097E-01
   7152.67  7.3041382E-01
   7153.00  7.3365982E-01
   7153.33  7.3623497E-01
   7153.67  7.3822773E-01
   7154.00  7.3967157E-01
   7154.33  7.4055691E-01
   7154.67  7.4099608E-01
   7155.00  7.4101697E-01
   7155.33  7.4057103E-01
   7155.67  7.3967625E-01
   7156.00  7.3827524E-01
   7156.33  7.3620151E-01
   7156.67  7.3342049E-01
   7157.00  7.2983325E-01
   7157.33  7.2521810E-01
   7157.67  7.1960716E-01
   7158.00  7.1296329E-01
   7158.33  7.0516522E-01
   7158.67  6.9640792E-01
   7159.00  6.8679463E-01
   7159.33  6.7640087E-01
   7159.67  6.6550163E-01
   7160.00  6.5426195E-01
   7160.33  6.4283833E-01
   7160.67  6.3139818E-01
   7161.00  6.2003949E-01
   7161.33  6.0886595E-01
   7161.67  5.9791080E-01
   7162.00  5.8719969E-01
   7162.33  5.7677822E-01
   7162.67  5.6661782E-01
   7163.00  5.5671902E-01
   7163.33  5.4711658E-01
   7163.67  5.3778424E-01
   7164.00  5.2873294E-01
   7164.33  5.2001849E-01
   7164.67  5.1162924E-01
   7165.00  5.0359399E-01
   7165.33  4.9599923E-01
   7165.67  4.8883505E-01
   7166.00  4.8213518E-01
   7166.33  4.7599995E-01
   7166.67  4.7040100E-01
   7167.00  4.6536385E-01
   7167.33  4.6098375E-01
   7167.67  4.5719990E-01
   7168.00  4.5401397E-01
   7168.33  4.5149008E-01
   7168.67  4.4953273E-01
   7169.00  4.4811338E-01
   7169.33  4.4724963E-01
   7169.67  4.4682506E-01
   7170.00  4.4678556E-01
   7170.33  4.4710111E-01
   7170.67  4.4765738E-01
   7171.00  4.4838554E-01
   7171.33  4.4920573E-01
   7171.67  4.4999501E-01
   7172.00  4.5063458E-01
