    FDMNES
    energy     <xanes>
   7097.00  4.8648399E-03
   7097.33  4.9762857E-03
   7097.67  5.0926905E-03
   7098.00  5.2143843E-03
   7098.33  5.3425053E-03
   7098.67  5.4768106E-03
   7099.00  5.6177472E-03
   7099.33  5.7667952E-03
   7099.67  5.9237026E-03
   7100.00  6.0890903E-03
   7100.33  6.2649314E-03
   7100.67  6.4509843E-03
   7101.00  6.6481376E-03
   7101.33  6.8590997E-03
   7101.67  7.0836833E-03
   7102.00  7.3232058E-03
   7102.33  7.5815179E-03
   7102.67  7.8585847E-03
   7103.00  8.1564430E-03
   7103.33  8.4808079E-03
   7103.67  8.8320183E-03
   7104.00  9.2133919E-03
   7104.33  9.6338767E-03
   7104.67  1.0094710E-02
   7105.00  1.0601663E-02
   7105.33  1.1169740E-02
   7105.67  1.1802416E-02
   7106.00  1.2510627E-02
   7106.33  1.3321939E-02
   7106.67  1.4245866E-02
   7107.00  1.5305711E-02
   7107.33  1.6558993E-02
   7107.67  1.8033968E-02
   7108.00  1.9789431E-02
   7108.33  2.1970586E-02
   7108.67  2.4678367E-02
   7109.00  2.8106169E-02
   7109.33  3.2753698E-02
   7109.67  3.9129013E-02
   7110.00  4.8217637E-02
   7110.33  6.2820275E-02
   7110.67  8.6259068E-02
   7111.00  1.2198278E-01
   7111.33  1.6942022E-01
   7111.67  2.1624345E-01
   7112.00  2.5089794E-01
   7112.33  2.7022782E-01
   7112.67  2.7679934E-01
   7113.00  2.8226268E-01
   7113.33  3.1178757E-01
   7113.67  3.6514495E-01
   7114.00  4.1991025E-01
   7114.33  4.1246556E-01
   7114.67  3.4080150E-01
   7115.00  2.5928730E-01
   7115.33  2.0780571E-01
   7115.67  1.8387970E-01
   7116.00  1.8294175E-01
   7116.33  2.0393398E-01
   7116.67  2.3861267E-01
   7117.00  2.7458438E-01
   7117.33  2.9148937E-01
   7117.67  2.8608589E-01
   7118.00  2.6580489E-01
   7118.33  2.4070480E-01
   7118.67  2.1737878E-01
   7119.00  1.9761958E-01
   7119.33  1.8190554E-01
   7119.67  1.6881141E-01
   7120.00  1.5740086E-01
   7120.33  1.4745299E-01
   7120.67  1.3909929E-01
   7121.00  1.3259491E-01
   7121.33  1.2821449E-01
   7121.67  1.2557812E-01
   7122.00  1.2452093E-01
   7122.33  1.2504055E-01
   7122.67  1.2681595E-01
   7123.00  1.2977728E-01
   7123.33  1.3408166E-01
   7123.67  1.3964793E-01
   7124.00  1.4657738E-01
   7124.33  1.5526767E-01
   7124.67  1.6584724E-01
   7125.00  1.7871363E-01
   7125.33  1.9487405E-01
   7125.67  2.1478473E-01
   7126.00  2.3914384E-01
   7126.33  2.6891257E-01
   7126.67  3.0279007E-01
   7127.00  3.3887191E-01
   7127.33  3.7284548E-01
   7127.67  3.9996322E-01
   7128.00  4.1758879E-01
   7128.33  4.2561567E-01
   7128.67  4.2927242E-01
   7129.00  4.3256771E-01
   7129.33  4.3939262E-01
   7129.67  4.5133294E-01
   7130.00  4.6919196E-01
   7130.33  4.9397586E-01
   7130.67  5.2453103E-01
   7131.00  5.6001470E-01
   7131.33  5.9928622E-01
   7131.67  6.3982765E-01
   7132.00  6.7956418E-01
   7132.33  7.1563003E-01
   7132.67  7.4627246E-01
   7133.00  7.7014531E-01
   7133.33  7.8560853E-01
   7133.67  7.9397241E-01
   7134.00  7.9638996E-01
   7134.33  7.9438923E-01
   7134.67  7.9072078E-01
   7135.00  7.8715456E-01
   7135.33  7.8552570E-01
   7135.67  7.8667281E-01
   7136.00  7.9100288E-01
   7136.33  7.9864546E-01
   7136.67  8.0796982E-01
   7137.00  8.1685387E-01
   7137.33  8.2108665E-01
   7137.67  8.1689184E-01
   7138.00  8.0132974E-01
   7138.33  7.7198723E-01
   7138.67  7.3284792E-01
   7139.00  6.8786475E-01
   7139.33  6.4184487E-01
   7139.67  5.9873986E-01
   7140.00  5.6056963E-01
   7140.33  5.2913461E-01
   7140.67  5.0374226E-01
   7141.00  4.8394504E-01
   7141.33  4.6951728E-01
   7141.67  4.5893583E-01
   7142.00  4.5144999E-01
   7142.33  4.4661672E-01
   7142.67  4.4358169E-01
   7143.00  4.4199952E-01
   7143.33  4.4173789E-01
   7143.67  4.4246327E-01
   7144.00  4.4405827E-01
   7144.33  4.4649750E-01
   7144.67  4.4955624E-01
   7145.00  4.5309423E-01
   7145.33  4.5694857E-01
   7145.67  4.6086251E-01
   7146.00  4.6464916E-01
   7146.33  4.6810223E-01
   7146.67  4.7120402E-01
   7147.00  4.7404631E-01
   7147.33  4.7689834E-01
   7147.67  4.8007547E-01
   7148.00  4.8379399E-01
   7148.33  4.8828396E-01
   7148.67  4.9345249E-01
   7149.00  4.9917193E-01
   7149.33  5.0523720E-01
   7149.67  5.1134162E-01
   7150.00  5.1729663E-01
   7150.33  5.2294835E-01
   7150.67  5.2833172E-01
   7151.00  5.3352188E-01
   7151.33  5.3864052E-01
   7151.67  5.4382911E-01
   7152.00  5.4917669E-01
   7152.33  5.5476372E-01
   7152.67  5.6056269E-01
   7153.00  5.6654183E-01
   7153.33  5.7264930E-01
   7153.67  5.7877600E-01
   7154.00  5.8482694E-01
   7154.33  5.9066579E-01
   7154.67  5.9621233E-01
   7155.00  6.0139088E-01
   7155.33  6.0607881E-01
   7155.67  6.1028481E-01
   7156.00  6.1398591E-01
   7156.33  6.1710715E-01
   7156.67  6.1971640E-01
   7157.00  6.2182506E-01
   7157.33  6.2339301E-01
   7157.67  6.2450399E-01
   7158.00  6.2517923E-01
   7158.33  6.2539160E-01
   7158.67  6.2521543E-01
   7159.00  6.2466851E-01
   7159.33  6.2372522E-01
   7159.67  6.2244581E-01
   7160.00  6.2084255E-01
   7160.33  6.1888903E-01
   7160.67  6.1663679E-01
   7161.00  6.1409744E-01
   7161.33  6.1124608E-01
   7161.67  6.0812528E-01
   7162.00  6.0474355E-01
   7162.33  6.0108070E-01
   7162.67  5.9718226E-01
   7163.00  5.9306470E-01
   7163.33  5.8871920E-01
   7163.67  5.8418578E-01
   7164.00  5.7947911E-01
   7164.33  5.7459981E-01
   7164.67  5.6958974E-01
   7165.00  5.6447113E-01
   7165.33  5.5926287E-01
   7165.67  5.5400681E-01
   7166.00  5.4873209E-01
   7166.33  5.4347356E-01
   7166.67  5.3825854E-01
   7167.00  5.3310809E-01
   7167.33  5.2805029E-01
   7167.67  5.2308400E-01
   7168.00  5.1821043E-01
   7168.33  5.1343380E-01
   7168.67  5.0873130E-01
   7169.00  5.0409085E-01
   7169.33  4.9949981E-01
   7169.67  4.9493624E-01
   7170.00  4.9039283E-01
   7170.33  4.8587773E-01
   7170.67  4.8141470E-01
   7171.00  4.7705241E-01
   7171.33  4.7292225E-01
   7171.67  4.6919511E-01
   7172.00  4.6612585E-01
