    FDMNES
    energy     <xanes>
   7097.00  5.1836341E-03
   7097.33  5.3126263E-03
   7097.67  5.4478050E-03
   7098.00  5.5896088E-03
   7098.33  5.7395030E-03
   7098.67  5.8972219E-03
   7099.00  6.0633691E-03
   7099.33  6.2398827E-03
   7099.67  6.4264981E-03
   7100.00  6.6240688E-03
   7100.33  6.8352273E-03
   7100.67  7.0597448E-03
   7101.00  7.2988671E-03
   7101.33  7.5562845E-03
   7101.67  7.8318805E-03
   7102.00  8.1275429E-03
   7102.33  8.4486450E-03
   7102.67  8.7953512E-03
   7103.00  9.1706546E-03
   7103.33  9.5827503E-03
   7103.67  1.0032469E-02
   7104.00  1.0524828E-02
   7104.33  1.1073072E-02
   7104.67  1.1679626E-02
   7105.00  1.2353520E-02
   7105.33  1.3117810E-02
   7105.67  1.3978952E-02
   7106.00  1.4954774E-02
   7106.33  1.6089615E-02
   7106.67  1.7401149E-02
   7107.00  1.8929352E-02
   7107.33  2.0772253E-02
   7107.67  2.2984021E-02
   7108.00  2.5672521E-02
   7108.33  2.9105004E-02
   7108.67  3.3487483E-02
   7109.00  3.9209205E-02
   7109.33  4.7294759E-02
   7109.67  5.8889319E-02
   7110.00  7.6236365E-02
   7110.33  1.0580076E-01
   7110.67  1.5464021E-01
   7111.00  2.2471973E-01
   7111.33  2.9334687E-01
   7111.67  3.4642759E-01
   7112.00  3.7953327E-01
   7112.33  3.8763888E-01
   7112.67  3.9168272E-01
   7113.00  4.0406247E-01
   7113.33  4.2555873E-01
   7113.67  4.2702123E-01
   7114.00  3.8937654E-01
   7114.33  3.4400724E-01
   7114.67  3.1882595E-01
   7115.00  3.1121526E-01
   7115.33  3.0423275E-01
   7115.67  2.8683175E-01
   7116.00  2.6349625E-01
   7116.33  2.4129245E-01
   7116.67  2.1922184E-01
   7117.00  1.9793248E-01
   7117.33  1.8086670E-01
   7117.67  1.6818992E-01
   7118.00  1.5897617E-01
   7118.33  1.5189972E-01
   7118.67  1.4548630E-01
   7119.00  1.3946857E-01
   7119.33  1.3429268E-01
   7119.67  1.3004122E-01
   7120.00  1.2637393E-01
   7120.33  1.2276055E-01
   7120.67  1.1928795E-01
   7121.00  1.1655073E-01
   7121.33  1.1536941E-01
   7121.67  1.1574464E-01
   7122.00  1.1750192E-01
   7122.33  1.2053505E-01
   7122.67  1.2457897E-01
   7123.00  1.2961208E-01
   7123.33  1.3576740E-01
   7123.67  1.4299446E-01
   7124.00  1.5152706E-01
   7124.33  1.6204735E-01
   7124.67  1.7465346E-01
   7125.00  1.8935923E-01
   7125.33  2.0635002E-01
   7125.67  2.2532668E-01
   7126.00  2.4608530E-01
   7126.33  2.6820135E-01
   7126.67  2.9081389E-01
   7127.00  3.1338271E-01
   7127.33  3.3526269E-01
   7127.67  3.5623483E-01
   7128.00  3.7652420E-01
   7128.33  3.9702610E-01
   7128.67  4.1918236E-01
   7129.00  4.4472157E-01
   7129.33  4.7669091E-01
   7129.67  5.1608279E-01
   7130.00  5.6287641E-01
   7130.33  6.1485901E-01
   7130.67  6.6709356E-01
   7131.00  7.1785069E-01
   7131.33  7.6734000E-01
   7131.67  8.1498980E-01
   7132.00  8.5872952E-01
   7132.33  8.9499023E-01
   7132.67  9.2246354E-01
   7133.00  9.4001499E-01
   7133.33  9.4588654E-01
   7133.67  9.4189441E-01
   7134.00  9.2922268E-01
   7134.33  9.0891275E-01
   7134.67  8.8361315E-01
   7135.00  8.5443896E-01
   7135.33  8.2197667E-01
   7135.67  7.8749883E-01
   7136.00  7.5183186E-01
   7136.33  7.1591544E-01
   7136.67  6.8070059E-01
   7137.00  6.4693384E-01
   7137.33  6.1571052E-01
   7137.67  5.8747611E-01
   7138.00  5.6274334E-01
   7138.33  5.4238795E-01
   7138.67  5.2602622E-01
   7139.00  5.1350410E-01
   7139.33  5.0483422E-01
   7139.67  4.9902794E-01
   7140.00  4.9559219E-01
   7140.33  4.9427797E-01
   7140.67  4.9451688E-01
   7141.00  4.9614066E-01
   7141.33  4.9920014E-01
   7141.67  5.0346738E-01
   7142.00  5.0887559E-01
   7142.33  5.1542356E-01
   7142.67  5.2277838E-01
   7143.00  5.3069525E-01
   7143.33  5.3884755E-01
   7143.67  5.4680977E-01
   7144.00  5.5423197E-01
   7144.33  5.6063449E-01
   7144.67  5.6586292E-01
   7145.00  5.6980058E-01
   7145.33  5.7230952E-01
   7145.67  5.7373645E-01
   7146.00  5.7435320E-01
   7146.33  5.7450515E-01
   7146.67  5.7466690E-01
   7147.00  5.7517684E-01
   7147.33  5.7644627E-01
   7147.67  5.7862143E-01
   7148.00  5.8181374E-01
   7148.33  5.8618947E-01
   7148.67  5.9157687E-01
   7149.00  5.9789883E-01
   7149.33  6.0511099E-01
   7149.67  6.1291786E-01
   7150.00  6.2112416E-01
   7150.33  6.2949516E-01
   7150.67  6.3774045E-01
   7151.00  6.4562109E-01
   7151.33  6.5278717E-01
   7151.67  6.5907381E-01
   7152.00  6.6430638E-01
   7152.33  6.6818617E-01
   7152.67  6.7078184E-01
   7153.00  6.7207693E-01
   7153.33  6.7195111E-01
   7153.67  6.7065005E-01
   7154.00  6.6827962E-01
   7154.33  6.6487211E-01
   7154.67  6.6070474E-01
   7155.00  6.5592021E-01
   7155.33  6.5062528E-01
   7155.67  6.4503024E-01
   7156.00  6.3925381E-01
   7156.33  6.3340659E-01
   7156.67  6.2759243E-01
   7157.00  6.2187584E-01
   7157.33  6.1632505E-01
   7157.67  6.1094177E-01
   7158.00  6.0572256E-01
   7158.33  6.0066069E-01
   7158.67  5.9569677E-01
   7159.00  5.9078470E-01
   7159.33  5.8586368E-01
   7159.67  5.8087517E-01
   7160.00  5.7577303E-01
   7160.33  5.7049307E-01
   7160.67  5.6502400E-01
   7161.00  5.5935233E-01
   7161.33  5.5345175E-01
   7161.67  5.4735997E-01
   7162.00  5.4109601E-01
   7162.33  5.3467415E-01
   7162.67  5.2815567E-01
   7163.00  5.2158299E-01
   7163.33  5.1500539E-01
   7163.67  5.0847198E-01
   7164.00  5.0202211E-01
   7164.33  4.9571238E-01
   7164.67  4.8956159E-01
   7165.00  4.8359267E-01
   7165.33  4.7784813E-01
   7165.67  4.7231270E-01
   7166.00  4.6698984E-01
   7166.33  4.6190358E-01
   7166.67  4.5701955E-01
   7167.00  4.5232670E-01
   7167.33  4.4782969E-01
   7167.67  4.4348584E-01
   7168.00  4.3927144E-01
   7168.33  4.3516648E-01
   7168.67  4.3112871E-01
   7169.00  4.2713480E-01
   7169.33  4.2316338E-01
   7169.67  4.1919252E-01
   7170.00  4.1521166E-01
   7170.33  4.1122016E-01
   7170.67  4.0724209E-01
   7171.00  4.0332388E-01
   7171.33  3.9958880E-01
   7171.67  3.9620405E-01
   7172.00  3.9340630E-01
