    FDMNES
    energy     <xanes>
   7097.00  5.1909043E-03
   7097.33  5.3202200E-03
   7097.67  5.4557318E-03
   7098.00  5.5978780E-03
   7098.33  5.7481248E-03
   7098.67  5.9062045E-03
   7099.00  6.0727201E-03
   7099.33  6.2496089E-03
   7099.67  6.4366036E-03
   7100.00  6.6345559E-03
   7100.33  6.8460946E-03
   7100.67  7.0709867E-03
   7101.00  7.3104732E-03
   7101.33  7.5682346E-03
   7101.67  7.8441468E-03
   7102.00  8.1400867E-03
   7102.33  8.4614037E-03
   7102.67  8.8082473E-03
   7103.00  9.1835857E-03
   7103.33  9.5955579E-03
   7103.67  1.0044961E-02
   7104.00  1.0536753E-02
   7104.33  1.1084045E-02
   7104.67  1.1689176E-02
   7105.00  1.2361029E-02
   7105.33  1.3122314E-02
   7105.67  1.3979252E-02
   7106.00  1.4949256E-02
   7106.33  1.6075682E-02
   7106.67  1.7375446E-02
   7107.00  1.8887197E-02
   7107.33  2.0705705E-02
   7107.67  2.2882189E-02
   7108.00  2.5519267E-02
   7108.33  2.8870657E-02
   7108.67  3.3127267E-02
   7109.00  3.8650203E-02
   7109.33  4.6384279E-02
   7109.67  5.7359049E-02
   7110.00  7.3581020E-02
   7110.33  1.0075646E-01
   7110.67  1.4482729E-01
   7111.00  2.0799257E-01
   7111.33  2.8284399E-01
   7111.67  3.5665624E-01
   7112.00  4.0420833E-01
   7112.33  4.1511017E-01
   7112.67  4.1436620E-01
   7113.00  4.2133453E-01
   7113.33  4.3470349E-01
   7113.67  4.2427722E-01
   7114.00  3.7717902E-01
   7114.33  3.2980491E-01
   7114.67  3.0834359E-01
   7115.00  3.0910170E-01
   7115.33  3.0964191E-01
   7115.67  2.9428460E-01
   7116.00  2.7031989E-01
   7116.33  2.4666417E-01
   7116.67  2.2203609E-01
   7117.00  1.9876762E-01
   7117.33  1.8077530E-01
   7117.67  1.6739113E-01
   7118.00  1.5731410E-01
   7118.33  1.4925510E-01
   7118.67  1.4217143E-01
   7119.00  1.3601339E-01
   7119.33  1.3111044E-01
   7119.67  1.2719969E-01
   7120.00  1.2374312E-01
   7120.33  1.2022343E-01
   7120.67  1.1717097E-01
   7121.00  1.1539754E-01
   7121.33  1.1554981E-01
   7121.67  1.1717014E-01
   7122.00  1.1989541E-01
   7122.33  1.2361406E-01
   7122.67  1.2819896E-01
   7123.00  1.3365402E-01
   7123.33  1.3994079E-01
   7123.67  1.4671888E-01
   7124.00  1.5384786E-01
   7124.33  1.6144984E-01
   7124.67  1.6979941E-01
   7125.00  1.7939465E-01
   7125.33  1.9145600E-01
   7125.67  2.0713182E-01
   7126.00  2.2775269E-01
   7126.33  2.5482543E-01
   7126.67  2.8633146E-01
   7127.00  3.1867791E-01
   7127.33  3.4605778E-01
   7127.67  3.6701641E-01
   7128.00  3.8349296E-01
   7128.33  3.9918532E-01
   7128.67  4.1737628E-01
   7129.00  4.4032365E-01
   7129.33  4.7131832E-01
   7129.67  5.1067911E-01
   7130.00  5.5781946E-01
   7130.33  6.1123681E-01
   7130.67  6.6816587E-01
   7131.00  7.2761202E-01
   7131.33  7.8771939E-01
   7131.67  8.4496764E-01
   7132.00  8.9603484E-01
   7132.33  9.3646885E-01
   7132.67  9.6521234E-01
   7133.00  9.8123931E-01
   7133.33  9.8291146E-01
   7133.67  9.7302559E-01
   7134.00  9.5331768E-01
   7134.33  9.2513937E-01
   7134.67  8.9164359E-01
   7135.00  8.5454689E-01
   7135.33  8.1531859E-01
   7135.67  7.7551873E-01
   7136.00  7.3599688E-01
   7136.33  6.9764539E-01
   7136.67  6.6097634E-01
   7137.00  6.2651353E-01
   7137.33  5.9520550E-01
   7137.67  5.6725281E-01
   7138.00  5.4303885E-01
   7138.33  5.2334332E-01
   7138.67  5.0773100E-01
   7139.00  4.9610172E-01
   7139.33  4.8866329E-01
   7139.67  4.8459649E-01
   7140.00  4.8356002E-01
   7140.33  4.8546753E-01
   7140.67  4.8957826E-01
   7141.00  4.9554532E-01
   7141.33  5.0315857E-01
   7141.67  5.1185082E-01
   7142.00  5.2129845E-01
   7142.33  5.3118322E-01
   7142.67  5.4110760E-01
   7143.00  5.5079858E-01
   7143.33  5.5992150E-01
   7143.67  5.6832816E-01
   7144.00  5.7588382E-01
   7144.33  5.8236016E-01
   7144.67  5.8782374E-01
   7145.00  5.9226839E-01
   7145.33  5.9560053E-01
   7145.67  5.9800828E-01
   7146.00  5.9957286E-01
   7146.33  6.0033119E-01
   7146.67  6.0053685E-01
   7147.00  6.0036229E-01
   7147.33  6.0002419E-01
   7147.67  5.9979819E-01
   7148.00  5.9990299E-01
   7148.33  6.0062982E-01
   7148.67  6.0207518E-01
   7149.00  6.0432523E-01
   7149.33  6.0750416E-01
   7149.67  6.1143823E-01
   7150.00  6.1600285E-01
   7150.33  6.2103381E-01
   7150.67  6.2620770E-01
   7151.00  6.3127622E-01
   7151.33  6.3590836E-01
   7151.67  6.3990128E-01
   7152.00  6.4308281E-01
   7152.33  6.4520241E-01
   7152.67  6.4632774E-01
   7153.00  6.4648114E-01
   7153.33  6.4564522E-01
   7153.67  6.4407538E-01
   7154.00  6.4192095E-01
   7154.33  6.3931191E-01
   7154.67  6.3646614E-01
   7155.00  6.3350559E-01
   7155.33  6.3053919E-01
   7155.67  6.2763928E-01
   7156.00  6.2483804E-01
   7156.33  6.2215709E-01
   7156.67  6.1956627E-01
   7157.00  6.1703495E-01
   7157.33  6.1451413E-01
   7157.67  6.1194345E-01
   7158.00  6.0926982E-01
   7158.33  6.0641163E-01
   7158.67  6.0333184E-01
   7159.00  5.9998599E-01
   7159.33  5.9629153E-01
   7159.67  5.9225328E-01
   7160.00  5.8785071E-01
   7160.33  5.8302388E-01
   7160.67  5.7781876E-01
   7161.00  5.7224366E-01
   7161.33  5.6627492E-01
   7161.67  5.5998679E-01
   7162.00  5.5341106E-01
   7162.33  5.4655596E-01
   7162.67  5.3950073E-01
   7163.00  5.3229259E-01
   7163.33  5.2497420E-01
   7163.67  5.1761168E-01
   7164.00  5.1024979E-01
   7164.33  5.0294300E-01
   7164.67  4.9572749E-01
   7165.00  4.8863319E-01
   7165.33  4.8170596E-01
   7165.67  4.7494869E-01
   7166.00  4.6837466E-01
   7166.33  4.6201684E-01
   7166.67  4.5585484E-01
   7167.00  4.4988814E-01
   7167.33  4.4413711E-01
   7167.67  4.3857453E-01
   7168.00  4.3319930E-01
   7168.33  4.2803256E-01
   7168.67  4.2304518E-01
   7169.00  4.1823574E-01
   7169.33  4.1363210E-01
   7169.67  4.0921984E-01
   7170.00  4.0500934E-01
   7170.33  4.0104451E-01
   7170.67  3.9732215E-01
   7171.00  3.9387188E-01
   7171.33  3.9078695E-01
   7171.67  3.8811479E-01
   7172.00  3.8596134E-01
