    FDMNES
    energy     <xanes>
   7097.00  3.9983928E-03
   7097.33  4.0774301E-03
   7097.67  4.1595068E-03
   7098.00  4.2448112E-03
   7098.33  4.3340190E-03
   7098.67  4.4269657E-03
   7099.00  4.5239072E-03
   7099.33  4.6257165E-03
   7099.67  4.7322262E-03
   7100.00  4.8437953E-03
   7100.33  4.9615859E-03
   7100.67  5.0854439E-03
   7101.00  5.2158914E-03
   7101.33  5.3545340E-03
   7101.67  5.5012658E-03
   7102.00  5.6568811E-03
   7102.33  5.8236999E-03
   7102.67  6.0017454E-03
   7103.00  6.1922928E-03
   7103.33  6.3988855E-03
   7103.67  6.6218659E-03
   7104.00  6.8634205E-03
   7104.33  7.1293531E-03
   7104.67  7.4208006E-03
   7105.00  7.7418350E-03
   7105.33  8.1028516E-03
   7105.67  8.5070854E-03
   7106.00  8.9629786E-03
   7106.33  9.4914792E-03
   7106.67  1.0101992E-02
   7107.00  1.0814747E-02
   7107.33  1.1679394E-02
   7107.67  1.2726835E-02
   7108.00  1.4016700E-02
   7108.33  1.5698185E-02
   7108.67  1.7899859E-02
   7109.00  2.0863063E-02
   7109.33  2.5238362E-02
   7109.67  3.1825036E-02
   7110.00  4.2206495E-02
   7110.33  6.0979710E-02
   7110.67  9.2560512E-02
   7111.00  1.3467717E-01
   7111.33  1.6252968E-01
   7111.67  1.5887055E-01
   7112.00  1.3463611E-01
   7112.33  1.1435605E-01
   7112.67  1.0386798E-01
   7113.00  9.9723256E-02
   7113.33  9.9418431E-02
   7113.67  9.9009919E-02
   7114.00  9.2858674E-02
   7114.33  8.1655052E-02
   7114.67  7.1325921E-02
   7115.00  6.2982615E-02
   7115.33  5.4539631E-02
   7115.67  4.7369151E-02
   7116.00  4.2704144E-02
   7116.33  4.0096372E-02
   7116.67  3.8490139E-02
   7117.00  3.7525403E-02
   7117.33  3.6971746E-02
   7117.67  3.6577496E-02
   7118.00  3.6340788E-02
   7118.33  3.6481927E-02
   7118.67  3.7143696E-02
   7119.00  3.8425340E-02
   7119.33  4.0497102E-02
   7119.67  4.3364288E-02
   7120.00  4.7137854E-02
   7120.33  5.2125134E-02
   7120.67  5.8388281E-02
   7121.00  6.6092021E-02
   7121.33  7.5632325E-02
   7121.67  8.7063758E-02
   7122.00  1.0067029E-01
   7122.33  1.1687053E-01
   7122.67  1.3480087E-01
   7123.00  1.5332666E-01
   7123.33  1.7167956E-01
   7123.67  1.9144332E-01
   7124.00  2.1449800E-01
   7124.33  2.4196436E-01
   7124.67  2.7344951E-01
   7125.00  3.1026028E-01
   7125.33  3.5490336E-01
   7125.67  4.0380938E-01
   7126.00  4.4912764E-01
   7126.33  4.8031713E-01
   7126.67  5.0289401E-01
   7127.00  5.2818484E-01
   7127.33  5.6559161E-01
   7127.67  6.1244646E-01
   7128.00  6.6262038E-01
   7128.33  7.0404260E-01
   7128.67  7.2735043E-01
   7129.00  7.3492338E-01
   7129.33  7.4122018E-01
   7129.67  7.5490113E-01
   7130.00  7.7352860E-01
   7130.33  7.8682457E-01
   7130.67  7.8445347E-01
   7131.00  7.6571533E-01
   7131.33  7.4219229E-01
   7131.67  7.2738290E-01
   7132.00  7.2623793E-01
   7132.33  7.3980750E-01
   7132.67  7.6176893E-01
   7133.00  7.8633591E-01
   7133.33  8.0653515E-01
   7133.67  8.2079924E-01
   7134.00  8.3267445E-01
   7134.33  8.4690144E-01
   7134.67  8.6163371E-01
   7135.00  8.7279669E-01
   7135.33  8.7645940E-01
   7135.67  8.7314054E-01
   7136.00  8.6398432E-01
   7136.33  8.5019531E-01
   7136.67  8.3361286E-01
   7137.00  8.1489400E-01
   7137.33  7.9428585E-01
   7137.67  7.7249825E-01
   7138.00  7.5016360E-01
   7138.33  7.2823518E-01
   7138.67  7.0754337E-01
   7139.00  6.8867195E-01
   7139.33  6.7233338E-01
   7139.67  6.5843784E-01
   7140.00  6.4698894E-01
   7140.33  6.3809030E-01
   7140.67  6.3106244E-01
   7141.00  6.2539692E-01
   7141.33  6.2047187E-01
   7141.67  6.1556801E-01
   7142.00  6.1035157E-01
   7142.33  6.0471759E-01
   7142.67  5.9894640E-01
   7143.00  5.9335683E-01
   7143.33  5.8838565E-01
   7143.67  5.8424425E-01
   7144.00  5.8107718E-01
   7144.33  5.7910151E-01
   7144.67  5.7820401E-01
   7145.00  5.7835140E-01
   7145.33  5.7956207E-01
   7145.67  5.8155869E-01
   7146.00  5.8416821E-01
   7146.33  5.8720060E-01
   7146.67  5.9036092E-01
   7147.00  5.9346216E-01
   7147.33  5.9628180E-01
   7147.67  5.9867764E-01
   7148.00  6.0050611E-01
   7148.33  6.0150219E-01
   7148.67  6.0161349E-01
   7149.00  6.0076562E-01
   7149.33  5.9878797E-01
   7149.67  5.9580752E-01
   7150.00  5.9186954E-01
   7150.33  5.8693880E-01
   7150.67  5.8120375E-01
   7151.00  5.7472948E-01
   7151.33  5.6749422E-01
   7151.67  5.5959909E-01
   7152.00  5.5100582E-01
   7152.33  5.4151344E-01
   7152.67  5.3108490E-01
   7153.00  5.1960715E-01
   7153.33  5.0685499E-01
   7153.67  4.9297604E-01
   7154.00  4.7807173E-01
   7154.33  4.6227177E-01
   7154.67  4.4599184E-01
   7155.00  4.2953901E-01
   7155.33  4.1329103E-01
   7155.67  3.9754062E-01
   7156.00  3.8250967E-01
   7156.33  3.6850645E-01
   7156.67  3.5554391E-01
   7157.00  3.4368350E-01
   7157.33  3.3309368E-01
   7157.67  3.2362522E-01
   7158.00  3.1525057E-01
   7158.33  3.0804876E-01
   7158.67  3.0182082E-01
   7159.00  2.9649708E-01
   7159.33  2.9209091E-01
   7159.67  2.8841188E-01
   7160.00  2.8539115E-01
   7160.33  2.8303642E-01
   7160.67  2.8122580E-01
   7161.00  2.7993070E-01
   7161.33  2.7918789E-01
   7161.67  2.7891771E-01
   7162.00  2.7911093E-01
   7162.33  2.7982264E-01
   7162.67  2.8099769E-01
   7163.00  2.8263618E-01
   7163.33  2.8478599E-01
   7163.67  2.8737660E-01
   7164.00  2.9039070E-01
   7164.33  2.9384289E-01
   7164.67  2.9763218E-01
   7165.00  3.0169952E-01
   7165.33  3.0598904E-01
   7165.67  3.1039090E-01
   7166.00  3.1483607E-01
   7166.33  3.1925448E-01
   7166.67  3.2360190E-01
   7167.00  3.2785543E-01
   7167.33  3.3199337E-01
   7167.67  3.3603195E-01
   7168.00  3.3997959E-01
   7168.33  3.4383909E-01
   7168.67  3.4763161E-01
   7169.00  3.5136389E-01
   7169.33  3.5503333E-01
   7169.67  3.5864759E-01
   7170.00  3.6220374E-01
   7170.33  3.6568424E-01
   7170.67  3.6907818E-01
   7171.00  3.7235464E-01
   7171.33  3.7542227E-01
   7171.67  3.7817111E-01
   7172.00  3.8042210E-01
