    FDMNES
    energy     <xanes>
   7097.00  4.4415864E-03
   7097.33  4.5376131E-03
   7097.67  4.6377059E-03
   7098.00  4.7421342E-03
   7098.33  4.8518299E-03
   7098.67  4.9665948E-03
   7099.00  5.0867973E-03
   7099.33  5.2136563E-03
   7099.67  5.3469724E-03
   7100.00  5.4872650E-03
   7100.33  5.6361743E-03
   7100.67  5.7935220E-03
   7101.00  5.9600658E-03
   7101.33  6.1380904E-03
   7101.67  6.3274874E-03
   7102.00  6.5294087E-03
   7102.33  6.7471705E-03
   7102.67  6.9808445E-03
   7103.00  7.2322684E-03
   7103.33  7.5065056E-03
   7103.67  7.8040608E-03
   7104.00  8.1280459E-03
   7104.33  8.4866928E-03
   7104.67  8.8815538E-03
   7105.00  9.3183076E-03
   7105.33  9.8114456E-03
   7105.67  1.0365197E-02
   7106.00  1.0990967E-02
   7106.33  1.1717072E-02
   7106.67  1.2555268E-02
   7107.00  1.3531618E-02
   7107.33  1.4709928E-02
   7107.67  1.6126574E-02
   7108.00  1.7853054E-02
   7108.33  2.0066209E-02
   7108.67  2.2904206E-02
   7109.00  2.6625862E-02
   7109.33  3.1908392E-02
   7109.67  3.9499691E-02
   7110.00  5.0853712E-02
   7110.33  7.0211909E-02
   7110.67  1.0325875E-01
   7111.00  1.5731510E-01
   7111.33  2.2718598E-01
   7111.67  2.6119316E-01
   7112.00  2.4399168E-01
   7112.33  2.3000088E-01
   7112.67  2.3115263E-01
   7113.00  2.3094403E-01
   7113.33  2.2013086E-01
   7113.67  1.9595340E-01
   7114.00  1.5575510E-01
   7114.33  1.1961115E-01
   7114.67  9.9422619E-02
   7115.00  9.2757496E-02
   7115.33  8.9621684E-02
   7115.67  8.0197356E-02
   7116.00  6.7727411E-02
   7116.33  5.8534689E-02
   7116.67  5.2872725E-02
   7117.00  4.9749967E-02
   7117.33  4.8349351E-02
   7117.67  4.7824370E-02
   7118.00  4.7859929E-02
   7118.33  4.8331279E-02
   7118.67  4.9123833E-02
   7119.00  5.0243566E-02
   7119.33  5.1826308E-02
   7119.67  5.3980593E-02
   7120.00  5.6883930E-02
   7120.33  6.0878686E-02
   7120.67  6.6058608E-02
   7121.00  7.2587153E-02
   7121.33  8.0751492E-02
   7121.67  9.0281277E-02
   7122.00  1.0094622E-01
   7122.33  1.1263173E-01
   7122.67  1.2532095E-01
   7123.00  1.3952355E-01
   7123.33  1.5671465E-01
   7123.67  1.7808359E-01
   7124.00  2.0490643E-01
   7124.33  2.3877560E-01
   7124.67  2.7813459E-01
   7125.00  3.2090951E-01
   7125.33  3.6487342E-01
   7125.67  4.0927873E-01
   7126.00  4.5267610E-01
   7126.33  4.8585758E-01
   7126.67  5.0151443E-01
   7127.00  5.0393829E-01
   7127.33  5.0700174E-01
   7127.67  5.2101646E-01
   7128.00  5.4871537E-01
   7128.33  5.8933574E-01
   7128.67  6.3746180E-01
   7129.00  6.9090710E-01
   7129.33  7.5012972E-01
   7129.67  8.1567857E-01
   7130.00  8.8815943E-01
   7130.33  9.6706343E-01
   7130.67  1.0474262E+00
   7131.00  1.1227977E+00
   7131.33  1.1807384E+00
   7131.67  1.2116521E+00
   7132.00  1.2089128E+00
   7132.33  1.1701630E+00
   7132.67  1.1105503E+00
   7133.00  1.0418171E+00
   7133.33  9.7465486E-01
   7133.67  9.1471855E-01
   7134.00  8.6390060E-01
   7134.33  8.2293447E-01
   7134.67  7.8898873E-01
   7135.00  7.6051724E-01
   7135.33  7.3670490E-01
   7135.67  7.1616720E-01
   7136.00  6.9839111E-01
   7136.33  6.8320878E-01
   7136.67  6.6996333E-01
   7137.00  6.5839041E-01
   7137.33  6.4841621E-01
   7137.67  6.3966691E-01
   7138.00  6.3201315E-01
   7138.33  6.2546530E-01
   7138.67  6.1982177E-01
   7139.00  6.1503318E-01
   7139.33  6.1115604E-01
   7139.67  6.0804596E-01
   7140.00  6.0564492E-01
   7140.33  6.0389422E-01
   7140.67  6.0247126E-01
   7141.00  6.0102378E-01
   7141.33  5.9889105E-01
   7141.67  5.9548859E-01
   7142.00  5.9041794E-01
   7142.33  5.8357199E-01
   7142.67  5.7593731E-01
   7143.00  5.6846738E-01
   7143.33  5.6217871E-01
   7143.67  5.5734405E-01
   7144.00  5.5402207E-01
   7144.33  5.5232282E-01
   7144.67  5.5194314E-01
   7145.00  5.5275396E-01
   7145.33  5.5470772E-01
   7145.67  5.5748024E-01
   7146.00  5.6088516E-01
   7146.33  5.6473338E-01
   7146.67  5.6871419E-01
   7147.00  5.7258765E-01
   7147.33  5.7601547E-01
   7147.67  5.7876196E-01
   7148.00  5.8059814E-01
   7148.33  5.8115108E-01
   7148.67  5.8038786E-01
   7149.00  5.7820889E-01
   7149.33  5.7437559E-01
   7149.67  5.6908284E-01
   7150.00  5.6238857E-01
   7150.33  5.5424187E-01
   7150.67  5.4494739E-01
   7151.00  5.3464430E-01
   7151.33  5.2339771E-01
   7151.67  5.1148169E-01
   7152.00  4.9903675E-01
   7152.33  4.8617611E-01
   7152.67  4.7309764E-01
   7153.00  4.5991749E-01
   7153.33  4.4675978E-01
   7153.67  4.3373228E-01
   7154.00  4.2091964E-01
   7154.33  4.0844360E-01
   7154.67  3.9633585E-01
   7155.00  3.8464356E-01
   7155.33  3.7346133E-01
   7155.67  3.6275200E-01
   7156.00  3.5251980E-01
   7156.33  3.4281590E-01
   7156.67  3.3356509E-01
   7157.00  3.2474794E-01
   7157.33  3.1638777E-01
   7157.67  3.0840854E-01
   7158.00  3.0079762E-01
   7158.33  2.9360469E-01
   7158.67  2.8681230E-01
   7159.00  2.8046739E-01
   7159.33  2.7471142E-01
   7159.67  2.6956924E-01
   7160.00  2.6512092E-01
   7160.33  2.6154922E-01
   7160.67  2.5882497E-01
   7161.00  2.5698896E-01
   7161.33  2.5618201E-01
   7161.67  2.5629668E-01
   7162.00  2.5732454E-01
   7162.33  2.5934742E-01
   7162.67  2.6220516E-01
   7163.00  2.6584139E-01
   7163.33  2.7025925E-01
   7163.67  2.7527459E-01
   7164.00  2.8079544E-01
   7164.33  2.8675657E-01
   7164.67  2.9299152E-01
   7165.00  2.9940960E-01
   7165.33  3.0592890E-01
   7165.67  3.1245666E-01
   7166.00  3.1893380E-01
   7166.33  3.2529253E-01
   7166.67  3.3150604E-01
   7167.00  3.3755050E-01
   7167.33  3.4338628E-01
   7167.67  3.4903015E-01
   7168.00  3.5448287E-01
   7168.33  3.5972820E-01
   7168.67  3.6479961E-01
   7169.00  3.6970657E-01
   7169.33  3.7444247E-01
   7169.67  3.7903846E-01
   7170.00  3.8349976E-01
   7170.33  3.8780326E-01
   7170.67  3.9195051E-01
   7171.00  3.9591337E-01
   7171.33  3.9958935E-01
   7171.67  4.0286543E-01
   7172.00  4.0554481E-01
