    FDMNES
    energy     <xanes>
   7097.00  3.9546537E-03
   7097.33  4.0272600E-03
   7097.67  4.1024376E-03
   7098.00  4.1803345E-03
   7098.33  4.2615032E-03
   7098.67  4.3457898E-03
   7099.00  4.4333921E-03
   7099.33  4.5250125E-03
   7099.67  4.6204906E-03
   7100.00  4.7201000E-03
   7100.33  4.8247590E-03
   7100.67  4.9343117E-03
   7101.00  5.0491498E-03
   7101.33  5.1705177E-03
   7101.67  5.2982874E-03
   7102.00  5.4330456E-03
   7102.33  5.5765541E-03
   7102.67  5.7287667E-03
   7103.00  5.8906097E-03
   7103.33  6.0647173E-03
   7103.67  6.2512524E-03
   7104.00  6.4517751E-03
   7104.33  6.6705033E-03
   7104.67  6.9081230E-03
   7105.00  7.1674835E-03
   7105.33  7.4559550E-03
   7105.67  7.7755937E-03
   7106.00  8.1321708E-03
   7106.33  8.5401213E-03
   7106.67  9.0054522E-03
   7107.00  9.5415854E-03
   7107.33  1.0181538E-02
   7107.67  1.0944642E-02
   7108.00  1.1868861E-02
   7108.33  1.3048722E-02
   7108.67  1.4561288E-02
   7109.00  1.6551444E-02
   7109.33  1.9404399E-02
   7109.67  2.3569993E-02
   7110.00  2.9930863E-02
   7110.33  4.1010442E-02
   7110.67  5.9189851E-02
   7111.00  8.3755071E-02
   7111.33  1.0776698E-01
   7111.67  1.3047537E-01
   7112.00  1.4628684E-01
   7112.33  1.3645382E-01
   7112.67  1.0742492E-01
   7113.00  7.8867770E-02
   7113.33  6.0305322E-02
   7113.67  4.9068809E-02
   7114.00  4.3269880E-02
   7114.33  4.0766963E-02
   7114.67  3.7662325E-02
   7115.00  3.3672513E-02
   7115.33  3.0890476E-02
   7115.67  2.9466256E-02
   7116.00  2.9046812E-02
   7116.33  2.9399867E-02
   7116.67  3.0246717E-02
   7117.00  3.1505497E-02
   7117.33  3.3212289E-02
   7117.67  3.5346030E-02
   7118.00  3.7938435E-02
   7118.33  4.1103277E-02
   7118.67  4.4830074E-02
   7119.00  4.9039874E-02
   7119.33  5.3307822E-02
   7119.67  5.7061239E-02
   7120.00  6.0082892E-02
   7120.33  6.2435767E-02
   7120.67  6.4541642E-02
   7121.00  6.6696826E-02
   7121.33  6.9232363E-02
   7121.67  7.2431841E-02
   7122.00  7.6669880E-02
   7122.33  8.2688254E-02
   7122.67  9.0915563E-02
   7123.00  1.0193644E-01
   7123.33  1.1683898E-01
   7123.67  1.3562363E-01
   7124.00  1.5852398E-01
   7124.33  1.8733196E-01
   7124.67  2.2433098E-01
   7125.00  2.7270001E-01
   7125.33  3.3596020E-01
   7125.67  4.0773757E-01
   7126.00  4.7549295E-01
   7126.33  5.1865009E-01
   7126.67  5.3480827E-01
   7127.00  5.3165338E-01
   7127.33  5.1925813E-01
   7127.67  5.0734269E-01
   7128.00  5.0268559E-01
   7128.33  5.1288138E-01
   7128.67  5.3937284E-01
   7129.00  5.8401203E-01
   7129.33  6.5145587E-01
   7129.67  7.3974739E-01
   7130.00  8.4617192E-01
   7130.33  9.6364838E-01
   7130.67  1.0773067E+00
   7131.00  1.1718934E+00
   7131.33  1.2247523E+00
   7131.67  1.2318142E+00
   7132.00  1.1975169E+00
   7132.33  1.1312841E+00
   7132.67  1.0506407E+00
   7133.00  9.6612506E-01
   7133.33  8.8751620E-01
   7133.67  8.1937946E-01
   7134.00  7.6384626E-01
   7134.33  7.2300727E-01
   7134.67  6.9348133E-01
   7135.00  6.7259531E-01
   7135.33  6.5799592E-01
   7135.67  6.4675973E-01
   7136.00  6.3763183E-01
   7136.33  6.2983884E-01
   7136.67  6.2273016E-01
   7137.00  6.1612099E-01
   7137.33  6.1004745E-01
   7137.67  6.0454221E-01
   7138.00  5.9972224E-01
   7138.33  5.9583511E-01
   7138.67  5.9291373E-01
   7139.00  5.9106402E-01
   7139.33  5.9054124E-01
   7139.67  5.9129404E-01
   7140.00  5.9340818E-01
   7140.33  5.9719820E-01
   7140.67  6.0265935E-01
   7141.00  6.0999438E-01
   7141.33  6.1973560E-01
   7141.67  6.3183973E-01
   7142.00  6.4637942E-01
   7142.33  6.6344788E-01
   7142.67  6.8215247E-01
   7143.00  7.0162370E-01
   7143.33  7.2052479E-01
   7143.67  7.3760734E-01
   7144.00  7.5187391E-01
   7144.33  7.6196178E-01
   7144.67  7.6778282E-01
   7145.00  7.6911587E-01
   7145.33  7.6534835E-01
   7145.67  7.5717642E-01
   7146.00  7.4486187E-01
   7146.33  7.2847422E-01
   7146.67  7.0921503E-01
   7147.00  6.8784142E-01
   7147.33  6.6508726E-01
   7147.67  6.4188197E-01
   7148.00  6.1874978E-01
   7148.33  5.9618738E-01
   7148.67  5.7439766E-01
   7149.00  5.5350734E-01
   7149.33  5.3370859E-01
   7149.67  5.1489965E-01
   7150.00  4.9706732E-01
   7150.33  4.8030911E-01
   7150.67  4.6451885E-01
   7151.00  4.4970868E-01
   7151.33  4.3598657E-01
   7151.67  4.2319182E-01
   7152.00  4.1127199E-01
   7152.33  4.0027217E-01
   7152.67  3.9004070E-01
   7153.00  3.8053559E-01
   7153.33  3.7178502E-01
   7153.67  3.6363796E-01
   7154.00  3.5602720E-01
   7154.33  3.4892160E-01
   7154.67  3.4217317E-01
   7155.00  3.3570639E-01
   7155.33  3.2947467E-01
   7155.67  3.2341002E-01
   7156.00  3.1751105E-01
   7156.33  3.1184820E-01
   7156.67  3.0648680E-01
   7157.00  3.0153433E-01
   7157.33  2.9719881E-01
   7157.67  2.9354000E-01
   7158.00  2.9063572E-01
   7158.33  2.8860780E-01
   7158.67  2.8728634E-01
   7159.00  2.8652034E-01
   7159.33  2.8607951E-01
   7159.67  2.8562242E-01
   7160.00  2.8493451E-01
   7160.33  2.8388380E-01
   7160.67  2.8264548E-01
   7161.00  2.8149451E-01
   7161.33  2.8088742E-01
   7161.67  2.8111117E-01
   7162.00  2.8235896E-01
   7162.33  2.8484566E-01
   7162.67  2.8839035E-01
   7163.00  2.9289557E-01
   7163.33  2.9831248E-01
   7163.67  3.0439088E-01
   7164.00  3.1101883E-01
   7164.33  3.1813788E-01
   7164.67  3.2559589E-01
   7165.00  3.3331778E-01
   7165.33  3.4124598E-01
   7165.67  3.4928023E-01
   7166.00  3.5735080E-01
   7166.33  3.6537067E-01
   7166.67  3.7327262E-01
   7167.00  3.8099929E-01
   7167.33  3.8846137E-01
   7167.67  3.9563846E-01
   7168.00  4.0249827E-01
   7168.33  4.0897614E-01
   7168.67  4.1510965E-01
   7169.00  4.2090745E-01
   7169.33  4.2635221E-01
   7169.67  4.3151111E-01
   7170.00  4.3640683E-01
   7170.33  4.4102579E-01
   7170.67  4.4539678E-01
   7171.00  4.4949695E-01
   7171.33  4.5322211E-01
   7171.67  4.5648946E-01
   7172.00  4.5913760E-01
