    FDMNES
    energy     <xanes>
   7097.00  4.7180754E-03
   7097.33  4.8178915E-03
   7097.67  4.9217401E-03
   7098.00  5.0298686E-03
   7098.33  5.1431681E-03
   7098.67  5.2614142E-03
   7099.00  5.3849374E-03
   7099.33  5.5148768E-03
   7099.67  5.6509955E-03
   7100.00  5.7937470E-03
   7100.33  5.9446242E-03
   7100.67  6.1033907E-03
   7101.00  6.2706879E-03
   7101.33  6.4485326E-03
   7101.67  6.6367191E-03
   7102.00  6.8361896E-03
   7102.33  7.0497701E-03
   7102.67  7.2773547E-03
   7103.00  7.5203917E-03
   7103.33  7.7830260E-03
   7103.67  8.0654112E-03
   7104.00  8.3699024E-03
   7104.33  8.7029397E-03
   7104.67  9.0653219E-03
   7105.00  9.4611611E-03
   7105.33  9.9012413E-03
   7105.67  1.0388010E-02
   7106.00  1.0929348E-02
   7106.33  1.1545210E-02
   7106.67  1.2242621E-02
   7107.00  1.3038724E-02
   7107.33  1.3975963E-02
   7107.67  1.5076050E-02
   7108.00  1.6383748E-02
   7108.33  1.8010160E-02
   7108.67  2.0036678E-02
   7109.00  2.2618802E-02
   7109.33  2.6163631E-02
   7109.67  3.1110386E-02
   7110.00  3.8317860E-02
   7110.33  5.0238253E-02
   7110.67  6.9486916E-02
   7111.00  9.6977654E-02
   7111.33  1.2618871E-01
   7111.67  1.5222578E-01
   7112.00  1.7692974E-01
   7112.33  2.0184735E-01
   7112.67  2.2150020E-01
   7113.00  2.2631675E-01
   7113.33  2.1252630E-01
   7113.67  1.9549282E-01
   7114.00  1.8108566E-01
   7114.33  1.5725941E-01
   7114.67  1.2877451E-01
   7115.00  1.0671922E-01
   7115.33  9.4800649E-02
   7115.67  8.9721430E-02
   7116.00  8.9864273E-02
   7116.33  9.4867272E-02
   7116.67  1.0434947E-01
   7117.00  1.1925492E-01
   7117.33  1.4193988E-01
   7117.67  1.7001947E-01
   7118.00  1.9470106E-01
   7118.33  2.0152181E-01
   7118.67  1.9734347E-01
   7119.00  1.9433816E-01
   7119.33  2.0050287E-01
   7119.67  2.1500611E-01
   7120.00  2.3618811E-01
   7120.33  2.6239555E-01
   7120.67  2.9026441E-01
   7121.00  3.1584653E-01
   7121.33  3.3364083E-01
   7121.67  3.4441842E-01
   7122.00  3.5099432E-01
   7122.33  3.5627932E-01
   7122.67  3.6214000E-01
   7123.00  3.6883968E-01
   7123.33  3.7548350E-01
   7123.67  3.8184515E-01
   7124.00  3.9040914E-01
   7124.33  4.0761636E-01
   7124.67  4.3622826E-01
   7125.00  4.7433858E-01
   7125.33  5.1377433E-01
   7125.67  5.4613027E-01
   7126.00  5.7003385E-01
   7126.33  5.8949587E-01
   7126.67  6.0961664E-01
   7127.00  6.3063126E-01
   7127.33  6.5025268E-01
   7127.67  6.6831487E-01
   7128.00  6.8555431E-01
   7128.33  6.9994933E-01
   7128.67  7.0688105E-01
   7129.00  7.0302914E-01
   7129.33  6.8851768E-01
   7129.67  6.6917421E-01
   7130.00  6.4824715E-01
   7130.33  6.2773998E-01
   7130.67  6.0872000E-01
   7131.00  5.9200913E-01
   7131.33  5.7864412E-01
   7131.67  5.6852815E-01
   7132.00  5.6180903E-01
   7132.33  5.5915947E-01
   7132.67  5.6008574E-01
   7133.00  5.6407982E-01
   7133.33  5.7051198E-01
   7133.67  5.7860600E-01
   7134.00  5.8848064E-01
   7134.33  6.0050141E-01
   7134.67  6.1396525E-01
   7135.00  6.2810197E-01
   7135.33  6.4183219E-01
   7135.67  6.5402733E-01
   7136.00  6.6344184E-01
   7136.33  6.6788240E-01
   7136.67  6.6655397E-01
   7137.00  6.5902400E-01
   7137.33  6.4535144E-01
   7137.67  6.2828595E-01
   7138.00  6.1020298E-01
   7138.33  5.9374282E-01
   7138.67  5.7998576E-01
   7139.00  5.6900855E-01
   7139.33  5.6074018E-01
   7139.67  5.5458239E-01
   7140.00  5.5037786E-01
   7140.33  5.4814307E-01
   7140.67  5.4740307E-01
   7141.00  5.4791438E-01
   7141.33  5.4945667E-01
   7141.67  5.5145067E-01
   7142.00  5.5337761E-01
   7142.33  5.5452078E-01
   7142.67  5.5451301E-01
   7143.00  5.5321498E-01
   7143.33  5.5057929E-01
   7143.67  5.4700861E-01
   7144.00  5.4273827E-01
   7144.33  5.3793125E-01
   7144.67  5.3278875E-01
   7145.00  5.2736594E-01
   7145.33  5.2163928E-01
   7145.67  5.1562430E-01
   7146.00  5.0930218E-01
   7146.33  5.0262236E-01
   7146.67  4.9563310E-01
   7147.00  4.8835227E-01
   7147.33  4.8075523E-01
   7147.67  4.7286421E-01
   7148.00  4.6465127E-01
   7148.33  4.5602482E-01
   7148.67  4.4699002E-01
   7149.00  4.3754811E-01
   7149.33  4.2773295E-01
   7149.67  4.1775287E-01
   7150.00  4.0781753E-01
   7150.33  3.9825486E-01
   7150.67  3.8930862E-01
   7151.00  3.8119124E-01
   7151.33  3.7420425E-01
   7151.67  3.6830233E-01
   7152.00  3.6348677E-01
   7152.33  3.5983770E-01
   7152.67  3.5715201E-01
   7153.00  3.5536486E-01
   7153.33  3.5451052E-01
   7153.67  3.5441698E-01
   7154.00  3.5501761E-01
   7154.33  3.5629534E-01
   7154.67  3.5807162E-01
   7155.00  3.6025690E-01
   7155.33  3.6279423E-01
   7155.67  3.6556223E-01
   7156.00  3.6850217E-01
   7156.33  3.7157082E-01
   7156.67  3.7470326E-01
   7157.00  3.7785940E-01
   7157.33  3.8099415E-01
   7157.67  3.8407437E-01
   7158.00  3.8707961E-01
   7158.33  3.8999195E-01
   7158.67  3.9283224E-01
   7159.00  3.9562188E-01
   7159.33  3.9839014E-01
   7159.67  4.0116962E-01
   7160.00  4.0398163E-01
   7160.33  4.0684547E-01
   7160.67  4.0975616E-01
   7161.00  4.1270376E-01
   7161.33  4.1567057E-01
   7161.67  4.1863976E-01
   7162.00  4.2161240E-01
   7162.33  4.2461236E-01
   7162.67  4.2767302E-01
   7163.00  4.3082929E-01
   7163.33  4.3413085E-01
   7163.67  4.3757860E-01
   7164.00  4.4117110E-01
   7164.33  4.4490578E-01
   7164.67  4.4873676E-01
   7165.00  4.5263454E-01
   7165.33  4.5657128E-01
   7165.67  4.6051789E-01
   7166.00  4.6446125E-01
   7166.33  4.6839462E-01
   7166.67  4.7232126E-01
   7167.00  4.7624608E-01
   7167.33  4.8017377E-01
   7167.67  4.8410199E-01
   7168.00  4.8802073E-01
   7168.33  4.9190183E-01
   7168.67  4.9571153E-01
   7169.00  4.9940848E-01
   7169.33  5.0291893E-01
   7169.67  5.0621134E-01
   7170.00  5.0924631E-01
   7170.33  5.1195243E-01
   7170.67  5.1434440E-01
   7171.00  5.1641198E-01
   7171.33  5.1810864E-01
   7171.67  5.1947708E-01
   7172.00  5.2052744E-01
