    FDMNES
    energy     <xanes>
   7097.00  5.1529463E-03
   7097.33  5.2718155E-03
   7097.67  5.3958965E-03
   7098.00  5.5255267E-03
   7098.33  5.6618865E-03
   7098.67  5.8047073E-03
   7099.00  5.9544422E-03
   7099.33  6.1126131E-03
   7099.67  6.2789358E-03
   7100.00  6.4540327E-03
   7100.33  6.6399119E-03
   7100.67  6.8362891E-03
   7101.00  7.0440432E-03
   7101.33  7.2658960E-03
   7101.67  7.5015992E-03
   7102.00  7.7524347E-03
   7102.33  8.0222127E-03
   7102.67  8.3108009E-03
   7103.00  8.6201434E-03
   7103.33  8.9557867E-03
   7103.67  9.3178945E-03
   7104.00  9.7095588E-03
   7104.33  1.0139256E-02
   7104.67  1.0607865E-02
   7105.00  1.1120609E-02
   7105.33  1.1691274E-02
   7105.67  1.2322498E-02
   7106.00  1.3023827E-02
   7106.33  1.3819628E-02
   7106.67  1.4717182E-02
   7107.00  1.5735949E-02
   7107.33  1.6924376E-02
   7107.67  1.8303754E-02
   7108.00  1.9920732E-02
   7108.33  2.1890913E-02
   7108.67  2.4288718E-02
   7109.00  2.7260508E-02
   7109.33  3.1185186E-02
   7109.67  3.6437312E-02
   7110.00  4.3750684E-02
   7110.33  5.5149902E-02
   7110.67  7.2254270E-02
   7111.00  9.4186115E-02
   7111.33  1.1908724E-01
   7111.67  1.5293102E-01
   7112.00  1.9173441E-01
   7112.33  2.2786454E-01
   7112.67  2.7291911E-01
   7113.00  3.2073479E-01
   7113.33  3.5875292E-01
   7113.67  3.9745090E-01
   7114.00  4.5227129E-01
   7114.33  5.1388878E-01
   7114.67  5.3148338E-01
   7115.00  4.9229532E-01
   7115.33  4.2711456E-01
   7115.67  3.6469312E-01
   7116.00  3.1422394E-01
   7116.33  2.8102995E-01
   7116.67  2.6174812E-01
   7117.00  2.5191325E-01
   7117.33  2.4220941E-01
   7117.67  2.2476314E-01
   7118.00  2.0156481E-01
   7118.33  1.8076816E-01
   7118.67  1.6590351E-01
   7119.00  1.5646078E-01
   7119.33  1.5060983E-01
   7119.67  1.4592926E-01
   7120.00  1.4171762E-01
   7120.33  1.3819337E-01
   7120.67  1.3569815E-01
   7121.00  1.3439838E-01
   7121.33  1.3430949E-01
   7121.67  1.3510652E-01
   7122.00  1.3683339E-01
   7122.33  1.3997572E-01
   7122.67  1.4475961E-01
   7123.00  1.5149166E-01
   7123.33  1.6082011E-01
   7123.67  1.7259672E-01
   7124.00  1.8660032E-01
   7124.33  2.0243030E-01
   7124.67  2.1915875E-01
   7125.00  2.3630386E-01
   7125.33  2.5370869E-01
   7125.67  2.7163436E-01
   7126.00  2.9067017E-01
   7126.33  3.1202184E-01
   7126.67  3.3641775E-01
   7127.00  3.6443902E-01
   7127.33  3.9642382E-01
   7127.67  4.3063464E-01
   7128.00  4.6525331E-01
   7128.33  4.9808576E-01
   7128.67  5.2824249E-01
   7129.00  5.5573329E-01
   7129.33  5.8097419E-01
   7129.67  6.0497318E-01
   7130.00  6.2828094E-01
   7130.33  6.5137842E-01
   7130.67  6.7473987E-01
   7131.00  6.9870133E-01
   7131.33  7.2346637E-01
   7131.67  7.4848843E-01
   7132.00  7.7292246E-01
   7132.33  7.9535089E-01
   7132.67  8.1499221E-01
   7133.00  8.3136665E-01
   7133.33  8.4390289E-01
   7133.67  8.5301848E-01
   7134.00  8.5854965E-01
   7134.33  8.5953905E-01
   7134.67  8.5600725E-01
   7135.00  8.4784165E-01
   7135.33  8.3500409E-01
   7135.67  8.1904410E-01
   7136.00  8.0098541E-01
   7136.33  7.8166031E-01
   7136.67  7.6174307E-01
   7137.00  7.4136086E-01
   7137.33  7.2042668E-01
   7137.67  6.9908656E-01
   7138.00  6.7768348E-01
   7138.33  6.5704378E-01
   7138.67  6.3800956E-01
   7139.00  6.2130709E-01
   7139.33  6.0785534E-01
   7139.67  5.9747048E-01
   7140.00  5.9002404E-01
   7140.33  5.8547896E-01
   7140.67  5.8311837E-01
   7141.00  5.8266081E-01
   7141.33  5.8405563E-01
   7141.67  5.8687190E-01
   7142.00  5.9088619E-01
   7142.33  5.9583894E-01
   7142.67  6.0111044E-01
   7143.00  6.0614912E-01
   7143.33  6.1015638E-01
   7143.67  6.1266052E-01
   7144.00  6.1334292E-01
   7144.33  6.1186464E-01
   7144.67  6.0862386E-01
   7145.00  6.0388443E-01
   7145.33  5.9785509E-01
   7145.67  5.9100232E-01
   7146.00  5.8355352E-01
   7146.33  5.7566749E-01
   7146.67  5.6755271E-01
   7147.00  5.5932427E-01
   7147.33  5.5110667E-01
   7147.67  5.4301768E-01
   7148.00  5.3515590E-01
   7148.33  5.2766872E-01
   7148.67  5.2060585E-01
   7149.00  5.1403160E-01
   7149.33  5.0807081E-01
   7149.67  5.0269473E-01
   7150.00  4.9792690E-01
   7150.33  4.9386490E-01
   7150.67  4.9044487E-01
   7151.00  4.8767868E-01
   7151.33  4.8566587E-01
   7151.67  4.8434226E-01
   7152.00  4.8372755E-01
   7152.33  4.8393304E-01
   7152.67  4.8487951E-01
   7153.00  4.8657256E-01
   7153.33  4.8910067E-01
   7153.67  4.9234734E-01
   7154.00  4.9627333E-01
   7154.33  5.0088624E-01
   7154.67  5.0601626E-01
   7155.00  5.1156508E-01
   7155.33  5.1743797E-01
   7155.67  5.2345703E-01
   7156.00  5.2949714E-01
   7156.33  5.3540142E-01
   7156.67  5.4105428E-01
   7157.00  5.4635679E-01
   7157.33  5.5115738E-01
   7157.67  5.5543896E-01
   7158.00  5.5915725E-01
   7158.33  5.6220606E-01
   7158.67  5.6464606E-01
   7159.00  5.6647691E-01
   7159.33  5.6763314E-01
   7159.67  5.6820568E-01
   7160.00  5.6821058E-01
   7160.33  5.6760115E-01
   7160.67  5.6647289E-01
   7161.00  5.6484865E-01
   7161.33  5.6269176E-01
   7161.67  5.6008430E-01
   7162.00  5.5704786E-01
   7162.33  5.5356053E-01
   7162.67  5.4970531E-01
   7163.00  5.4551518E-01
   7163.33  5.4099742E-01
   7163.67  5.3623689E-01
   7164.00  5.3127922E-01
   7164.33  5.2616378E-01
   7164.67  5.2096656E-01
   7165.00  5.1573779E-01
   7165.33  5.1054193E-01
   7165.67  5.0543742E-01
   7166.00  5.0047479E-01
   7166.33  4.9573252E-01
   7166.67  4.9123278E-01
   7167.00  4.8700792E-01
   7167.33  4.8312385E-01
   7167.67  4.7956067E-01
   7168.00  4.7632549E-01
   7168.33  4.7345630E-01
   7168.67  4.7089832E-01
   7169.00  4.6863165E-01
   7169.33  4.6665786E-01
   7169.67  4.6490727E-01
   7170.00  4.6334536E-01
   7170.33  4.6194905E-01
   7170.67  4.6065798E-01
   7171.00  4.5944429E-01
   7171.33  4.5830749E-01
   7171.67  4.5726773E-01
   7172.00  4.5638689E-01
