    FDMNES
    energy     <xanes>
   7097.00  4.6596636E-03
   7097.33  4.7587187E-03
   7097.67  4.8617760E-03
   7098.00  4.9690800E-03
   7098.33  5.0815133E-03
   7098.67  5.1988518E-03
   7099.00  5.3214214E-03
   7099.33  5.4503487E-03
   7099.67  5.5853957E-03
   7100.00  5.7270083E-03
   7100.33  5.8766593E-03
   7100.67  6.0341090E-03
   7101.00  6.1999858E-03
   7101.33  6.3762724E-03
   7101.67  6.5627552E-03
   7102.00  6.7603525E-03
   7102.33  6.9718303E-03
   7102.67  7.1970651E-03
   7103.00  7.4374594E-03
   7103.33  7.6970469E-03
   7103.67  7.9759414E-03
   7104.00  8.2764069E-03
   7104.33  8.6046650E-03
   7104.67  8.9614226E-03
   7105.00  9.3505991E-03
   7105.33  9.7825195E-03
   7105.67  1.0259407E-02
   7106.00  1.0788702E-02
   7106.33  1.1389310E-02
   7106.67  1.2067660E-02
   7107.00  1.2839770E-02
   7107.33  1.3745403E-02
   7107.67  1.4804438E-02
   7108.00  1.6058305E-02
   7108.33  1.7609953E-02
   7108.67  1.9533822E-02
   7109.00  2.1972773E-02
   7109.33  2.5300914E-02
   7109.67  2.9919926E-02
   7110.00  3.6616157E-02
   7110.33  4.7630836E-02
   7110.67  6.5303128E-02
   7111.00  9.0254549E-02
   7111.33  1.1633043E-01
   7111.67  1.4150571E-01
   7112.00  1.6968755E-01
   7112.33  1.9027846E-01
   7112.67  1.9546285E-01
   7113.00  1.8995981E-01
   7113.33  1.8664297E-01
   7113.67  1.8941634E-01
   7114.00  1.8979833E-01
   7114.33  1.7686503E-01
   7114.67  1.5904402E-01
   7115.00  1.4593506E-01
   7115.33  1.4153227E-01
   7115.67  1.4098384E-01
   7116.00  1.4251485E-01
   7116.33  1.4873474E-01
   7116.67  1.5793039E-01
   7117.00  1.6711392E-01
   7117.33  1.7651116E-01
   7117.67  1.9017617E-01
   7118.00  2.1070492E-01
   7118.33  2.3789518E-01
   7118.67  2.6646722E-01
   7119.00  2.9101072E-01
   7119.33  3.0476683E-01
   7119.67  3.0761456E-01
   7120.00  3.0195695E-01
   7120.33  2.9188947E-01
   7120.67  2.8219203E-01
   7121.00  2.7512613E-01
   7121.33  2.7201195E-01
   7121.67  2.7209789E-01
   7122.00  2.7474343E-01
   7122.33  2.7953452E-01
   7122.67  2.8602929E-01
   7123.00  2.9448315E-01
   7123.33  3.0558050E-01
   7123.67  3.1854459E-01
   7124.00  3.3219286E-01
   7124.33  3.4606405E-01
   7124.67  3.6088466E-01
   7125.00  3.7733089E-01
   7125.33  3.9616180E-01
   7125.67  4.1758549E-01
   7126.00  4.4192072E-01
   7126.33  4.6839386E-01
   7126.67  4.9363833E-01
   7127.00  5.1465322E-01
   7127.33  5.2930663E-01
   7127.67  5.3929724E-01
   7128.00  5.4599610E-01
   7128.33  5.5010406E-01
   7128.67  5.5225568E-01
   7129.00  5.5267373E-01
   7129.33  5.5194670E-01
   7129.67  5.5147472E-01
   7130.00  5.5243086E-01
   7130.33  5.5609711E-01
   7130.67  5.6256914E-01
   7131.00  5.7170342E-01
   7131.33  5.8302352E-01
   7131.67  5.9513743E-01
   7132.00  6.0701015E-01
   7132.33  6.1766810E-01
   7132.67  6.2690881E-01
   7133.00  6.3446855E-01
   7133.33  6.3934301E-01
   7133.67  6.4124781E-01
   7134.00  6.4043817E-01
   7134.33  6.3784612E-01
   7134.67  6.3500622E-01
   7135.00  6.3280175E-01
   7135.33  6.3194742E-01
   7135.67  6.3229574E-01
   7136.00  6.3343562E-01
   7136.33  6.3465695E-01
   7136.67  6.3527998E-01
   7137.00  6.3493553E-01
   7137.33  6.3335119E-01
   7137.67  6.3078317E-01
   7138.00  6.2743739E-01
   7138.33  6.2349256E-01
   7138.67  6.1919981E-01
   7139.00  6.1466757E-01
   7139.33  6.0999294E-01
   7139.67  6.0534054E-01
   7140.00  6.0087774E-01
   7140.33  5.9686880E-01
   7140.67  5.9347572E-01
   7141.00  5.9086639E-01
   7141.33  5.8931555E-01
   7141.67  5.8880463E-01
   7142.00  5.8936351E-01
   7142.33  5.9108518E-01
   7142.67  5.9372784E-01
   7143.00  5.9714224E-01
   7143.33  6.0118161E-01
   7143.67  6.0553298E-01
   7144.00  6.0997102E-01
   7144.33  6.1418073E-01
   7144.67  6.1785456E-01
   7145.00  6.2066812E-01
   7145.33  6.2206172E-01
   7145.67  6.2182454E-01
   7146.00  6.1972819E-01
   7146.33  6.1544128E-01
   7146.67  6.0936277E-01
   7147.00  6.0181494E-01
   7147.33  5.9318217E-01
   7147.67  5.8409539E-01
   7148.00  5.7493934E-01
   7148.33  5.6610414E-01
   7148.67  5.5778498E-01
   7149.00  5.5008011E-01
   7149.33  5.4309209E-01
   7149.67  5.3670241E-01
   7150.00  5.3085707E-01
   7150.33  5.2554905E-01
   7150.67  5.2065949E-01
   7151.00  5.1614757E-01
   7151.33  5.1201769E-01
   7151.67  5.0819460E-01
   7152.00  5.0465053E-01
   7152.33  5.0137820E-01
   7152.67  4.9829947E-01
   7153.00  4.9536928E-01
   7153.33  4.9254791E-01
   7153.67  4.8976985E-01
   7154.00  4.8698586E-01
   7154.33  4.8413329E-01
   7154.67  4.8117170E-01
   7155.00  4.7806656E-01
   7155.33  4.7476685E-01
   7155.67  4.7128013E-01
   7156.00  4.6760876E-01
   7156.33  4.6375276E-01
   7156.67  4.5977188E-01
   7157.00  4.5571253E-01
   7157.33  4.5163671E-01
   7157.67  4.4761571E-01
   7158.00  4.4370879E-01
   7158.33  4.4000107E-01
   7158.67  4.3652248E-01
   7159.00  4.3330713E-01
   7159.33  4.3041823E-01
   7159.67  4.2783344E-01
   7160.00  4.2555676E-01
   7160.33  4.2362446E-01
   7160.67  4.2199464E-01
   7161.00  4.2066682E-01
   7161.33  4.1968612E-01
   7161.67  4.1903239E-01
   7162.00  4.1872784E-01
   7162.33  4.1884631E-01
   7162.67  4.1936411E-01
   7163.00  4.2029550E-01
   7163.33  4.2169663E-01
   7163.67  4.2350058E-01
   7164.00  4.2567725E-01
   7164.33  4.2821316E-01
   7164.67  4.3100036E-01
   7165.00  4.3397241E-01
   7165.33  4.3706053E-01
   7165.67  4.4017122E-01
   7166.00  4.4323985E-01
   7166.33  4.4618639E-01
   7166.67  4.4896946E-01
   7167.00  4.5155205E-01
   7167.33  4.5387544E-01
   7167.67  4.5595264E-01
   7168.00  4.5778068E-01
   7168.33  4.5933709E-01
   7168.67  4.6066914E-01
   7169.00  4.6179649E-01
   7169.33  4.6272354E-01
   7169.67  4.6350064E-01
   7170.00  4.6415102E-01
   7170.33  4.6468572E-01
   7170.67  4.6513657E-01
   7171.00  4.6551553E-01
   7171.33  4.6582407E-01
   7171.67  4.6607554E-01
   7172.00  4.6627371E-01
