    FDMNES
    energy     <xanes>
   7097.00  4.7040360E-03
   7097.33  4.8055495E-03
   7097.67  4.9111491E-03
   7098.00  5.0210790E-03
   7098.33  5.1362305E-03
   7098.67  5.2563663E-03
   7099.00  5.3818088E-03
   7099.33  5.5136868E-03
   7099.67  5.6517450E-03
   7100.00  5.7964192E-03
   7100.33  5.9491712E-03
   7100.67  6.1097367E-03
   7101.00  6.2787215E-03
   7101.33  6.4580699E-03
   7101.67  6.6475306E-03
   7102.00  6.8479750E-03
   7102.33  7.0620752E-03
   7102.67  7.2896440E-03
   7103.00  7.5319880E-03
   7103.33  7.7929325E-03
   7103.67  8.0724731E-03
   7104.00  8.3726729E-03
   7104.33  8.6993007E-03
   7104.67  9.0528197E-03
   7105.00  9.4367105E-03
   7105.33  9.8602880E-03
   7105.67  1.0325213E-02
   7106.00  1.0837896E-02
   7106.33  1.1414839E-02
   7106.67  1.2060983E-02
   7107.00  1.2789655E-02
   7107.33  1.3634194E-02
   7107.67  1.4609807E-02
   7108.00  1.5749517E-02
   7108.33  1.7135456E-02
   7108.67  1.8822945E-02
   7109.00  2.0919695E-02
   7109.33  2.3705016E-02
   7109.67  2.7461264E-02
   7110.00  3.2739140E-02
   7110.33  4.1107108E-02
   7110.67  5.4414033E-02
   7111.00  7.4485849E-02
   7111.33  1.0061941E-01
   7111.67  1.2548265E-01
   7112.00  1.4282869E-01
   7112.33  1.5110625E-01
   7112.67  1.5832608E-01
   7113.00  1.7055658E-01
   7113.33  1.8277130E-01
   7113.67  1.8842373E-01
   7114.00  1.9034819E-01
   7114.33  1.8671005E-01
   7114.67  1.8082657E-01
   7115.00  1.7559003E-01
   7115.33  1.7726205E-01
   7115.67  1.9063808E-01
   7116.00  2.1332727E-01
   7116.33  2.3256540E-01
   7116.67  2.4387869E-01
   7117.00  2.5615642E-01
   7117.33  2.6976106E-01
   7117.67  2.6896965E-01
   7118.00  2.5273146E-01
   7118.33  2.3883226E-01
   7118.67  2.3906557E-01
   7119.00  2.5575857E-01
   7119.33  2.9028372E-01
   7119.67  3.3796949E-01
   7120.00  3.9362865E-01
   7120.33  4.4598232E-01
   7120.67  4.7636914E-01
   7121.00  4.7024249E-01
   7121.33  4.3390849E-01
   7121.67  3.9624491E-01
   7122.00  3.7067344E-01
   7122.33  3.6267632E-01
   7122.67  3.6647922E-01
   7123.00  3.7669202E-01
   7123.33  3.8757105E-01
   7123.67  3.9506152E-01
   7124.00  3.9769944E-01
   7124.33  3.9633643E-01
   7124.67  3.9452649E-01
   7125.00  3.9359881E-01
   7125.33  3.9310459E-01
   7125.67  3.9269248E-01
   7126.00  3.9377517E-01
   7126.33  3.9816687E-01
   7126.67  4.0388073E-01
   7127.00  4.0814174E-01
   7127.33  4.0892570E-01
   7127.67  4.0790688E-01
   7128.00  4.0775426E-01
   7128.33  4.1231611E-01
   7128.67  4.2342324E-01
   7129.00  4.4180452E-01
   7129.33  4.6738301E-01
   7129.67  4.9626841E-01
   7130.00  5.2438823E-01
   7130.33  5.4665895E-01
   7130.67  5.6133384E-01
   7131.00  5.6813293E-01
   7131.33  5.6739385E-01
   7131.67  5.6219391E-01
   7132.00  5.5471346E-01
   7132.33  5.4672224E-01
   7132.67  5.3956606E-01
   7133.00  5.3447078E-01
   7133.33  5.3303577E-01
   7133.67  5.3545688E-01
   7134.00  5.4189348E-01
   7134.33  5.5281821E-01
   7134.67  5.6737874E-01
   7135.00  5.8484431E-01
   7135.33  6.0438507E-01
   7135.67  6.2525729E-01
   7136.00  6.4762647E-01
   7136.33  6.7160387E-01
   7136.67  6.9572947E-01
   7137.00  7.1810585E-01
   7137.33  7.3608208E-01
   7137.67  7.4888911E-01
   7138.00  7.5634821E-01
   7138.33  7.5832672E-01
   7138.67  7.5611334E-01
   7139.00  7.5018310E-01
   7139.33  7.4050623E-01
   7139.67  7.2784998E-01
   7140.00  7.1261914E-01
   7140.33  6.9519884E-01
   7140.67  6.7654560E-01
   7141.00  6.5726681E-01
   7141.33  6.3803049E-01
   7141.67  6.1944565E-01
   7142.00  6.0198220E-01
   7142.33  5.8624045E-01
   7142.67  5.7221063E-01
   7143.00  5.5985034E-01
   7143.33  5.4911006E-01
   7143.67  5.3947812E-01
   7144.00  5.3065687E-01
   7144.33  5.2240111E-01
   7144.67  5.1441023E-01
   7145.00  5.0654328E-01
   7145.33  4.9870887E-01
   7145.67  4.9087490E-01
   7146.00  4.8306244E-01
   7146.33  4.7534808E-01
   7146.67  4.6781585E-01
   7147.00  4.6055319E-01
   7147.33  4.5369801E-01
   7147.67  4.4729283E-01
   7148.00  4.4141088E-01
   7148.33  4.3620475E-01
   7148.67  4.3166455E-01
   7149.00  4.2783467E-01
   7149.33  4.2484436E-01
   7149.67  4.2261617E-01
   7150.00  4.2114281E-01
   7150.33  4.2048009E-01
   7150.67  4.2047937E-01
   7151.00  4.2106588E-01
   7151.33  4.2217140E-01
   7151.67  4.2358116E-01
   7152.00  4.2514908E-01
   7152.33  4.2668944E-01
   7152.67  4.2802066E-01
   7153.00  4.2900189E-01
   7153.33  4.2944743E-01
   7153.67  4.2934399E-01
   7154.00  4.2868081E-01
   7154.33  4.2744115E-01
   7154.67  4.2578290E-01
   7155.00  4.2380848E-01
   7155.33  4.2161984E-01
   7155.67  4.1935600E-01
   7156.00  4.1709913E-01
   7156.33  4.1493131E-01
   7156.67  4.1289132E-01
   7157.00  4.1100666E-01
   7157.33  4.0931928E-01
   7157.67  4.0781784E-01
   7158.00  4.0650684E-01
   7158.33  4.0541324E-01
   7158.67  4.0451474E-01
   7159.00  4.0381253E-01
   7159.33  4.0333324E-01
   7159.67  4.0305519E-01
   7160.00  4.0298143E-01
   7160.33  4.0314007E-01
   7160.67  4.0350532E-01
   7161.00  4.0407577E-01
   7161.33  4.0487402E-01
   7161.67  4.0586858E-01
   7162.00  4.0704910E-01
   7162.33  4.0842312E-01
   7162.67  4.0995386E-01
   7163.00  4.1162497E-01
   7163.33  4.1342667E-01
   7163.67  4.1531599E-01
   7164.00  4.1726574E-01
   7164.33  4.1925029E-01
   7164.67  4.2124326E-01
   7165.00  4.2323047E-01
   7165.33  4.2520158E-01
   7165.67  4.2715881E-01
   7166.00  4.2910878E-01
   7166.33  4.3106572E-01
   7166.67  4.3304515E-01
   7167.00  4.3506065E-01
   7167.33  4.3713166E-01
   7167.67  4.3926036E-01
   7168.00  4.4144843E-01
   7168.33  4.4369810E-01
   7168.67  4.4599088E-01
   7169.00  4.4831102E-01
   7169.33  4.5063371E-01
   7169.67  4.5292667E-01
   7170.00  4.5515806E-01
   7170.33  4.5727520E-01
   7170.67  4.5924996E-01
   7171.00  4.6104807E-01
   7171.33  4.6260421E-01
   7171.67  4.6390620E-01
   7172.00  4.6492146E-01
