    FDMNES
    energy     <xanes>
   7097.00  5.5555733E-03
   7097.33  5.7051074E-03
   7097.67  5.8623051E-03
   7098.00  6.0277346E-03
   7098.33  6.2032534E-03
   7098.67  6.3885660E-03
   7099.00  6.5844616E-03
   7099.33  6.7934230E-03
   7099.67  7.0151654E-03
   7100.00  7.2508150E-03
   7100.33  7.5037809E-03
   7100.67  7.7738390E-03
   7101.00  8.0626471E-03
   7101.33  8.3750376E-03
   7101.67  8.7109551E-03
   7102.00  9.0729335E-03
   7102.33  9.4680859E-03
   7102.67  9.8967635E-03
   7103.00  1.0363016E-02
   7103.33  1.0877807E-02
   7103.67  1.1442432E-02
   7104.00  1.2063729E-02
   7104.33  1.2759587E-02
   7104.67  1.3533536E-02
   7105.00  1.4397947E-02
   7105.33  1.5384210E-02
   7105.67  1.6501436E-02
   7106.00  1.7774107E-02
   7106.33  1.9262836E-02
   7106.67  2.0992065E-02
   7107.00  2.3016478E-02
   7107.33  2.5469671E-02
   7107.67  2.8424823E-02
   7108.00  3.2027126E-02
   7108.33  3.6634176E-02
   7108.67  4.2513480E-02
   7109.00  5.0167542E-02
   7109.33  6.0898992E-02
   7109.67  7.6087800E-02
   7110.00  9.8402159E-02
   7110.33  1.3554200E-01
   7110.67  1.9773345E-01
   7111.00  2.9913886E-01
   7111.33  4.3920955E-01
   7111.67  5.3451868E-01
   7112.00  5.5007629E-01
   7112.33  5.8159081E-01
   7112.67  6.4133327E-01
   7113.00  6.6302812E-01
   7113.33  6.0005261E-01
   7113.67  5.0569077E-01
   7114.00  4.1702775E-01
   7114.33  3.4991113E-01
   7114.67  3.0016243E-01
   7115.00  2.6384236E-01
   7115.33  2.3873368E-01
   7115.67  2.2196638E-01
   7116.00  2.1299256E-01
   7116.33  2.1126325E-01
   7116.67  2.1142092E-01
   7117.00  2.0777433E-01
   7117.33  1.9736686E-01
   7117.67  1.8428424E-01
   7118.00  1.7155066E-01
   7118.33  1.6068898E-01
   7118.67  1.5134812E-01
   7119.00  1.4330655E-01
   7119.33  1.3642639E-01
   7119.67  1.3045804E-01
   7120.00  1.2574385E-01
   7120.33  1.2269018E-01
   7120.67  1.2070163E-01
   7121.00  1.1940840E-01
   7121.33  1.1870345E-01
   7121.67  1.1842019E-01
   7122.00  1.1847234E-01
   7122.33  1.1880434E-01
   7122.67  1.1930145E-01
   7123.00  1.1999610E-01
   7123.33  1.2120940E-01
   7123.67  1.2324121E-01
   7124.00  1.2635741E-01
   7124.33  1.3098539E-01
   7124.67  1.3718066E-01
   7125.00  1.4513703E-01
   7125.33  1.5538148E-01
   7125.67  1.6802169E-01
   7126.00  1.8344000E-01
   7126.33  2.0248252E-01
   7126.67  2.2517367E-01
   7127.00  2.5192760E-01
   7127.33  2.8352336E-01
   7127.67  3.1882764E-01
   7128.00  3.5674260E-01
   7128.33  3.9605965E-01
   7128.67  4.3553753E-01
   7129.00  4.7435764E-01
   7129.33  5.1142644E-01
   7129.67  5.4680476E-01
   7130.00  5.8121779E-01
   7130.33  6.1572686E-01
   7130.67  6.5089485E-01
   7131.00  6.8665758E-01
   7131.33  7.2216817E-01
   7131.67  7.5602564E-01
   7132.00  7.8712045E-01
   7132.33  8.1448337E-01
   7132.67  8.3847426E-01
   7133.00  8.5880172E-01
   7133.33  8.7349599E-01
   7133.67  8.8063219E-01
   7134.00  8.7767167E-01
   7134.33  8.6114703E-01
   7134.67  8.3280434E-01
   7135.00  7.9464589E-01
   7135.33  7.4941324E-01
   7135.67  7.0160448E-01
   7136.00  6.5398228E-01
   7136.33  6.0938535E-01
   7136.67  5.6920625E-01
   7137.00  5.3433656E-01
   7137.33  5.0584755E-01
   7137.67  4.8271762E-01
   7138.00  4.6427908E-01
   7138.33  4.5009324E-01
   7138.67  4.3902905E-01
   7139.00  4.3089594E-01
   7139.33  4.2619009E-01
   7139.67  4.2472759E-01
   7140.00  4.2654921E-01
   7140.33  4.3185250E-01
   7140.67  4.3984285E-01
   7141.00  4.5006552E-01
   7141.33  4.6216153E-01
   7141.67  4.7537894E-01
   7142.00  4.8929986E-01
   7142.33  5.0354410E-01
   7142.67  5.1773315E-01
   7143.00  5.3162707E-01
   7143.33  5.4494399E-01
   7143.67  5.5759533E-01
   7144.00  5.6949961E-01
   7144.33  5.8051451E-01
   7144.67  5.9074755E-01
   7145.00  6.0024895E-01
   7145.33  6.0903366E-01
   7145.67  6.1729825E-01
   7146.00  6.2514975E-01
   7146.33  6.3267223E-01
   7146.67  6.4000752E-01
   7147.00  6.4722596E-01
   7147.33  6.5436740E-01
   7147.67  6.6144922E-01
   7148.00  6.6844806E-01
   7148.33  6.7528684E-01
   7148.67  6.8189757E-01
   7149.00  6.8819404E-01
   7149.33  6.9402278E-01
   7149.67  6.9935024E-01
   7150.00  7.0412804E-01
   7150.33  7.0826822E-01
   7150.67  7.1186404E-01
   7151.00  7.1496181E-01
   7151.33  7.1758853E-01
   7151.67  7.1988784E-01
   7152.00  7.2193176E-01
   7152.33  7.2376427E-01
   7152.67  7.2545498E-01
   7153.00  7.2702038E-01
   7153.33  7.2843385E-01
   7153.67  7.2967360E-01
   7154.00  7.3068621E-01
   7154.33  7.3135243E-01
   7154.67  7.3161563E-01
   7155.00  7.3138611E-01
   7155.33  7.3047911E-01
   7155.67  7.2886069E-01
   7156.00  7.2644188E-01
   7156.33  7.2301866E-01
   7156.67  7.1863083E-01
   7157.00  7.1324012E-01
   7157.33  7.0670808E-01
   7157.67  6.9918843E-01
   7158.00  6.9073510E-01
   7158.33  6.8133937E-01
   7158.67  6.7123588E-01
   7159.00  6.6055752E-01
   7159.33  6.4941562E-01
   7159.67  6.3802046E-01
   7160.00  6.2649850E-01
   7160.33  6.1497866E-01
   7160.67  6.0356521E-01
   7161.00  5.9232688E-01
   7161.33  5.8134849E-01
   7161.67  5.7063579E-01
   7162.00  5.6020550E-01
   7162.33  5.5010185E-01
   7162.67  5.4028876E-01
   7163.00  5.3076320E-01
   7163.33  5.2155578E-01
   7163.67  5.1262840E-01
   7164.00  5.0398145E-01
   7164.33  4.9565272E-01
   7164.67  4.8761055E-01
   7165.00  4.7985789E-01
   7165.33  4.7243146E-01
   7165.67  4.6529098E-01
   7166.00  4.5842834E-01
   7166.33  4.5186034E-01
   7166.67  4.4553265E-01
   7167.00  4.3942204E-01
   7167.33  4.3352185E-01
   7167.67  4.2777980E-01
   7168.00  4.2217275E-01
   7168.33  4.1669153E-01
   7168.67  4.1130516E-01
   7169.00  4.0600473E-01
   7169.33  4.0079814E-01
   7169.67  3.9568257E-01
   7170.00  3.9067304E-01
   7170.33  3.8581301E-01
   7170.67  3.8112637E-01
   7171.00  3.7666507E-01
   7171.33  3.7256340E-01
   7171.67  3.6893870E-01
   7172.00  3.6598322E-01
