    FDMNES
    energy     <xanes>
   7097.00  5.0341585E-03
   7097.33  5.1529159E-03
   7097.67  5.2770652E-03
   7098.00  5.4069729E-03
   7098.33  5.5438907E-03
   7098.67  5.6875664E-03
   7099.00  5.8385012E-03
   7099.33  5.9983347E-03
   7099.67  6.1668110E-03
   7100.00  6.3446335E-03
   7100.33  6.5340088E-03
   7100.67  6.7347036E-03
   7101.00  6.9477374E-03
   7101.33  7.1761752E-03
   7101.67  7.4198664E-03
   7102.00  7.6803460E-03
   7102.33  7.9620374E-03
   7102.67  8.2650061E-03
   7103.00  8.5916721E-03
   7103.33  8.9487271E-03
   7103.67  9.3367589E-03
   7104.00  9.7598066E-03
   7104.33  1.0228610E-02
   7104.67  1.0745020E-02
   7105.00  1.1316287E-02
   7105.33  1.1961011E-02
   7105.67  1.2684267E-02
   7106.00  1.3500360E-02
   7106.33  1.4444979E-02
   7106.67  1.5532250E-02
   7107.00  1.6794346E-02
   7107.33  1.8310340E-02
   7107.67  2.0124131E-02
   7108.00  2.2323281E-02
   7108.33  2.5125316E-02
   7108.67  2.8700096E-02
   7109.00  3.3369093E-02
   7109.33  3.9982850E-02
   7109.67  4.9509025E-02
   7110.00  6.3850637E-02
   7110.33  8.8510198E-02
   7110.67  1.2938741E-01
   7111.00  1.8725227E-01
   7111.33  2.3772205E-01
   7111.67  2.6391216E-01
   7112.00  2.7827328E-01
   7112.33  2.9226523E-01
   7112.67  3.0519470E-01
   7113.00  3.1409406E-01
   7113.33  3.2057826E-01
   7113.67  3.2788663E-01
   7114.00  3.3056173E-01
   7114.33  3.1557875E-01
   7114.67  2.8709721E-01
   7115.00  2.5807199E-01
   7115.33  2.4018102E-01
   7115.67  2.2932767E-01
   7116.00  2.1642700E-01
   7116.33  1.9542722E-01
   7116.67  1.7276023E-01
   7117.00  1.5460433E-01
   7117.33  1.4456993E-01
   7117.67  1.4131700E-01
   7118.00  1.4374119E-01
   7118.33  1.4936709E-01
   7118.67  1.5315208E-01
   7119.00  1.5195646E-01
   7119.33  1.4645565E-01
   7119.67  1.4194306E-01
   7120.00  1.4092163E-01
   7120.33  1.4451086E-01
   7120.67  1.5224454E-01
   7121.00  1.6364077E-01
   7121.33  1.7761254E-01
   7121.67  1.9221653E-01
   7122.00  2.0646047E-01
   7122.33  2.2010751E-01
   7122.67  2.3357526E-01
   7123.00  2.4696510E-01
   7123.33  2.6062443E-01
   7123.67  2.7521568E-01
   7124.00  2.9106147E-01
   7124.33  3.0776561E-01
   7124.67  3.2340354E-01
   7125.00  3.3622433E-01
   7125.33  3.4633170E-01
   7125.67  3.5719203E-01
   7126.00  3.7152339E-01
   7126.33  3.9120902E-01
   7126.67  4.1486891E-01
   7127.00  4.4095456E-01
   7127.33  4.6815326E-01
   7127.67  4.9623404E-01
   7128.00  5.2589917E-01
   7128.33  5.5760536E-01
   7128.67  5.8961373E-01
   7129.00  6.1972721E-01
   7129.33  6.4576858E-01
   7129.67  6.6847164E-01
   7130.00  6.8907580E-01
   7130.33  7.0815993E-01
   7130.67  7.2474264E-01
   7131.00  7.3693612E-01
   7131.33  7.4284650E-01
   7131.67  7.4446667E-01
   7132.00  7.4427475E-01
   7132.33  7.4456093E-01
   7132.67  7.4573192E-01
   7133.00  7.4732865E-01
   7133.33  7.4866822E-01
   7133.67  7.4889228E-01
   7134.00  7.4685832E-01
   7134.33  7.4108361E-01
   7134.67  7.3200701E-01
   7135.00  7.2016604E-01
   7135.33  7.0571233E-01
   7135.67  6.8945569E-01
   7136.00  6.7238795E-01
   7136.33  6.5624386E-01
   7136.67  6.4237375E-01
   7137.00  6.3149955E-01
   7137.33  6.2419119E-01
   7137.67  6.1964942E-01
   7138.00  6.1720801E-01
   7138.33  6.1605531E-01
   7138.67  6.1515626E-01
   7139.00  6.1400356E-01
   7139.33  6.1239672E-01
   7139.67  6.1066323E-01
   7140.00  6.0923256E-01
   7140.33  6.0867232E-01
   7140.67  6.0909314E-01
   7141.00  6.1036325E-01
   7141.33  6.1204022E-01
   7141.67  6.1340036E-01
   7142.00  6.1389732E-01
   7142.33  6.1297210E-01
   7142.67  6.1070843E-01
   7143.00  6.0725028E-01
   7143.33  6.0273024E-01
   7143.67  5.9744231E-01
   7144.00  5.9141144E-01
   7144.33  5.8444547E-01
   7144.67  5.7653684E-01
   7145.00  5.6765595E-01
   7145.33  5.5780029E-01
   7145.67  5.4735397E-01
   7146.00  5.3667102E-01
   7146.33  5.2625073E-01
   7146.67  5.1650084E-01
   7147.00  5.0774524E-01
   7147.33  5.0044950E-01
   7147.67  4.9465883E-01
   7148.00  4.9047541E-01
   7148.33  4.8815285E-01
   7148.67  4.8747245E-01
   7149.00  4.8838373E-01
   7149.33  4.9096798E-01
   7149.67  4.9489175E-01
   7150.00  4.9999650E-01
   7150.33  5.0617854E-01
   7150.67  5.1305458E-01
   7151.00  5.2037317E-01
   7151.33  5.2784654E-01
   7151.67  5.3516428E-01
   7152.00  5.4210457E-01
   7152.33  5.4839088E-01
   7152.67  5.5395938E-01
   7153.00  5.5874360E-01
   7153.33  5.6260990E-01
   7153.67  5.6565946E-01
   7154.00  5.6790171E-01
   7154.33  5.6924747E-01
   7154.67  5.6980125E-01
   7155.00  5.6956244E-01
   7155.33  5.6842615E-01
   7155.67  5.6648607E-01
   7156.00  5.6374139E-01
   7156.33  5.6010566E-01
   7156.67  5.5571494E-01
   7157.00  5.5062739E-01
   7157.33  5.4487037E-01
   7157.67  5.3865246E-01
   7158.00  5.3210626E-01
   7158.33  5.2537107E-01
   7158.67  5.1862150E-01
   7159.00  5.1197805E-01
   7159.33  5.0559009E-01
   7159.67  4.9952687E-01
   7160.00  4.9385649E-01
   7160.33  4.8869855E-01
   7160.67  4.8404097E-01
   7161.00  4.7990687E-01
   7161.33  4.7636901E-01
   7161.67  4.7334600E-01
   7162.00  4.7080952E-01
   7162.33  4.6876080E-01
   7162.67  4.6706650E-01
   7163.00  4.6564767E-01
   7163.33  4.6443557E-01
   7163.67  4.6331887E-01
   7164.00  4.6222883E-01
   7164.33  4.6109304E-01
   7164.67  4.5986645E-01
   7165.00  4.5852140E-01
   7165.33  4.5702558E-01
   7165.67  4.5539441E-01
   7166.00  4.5363475E-01
   7166.33  4.5174613E-01
   7166.67  4.4976048E-01
   7167.00  4.4769636E-01
   7167.33  4.4557291E-01
   7167.67  4.4341721E-01
   7168.00  4.4124329E-01
   7168.33  4.3906890E-01
   7168.67  4.3691265E-01
   7169.00  4.3478978E-01
   7169.33  4.3272316E-01
   7169.67  4.3072310E-01
   7170.00  4.2880453E-01
   7170.33  4.2699884E-01
   7170.67  4.2531444E-01
   7171.00  4.2377152E-01
   7171.33  4.2241927E-01
   7171.67  4.2127243E-01
   7172.00  4.2036526E-01
