    FDMNES
    energy     <xanes>
   7097.00  5.2068960E-03
   7097.33  5.3289118E-03
   7097.67  5.4563706E-03
   7098.00  5.5896323E-03
   7098.33  5.7299427E-03
   7098.67  5.8770325E-03
   7099.00  6.0313886E-03
   7099.33  6.1946283E-03
   7099.67  6.3664711E-03
   7100.00  6.5475924E-03
   7100.33  6.7401444E-03
   7100.67  6.9438560E-03
   7101.00  7.1596921E-03
   7101.33  7.3906012E-03
   7101.67  7.6363690E-03
   7102.00  7.8984231E-03
   7102.33  8.1809472E-03
   7102.67  8.4838888E-03
   7103.00  8.8094515E-03
   7103.33  9.1638321E-03
   7103.67  9.5473778E-03
   7104.00  9.9636727E-03
   7104.33  1.0422402E-02
   7104.67  1.0924876E-02
   7105.00  1.1477325E-02
   7105.33  1.2095964E-02
   7105.67  1.2784515E-02
   7106.00  1.3554778E-02
   7106.33  1.4436526E-02
   7106.67  1.5440007E-02
   7107.00  1.6590386E-02
   7107.33  1.7949824E-02
   7107.67  1.9548891E-02
   7108.00  2.1451231E-02
   7108.33  2.3814089E-02
   7108.67  2.6747054E-02
   7109.00  3.0459990E-02
   7109.33  3.5494985E-02
   7109.67  4.2403039E-02
   7110.00  5.2252864E-02
   7110.33  6.8112486E-02
   7110.67  9.3976264E-02
   7111.00  1.3512207E-01
   7111.33  1.9121588E-01
   7111.67  2.3716341E-01
   7112.00  2.5984433E-01
   7112.33  2.7388304E-01
   7112.67  2.7847709E-01
   7113.00  2.8899372E-01
   7113.33  3.1523794E-01
   7113.67  3.5354181E-01
   7114.00  3.8604211E-01
   7114.33  3.9086980E-01
   7114.67  4.0266867E-01
   7115.00  4.2479370E-01
   7115.33  4.0484131E-01
   7115.67  3.5051391E-01
   7116.00  3.0030026E-01
   7116.33  2.7256624E-01
   7116.67  2.5788570E-01
   7117.00  2.4470066E-01
   7117.33  2.2153221E-01
   7117.67  1.9245442E-01
   7118.00  1.6549127E-01
   7118.33  1.4739789E-01
   7118.67  1.3742657E-01
   7119.00  1.3387260E-01
   7119.33  1.3556419E-01
   7119.67  1.4054630E-01
   7120.00  1.4758336E-01
   7120.33  1.5516140E-01
   7120.67  1.6219267E-01
   7121.00  1.6887374E-01
   7121.33  1.7639455E-01
   7121.67  1.8571629E-01
   7122.00  1.9720573E-01
   7122.33  2.1069613E-01
   7122.67  2.2497097E-01
   7123.00  2.3911159E-01
   7123.33  2.5244925E-01
   7123.67  2.6523652E-01
   7124.00  2.7795113E-01
   7124.33  2.9115378E-01
   7124.67  3.0514692E-01
   7125.00  3.2020217E-01
   7125.33  3.3675434E-01
   7125.67  3.5475749E-01
   7126.00  3.7414820E-01
   7126.33  3.9472738E-01
   7126.67  4.1568777E-01
   7127.00  4.3640701E-01
   7127.33  4.5661807E-01
   7127.67  4.7690317E-01
   7128.00  4.9803610E-01
   7128.33  5.2103019E-01
   7128.67  5.4585182E-01
   7129.00  5.7174958E-01
   7129.33  5.9720206E-01
   7129.67  6.2141613E-01
   7130.00  6.4445350E-01
   7130.33  6.6654494E-01
   7130.67  6.8784866E-01
   7131.00  7.0819440E-01
   7131.33  7.2718967E-01
   7131.67  7.4477655E-01
   7132.00  7.6083791E-01
   7132.33  7.7508847E-01
   7132.67  7.8765695E-01
   7133.00  7.9846362E-01
   7133.33  8.0713696E-01
   7133.67  8.1371669E-01
   7134.00  8.1797458E-01
   7134.33  8.1925011E-01
   7134.67  8.1750284E-01
   7135.00  8.1241526E-01
   7135.33  8.0323488E-01
   7135.67  7.9030935E-01
   7136.00  7.7380418E-01
   7136.33  7.5392871E-01
   7136.67  7.3204821E-01
   7137.00  7.0923040E-01
   7137.33  6.8679989E-01
   7137.67  6.6575713E-01
   7138.00  6.4661655E-01
   7138.33  6.2985669E-01
   7138.67  6.1516867E-01
   7139.00  6.0236992E-01
   7139.33  5.9134128E-01
   7139.67  5.8154535E-01
   7140.00  5.7273984E-01
   7140.33  5.6486764E-01
   7140.67  5.5781688E-01
   7141.00  5.5168156E-01
   7141.33  5.4676132E-01
   7141.67  5.4305469E-01
   7142.00  5.4059420E-01
   7142.33  5.3944191E-01
   7142.67  5.3925194E-01
   7143.00  5.3978563E-01
   7143.33  5.4077696E-01
   7143.67  5.4185416E-01
   7144.00  5.4276466E-01
   7144.33  5.4321543E-01
   7144.67  5.4309140E-01
   7145.00  5.4231778E-01
   7145.33  5.4080038E-01
   7145.67  5.3867737E-01
   7146.00  5.3603622E-01
   7146.33  5.3295824E-01
   7146.67  5.2963354E-01
   7147.00  5.2618287E-01
   7147.33  5.2274092E-01
   7147.67  5.1943086E-01
   7148.00  5.1635155E-01
   7148.33  5.1365131E-01
   7148.67  5.1138448E-01
   7149.00  5.0962562E-01
   7149.33  5.0852307E-01
   7149.67  5.0806384E-01
   7150.00  5.0828456E-01
   7150.33  5.0929745E-01
   7150.67  5.1101774E-01
   7151.00  5.1343034E-01
   7151.33  5.1657707E-01
   7151.67  5.2031104E-01
   7152.00  5.2455214E-01
   7152.33  5.2922283E-01
   7152.67  5.3412832E-01
   7153.00  5.3913029E-01
   7153.33  5.4404698E-01
   7153.67  5.4871613E-01
   7154.00  5.5300440E-01
   7154.33  5.5672664E-01
   7154.67  5.5987166E-01
   7155.00  5.6241515E-01
   7155.33  5.6429401E-01
   7155.67  5.6564117E-01
   7156.00  5.6653580E-01
   7156.33  5.6703524E-01
   7156.67  5.6727822E-01
   7157.00  5.6733261E-01
   7157.33  5.6724053E-01
   7157.67  5.6705258E-01
   7158.00  5.6677946E-01
   7158.33  5.6640259E-01
   7158.67  5.6590844E-01
   7159.00  5.6526449E-01
   7159.33  5.6440372E-01
   7159.67  5.6330439E-01
   7160.00  5.6192178E-01
   7160.33  5.6016138E-01
   7160.67  5.5801886E-01
   7161.00  5.5546237E-01
   7161.33  5.5241168E-01
   7161.67  5.4891285E-01
   7162.00  5.4497265E-01
   7162.33  5.4056276E-01
   7162.67  5.3577644E-01
   7163.00  5.3066092E-01
   7163.33  5.2524845E-01
   7163.67  5.1964577E-01
   7164.00  5.1391987E-01
   7164.33  5.0814307E-01
   7164.67  5.0239411E-01
   7165.00  4.9673202E-01
   7165.33  4.9124752E-01
   7165.67  4.8598127E-01
   7166.00  4.8096887E-01
   7166.33  4.7627477E-01
   7166.67  4.7188357E-01
   7167.00  4.6780677E-01
   7167.33  4.6409193E-01
   7167.67  4.6070062E-01
   7168.00  4.5763034E-01
   7168.33  4.5491313E-01
   7168.67  4.5249957E-01
   7169.00  4.5037948E-01
   7169.33  4.4857450E-01
   7169.67  4.4703462E-01
   7170.00  4.4574526E-01
   7170.33  4.4471624E-01
   7170.67  4.4389716E-01
   7171.00  4.4326711E-01
   7171.33  4.4281696E-01
   7171.67  4.4248948E-01
   7172.00  4.4224396E-01
