    FDMNES
    energy     <xanes>
   7097.00  4.8394393E-03
   7097.33  4.9563730E-03
   7097.67  5.0788990E-03
   7098.00  5.2074166E-03
   7098.33  5.3432550E-03
   7098.67  5.4861780E-03
   7099.00  5.6367363E-03
   7099.33  5.7966914E-03
   7099.67  5.9658097E-03
   7100.00  6.1448713E-03
   7100.33  6.3362742E-03
   7100.67  6.5398191E-03
   7101.00  6.7566469E-03
   7101.33  6.9901258E-03
   7101.67  7.2401615E-03
   7102.00  7.5084846E-03
   7102.33  7.8000076E-03
   7102.67  8.1148951E-03
   7103.00  8.4558913E-03
   7103.33  8.8304945E-03
   7103.67  9.2394763E-03
   7104.00  9.6874307E-03
   7104.33  1.0186465E-02
   7104.67  1.0738790E-02
   7105.00  1.1352634E-02
   7105.33  1.2049002E-02
   7105.67  1.2833681E-02
   7106.00  1.3722780E-02
   7106.33  1.4756338E-02
   7106.67  1.5949919E-02
   7107.00  1.7339059E-02
   7107.33  1.9010790E-02
   7107.67  2.1011594E-02
   7108.00  2.3434752E-02
   7108.33  2.6510401E-02
   7108.67  3.0408831E-02
   7109.00  3.5452327E-02
   7109.33  4.2480926E-02
   7109.67  5.2395519E-02
   7110.00  6.6950353E-02
   7110.33  9.1129716E-02
   7110.67  1.3016766E-01
   7111.00  1.8588546E-01
   7111.33  2.4631905E-01
   7111.67  3.0061296E-01
   7112.00  3.5449065E-01
   7112.33  4.2730875E-01
   7112.67  5.1776538E-01
   7113.00  5.9245256E-01
   7113.33  5.7227651E-01
   7113.67  4.5753505E-01
   7114.00  3.2128296E-01
   7114.33  2.2699372E-01
   7114.67  1.6793081E-01
   7115.00  1.3217096E-01
   7115.33  1.1142845E-01
   7115.67  9.7298853E-02
   7116.00  8.6663740E-02
   7116.33  7.9746623E-02
   7116.67  7.5891336E-02
   7117.00  7.4396328E-02
   7117.33  7.5174184E-02
   7117.67  7.7905543E-02
   7118.00  8.2367805E-02
   7118.33  8.8422894E-02
   7118.67  9.5994728E-02
   7119.00  1.0517681E-01
   7119.33  1.1465360E-01
   7119.67  1.2174093E-01
   7120.00  1.2500636E-01
   7120.33  1.2503922E-01
   7120.67  1.2476756E-01
   7121.00  1.2640592E-01
   7121.33  1.3204134E-01
   7121.67  1.4207731E-01
   7122.00  1.5701669E-01
   7122.33  1.7761437E-01
   7122.67  2.0230042E-01
   7123.00  2.2949321E-01
   7123.33  2.5695440E-01
   7123.67  2.8267720E-01
   7124.00  3.0646563E-01
   7124.33  3.2931565E-01
   7124.67  3.5142439E-01
   7125.00  3.7088056E-01
   7125.33  3.8356877E-01
   7125.67  3.8875494E-01
   7126.00  3.8776498E-01
   7126.33  3.8303608E-01
   7126.67  3.7730574E-01
   7127.00  3.7163160E-01
   7127.33  3.6641752E-01
   7127.67  3.6163856E-01
   7128.00  3.5759062E-01
   7128.33  3.5533265E-01
   7128.67  3.5566186E-01
   7129.00  3.5906257E-01
   7129.33  3.6573449E-01
   7129.67  3.7457343E-01
   7130.00  3.8488650E-01
   7130.33  3.9623483E-01
   7130.67  4.0801953E-01
   7131.00  4.1939957E-01
   7131.33  4.2843674E-01
   7131.67  4.3400043E-01
   7132.00  4.3612206E-01
   7132.33  4.3586747E-01
   7132.67  4.3530004E-01
   7133.00  4.3585835E-01
   7133.33  4.3911945E-01
   7133.67  4.4540504E-01
   7134.00  4.5449724E-01
   7134.33  4.6509290E-01
   7134.67  4.7436069E-01
   7135.00  4.7997924E-01
   7135.33  4.8022468E-01
   7135.67  4.7655926E-01
   7136.00  4.7040171E-01
   7136.33  4.6315567E-01
   7136.67  4.5628205E-01
   7137.00  4.5090803E-01
   7137.33  4.4852306E-01
   7137.67  4.4952189E-01
   7138.00  4.5410934E-01
   7138.33  4.6255716E-01
   7138.67  4.7398341E-01
   7139.00  4.8784123E-01
   7139.33  5.0360123E-01
   7139.67  5.2029475E-01
   7140.00  5.3733007E-01
   7140.33  5.5410655E-01
   7140.67  5.7020729E-01
   7141.00  5.8532093E-01
   7141.33  5.9898153E-01
   7141.67  6.1114861E-01
   7142.00  6.2180150E-01
   7142.33  6.3100175E-01
   7142.67  6.3936551E-01
   7143.00  6.4736072E-01
   7143.33  6.5547723E-01
   7143.67  6.6398639E-01
   7144.00  6.7295271E-01
   7144.33  6.8234708E-01
   7144.67  6.9199301E-01
   7145.00  7.0181498E-01
   7145.33  7.1181452E-01
   7145.67  7.2199442E-01
   7146.00  7.3236345E-01
   7146.33  7.4289862E-01
   7146.67  7.5346156E-01
   7147.00  7.6387769E-01
   7147.33  7.7380316E-01
   7147.67  7.8292001E-01
   7148.00  7.9086466E-01
   7148.33  7.9702674E-01
   7148.67  8.0129079E-01
   7149.00  8.0352852E-01
   7149.33  8.0355477E-01
   7149.67  8.0189096E-01
   7150.00  7.9889155E-01
   7150.33  7.9490275E-01
   7150.67  7.9044810E-01
   7151.00  7.8580383E-01
   7151.33  7.8118659E-01
   7151.67  7.7670048E-01
   7152.00  7.7236998E-01
   7152.33  7.6818508E-01
   7152.67  7.6406653E-01
   7153.00  7.5994346E-01
   7153.33  7.5570989E-01
   7153.67  7.5127748E-01
   7154.00  7.4655666E-01
   7154.33  7.4139105E-01
   7154.67  7.3572349E-01
   7155.00  7.2946787E-01
   7155.33  7.2245455E-01
   7155.67  7.1470998E-01
   7156.00  7.0621448E-01
   7156.33  6.9689181E-01
   7156.67  6.8689535E-01
   7157.00  6.7631646E-01
   7157.33  6.6523799E-01
   7157.67  6.5386859E-01
   7158.00  6.4233890E-01
   7158.33  6.3078660E-01
   7158.67  6.1933476E-01
   7159.00  6.0806710E-01
   7159.33  5.9708495E-01
   7159.67  5.8639885E-01
   7160.00  5.7603196E-01
   7160.33  5.6604423E-01
   7160.67  5.5640976E-01
   7161.00  5.4714957E-01
   7161.33  5.3835088E-01
   7161.67  5.3000133E-01
   7162.00  5.2213015E-01
   7162.33  5.1482479E-01
   7162.67  5.0803072E-01
   7163.00  5.0173803E-01
   7163.33  4.9597248E-01
   7163.67  4.9062427E-01
   7164.00  4.8564051E-01
   7164.33  4.8099457E-01
   7164.67  4.7659314E-01
   7165.00  4.7240147E-01
   7165.33  4.6841617E-01
   7165.67  4.6460300E-01
   7166.00  4.6096272E-01
   7166.33  4.5752489E-01
   7166.67  4.5427893E-01
   7167.00  4.5123518E-01
   7167.33  4.4842442E-01
   7167.67  4.4581953E-01
   7168.00  4.4341573E-01
   7168.33  4.4122787E-01
   7168.67  4.3922019E-01
   7169.00  4.3738133E-01
   7169.33  4.3571603E-01
   7169.67  4.3418942E-01
   7170.00  4.3278787E-01
   7170.33  4.3150963E-01
   7170.67  4.3032765E-01
   7171.00  4.2923450E-01
   7171.33  4.2824222E-01
   7171.67  4.2735888E-01
   7172.00  4.2661943E-01
