    FDMNES
    energy     <xanes>
   7097.00  4.6293442E-03
   7097.33  4.7402202E-03
   7097.67  4.8564214E-03
   7098.00  4.9783350E-03
   7098.33  5.1072402E-03
   7098.67  5.2429236E-03
   7099.00  5.3859246E-03
   7099.33  5.5379519E-03
   7099.67  5.6988024E-03
   7100.00  5.8692499E-03
   7100.33  6.0516440E-03
   7100.67  6.2458310E-03
   7101.00  6.4529586E-03
   7101.33  6.6763728E-03
   7101.67  6.9160529E-03
   7102.00  7.1737730E-03
   7102.33  7.4545005E-03
   7102.67  7.7585347E-03
   7103.00  8.0887565E-03
   7103.33  8.4529262E-03
   7103.67  8.8520965E-03
   7104.00  9.2912384E-03
   7104.33  9.7832721E-03
   7104.67  1.0331073E-02
   7105.00  1.0943903E-02
   7105.33  1.1645105E-02
   7105.67  1.2442266E-02
   7106.00  1.3354470E-02
   7106.33  1.4428740E-02
   7106.67  1.5686242E-02
   7107.00  1.7172097E-02
   7107.33  1.8996584E-02
   7107.67  2.1227208E-02
   7108.00  2.3994192E-02
   7108.33  2.7621997E-02
   7108.67  3.2383931E-02
   7109.00  3.8792709E-02
   7109.33  4.8222577E-02
   7109.67  6.2329591E-02
   7110.00  8.4384246E-02
   7110.33  1.2380301E-01
   7110.67  1.8917731E-01
   7111.00  2.7429310E-01
   7111.33  3.3351508E-01
   7111.67  3.5721643E-01
   7112.00  3.5865411E-01
   7112.33  3.4936732E-01
   7112.67  3.3759901E-01
   7113.00  3.2042070E-01
   7113.33  2.8128076E-01
   7113.67  2.2893166E-01
   7114.00  1.8378816E-01
   7114.33  1.5912199E-01
   7114.67  1.4978659E-01
   7115.00  1.4546441E-01
   7115.33  1.3215506E-01
   7115.67  1.1304894E-01
   7116.00  9.4272996E-02
   7116.33  8.0742101E-02
   7116.67  7.2670802E-02
   7117.00  6.8988898E-02
   7117.33  6.8966014E-02
   7117.67  7.1633955E-02
   7118.00  7.6795109E-02
   7118.33  8.4510127E-02
   7118.67  9.4331375E-02
   7119.00  1.0599276E-01
   7119.33  1.1802864E-01
   7119.67  1.2840586E-01
   7120.00  1.3620727E-01
   7120.33  1.4222648E-01
   7120.67  1.4964805E-01
   7121.00  1.5942034E-01
   7121.33  1.7003589E-01
   7121.67  1.8033481E-01
   7122.00  1.9130994E-01
   7122.33  2.0525555E-01
   7122.67  2.2333406E-01
   7123.00  2.4608320E-01
   7123.33  2.7337159E-01
   7123.67  3.0277048E-01
   7124.00  3.3250357E-01
   7124.33  3.6045654E-01
   7124.67  3.8368744E-01
   7125.00  3.9919260E-01
   7125.33  4.0553165E-01
   7125.67  4.0671264E-01
   7126.00  4.0565977E-01
   7126.33  4.0372824E-01
   7126.67  3.9961873E-01
   7127.00  3.9166576E-01
   7127.33  3.8026769E-01
   7127.67  3.6931793E-01
   7128.00  3.6190460E-01
   7128.33  3.6070595E-01
   7128.67  3.6478859E-01
   7129.00  3.7210889E-01
   7129.33  3.7912837E-01
   7129.67  3.8331241E-01
   7130.00  3.8408176E-01
   7130.33  3.8144698E-01
   7130.67  3.7643298E-01
   7131.00  3.6982629E-01
   7131.33  3.6303583E-01
   7131.67  3.5774270E-01
   7132.00  3.5502009E-01
   7132.33  3.5571821E-01
   7132.67  3.5926317E-01
   7133.00  3.6533751E-01
   7133.33  3.7412483E-01
   7133.67  3.8554875E-01
   7134.00  3.9970168E-01
   7134.33  4.1600075E-01
   7134.67  4.3207691E-01
   7135.00  4.4580696E-01
   7135.33  4.5544334E-01
   7135.67  4.6179220E-01
   7136.00  4.6585908E-01
   7136.33  4.6889855E-01
   7136.67  4.7228498E-01
   7137.00  4.7673606E-01
   7137.33  4.8259191E-01
   7137.67  4.8929969E-01
   7138.00  4.9636641E-01
   7138.33  5.0341327E-01
   7138.67  5.1041839E-01
   7139.00  5.1756486E-01
   7139.33  5.2517197E-01
   7139.67  5.3339220E-01
   7140.00  5.4233012E-01
   7140.33  5.5216445E-01
   7140.67  5.6286554E-01
   7141.00  5.7448303E-01
   7141.33  5.8711429E-01
   7141.67  6.0045745E-01
   7142.00  6.1417404E-01
   7142.33  6.2772258E-01
   7142.67  6.4062612E-01
   7143.00  6.5260216E-01
   7143.33  6.6342889E-01
   7143.67  6.7336404E-01
   7144.00  6.8262606E-01
   7144.33  6.9144749E-01
   7144.67  7.0009002E-01
   7145.00  7.0861797E-01
   7145.33  7.1691110E-01
   7145.67  7.2475342E-01
   7146.00  7.3189065E-01
   7146.33  7.3797725E-01
   7146.67  7.4306620E-01
   7147.00  7.4723496E-01
   7147.33  7.5054901E-01
   7147.67  7.5324777E-01
   7148.00  7.5539936E-01
   7148.33  7.5694753E-01
   7148.67  7.5793709E-01
   7149.00  7.5836814E-01
   7149.33  7.5824041E-01
   7149.67  7.5773805E-01
   7150.00  7.5698402E-01
   7150.33  7.5611128E-01
   7150.67  7.5526548E-01
   7151.00  7.5453139E-01
   7151.33  7.5398193E-01
   7151.67  7.5359675E-01
   7152.00  7.5333807E-01
   7152.33  7.5313208E-01
   7152.67  7.5286554E-01
   7153.00  7.5243147E-01
   7153.33  7.5165556E-01
   7153.67  7.5043047E-01
   7154.00  7.4862718E-01
   7154.33  7.4600509E-01
   7154.67  7.4251767E-01
   7155.00  7.3806814E-01
   7155.33  7.3245181E-01
   7155.67  7.2577245E-01
   7156.00  7.1804668E-01
   7156.33  7.0920457E-01
   7156.67  6.9944956E-01
   7157.00  6.8886194E-01
   7157.33  6.7745026E-01
   7157.67  6.6541025E-01
   7158.00  6.5283393E-01
   7158.33  6.3978358E-01
   7158.67  6.2644043E-01
   7159.00  6.1291499E-01
   7159.33  5.9931416E-01
   7159.67  5.8574097E-01
   7160.00  5.7225973E-01
   7160.33  5.5895269E-01
   7160.67  5.4586744E-01
   7161.00  5.3307648E-01
   7161.33  5.2074193E-01
   7161.67  5.0895752E-01
   7162.00  4.9785760E-01
   7162.33  4.8768471E-01
   7162.67  4.7843523E-01
   7163.00  4.7014895E-01
   7163.33  4.6293257E-01
   7163.67  4.5659919E-01
   7164.00  4.5105698E-01
   7164.33  4.4625805E-01
   7164.67  4.4198274E-01
   7165.00  4.3812021E-01
   7165.33  4.3459671E-01
   7165.67  4.3128964E-01
   7166.00  4.2814896E-01
   7166.33  4.2515676E-01
   7166.67  4.2228323E-01
   7167.00  4.1952997E-01
   7167.33  4.1692780E-01
   7167.67  4.1448209E-01
   7168.00  4.1221343E-01
   7168.33  4.1017185E-01
   7168.67  4.0835684E-01
   7169.00  4.0678853E-01
   7169.33  4.0552146E-01
   7169.67  4.0453982E-01
   7170.00  4.0385519E-01
   7170.33  4.0351282E-01
   7170.67  4.0347110E-01
   7171.00  4.0371251E-01
   7171.33  4.0421440E-01
   7171.67  4.0483555E-01
   7172.00  4.0541557E-01
