    FDMNES
    energy     <xanes>
   7097.00  5.4790927E-03
   7097.33  5.6235165E-03
   7097.67  5.7751248E-03
   7098.00  5.9344328E-03
   7098.33  6.1031509E-03
   7098.67  6.2809763E-03
   7099.00  6.4686159E-03
   7099.33  6.6683315E-03
   7099.67  6.8798176E-03
   7100.00  7.1040693E-03
   7100.33  7.3441519E-03
   7100.67  7.5997927E-03
   7101.00  7.8724335E-03
   7101.33  8.1663499E-03
   7101.67  8.4813797E-03
   7102.00  8.8196827E-03
   7102.33  9.1874304E-03
   7102.67  9.5847376E-03
   7103.00  1.0014972E-02
   7103.33  1.0487414E-02
   7103.67  1.1002822E-02
   7104.00  1.1566710E-02
   7104.33  1.2193741E-02
   7104.67  1.2886172E-02
   7105.00  1.3653576E-02
   7105.33  1.4520610E-02
   7105.67  1.5493116E-02
   7106.00  1.6589020E-02
   7106.33  1.7853220E-02
   7106.67  1.9300769E-02
   7107.00  2.0968706E-02
   7107.33  2.2947958E-02
   7107.67  2.5280019E-02
   7108.00  2.8052556E-02
   7108.33  3.1479470E-02
   7108.67  3.5692540E-02
   7109.00  4.0945466E-02
   7109.33  4.7871558E-02
   7109.67  5.7011481E-02
   7110.00  6.9384364E-02
   7110.33  8.7722275E-02
   7110.67  1.1505014E-01
   7111.00  1.5603521E-01
   7111.33  2.2135018E-01
   7111.67  3.2265266E-01
   7112.00  4.7422743E-01
   7112.33  6.7649725E-01
   7112.67  8.5144731E-01
   7113.00  8.9975568E-01
   7113.33  7.8257459E-01
   7113.67  6.2265885E-01
   7114.00  4.8449421E-01
   7114.33  3.8646392E-01
   7114.67  3.1665837E-01
   7115.00  2.6770977E-01
   7115.33  2.3517702E-01
   7115.67  2.1320826E-01
   7116.00  1.9955418E-01
   7116.33  1.9307224E-01
   7116.67  1.9088737E-01
   7117.00  1.9014277E-01
   7117.33  1.8653102E-01
   7117.67  1.7889720E-01
   7118.00  1.6824621E-01
   7118.33  1.5642197E-01
   7118.67  1.4583503E-01
   7119.00  1.3801127E-01
   7119.33  1.3343539E-01
   7119.67  1.3059317E-01
   7120.00  1.2875833E-01
   7120.33  1.2807200E-01
   7120.67  1.2849036E-01
   7121.00  1.2983727E-01
   7121.33  1.3191950E-01
   7121.67  1.3429327E-01
   7122.00  1.3662368E-01
   7122.33  1.3856365E-01
   7122.67  1.3998867E-01
   7123.00  1.4091426E-01
   7123.33  1.4159246E-01
   7123.67  1.4258592E-01
   7124.00  1.4442817E-01
   7124.33  1.4778415E-01
   7124.67  1.5277154E-01
   7125.00  1.5958975E-01
   7125.33  1.6891747E-01
   7125.67  1.8112723E-01
   7126.00  1.9690750E-01
   7126.33  2.1758009E-01
   7126.67  2.4300012E-01
   7127.00  2.7278176E-01
   7127.33  3.0601294E-01
   7127.67  3.4122659E-01
   7128.00  3.7845537E-01
   7128.33  4.1855228E-01
   7128.67  4.6105132E-01
   7129.00  5.0522388E-01
   7129.33  5.5055018E-01
   7129.67  5.9680146E-01
   7130.00  6.4389503E-01
   7130.33  6.9107537E-01
   7130.67  7.3663257E-01
   7131.00  7.7852379E-01
   7131.33  8.1336240E-01
   7131.67  8.3973907E-01
   7132.00  8.5647434E-01
   7132.33  8.6167960E-01
   7132.67  8.5672547E-01
   7133.00  8.4238930E-01
   7133.33  8.1956157E-01
   7133.67  7.9157402E-01
   7134.00  7.6023242E-01
   7134.33  7.2648136E-01
   7134.67  6.9103580E-01
   7135.00  6.5418764E-01
   7135.33  6.1651188E-01
   7135.67  5.7914785E-01
   7136.00  5.4312216E-01
   7136.33  5.0979548E-01
   7136.67  4.7955252E-01
   7137.00  4.5262219E-01
   7137.33  4.2944681E-01
   7137.67  4.0970159E-01
   7138.00  3.9364503E-01
   7138.33  3.8211661E-01
   7138.67  3.7472025E-01
   7139.00  3.7128292E-01
   7139.33  3.7181809E-01
   7139.67  3.7536440E-01
   7140.00  3.8150488E-01
   7140.33  3.9013317E-01
   7140.67  4.0071300E-01
   7141.00  4.1309363E-01
   7141.33  4.2733633E-01
   7141.67  4.4306691E-01
   7142.00  4.6009700E-01
   7142.33  4.7827710E-01
   7142.67  4.9715445E-01
   7143.00  5.1642002E-01
   7143.33  5.3567192E-01
   7143.67  5.5446867E-01
   7144.00  5.7240788E-01
   7144.33  5.8886696E-01
   7144.67  6.0362194E-01
   7145.00  6.1644624E-01
   7145.33  6.2699562E-01
   7145.67  6.3562919E-01
   7146.00  6.4257431E-01
   7146.33  6.4803532E-01
   7146.67  6.5259200E-01
   7147.00  6.5659147E-01
   7147.33  6.6036708E-01
   7147.67  6.6422457E-01
   7148.00  6.6833894E-01
   7148.33  6.7289503E-01
   7148.67  6.7790384E-01
   7149.00  6.8335885E-01
   7149.33  6.8924775E-01
   7149.67  6.9541565E-01
   7150.00  7.0174201E-01
   7150.33  7.0806936E-01
   7150.67  7.1424296E-01
   7151.00  7.2013817E-01
   7151.33  7.2556691E-01
   7151.67  7.3045656E-01
   7152.00  7.3471191E-01
   7152.33  7.3815065E-01
   7152.67  7.4079600E-01
   7153.00  7.4260856E-01
   7153.33  7.4346204E-01
   7153.67  7.4347462E-01
   7154.00  7.4267619E-01
   7154.33  7.4102505E-01
   7154.67  7.3868388E-01
   7155.00  7.3571793E-01
   7155.33  7.3213728E-01
   7155.67  7.2808546E-01
   7156.00  7.2361987E-01
   7156.33  7.1874953E-01
   7156.67  7.1355811E-01
   7157.00  7.0806656E-01
   7157.33  7.0224963E-01
   7157.67  6.9614268E-01
   7158.00  6.8973957E-01
   7158.33  6.8299262E-01
   7158.67  6.7593180E-01
   7159.00  6.6855217E-01
   7159.33  6.6081040E-01
   7159.67  6.5275096E-01
   7160.00  6.4438192E-01
   7160.33  6.3567792E-01
   7160.67  6.2669207E-01
   7161.00  6.1744076E-01
   7161.33  6.0791725E-01
   7161.67  5.9818266E-01
   7162.00  5.8827024E-01
   7162.33  5.7820951E-01
   7162.67  5.6807071E-01
   7163.00  5.5790587E-01
   7163.33  5.4778528E-01
   7163.67  5.3777237E-01
   7164.00  5.2792650E-01
   7164.33  5.1834252E-01
   7164.67  5.0904914E-01
   7165.00  5.0008451E-01
   7165.33  4.9152048E-01
   7165.67  4.8332197E-01
   7166.00  4.7548145E-01
   7166.33  4.6801582E-01
   7166.67  4.6084530E-01
   7167.00  4.5393007E-01
   7167.33  4.4724436E-01
   7167.67  4.4071062E-01
   7168.00  4.3428863E-01
   7168.33  4.2794970E-01
   7168.67  4.2165905E-01
   7169.00  4.1540681E-01
   7169.33  4.0920213E-01
   7169.67  4.0306026E-01
   7170.00  3.9701092E-01
   7170.33  3.9111882E-01
   7170.67  3.8543003E-01
   7171.00  3.8001774E-01
   7171.33  3.7505346E-01
   7171.67  3.7067952E-01
   7172.00  3.6712562E-01
