    FDMNES
    energy     <xanes>
   7097.00  5.1197476E-03
   7097.33  5.2423919E-03
   7097.67  5.3706016E-03
   7098.00  5.5047466E-03
   7098.33  5.6461033E-03
   7098.67  5.7943975E-03
   7099.00  5.9501282E-03
   7099.33  6.1149507E-03
   7099.67  6.2885767E-03
   7100.00  6.4716952E-03
   7100.33  6.6665029E-03
   7100.67  6.8727158E-03
   7101.00  7.0913110E-03
   7101.33  7.3252840E-03
   7101.67  7.5743962E-03
   7102.00  7.8400792E-03
   7102.33  8.1265499E-03
   7102.67  8.4337071E-03
   7103.00  8.7637300E-03
   7103.33  9.1227899E-03
   7103.67  9.5111272E-03
   7104.00  9.9322187E-03
   7104.33  1.0395540E-02
   7104.67  1.0902147E-02
   7105.00  1.1457924E-02
   7105.33  1.2078342E-02
   7105.67  1.2766447E-02
   7106.00  1.3533010E-02
   7106.33  1.4405439E-02
   7106.67  1.5392029E-02
   7107.00  1.6514740E-02
   7107.33  1.7828171E-02
   7107.67  1.9356476E-02
   7108.00  2.1152415E-02
   7108.33  2.3346823E-02
   7108.67  2.6024804E-02
   7109.00  2.9353902E-02
   7109.33  3.3770250E-02
   7109.67  3.9715107E-02
   7110.00  4.8059604E-02
   7110.33  6.1244030E-02
   7110.67  8.1339888E-02
   7111.00  1.0704995E-01
   7111.33  1.2851135E-01
   7111.67  1.4516734E-01
   7112.00  1.6983249E-01
   7112.33  2.1965236E-01
   7112.67  2.9866204E-01
   7113.00  4.0121890E-01
   7113.33  5.0610221E-01
   7113.67  6.0400079E-01
   7114.00  6.9167415E-01
   7114.33  6.9603653E-01
   7114.67  5.9996790E-01
   7115.00  4.7267199E-01
   7115.33  3.7317633E-01
   7115.67  3.0420801E-01
   7116.00  2.5931381E-01
   7116.33  2.3422650E-01
   7116.67  2.2264425E-01
   7117.00  2.2022761E-01
   7117.33  2.1733252E-01
   7117.67  2.0682688E-01
   7118.00  1.9076015E-01
   7118.33  1.7362947E-01
   7118.67  1.5800655E-01
   7119.00  1.4491806E-01
   7119.33  1.3500012E-01
   7119.67  1.2750931E-01
   7120.00  1.2189538E-01
   7120.33  1.1768097E-01
   7120.67  1.1439427E-01
   7121.00  1.1214764E-01
   7121.33  1.1143194E-01
   7121.67  1.1217888E-01
   7122.00  1.1414408E-01
   7122.33  1.1701477E-01
   7122.67  1.2047769E-01
   7123.00  1.2444698E-01
   7123.33  1.2870410E-01
   7123.67  1.3301222E-01
   7124.00  1.3760049E-01
   7124.33  1.4307074E-01
   7124.67  1.4966369E-01
   7125.00  1.5752142E-01
   7125.33  1.6691040E-01
   7125.67  1.7773337E-01
   7126.00  1.9005696E-01
   7126.33  2.0418987E-01
   7126.67  2.2008237E-01
   7127.00  2.3787637E-01
   7127.33  2.5790764E-01
   7127.67  2.7983453E-01
   7128.00  3.0347197E-01
   7128.33  3.2877147E-01
   7128.67  3.5534428E-01
   7129.00  3.8308227E-01
   7129.33  4.1224283E-01
   7129.67  4.4338734E-01
   7130.00  4.7801167E-01
   7130.33  5.1934619E-01
   7130.67  5.6850857E-01
   7131.00  6.2550806E-01
   7131.33  6.8913485E-01
   7131.67  7.5561138E-01
   7132.00  8.2242347E-01
   7132.33  8.8710046E-01
   7132.67  9.4834033E-01
   7133.00  1.0052010E+00
   7133.33  1.0559926E+00
   7133.67  1.0995180E+00
   7134.00  1.1325190E+00
   7134.33  1.1471959E+00
   7134.67  1.1401820E+00
   7135.00  1.1100721E+00
   7135.33  1.0581236E+00
   7135.67  9.9409154E-01
   7136.00  9.2442732E-01
   7136.33  8.5479622E-01
   7136.67  7.8860697E-01
   7137.00  7.2746444E-01
   7137.33  6.7311117E-01
   7137.67  6.2530026E-01
   7138.00  5.8428651E-01
   7138.33  5.5109169E-01
   7138.67  5.2482813E-01
   7139.00  5.0532891E-01
   7139.33  4.9298293E-01
   7139.67  4.8632714E-01
   7140.00  4.8458826E-01
   7140.33  4.8718883E-01
   7140.67  4.9254857E-01
   7141.00  4.9980905E-01
   7141.33  5.0831024E-01
   7141.67  5.1737806E-01
   7142.00  5.2674458E-01
   7142.33  5.3627016E-01
   7142.67  5.4585430E-01
   7143.00  5.5541882E-01
   7143.33  5.6479523E-01
   7143.67  5.7378796E-01
   7144.00  5.8217848E-01
   7144.33  5.8961718E-01
   7144.67  5.9602113E-01
   7145.00  6.0127868E-01
   7145.33  6.0515382E-01
   7145.67  6.0777505E-01
   7146.00  6.0916150E-01
   7146.33  6.0921797E-01
   7146.67  6.0816389E-01
   7147.00  6.0607571E-01
   7147.33  6.0295058E-01
   7147.67  5.9902155E-01
   7148.00  5.9439035E-01
   7148.33  5.8911312E-01
   7148.67  5.8339910E-01
   7149.00  5.7737087E-01
   7149.33  5.7115045E-01
   7149.67  5.6489827E-01
   7150.00  5.5872662E-01
   7150.33  5.5277936E-01
   7150.67  5.4713984E-01
   7151.00  5.4189269E-01
   7151.33  5.3717323E-01
   7151.67  5.3297672E-01
   7152.00  5.2933617E-01
   7152.33  5.2635636E-01
   7152.67  5.2398959E-01
   7153.00  5.2225327E-01
   7153.33  5.2124570E-01
   7153.67  5.2090184E-01
   7154.00  5.2123399E-01
   7154.33  5.2233872E-01
   7154.67  5.2413257E-01
   7155.00  5.2660634E-01
   7155.33  5.2981324E-01
   7155.67  5.3362197E-01
   7156.00  5.3797212E-01
   7156.33  5.4283198E-01
   7156.67  5.4804222E-01
   7157.00  5.5350812E-01
   7157.33  5.5913515E-01
   7157.67  5.6479463E-01
   7158.00  5.7039464E-01
   7158.33  5.7581287E-01
   7158.67  5.8097246E-01
   7159.00  5.8579316E-01
   7159.33  5.9013171E-01
   7159.67  5.9395761E-01
   7160.00  5.9720078E-01
   7160.33  5.9969627E-01
   7160.67  6.0144959E-01
   7161.00  6.0240190E-01
   7161.33  6.0238971E-01
   7161.67  6.0147820E-01
   7162.00  5.9964190E-01
   7162.33  5.9675529E-01
   7162.67  5.9295564E-01
   7163.00  5.8827827E-01
   7163.33  5.8267526E-01
   7163.67  5.7632484E-01
   7164.00  5.6930878E-01
   7164.33  5.6166281E-01
   7164.67  5.5356708E-01
   7165.00  5.4511561E-01
   7165.33  5.3638124E-01
   7165.67  5.2749187E-01
   7166.00  5.1852377E-01
   7166.33  5.0955632E-01
   7166.67  5.0065876E-01
   7167.00  4.9188379E-01
   7167.33  4.8330586E-01
   7167.67  4.7494720E-01
   7168.00  4.6684182E-01
   7168.33  4.5906160E-01
   7168.67  4.5160185E-01
   7169.00  4.4448790E-01
   7169.33  4.3779656E-01
   7169.67  4.3151169E-01
   7170.00  4.2565490E-01
   7170.33  4.2029996E-01
   7170.67  4.1540732E-01
   7171.00  4.1099572E-01
   7171.33  4.0716664E-01
   7171.67  4.0392205E-01
   7172.00  4.0134555E-01
