    FDMNES
    energy     <xanes>
   7097.00  5.0991664E-03
   7097.33  5.2163251E-03
   7097.67  5.3386363E-03
   7098.00  5.4664358E-03
   7098.33  5.6008941E-03
   7098.67  5.7417490E-03
   7099.00  5.8894524E-03
   7099.33  6.0455171E-03
   7099.67  6.2096669E-03
   7100.00  6.3825247E-03
   7100.33  6.5660921E-03
   7100.67  6.7600961E-03
   7101.00  6.9654197E-03
   7101.33  7.1847861E-03
   7101.67  7.4179639E-03
   7102.00  7.6662479E-03
   7102.33  7.9334683E-03
   7102.67  8.2195219E-03
   7103.00  8.5263853E-03
   7103.33  8.8596693E-03
   7103.67  9.2195933E-03
   7104.00  9.6093284E-03
   7104.33  1.0037521E-02
   7104.67  1.0505171E-02
   7105.00  1.1017693E-02
   7105.33  1.1589309E-02
   7105.67  1.2222947E-02
   7106.00  1.2928650E-02
   7106.33  1.3731926E-02
   7106.67  1.4640853E-02
   7107.00  1.5676267E-02
   7107.33  1.6889869E-02
   7107.67  1.8305442E-02
   7108.00  1.9973973E-02
   7108.33  2.2021588E-02
   7108.67  2.4531956E-02
   7109.00  2.7667662E-02
   7109.33  3.1848443E-02
   7109.67  3.7491241E-02
   7110.00  4.5408760E-02
   7110.33  5.7892650E-02
   7110.67  7.7416890E-02
   7111.00  1.0549947E-01
   7111.33  1.3838053E-01
   7111.67  1.7324414E-01
   7112.00  2.1324858E-01
   7112.33  2.5962548E-01
   7112.67  2.9834738E-01
   7113.00  3.1892587E-01
   7113.33  3.3386811E-01
   7113.67  3.5794062E-01
   7114.00  3.8511256E-01
   7114.33  3.9597686E-01
   7114.67  3.9121253E-01
   7115.00  3.7535904E-01
   7115.33  3.5006690E-01
   7115.67  3.2554955E-01
   7116.00  3.1008519E-01
   7116.33  3.0911058E-01
   7116.67  3.1782209E-01
   7117.00  3.2623004E-01
   7117.33  3.1594573E-01
   7117.67  2.8559848E-01
   7118.00  2.4696540E-01
   7118.33  2.1338913E-01
   7118.67  1.8784127E-01
   7119.00  1.6933487E-01
   7119.33  1.5664681E-01
   7119.67  1.4773146E-01
   7120.00  1.4176568E-01
   7120.33  1.3822605E-01
   7120.67  1.3614064E-01
   7121.00  1.3508630E-01
   7121.33  1.3515691E-01
   7121.67  1.3670582E-01
   7122.00  1.4023674E-01
   7122.33  1.4633062E-01
   7122.67  1.5456673E-01
   7123.00  1.6465831E-01
   7123.33  1.7657501E-01
   7123.67  1.9005218E-01
   7124.00  2.0503080E-01
   7124.33  2.2142990E-01
   7124.67  2.3884748E-01
   7125.00  2.5728418E-01
   7125.33  2.7678904E-01
   7125.67  2.9666308E-01
   7126.00  3.1635121E-01
   7126.33  3.3605761E-01
   7126.67  3.5698577E-01
   7127.00  3.8006824E-01
   7127.33  4.0503013E-01
   7127.67  4.2926579E-01
   7128.00  4.5036667E-01
   7128.33  4.6713284E-01
   7128.67  4.8211084E-01
   7129.00  4.9770202E-01
   7129.33  5.1637917E-01
   7129.67  5.3887313E-01
   7130.00  5.6522975E-01
   7130.33  5.9501699E-01
   7130.67  6.2634964E-01
   7131.00  6.5756528E-01
   7131.33  6.8639136E-01
   7131.67  7.1168574E-01
   7132.00  7.3302055E-01
   7132.33  7.5021071E-01
   7132.67  7.6468007E-01
   7133.00  7.7767974E-01
   7133.33  7.9088011E-01
   7133.67  8.0566384E-01
   7134.00  8.2264248E-01
   7134.33  8.4156947E-01
   7134.67  8.6013171E-01
   7135.00  8.7523516E-01
   7135.33  8.8152764E-01
   7135.67  8.7638135E-01
   7136.00  8.5868861E-01
   7136.33  8.2871436E-01
   7136.67  7.9156745E-01
   7137.00  7.5079294E-01
   7137.33  7.0975443E-01
   7137.67  6.7079403E-01
   7138.00  6.3517626E-01
   7138.33  6.0433274E-01
   7138.67  5.7819713E-01
   7139.00  5.5688425E-01
   7139.33  5.4082514E-01
   7139.67  5.2904719E-01
   7140.00  5.2110192E-01
   7140.33  5.1681545E-01
   7140.67  5.1518546E-01
   7141.00  5.1569835E-01
   7141.33  5.1793386E-01
   7141.67  5.2106576E-01
   7142.00  5.2453528E-01
   7142.33  5.2767036E-01
   7142.67  5.2995648E-01
   7143.00  5.3104689E-01
   7143.33  5.3056032E-01
   7143.67  5.2868249E-01
   7144.00  5.2556171E-01
   7144.33  5.2134446E-01
   7144.67  5.1645663E-01
   7145.00  5.1114946E-01
   7145.33  5.0566193E-01
   7145.67  5.0023101E-01
   7146.00  4.9501112E-01
   7146.33  4.9019526E-01
   7146.67  4.8585798E-01
   7147.00  4.8208257E-01
   7147.33  4.7902696E-01
   7147.67  4.7667107E-01
   7148.00  4.7505202E-01
   7148.33  4.7428630E-01
   7148.67  4.7427768E-01
   7149.00  4.7501719E-01
   7149.33  4.7657996E-01
   7149.67  4.7884940E-01
   7150.00  4.8179199E-01
   7150.33  4.8542581E-01
   7150.67  4.8960615E-01
   7151.00  4.9426959E-01
   7151.33  4.9938124E-01
   7151.67  5.0479619E-01
   7152.00  5.1042712E-01
   7152.33  5.1618417E-01
   7152.67  5.2195132E-01
   7153.00  5.2764558E-01
   7153.33  5.3315889E-01
   7153.67  5.3843481E-01
   7154.00  5.4341723E-01
   7154.33  5.4800954E-01
   7154.67  5.5221640E-01
   7155.00  5.5601713E-01
   7155.33  5.5935110E-01
   7155.67  5.6227769E-01
   7156.00  5.6481586E-01
   7156.33  5.6695578E-01
   7156.67  5.6878490E-01
   7157.00  5.7034430E-01
   7157.33  5.7165575E-01
   7157.67  5.7279307E-01
   7158.00  5.7379029E-01
   7158.33  5.7466392E-01
   7158.67  5.7544562E-01
   7159.00  5.7614080E-01
   7159.33  5.7673610E-01
   7159.67  5.7723343E-01
   7160.00  5.7762224E-01
   7160.33  5.7787610E-01
   7160.67  5.7799786E-01
   7161.00  5.7797725E-01
   7161.33  5.7778633E-01
   7161.67  5.7743810E-01
   7162.00  5.7692807E-01
   7162.33  5.7623068E-01
   7162.67  5.7536369E-01
   7163.00  5.7432463E-01
   7163.33  5.7308889E-01
   7163.67  5.7167461E-01
   7164.00  5.7007660E-01
   7164.33  5.6826417E-01
   7164.67  5.6625402E-01
   7165.00  5.6403995E-01
   7165.33  5.6158999E-01
   7165.67  5.5892706E-01
   7166.00  5.5605015E-01
   7166.33  5.5293400E-01
   7166.67  5.4960986E-01
   7167.00  5.4608454E-01
   7167.33  5.4234532E-01
   7167.67  5.3842780E-01
   7168.00  5.3434268E-01
   7168.33  5.3008672E-01
   7168.67  5.2569843E-01
   7169.00  5.2119598E-01
   7169.33  5.1659084E-01
   7169.67  5.1192307E-01
   7170.00  5.0722298E-01
   7170.33  5.0253465E-01
   7170.67  4.9791280E-01
   7171.00  4.9342415E-01
   7171.33  4.8921792E-01
   7171.67  4.8545992E-01
   7172.00  4.8239465E-01
