    FDMNES
    energy     <xanes>
   7097.00  5.0821364E-03
   7097.33  5.1986000E-03
   7097.67  5.3201662E-03
   7098.00  5.4471666E-03
   7098.33  5.5807585E-03
   7098.67  5.7206807E-03
   7099.00  5.8673787E-03
   7099.33  6.0223472E-03
   7099.67  6.1853106E-03
   7100.00  6.3568829E-03
   7100.33  6.5390398E-03
   7100.67  6.7315084E-03
   7101.00  6.9351583E-03
   7101.33  7.1526752E-03
   7101.67  7.3838266E-03
   7102.00  7.6298869E-03
   7102.33  7.8946305E-03
   7102.67  8.1779503E-03
   7103.00  8.4817908E-03
   7103.33  8.8116778E-03
   7103.67  9.1678210E-03
   7104.00  9.5533399E-03
   7104.33  9.9767473E-03
   7104.67  1.0439022E-02
   7105.00  1.0945494E-02
   7105.33  1.1510169E-02
   7105.67  1.2135937E-02
   7106.00  1.2832699E-02
   7106.33  1.3625619E-02
   7106.67  1.4522715E-02
   7107.00  1.5544619E-02
   7107.33  1.6742551E-02
   7107.67  1.8140339E-02
   7108.00  1.9788923E-02
   7108.33  2.1814534E-02
   7108.67  2.4302411E-02
   7109.00  2.7418144E-02
   7109.33  3.1591683E-02
   7109.67  3.7261143E-02
   7110.00  4.5283370E-02
   7110.33  5.8065822E-02
   7110.67  7.7953433E-02
   7111.00  1.0543104E-01
   7111.33  1.3644364E-01
   7111.67  1.6856574E-01
   7112.00  2.0304278E-01
   7112.33  2.4390580E-01
   7112.67  2.8474300E-01
   7113.00  3.1093319E-01
   7113.33  3.2338662E-01
   7113.67  3.4334836E-01
   7114.00  3.7210063E-01
   7114.33  3.8878809E-01
   7114.67  3.8816276E-01
   7115.00  3.7658659E-01
   7115.33  3.5589593E-01
   7115.67  3.3303132E-01
   7116.00  3.1655589E-01
   7116.33  3.1383000E-01
   7116.67  3.2186253E-01
   7117.00  3.3185030E-01
   7117.33  3.2503851E-01
   7117.67  2.9654895E-01
   7118.00  2.5699843E-01
   7118.33  2.2126384E-01
   7118.67  1.9381057E-01
   7119.00  1.7386816E-01
   7119.33  1.6011718E-01
   7119.67  1.5035373E-01
   7120.00  1.4374960E-01
   7120.33  1.3983625E-01
   7120.67  1.3757690E-01
   7121.00  1.3645509E-01
   7121.33  1.3642216E-01
   7121.67  1.3776604E-01
   7122.00  1.4102689E-01
   7122.33  1.4691602E-01
   7122.67  1.5513963E-01
   7123.00  1.6545208E-01
   7123.33  1.7780691E-01
   7123.67  1.9186862E-01
   7124.00  2.0761256E-01
   7124.33  2.2504538E-01
   7124.67  2.4354385E-01
   7125.00  2.6276433E-01
   7125.33  2.8236476E-01
   7125.67  3.0157324E-01
   7126.00  3.1993398E-01
   7126.33  3.3787377E-01
   7126.67  3.5675828E-01
   7127.00  3.7768903E-01
   7127.33  4.0129916E-01
   7127.67  4.2604050E-01
   7128.00  4.4979594E-01
   7128.33  4.7029020E-01
   7128.67  4.8823369E-01
   7129.00  5.0513183E-01
   7129.33  5.2293525E-01
   7129.67  5.4299984E-01
   7130.00  5.6596046E-01
   7130.33  5.9205075E-01
   7130.67  6.2002459E-01
   7131.00  6.4866593E-01
   7131.33  6.7621747E-01
   7131.67  7.0144453E-01
   7132.00  7.2373586E-01
   7132.33  7.4267436E-01
   7132.67  7.5925407E-01
   7133.00  7.7446187E-01
   7133.33  7.8971276E-01
   7133.67  8.0625785E-01
   7134.00  8.2464865E-01
   7134.33  8.4457242E-01
   7134.67  8.6374510E-01
   7135.00  8.7904089E-01
   7135.33  8.8503788E-01
   7135.67  8.7923723E-01
   7136.00  8.6067117E-01
   7136.33  8.2977622E-01
   7136.67  7.9178102E-01
   7137.00  7.5025688E-01
   7137.33  7.0853927E-01
   7137.67  6.6889576E-01
   7138.00  6.3254305E-01
   7138.33  6.0088802E-01
   7138.67  5.7390671E-01
   7139.00  5.5177149E-01
   7139.33  5.3499907E-01
   7139.67  5.2266222E-01
   7140.00  5.1434015E-01
   7140.33  5.0988917E-01
   7140.67  5.0826786E-01
   7141.00  5.0894069E-01
   7141.33  5.1147942E-01
   7141.67  5.1502355E-01
   7142.00  5.1900176E-01
   7142.33  5.2273401E-01
   7142.67  5.2566344E-01
   7143.00  5.2739811E-01
   7143.33  5.2748173E-01
   7143.67  5.2604633E-01
   7144.00  5.2320875E-01
   7144.33  5.1909577E-01
   7144.67  5.1418860E-01
   7145.00  5.0878551E-01
   7145.33  5.0318112E-01
   7145.67  4.9766357E-01
   7146.00  4.9241663E-01
   7146.33  4.8766168E-01
   7146.67  4.8346789E-01
   7147.00  4.7991432E-01
   7147.33  4.7715673E-01
   7147.67  4.7514765E-01
   7148.00  4.7389576E-01
   7148.33  4.7348333E-01
   7148.67  4.7380197E-01
   7149.00  4.7483838E-01
   7149.33  4.7665930E-01
   7149.67  4.7914663E-01
   7150.00  4.8226362E-01
   7150.33  4.8602221E-01
   7150.67  4.9027827E-01
   7151.00  4.9497012E-01
   7151.33  5.0007002E-01
   7151.67  5.0545623E-01
   7152.00  5.1106191E-01
   7152.33  5.1682804E-01
   7152.67  5.2266220E-01
   7153.00  5.2850248E-01
   7153.33  5.3427224E-01
   7153.67  5.3991404E-01
   7154.00  5.4537445E-01
   7154.33  5.5056579E-01
   7154.67  5.5546774E-01
   7155.00  5.6004565E-01
   7155.33  5.6422760E-01
   7155.67  5.6804323E-01
   7156.00  5.7148973E-01
   7156.33  5.7453020E-01
   7156.67  5.7722933E-01
   7157.00  5.7961002E-01
   7157.33  5.8166603E-01
   7157.67  5.8346252E-01
   7158.00  5.8502122E-01
   7158.33  5.8633444E-01
   7158.67  5.8744168E-01
   7159.00  5.8834714E-01
   7159.33  5.8902517E-01
   7159.67  5.8949775E-01
   7160.00  5.8976075E-01
   7160.33  5.8978331E-01
   7160.67  5.8959228E-01
   7161.00  5.8918944E-01
   7161.33  5.8855041E-01
   7161.67  5.8770497E-01
   7162.00  5.8665642E-01
   7162.33  5.8538023E-01
   7162.67  5.8390145E-01
   7163.00  5.8221966E-01
   7163.33  5.8030847E-01
   7163.67  5.7819140E-01
   7164.00  5.7586507E-01
   7164.33  5.7329886E-01
   7164.67  5.7051582E-01
   7165.00  5.6751390E-01
   7165.33  5.6426660E-01
   7165.67  5.6080591E-01
   7166.00  5.5713855E-01
   7166.33  5.5325124E-01
   7166.67  5.4918324E-01
   7167.00  5.4494909E-01
   7167.33  5.4054963E-01
   7167.67  5.3602556E-01
   7168.00  5.3139577E-01
   7168.33  5.2667086E-01
   7168.67  5.2188382E-01
   7169.00  5.1705576E-01
   7169.33  5.1220878E-01
   7169.67  5.0737018E-01
   7170.00  5.0256506E-01
   7170.33  4.9783621E-01
   7170.67  4.9322030E-01
   7171.00  4.8877292E-01
   7171.33  4.8463109E-01
   7171.67  4.8094118E-01
   7172.00  4.7793237E-01
