    FDMNES
    energy     <xanes>
   7097.00  5.2409445E-03
   7097.33  5.3704985E-03
   7097.67  5.5061756E-03
   7098.00  5.6484016E-03
   7098.33  5.7986128E-03
   7098.67  5.9565340E-03
   7099.00  6.1227477E-03
   7099.33  6.2991412E-03
   7099.67  6.4854346E-03
   7100.00  6.6824447E-03
   7100.33  6.8927155E-03
   7100.67  7.1159909E-03
   7101.00  7.3534507E-03
   7101.33  7.6086271E-03
   7101.67  7.8813510E-03
   7102.00  8.1733876E-03
   7102.33  8.4898160E-03
   7102.67  8.8306927E-03
   7103.00  9.1987702E-03
   7103.33  9.6016698E-03
   7103.67  1.0039982E-02
   7104.00  1.0518222E-02
   7104.33  1.1048437E-02
   7104.67  1.1632475E-02
   7105.00  1.2278220E-02
   7105.33  1.3006014E-02
   7105.67  1.3820767E-02
   7106.00  1.4737406E-02
   7106.33  1.5793348E-02
   7106.67  1.7001572E-02
   7107.00  1.8393546E-02
   7107.33  2.0046614E-02
   7107.67  2.1997874E-02
   7108.00  2.4324593E-02
   7108.33  2.7216320E-02
   7108.67  3.0798469E-02
   7109.00  3.5311251E-02
   7109.33  4.1365961E-02
   7109.67  4.9542664E-02
   7110.00  6.0952727E-02
   7110.33  7.8657826E-02
   7110.67  1.0589649E-01
   7111.00  1.4568423E-01
   7111.33  2.0217164E-01
   7111.67  2.8082463E-01
   7112.00  3.8336170E-01
   7112.33  4.9910619E-01
   7112.67  5.9328588E-01
   7113.00  6.2652678E-01
   7113.33  5.6984110E-01
   7113.67  4.7029250E-01
   7114.00  3.7386028E-01
   7114.33  3.0535799E-01
   7114.67  2.6009892E-01
   7115.00  2.3332372E-01
   7115.33  2.2232384E-01
   7115.67  2.2065403E-01
   7116.00  2.2249587E-01
   7116.33  2.2074562E-01
   7116.67  2.1321566E-01
   7117.00  2.0087677E-01
   7117.33  1.8636498E-01
   7117.67  1.7278058E-01
   7118.00  1.6134196E-01
   7118.33  1.5234633E-01
   7118.67  1.4494125E-01
   7119.00  1.3874046E-01
   7119.33  1.3380072E-01
   7119.67  1.3007462E-01
   7120.00  1.2762252E-01
   7120.33  1.2662210E-01
   7120.67  1.2671202E-01
   7121.00  1.2754379E-01
   7121.33  1.2898846E-01
   7121.67  1.3112264E-01
   7122.00  1.3406750E-01
   7122.33  1.3788115E-01
   7122.67  1.4227246E-01
   7123.00  1.4703815E-01
   7123.33  1.5221938E-01
   7123.67  1.5819115E-01
   7124.00  1.6547054E-01
   7124.33  1.7478657E-01
   7124.67  1.8624144E-01
   7125.00  1.9996962E-01
   7125.33  2.1621710E-01
   7125.67  2.3455478E-01
   7126.00  2.5492939E-01
   7126.33  2.7769127E-01
   7126.67  3.0252001E-01
   7127.00  3.2901126E-01
   7127.33  3.5656137E-01
   7127.67  3.8471377E-01
   7128.00  4.1394043E-01
   7128.33  4.4579365E-01
   7128.67  4.8111088E-01
   7129.00  5.2009798E-01
   7129.33  5.6264296E-01
   7129.67  6.0810172E-01
   7130.00  6.5703004E-01
   7130.33  7.1079490E-01
   7130.67  7.6842990E-01
   7131.00  8.2795363E-01
   7131.33  8.8536719E-01
   7131.67  9.3675656E-01
   7132.00  9.7914448E-01
   7132.33  1.0086867E+00
   7132.67  1.0253606E+00
   7133.00  1.0286826E+00
   7133.33  1.0176863E+00
   7133.67  9.9587956E-01
   7134.00  9.6547094E-01
   7134.33  9.2819474E-01
   7134.67  8.8690248E-01
   7135.00  8.4309417E-01
   7135.33  7.9815287E-01
   7135.67  7.5346846E-01
   7136.00  7.0991209E-01
   7136.33  6.6851280E-01
   7136.67  6.2965692E-01
   7137.00  5.9381596E-01
   7137.33  5.6193968E-01
   7137.67  5.3404340E-01
   7138.00  5.1043683E-01
   7138.33  4.9187882E-01
   7138.67  4.7777876E-01
   7139.00  4.6791908E-01
   7139.33  4.6233193E-01
   7139.67  4.5997615E-01
   7140.00  4.6034026E-01
   7140.33  4.6314319E-01
   7140.67  4.6765730E-01
   7141.00  4.7358036E-01
   7141.33  4.8079306E-01
   7141.67  4.8895271E-01
   7142.00  4.9791047E-01
   7142.33  5.0756648E-01
   7142.67  5.1764201E-01
   7143.00  5.2794391E-01
   7143.33  5.3823712E-01
   7143.67  5.4830049E-01
   7144.00  5.5796689E-01
   7144.33  5.6700421E-01
   7144.67  5.7534595E-01
   7145.00  5.8288225E-01
   7145.33  5.8936035E-01
   7145.67  5.9474702E-01
   7146.00  5.9890416E-01
   7146.33  6.0150541E-01
   7146.67  6.0260632E-01
   7147.00  6.0215946E-01
   7147.33  6.0000794E-01
   7147.67  5.9648314E-01
   7148.00  5.9178268E-01
   7148.33  5.8609236E-01
   7148.67  5.7986317E-01
   7149.00  5.7337547E-01
   7149.33  5.6691194E-01
   7149.67  5.6071128E-01
   7150.00  5.5495181E-01
   7150.33  5.4988172E-01
   7150.67  5.4555727E-01
   7151.00  5.4206346E-01
   7151.33  5.3957992E-01
   7151.67  5.3802999E-01
   7152.00  5.3742005E-01
   7152.33  5.3784536E-01
   7152.67  5.3914327E-01
   7153.00  5.4125187E-01
   7153.33  5.4416691E-01
   7153.67  5.4768588E-01
   7154.00  5.5170095E-01
   7154.33  5.5612541E-01
   7154.67  5.6078131E-01
   7155.00  5.6555967E-01
   7155.33  5.7034433E-01
   7155.67  5.7503113E-01
   7156.00  5.7954278E-01
   7156.33  5.8377134E-01
   7156.67  5.8768469E-01
   7157.00  5.9123600E-01
   7157.33  5.9432388E-01
   7157.67  5.9695165E-01
   7158.00  5.9907919E-01
   7158.33  6.0059346E-01
   7158.67  6.0152062E-01
   7159.00  6.0182822E-01
   7159.33  6.0140453E-01
   7159.67  6.0031269E-01
   7160.00  5.9854631E-01
   7160.33  5.9602145E-01
   7160.67  5.9283551E-01
   7161.00  5.8901434E-01
   7161.33  5.8452460E-01
   7161.67  5.7949022E-01
   7162.00  5.7396242E-01
   7162.33  5.6795188E-01
   7162.67  5.6157778E-01
   7163.00  5.5489605E-01
   7163.33  5.4793869E-01
   7163.67  5.4079495E-01
   7164.00  5.3351164E-01
   7164.33  5.2612620E-01
   7164.67  5.1869295E-01
   7165.00  5.1124585E-01
   7165.33  5.0382315E-01
   7165.67  4.9645456E-01
   7166.00  4.8916671E-01
   7166.33  4.8200168E-01
   7166.67  4.7497207E-01
   7167.00  4.6809973E-01
   7167.33  4.6143167E-01
   7167.67  4.5496879E-01
   7168.00  4.4873355E-01
   7168.33  4.4278389E-01
   7168.67  4.3711045E-01
   7169.00  4.3172901E-01
   7169.33  4.2669455E-01
   7169.67  4.2198619E-01
   7170.00  4.1761905E-01
   7170.33  4.1365381E-01
   7170.67  4.1006009E-01
   7171.00  4.0685083E-01
   7171.33  4.0409732E-01
   7171.67  4.0178442E-01
   7172.00  3.9995450E-01
