    FDMNES
    energy     <xanes>
   7097.00  5.3882248E-03
   7097.33  5.5245633E-03
   7097.67  5.6674792E-03
   7098.00  5.8174368E-03
   7098.33  5.9759903E-03
   7098.67  6.1428535E-03
   7099.00  6.3186630E-03
   7099.33  6.5054688E-03
   7099.67  6.7029818E-03
   7100.00  6.9120979E-03
   7100.33  7.1355904E-03
   7100.67  7.3732003E-03
   7101.00  7.6262262E-03
   7101.33  7.8985335E-03
   7101.67  8.1899652E-03
   7102.00  8.5024708E-03
   7102.33  8.8416321E-03
   7102.67  9.2075510E-03
   7103.00  9.6032793E-03
   7103.33  1.0037230E-02
   7103.67  1.0510113E-02
   7104.00  1.1026958E-02
   7104.33  1.1601127E-02
   7104.67  1.2234765E-02
   7105.00  1.2936694E-02
   7105.33  1.3729606E-02
   7105.67  1.4619145E-02
   7106.00  1.5622115E-02
   7106.33  1.6780543E-02
   7106.67  1.8109355E-02
   7107.00  1.9644269E-02
   7107.33  2.1472979E-02
   7107.67  2.3638475E-02
   7108.00  2.6229588E-02
   7108.33  2.9464479E-02
   7108.67  3.3491047E-02
   7109.00  3.8591904E-02
   7109.33  4.5490608E-02
   7109.67  5.4895758E-02
   7110.00  6.8171846E-02
   7110.33  8.9105098E-02
   7110.67  1.2159907E-01
   7111.00  1.6817327E-01
   7111.33  2.2849758E-01
   7111.67  3.0946232E-01
   7112.00  4.2136742E-01
   7112.33  5.4737218E-01
   7112.67  6.4036583E-01
   7113.00  6.7660555E-01
   7113.33  6.3160567E-01
   7113.67  5.3661638E-01
   7114.00  4.3466426E-01
   7114.33  3.5469573E-01
   7114.67  2.9655889E-01
   7115.00  2.5603813E-01
   7115.33  2.2991022E-01
   7115.67  2.1350446E-01
   7116.00  2.0517842E-01
   7116.33  2.0321459E-01
   7116.67  2.0182743E-01
   7117.00  1.9590181E-01
   7117.33  1.8391885E-01
   7117.67  1.7005608E-01
   7118.00  1.5684446E-01
   7118.33  1.4599518E-01
   7118.67  1.3754467E-01
   7119.00  1.3113052E-01
   7119.33  1.2631022E-01
   7119.67  1.2252853E-01
   7120.00  1.1980950E-01
   7120.33  1.1861940E-01
   7120.67  1.1895808E-01
   7121.00  1.2068839E-01
   7121.33  1.2353243E-01
   7121.67  1.2690488E-01
   7122.00  1.3054024E-01
   7122.33  1.3435152E-01
   7122.67  1.3833790E-01
   7123.00  1.4256182E-01
   7123.33  1.4721971E-01
   7123.67  1.5254903E-01
   7124.00  1.5890143E-01
   7124.33  1.6688469E-01
   7124.67  1.7663257E-01
   7125.00  1.8830664E-01
   7125.33  2.0230599E-01
   7125.67  2.1850494E-01
   7126.00  2.3698683E-01
   7126.33  2.5810902E-01
   7126.67  2.8155720E-01
   7127.00  3.0709903E-01
   7127.33  3.3426944E-01
   7127.67  3.6200726E-01
   7128.00  3.8977029E-01
   7128.33  4.1782127E-01
   7128.67  4.4742468E-01
   7129.00  4.8006369E-01
   7129.33  5.1775781E-01
   7129.67  5.6097108E-01
   7130.00  6.1052325E-01
   7130.33  6.6846351E-01
   7130.67  7.3464741E-01
   7131.00  8.0857255E-01
   7131.33  8.8777235E-01
   7131.67  9.6574612E-01
   7132.00  1.0358908E+00
   7132.33  1.0883792E+00
   7132.67  1.1189322E+00
   7133.00  1.1249649E+00
   7133.33  1.1049464E+00
   7133.67  1.0670618E+00
   7134.00  1.0171236E+00
   7134.33  9.6048529E-01
   7134.67  9.0225884E-01
   7135.00  8.4480062E-01
   7135.33  7.8997554E-01
   7135.67  7.3830172E-01
   7136.00  6.9017155E-01
   7136.33  6.4639021E-01
   7136.67  6.0676476E-01
   7137.00  5.7154839E-01
   7137.33  5.4160077E-01
   7137.67  5.1653436E-01
   7138.00  4.9641007E-01
   7138.33  4.8173266E-01
   7138.67  4.7160601E-01
   7139.00  4.6565420E-01
   7139.33  4.6380539E-01
   7139.67  4.6505379E-01
   7140.00  4.6896215E-01
   7140.33  4.7536966E-01
   7140.67  4.8363675E-01
   7141.00  4.9349771E-01
   7141.33  5.0482877E-01
   7141.67  5.1717475E-01
   7142.00  5.3026654E-01
   7142.33  5.4381832E-01
   7142.67  5.5742828E-01
   7143.00  5.7079940E-01
   7143.33  5.8353974E-01
   7143.67  5.9543842E-01
   7144.00  6.0629351E-01
   7144.33  6.1576389E-01
   7144.67  6.2386443E-01
   7145.00  6.3051020E-01
   7145.33  6.3544897E-01
   7145.67  6.3884396E-01
   7146.00  6.4070037E-01
   7146.33  6.4086542E-01
   7146.67  6.3958338E-01
   7147.00  6.3691875E-01
   7147.33  6.3281096E-01
   7147.67  6.2754716E-01
   7148.00  6.2125548E-01
   7148.33  6.1399581E-01
   7148.67  6.0605998E-01
   7149.00  5.9762117E-01
   7149.33  5.8884691E-01
   7149.67  5.7996400E-01
   7150.00  5.7112391E-01
   7150.33  5.6251443E-01
   7150.67  5.5425440E-01
   7151.00  5.4645328E-01
   7151.33  5.3929327E-01
   7151.67  5.3279892E-01
   7152.00  5.2704299E-01
   7152.33  5.2220285E-01
   7152.67  5.1824457E-01
   7153.00  5.1522011E-01
   7153.33  5.1330363E-01
   7153.67  5.1240999E-01
   7154.00  5.1255768E-01
   7154.33  5.1387505E-01
   7154.67  5.1619830E-01
   7155.00  5.1946950E-01
   7155.33  5.2369266E-01
   7155.67  5.2862551E-01
   7156.00  5.3412779E-01
   7156.33  5.4006630E-01
   7156.67  5.4620109E-01
   7157.00  5.5236793E-01
   7157.33  5.5836537E-01
   7157.67  5.6404582E-01
   7158.00  5.6928215E-01
   7158.33  5.7387421E-01
   7158.67  5.7778650E-01
   7159.00  5.8094561E-01
   7159.33  5.8318686E-01
   7159.67  5.8457341E-01
   7160.00  5.8508869E-01
   7160.33  5.8461767E-01
   7160.67  5.8328517E-01
   7161.00  5.8112523E-01
   7161.33  5.7809238E-01
   7161.67  5.7434066E-01
   7162.00  5.6992972E-01
   7162.33  5.6486511E-01
   7162.67  5.5929853E-01
   7163.00  5.5329689E-01
   7163.33  5.4689104E-01
   7163.67  5.4019764E-01
   7164.00  5.3327385E-01
   7164.33  5.2615843E-01
   7164.67  5.1892570E-01
   7165.00  5.1161641E-01
   7165.33  5.0426913E-01
   7165.67  4.9692624E-01
   7166.00  4.8961747E-01
   7166.33  4.8238284E-01
   7166.67  4.7524291E-01
   7167.00  4.6822064E-01
   7167.33  4.6136069E-01
   7167.67  4.5467489E-01
   7168.00  4.4819461E-01
   7168.33  4.4198558E-01
   7168.67  4.3604629E-01
   7169.00  4.3040044E-01
   7169.33  4.2511487E-01
   7169.67  4.2017437E-01
   7170.00  4.1559894E-01
   7170.33  4.1145799E-01
   7170.67  4.0772201E-01
   7171.00  4.0440598E-01
   7171.33  4.0158484E-01
   7171.67  3.9923389E-01
   7172.00  3.9738595E-01
