    FDMNES
    energy     <xanes>
   7097.00  4.3645961E-03
   7097.33  4.4524121E-03
   7097.67  4.5435432E-03
   7098.00  4.6381813E-03
   7098.33  4.7370400E-03
   7098.67  4.8399204E-03
   7099.00  4.9470766E-03
   7099.33  5.0594108E-03
   7099.67  5.1767116E-03
   7100.00  5.2993252E-03
   7100.33  5.4284213E-03
   7100.67  5.5637862E-03
   7101.00  5.7059071E-03
   7101.33  5.8563492E-03
   7101.67  6.0149206E-03
   7102.00  6.1823355E-03
   7102.33  6.3607730E-03
   7102.67  6.5501189E-03
   7103.00  6.7514754E-03
   7103.33  6.9680333E-03
   7103.67  7.1998904E-03
   7104.00  7.4488608E-03
   7104.33  7.7199340E-03
   7104.67  8.0137574E-03
   7105.00  8.3335748E-03
   7105.33  8.6879013E-03
   7105.67  9.0788596E-03
   7106.00  9.5129224E-03
   7106.33  1.0006461E-02
   7106.67  1.0565957E-02
   7107.00  1.1206420E-02
   7107.33  1.1965074E-02
   7107.67  1.2863604E-02
   7108.00  1.3945163E-02
   7108.33  1.5318156E-02
   7108.67  1.7073353E-02
   7109.00  1.9382868E-02
   7109.33  2.2711059E-02
   7109.67  2.7623969E-02
   7110.00  3.5246500E-02
   7110.33  4.8858833E-02
   7110.67  7.1703712E-02
   7111.00  1.0219512E-01
   7111.33  1.1983231E-01
   7111.67  1.1447039E-01
   7112.00  9.9805348E-02
   7112.33  9.0128236E-02
   7112.67  8.4177399E-02
   7113.00  7.9735350E-02
   7113.33  7.8966900E-02
   7113.67  8.3498565E-02
   7114.00  8.9596457E-02
   7114.33  8.5466671E-02
   7114.67  7.7198473E-02
   7115.00  7.4260567E-02
   7115.33  7.9615785E-02
   7115.67  9.1224032E-02
   7116.00  1.0679480E-01
   7116.33  1.2064632E-01
   7116.67  1.3004699E-01
   7117.00  1.3902680E-01
   7117.33  1.5398423E-01
   7117.67  1.7476618E-01
   7118.00  1.9751741E-01
   7118.33  2.1600390E-01
   7118.67  2.2847940E-01
   7119.00  2.3617706E-01
   7119.33  2.4147530E-01
   7119.67  2.4709447E-01
   7120.00  2.5407660E-01
   7120.33  2.6271021E-01
   7120.67  2.7239460E-01
   7121.00  2.8253897E-01
   7121.33  2.9240243E-01
   7121.67  3.0184189E-01
   7122.00  3.1129745E-01
   7122.33  3.2149299E-01
   7122.67  3.3254210E-01
   7123.00  3.4431097E-01
   7123.33  3.5680666E-01
   7123.67  3.7007310E-01
   7124.00  3.8412804E-01
   7124.33  3.9874953E-01
   7124.67  4.1332518E-01
   7125.00  4.2721800E-01
   7125.33  4.3983811E-01
   7125.67  4.5107796E-01
   7126.00  4.6057172E-01
   7126.33  4.6863789E-01
   7126.67  4.7710346E-01
   7127.00  4.8725522E-01
   7127.33  4.9971700E-01
   7127.67  5.1400341E-01
   7128.00  5.3014757E-01
   7128.33  5.4884043E-01
   7128.67  5.7025210E-01
   7129.00  5.9451141E-01
   7129.33  6.2148342E-01
   7129.67  6.4982557E-01
   7130.00  6.7835926E-01
   7130.33  7.0542147E-01
   7130.67  7.2965424E-01
   7131.00  7.4991136E-01
   7131.33  7.6510333E-01
   7131.67  7.7658816E-01
   7132.00  7.8549747E-01
   7132.33  7.9205888E-01
   7132.67  7.9596666E-01
   7133.00  7.9649130E-01
   7133.33  7.9240967E-01
   7133.67  7.8399013E-01
   7134.00  7.7178392E-01
   7134.33  7.5676751E-01
   7134.67  7.4054822E-01
   7135.00  7.2408797E-01
   7135.33  7.0792243E-01
   7135.67  6.9154961E-01
   7136.00  6.7437758E-01
   7136.33  6.5613419E-01
   7136.67  6.3731927E-01
   7137.00  6.1837896E-01
   7137.33  5.9975762E-01
   7137.67  5.8166975E-01
   7138.00  5.6425875E-01
   7138.33  5.4779459E-01
   7138.67  5.3237667E-01
   7139.00  5.1821035E-01
   7139.33  5.0572591E-01
   7139.67  4.9495035E-01
   7140.00  4.8602622E-01
   7140.33  4.7930250E-01
   7140.67  4.7454882E-01
   7141.00  4.7171651E-01
   7141.33  4.7093260E-01
   7141.67  4.7183493E-01
   7142.00  4.7428677E-01
   7142.33  4.7827442E-01
   7142.67  4.8340658E-01
   7143.00  4.8945186E-01
   7143.33  4.9614800E-01
   7143.67  5.0301570E-01
   7144.00  5.0966863E-01
   7144.33  5.1559156E-01
   7144.67  5.2052807E-01
   7145.00  5.2431592E-01
   7145.33  5.2678197E-01
   7145.67  5.2818583E-01
   7146.00  5.2868945E-01
   7146.33  5.2842687E-01
   7146.67  5.2771092E-01
   7147.00  5.2673585E-01
   7147.33  5.2571625E-01
   7147.67  5.2486891E-01
   7148.00  5.2435996E-01
   7148.33  5.2439791E-01
   7148.67  5.2499765E-01
   7149.00  5.2615329E-01
   7149.33  5.2782983E-01
   7149.67  5.2979638E-01
   7150.00  5.3185543E-01
   7150.33  5.3372147E-01
   7150.67  5.3514086E-01
   7151.00  5.3588643E-01
   7151.33  5.3562854E-01
   7151.67  5.3434041E-01
   7152.00  5.3196448E-01
   7152.33  5.2835751E-01
   7152.67  5.2370569E-01
   7153.00  5.1808709E-01
   7153.33  5.1151538E-01
   7153.67  5.0423399E-01
   7154.00  4.9636622E-01
   7154.33  4.8799593E-01
   7154.67  4.7930557E-01
   7155.00  4.7039038E-01
   7155.33  4.6133008E-01
   7155.67  4.5222580E-01
   7156.00  4.4314609E-01
   7156.33  4.3418022E-01
   7156.67  4.2539245E-01
   7157.00  4.1685189E-01
   7157.33  4.0868309E-01
   7157.67  4.0092781E-01
   7158.00  3.9365454E-01
   7158.33  3.8700305E-01
   7158.67  3.8096095E-01
   7159.00  3.7556389E-01
   7159.33  3.7091901E-01
   7159.67  3.6694598E-01
   7160.00  3.6363365E-01
   7160.33  3.6103773E-01
   7160.67  3.5904561E-01
   7161.00  3.5762217E-01
   7161.33  3.5679035E-01
   7161.67  3.5644666E-01
   7162.00  3.5656259E-01
   7162.33  3.5715755E-01
   7162.67  3.5814862E-01
   7163.00  3.5951330E-01
   7163.33  3.6126783E-01
   7163.67  3.6333956E-01
   7164.00  3.6570142E-01
   7164.33  3.6835208E-01
   7164.67  3.7122393E-01
   7165.00  3.7428654E-01
   7165.33  3.7752607E-01
   7165.67  3.8089185E-01
   7166.00  3.8435986E-01
   7166.33  3.8791636E-01
   7166.67  3.9153236E-01
   7167.00  3.9519355E-01
   7167.33  3.9888745E-01
   7167.67  4.0259311E-01
   7168.00  4.0629473E-01
   7168.33  4.0997271E-01
   7168.67  4.1361796E-01
   7169.00  4.1722710E-01
   7169.33  4.2080133E-01
   7169.67  4.2435619E-01
   7170.00  4.2790170E-01
   7170.33  4.3144164E-01
   7170.67  4.3496377E-01
   7171.00  4.3843346E-01
   7171.33  4.4174725E-01
   7171.67  4.4475484E-01
   7172.00  4.4723596E-01
