    FDMNES
    energy     <xanes>
   7097.00  4.5954004E-03
   7097.33  4.7055195E-03
   7097.67  4.8208881E-03
   7098.00  4.9418808E-03
   7098.33  5.0697449E-03
   7098.67  5.2042582E-03
   7099.00  5.3459374E-03
   7099.33  5.4964360E-03
   7099.67  5.6555350E-03
   7100.00  5.8239672E-03
   7100.33  6.0039850E-03
   7100.67  6.1954037E-03
   7101.00  6.3992974E-03
   7101.33  6.6188352E-03
   7101.67  6.8539363E-03
   7102.00  7.1062364E-03
   7102.33  7.3803727E-03
   7102.67  7.6765221E-03
   7103.00  7.9972958E-03
   7103.33  8.3498141E-03
   7103.67  8.7348670E-03
   7104.00  9.1568745E-03
   7104.33  9.6274538E-03
   7104.67  1.0148881E-02
   7105.00  1.0729221E-02
   7105.33  1.1388991E-02
   7105.67  1.2134299E-02
   7106.00  1.2981412E-02
   7106.33  1.3970684E-02
   7106.67  1.5119258E-02
   7107.00  1.6464867E-02
   7107.33  1.8100160E-02
   7107.67  2.0080129E-02
   7108.00  2.2512576E-02
   7108.33  2.5667299E-02
   7108.67  2.9770866E-02
   7109.00  3.5252567E-02
   7109.33  4.3274088E-02
   7109.67  5.5265708E-02
   7110.00  7.4073811E-02
   7110.33  1.0778379E-01
   7110.67  1.6174169E-01
   7111.00  2.2120493E-01
   7111.33  2.4062533E-01
   7111.67  2.3892895E-01
   7112.00  2.3764818E-01
   7112.33  2.5523849E-01
   7112.67  2.9370566E-01
   7113.00  3.3649805E-01
   7113.33  3.7118574E-01
   7113.67  3.9961662E-01
   7114.00  4.1092821E-01
   7114.33  3.8892120E-01
   7114.67  3.4539724E-01
   7115.00  2.9541512E-01
   7115.33  2.5367402E-01
   7115.67  2.2432768E-01
   7116.00  2.0567659E-01
   7116.33  1.9172125E-01
   7116.67  1.7498936E-01
   7117.00  1.5476020E-01
   7117.33  1.3523661E-01
   7117.67  1.1920710E-01
   7118.00  1.0709254E-01
   7118.33  9.8973923E-02
   7118.67  9.3806371E-02
   7119.00  9.1038996E-02
   7119.33  9.0367403E-02
   7119.67  9.1203535E-02
   7120.00  9.3309456E-02
   7120.33  9.6369440E-02
   7120.67  9.9659885E-02
   7121.00  1.0281585E-01
   7121.33  1.0566505E-01
   7121.67  1.0808660E-01
   7122.00  1.1023476E-01
   7122.33  1.1278789E-01
   7122.67  1.1633325E-01
   7123.00  1.2123485E-01
   7123.33  1.2782095E-01
   7123.67  1.3580135E-01
   7124.00  1.4514692E-01
   7124.33  1.5633454E-01
   7124.67  1.6961799E-01
   7125.00  1.8539419E-01
   7125.33  2.0454552E-01
   7125.67  2.2729999E-01
   7126.00  2.5386994E-01
   7126.33  2.8323192E-01
   7126.67  3.1151411E-01
   7127.00  3.3559983E-01
   7127.33  3.5407697E-01
   7127.67  3.6898645E-01
   7128.00  3.8106494E-01
   7128.33  3.8984403E-01
   7128.67  3.9620172E-01
   7129.00  4.0143181E-01
   7129.33  4.0669004E-01
   7129.67  4.1152275E-01
   7130.00  4.1428810E-01
   7130.33  4.1249682E-01
   7130.67  4.0665452E-01
   7131.00  3.9894847E-01
   7131.33  3.9318572E-01
   7131.67  3.9183563E-01
   7132.00  3.9571361E-01
   7132.33  4.0467031E-01
   7132.67  4.1618561E-01
   7133.00  4.2816598E-01
   7133.33  4.3823487E-01
   7133.67  4.4544086E-01
   7134.00  4.4971321E-01
   7134.33  4.5119530E-01
   7134.67  4.5086260E-01
   7135.00  4.4962413E-01
   7135.33  4.4907201E-01
   7135.67  4.5065095E-01
   7136.00  4.5521942E-01
   7136.33  4.6334425E-01
   7136.67  4.7375455E-01
   7137.00  4.8489636E-01
   7137.33  4.9444879E-01
   7137.67  5.0117121E-01
   7138.00  5.0497678E-01
   7138.33  5.0648638E-01
   7138.67  5.0707411E-01
   7139.00  5.0751257E-01
   7139.33  5.0847316E-01
   7139.67  5.1025834E-01
   7140.00  5.1303230E-01
   7140.33  5.1702161E-01
   7140.67  5.2213479E-01
   7141.00  5.2840644E-01
   7141.33  5.3604087E-01
   7141.67  5.4492197E-01
   7142.00  5.5501300E-01
   7142.33  5.6626268E-01
   7142.67  5.7820507E-01
   7143.00  5.9046839E-01
   7143.33  6.0259718E-01
   7143.67  6.1422422E-01
   7144.00  6.2508966E-01
   7144.33  6.3484730E-01
   7144.67  6.4347668E-01
   7145.00  6.5092036E-01
   7145.33  6.5703990E-01
   7145.67  6.6204808E-01
   7146.00  6.6601782E-01
   7146.33  6.6891352E-01
   7146.67  6.7094205E-01
   7147.00  6.7219583E-01
   7147.33  6.7273086E-01
   7147.67  6.7278011E-01
   7148.00  6.7247030E-01
   7148.33  6.7189976E-01
   7148.67  6.7120398E-01
   7149.00  6.7046778E-01
   7149.33  6.6980470E-01
   7149.67  6.6932501E-01
   7150.00  6.6913688E-01
   7150.33  6.6941541E-01
   7150.67  6.7021246E-01
   7151.00  6.7158829E-01
   7151.33  6.7364834E-01
   7151.67  6.7630838E-01
   7152.00  6.7953656E-01
   7152.33  6.8333176E-01
   7152.67  6.8754118E-01
   7153.00  6.9207152E-01
   7153.33  6.9682541E-01
   7153.67  7.0164592E-01
   7154.00  7.0641790E-01
   7154.33  7.1098761E-01
   7154.67  7.1524923E-01
   7155.00  7.1909541E-01
   7155.33  7.2233894E-01
   7155.67  7.2493472E-01
   7156.00  7.2679728E-01
   7156.33  7.2774443E-01
   7156.67  7.2782367E-01
   7157.00  7.2701185E-01
   7157.33  7.2519760E-01
   7157.67  7.2251779E-01
   7158.00  7.1900986E-01
   7158.33  7.1463193E-01
   7158.67  7.0954164E-01
   7159.00  7.0379275E-01
   7159.33  6.9737240E-01
   7159.67  6.9042020E-01
   7160.00  6.8299463E-01
   7160.33  6.7510316E-01
   7160.67  6.6684443E-01
   7161.00  6.5825030E-01
   7161.33  6.4930894E-01
   7161.67  6.4007643E-01
   7162.00  6.3056271E-01
   7162.33  6.2074319E-01
   7162.67  6.1066637E-01
   7163.00  6.0035622E-01
   7163.33  5.8983815E-01
   7163.67  5.7919890E-01
   7164.00  5.6849998E-01
   7164.33  5.5782381E-01
   7164.67  5.4725020E-01
   7165.00  5.3684531E-01
   7165.33  5.2670422E-01
   7165.67  5.1684952E-01
   7166.00  5.0731566E-01
   7166.33  4.9817705E-01
   7166.67  4.8941508E-01
   7167.00  4.8105179E-01
   7167.33  4.7316810E-01
   7167.67  4.6574044E-01
   7168.00  4.5879465E-01
   7168.33  4.5242214E-01
   7168.67  4.4658256E-01
   7169.00  4.4129120E-01
   7169.33  4.3662787E-01
   7169.67  4.3252262E-01
   7170.00  4.2896661E-01
   7170.33  4.2600514E-01
   7170.67  4.2354065E-01
   7171.00  4.2153781E-01
   7171.33  4.1999621E-01
   7171.67  4.1879995E-01
   7172.00  4.1788158E-01
