    FDMNES
    energy     <xanes>
   7097.00  4.9073978E-03
   7097.33  5.0190822E-03
   7097.67  5.1357055E-03
   7098.00  5.2576005E-03
   7098.33  5.3859079E-03
   7098.67  5.5203930E-03
   7099.00  5.6615103E-03
   7099.33  5.8107534E-03
   7099.67  5.9678844E-03
   7100.00  6.1335421E-03
   7100.33  6.3097356E-03
   7100.67  6.4962493E-03
   7101.00  6.6940105E-03
   7101.33  6.9058113E-03
   7101.67  7.1315141E-03
   7102.00  7.3725186E-03
   7102.33  7.6328595E-03
   7102.67  7.9126017E-03
   7103.00  8.2139584E-03
   7103.33  8.5430456E-03
   7103.67  8.9004151E-03
   7104.00  9.2897717E-03
   7104.33  9.7209546E-03
   7104.67  1.0195688E-02
   7105.00  1.0720635E-02
   7105.33  1.1312869E-02
   7105.67  1.1977081E-02
   7106.00  1.2726411E-02
   7106.33  1.3593597E-02
   7106.67  1.4591545E-02
   7107.00  1.5749614E-02
   7107.33  1.7139790E-02
   7107.67  1.8801328E-02
   7108.00  2.0812547E-02
   7108.33  2.3366844E-02
   7108.67  2.6609791E-02
   7109.00  3.0815538E-02
   7109.33  3.6697695E-02
   7109.67  4.5022589E-02
   7110.00  5.7276942E-02
   7110.33  7.7746277E-02
   7110.67  1.1181876E-01
   7111.00  1.6535362E-01
   7111.33  2.3196851E-01
   7111.67  2.8108873E-01
   7112.00  3.1359712E-01
   7112.33  3.5256996E-01
   7112.67  3.7154549E-01
   7113.00  3.3346487E-01
   7113.33  2.5490470E-01
   7113.67  1.9098669E-01
   7114.00  1.5337009E-01
   7114.33  1.4003032E-01
   7114.67  1.4197976E-01
   7115.00  1.5269986E-01
   7115.33  1.5926625E-01
   7115.67  1.5468685E-01
   7116.00  1.4319208E-01
   7116.33  1.3211629E-01
   7116.67  1.2493482E-01
   7117.00  1.2216331E-01
   7117.33  1.2355651E-01
   7117.67  1.2737759E-01
   7118.00  1.3258040E-01
   7118.33  1.3903971E-01
   7118.67  1.4635554E-01
   7119.00  1.5345307E-01
   7119.33  1.5873901E-01
   7119.67  1.6176203E-01
   7120.00  1.6284126E-01
   7120.33  1.6297453E-01
   7120.67  1.6355052E-01
   7121.00  1.6553691E-01
   7121.33  1.7017407E-01
   7121.67  1.7797555E-01
   7122.00  1.8951858E-01
   7122.33  2.0570859E-01
   7122.67  2.2596433E-01
   7123.00  2.4976823E-01
   7123.33  2.7605330E-01
   7123.67  3.0249910E-01
   7124.00  3.2702430E-01
   7124.33  3.4669579E-01
   7124.67  3.6040018E-01
   7125.00  3.6793279E-01
   7125.33  3.7007373E-01
   7125.67  3.7001051E-01
   7126.00  3.7026789E-01
   7126.33  3.7376260E-01
   7126.67  3.8182384E-01
   7127.00  3.9512898E-01
   7127.33  4.1449197E-01
   7127.67  4.3903428E-01
   7128.00  4.6849208E-01
   7128.33  5.0306235E-01
   7128.67  5.4151444E-01
   7129.00  5.8274564E-01
   7129.33  6.2480712E-01
   7129.67  6.6507223E-01
   7130.00  7.0146074E-01
   7130.33  7.3168141E-01
   7130.67  7.5612063E-01
   7131.00  7.7549301E-01
   7131.33  7.9086479E-01
   7131.67  8.0442362E-01
   7132.00  8.1755184E-01
   7132.33  8.3154938E-01
   7132.67  8.4684940E-01
   7133.00  8.6326664E-01
   7133.33  8.7989718E-01
   7133.67  8.9519936E-01
   7134.00  9.0760645E-01
   7134.33  9.1467870E-01
   7134.67  9.1543394E-01
   7135.00  9.0896093E-01
   7135.33  8.9402482E-01
   7135.67  8.7229412E-01
   7136.00  8.4521505E-01
   7136.33  8.1473866E-01
   7136.67  7.8368189E-01
   7137.00  7.5382751E-01
   7137.33  7.2700427E-01
   7137.67  7.0370559E-01
   7138.00  6.8419702E-01
   7138.33  6.6889245E-01
   7138.67  6.5703645E-01
   7139.00  6.4828377E-01
   7139.33  6.4250496E-01
   7139.67  6.3886900E-01
   7140.00  6.3691380E-01
   7140.33  6.3619283E-01
   7140.67  6.3594154E-01
   7141.00  6.3560456E-01
   7141.33  6.3446709E-01
   7141.67  6.3207800E-01
   7142.00  6.2809763E-01
   7142.33  6.2210056E-01
   7142.67  6.1431256E-01
   7143.00  6.0485039E-01
   7143.33  5.9377950E-01
   7143.67  5.8161541E-01
   7144.00  5.6868509E-01
   7144.33  5.5533033E-01
   7144.67  5.4197593E-01
   7145.00  5.2892940E-01
   7145.33  5.1660284E-01
   7145.67  5.0521071E-01
   7146.00  4.9496422E-01
   7146.33  4.8620779E-01
   7146.67  4.7886582E-01
   7147.00  4.7294203E-01
   7147.33  4.6854385E-01
   7147.67  4.6537181E-01
   7148.00  4.6325602E-01
   7148.33  4.6207807E-01
   7148.67  4.6152455E-01
   7149.00  4.6144076E-01
   7149.33  4.6172252E-01
   7149.67  4.6222283E-01
   7150.00  4.6287765E-01
   7150.33  4.6365278E-01
   7150.67  4.6451578E-01
   7151.00  4.6546806E-01
   7151.33  4.6653546E-01
   7151.67  4.6772334E-01
   7152.00  4.6904732E-01
   7152.33  4.7054097E-01
   7152.67  4.7219342E-01
   7153.00  4.7400462E-01
   7153.33  4.7598425E-01
   7153.67  4.7809326E-01
   7154.00  4.8030378E-01
   7154.33  4.8257885E-01
   7154.67  4.8485648E-01
   7155.00  4.8708359E-01
   7155.33  4.8918159E-01
   7155.67  4.9110435E-01
   7156.00  4.9280834E-01
   7156.33  4.9422574E-01
   7156.67  4.9537063E-01
   7157.00  4.9624169E-01
   7157.33  4.9681763E-01
   7157.67  4.9715360E-01
   7158.00  4.9727462E-01
   7158.33  4.9719018E-01
   7158.67  4.9695525E-01
   7159.00  4.9659474E-01
   7159.33  4.9612002E-01
   7159.67  4.9556119E-01
   7160.00  4.9492723E-01
   7160.33  4.9421208E-01
   7160.67  4.9341946E-01
   7161.00  4.9254016E-01
   7161.33  4.9154996E-01
   7161.67  4.9044330E-01
   7162.00  4.8920042E-01
   7162.33  4.8777996E-01
   7162.67  4.8618354E-01
   7163.00  4.8439975E-01
   7163.33  4.8239861E-01
   7163.67  4.8020685E-01
   7164.00  4.7783255E-01
   7164.33  4.7527015E-01
   7164.67  4.7256265E-01
   7165.00  4.6973409E-01
   7165.33  4.6680600E-01
   7165.67  4.6382615E-01
   7166.00  4.6082894E-01
   7166.33  4.5785921E-01
   7166.67  4.5495538E-01
   7167.00  4.5215075E-01
   7167.33  4.4949627E-01
   7167.67  4.4700349E-01
   7168.00  4.4469119E-01
   7168.33  4.4259874E-01
   7168.67  4.4071027E-01
   7169.00  4.3903143E-01
   7169.33  4.3759193E-01
   7169.67  4.3636204E-01
   7170.00  4.3533686E-01
   7170.33  4.3453346E-01
   7170.67  4.3391655E-01
   7171.00  4.3347340E-01
   7171.33  4.3320051E-01
   7171.67  4.3304131E-01
   7172.00  4.3294638E-01
