    FDMNES
    energy     <xanes>
   7097.00  5.3071453E-03
   7097.33  5.4331352E-03
   7097.67  5.5648805E-03
   7098.00  5.7027721E-03
   7098.33  5.8481447E-03
   7098.67  6.0007280E-03
   7099.00  6.1610546E-03
   7099.33  6.3308703E-03
   7099.67  6.5098979E-03
   7100.00  6.6988825E-03
   7100.33  6.9001663E-03
   7100.67  7.1134915E-03
   7101.00  7.3399320E-03
   7101.33  7.5827272E-03
   7101.67  7.8416967E-03
   7102.00  8.1184451E-03
   7102.33  8.4176183E-03
   7102.67  8.7392413E-03
   7103.00  9.0858189E-03
   7103.33  9.4643157E-03
   7103.67  9.8752530E-03
   7104.00  1.0322756E-02
   7104.33  1.0817858E-02
   7104.67  1.1362270E-02
   7105.00  1.1963261E-02
   7105.33  1.2639595E-02
   7105.67  1.3395962E-02
   7106.00  1.4246356E-02
   7106.33  1.5225857E-02
   7106.67  1.6347305E-02
   7107.00  1.7641127E-02
   7107.33  1.9182240E-02
   7107.67  2.1009343E-02
   7108.00  2.3201493E-02
   7108.33  2.5954384E-02
   7108.67  2.9411062E-02
   7109.00  3.3844371E-02
   7109.33  3.9967937E-02
   7109.67  4.8550120E-02
   7110.00  6.1094387E-02
   7110.33  8.1893996E-02
   7110.67  1.1549380E-01
   7111.00  1.6329164E-01
   7111.33  2.1211212E-01
   7111.67  2.4985629E-01
   7112.00  2.8593213E-01
   7112.33  3.2964240E-01
   7112.67  3.6909173E-01
   7113.00  4.1135988E-01
   7113.33  4.5983268E-01
   7113.67  4.8160613E-01
   7114.00  4.5500583E-01
   7114.33  3.9081062E-01
   7114.67  3.2639531E-01
   7115.00  2.7628553E-01
   7115.33  2.4420740E-01
   7115.67  2.2483956E-01
   7116.00  2.1512963E-01
   7116.33  2.1210796E-01
   7116.67  2.0930361E-01
   7117.00  2.0099049E-01
   7117.33  1.8582148E-01
   7117.67  1.7033299E-01
   7118.00  1.5819758E-01
   7118.33  1.5062946E-01
   7118.67  1.4603852E-01
   7119.00  1.4325279E-01
   7119.33  1.4134308E-01
   7119.67  1.3974878E-01
   7120.00  1.3837613E-01
   7120.33  1.3725270E-01
   7120.67  1.3658088E-01
   7121.00  1.3694542E-01
   7121.33  1.3948146E-01
   7121.67  1.4448910E-01
   7122.00  1.5197112E-01
   7122.33  1.6189823E-01
   7122.67  1.7377167E-01
   7123.00  1.8757953E-01
   7123.33  2.0350815E-01
   7123.67  2.2089394E-01
   7124.00  2.3898554E-01
   7124.33  2.5665875E-01
   7124.67  2.7311931E-01
   7125.00  2.8812337E-01
   7125.33  3.0184089E-01
   7125.67  3.1513693E-01
   7126.00  3.2877715E-01
   7126.33  3.4385742E-01
   7126.67  3.6114574E-01
   7127.00  3.8143985E-01
   7127.33  4.0615372E-01
   7127.67  4.3561564E-01
   7128.00  4.7044179E-01
   7128.33  5.1192704E-01
   7128.67  5.5944169E-01
   7129.00  6.1245907E-01
   7129.33  6.6970750E-01
   7129.67  7.2733277E-01
   7130.00  7.8131825E-01
   7130.33  8.2639673E-01
   7130.67  8.6124376E-01
   7131.00  8.8586887E-01
   7131.33  9.0106264E-01
   7131.67  9.1049124E-01
   7132.00  9.1616926E-01
   7132.33  9.1941148E-01
   7132.67  9.2122608E-01
   7133.00  9.2172119E-01
   7133.33  9.2044344E-01
   7133.67  9.1711294E-01
   7134.00  9.1125339E-01
   7134.33  9.0193930E-01
   7134.67  8.8910633E-01
   7135.00  8.7249100E-01
   7135.33  8.5147148E-01
   7135.67  8.2666148E-01
   7136.00  7.9841969E-01
   7136.33  7.6710797E-01
   7136.67  7.3402257E-01
   7137.00  7.0012181E-01
   7137.33  6.6664219E-01
   7137.67  6.3471076E-01
   7138.00  6.0524353E-01
   7138.33  5.7951848E-01
   7138.67  5.5767419E-01
   7139.00  5.3990055E-01
   7139.33  5.2659288E-01
   7139.67  5.1688744E-01
   7140.00  5.1034667E-01
   7140.33  5.0674602E-01
   7140.67  5.0523702E-01
   7141.00  5.0542228E-01
   7141.33  5.0706535E-01
   7141.67  5.0967829E-01
   7142.00  5.1302894E-01
   7142.33  5.1694586E-01
   7142.67  5.2115469E-01
   7143.00  5.2548373E-01
   7143.33  5.2973001E-01
   7143.67  5.3371483E-01
   7144.00  5.3728394E-01
   7144.33  5.4020045E-01
   7144.67  5.4239852E-01
   7145.00  5.4378728E-01
   7145.33  5.4419085E-01
   7145.67  5.4369902E-01
   7146.00  5.4233241E-01
   7146.33  5.4005348E-01
   7146.67  5.3706316E-01
   7147.00  5.3346875E-01
   7147.33  5.2935593E-01
   7147.67  5.2493659E-01
   7148.00  5.2034313E-01
   7148.33  5.1571792E-01
   7148.67  5.1119615E-01
   7149.00  5.0687689E-01
   7149.33  5.0289522E-01
   7149.67  4.9929199E-01
   7150.00  4.9612047E-01
   7150.33  4.9348997E-01
   7150.67  4.9137678E-01
   7151.00  4.8980081E-01
   7151.33  4.8884605E-01
   7151.67  4.8845330E-01
   7152.00  4.8862737E-01
   7152.33  4.8944014E-01
   7152.67  4.9081429E-01
   7153.00  4.9273537E-01
   7153.33  4.9523696E-01
   7153.67  4.9820584E-01
   7154.00  5.0158395E-01
   7154.33  5.0532173E-01
   7154.67  5.0926802E-01
   7155.00  5.1331694E-01
   7155.33  5.1733930E-01
   7155.67  5.2121758E-01
   7156.00  5.2485964E-01
   7156.33  5.2813700E-01
   7156.67  5.3102665E-01
   7157.00  5.3349407E-01
   7157.33  5.3546589E-01
   7157.67  5.3699893E-01
   7158.00  5.3810748E-01
   7158.33  5.3876972E-01
   7158.67  5.3907104E-01
   7159.00  5.3904556E-01
   7159.33  5.3869808E-01
   7159.67  5.3810361E-01
   7160.00  5.3729370E-01
   7160.33  5.3628104E-01
   7160.67  5.3512306E-01
   7161.00  5.3384550E-01
   7161.33  5.3245973E-01
   7161.67  5.3099750E-01
   7162.00  5.2947335E-01
   7162.33  5.2789565E-01
   7162.67  5.2628287E-01
   7163.00  5.2464457E-01
   7163.33  5.2298875E-01
   7163.67  5.2132148E-01
   7164.00  5.1963822E-01
   7164.33  5.1793363E-01
   7164.67  5.1621233E-01
   7165.00  5.1447480E-01
   7165.33  5.1271647E-01
   7165.67  5.1093595E-01
   7166.00  5.0912876E-01
   7166.33  5.0728306E-01
   7166.67  5.0539444E-01
   7167.00  5.0345582E-01
   7167.33  5.0145225E-01
   7167.67  4.9938373E-01
   7168.00  4.9724533E-01
   7168.33  4.9502518E-01
   7168.67  4.9273366E-01
   7169.00  4.9037533E-01
   7169.33  4.8795193E-01
   7169.67  4.8548484E-01
   7170.00  4.8299162E-01
   7170.33  4.8049991E-01
   7170.67  4.7804617E-01
   7171.00  4.7567098E-01
   7171.33  4.7345666E-01
   7171.67  4.7148689E-01
   7172.00  4.6988420E-01
