    FDMNES
    energy     <xanes>
   7097.00  4.8143003E-03
   7097.33  4.9287771E-03
   7097.67  5.0483692E-03
   7098.00  5.1734143E-03
   7098.33  5.3050820E-03
   7098.67  5.4431178E-03
   7099.00  5.5879780E-03
   7099.33  5.7411796E-03
   7099.67  5.9024567E-03
   7100.00  6.0724408E-03
   7100.33  6.2531473E-03
   7100.67  6.4443171E-03
   7101.00  6.6468494E-03
   7101.33  6.8634987E-03
   7101.67  7.0940539E-03
   7102.00  7.3398393E-03
   7102.33  7.6047476E-03
   7102.67  7.8887063E-03
   7103.00  8.1937452E-03
   7103.33  8.5255932E-03
   7103.67  8.8845178E-03
   7104.00  9.2737840E-03
   7104.33  9.7022522E-03
   7104.67  1.0170997E-02
   7105.00  1.0685593E-02
   7105.33  1.1260628E-02
   7105.67  1.1899132E-02
   7106.00  1.2611384E-02
   7106.33  1.3423431E-02
   7106.67  1.4343373E-02
   7107.00  1.5392202E-02
   7107.33  1.6621878E-02
   7107.67  1.8055314E-02
   7108.00  1.9742143E-02
   7108.33  2.1804414E-02
   7108.67  2.4317950E-02
   7109.00  2.7430871E-02
   7109.33  3.1519706E-02
   7109.67  3.6929339E-02
   7110.00  4.4325403E-02
   7110.33  5.5518902E-02
   7110.67  7.2142507E-02
   7111.00  9.4743146E-02
   7111.33  1.2354602E-01
   7111.67  1.6503597E-01
   7112.00  2.2811288E-01
   7112.33  3.0905543E-01
   7112.67  3.8970904E-01
   7113.00  4.6527360E-01
   7113.33  5.3620544E-01
   7113.67  5.5558464E-01
   7114.00  4.8320507E-01
   7114.33  3.8317941E-01
   7114.67  3.0094869E-01
   7115.00  2.4090279E-01
   7115.33  1.9952791E-01
   7115.67  1.6598628E-01
   7116.00  1.3849997E-01
   7116.33  1.1892379E-01
   7116.67  1.0525949E-01
   7117.00  9.5814762E-02
   7117.33  8.9736124E-02
   7117.67  8.6000818E-02
   7118.00  8.4174778E-02
   7118.33  8.4106921E-02
   7118.67  8.5416945E-02
   7119.00  8.8034179E-02
   7119.33  9.2126395E-02
   7119.67  9.7640031E-02
   7120.00  1.0473740E-01
   7120.33  1.1372714E-01
   7120.67  1.2412616E-01
   7121.00  1.3547614E-01
   7121.33  1.4768759E-01
   7121.67  1.6099096E-01
   7122.00  1.7594961E-01
   7122.33  1.9426035E-01
   7122.67  2.1721005E-01
   7123.00  2.4573511E-01
   7123.33  2.8111479E-01
   7123.67  3.2290394E-01
   7124.00  3.7123603E-01
   7124.33  4.2613877E-01
   7124.67  4.8385745E-01
   7125.00  5.3937172E-01
   7125.33  5.8476571E-01
   7125.67  6.1704932E-01
   7126.00  6.3628804E-01
   7126.33  6.4423715E-01
   7126.67  6.4609355E-01
   7127.00  6.4477777E-01
   7127.33  6.4271416E-01
   7127.67  6.4176986E-01
   7128.00  6.4263876E-01
   7128.33  6.4473553E-01
   7128.67  6.4590661E-01
   7129.00  6.4424965E-01
   7129.33  6.3746778E-01
   7129.67  6.2508635E-01
   7130.00  6.0694516E-01
   7130.33  5.8363287E-01
   7130.67  5.5813604E-01
   7131.00  5.3274966E-01
   7131.33  5.1040581E-01
   7131.67  4.9316176E-01
   7132.00  4.8246051E-01
   7132.33  4.7941787E-01
   7132.67  4.8178353E-01
   7133.00  4.8746627E-01
   7133.33  4.9407857E-01
   7133.67  5.0001896E-01
   7134.00  5.0526964E-01
   7134.33  5.1109573E-01
   7134.67  5.1881409E-01
   7135.00  5.2855982E-01
   7135.33  5.3872371E-01
   7135.67  5.4706505E-01
   7136.00  5.5290917E-01
   7136.33  5.5706837E-01
   7136.67  5.6153081E-01
   7137.00  5.6764017E-01
   7137.33  5.7671653E-01
   7137.67  5.8889957E-01
   7138.00  6.0432508E-01
   7138.33  6.2333790E-01
   7138.67  6.4521899E-01
   7139.00  6.6935453E-01
   7139.33  6.9456203E-01
   7139.67  7.1875853E-01
   7140.00  7.3996615E-01
   7140.33  7.5548863E-01
   7140.67  7.6473894E-01
   7141.00  7.6756819E-01
   7141.33  7.6400614E-01
   7141.67  7.5609958E-01
   7142.00  7.4514296E-01
   7142.33  7.3231586E-01
   7142.67  7.1891780E-01
   7143.00  7.0559571E-01
   7143.33  6.9284438E-01
   7143.67  6.8086010E-01
   7144.00  6.6982161E-01
   7144.33  6.5981399E-01
   7144.67  6.5052862E-01
   7145.00  6.4178001E-01
   7145.33  6.3339763E-01
   7145.67  6.2514448E-01
   7146.00  6.1687567E-01
   7146.33  6.0845070E-01
   7146.67  5.9983580E-01
   7147.00  5.9106029E-01
   7147.33  5.8224456E-01
   7147.67  5.7359972E-01
   7148.00  5.6533770E-01
   7148.33  5.5776973E-01
   7148.67  5.5098614E-01
   7149.00  5.4504948E-01
   7149.33  5.4003310E-01
   7149.67  5.3571400E-01
   7150.00  5.3193997E-01
   7150.33  5.2855477E-01
   7150.67  5.2533258E-01
   7151.00  5.2215143E-01
   7151.33  5.1889757E-01
   7151.67  5.1551852E-01
   7152.00  5.1200109E-01
   7152.33  5.0835244E-01
   7152.67  5.0463730E-01
   7153.00  5.0091218E-01
   7153.33  4.9725718E-01
   7153.67  4.9373605E-01
   7154.00  4.9040407E-01
   7154.33  4.8734356E-01
   7154.67  4.8456031E-01
   7155.00  4.8207067E-01
   7155.33  4.7991163E-01
   7155.67  4.7802480E-01
   7156.00  4.7637278E-01
   7156.33  4.7490892E-01
   7156.67  4.7351696E-01
   7157.00  4.7209006E-01
   7157.33  4.7044296E-01
   7157.67  4.6839924E-01
   7158.00  4.6576188E-01
   7158.33  4.6218322E-01
   7158.67  4.5753597E-01
   7159.00  4.5165671E-01
   7159.33  4.4426005E-01
   7159.67  4.3550202E-01
   7160.00  4.2546277E-01
   7160.33  4.1419263E-01
   7160.67  4.0208890E-01
   7161.00  3.8940760E-01
   7161.33  3.7641737E-01
   7161.67  3.6343522E-01
   7162.00  3.5067809E-01
   7162.33  3.3841762E-01
   7162.67  3.2677368E-01
   7163.00  3.1586603E-01
   7163.33  3.0590726E-01
   7163.67  2.9686835E-01
   7164.00  2.8879486E-01
   7164.33  2.8184622E-01
   7164.67  2.7591553E-01
   7165.00  2.7100763E-01
   7165.33  2.6724363E-01
   7165.67  2.6448037E-01
   7166.00  2.6269791E-01
   7166.33  2.6198502E-01
   7166.67  2.6218619E-01
   7167.00  2.6326619E-01
   7167.33  2.6528482E-01
   7167.67  2.6808947E-01
   7168.00  2.7163543E-01
   7168.33  2.7595231E-01
   7168.67  2.8089350E-01
   7169.00  2.8640182E-01
   7169.33  2.9246546E-01
   7169.67  2.9893918E-01
   7170.00  3.0574064E-01
   7170.33  3.1278451E-01
   7170.67  3.1990635E-01
   7171.00  3.2695663E-01
   7171.33  3.3365510E-01
   7171.67  3.3966871E-01
   7172.00  3.4455599E-01
