    FDMNES
    energy     <xanes>
   7097.00  4.9667302E-03
   7097.33  5.0884525E-03
   7097.67  5.2157707E-03
   7098.00  5.3490641E-03
   7098.33  5.4896285E-03
   7098.67  5.6371992E-03
   7099.00  5.7922920E-03
   7099.33  5.9565999E-03
   7099.67  6.1298508E-03
   7100.00  6.3127647E-03
   7100.33  6.5076101E-03
   7100.67  6.7141319E-03
   7101.00  6.9333658E-03
   7101.33  7.1684437E-03
   7101.67  7.4191813E-03
   7102.00  7.6871229E-03
   7102.33  7.9767484E-03
   7102.67  8.2880642E-03
   7103.00  8.6234716E-03
   7103.33  8.9896619E-03
   7103.67  9.3871002E-03
   7104.00  9.8197176E-03
   7104.33  1.0298054E-02
   7104.67  1.0823663E-02
   7105.00  1.1403403E-02
   7105.33  1.2055029E-02
   7105.67  1.2782757E-02
   7106.00  1.3599580E-02
   7106.33  1.4538117E-02
   7106.67  1.5609624E-02
   7107.00  1.6841507E-02
   7107.33  1.8301171E-02
   7107.67  2.0020862E-02
   7108.00  2.2067790E-02
   7108.33  2.4606652E-02
   7108.67  2.7745480E-02
   7109.00  3.1690633E-02
   7109.33  3.6963559E-02
   7109.67  4.4044573E-02
   7110.00  5.3845679E-02
   7110.33  6.8892750E-02
   7110.67  9.2406034E-02
   7111.00  1.2999063E-01
   7111.33  1.9165966E-01
   7111.67  2.7268168E-01
   7112.00  3.5706333E-01
   7112.33  4.2516218E-01
   7112.67  4.8441797E-01
   7113.00  5.0457285E-01
   7113.33  4.3540255E-01
   7113.67  3.5613223E-01
   7114.00  3.0195730E-01
   7114.33  2.6951359E-01
   7114.67  2.4985583E-01
   7115.00  2.3685104E-01
   7115.33  2.1541444E-01
   7115.67  1.8347657E-01
   7116.00  1.5160726E-01
   7116.33  1.2902936E-01
   7116.67  1.1470954E-01
   7117.00  1.0667616E-01
   7117.33  1.0359501E-01
   7117.67  1.0368750E-01
   7118.00  1.0623016E-01
   7118.33  1.1086966E-01
   7118.67  1.1714594E-01
   7119.00  1.2526174E-01
   7119.33  1.3616893E-01
   7119.67  1.5029522E-01
   7120.00  1.6789402E-01
   7120.33  1.8838957E-01
   7120.67  2.0907496E-01
   7121.00  2.2782679E-01
   7121.33  2.4356927E-01
   7121.67  2.5795502E-01
   7122.00  2.7299074E-01
   7122.33  2.9137392E-01
   7122.67  3.1467917E-01
   7123.00  3.4407779E-01
   7123.33  3.8060831E-01
   7123.67  4.2187368E-01
   7124.00  4.6467275E-01
   7124.33  5.0303654E-01
   7124.67  5.3198922E-01
   7125.00  5.4915283E-01
   7125.33  5.5471942E-01
   7125.67  5.5464713E-01
   7126.00  5.5338345E-01
   7126.33  5.5541546E-01
   7126.67  5.6295491E-01
   7127.00  5.7682040E-01
   7127.33  5.9651270E-01
   7127.67  6.1772391E-01
   7128.00  6.3598560E-01
   7128.33  6.4590655E-01
   7128.67  6.4665450E-01
   7129.00  6.3875251E-01
   7129.33  6.2318221E-01
   7129.67  6.0309048E-01
   7130.00  5.8056723E-01
   7130.33  5.5766241E-01
   7130.67  5.3574705E-01
   7131.00  5.1557960E-01
   7131.33  4.9846159E-01
   7131.67  4.8521782E-01
   7132.00  4.7657939E-01
   7132.33  4.7300651E-01
   7132.67  4.7293290E-01
   7133.00  4.7542726E-01
   7133.33  4.8024928E-01
   7133.67  4.8727873E-01
   7134.00  4.9667084E-01
   7134.33  5.0803668E-01
   7134.67  5.1938964E-01
   7135.00  5.2890293E-01
   7135.33  5.3495483E-01
   7135.67  5.3819917E-01
   7136.00  5.3973781E-01
   7136.33  5.4105455E-01
   7136.67  5.4337791E-01
   7137.00  5.4736972E-01
   7137.33  5.5369325E-01
   7137.67  5.6219281E-01
   7138.00  5.7276143E-01
   7138.33  5.8527489E-01
   7138.67  5.9894269E-01
   7139.00  6.1311135E-01
   7139.33  6.2689229E-01
   7139.67  6.3954893E-01
   7140.00  6.5057670E-01
   7140.33  6.5939937E-01
   7140.67  6.6618754E-01
   7141.00  6.7102276E-01
   7141.33  6.7385889E-01
   7141.67  6.7511039E-01
   7142.00  6.7494935E-01
   7142.33  6.7347451E-01
   7142.67  6.7103327E-01
   7143.00  6.6772803E-01
   7143.33  6.6356603E-01
   7143.67  6.5875899E-01
   7144.00  6.5341245E-01
   7144.33  6.4758931E-01
   7144.67  6.4144128E-01
   7145.00  6.3503583E-01
   7145.33  6.2840802E-01
   7145.67  6.2162770E-01
   7146.00  6.1472711E-01
   7146.33  6.0773032E-01
   7146.67  6.0068364E-01
   7147.00  5.9361944E-01
   7147.33  5.8657849E-01
   7147.67  5.7959585E-01
   7148.00  5.7270293E-01
   7148.33  5.6595055E-01
   7148.67  5.5935792E-01
   7149.00  5.5295485E-01
   7149.33  5.4680299E-01
   7149.67  5.4090608E-01
   7150.00  5.3529100E-01
   7150.33  5.3002917E-01
   7150.67  5.2510099E-01
   7151.00  5.2051181E-01
   7151.33  5.1630386E-01
   7151.67  5.1243064E-01
   7152.00  5.0888637E-01
   7152.33  5.0570218E-01
   7152.67  5.0282872E-01
   7153.00  5.0025900E-01
   7153.33  4.9802333E-01
   7153.67  4.9607920E-01
   7154.00  4.9442314E-01
   7154.33  4.9308710E-01
   7154.67  4.9203018E-01
   7155.00  4.9124378E-01
   7155.33  4.9074038E-01
   7155.67  4.9045510E-01
   7156.00  4.9034338E-01
   7156.33  4.9034113E-01
   7156.67  4.9032657E-01
   7157.00  4.9017383E-01
   7157.33  4.8966207E-01
   7157.67  4.8862480E-01
   7158.00  4.8687723E-01
   7158.33  4.8410171E-01
   7158.67  4.8024868E-01
   7159.00  4.7523015E-01
   7159.33  4.6887430E-01
   7159.67  4.6139787E-01
   7160.00  4.5292694E-01
   7160.33  4.4356878E-01
   7160.67  4.3366456E-01
   7161.00  4.2343236E-01
   7161.33  4.1310221E-01
   7161.67  4.0289259E-01
   7162.00  3.9295126E-01
   7162.33  3.8346486E-01
   7162.67  3.7448190E-01
   7163.00  3.6606058E-01
   7163.33  3.5831775E-01
   7163.67  3.5119785E-01
   7164.00  3.4470458E-01
   7164.33  3.3890734E-01
   7164.67  3.3371175E-01
   7165.00  3.2909915E-01
   7165.33  3.2511584E-01
   7165.67  3.2166809E-01
   7166.00  3.1873590E-01
   7166.33  3.1635967E-01
   7166.67  3.1445959E-01
   7167.00  3.1302282E-01
   7167.33  3.1209311E-01
   7167.67  3.1160302E-01
   7168.00  3.1154389E-01
   7168.33  3.1195854E-01
   7168.67  3.1278366E-01
   7169.00  3.1400832E-01
   7169.33  3.1566400E-01
   7169.67  3.1768011E-01
   7170.00  3.2002978E-01
   7170.33  3.2270598E-01
   7170.67  3.2561004E-01
   7171.00  3.2866469E-01
   7171.33  3.3173395E-01
   7171.67  3.3458999E-01
   7172.00  3.3695438E-01
