    FDMNES
    energy     <xanes>
   7097.00  4.5349206E-03
   7097.33  4.6315581E-03
   7097.67  4.7322216E-03
   7098.00  4.8371707E-03
   7098.33  4.9473164E-03
   7098.67  5.0624526E-03
   7099.00  5.1829315E-03
   7099.33  5.3099346E-03
   7099.67  5.4432496E-03
   7100.00  5.5833678E-03
   7100.33  5.7318633E-03
   7100.67  5.8885358E-03
   7101.00  6.0540932E-03
   7101.33  6.2307012E-03
   7101.67  6.4182120E-03
   7102.00  6.6176856E-03
   7102.33  6.8322207E-03
   7102.67  7.0618115E-03
   7103.00  7.3081217E-03
   7103.33  7.5758012E-03
   7103.67  7.8651924E-03
   7104.00  8.1790595E-03
   7104.33  8.5248085E-03
   7104.67  8.9036266E-03
   7105.00  9.3204473E-03
   7105.33  9.7879980E-03
   7105.67  1.0309607E-02
   7106.00  1.0894936E-02
   7106.33  1.1568164E-02
   7106.67  1.2338557E-02
   7107.00  1.3227575E-02
   7107.33  1.4287972E-02
   7107.67  1.5548131E-02
   7108.00  1.7065152E-02
   7108.33  1.8980386E-02
   7108.67  2.1400304E-02
   7109.00  2.4526535E-02
   7109.33  2.8887266E-02
   7109.67  3.5060096E-02
   7110.00  4.4172071E-02
   7110.33  5.9431089E-02
   7110.67  8.4139539E-02
   7111.00  1.1909297E-01
   7111.33  1.5692921E-01
   7111.67  1.9220545E-01
   7112.00  2.2618023E-01
   7112.33  2.5974436E-01
   7112.67  2.7890776E-01
   7113.00  2.7060457E-01
   7113.33  2.4153239E-01
   7113.67  2.0620721E-01
   7114.00  1.7396616E-01
   7114.33  1.4873300E-01
   7114.67  1.2559612E-01
   7115.00  1.0783403E-01
   7115.33  9.8698040E-02
   7115.67  9.1863439E-02
   7116.00  8.5431593E-02
   7116.33  8.1221367E-02
   7116.67  7.9778836E-02
   7117.00  8.0956634E-02
   7117.33  8.4015887E-02
   7117.67  8.6839132E-02
   7118.00  8.8163774E-02
   7118.33  8.8333950E-02
   7118.67  8.9057608E-02
   7119.00  9.1242970E-02
   7119.33  9.5170970E-02
   7119.67  1.0004946E-01
   7120.00  1.0538786E-01
   7120.33  1.1128675E-01
   7120.67  1.1810954E-01
   7121.00  1.2589701E-01
   7121.33  1.3424664E-01
   7121.67  1.4288662E-01
   7122.00  1.5228235E-01
   7122.33  1.6387696E-01
   7122.67  1.7913926E-01
   7123.00  1.9976233E-01
   7123.33  2.2843577E-01
   7123.67  2.6469850E-01
   7124.00  3.0621959E-01
   7124.33  3.4681621E-01
   7124.67  3.8113505E-01
   7125.00  4.0721702E-01
   7125.33  4.2475827E-01
   7125.67  4.3823680E-01
   7126.00  4.5175783E-01
   7126.33  4.7015384E-01
   7126.67  4.9506469E-01
   7127.00  5.2514304E-01
   7127.33  5.5455377E-01
   7127.67  5.7690005E-01
   7128.00  5.9039816E-01
   7128.33  5.9793678E-01
   7128.67  6.0583105E-01
   7129.00  6.1720609E-01
   7129.33  6.3332217E-01
   7129.67  6.5233879E-01
   7130.00  6.7230724E-01
   7130.33  6.9064857E-01
   7130.67  7.0587189E-01
   7131.00  7.1770678E-01
   7131.33  7.2721941E-01
   7131.67  7.3727619E-01
   7132.00  7.5034545E-01
   7132.33  7.6908050E-01
   7132.67  7.9276655E-01
   7133.00  8.1891441E-01
   7133.33  8.4171756E-01
   7133.67  8.5586520E-01
   7134.00  8.5929665E-01
   7134.33  8.5324914E-01
   7134.67  8.4301561E-01
   7135.00  8.3093450E-01
   7135.33  8.1789021E-01
   7135.67  8.0453682E-01
   7136.00  7.9145776E-01
   7136.33  7.7933998E-01
   7136.67  7.6836333E-01
   7137.00  7.5854466E-01
   7137.33  7.4981311E-01
   7137.67  7.4167341E-01
   7138.00  7.3369233E-01
   7138.33  7.2524326E-01
   7138.67  7.1583252E-01
   7139.00  7.0512219E-01
   7139.33  6.9281149E-01
   7139.67  6.7929779E-01
   7140.00  6.6499768E-01
   7140.33  6.5048234E-01
   7140.67  6.3632688E-01
   7141.00  6.2289624E-01
   7141.33  6.1058016E-01
   7141.67  5.9936797E-01
   7142.00  5.8928329E-01
   7142.33  5.8043972E-01
   7142.67  5.7264004E-01
   7143.00  5.6583938E-01
   7143.33  5.6012240E-01
   7143.67  5.5533555E-01
   7144.00  5.5143473E-01
   7144.33  5.4843095E-01
   7144.67  5.4608841E-01
   7145.00  5.4425658E-01
   7145.33  5.4277413E-01
   7145.67  5.4139543E-01
   7146.00  5.3995221E-01
   7146.33  5.3823907E-01
   7146.67  5.3613397E-01
   7147.00  5.3352267E-01
   7147.33  5.3021684E-01
   7147.67  5.2620871E-01
   7148.00  5.2143454E-01
   7148.33  5.1571963E-01
   7148.67  5.0911064E-01
   7149.00  5.0157840E-01
   7149.33  4.9301619E-01
   7149.67  4.8360914E-01
   7150.00  4.7347239E-01
   7150.33  4.6272072E-01
   7150.67  4.5164954E-01
   7151.00  4.4047927E-01
   7151.33  4.2949405E-01
   7151.67  4.1891995E-01
   7152.00  4.0893997E-01
   7152.33  3.9981690E-01
   7152.67  3.9156775E-01
   7153.00  3.8424063E-01
   7153.33  3.7795664E-01
   7153.67  3.7257028E-01
   7154.00  3.6803414E-01
   7154.33  3.6436215E-01
   7154.67  3.6135163E-01
   7155.00  3.5890088E-01
   7155.33  3.5694345E-01
   7155.67  3.5530985E-01
   7156.00  3.5391418E-01
   7156.33  3.5269229E-01
   7156.67  3.5155576E-01
   7157.00  3.5045277E-01
   7157.33  3.4932638E-01
   7157.67  3.4813292E-01
   7158.00  3.4684249E-01
   7158.33  3.4542096E-01
   7158.67  3.4388117E-01
   7159.00  3.4223543E-01
   7159.33  3.4050415E-01
   7159.67  3.3874226E-01
   7160.00  3.3699901E-01
   7160.33  3.3535151E-01
   7160.67  3.3386297E-01
   7161.00  3.3260028E-01
   7161.33  3.3167899E-01
   7161.67  3.3114081E-01
   7162.00  3.3105539E-01
   7162.33  3.3156533E-01
   7162.67  3.3266878E-01
   7163.00  3.3440644E-01
   7163.33  3.3689335E-01
   7163.67  3.4005444E-01
   7164.00  3.4387551E-01
   7164.33  3.4839208E-01
   7164.67  3.5346099E-01
   7165.00  3.5901071E-01
   7165.33  3.6499576E-01
   7165.67  3.7126943E-01
   7166.00  3.7774826E-01
   7166.33  3.8435451E-01
   7166.67  3.9099058E-01
   7167.00  3.9759330E-01
   7167.33  4.0408882E-01
   7167.67  4.1043984E-01
   7168.00  4.1661385E-01
   7168.33  4.2255896E-01
   7168.67  4.2828564E-01
   7169.00  4.3378894E-01
   7169.33  4.3904258E-01
   7169.67  4.4407960E-01
   7170.00  4.4890399E-01
   7170.33  4.5348944E-01
   7170.67  4.5785194E-01
   7171.00  4.6196647E-01
   7171.33  4.6573036E-01
   7171.67  4.6905146E-01
   7172.00  4.7175294E-01
