    FDMNES
    energy     <xanes>
   7097.00  4.5588364E-03
   7097.33  4.6555324E-03
   7097.67  4.7562278E-03
   7098.00  4.8611781E-03
   7098.33  4.9712839E-03
   7098.67  5.0863367E-03
   7099.00  5.2066822E-03
   7099.33  5.3334853E-03
   7099.67  5.4665310E-03
   7100.00  5.6063001E-03
   7100.33  5.7543414E-03
   7100.67  5.9104505E-03
   7101.00  6.0753196E-03
   7101.33  6.2510756E-03
   7101.67  6.4375649E-03
   7102.00  6.6358244E-03
   7102.33  6.8488940E-03
   7102.67  7.0767611E-03
   7103.00  7.3210560E-03
   7103.33  7.5863439E-03
   7103.67  7.8729621E-03
   7104.00  8.1836320E-03
   7104.33  8.5256498E-03
   7104.67  8.9002141E-03
   7105.00  9.3122241E-03
   7105.33  9.7743143E-03
   7105.67  1.0289903E-02
   7106.00  1.0868720E-02
   7106.33  1.1535100E-02
   7106.67  1.2298746E-02
   7107.00  1.3181732E-02
   7107.33  1.4238340E-02
   7107.67  1.5499016E-02
   7108.00  1.7024268E-02
   7108.33  1.8964285E-02
   7108.67  2.1436659E-02
   7109.00  2.4662966E-02
   7109.33  2.9226728E-02
   7109.67  3.5783785E-02
   7110.00  4.5616681E-02
   7110.33  6.2449358E-02
   7110.67  9.0735929E-02
   7111.00  1.3359015E-01
   7111.33  1.8052758E-01
   7111.67  2.1106503E-01
   7112.00  2.1728058E-01
   7112.33  2.0481760E-01
   7112.67  1.8943333E-01
   7113.00  1.8050366E-01
   7113.33  1.7223817E-01
   7113.67  1.5685240E-01
   7114.00  1.3889797E-01
   7114.33  1.2354850E-01
   7114.67  1.0754448E-01
   7115.00  9.0831380E-02
   7115.33  7.9771797E-02
   7115.67  7.5307402E-02
   7116.00  7.5927630E-02
   7116.33  7.9834403E-02
   7116.67  8.5342192E-02
   7117.00  9.2953000E-02
   7117.33  1.0586324E-01
   7117.67  1.2716561E-01
   7118.00  1.5964454E-01
   7118.33  2.0305677E-01
   7118.67  2.4292112E-01
   7119.00  2.6463134E-01
   7119.33  2.6514895E-01
   7119.67  2.5688713E-01
   7120.00  2.4623660E-01
   7120.33  2.3676667E-01
   7120.67  2.2961337E-01
   7121.00  2.2532713E-01
   7121.33  2.2489731E-01
   7121.67  2.2835069E-01
   7122.00  2.3585437E-01
   7122.33  2.4778175E-01
   7122.67  2.6323166E-01
   7123.00  2.8161930E-01
   7123.33  3.0202710E-01
   7123.67  3.2204863E-01
   7124.00  3.3852975E-01
   7124.33  3.4809566E-01
   7124.67  3.5528941E-01
   7125.00  3.6645391E-01
   7125.33  3.8749705E-01
   7125.67  4.1914412E-01
   7126.00  4.6064877E-01
   7126.33  5.0692908E-01
   7126.67  5.4845224E-01
   7127.00  5.7963860E-01
   7127.33  5.9713484E-01
   7127.67  6.0339209E-01
   7128.00  6.0009558E-01
   7128.33  5.8988106E-01
   7128.67  5.7823832E-01
   7129.00  5.6833337E-01
   7129.33  5.6124814E-01
   7129.67  5.5504294E-01
   7130.00  5.4829235E-01
   7130.33  5.4071752E-01
   7130.67  5.3333145E-01
   7131.00  5.2694185E-01
   7131.33  5.2227038E-01
   7131.67  5.1938079E-01
   7132.00  5.1861079E-01
   7132.33  5.2127594E-01
   7132.67  5.2846727E-01
   7133.00  5.4134575E-01
   7133.33  5.6093236E-01
   7133.67  5.8505674E-01
   7134.00  6.1138833E-01
   7134.33  6.3694347E-01
   7134.67  6.5993623E-01
   7135.00  6.7973278E-01
   7135.33  6.9538032E-01
   7135.67  7.0691479E-01
   7136.00  7.1453268E-01
   7136.33  7.1863348E-01
   7136.67  7.2029594E-01
   7137.00  7.1972406E-01
   7137.33  7.1644975E-01
   7137.67  7.1036771E-01
   7138.00  7.0110468E-01
   7138.33  6.8792521E-01
   7138.67  6.7124075E-01
   7139.00  6.5133493E-01
   7139.33  6.2865037E-01
   7139.67  6.0468356E-01
   7140.00  5.8068059E-01
   7140.33  5.5826292E-01
   7140.67  5.3840132E-01
   7141.00  5.2169175E-01
   7141.33  5.0876497E-01
   7141.67  4.9900773E-01
   7142.00  4.9209490E-01
   7142.33  4.8791853E-01
   7142.67  4.8581113E-01
   7143.00  4.8553166E-01
   7143.33  4.8709475E-01
   7143.67  4.9019529E-01
   7144.00  4.9480433E-01
   7144.33  5.0110133E-01
   7144.67  5.0887218E-01
   7145.00  5.1805966E-01
   7145.33  5.2870217E-01
   7145.67  5.4044511E-01
   7146.00  5.5306959E-01
   7146.33  5.6634379E-01
   7146.67  5.7985559E-01
   7147.00  5.9329683E-01
   7147.33  6.0624233E-01
   7147.67  6.1835902E-01
   7148.00  6.2928758E-01
   7148.33  6.3835757E-01
   7148.67  6.4526686E-01
   7149.00  6.4959042E-01
   7149.33  6.5051120E-01
   7149.67  6.4809898E-01
   7150.00  6.4227979E-01
   7150.33  6.3286431E-01
   7150.67  6.2077042E-01
   7151.00  6.0662262E-01
   7151.33  5.9108822E-01
   7151.67  5.7511479E-01
   7152.00  5.5927701E-01
   7152.33  5.4416253E-01
   7152.67  5.3002508E-01
   7153.00  5.1703641E-01
   7153.33  5.0545489E-01
   7153.67  4.9514731E-01
   7154.00  4.8609307E-01
   7154.33  4.7839266E-01
   7154.67  4.7182808E-01
   7155.00  4.6632786E-01
   7155.33  4.6190642E-01
   7155.67  4.5830858E-01
   7156.00  4.5539305E-01
   7156.33  4.5303363E-01
   7156.67  4.5097122E-01
   7157.00  4.4904443E-01
   7157.33  4.4708857E-01
   7157.67  4.4498757E-01
   7158.00  4.4267499E-01
   7158.33  4.4007613E-01
   7158.67  4.3720650E-01
   7159.00  4.3406711E-01
   7159.33  4.3064274E-01
   7159.67  4.2700053E-01
   7160.00  4.2318963E-01
   7160.33  4.1928081E-01
   7160.67  4.1539243E-01
   7161.00  4.1163134E-01
   7161.33  4.0815615E-01
   7161.67  4.0505476E-01
   7162.00  4.0241682E-01
   7162.33  4.0038938E-01
   7162.67  3.9894962E-01
   7163.00  3.9810743E-01
   7163.33  3.9791619E-01
   7163.67  3.9825918E-01
   7164.00  3.9908601E-01
   7164.33  4.0038685E-01
   7164.67  4.0205207E-01
   7165.00  4.0404228E-01
   7165.33  4.0636148E-01
   7165.67  4.0895310E-01
   7166.00  4.1180565E-01
   7166.33  4.1493828E-01
   7166.67  4.1830780E-01
   7167.00  4.2190209E-01
   7167.33  4.2572906E-01
   7167.67  4.2974012E-01
   7168.00  4.3391223E-01
   7168.33  4.3823119E-01
   7168.67  4.4264642E-01
   7169.00  4.4712508E-01
   7169.33  4.5162716E-01
   7169.67  4.5610255E-01
   7170.00  4.6050661E-01
   7170.33  4.6476705E-01
   7170.67  4.6883753E-01
   7171.00  4.7265709E-01
   7171.33  4.7609508E-01
   7171.67  4.7906862E-01
   7172.00  4.8143821E-01
