    FDMNES
    energy     <xanes>
   7097.00  5.1432337E-03
   7097.33  5.2661704E-03
   7097.67  5.3947758E-03
   7098.00  5.5294403E-03
   7098.33  5.6714873E-03
   7098.67  5.8206581E-03
   7099.00  5.9774872E-03
   7099.33  6.1437135E-03
   7099.67  6.3190756E-03
   7100.00  6.5043255E-03
   7100.33  6.7018098E-03
   7100.67  6.9112939E-03
   7101.00  7.1338700E-03
   7101.33  7.3728069E-03
   7101.67  7.6279614E-03
   7102.00  7.9009815E-03
   7102.33  8.1965976E-03
   7102.67  8.5149027E-03
   7103.00  8.8584991E-03
   7103.33  9.2345603E-03
   7103.67  9.6437451E-03
   7104.00  1.0090401E-02
   7104.33  1.0586061E-02
   7104.67  1.1132745E-02
   7105.00  1.1738250E-02
   7105.33  1.2422558E-02
   7105.67  1.3191126E-02
   7106.00  1.4059297E-02
   7106.33  1.5065295E-02
   7106.67  1.6224112E-02
   7107.00  1.7569949E-02
   7107.33  1.9186698E-02
   7107.67  2.1119980E-02
   7108.00  2.3460980E-02
   7108.33  2.6435014E-02
   7108.67  3.0211797E-02
   7109.00  3.5111314E-02
   7109.33  4.1967539E-02
   7109.67  5.1679172E-02
   7110.00  6.5990591E-02
   7110.33  8.9913842E-02
   7110.67  1.2955962E-01
   7111.00  1.9133793E-01
   7111.33  2.7327840E-01
   7111.67  3.3646703E-01
   7112.00  3.5911335E-01
   7112.33  3.7297381E-01
   7112.67  3.6916650E-01
   7113.00  3.4247974E-01
   7113.33  2.9590668E-01
   7113.67  2.3874857E-01
   7114.00  1.9750859E-01
   7114.33  1.8722546E-01
   7114.67  2.0317989E-01
   7115.00  2.4329625E-01
   7115.33  2.9473008E-01
   7115.67  3.2319826E-01
   7116.00  3.1777523E-01
   7116.33  2.9343476E-01
   7116.67  2.5950102E-01
   7117.00  2.2411529E-01
   7117.33  1.9871185E-01
   7117.67  1.8349774E-01
   7118.00  1.7585997E-01
   7118.33  1.7210373E-01
   7118.67  1.6793042E-01
   7119.00  1.6213778E-01
   7119.33  1.5620972E-01
   7119.67  1.5121110E-01
   7120.00  1.4702360E-01
   7120.33  1.4456383E-01
   7120.67  1.4476944E-01
   7121.00  1.4802664E-01
   7121.33  1.5451607E-01
   7121.67  1.6346393E-01
   7122.00  1.7465357E-01
   7122.33  1.8861639E-01
   7122.67  2.0569970E-01
   7123.00  2.2601181E-01
   7123.33  2.4696633E-01
   7123.67  2.6304894E-01
   7124.00  2.7244942E-01
   7124.33  2.7857611E-01
   7124.67  2.8603878E-01
   7125.00  2.9674222E-01
   7125.33  3.1219970E-01
   7125.67  3.3150262E-01
   7126.00  3.5295489E-01
   7126.33  3.7441390E-01
   7126.67  3.9530599E-01
   7127.00  4.1617594E-01
   7127.33  4.3794521E-01
   7127.67  4.6149346E-01
   7128.00  4.8777361E-01
   7128.33  5.1741820E-01
   7128.67  5.4877274E-01
   7129.00  5.8003762E-01
   7129.33  6.0915255E-01
   7129.67  6.3577829E-01
   7130.00  6.6049824E-01
   7130.33  6.8439504E-01
   7130.67  7.0835741E-01
   7131.00  7.3233340E-01
   7131.33  7.5519454E-01
   7131.67  7.7558746E-01
   7132.00  7.9274836E-01
   7132.33  8.0651230E-01
   7132.67  8.1786445E-01
   7133.00  8.2698229E-01
   7133.33  8.3356287E-01
   7133.67  8.3810426E-01
   7134.00  8.4087242E-01
   7134.33  8.4133528E-01
   7134.67  8.3857286E-01
   7135.00  8.3114257E-01
   7135.33  8.1641701E-01
   7135.67  7.9365793E-01
   7136.00  7.6243837E-01
   7136.33  7.2331393E-01
   7136.67  6.8051967E-01
   7137.00  6.3746354E-01
   7137.33  5.9779547E-01
   7137.67  5.6309628E-01
   7138.00  5.3406672E-01
   7138.33  5.1143966E-01
   7138.67  4.9401632E-01
   7139.00  4.8117856E-01
   7139.33  4.7261103E-01
   7139.67  4.6710130E-01
   7140.00  4.6411367E-01
   7140.33  4.6341301E-01
   7140.67  4.6441018E-01
   7141.00  4.6693603E-01
   7141.33  4.7107777E-01
   7141.67  4.7661254E-01
   7142.00  4.8347631E-01
   7142.33  4.9161415E-01
   7142.67  5.0046294E-01
   7143.00  5.0942733E-01
   7143.33  5.1745043E-01
   7143.67  5.2356120E-01
   7144.00  5.2696764E-01
   7144.33  5.2682259E-01
   7144.67  5.2374699E-01
   7145.00  5.1841758E-01
   7145.33  5.1176379E-01
   7145.67  5.0499194E-01
   7146.00  4.9880649E-01
   7146.33  4.9387922E-01
   7146.67  4.9033404E-01
   7147.00  4.8821660E-01
   7147.33  4.8763433E-01
   7147.67  4.8829492E-01
   7148.00  4.9007344E-01
   7148.33  4.9293858E-01
   7148.67  4.9662096E-01
   7149.00  5.0099737E-01
   7149.33  5.0599734E-01
   7149.67  5.1141408E-01
   7150.00  5.1712926E-01
   7150.33  5.2302475E-01
   7150.67  5.2895263E-01
   7151.00  5.3481565E-01
   7151.33  5.4050225E-01
   7151.67  5.4597386E-01
   7152.00  5.5121103E-01
   7152.33  5.5619856E-01
   7152.67  5.6100650E-01
   7153.00  5.6568349E-01
   7153.33  5.7027513E-01
   7153.67  5.7482759E-01
   7154.00  5.7934897E-01
   7154.33  5.8381485E-01
   7154.67  5.8819045E-01
   7155.00  5.9243157E-01
   7155.33  5.9646574E-01
   7155.67  6.0027909E-01
   7156.00  6.0385554E-01
   7156.33  6.0716869E-01
   7156.67  6.1027360E-01
   7157.00  6.1320840E-01
   7157.33  6.1601716E-01
   7157.67  6.1877790E-01
   7158.00  6.2154173E-01
   7158.33  6.2435867E-01
   7158.67  6.2723898E-01
   7159.00  6.3016631E-01
   7159.33  6.3307874E-01
   7159.67  6.3587279E-01
   7160.00  6.3842561E-01
   7160.33  6.4051444E-01
   7160.67  6.4200059E-01
   7161.00  6.4271349E-01
   7161.33  6.4234055E-01
   7161.67  6.4083285E-01
   7162.00  6.3807368E-01
   7162.33  6.3380526E-01
   7162.67  6.2816703E-01
   7163.00  6.2119085E-01
   7163.33  6.1282427E-01
   7163.67  6.0338577E-01
   7164.00  5.9305600E-01
   7164.33  5.8199443E-01
   7164.67  5.7053621E-01
   7165.00  5.5889603E-01
   7165.33  5.4731289E-01
   7165.67  5.3598299E-01
   7166.00  5.2505031E-01
   7166.33  5.1471124E-01
   7166.67  5.0499050E-01
   7167.00  4.9593529E-01
   7167.33  4.8765477E-01
   7167.67  4.8005958E-01
   7168.00  4.7313239E-01
   7168.33  4.6692007E-01
   7168.67  4.6129560E-01
   7169.00  4.5621014E-01
   7169.33  4.5166372E-01
   7169.67  4.4753671E-01
   7170.00  4.4378015E-01
   7170.33  4.4038233E-01
   7170.67  4.3726318E-01
   7171.00  4.3440274E-01
   7171.33  4.3183781E-01
   7171.67  4.2958769E-01
   7172.00  4.2774235E-01
