    FDMNES
    energy     <xanes>
   7097.00  4.7764159E-03
   7097.33  4.8878711E-03
   7097.67  5.0043938E-03
   7098.00  5.1263319E-03
   7098.33  5.2548674E-03
   7098.67  5.3897683E-03
   7099.00  5.5315119E-03
   7099.33  5.6816522E-03
   7099.67  5.8399562E-03
   7100.00  6.0070969E-03
   7100.33  6.1851739E-03
   7100.67  6.3739807E-03
   7101.00  6.5744979E-03
   7101.33  6.7896563E-03
   7101.67  7.0193368E-03
   7102.00  7.2650245E-03
   7102.33  7.5309751E-03
   7102.67  7.8172920E-03
   7103.00  8.1263332E-03
   7103.33  8.4645821E-03
   7103.67  8.8326761E-03
   7104.00  9.2345818E-03
   7104.33  9.6807903E-03
   7104.67  1.0173229E-02
   7105.00  1.0719076E-02
   7105.33  1.1336673E-02
   7105.67  1.2031236E-02
   7106.00  1.2817058E-02
   7106.33  1.3729684E-02
   7106.67  1.4783578E-02
   7107.00  1.6011167E-02
   7107.33  1.7491984E-02
   7107.67  1.9270937E-02
   7108.00  2.1436901E-02
   7108.33  2.4210419E-02
   7108.67  2.7765049E-02
   7109.00  3.2428171E-02
   7109.33  3.9065201E-02
   7109.67  4.8661371E-02
   7110.00  6.3149923E-02
   7110.33  8.8090580E-02
   7110.67  1.2922292E-01
   7111.00  1.8671795E-01
   7111.33  2.3950999E-01
   7111.67  2.7665573E-01
   7112.00  3.0447074E-01
   7112.33  3.2389784E-01
   7112.67  3.3263105E-01
   7113.00  3.2706790E-01
   7113.33  3.0169580E-01
   7113.67  2.6371684E-01
   7114.00  2.2620527E-01
   7114.33  2.0304223E-01
   7114.67  1.9149474E-01
   7115.00  1.8129645E-01
   7115.33  1.6442110E-01
   7115.67  1.4713280E-01
   7116.00  1.3368585E-01
   7116.33  1.2567642E-01
   7116.67  1.2194577E-01
   7117.00  1.2134479E-01
   7117.33  1.2283617E-01
   7117.67  1.2573237E-01
   7118.00  1.3049183E-01
   7118.33  1.3783276E-01
   7118.67  1.4655887E-01
   7119.00  1.5473919E-01
   7119.33  1.5891176E-01
   7119.67  1.6011983E-01
   7120.00  1.6176944E-01
   7120.33  1.6473478E-01
   7120.67  1.6731517E-01
   7121.00  1.6958245E-01
   7121.33  1.7420946E-01
   7121.67  1.8388527E-01
   7122.00  1.9972029E-01
   7122.33  2.2103410E-01
   7122.67  2.4448905E-01
   7123.00  2.6818742E-01
   7123.33  2.9069012E-01
   7123.67  3.1162904E-01
   7124.00  3.3082540E-01
   7124.33  3.4754565E-01
   7124.67  3.6282086E-01
   7125.00  3.7953420E-01
   7125.33  4.0214531E-01
   7125.67  4.3035095E-01
   7126.00  4.5964873E-01
   7126.33  4.8085052E-01
   7126.67  4.9116220E-01
   7127.00  4.9288771E-01
   7127.33  4.8954356E-01
   7127.67  4.8469774E-01
   7128.00  4.8043679E-01
   7128.33  4.7929122E-01
   7128.67  4.8171878E-01
   7129.00  4.8631695E-01
   7129.33  4.9037188E-01
   7129.67  4.9363060E-01
   7130.00  4.9795639E-01
   7130.33  5.0571884E-01
   7130.67  5.1711346E-01
   7131.00  5.3195264E-01
   7131.33  5.5012048E-01
   7131.67  5.7058203E-01
   7132.00  5.9290361E-01
   7132.33  6.1701913E-01
   7132.67  6.4187975E-01
   7133.00  6.6545970E-01
   7133.33  6.8321171E-01
   7133.67  6.9199204E-01
   7134.00  6.9002847E-01
   7134.33  6.7575989E-01
   7134.67  6.5270282E-01
   7135.00  6.2470724E-01
   7135.33  5.9688472E-01
   7135.67  5.7275328E-01
   7136.00  5.5366042E-01
   7136.33  5.4077700E-01
   7136.67  5.3354432E-01
   7137.00  5.3186732E-01
   7137.33  5.3563774E-01
   7137.67  5.4276984E-01
   7138.00  5.5168114E-01
   7138.33  5.6071178E-01
   7138.67  5.6859063E-01
   7139.00  5.7451705E-01
   7139.33  5.7756761E-01
   7139.67  5.7799666E-01
   7140.00  5.7624169E-01
   7140.33  5.7302480E-01
   7140.67  5.6943829E-01
   7141.00  5.6607987E-01
   7141.33  5.6337259E-01
   7141.67  5.6127851E-01
   7142.00  5.5968323E-01
   7142.33  5.5845007E-01
   7142.67  5.5740299E-01
   7143.00  5.5651056E-01
   7143.33  5.5590928E-01
   7143.67  5.5581737E-01
   7144.00  5.5651498E-01
   7144.33  5.5843328E-01
   7144.67  5.6159666E-01
   7145.00  5.6599247E-01
   7145.33  5.7154038E-01
   7145.67  5.7769720E-01
   7146.00  5.8397226E-01
   7146.33  5.8967007E-01
   7146.67  5.9429287E-01
   7147.00  5.9750589E-01
   7147.33  5.9895105E-01
   7147.67  5.9889004E-01
   7148.00  5.9752007E-01
   7148.33  5.9507158E-01
   7148.67  5.9210835E-01
   7149.00  5.8905086E-01
   7149.33  5.8642040E-01
   7149.67  5.8455770E-01
   7150.00  5.8368921E-01
   7150.33  5.8407283E-01
   7150.67  5.8553645E-01
   7151.00  5.8794989E-01
   7151.33  5.9116851E-01
   7151.67  5.9482178E-01
   7152.00  5.9866255E-01
   7152.33  6.0241853E-01
   7152.67  6.0589046E-01
   7153.00  6.0896011E-01
   7153.33  6.1150991E-01
   7153.67  6.1361158E-01
   7154.00  6.1532538E-01
   7154.33  6.1672836E-01
   7154.67  6.1799096E-01
   7155.00  6.1923177E-01
   7155.33  6.2058345E-01
   7155.67  6.2211524E-01
   7156.00  6.2385171E-01
   7156.33  6.2577606E-01
   7156.67  6.2775167E-01
   7157.00  6.2961933E-01
   7157.33  6.3109463E-01
   7157.67  6.3194624E-01
   7158.00  6.3193539E-01
   7158.33  6.3067161E-01
   7158.67  6.2809747E-01
   7159.00  6.2409983E-01
   7159.33  6.1843331E-01
   7159.67  6.1130259E-01
   7160.00  6.0278680E-01
   7160.33  5.9289616E-01
   7160.67  5.8202635E-01
   7161.00  5.7044889E-01
   7161.33  5.5849146E-01
   7161.67  5.4658368E-01
   7162.00  5.3503184E-01
   7162.33  5.2419997E-01
   7162.67  5.1419118E-01
   7163.00  5.0507624E-01
   7163.33  4.9695714E-01
   7163.67  4.8964478E-01
   7164.00  4.8304093E-01
   7164.33  4.7708958E-01
   7164.67  4.7159380E-01
   7165.00  4.6646444E-01
   7165.33  4.6166320E-01
   7165.67  4.5709910E-01
   7166.00  4.5273856E-01
   7166.33  4.4858160E-01
   7166.67  4.4459486E-01
   7167.00  4.4077340E-01
   7167.33  4.3713318E-01
   7167.67  4.3365065E-01
   7168.00  4.3032298E-01
   7168.33  4.2716547E-01
   7168.67  4.2415709E-01
   7169.00  4.2129884E-01
   7169.33  4.1861470E-01
   7169.67  4.1609282E-01
   7170.00  4.1374076E-01
   7170.33  4.1159044E-01
   7170.67  4.0962971E-01
   7171.00  4.0786812E-01
   7171.33  4.0634405E-01
   7171.67  4.0505011E-01
   7172.00  4.0401228E-01
