    FDMNES
    energy     <xanes>
   7097.00  4.9355873E-03
   7097.33  5.0511597E-03
   7097.67  5.1718290E-03
   7098.00  5.2979267E-03
   7098.33  5.4306095E-03
   7098.67  5.5696172E-03
   7099.00  5.7153955E-03
   7099.33  5.8694391E-03
   7099.67  6.0314740E-03
   7100.00  6.2021150E-03
   7100.33  6.3833398E-03
   7100.67  6.5748781E-03
   7101.00  6.7776030E-03
   7101.33  6.9942064E-03
   7101.67  7.2244620E-03
   7102.00  7.4696526E-03
   7102.33  7.7335716E-03
   7102.67  8.0161257E-03
   7103.00  8.3192818E-03
   7103.33  8.6486160E-03
   7103.67  9.0043728E-03
   7104.00  9.3897300E-03
   7104.33  9.8133339E-03
   7104.67  1.0276255E-02
   7105.00  1.0783983E-02
   7105.33  1.1350887E-02
   7105.67  1.1980123E-02
   7106.00  1.2682046E-02
   7106.33  1.3482891E-02
   7106.67  1.4391519E-02
   7107.00  1.5430010E-02
   7107.33  1.6653096E-02
   7107.67  1.8087704E-02
   7108.00  1.9790202E-02
   7108.33  2.1900504E-02
   7108.67  2.4518181E-02
   7109.00  2.7834874E-02
   7109.33  3.2351628E-02
   7109.67  3.8600785E-02
   7110.00  4.7624765E-02
   7110.33  6.2386954E-02
   7110.67  8.5942466E-02
   7111.00  1.1917087E-01
   7111.33  1.5586685E-01
   7111.67  1.9097337E-01
   7112.00  2.2188295E-01
   7112.33  2.4497426E-01
   7112.67  2.5091512E-01
   7113.00  2.4457476E-01
   7113.33  2.4670223E-01
   7113.67  2.6578551E-01
   7114.00  3.0074347E-01
   7114.33  3.3861066E-01
   7114.67  3.6259567E-01
   7115.00  3.7287018E-01
   7115.33  3.7654442E-01
   7115.67  3.7354625E-01
   7116.00  3.6106627E-01
   7116.33  3.4018858E-01
   7116.67  3.1713596E-01
   7117.00  2.9559882E-01
   7117.33  2.7818237E-01
   7117.67  2.6450532E-01
   7118.00  2.5347442E-01
   7118.33  2.4364608E-01
   7118.67  2.3387606E-01
   7119.00  2.2391952E-01
   7119.33  2.1394679E-01
   7119.67  2.0445520E-01
   7120.00  1.9604450E-01
   7120.33  1.8953494E-01
   7120.67  1.8504199E-01
   7121.00  1.8275282E-01
   7121.33  1.8343981E-01
   7121.67  1.8766058E-01
   7122.00  1.9645369E-01
   7122.33  2.1190542E-01
   7122.67  2.3477838E-01
   7123.00  2.6633700E-01
   7123.33  3.0772827E-01
   7123.67  3.5302064E-01
   7124.00  3.9192977E-01
   7124.33  4.0827712E-01
   7124.67  4.0247940E-01
   7125.00  3.8418420E-01
   7125.33  3.6600503E-01
   7125.67  3.5407130E-01
   7126.00  3.4955520E-01
   7126.33  3.5289651E-01
   7126.67  3.6202296E-01
   7127.00  3.7565366E-01
   7127.33  3.9258461E-01
   7127.67  4.1096279E-01
   7128.00  4.2973602E-01
   7128.33  4.4807421E-01
   7128.67  4.6603301E-01
   7129.00  4.8452638E-01
   7129.33  5.0569116E-01
   7129.67  5.3091636E-01
   7130.00  5.6067584E-01
   7130.33  5.9440271E-01
   7130.67  6.2937962E-01
   7131.00  6.6325071E-01
   7131.33  6.9287525E-01
   7131.67  7.1639745E-01
   7132.00  7.3226646E-01
   7132.33  7.3844741E-01
   7132.67  7.3627443E-01
   7133.00  7.2692214E-01
   7133.33  7.1171839E-01
   7133.67  6.9316193E-01
   7134.00  6.7224139E-01
   7134.33  6.4896829E-01
   7134.67  6.2316975E-01
   7135.00  5.9439750E-01
   7135.33  5.6250056E-01
   7135.67  5.2914925E-01
   7136.00  4.9595026E-01
   7136.33  4.6471459E-01
   7136.67  4.3619394E-01
   7137.00  4.1083207E-01
   7137.33  3.8934260E-01
   7137.67  3.7143958E-01
   7138.00  3.5714955E-01
   7138.33  3.4681122E-01
   7138.67  3.3976434E-01
   7139.00  3.3576446E-01
   7139.33  3.3483285E-01
   7139.67  3.3627207E-01
   7140.00  3.3974332E-01
   7140.33  3.4503127E-01
   7140.67  3.5153546E-01
   7141.00  3.5896790E-01
   7141.33  3.6717478E-01
   7141.67  3.7593951E-01
   7142.00  3.8522409E-01
   7142.33  3.9510937E-01
   7142.67  4.0557446E-01
   7143.00  4.1666249E-01
   7143.33  4.2849418E-01
   7143.67  4.4100446E-01
   7144.00  4.5419115E-01
   7144.33  4.6811854E-01
   7144.67  4.8267339E-01
   7145.00  4.9782116E-01
   7145.33  5.1358449E-01
   7145.67  5.2984492E-01
   7146.00  5.4655611E-01
   7146.33  5.6370802E-01
   7146.67  5.8117574E-01
   7147.00  5.9886249E-01
   7147.33  6.1663241E-01
   7147.67  6.3430910E-01
   7148.00  6.5172296E-01
   7148.33  6.6858975E-01
   7148.67  6.8473620E-01
   7149.00  6.9997177E-01
   7149.33  7.1397368E-01
   7149.67  7.2674382E-01
   7150.00  7.3820980E-01
   7150.33  7.4817271E-01
   7150.67  7.5681218E-01
   7151.00  7.6415720E-01
   7151.33  7.7009250E-01
   7151.67  7.7481487E-01
   7152.00  7.7835138E-01
   7152.33  7.8057534E-01
   7152.67  7.8163809E-01
   7153.00  7.8153592E-01
   7153.33  7.8011656E-01
   7153.67  7.7753120E-01
   7154.00  7.7380298E-01
   7154.33  7.6885811E-01
   7154.67  7.6293945E-01
   7155.00  7.5617627E-01
   7155.33  7.4866826E-01
   7155.67  7.4069717E-01
   7156.00  7.3243201E-01
   7156.33  7.2403670E-01
   7156.67  7.1567246E-01
   7157.00  7.0743486E-01
   7157.33  6.9942452E-01
   7157.67  6.9165711E-01
   7158.00  6.8414447E-01
   7158.33  6.7690756E-01
   7158.67  6.6988530E-01
   7159.00  6.6303967E-01
   7159.33  6.5633136E-01
   7159.67  6.4968024E-01
   7160.00  6.4302495E-01
   7160.33  6.3628112E-01
   7160.67  6.2938492E-01
   7161.00  6.2227794E-01
   7161.33  6.1486752E-01
   7161.67  6.0714258E-01
   7162.00  5.9908165E-01
   7162.33  5.9063903E-01
   7162.67  5.8187300E-01
   7163.00  5.7281414E-01
   7163.33  5.6348663E-01
   7163.67  5.5398975E-01
   7164.00  5.4439212E-01
   7164.33  5.3477505E-01
   7164.67  5.2522093E-01
   7165.00  5.1579286E-01
   7165.33  5.0657813E-01
   7165.67  4.9760349E-01
   7166.00  4.8890147E-01
   7166.33  4.8053537E-01
   7166.67  4.7248250E-01
   7167.00  4.6474691E-01
   7167.33  4.5736221E-01
   7167.67  4.5027492E-01
   7168.00  4.4347087E-01
   7168.33  4.3696771E-01
   7168.67  4.3071602E-01
   7169.00  4.2470389E-01
   7169.33  4.1895014E-01
   7169.67  4.1342222E-01
   7170.00  4.0812214E-01
   7170.33  4.0308846E-01
   7170.67  3.9831230E-01
   7171.00  3.9382689E-01
   7171.33  3.8974802E-01
   7171.67  3.8616300E-01
   7172.00  3.8324356E-01
