    FDMNES
    energy     <xanes>
   7097.00  5.0228356E-03
   7097.33  5.1490586E-03
   7097.67  5.2814360E-03
   7098.00  5.4204135E-03
   7098.33  5.5674651E-03
   7098.67  5.7223399E-03
   7099.00  5.8856557E-03
   7099.33  6.0593743E-03
   7099.67  6.2432523E-03
   7100.00  6.4381694E-03
   7100.33  6.6468105E-03
   7100.67  6.8689781E-03
   7101.00  7.1059669E-03
   7101.33  7.3615723E-03
   7101.67  7.6357285E-03
   7102.00  7.9304140E-03
   7102.33  8.2512067E-03
   7102.67  8.5983600E-03
   7103.00  8.9750393E-03
   7103.33  9.3898369E-03
   7103.67  9.8437516E-03
   7104.00  1.0342139E-02
   7104.33  1.0899029E-02
   7104.67  1.1517191E-02
   7105.00  1.2206344E-02
   7105.33  1.2991158E-02
   7105.67  1.3878846E-02
   7106.00  1.4888726E-02
   7106.33  1.6068626E-02
   7106.67  1.7438041E-02
   7107.00  1.9040401E-02
   7107.33  2.0981860E-02
   7107.67  2.3321374E-02
   7108.00  2.6175595E-02
   7108.33  2.9832545E-02
   7108.67  3.4512197E-02
   7109.00  4.0628632E-02
   7109.33  4.9265414E-02
   7109.67  6.1611409E-02
   7110.00  7.9982242E-02
   7110.33  1.1097049E-01
   7110.67  1.6142230E-01
   7111.00  2.3309058E-01
   7111.33  3.1029210E-01
   7111.67  3.8381195E-01
   7112.00  4.5820410E-01
   7112.33  5.4211615E-01
   7112.67  6.0018352E-01
   7113.00  5.6726161E-01
   7113.33  4.5285076E-01
   7113.67  3.4717224E-01
   7114.00  2.6540730E-01
   7114.33  2.0572249E-01
   7114.67  1.6314003E-01
   7115.00  1.3402578E-01
   7115.33  1.1506919E-01
   7115.67  1.0280587E-01
   7116.00  9.6261693E-02
   7116.33  9.4126604E-02
   7116.67  9.3034776E-02
   7117.00  9.1631920E-02
   7117.33  9.0626995E-02
   7117.67  9.0971363E-02
   7118.00  9.3008940E-02
   7118.33  9.6902014E-02
   7118.67  1.0203189E-01
   7119.00  1.0743414E-01
   7119.33  1.1105840E-01
   7119.67  1.1224428E-01
   7120.00  1.1186896E-01
   7120.33  1.1100238E-01
   7120.67  1.1052354E-01
   7121.00  1.1152696E-01
   7121.33  1.1537638E-01
   7121.67  1.2219801E-01
   7122.00  1.3210850E-01
   7122.33  1.4567824E-01
   7122.67  1.6284489E-01
   7123.00  1.8394636E-01
   7123.33  2.0958467E-01
   7123.67  2.3852364E-01
   7124.00  2.6917768E-01
   7124.33  2.9889176E-01
   7124.67  3.2559257E-01
   7125.00  3.4809402E-01
   7125.33  3.6512947E-01
   7125.67  3.7814558E-01
   7126.00  3.8904890E-01
   7126.33  3.9979122E-01
   7126.67  4.1050214E-01
   7127.00  4.2005524E-01
   7127.33  4.2731689E-01
   7127.67  4.3314010E-01
   7128.00  4.3863500E-01
   7128.33  4.4471141E-01
   7128.67  4.5156550E-01
   7129.00  4.5936515E-01
   7129.33  4.6857351E-01
   7129.67  4.7936761E-01
   7130.00  4.9204382E-01
   7130.33  5.0712904E-01
   7130.67  5.2432550E-01
   7131.00  5.4333909E-01
   7131.33  5.6386336E-01
   7131.67  5.8535162E-01
   7132.00  6.0758812E-01
   7132.33  6.3015267E-01
   7132.67  6.5185523E-01
   7133.00  6.7123170E-01
   7133.33  6.8660592E-01
   7133.67  6.9861552E-01
   7134.00  7.0820449E-01
   7134.33  7.1564466E-01
   7134.67  7.2023443E-01
   7135.00  7.2091812E-01
   7135.33  7.1768283E-01
   7135.67  7.1295802E-01
   7136.00  7.0841588E-01
   7136.33  7.0534842E-01
   7136.67  7.0385427E-01
   7137.00  7.0358697E-01
   7137.33  7.0367818E-01
   7137.67  7.0290717E-01
   7138.00  7.0035470E-01
   7138.33  6.9519432E-01
   7138.67  6.8803585E-01
   7139.00  6.7979654E-01
   7139.33  6.7195668E-01
   7139.67  6.6581832E-01
   7140.00  6.6219537E-01
   7140.33  6.6189067E-01
   7140.67  6.6443388E-01
   7141.00  6.6936505E-01
   7141.33  6.7593712E-01
   7141.67  6.8266540E-01
   7142.00  6.8826919E-01
   7142.33  6.9109307E-01
   7142.67  6.9066497E-01
   7143.00  6.8696248E-01
   7143.33  6.8031470E-01
   7143.67  6.7211817E-01
   7144.00  6.6332857E-01
   7144.33  6.5489969E-01
   7144.67  6.4739548E-01
   7145.00  6.4110225E-01
   7145.33  6.3632792E-01
   7145.67  6.3291564E-01
   7146.00  6.3082124E-01
   7146.33  6.3011274E-01
   7146.67  6.3051856E-01
   7147.00  6.3190697E-01
   7147.33  6.3418031E-01
   7147.67  6.3700977E-01
   7148.00  6.4019446E-01
   7148.33  6.4352408E-01
   7148.67  6.4676020E-01
   7149.00  6.4971231E-01
   7149.33  6.5208367E-01
   7149.67  6.5369874E-01
   7150.00  6.5435303E-01
   7150.33  6.5368039E-01
   7150.67  6.5166347E-01
   7151.00  6.4823239E-01
   7151.33  6.4324445E-01
   7151.67  6.3703655E-01
   7152.00  6.2984626E-01
   7152.33  6.2194560E-01
   7152.67  6.1378642E-01
   7153.00  6.0566025E-01
   7153.33  5.9785867E-01
   7153.67  5.9048168E-01
   7154.00  5.8355661E-01
   7154.33  5.7708571E-01
   7154.67  5.7091793E-01
   7155.00  5.6495117E-01
   7155.33  5.5908160E-01
   7155.67  5.5320429E-01
   7156.00  5.4726157E-01
   7156.33  5.4119953E-01
   7156.67  5.3501385E-01
   7157.00  5.2870191E-01
   7157.33  5.2225216E-01
   7157.67  5.1568527E-01
   7158.00  5.0900458E-01
   7158.33  5.0219874E-01
   7158.67  4.9528825E-01
   7159.00  4.8828750E-01
   7159.33  4.8122544E-01
   7159.67  4.7417211E-01
   7160.00  4.6720037E-01
   7160.33  4.6042865E-01
   7160.67  4.5393089E-01
   7161.00  4.4777945E-01
   7161.33  4.4208818E-01
   7161.67  4.3683769E-01
   7162.00  4.3202226E-01
   7162.33  4.2765682E-01
   7162.67  4.2364071E-01
   7163.00  4.1992456E-01
   7163.33  4.1648122E-01
   7163.67  4.1322587E-01
   7164.00  4.1011610E-01
   7164.33  4.0712156E-01
   7164.67  4.0419405E-01
   7165.00  4.0130941E-01
   7165.33  3.9845043E-01
   7165.67  3.9560396E-01
   7166.00  3.9276825E-01
   7166.33  3.8995014E-01
   7166.67  3.8715948E-01
   7167.00  3.8441138E-01
   7167.33  3.8173751E-01
   7167.67  3.7915356E-01
   7168.00  3.7667782E-01
   7168.33  3.7434976E-01
   7168.67  3.7217465E-01
   7169.00  3.7016802E-01
   7169.33  3.6836661E-01
   7169.67  3.6675691E-01
   7170.00  3.6534334E-01
   7170.33  3.6415168E-01
   7170.67  3.6315427E-01
   7171.00  3.6234536E-01
   7171.33  3.6173453E-01
   7171.67  3.6127553E-01
   7172.00  3.6093262E-01
