    FDMNES
    energy     <xanes>
   7097.00  3.9830394E-03
   7097.33  4.0573906E-03
   7097.67  4.1343788E-03
   7098.00  4.2141536E-03
   7098.33  4.2972784E-03
   7098.67  4.3835921E-03
   7099.00  4.4732942E-03
   7099.33  4.5670973E-03
   7099.67  4.6648328E-03
   7100.00  4.7667742E-03
   7100.33  4.8738485E-03
   7100.67  4.9858890E-03
   7101.00  5.1032849E-03
   7101.33  5.2272845E-03
   7101.67  5.3577445E-03
   7102.00  5.4952436E-03
   7102.33  5.6415356E-03
   7102.67  5.7965521E-03
   7103.00  5.9611992E-03
   7103.33  6.1380768E-03
   7103.67  6.3273105E-03
   7104.00  6.5304146E-03
   7104.33  6.7515137E-03
   7104.67  6.9912236E-03
   7105.00  7.2522884E-03
   7105.33  7.5418481E-03
   7105.67  7.8618077E-03
   7106.00  8.2176871E-03
   7106.33  8.6233483E-03
   7106.67  9.0844215E-03
   7107.00  9.6136746E-03
   7107.33  1.0242588E-02
   7107.67  1.0989380E-02
   7108.00  1.1890045E-02
   7108.33  1.3034315E-02
   7108.67  1.4495057E-02
   7109.00  1.6409556E-02
   7109.33  1.9143058E-02
   7109.67  2.3122117E-02
   7110.00  2.9185178E-02
   7110.33  3.9748038E-02
   7110.67  5.7256945E-02
   7111.00  8.1562413E-02
   7111.33  1.0395872E-01
   7111.67  1.1905557E-01
   7112.00  1.2771178E-01
   7112.33  1.2317728E-01
   7112.67  1.0493690E-01
   7113.00  8.3586717E-02
   7113.33  6.7666827E-02
   7113.67  5.7552209E-02
   7114.00  5.1921950E-02
   7114.33  4.7731107E-02
   7114.67  4.3153093E-02
   7115.00  3.9526577E-02
   7115.33  3.7792913E-02
   7115.67  3.7356848E-02
   7116.00  3.7769728E-02
   7116.33  3.8682006E-02
   7116.67  3.9878118E-02
   7117.00  4.1461151E-02
   7117.33  4.3774026E-02
   7117.67  4.6945873E-02
   7118.00  5.1029466E-02
   7118.33  5.6015194E-02
   7118.67  6.1491620E-02
   7119.00  6.7034379E-02
   7119.33  7.2057064E-02
   7119.67  7.6333191E-02
   7120.00  7.9941103E-02
   7120.33  8.3253427E-02
   7120.67  8.6935533E-02
   7121.00  9.1622998E-02
   7121.33  9.8250674E-02
   7121.67  1.0719046E-01
   7122.00  1.1875218E-01
   7122.33  1.3322009E-01
   7122.67  1.4974773E-01
   7123.00  1.6791216E-01
   7123.33  1.8846798E-01
   7123.67  2.1250986E-01
   7124.00  2.4043284E-01
   7124.33  2.7125220E-01
   7124.67  3.0327145E-01
   7125.00  3.3608539E-01
   7125.33  3.6731162E-01
   7125.67  3.9265288E-01
   7126.00  4.1126947E-01
   7126.33  4.2827786E-01
   7126.67  4.5094965E-01
   7127.00  4.8260266E-01
   7127.33  5.2335312E-01
   7127.67  5.6743445E-01
   7128.00  6.0953756E-01
   7128.33  6.4433591E-01
   7128.67  6.7217274E-01
   7129.00  6.9500746E-01
   7129.33  7.1523008E-01
   7129.67  7.3568563E-01
   7130.00  7.5872222E-01
   7130.33  7.8743152E-01
   7130.67  8.2170733E-01
   7131.00  8.5898010E-01
   7131.33  8.9272016E-01
   7131.67  9.1784162E-01
   7132.00  9.3321360E-01
   7132.33  9.4001131E-01
   7132.67  9.4179935E-01
   7133.00  9.3956591E-01
   7133.33  9.3267600E-01
   7133.67  9.2209671E-01
   7134.00  9.1010761E-01
   7134.33  9.0088200E-01
   7134.67  8.9627374E-01
   7135.00  8.9560688E-01
   7135.33  8.9632253E-01
   7135.67  8.9528843E-01
   7136.00  8.9069280E-01
   7136.33  8.8100955E-01
   7136.67  8.6682833E-01
   7137.00  8.4864081E-01
   7137.33  8.2687134E-01
   7137.67  8.0284771E-01
   7138.00  7.7739558E-01
   7138.33  7.5140437E-01
   7138.67  7.2581115E-01
   7139.00  7.0125771E-01
   7139.33  6.7851027E-01
   7139.67  6.5771804E-01
   7140.00  6.3902058E-01
   7140.33  6.2269289E-01
   7140.67  6.0837165E-01
   7141.00  5.9591895E-01
   7141.33  5.8535333E-01
   7141.67  5.7627352E-01
   7142.00  5.6853190E-01
   7142.33  5.6209968E-01
   7142.67  5.5665167E-01
   7143.00  5.5203051E-01
   7143.33  5.4812075E-01
   7143.67  5.4463457E-01
   7144.00  5.4138568E-01
   7144.33  5.3816398E-01
   7144.67  5.3477750E-01
   7145.00  5.3110100E-01
   7145.33  5.2700263E-01
   7145.67  5.2252099E-01
   7146.00  5.1771176E-01
   7146.33  5.1267645E-01
   7146.67  5.0760234E-01
   7147.00  5.0263249E-01
   7147.33  4.9794729E-01
   7147.67  4.9362641E-01
   7148.00  4.8972889E-01
   7148.33  4.8634007E-01
   7148.67  4.8339632E-01
   7149.00  4.8087049E-01
   7149.33  4.7877025E-01
   7149.67  4.7700855E-01
   7150.00  4.7554834E-01
   7150.33  4.7437280E-01
   7150.67  4.7339267E-01
   7151.00  4.7254724E-01
   7151.33  4.7175425E-01
   7151.67  4.7089805E-01
   7152.00  4.6986682E-01
   7152.33  4.6847352E-01
   7152.67  4.6660238E-01
   7153.00  4.6412161E-01
   7153.33  4.6079875E-01
   7153.67  4.5661560E-01
   7154.00  4.5150581E-01
   7154.33  4.4531134E-01
   7154.67  4.3815784E-01
   7155.00  4.3008507E-01
   7155.33  4.2106756E-01
   7155.67  4.1131751E-01
   7156.00  4.0094528E-01
   7156.33  3.9003691E-01
   7156.67  3.7881299E-01
   7157.00  3.6742218E-01
   7157.33  3.5605163E-01
   7157.67  3.4489715E-01
   7158.00  3.3413206E-01
   7158.33  3.2402116E-01
   7158.67  3.1466055E-01
   7159.00  3.0616655E-01
   7159.33  2.9875397E-01
   7159.67  2.9235657E-01
   7160.00  2.8699820E-01
   7160.33  2.8282801E-01
   7160.67  2.7973272E-01
   7161.00  2.7773535E-01
   7161.33  2.7700651E-01
   7161.67  2.7741713E-01
   7162.00  2.7894295E-01
   7162.33  2.8164255E-01
   7162.67  2.8528115E-01
   7163.00  2.8974213E-01
   7163.33  2.9494515E-01
   7163.67  3.0063587E-01
   7164.00  3.0666606E-01
   7164.33  3.1289120E-01
   7164.67  3.1913869E-01
   7165.00  3.2529683E-01
   7165.33  3.3123776E-01
   7165.67  3.3691446E-01
   7166.00  3.4229405E-01
   7166.33  3.4733241E-01
   7166.67  3.5209124E-01
   7167.00  3.5661208E-01
   7167.33  3.6094154E-01
   7167.67  3.6518005E-01
   7168.00  3.6939681E-01
   7168.33  3.7367339E-01
   7168.67  3.7806616E-01
   7169.00  3.8261638E-01
   7169.33  3.8737861E-01
   7169.67  3.9234004E-01
   7170.00  3.9749237E-01
   7170.33  4.0282311E-01
   7170.67  4.0824969E-01
   7171.00  4.1368380E-01
   7171.33  4.1893498E-01
   7171.67  4.2372813E-01
   7172.00  4.2769015E-01
