    FDMNES
    energy     <xanes>
   7097.00  5.0558267E-03
   7097.33  5.1734078E-03
   7097.67  5.2962785E-03
   7098.00  5.4247955E-03
   7098.33  5.5601812E-03
   7098.67  5.7021839E-03
   7099.00  5.8512892E-03
   7099.33  6.0090943E-03
   7099.67  6.1753411E-03
   7100.00  6.3507089E-03
   7100.33  6.5373390E-03
   7100.67  6.7349911E-03
   7101.00  6.9446448E-03
   7101.33  7.1692606E-03
   7101.67  7.4086700E-03
   7102.00  7.6643386E-03
   7102.33  7.9405133E-03
   7102.67  8.2372171E-03
   7103.00  8.5567423E-03
   7103.33  8.9054637E-03
   7103.67  9.2838678E-03
   7104.00  9.6957423E-03
   7104.33  1.0151213E-02
   7104.67  1.0651885E-02
   7105.00  1.1204466E-02
   7105.33  1.1826259E-02
   7105.67  1.2521688E-02
   7106.00  1.3303766E-02
   7106.33  1.4205094E-02
   7106.67  1.5237894E-02
   7107.00  1.6430793E-02
   7107.33  1.7854276E-02
   7107.67  1.9545682E-02
   7108.00  2.1580703E-02
   7108.33  2.4147042E-02
   7108.67  2.7385521E-02
   7109.00  3.1564104E-02
   7109.33  3.7387377E-02
   7109.67  4.5632546E-02
   7110.00  5.7823292E-02
   7110.33  7.8310131E-02
   7110.67  1.1148475E-01
   7111.00  1.5770317E-01
   7111.33  2.0422420E-01
   7111.67  2.4220990E-01
   7112.00  2.7007450E-01
   7112.33  2.8725910E-01
   7112.67  3.0163882E-01
   7113.00  3.2023257E-01
   7113.33  3.4695916E-01
   7113.67  3.7111807E-01
   7114.00  3.8155610E-01
   7114.33  3.7411454E-01
   7114.67  3.4879749E-01
   7115.00  3.0914374E-01
   7115.33  2.7075128E-01
   7115.67  2.4226063E-01
   7116.00  2.2270425E-01
   7116.33  2.0747070E-01
   7116.67  1.9127156E-01
   7117.00  1.7320196E-01
   7117.33  1.5579299E-01
   7117.67  1.4136263E-01
   7118.00  1.3049879E-01
   7118.33  1.2322313E-01
   7118.67  1.1850746E-01
   7119.00  1.1581934E-01
   7119.33  1.1467361E-01
   7119.67  1.1446195E-01
   7120.00  1.1537774E-01
   7120.33  1.1826585E-01
   7120.67  1.2271281E-01
   7121.00  1.2776552E-01
   7121.33  1.3308795E-01
   7121.67  1.3967169E-01
   7122.00  1.4841706E-01
   7122.33  1.5957387E-01
   7122.67  1.7204229E-01
   7123.00  1.8574649E-01
   7123.33  2.0222312E-01
   7123.67  2.2186362E-01
   7124.00  2.4342390E-01
   7124.33  2.6378404E-01
   7124.67  2.8118490E-01
   7125.00  2.9603188E-01
   7125.33  3.0976749E-01
   7125.67  3.2410163E-01
   7126.00  3.4027171E-01
   7126.33  3.5970456E-01
   7126.67  3.8211724E-01
   7127.00  4.0678172E-01
   7127.33  4.3288494E-01
   7127.67  4.5977365E-01
   7128.00  4.8709590E-01
   7128.33  5.1384284E-01
   7128.67  5.3936949E-01
   7129.00  5.6432953E-01
   7129.33  5.9089569E-01
   7129.67  6.2044986E-01
   7130.00  6.5286409E-01
   7130.33  6.8594913E-01
   7130.67  7.1535270E-01
   7131.00  7.3716730E-01
   7131.33  7.4864278E-01
   7131.67  7.5419998E-01
   7132.00  7.5899291E-01
   7132.33  7.6890485E-01
   7132.67  7.8574757E-01
   7133.00  8.0884276E-01
   7133.33  8.3541257E-01
   7133.67  8.6101858E-01
   7134.00  8.8292562E-01
   7134.33  8.9828640E-01
   7134.67  9.0531639E-01
   7135.00  9.0179149E-01
   7135.33  8.8612473E-01
   7135.67  8.6228921E-01
   7136.00  8.3334836E-01
   7136.33  8.0207507E-01
   7136.67  7.7080552E-01
   7137.00  7.4070591E-01
   7137.33  7.1295629E-01
   7137.67  6.8792677E-01
   7138.00  6.6599012E-01
   7138.33  6.4780578E-01
   7138.67  6.3298890E-01
   7139.00  6.2140676E-01
   7139.33  6.1310969E-01
   7139.67  6.0732522E-01
   7140.00  6.0370702E-01
   7140.33  6.0212628E-01
   7140.67  6.0204156E-01
   7141.00  6.0317253E-01
   7141.33  6.0522063E-01
   7141.67  6.0757487E-01
   7142.00  6.0973349E-01
   7142.33  6.1102196E-01
   7142.67  6.1107917E-01
   7143.00  6.0968377E-01
   7143.33  6.0662875E-01
   7143.67  6.0229606E-01
   7144.00  5.9696629E-01
   7144.33  5.9092181E-01
   7144.67  5.8456075E-01
   7145.00  5.7808466E-01
   7145.33  5.7163962E-01
   7145.67  5.6528546E-01
   7146.00  5.5903508E-01
   7146.33  5.5287975E-01
   7146.67  5.4677329E-01
   7147.00  5.4069449E-01
   7147.33  5.3463989E-01
   7147.67  5.2861770E-01
   7148.00  5.2264873E-01
   7148.33  5.1678072E-01
   7148.67  5.1104933E-01
   7149.00  5.0550304E-01
   7149.33  5.0024335E-01
   7149.67  4.9532365E-01
   7150.00  4.9082656E-01
   7150.33  4.8691851E-01
   7150.67  4.8363192E-01
   7151.00  4.8103866E-01
   7151.33  4.7929383E-01
   7151.67  4.7833493E-01
   7152.00  4.7816428E-01
   7152.33  4.7884947E-01
   7152.67  4.8023429E-01
   7153.00  4.8223756E-01
   7153.33  4.8479006E-01
   7153.67  4.8766202E-01
   7154.00  4.9067955E-01
   7154.33  4.9360398E-01
   7154.67  4.9620960E-01
   7155.00  4.9830618E-01
   7155.33  4.9962039E-01
   7155.67  5.0010860E-01
   7156.00  4.9971257E-01
   7156.33  4.9831908E-01
   7156.67  4.9610101E-01
   7157.00  4.9315287E-01
   7157.33  4.8954311E-01
   7157.67  4.8550432E-01
   7158.00  4.8117702E-01
   7158.33  4.7670566E-01
   7158.67  4.7224792E-01
   7159.00  4.6790549E-01
   7159.33  4.6380163E-01
   7159.67  4.5998323E-01
   7160.00  4.5649566E-01
   7160.33  4.5341972E-01
   7160.67  4.5072792E-01
   7161.00  4.4842347E-01
   7161.33  4.4654754E-01
   7161.67  4.4504093E-01
   7162.00  4.4389553E-01
   7162.33  4.4314325E-01
   7162.67  4.4271897E-01
   7163.00  4.4260854E-01
   7163.33  4.4284310E-01
   7163.67  4.4337520E-01
   7164.00  4.4419071E-01
   7164.33  4.4529668E-01
   7164.67  4.4662501E-01
   7165.00  4.4813631E-01
   7165.33  4.4979311E-01
   7165.67  4.5152063E-01
   7166.00  4.5326694E-01
   7166.33  4.5496745E-01
   7166.67  4.5657231E-01
   7167.00  4.5804040E-01
   7167.33  4.5931083E-01
   7167.67  4.6038028E-01
   7168.00  4.6123823E-01
   7168.33  4.6184826E-01
   7168.67  4.6223729E-01
   7169.00  4.6241418E-01
   7169.33  4.6237292E-01
   7169.67  4.6216331E-01
   7170.00  4.6181277E-01
   7170.33  4.6134572E-01
   7170.67  4.6081649E-01
   7171.00  4.6026232E-01
   7171.33  4.5972957E-01
   7171.67  4.5926030E-01
   7172.00  4.5889044E-01
