    FDMNES
    energy     <xanes>
   7097.00  4.5731947E-03
   7097.33  4.6699404E-03
   7097.67  4.7705340E-03
   7098.00  4.8752084E-03
   7098.33  4.9848082E-03
   7098.67  5.0991153E-03
   7099.00  5.2184402E-03
   7099.33  5.3438606E-03
   7099.67  5.4751460E-03
   7100.00  5.6127223E-03
   7100.33  5.7579997E-03
   7100.67  5.9107485E-03
   7101.00  6.0715718E-03
   7101.33  6.2423729E-03
   7101.67  6.4229529E-03
   7102.00  6.6142000E-03
   7102.33  6.8187836E-03
   7102.67  7.0366042E-03
   7103.00  7.2690338E-03
   7103.33  7.5200000E-03
   7103.67  7.7896626E-03
   7104.00  8.0802704E-03
   7104.33  8.3979647E-03
   7104.67  8.7435554E-03
   7105.00  9.1210151E-03
   7105.33  9.5407344E-03
   7105.67  1.0005204E-02
   7106.00  1.0522155E-02
   7106.33  1.1111114E-02
   7106.67  1.1779290E-02
   7107.00  1.2543835E-02
   7107.33  1.3447119E-02
   7107.67  1.4511665E-02
   7108.00  1.5783174E-02
   7108.33  1.7374940E-02
   7108.67  1.9371821E-02
   7109.00  2.1934425E-02
   7109.33  2.5481573E-02
   7109.67  3.0463576E-02
   7110.00  3.7755222E-02
   7110.33  4.9893943E-02
   7110.67  7.0234009E-02
   7111.00  1.0301407E-01
   7111.33  1.4602396E-01
   7111.67  1.7597835E-01
   7112.00  1.8271464E-01
   7112.33  1.8032060E-01
   7112.67  1.7941324E-01
   7113.00  1.7597596E-01
   7113.33  1.5097156E-01
   7113.67  1.1974256E-01
   7114.00  9.5935078E-02
   7114.33  8.1682008E-02
   7114.67  7.3218352E-02
   7115.00  6.8994125E-02
   7115.33  6.8330430E-02
   7115.67  7.0309436E-02
   7116.00  7.4784838E-02
   7116.33  8.1892162E-02
   7116.67  9.0754440E-02
   7117.00  1.0071757E-01
   7117.33  1.1239405E-01
   7117.67  1.2703787E-01
   7118.00  1.4541453E-01
   7118.33  1.6802974E-01
   7118.67  1.9383779E-01
   7119.00  2.2189711E-01
   7119.33  2.5084330E-01
   7119.67  2.7928406E-01
   7120.00  3.0667845E-01
   7120.33  3.3299092E-01
   7120.67  3.5869133E-01
   7121.00  3.8375941E-01
   7121.33  4.0715662E-01
   7121.67  4.2758349E-01
   7122.00  4.4424522E-01
   7122.33  4.5712304E-01
   7122.67  4.6752865E-01
   7123.00  4.7589255E-01
   7123.33  4.8301870E-01
   7123.67  4.9109979E-01
   7124.00  5.0115560E-01
   7124.33  5.1204922E-01
   7124.67  5.2182544E-01
   7125.00  5.3023382E-01
   7125.33  5.3815908E-01
   7125.67  5.4591438E-01
   7126.00  5.5258275E-01
   7126.33  5.5693124E-01
   7126.67  5.5966935E-01
   7127.00  5.6199792E-01
   7127.33  5.6517630E-01
   7127.67  5.6949100E-01
   7128.00  5.7485045E-01
   7128.33  5.8106050E-01
   7128.67  5.8759398E-01
   7129.00  5.9399542E-01
   7129.33  5.9959373E-01
   7129.67  6.0394886E-01
   7130.00  6.0685965E-01
   7130.33  6.0854350E-01
   7130.67  6.1001961E-01
   7131.00  6.1201012E-01
   7131.33  6.1487006E-01
   7131.67  6.1802735E-01
   7132.00  6.2070006E-01
   7132.33  6.2176035E-01
   7132.67  6.2074743E-01
   7133.00  6.1751836E-01
   7133.33  6.1215937E-01
   7133.67  6.0563208E-01
   7134.00  5.9873609E-01
   7134.33  5.9244754E-01
   7134.67  5.8725913E-01
   7135.00  5.8322932E-01
   7135.33  5.8021490E-01
   7135.67  5.7779322E-01
   7136.00  5.7578163E-01
   7136.33  5.7409166E-01
   7136.67  5.7259040E-01
   7137.00  5.7117566E-01
   7137.33  5.6968640E-01
   7137.67  5.6795901E-01
   7138.00  5.6585438E-01
   7138.33  5.6318821E-01
   7138.67  5.5996983E-01
   7139.00  5.5622023E-01
   7139.33  5.5198700E-01
   7139.67  5.4749461E-01
   7140.00  5.4292788E-01
   7140.33  5.3854246E-01
   7140.67  5.3455035E-01
   7141.00  5.3113015E-01
   7141.33  5.2853632E-01
   7141.67  5.2676879E-01
   7142.00  5.2585366E-01
   7142.33  5.2588877E-01
   7142.67  5.2672699E-01
   7143.00  5.2830699E-01
   7143.33  5.3061210E-01
   7143.67  5.3344235E-01
   7144.00  5.3668132E-01
   7144.33  5.4021481E-01
   7144.67  5.4385708E-01
   7145.00  5.4747700E-01
   7145.33  5.5090673E-01
   7145.67  5.5403302E-01
   7146.00  5.5675466E-01
   7146.33  5.5891227E-01
   7146.67  5.6049837E-01
   7147.00  5.6147613E-01
   7147.33  5.6175281E-01
   7147.67  5.6141926E-01
   7148.00  5.6050477E-01
   7148.33  5.5899389E-01
   7148.67  5.5701626E-01
   7149.00  5.5463087E-01
   7149.33  5.5186269E-01
   7149.67  5.4881304E-01
   7150.00  5.4551836E-01
   7150.33  5.4197695E-01
   7150.67  5.3822783E-01
   7151.00  5.3426841E-01
   7151.33  5.3005405E-01
   7151.67  5.2558891E-01
   7152.00  5.2085374E-01
   7152.33  5.1579481E-01
   7152.67  5.1043700E-01
   7153.00  5.0477868E-01
   7153.33  4.9878433E-01
   7153.67  4.9250182E-01
   7154.00  4.8594946E-01
   7154.33  4.7912748E-01
   7154.67  4.7210551E-01
   7155.00  4.6492510E-01
   7155.33  4.5762728E-01
   7155.67  4.5028210E-01
   7156.00  4.4293895E-01
   7156.33  4.3565821E-01
   7156.67  4.2848169E-01
   7157.00  4.2144820E-01
   7157.33  4.1462204E-01
   7157.67  4.0801778E-01
   7158.00  4.0166634E-01
   7158.33  3.9563946E-01
   7158.67  3.8993871E-01
   7159.00  3.8459884E-01
   7159.33  3.7971262E-01
   7159.67  3.7527343E-01
   7160.00  3.7131822E-01
   7160.33  3.6795148E-01
   7160.67  3.6514097E-01
   7161.00  3.6290901E-01
   7161.33  3.6134644E-01
   7161.67  3.6038283E-01
   7162.00  3.6000964E-01
   7162.33  3.6027719E-01
   7162.67  3.6108590E-01
   7163.00  3.6240462E-01
   7163.33  3.6424869E-01
   7163.67  3.6650686E-01
   7164.00  3.6912606E-01
   7164.33  3.7208702E-01
   7164.67  3.7529775E-01
   7165.00  3.7871159E-01
   7165.33  3.8229420E-01
   7165.67  3.8597591E-01
   7166.00  3.8971523E-01
   7166.33  3.9346886E-01
   7166.67  3.9719459E-01
   7167.00  4.0086110E-01
   7167.33  4.0442516E-01
   7167.67  4.0787157E-01
   7168.00  4.1118151E-01
   7168.33  4.1431837E-01
   7168.67  4.1728915E-01
   7169.00  4.2008743E-01
   7169.33  4.2268846E-01
   7169.67  4.2511535E-01
   7170.00  4.2737157E-01
   7170.33  4.2944179E-01
   7170.67  4.3135073E-01
   7171.00  4.3309738E-01
   7171.33  4.3464740E-01
   7171.67  4.3598749E-01
   7172.00  4.3706514E-01
