    FDMNES
    energy     <xanes>
   7097.00  5.4332805E-03
   7097.33  5.5706149E-03
   7097.67  5.7147202E-03
   7098.00  5.8660984E-03
   7098.33  6.0263921E-03
   7098.67  6.1953448E-03
   7099.00  6.3736610E-03
   7099.33  6.5635510E-03
   7099.67  6.7647809E-03
   7100.00  6.9783712E-03
   7100.33  7.2073910E-03
   7100.67  7.4516876E-03
   7101.00  7.7127957E-03
   7101.33  7.9951398E-03
   7101.67  8.2987781E-03
   7102.00  8.6261233E-03
   7102.33  8.9838513E-03
   7102.67  9.3725242E-03
   7103.00  9.7961452E-03
   7103.33  1.0265369E-02
   7103.67  1.0781956E-02
   7104.00  1.1353006E-02
   7104.33  1.1996772E-02
   7104.67  1.2717971E-02
   7105.00  1.3530322E-02
   7105.33  1.4468070E-02
   7105.67  1.5543855E-02
   7106.00  1.6787304E-02
   7106.33  1.8271003E-02
   7106.67  2.0031586E-02
   7107.00  2.2143638E-02
   7107.33  2.4789666E-02
   7107.67  2.8094014E-02
   7108.00  3.2291204E-02
   7108.33  3.7973154E-02
   7108.67  4.5692727E-02
   7109.00  5.6490014E-02
   7109.33  7.3236565E-02
   7109.67  9.9734104E-02
   7110.00  1.4359301E-01
   7110.33  2.2627686E-01
   7110.67  3.5728749E-01
   7111.00  4.7510121E-01
   7111.33  4.4942286E-01
   7111.67  3.8325296E-01
   7112.00  3.2968211E-01
   7112.33  3.1891402E-01
   7112.67  3.1640930E-01
   7113.00  2.7860951E-01
   7113.33  2.1181804E-01
   7113.67  1.5681146E-01
   7114.00  1.2138341E-01
   7114.33  1.0129028E-01
   7114.67  8.9174396E-02
   7115.00  8.2217400E-02
   7115.33  7.9154847E-02
   7115.67  7.8764068E-02
   7116.00  8.0713932E-02
   7116.33  8.5028836E-02
   7116.67  9.1118138E-02
   7117.00  9.8703248E-02
   7117.33  1.0838434E-01
   7117.67  1.2072267E-01
   7118.00  1.3596716E-01
   7118.33  1.5422745E-01
   7118.67  1.7465458E-01
   7119.00  1.9664660E-01
   7119.33  2.1941730E-01
   7119.67  2.4185917E-01
   7120.00  2.6302107E-01
   7120.33  2.8158612E-01
   7120.67  2.9720489E-01
   7121.00  3.0990165E-01
   7121.33  3.2036121E-01
   7121.67  3.3077176E-01
   7122.00  3.4340444E-01
   7122.33  3.6144006E-01
   7122.67  3.8452893E-01
   7123.00  4.0895289E-01
   7123.33  4.2982139E-01
   7123.67  4.5039707E-01
   7124.00  4.7512347E-01
   7124.33  5.0522904E-01
   7124.67  5.3708769E-01
   7125.00  5.6784445E-01
   7125.33  5.9461820E-01
   7125.67  6.1578793E-01
   7126.00  6.2956054E-01
   7126.33  6.3356691E-01
   7126.67  6.2996211E-01
   7127.00  6.2161867E-01
   7127.33  6.1217415E-01
   7127.67  6.0423253E-01
   7128.00  5.9868919E-01
   7128.33  5.9597831E-01
   7128.67  5.9538632E-01
   7129.00  5.9642005E-01
   7129.33  5.9873752E-01
   7129.67  6.0197368E-01
   7130.00  6.0608936E-01
   7130.33  6.1109147E-01
   7130.67  6.1663123E-01
   7131.00  6.2243153E-01
   7131.33  6.2821852E-01
   7131.67  6.3379829E-01
   7132.00  6.3901665E-01
   7132.33  6.4359638E-01
   7132.67  6.4741159E-01
   7133.00  6.5036579E-01
   7133.33  6.5236209E-01
   7133.67  6.5359786E-01
   7134.00  6.5418216E-01
   7134.33  6.5432039E-01
   7134.67  6.5445822E-01
   7135.00  6.5481300E-01
   7135.33  6.5533860E-01
   7135.67  6.5581055E-01
   7136.00  6.5608080E-01
   7136.33  6.5601462E-01
   7136.67  6.5561461E-01
   7137.00  6.5486971E-01
   7137.33  6.5371472E-01
   7137.67  6.5215896E-01
   7138.00  6.5016191E-01
   7138.33  6.4761061E-01
   7138.67  6.4451740E-01
   7139.00  6.4085480E-01
   7139.33  6.3654719E-01
   7139.67  6.3169389E-01
   7140.00  6.2634157E-01
   7140.33  6.2051278E-01
   7140.67  6.1435191E-01
   7141.00  6.0794446E-01
   7141.33  6.0137269E-01
   7141.67  5.9475022E-01
   7142.00  5.8815052E-01
   7142.33  5.8165760E-01
   7142.67  5.7532049E-01
   7143.00  5.6918241E-01
   7143.33  5.6329562E-01
   7143.67  5.5763125E-01
   7144.00  5.5217566E-01
   7144.33  5.4692469E-01
   7144.67  5.4181997E-01
   7145.00  5.3682723E-01
   7145.33  5.3191473E-01
   7145.67  5.2703594E-01
   7146.00  5.2216391E-01
   7146.33  5.1727356E-01
   7146.67  5.1235523E-01
   7147.00  5.0740914E-01
   7147.33  5.0244581E-01
   7147.67  4.9749319E-01
   7148.00  4.9258383E-01
   7148.33  4.8777590E-01
   7148.67  4.8311144E-01
   7149.00  4.7863811E-01
   7149.33  4.7443875E-01
   7149.67  4.7052672E-01
   7150.00  4.6692830E-01
   7150.33  4.6369177E-01
   7150.67  4.6075179E-01
   7151.00  4.5806690E-01
   7151.33  4.5559798E-01
   7151.67  4.5324254E-01
   7152.00  4.5092543E-01
   7152.33  4.4855245E-01
   7152.67  4.4605286E-01
   7153.00  4.4337552E-01
   7153.33  4.4044783E-01
   7153.67  4.3727636E-01
   7154.00  4.3386242E-01
   7154.33  4.3019211E-01
   7154.67  4.2632001E-01
   7155.00  4.2227619E-01
   7155.33  4.1808394E-01
   7155.67  4.1380350E-01
   7156.00  4.0947771E-01
   7156.33  4.0515895E-01
   7156.67  4.0089371E-01
   7157.00  3.9672160E-01
   7157.33  3.9270618E-01
   7157.67  3.8887623E-01
   7158.00  3.8527192E-01
   7158.33  3.8197346E-01
   7158.67  3.7899172E-01
   7159.00  3.7636401E-01
   7159.33  3.7418016E-01
   7159.67  3.7242674E-01
   7160.00  3.7113053E-01
   7160.33  3.7037747E-01
   7160.67  3.7012499E-01
   7161.00  3.7038130E-01
   7161.33  3.7121125E-01
   7161.67  3.7254228E-01
   7162.00  3.7435805E-01
   7162.33  3.7668575E-01
   7162.67  3.7942660E-01
   7163.00  3.8253534E-01
   7163.33  3.8599213E-01
   7163.67  3.8969488E-01
   7164.00  3.9358574E-01
   7164.33  3.9760549E-01
   7164.67  4.0165980E-01
   7165.00  4.0568710E-01
   7165.33  4.0961811E-01
   7165.67  4.1341471E-01
   7166.00  4.1704344E-01
   7166.33  4.2045208E-01
   7166.67  4.2364933E-01
   7167.00  4.2663098E-01
   7167.33  4.2937585E-01
   7167.67  4.3192370E-01
   7168.00  4.3429080E-01
   7168.33  4.3647994E-01
   7168.67  4.3853452E-01
   7169.00  4.4047345E-01
   7169.33  4.4230304E-01
   7169.67  4.4404840E-01
   7170.00  4.4571557E-01
   7170.33  4.4729566E-01
   7170.67  4.4879239E-01
   7171.00  4.5019469E-01
   7171.33  4.5146471E-01
   7171.67  4.5257568E-01
   7172.00  4.5347570E-01
