    FDMNES
    energy     <xanes>
   7097.00  4.6601071E-03
   7097.33  4.7592615E-03
   7097.67  4.8624203E-03
   7098.00  4.9698305E-03
   7098.33  5.0823796E-03
   7098.67  5.1998470E-03
   7099.00  5.3225644E-03
   7099.33  5.4516694E-03
   7099.67  5.5869312E-03
   7100.00  5.7288070E-03
   7100.33  5.8787944E-03
   7100.67  6.0366669E-03
   7101.00  6.2030758E-03
   7101.33  6.3800557E-03
   7101.67  6.5674188E-03
   7102.00  6.7661304E-03
   7102.33  6.9790643E-03
   7102.67  7.2061493E-03
   7103.00  7.4488863E-03
   7103.33  7.7115355E-03
   7103.67  7.9943234E-03
   7104.00  8.2997261E-03
   7104.33  8.6344581E-03
   7104.67  8.9994852E-03
   7105.00  9.3992105E-03
   7105.33  9.8450888E-03
   7105.67  1.0339994E-02
   7106.00  1.0892557E-02
   7106.33  1.1524494E-02
   7106.67  1.2244066E-02
   7107.00  1.3070589E-02
   7107.33  1.4051732E-02
   7107.67  1.5213463E-02
   7108.00  1.6608088E-02
   7108.33  1.8365671E-02
   7108.67  2.0586733E-02
   7109.00  2.3462018E-02
   7109.33  2.7495808E-02
   7109.67  3.3258170E-02
   7110.00  4.1866851E-02
   7110.33  5.6481609E-02
   7110.67  7.9846833E-02
   7111.00  1.1047480E-01
   7111.33  1.4104769E-01
   7111.67  1.7037355E-01
   7112.00  1.9767269E-01
   7112.33  2.2909990E-01
   7112.67  2.4607223E-01
   7113.00  2.2322878E-01
   7113.33  1.7108762E-01
   7113.67  1.2838178E-01
   7114.00  1.0126151E-01
   7114.33  8.6020260E-02
   7114.67  7.7075294E-02
   7115.00  7.2472555E-02
   7115.33  7.1333222E-02
   7115.67  7.2610671E-02
   7116.00  7.6034320E-02
   7116.33  8.1658877E-02
   7116.67  8.8973026E-02
   7117.00  9.7832338E-02
   7117.33  1.0895697E-01
   7117.67  1.2272894E-01
   7118.00  1.3920200E-01
   7118.33  1.5822987E-01
   7118.67  1.7881468E-01
   7119.00  2.0022491E-01
   7119.33  2.2161237E-01
   7119.67  2.4227945E-01
   7120.00  2.6174758E-01
   7120.33  2.7934308E-01
   7120.67  2.9496891E-01
   7121.00  3.0867868E-01
   7121.33  3.2106909E-01
   7121.67  3.3392133E-01
   7122.00  3.4917806E-01
   7122.33  3.6925393E-01
   7122.67  3.9254002E-01
   7123.00  4.1465884E-01
   7123.33  4.3250332E-01
   7123.67  4.5129754E-01
   7124.00  4.7509846E-01
   7124.33  5.0423907E-01
   7124.67  5.3477943E-01
   7125.00  5.6407508E-01
   7125.33  5.8975489E-01
   7125.67  6.1046687E-01
   7126.00  6.2450944E-01
   7126.33  6.2966659E-01
   7126.67  6.2770756E-01
   7127.00  6.2074311E-01
   7127.33  6.1143205E-01
   7127.67  6.0244059E-01
   7128.00  5.9509217E-01
   7128.33  5.9038167E-01
   7128.67  5.8803104E-01
   7129.00  5.8777793E-01
   7129.33  5.8955517E-01
   7129.67  5.9297364E-01
   7130.00  5.9787504E-01
   7130.33  6.0403444E-01
   7130.67  6.1084490E-01
   7131.00  6.1798809E-01
   7131.33  6.2528563E-01
   7131.67  6.3261828E-01
   7132.00  6.3985706E-01
   7132.33  6.4670354E-01
   7132.67  6.5290538E-01
   7133.00  6.5827559E-01
   7133.33  6.6262363E-01
   7133.67  6.6607875E-01
   7134.00  6.6868998E-01
   7134.33  6.7059139E-01
   7134.67  6.7221629E-01
   7135.00  6.7369281E-01
   7135.33  6.7478692E-01
   7135.67  6.7521350E-01
   7136.00  6.7472339E-01
   7136.33  6.7300742E-01
   7136.67  6.7015865E-01
   7137.00  6.6621839E-01
   7137.33  6.6117014E-01
   7137.67  6.5528302E-01
   7138.00  6.4870200E-01
   7138.33  6.4154626E-01
   7138.67  6.3405852E-01
   7139.00  6.2635930E-01
   7139.33  6.1853688E-01
   7139.67  6.1069521E-01
   7140.00  6.0290925E-01
   7140.33  5.9527757E-01
   7140.67  5.8785698E-01
   7141.00  5.8070499E-01
   7141.33  5.7392155E-01
   7141.67  5.6751489E-01
   7142.00  5.6151876E-01
   7142.33  5.5601985E-01
   7142.67  5.5098076E-01
   7143.00  5.4639513E-01
   7143.33  5.4228356E-01
   7143.67  5.3853915E-01
   7144.00  5.3510119E-01
   7144.33  5.3191493E-01
   7144.67  5.2886325E-01
   7145.00  5.2587070E-01
   7145.33  5.2285552E-01
   7145.67  5.1975681E-01
   7146.00  5.1653658E-01
   7146.33  5.1315300E-01
   7146.67  5.0962272E-01
   7147.00  5.0596053E-01
   7147.33  5.0218652E-01
   7147.67  4.9835879E-01
   7148.00  4.9452375E-01
   7148.33  4.9074543E-01
   7148.67  4.8707492E-01
   7149.00  4.8355786E-01
   7149.33  4.8026363E-01
   7149.67  4.7719912E-01
   7150.00  4.7437761E-01
   7150.33  4.7182011E-01
   7150.67  4.6946364E-01
   7151.00  4.6726545E-01
   7151.33  4.6516893E-01
   7151.67  4.6307975E-01
   7152.00  4.6092175E-01
   7152.33  4.5859037E-01
   7152.67  4.5603226E-01
   7153.00  4.5319474E-01
   7153.33  4.4999620E-01
   7153.67  4.4646371E-01
   7154.00  4.4260003E-01
   7154.33  4.3838253E-01
   7154.67  4.3388221E-01
   7155.00  4.2913632E-01
   7155.33  4.2417431E-01
   7155.67  4.1908673E-01
   7156.00  4.1393426E-01
   7156.33  4.0878498E-01
   7156.67  4.0370553E-01
   7157.00  3.9875290E-01
   7157.33  3.9401402E-01
   7157.67  3.8952420E-01
   7158.00  3.8533088E-01
   7158.33  3.8152720E-01
   7158.67  3.7811386E-01
   7159.00  3.7512424E-01
   7159.33  3.7264805E-01
   7159.67  3.7065435E-01
   7160.00  3.6916092E-01
   7160.33  3.6824684E-01
   7160.67  3.6785527E-01
   7161.00  3.6798692E-01
   7161.33  3.6870076E-01
   7161.67  3.6991868E-01
   7162.00  3.7162221E-01
   7162.33  3.7383704E-01
   7162.67  3.7646328E-01
   7163.00  3.7945866E-01
   7163.33  3.8281122E-01
   7163.67  3.8642510E-01
   7164.00  3.9024697E-01
   7164.33  3.9422453E-01
   7164.67  3.9827234E-01
   7165.00  4.0234077E-01
   7165.33  4.0637466E-01
   7165.67  4.1033159E-01
   7166.00  4.1417765E-01
   7166.33  4.1786465E-01
   7166.67  4.2138971E-01
   7167.00  4.2474304E-01
   7167.33  4.2790010E-01
   7167.67  4.3088739E-01
   7168.00  4.3371337E-01
   7168.33  4.3637284E-01
   7168.67  4.3889878E-01
   7169.00  4.4130250E-01
   7169.33  4.4358028E-01
   7169.67  4.4575203E-01
   7170.00  4.4781872E-01
   7170.33  4.4976318E-01
   7170.67  4.5159015E-01
   7171.00  4.5328669E-01
   7171.33  4.5480805E-01
   7171.67  4.5612895E-01
   7172.00  4.5719320E-01
