    FDMNES
    energy     <xanes>
   7097.00  5.1286443E-03
   7097.33  5.2485262E-03
   7097.67  5.3737952E-03
   7098.00  5.5048114E-03
   7098.33  5.6428140E-03
   7098.67  5.7875414E-03
   7099.00  5.9394820E-03
   7099.33  6.1002490E-03
   7099.67  6.2695714E-03
   7100.00  6.4481281E-03
   7100.33  6.6380721E-03
   7100.67  6.8391445E-03
   7101.00  7.0523176E-03
   7101.33  7.2805499E-03
   7101.67  7.5236431E-03
   7102.00  7.7830397E-03
   7102.33  8.0629503E-03
   7102.67  8.3633447E-03
   7103.00  8.6864547E-03
   7103.33  9.0385349E-03
   7103.67  9.4199658E-03
   7104.00  9.8343841E-03
   7104.33  1.0291588E-02
   7104.67  1.0792943E-02
   7105.00  1.1344774E-02
   7105.33  1.1963513E-02
   7105.67  1.2652971E-02
   7106.00  1.3425122E-02
   7106.33  1.4310135E-02
   7106.67  1.5318402E-02
   7107.00  1.6475387E-02
   7107.33  1.7843928E-02
   7107.67  1.9454768E-02
   7108.00  2.1371951E-02
   7108.33  2.3753586E-02
   7108.67  2.6709083E-02
   7109.00  3.0448245E-02
   7109.33  3.5512924E-02
   7109.67  4.2452424E-02
   7110.00  5.2332920E-02
   7110.33  6.8186735E-02
   7110.67  9.3625497E-02
   7111.00  1.3238033E-01
   7111.33  1.8260336E-01
   7111.67  2.2865699E-01
   7112.00  2.6248813E-01
   7112.33  2.9358080E-01
   7112.67  3.2332020E-01
   7113.00  3.5080354E-01
   7113.33  3.8462917E-01
   7113.67  4.1751668E-01
   7114.00  4.2912195E-01
   7114.33  4.1194915E-01
   7114.67  3.8279328E-01
   7115.00  3.4370629E-01
   7115.33  3.0058696E-01
   7115.67  2.6457895E-01
   7116.00  2.3919739E-01
   7116.33  2.2422193E-01
   7116.67  2.1447051E-01
   7117.00  2.0525480E-01
   7117.33  1.9159277E-01
   7117.67  1.7568540E-01
   7118.00  1.6218831E-01
   7118.33  1.5423710E-01
   7118.67  1.5004024E-01
   7119.00  1.4747525E-01
   7119.33  1.4525413E-01
   7119.67  1.4432616E-01
   7120.00  1.4605282E-01
   7120.33  1.5122362E-01
   7120.67  1.5835532E-01
   7121.00  1.6570382E-01
   7121.33  1.7127979E-01
   7121.67  1.7496524E-01
   7122.00  1.7732260E-01
   7122.33  1.7861787E-01
   7122.67  1.7986268E-01
   7123.00  1.8305761E-01
   7123.33  1.9081569E-01
   7123.67  2.0305138E-01
   7124.00  2.1918471E-01
   7124.33  2.3839653E-01
   7124.67  2.5887036E-01
   7125.00  2.7933523E-01
   7125.33  2.9848672E-01
   7125.67  3.1566709E-01
   7126.00  3.3043429E-01
   7126.33  3.4264902E-01
   7126.67  3.5382027E-01
   7127.00  3.6573673E-01
   7127.33  3.8109789E-01
   7127.67  4.0140853E-01
   7128.00  4.2763729E-01
   7128.33  4.6069306E-01
   7128.67  4.9883719E-01
   7129.00  5.4022226E-01
   7129.33  5.8141329E-01
   7129.67  6.1834949E-01
   7130.00  6.4837949E-01
   7130.33  6.6948012E-01
   7130.67  6.8294518E-01
   7131.00  6.8903547E-01
   7131.33  6.8727005E-01
   7131.67  6.7991775E-01
   7132.00  6.6919292E-01
   7132.33  6.5857430E-01
   7132.67  6.5177581E-01
   7133.00  6.5124930E-01
   7133.33  6.5912859E-01
   7133.67  6.7407624E-01
   7134.00  6.9489052E-01
   7134.33  7.1994502E-01
   7134.67  7.4606743E-01
   7135.00  7.7068953E-01
   7135.33  7.9053074E-01
   7135.67  8.0423135E-01
   7136.00  8.1113983E-01
   7136.33  8.1081651E-01
   7136.67  8.0532518E-01
   7137.00  7.9609718E-01
   7137.33  7.8452563E-01
   7137.67  7.7222222E-01
   7138.00  7.6000300E-01
   7138.33  7.4850583E-01
   7138.67  7.3789992E-01
   7139.00  7.2825773E-01
   7139.33  7.1970431E-01
   7139.67  7.1209706E-01
   7140.00  7.0543136E-01
   7140.33  6.9985777E-01
   7140.67  6.9531118E-01
   7141.00  6.9182975E-01
   7141.33  6.8951639E-01
   7141.67  6.8807785E-01
   7142.00  6.8723704E-01
   7142.33  6.8653950E-01
   7142.67  6.8540864E-01
   7143.00  6.8337451E-01
   7143.33  6.7983793E-01
   7143.67  6.7472658E-01
   7144.00  6.6799974E-01
   7144.33  6.5956759E-01
   7144.67  6.4978563E-01
   7145.00  6.3879116E-01
   7145.33  6.2661257E-01
   7145.67  6.1356240E-01
   7146.00  5.9982062E-01
   7146.33  5.8557243E-01
   7146.67  5.7114444E-01
   7147.00  5.5677992E-01
   7147.33  5.4279800E-01
   7147.67  5.2940784E-01
   7148.00  5.1679110E-01
   7148.33  5.0522499E-01
   7148.67  4.9469866E-01
   7149.00  4.8526264E-01
   7149.33  4.7707296E-01
   7149.67  4.6997362E-01
   7150.00  4.6392971E-01
   7150.33  4.5901044E-01
   7150.67  4.5502742E-01
   7151.00  4.5192360E-01
   7151.33  4.4973464E-01
   7151.67  4.4829727E-01
   7152.00  4.4756292E-01
   7152.33  4.4756097E-01
   7152.67  4.4816282E-01
   7153.00  4.4933151E-01
   7153.33  4.5109449E-01
   7153.67  4.5334975E-01
   7154.00  4.5606654E-01
   7154.33  4.5926159E-01
   7154.67  4.6284335E-01
   7155.00  4.6677553E-01
   7155.33  4.7104774E-01
   7155.67  4.7556489E-01
   7156.00  4.8026784E-01
   7156.33  4.8508677E-01
   7156.67  4.8991107E-01
   7157.00  4.9464723E-01
   7157.33  4.9915657E-01
   7157.67  5.0335502E-01
   7158.00  5.0715950E-01
   7158.33  5.1043394E-01
   7158.67  5.1318489E-01
   7159.00  5.1538759E-01
   7159.33  5.1696512E-01
   7159.67  5.1799723E-01
   7160.00  5.1850173E-01
   7160.33  5.1844434E-01
   7160.67  5.1792109E-01
   7161.00  5.1696196E-01
   7161.33  5.1554979E-01
   7161.67  5.1376917E-01
   7162.00  5.1165082E-01
   7162.33  5.0919273E-01
   7162.67  5.0646923E-01
   7163.00  5.0351399E-01
   7163.33  5.0034234E-01
   7163.67  4.9700969E-01
   7164.00  4.9354758E-01
   7164.33  4.8999577E-01
   7164.67  4.8641700E-01
   7165.00  4.8285670E-01
   7165.33  4.7937641E-01
   7165.67  4.7601742E-01
   7166.00  4.7281970E-01
   7166.33  4.6985103E-01
   7166.67  4.6712206E-01
   7167.00  4.6465692E-01
   7167.33  4.6251216E-01
   7167.67  4.6066750E-01
   7168.00  4.5912830E-01
   7168.33  4.5792768E-01
   7168.67  4.5701425E-01
   7169.00  4.5637001E-01
   7169.33  4.5599922E-01
   7169.67  4.5584111E-01
   7170.00  4.5586505E-01
   7170.33  4.5604735E-01
   7170.67  4.5632835E-01
   7171.00  4.5667184E-01
   7171.33  4.5703665E-01
   7171.67  4.5737308E-01
   7172.00  4.5763791E-01
