    FDMNES
    energy     <xanes>
   7097.00  4.0015189E-03
   7097.33  4.0752052E-03
   7097.67  4.1515257E-03
   7098.00  4.2306340E-03
   7098.33  4.3131004E-03
   7098.67  4.3987703E-03
   7099.00  4.4878509E-03
   7099.33  4.5810699E-03
   7099.67  4.6782684E-03
   7100.00  4.7797345E-03
   7100.33  4.8864260E-03
   7100.67  4.9981916E-03
   7101.00  5.1154478E-03
   7101.33  5.2395034E-03
   7101.67  5.3702425E-03
   7102.00  5.5082958E-03
   7102.33  5.6555364E-03
   7102.67  5.8119480E-03
   7103.00  5.9785403E-03
   7103.33  6.1581534E-03
   7103.67  6.3510225E-03
   7104.00  6.5588785E-03
   7104.33  6.7863527E-03
   7104.67  7.0343137E-03
   7105.00  7.3059931E-03
   7105.33  7.6096772E-03
   7105.67  7.9479206E-03
   7106.00  8.3274541E-03
   7106.33  8.7650136E-03
   7106.67  9.2681363E-03
   7107.00  9.8530445E-03
   7107.33  1.0559579E-02
   7107.67  1.1412671E-02
   7108.00  1.2460352E-02
   7108.33  1.3822772E-02
   7108.67  1.5603609E-02
   7109.00  1.7997085E-02
   7109.33  2.1525600E-02
   7109.67  2.6827605E-02
   7110.00  3.5164084E-02
   7110.33  5.0190058E-02
   7110.67  7.5504009E-02
   7111.00  1.1017470E-01
   7111.33  1.3996682E-01
   7111.67  1.4641843E-01
   7112.00  1.2085035E-01
   7112.33  8.9117399E-02
   7112.67  6.7580549E-02
   7113.00  5.4064276E-02
   7113.33  4.5777712E-02
   7113.67  4.0905625E-02
   7114.00  3.8806453E-02
   7114.33  3.7919927E-02
   7114.67  3.5736967E-02
   7115.00  3.2525407E-02
   7115.33  3.0210698E-02
   7115.67  2.9062837E-02
   7116.00  2.8827004E-02
   7116.33  2.9348459E-02
   7116.67  3.0398696E-02
   7117.00  3.1861964E-02
   7117.33  3.3574572E-02
   7117.67  3.5273398E-02
   7118.00  3.6817738E-02
   7118.33  3.8217174E-02
   7118.67  3.9702067E-02
   7119.00  4.1523997E-02
   7119.33  4.4054454E-02
   7119.67  4.7488529E-02
   7120.00  5.2065129E-02
   7120.33  5.8298371E-02
   7120.67  6.6453415E-02
   7121.00  7.7059712E-02
   7121.33  9.1283975E-02
   7121.67  1.0938188E-01
   7122.00  1.3134559E-01
   7122.33  1.5607109E-01
   7122.67  1.8049313E-01
   7123.00  2.0244033E-01
   7123.33  2.1969672E-01
   7123.67  2.3117476E-01
   7124.00  2.3633021E-01
   7124.33  2.3655671E-01
   7124.67  2.3694025E-01
   7125.00  2.4134003E-01
   7125.33  2.5290969E-01
   7125.67  2.7149376E-01
   7126.00  2.9746830E-01
   7126.33  3.3274897E-01
   7126.67  3.7703224E-01
   7127.00  4.2999952E-01
   7127.33  4.9079136E-01
   7127.67  5.5628459E-01
   7128.00  6.2488492E-01
   7128.33  6.9493901E-01
   7128.67  7.6331667E-01
   7129.00  8.2603282E-01
   7129.33  8.7627090E-01
   7129.67  9.1138625E-01
   7130.00  9.3050536E-01
   7130.33  9.3406698E-01
   7130.67  9.2901840E-01
   7131.00  9.2190418E-01
   7131.33  9.2124004E-01
   7131.67  9.3035697E-01
   7132.00  9.4743194E-01
   7132.33  9.6461006E-01
   7132.67  9.7245933E-01
   7133.00  9.6657834E-01
   7133.33  9.4678739E-01
   7133.67  9.1985457E-01
   7134.00  8.9007601E-01
   7134.33  8.6054402E-01
   7134.67  8.3239385E-01
   7135.00  8.0570687E-01
   7135.33  7.8033393E-01
   7135.67  7.5591717E-01
   7136.00  7.3258452E-01
   7136.33  7.1108290E-01
   7136.67  6.9197289E-01
   7137.00  6.7586723E-01
   7137.33  6.6369180E-01
   7137.67  6.5523035E-01
   7138.00  6.5050699E-01
   7138.33  6.4988698E-01
   7138.67  6.5273858E-01
   7139.00  6.5884183E-01
   7139.33  6.6817572E-01
   7139.67  6.7979520E-01
   7140.00  6.9297084E-01
   7140.33  7.0659136E-01
   7140.67  7.1914946E-01
   7141.00  7.2928175E-01
   7141.33  7.3504225E-01
   7141.67  7.3590770E-01
   7142.00  7.3156103E-01
   7142.33  7.2169055E-01
   7142.67  7.0777044E-01
   7143.00  6.9078951E-01
   7143.33  6.7172579E-01
   7143.67  6.5189875E-01
   7144.00  6.3206321E-01
   7144.33  6.1294478E-01
   7144.67  5.9488013E-01
   7145.00  5.7807605E-01
   7145.33  5.6281140E-01
   7145.67  5.4892059E-01
   7146.00  5.3635334E-01
   7146.33  5.2516227E-01
   7146.67  5.1506905E-01
   7147.00  5.0595913E-01
   7147.33  4.9780935E-01
   7147.67  4.9039830E-01
   7148.00  4.8364541E-01
   7148.33  4.7754948E-01
   7148.67  4.7197991E-01
   7149.00  4.6689490E-01
   7149.33  4.6229747E-01
   7149.67  4.5807021E-01
   7150.00  4.5414936E-01
   7150.33  4.5047940E-01
   7150.67  4.4693882E-01
   7151.00  4.4344153E-01
   7151.33  4.3988037E-01
   7151.67  4.3617176E-01
   7152.00  4.3224825E-01
   7152.33  4.2801271E-01
   7152.67  4.2345766E-01
   7153.00  4.1855908E-01
   7153.33  4.1325286E-01
   7153.67  4.0757240E-01
   7154.00  4.0151119E-01
   7154.33  3.9501489E-01
   7154.67  3.8812695E-01
   7155.00  3.8084511E-01
   7155.33  3.7312160E-01
   7155.67  3.6501468E-01
   7156.00  3.5654203E-01
   7156.33  3.4769883E-01
   7156.67  3.3858537E-01
   7157.00  3.2927429E-01
   7157.33  3.1986641E-01
   7157.67  3.1051301E-01
   7158.00  3.0135651E-01
   7158.33  2.9263165E-01
   7158.67  2.8449214E-01
   7159.00  2.7710841E-01
   7159.33  2.7076063E-01
   7159.67  2.6542552E-01
   7160.00  2.6109343E-01
   7160.33  2.5773991E-01
   7160.67  2.5502150E-01
   7161.00  2.5272046E-01
   7161.33  2.5068683E-01
   7161.67  2.4884320E-01
   7162.00  2.4724397E-01
   7162.33  2.4605772E-01
   7162.67  2.4537474E-01
   7163.00  2.4529848E-01
   7163.33  2.4601102E-01
   7163.67  2.4748458E-01
   7164.00  2.4975071E-01
   7164.33  2.5293772E-01
   7164.67  2.5696180E-01
   7165.00  2.6183345E-01
   7165.33  2.6766515E-01
   7165.67  2.7434697E-01
   7166.00  2.8186715E-01
   7166.33  2.9030220E-01
   7166.67  2.9951097E-01
   7167.00  3.0944725E-01
   7167.33  3.2012664E-01
   7167.67  3.3138515E-01
   7168.00  3.4313879E-01
   7168.33  3.5532116E-01
   7168.67  3.6776018E-01
   7169.00  3.8034554E-01
   7169.33  3.9295040E-01
   7169.67  4.0544383E-01
   7170.00  4.1771577E-01
   7170.33  4.2959427E-01
   7170.67  4.4098683E-01
   7171.00  4.5175545E-01
   7171.33  4.6157044E-01
   7171.67  4.7017146E-01
   7172.00  4.7710480E-01
