    FDMNES
    energy     <xanes>
   7097.00  4.6593926E-03
   7097.33  4.7599499E-03
   7097.67  4.8647569E-03
   7098.00  4.9740895E-03
   7098.33  5.0889121E-03
   7098.67  5.2090089E-03
   7099.00  5.3347537E-03
   7099.33  5.4673972E-03
   7099.67  5.6067165E-03
   7100.00  5.7532318E-03
   7100.33  5.9086083E-03
   7100.67  6.0726337E-03
   7101.00  6.2460553E-03
   7101.33  6.4311604E-03
   7101.67  6.6277880E-03
   7102.00  6.8370525E-03
   7102.33  7.0622163E-03
   7102.67  7.3032601E-03
   7103.00  7.5619232E-03
   7103.33  7.8430795E-03
   7103.67  8.1470580E-03
   7104.00  8.4767299E-03
   7104.33  8.8398111E-03
   7104.67  9.2374780E-03
   7105.00  9.6748171E-03
   7105.33  1.0164992E-02
   7105.67  1.0711329E-02
   7106.00  1.1323718E-02
   7106.33  1.2026973E-02
   7106.67  1.2830405E-02
   7107.00  1.3755860E-02
   7107.33  1.4857184E-02
   7107.67  1.6163107E-02
   7108.00  1.7731829E-02
   7108.33  1.9707909E-02
   7108.67  2.2201065E-02
   7109.00  2.5420189E-02
   7109.33  2.9916816E-02
   7109.67  3.6308792E-02
   7110.00  4.5811449E-02
   7110.33  6.1902048E-02
   7110.67  8.7964652E-02
   7111.00  1.2322752E-01
   7111.33  1.5276444E-01
   7111.67  1.7078956E-01
   7112.00  1.9005077E-01
   7112.33  2.2785002E-01
   7112.67  2.6895673E-01
   7113.00  2.9197105E-01
   7113.33  2.9835241E-01
   7113.67  2.9232604E-01
   7114.00  2.5640221E-01
   7114.33  2.0303044E-01
   7114.67  1.6462357E-01
   7115.00  1.4368576E-01
   7115.33  1.3224699E-01
   7115.67  1.3008469E-01
   7116.00  1.3827354E-01
   7116.33  1.4886748E-01
   7116.67  1.5453936E-01
   7117.00  1.5933148E-01
   7117.33  1.6279488E-01
   7117.67  1.5963289E-01
   7118.00  1.5186054E-01
   7118.33  1.4496678E-01
   7118.67  1.4044549E-01
   7119.00  1.3764356E-01
   7119.33  1.3655401E-01
   7119.67  1.3625330E-01
   7120.00  1.3505299E-01
   7120.33  1.3164001E-01
   7120.67  1.2756941E-01
   7121.00  1.2458163E-01
   7121.33  1.2396652E-01
   7121.67  1.2544584E-01
   7122.00  1.2867534E-01
   7122.33  1.3355448E-01
   7122.67  1.4018764E-01
   7123.00  1.4934752E-01
   7123.33  1.6239929E-01
   7123.67  1.7942469E-01
   7124.00  2.0053372E-01
   7124.33  2.2596003E-01
   7124.67  2.5446247E-01
   7125.00  2.8482214E-01
   7125.33  3.1489443E-01
   7125.67  3.4220516E-01
   7126.00  3.6468689E-01
   7126.33  3.7996295E-01
   7126.67  3.8897400E-01
   7127.00  3.9301891E-01
   7127.33  3.9383664E-01
   7127.67  3.9455145E-01
   7128.00  3.9784497E-01
   7128.33  4.0621549E-01
   7128.67  4.1945377E-01
   7129.00  4.3781331E-01
   7129.33  4.6296764E-01
   7129.67  4.9487832E-01
   7130.00  5.3314890E-01
   7130.33  5.7641287E-01
   7130.67  6.2143637E-01
   7131.00  6.6590917E-01
   7131.33  7.0725272E-01
   7131.67  7.4478912E-01
   7132.00  7.7883232E-01
   7132.33  8.1056977E-01
   7132.67  8.4226074E-01
   7133.00  8.7535803E-01
   7133.33  9.1010785E-01
   7133.67  9.4399992E-01
   7134.00  9.7451858E-01
   7134.33  9.9948524E-01
   7134.67  1.0180758E+00
   7135.00  1.0277301E+00
   7135.33  1.0234761E+00
   7135.67  1.0052164E+00
   7136.00  9.7393803E-01
   7136.33  9.3212541E-01
   7136.67  8.8584862E-01
   7137.00  8.3899034E-01
   7137.33  7.9510194E-01
   7137.67  7.5556602E-01
   7138.00  7.2091927E-01
   7138.33  6.9172146E-01
   7138.67  6.6697505E-01
   7139.00  6.4628461E-01
   7139.33  6.2968114E-01
   7139.67  6.1634548E-01
   7140.00  6.0599694E-01
   7140.33  5.9865251E-01
   7140.67  5.9365399E-01
   7141.00  5.9070886E-01
   7141.33  5.8966299E-01
   7141.67  5.8990460E-01
   7142.00  5.9105172E-01
   7142.33  5.9265939E-01
   7142.67  5.9413904E-01
   7143.00  5.9502653E-01
   7143.33  5.9469665E-01
   7143.67  5.9290921E-01
   7144.00  5.8947046E-01
   7144.33  5.8411121E-01
   7144.67  5.7715275E-01
   7145.00  5.6878393E-01
   7145.33  5.5918973E-01
   7145.67  5.4892491E-01
   7146.00  5.3839841E-01
   7146.33  5.2813036E-01
   7146.67  5.1855467E-01
   7147.00  5.1000993E-01
   7147.33  5.0294449E-01
   7147.67  4.9732399E-01
   7148.00  4.9311929E-01
   7148.33  4.9028760E-01
   7148.67  4.8836346E-01
   7149.00  4.8705377E-01
   7149.33  4.8611416E-01
   7149.67  4.8531824E-01
   7150.00  4.8458407E-01
   7150.33  4.8388521E-01
   7150.67  4.8323185E-01
   7151.00  4.8265194E-01
   7151.33  4.8219840E-01
   7151.67  4.8189966E-01
   7152.00  4.8179924E-01
   7152.33  4.8198874E-01
   7152.67  4.8249327E-01
   7153.00  4.8335179E-01
   7153.33  4.8463668E-01
   7153.67  4.8629639E-01
   7154.00  4.8830020E-01
   7154.33  4.9061516E-01
   7154.67  4.9310918E-01
   7155.00  4.9568086E-01
   7155.33  4.9819575E-01
   7155.67  5.0053422E-01
   7156.00  5.0260040E-01
   7156.33  5.0426312E-01
   7156.67  5.0551627E-01
   7157.00  5.0634754E-01
   7157.33  5.0672792E-01
   7157.67  5.0675865E-01
   7158.00  5.0649692E-01
   7158.33  5.0598413E-01
   7158.67  5.0530923E-01
   7159.00  5.0451188E-01
   7159.33  5.0360857E-01
   7159.67  5.0262150E-01
   7160.00  5.0154833E-01
   7160.33  5.0036559E-01
   7160.67  4.9907081E-01
   7161.00  4.9765269E-01
   7161.33  4.9608573E-01
   7161.67  4.9438776E-01
   7162.00  4.9256969E-01
   7162.33  4.9063147E-01
   7162.67  4.8860183E-01
   7163.00  4.8649895E-01
   7163.33  4.8434299E-01
   7163.67  4.8216893E-01
   7164.00  4.8000373E-01
   7164.33  4.7788513E-01
   7164.67  4.7583860E-01
   7165.00  4.7388714E-01
   7165.33  4.7206755E-01
   7165.67  4.7038113E-01
   7166.00  4.6883627E-01
   7166.33  4.6745630E-01
   7166.67  4.6622439E-01
   7167.00  4.6513937E-01
   7167.33  4.6421532E-01
   7167.67  4.6342939E-01
   7168.00  4.6277774E-01
   7168.33  4.6227551E-01
   7168.67  4.6190448E-01
   7169.00  4.6165781E-01
   7169.33  4.6153985E-01
   7169.67  4.6152680E-01
   7170.00  4.6161047E-01
   7170.33  4.6179147E-01
   7170.67  4.6204711E-01
   7171.00  4.6236423E-01
   7171.33  4.6272434E-01
   7171.67  4.6308284E-01
   7172.00  4.6338846E-01
