    FDMNES
    energy     <xanes>
   7097.00  4.3282445E-03
   7097.33  4.4155821E-03
   7097.67  4.5062897E-03
   7098.00  4.6005719E-03
   7098.33  4.6991704E-03
   7098.67  4.8018967E-03
   7099.00  4.9090264E-03
   7099.33  5.0215112E-03
   7099.67  5.1391561E-03
   7100.00  5.2623439E-03
   7100.33  5.3923309E-03
   7100.67  5.5289304E-03
   7101.00  5.6726935E-03
   7101.33  5.8253378E-03
   7101.67  5.9867190E-03
   7102.00  6.1576655E-03
   7102.33  6.3406291E-03
   7102.67  6.5355854E-03
   7103.00  6.7438472E-03
   7103.33  6.9691072E-03
   7103.67  7.2116440E-03
   7104.00  7.4736765E-03
   7104.33  7.7611590E-03
   7104.67  8.0751269E-03
   7105.00  8.4196508E-03
   7105.33  8.8052083E-03
   7105.67  9.2348287E-03
   7106.00  9.7168092E-03
   7106.33  1.0271851E-02
   7106.67  1.0908791E-02
   7107.00  1.1647130E-02
   7107.33  1.2534834E-02
   7107.67  1.3600667E-02
   7108.00  1.4900795E-02
   7108.33  1.6575495E-02
   7108.67  1.8742171E-02
   7109.00  2.1621678E-02
   7109.33  2.5805841E-02
   7109.67  3.2005109E-02
   7110.00  4.1621383E-02
   7110.33  5.8691770E-02
   7110.67  8.7025400E-02
   7111.00  1.2521631E-01
   7111.33  1.5844681E-01
   7111.67  1.6744595E-01
   7112.00  1.5088045E-01
   7112.33  1.3991685E-01
   7112.67  1.3370867E-01
   7113.00  1.2373872E-01
   7113.33  1.1170538E-01
   7113.67  1.0400501E-01
   7114.00  9.5353205E-02
   7114.33  7.9523611E-02
   7114.67  6.3384388E-02
   7115.00  5.1456108E-02
   7115.33  4.4586122E-02
   7115.67  4.0733517E-02
   7116.00  3.8972762E-02
   7116.33  3.8895795E-02
   7116.67  3.9984721E-02
   7117.00  4.1942122E-02
   7117.33  4.4269304E-02
   7117.67  4.6443986E-02
   7118.00  4.8504983E-02
   7118.33  5.1017381E-02
   7118.67  5.4534955E-02
   7119.00  5.9526542E-02
   7119.33  6.6882409E-02
   7119.67  7.7299306E-02
   7120.00  9.2078119E-02
   7120.33  1.1436488E-01
   7120.67  1.4623797E-01
   7121.00  1.8880858E-01
   7121.33  2.3517662E-01
   7121.67  2.6531741E-01
   7122.00  2.6960905E-01
   7122.33  2.5982305E-01
   7122.67  2.5469946E-01
   7123.00  2.5986724E-01
   7123.33  2.7637983E-01
   7123.67  3.0067861E-01
   7124.00  3.3124603E-01
   7124.33  3.6818357E-01
   7124.67  4.1049535E-01
   7125.00  4.5682078E-01
   7125.33  5.0349893E-01
   7125.67  5.4590358E-01
   7126.00  5.8189114E-01
   7126.33  6.1223532E-01
   7126.67  6.4048036E-01
   7127.00  6.6706021E-01
   7127.33  6.8978300E-01
   7127.67  7.0982353E-01
   7128.00  7.3150537E-01
   7128.33  7.6162639E-01
   7128.67  8.0299356E-01
   7129.00  8.5566578E-01
   7129.33  9.1536387E-01
   7129.67  9.7164682E-01
   7130.00  1.0158618E+00
   7130.33  1.0396614E+00
   7130.67  1.0443535E+00
   7131.00  1.0317768E+00
   7131.33  1.0042815E+00
   7131.67  9.6877926E-01
   7132.00  9.2973907E-01
   7132.33  8.9121252E-01
   7132.67  8.5541151E-01
   7133.00  8.2305006E-01
   7133.33  7.9449541E-01
   7133.67  7.6906368E-01
   7134.00  7.4684393E-01
   7134.33  7.2860283E-01
   7134.67  7.1380020E-01
   7135.00  7.0185000E-01
   7135.33  6.9207137E-01
   7135.67  6.8335785E-01
   7136.00  6.7509452E-01
   7136.33  6.6670352E-01
   7136.67  6.5779988E-01
   7137.00  6.4817298E-01
   7137.33  6.3761945E-01
   7137.67  6.2627559E-01
   7138.00  6.1424625E-01
   7138.33  6.0163555E-01
   7138.67  5.8869892E-01
   7139.00  5.7561143E-01
   7139.33  5.6260193E-01
   7139.67  5.4987739E-01
   7140.00  5.3762191E-01
   7140.33  5.2615416E-01
   7140.67  5.1562906E-01
   7141.00  5.0623945E-01
   7141.33  4.9830465E-01
   7141.67  4.9170324E-01
   7142.00  4.8636734E-01
   7142.33  4.8227217E-01
   7142.67  4.7908883E-01
   7143.00  4.7666859E-01
   7143.33  4.7494351E-01
   7143.67  4.7370368E-01
   7144.00  4.7283057E-01
   7144.33  4.7222208E-01
   7144.67  4.7173439E-01
   7145.00  4.7126846E-01
   7145.33  4.7069044E-01
   7145.67  4.6989301E-01
   7146.00  4.6878073E-01
   7146.33  4.6720916E-01
   7146.67  4.6516789E-01
   7147.00  4.6263814E-01
   7147.33  4.5958082E-01
   7147.67  4.5610765E-01
   7148.00  4.5228076E-01
   7148.33  4.4815883E-01
   7148.67  4.4387284E-01
   7149.00  4.3950044E-01
   7149.33  4.3511433E-01
   7149.67  4.3076267E-01
   7150.00  4.2645340E-01
   7150.33  4.2214597E-01
   7150.67  4.1774026E-01
   7151.00  4.1311087E-01
   7151.33  4.0804380E-01
   7151.67  4.0244250E-01
   7152.00  3.9622807E-01
   7152.33  3.8930036E-01
   7152.67  3.8180025E-01
   7153.00  3.7384393E-01
   7153.33  3.6556905E-01
   7153.67  3.5718426E-01
   7154.00  3.4882671E-01
   7154.33  3.4066112E-01
   7154.67  3.3278895E-01
   7155.00  3.2529715E-01
   7155.33  3.1832210E-01
   7155.67  3.1186906E-01
   7156.00  3.0598514E-01
   7156.33  3.0079815E-01
   7156.67  2.9627901E-01
   7157.00  2.9247069E-01
   7157.33  2.8952210E-01
   7157.67  2.8739270E-01
   7158.00  2.8612639E-01
   7158.33  2.8588058E-01
   7158.67  2.8657690E-01
   7159.00  2.8823445E-01
   7159.33  2.9097761E-01
   7159.67  2.9466738E-01
   7160.00  2.9926952E-01
   7160.33  3.0482824E-01
   7160.67  3.1115095E-01
   7161.00  3.1814476E-01
   7161.33  3.2574961E-01
   7161.67  3.3375246E-01
   7162.00  3.4201901E-01
   7162.33  3.5039698E-01
   7162.67  3.5871144E-01
   7163.00  3.6684095E-01
   7163.33  3.7463883E-01
   7163.67  3.8206459E-01
   7164.00  3.8907700E-01
   7164.33  3.9560824E-01
   7164.67  4.0172442E-01
   7165.00  4.0744741E-01
   7165.33  4.1276086E-01
   7165.67  4.1773527E-01
   7166.00  4.2238398E-01
   7166.33  4.2667134E-01
   7166.67  4.3063109E-01
   7167.00  4.3425136E-01
   7167.33  4.3747078E-01
   7167.67  4.4031844E-01
   7168.00  4.4278633E-01
   7168.33  4.4482844E-01
   7168.67  4.4650649E-01
   7169.00  4.4784331E-01
   7169.33  4.4883904E-01
   7169.67  4.4958019E-01
   7170.00  4.5011458E-01
   7170.33  4.5048347E-01
   7170.67  4.5076466E-01
   7171.00  4.5100437E-01
   7171.33  4.5124328E-01
   7171.67  4.5149724E-01
   7172.00  4.5175139E-01
