    FDMNES
    energy     <xanes>
   7097.00  4.8098076E-03
   7097.33  4.9171873E-03
   7097.67  5.0291547E-03
   7098.00  5.1460067E-03
   7098.33  5.2687824E-03
   7098.67  5.3972470E-03
   7099.00  5.5318016E-03
   7099.33  5.6737921E-03
   7099.67  5.8229748E-03
   7100.00  5.9799071E-03
   7100.33  6.1463775E-03
   7100.67  6.3221523E-03
   7101.00  6.5080308E-03
   7101.33  6.7064646E-03
   7101.67  6.9172729E-03
   7102.00  7.1416451E-03
   7102.33  7.3830709E-03
   7102.67  7.6415173E-03
   7103.00  7.9188368E-03
   7103.33  8.2202308E-03
   7103.67  8.5460316E-03
   7104.00  8.8992891E-03
   7104.33  9.2882156E-03
   7104.67  9.7140297E-03
   7105.00  1.0182116E-02
   7105.33  1.0706429E-02
   7105.67  1.1290423E-02
   7106.00  1.1944500E-02
   7106.33  1.2694790E-02
   7106.67  1.3550871E-02
   7107.00  1.4535451E-02
   7107.33  1.5704446E-02
   7107.67  1.7086783E-02
   7108.00  1.8741439E-02
   7108.33  2.0814126E-02
   7108.67  2.3410511E-02
   7109.00  2.6731397E-02
   7109.33  3.1298437E-02
   7109.67  3.7660463E-02
   7110.00  4.6882580E-02
   7110.33  6.1975369E-02
   7110.67  8.6141928E-02
   7111.00  1.2120300E-01
   7111.33  1.6443198E-01
   7111.67  2.1030318E-01
   7112.00  2.5641482E-01
   7112.33  3.0103159E-01
   7112.67  3.3210490E-01
   7113.00  3.3406328E-01
   7113.33  2.9008200E-01
   7113.67  2.3100307E-01
   7114.00  1.8085849E-01
   7114.33  1.4717233E-01
   7114.67  1.2463745E-01
   7115.00  1.0990898E-01
   7115.33  1.0093538E-01
   7115.67  9.5557205E-02
   7116.00  9.3077498E-02
   7116.33  9.3446688E-02
   7116.67  9.6234882E-02
   7117.00  1.0140413E-01
   7117.33  1.0919696E-01
   7117.67  1.1931127E-01
   7118.00  1.3180868E-01
   7118.33  1.4708569E-01
   7118.67  1.6482033E-01
   7119.00  1.8483237E-01
   7119.33  2.0681592E-01
   7119.67  2.2967799E-01
   7120.00  2.5258167E-01
   7120.33  2.7457571E-01
   7120.67  2.9492174E-01
   7121.00  3.1280898E-01
   7121.33  3.2707742E-01
   7121.67  3.3813361E-01
   7122.00  3.4678967E-01
   7122.33  3.5438733E-01
   7122.67  3.6245975E-01
   7123.00  3.7191034E-01
   7123.33  3.8352974E-01
   7123.67  3.9703914E-01
   7124.00  4.1189202E-01
   7124.33  4.2698890E-01
   7124.67  4.4125204E-01
   7125.00  4.5443348E-01
   7125.33  4.6705276E-01
   7125.67  4.8000228E-01
   7126.00  4.9350642E-01
   7126.33  5.0734838E-01
   7126.67  5.2109068E-01
   7127.00  5.3417920E-01
   7127.33  5.4538215E-01
   7127.67  5.5390914E-01
   7128.00  5.5933129E-01
   7128.33  5.6144550E-01
   7128.67  5.6128944E-01
   7129.00  5.5956183E-01
   7129.33  5.5686533E-01
   7129.67  5.5386889E-01
   7130.00  5.5103782E-01
   7130.33  5.4914528E-01
   7130.67  5.4893660E-01
   7131.00  5.5122079E-01
   7131.33  5.5726846E-01
   7131.67  5.6718754E-01
   7132.00  5.8098430E-01
   7132.33  5.9836884E-01
   7132.67  6.1755097E-01
   7133.00  6.3707325E-01
   7133.33  6.5532796E-01
   7133.67  6.7157772E-01
   7134.00  6.8546317E-01
   7134.33  6.9633626E-01
   7134.67  7.0425053E-01
   7135.00  7.0917527E-01
   7135.33  7.1104390E-01
   7135.67  7.1071392E-01
   7136.00  7.0871085E-01
   7136.33  7.0545601E-01
   7136.67  7.0149006E-01
   7137.00  6.9701315E-01
   7137.33  6.9206489E-01
   7137.67  6.8668121E-01
   7138.00  6.8080160E-01
   7138.33  6.7427675E-01
   7138.67  6.6713314E-01
   7139.00  6.5937856E-01
   7139.33  6.5101558E-01
   7139.67  6.4223962E-01
   7140.00  6.3319254E-01
   7140.33  6.2404645E-01
   7140.67  6.1499968E-01
   7141.00  6.0620961E-01
   7141.33  5.9790555E-01
   7141.67  5.9019715E-01
   7142.00  5.8321038E-01
   7142.33  5.7716472E-01
   7142.67  5.7201097E-01
   7143.00  5.6774593E-01
   7143.33  5.6443958E-01
   7143.67  5.6191511E-01
   7144.00  5.6008878E-01
   7144.33  5.5892435E-01
   7144.67  5.5823832E-01
   7145.00  5.5794430E-01
   7145.33  5.5799401E-01
   7145.67  5.5827870E-01
   7146.00  5.5874817E-01
   7146.33  5.5936654E-01
   7146.67  5.6006456E-01
   7147.00  5.6079202E-01
   7147.33  5.6147651E-01
   7147.67  5.6204518E-01
   7148.00  5.6242507E-01
   7148.33  5.6249076E-01
   7148.67  5.6218558E-01
   7149.00  5.6143619E-01
   7149.33  5.6010122E-01
   7149.67  5.5817400E-01
   7150.00  5.5560355E-01
   7150.33  5.5226933E-01
   7150.67  5.4824461E-01
   7151.00  5.4353993E-01
   7151.33  5.3811105E-01
   7151.67  5.3209875E-01
   7152.00  5.2557149E-01
   7152.33  5.1857018E-01
   7152.67  5.1124944E-01
   7153.00  5.0369804E-01
   7153.33  4.9599856E-01
   7153.67  4.8825708E-01
   7154.00  4.8054060E-01
   7154.33  4.7292451E-01
   7154.67  4.6544688E-01
   7155.00  4.5813957E-01
   7155.33  4.5105747E-01
   7155.67  4.4420093E-01
   7156.00  4.3758989E-01
   7156.33  4.3128094E-01
   7156.67  4.2526513E-01
   7157.00  4.1956533E-01
   7157.33  4.1425157E-01
   7157.67  4.0930515E-01
   7158.00  4.0474209E-01
   7158.33  4.0062400E-01
   7158.67  3.9690683E-01
   7159.00  3.9359039E-01
   7159.33  3.9071911E-01
   7159.67  3.8823475E-01
   7160.00  3.8612786E-01
   7160.33  3.8443161E-01
   7160.67  3.8308843E-01
   7161.00  3.8208923E-01
   7161.33  3.8146359E-01
   7161.67  3.8115765E-01
   7162.00  3.8116318E-01
   7162.33  3.8150556E-01
   7162.67  3.8213271E-01
   7163.00  3.8303226E-01
   7163.33  3.8421848E-01
   7163.67  3.8563620E-01
   7164.00  3.8726345E-01
   7164.33  3.8909649E-01
   7164.67  3.9108549E-01
   7165.00  3.9320809E-01
   7165.33  3.9545385E-01
   7165.67  3.9778759E-01
   7166.00  4.0019355E-01
   7166.33  4.0266397E-01
   7166.67  4.0517904E-01
   7167.00  4.0772832E-01
   7167.33  4.1030234E-01
   7167.67  4.1288558E-01
   7168.00  4.1546605E-01
   7168.33  4.1802617E-01
   7168.67  4.2055124E-01
   7169.00  4.2302548E-01
   7169.33  4.2542157E-01
   7169.67  4.2773030E-01
   7170.00  4.2993729E-01
   7170.33  4.3201219E-01
   7170.67  4.3395408E-01
   7171.00  4.3574749E-01
   7171.33  4.3734459E-01
   7171.67  4.3872213E-01
   7172.00  4.3982260E-01
