    FDMNES
    energy     <xanes>
   7097.00  4.2974799E-03
   7097.33  4.3892279E-03
   7097.67  4.4849020E-03
   7098.00  4.5847696E-03
   7098.33  4.6897441E-03
   7098.67  4.7996457E-03
   7099.00  4.9148448E-03
   7099.33  5.0365477E-03
   7099.67  5.1645799E-03
   7100.00  5.2994705E-03
   7100.33  5.4428636E-03
   7100.67  5.5946167E-03
   7101.00  5.7555146E-03
   7101.33  5.9278825E-03
   7101.67  6.1116700E-03
   7102.00  6.3080926E-03
   7102.33  6.5205902E-03
   7102.67  6.7493388E-03
   7103.00  6.9963221E-03
   7103.33  7.2669160E-03
   7103.67  7.5618369E-03
   7104.00  7.8845365E-03
   7104.33  8.2440085E-03
   7104.67  8.6422914E-03
   7105.00  9.0858938E-03
   7105.33  9.5912219E-03
   7105.67  1.0163770E-02
   7106.00  1.0817154E-02
   7106.33  1.1584899E-02
   7106.67  1.2482578E-02
   7107.00  1.3542958E-02
   7107.33  1.4846089E-02
   7107.67  1.6442291E-02
   7108.00  1.8427830E-02
   7108.33  2.1042637E-02
   7108.67  2.4492128E-02
   7109.00  2.9159944E-02
   7109.33  3.6073450E-02
   7109.67  4.6473562E-02
   7110.00  6.2806537E-02
   7110.33  9.2198999E-02
   7110.67  1.4221758E-01
   7111.00  2.1280353E-01
   7111.33  2.7096581E-01
   7111.67  2.8938985E-01
   7112.00  2.6657416E-01
   7112.33  2.0766282E-01
   7112.67  1.5126323E-01
   7113.00  1.1404561E-01
   7113.33  9.5658549E-02
   7113.67  8.8625705E-02
   7114.00  8.9687821E-02
   7114.33  9.2455425E-02
   7114.67  8.6730284E-02
   7115.00  7.3141406E-02
   7115.33  5.9806527E-02
   7115.67  5.0304284E-02
   7116.00  4.4268398E-02
   7116.33  4.0824732E-02
   7116.67  3.8821284E-02
   7117.00  3.7766797E-02
   7117.33  3.7366387E-02
   7117.67  3.7394973E-02
   7118.00  3.7858859E-02
   7118.33  3.8877650E-02
   7118.67  4.0421466E-02
   7119.00  4.2482783E-02
   7119.33  4.5091104E-02
   7119.67  4.8159220E-02
   7120.00  5.1701621E-02
   7120.33  5.5905623E-02
   7120.67  6.0941466E-02
   7121.00  6.7093526E-02
   7121.33  7.4899370E-02
   7121.67  8.4491245E-02
   7122.00  9.6061464E-02
   7122.33  1.1001943E-01
   7122.67  1.2633516E-01
   7123.00  1.4539170E-01
   7123.33  1.6793659E-01
   7123.67  1.9340617E-01
   7124.00  2.2155590E-01
   7124.33  2.5385280E-01
   7124.67  2.9145942E-01
   7125.00  3.3283573E-01
   7125.33  3.7123115E-01
   7125.67  4.0164621E-01
   7126.00  4.2365968E-01
   7126.33  4.3827589E-01
   7126.67  4.4833803E-01
   7127.00  4.5650759E-01
   7127.33  4.6926859E-01
   7127.67  4.9289581E-01
   7128.00  5.3055003E-01
   7128.33  5.8299471E-01
   7128.67  6.4399101E-01
   7129.00  7.0803264E-01
   7129.33  7.6707184E-01
   7129.67  8.1414565E-01
   7130.00  8.4509495E-01
   7130.33  8.5812244E-01
   7130.67  8.5971637E-01
   7131.00  8.5444131E-01
   7131.33  8.4589813E-01
   7131.67  8.3693546E-01
   7132.00  8.2848321E-01
   7132.33  8.2033193E-01
   7132.67  8.1244203E-01
   7133.00  8.0579004E-01
   7133.33  8.0158032E-01
   7133.67  7.9892781E-01
   7134.00  7.9624397E-01
   7134.33  7.9211349E-01
   7134.67  7.8784300E-01
   7135.00  7.8565239E-01
   7135.33  7.8743636E-01
   7135.67  7.9160692E-01
   7136.00  7.9579468E-01
   7136.33  7.9732797E-01
   7136.67  7.9578183E-01
   7137.00  7.9170080E-01
   7137.33  7.8592914E-01
   7137.67  7.7939306E-01
   7138.00  7.7233074E-01
   7138.33  7.6462093E-01
   7138.67  7.5614686E-01
   7139.00  7.4676489E-01
   7139.33  7.3628618E-01
   7139.67  7.2489893E-01
   7140.00  7.1276316E-01
   7140.33  7.0010593E-01
   7140.67  6.8734562E-01
   7141.00  6.7482268E-01
   7141.33  6.6301199E-01
   7141.67  6.5220001E-01
   7142.00  6.4266499E-01
   7142.33  6.3484145E-01
   7142.67  6.2867041E-01
   7143.00  6.2418763E-01
   7143.33  6.2154397E-01
   7143.67  6.2035669E-01
   7144.00  6.2035620E-01
   7144.33  6.2117992E-01
   7144.67  6.2216596E-01
   7145.00  6.2279507E-01
   7145.33  6.2242356E-01
   7145.67  6.2080989E-01
   7146.00  6.1783421E-01
   7146.33  6.1338433E-01
   7146.67  6.0780167E-01
   7147.00  6.0126408E-01
   7147.33  5.9386191E-01
   7147.67  5.8583971E-01
   7148.00  5.7728947E-01
   7148.33  5.6822510E-01
   7148.67  5.5875553E-01
   7149.00  5.4892370E-01
   7149.33  5.3875047E-01
   7149.67  5.2834599E-01
   7150.00  5.1777800E-01
   7150.33  5.0710874E-01
   7150.67  4.9642461E-01
   7151.00  4.8579864E-01
   7151.33  4.7534210E-01
   7151.67  4.6513294E-01
   7152.00  4.5525449E-01
   7152.33  4.4585164E-01
   7152.67  4.3695205E-01
   7153.00  4.2860872E-01
   7153.33  4.2092468E-01
   7153.67  4.1381537E-01
   7154.00  4.0724079E-01
   7154.33  4.0117273E-01
   7154.67  3.9542993E-01
   7155.00  3.8988758E-01
   7155.33  3.8440406E-01
   7155.67  3.7882943E-01
   7156.00  3.7305231E-01
   7156.33  3.6692616E-01
   7156.67  3.6041494E-01
   7157.00  3.5348748E-01
   7157.33  3.4609899E-01
   7157.67  3.3835331E-01
   7158.00  3.3032888E-01
   7158.33  3.2212728E-01
   7158.67  3.1390809E-01
   7159.00  3.0579718E-01
   7159.33  2.9797131E-01
   7159.67  2.9053813E-01
   7160.00  2.8361280E-01
   7160.33  2.7740692E-01
   7160.67  2.7197241E-01
   7161.00  2.6742285E-01
   7161.33  2.6400912E-01
   7161.67  2.6170628E-01
   7162.00  2.6058236E-01
   7162.33  2.6083932E-01
   7162.67  2.6232809E-01
   7163.00  2.6501884E-01
   7163.33  2.6897856E-01
   7163.67  2.7395218E-01
   7164.00  2.7981421E-01
   7164.33  2.8648419E-01
   7164.67  2.9368659E-01
   7165.00  3.0125860E-01
   7165.33  3.0904190E-01
   7165.67  3.1684979E-01
   7166.00  3.2456255E-01
   7166.33  3.3204271E-01
   7166.67  3.3923525E-01
   7167.00  3.4609407E-01
   7167.33  3.5254543E-01
   7167.67  3.5863034E-01
   7168.00  3.6436126E-01
   7168.33  3.6972652E-01
   7168.67  3.7480791E-01
   7169.00  3.7964737E-01
   7169.33  3.8427188E-01
   7169.67  3.8875005E-01
   7170.00  3.9310864E-01
   7170.33  3.9734599E-01
   7170.67  4.0146092E-01
   7171.00  4.0541460E-01
   7171.33  4.0908867E-01
   7171.67  4.1235666E-01
   7172.00  4.1502144E-01
