    FDMNES
    energy     <xanes>
   7097.00  4.8630809E-03
   7097.33  4.9693339E-03
   7097.67  5.0800725E-03
   7098.00  5.1955824E-03
   7098.33  5.3168718E-03
   7098.67  5.4437043E-03
   7099.00  5.5764633E-03
   7099.33  5.7164467E-03
   7099.67  5.8634051E-03
   7100.00  6.0178660E-03
   7100.33  6.1815403E-03
   7100.67  6.3541801E-03
   7101.00  6.5365323E-03
   7101.33  6.7309170E-03
   7101.67  6.9371205E-03
   7102.00  7.1562372E-03
   7102.33  7.3915221E-03
   7102.67  7.6428695E-03
   7103.00  7.9119500E-03
   7103.33  8.2035241E-03
   7103.67  8.5177606E-03
   7104.00  8.8573425E-03
   7104.33  9.2296035E-03
   7104.67  9.6353804E-03
   7105.00  1.0079268E-02
   7105.33  1.0573346E-02
   7105.67  1.1120119E-02
   7106.00  1.1728151E-02
   7106.33  1.2419209E-02
   7106.67  1.3200303E-02
   7107.00  1.4089383E-02
   7107.33  1.5131024E-02
   7107.67  1.6346268E-02
   7108.00  1.7779912E-02
   7108.33  1.9543144E-02
   7108.67  2.1712549E-02
   7109.00  2.4436751E-02
   7109.33  2.8103755E-02
   7109.67  3.3118912E-02
   7110.00  4.0278924E-02
   7110.33  5.1850860E-02
   7110.67  7.0154822E-02
   7111.00  9.5585097E-02
   7111.33  1.2029616E-01
   7111.67  1.3939963E-01
   7112.00  1.5874117E-01
   7112.33  1.8546406E-01
   7112.67  2.1727044E-01
   7113.00  2.5411907E-01
   7113.33  3.0480292E-01
   7113.67  3.6561590E-01
   7114.00  4.1253098E-01
   7114.33  4.1037521E-01
   7114.67  3.7629769E-01
   7115.00  3.2867626E-01
   7115.33  2.8015339E-01
   7115.67  2.4055182E-01
   7116.00  2.1300701E-01
   7116.33  1.9735596E-01
   7116.67  1.8766760E-01
   7117.00  1.7871613E-01
   7117.33  1.6711966E-01
   7117.67  1.5561793E-01
   7118.00  1.4680026E-01
   7118.33  1.4142578E-01
   7118.67  1.3788618E-01
   7119.00  1.3543468E-01
   7119.33  1.3420375E-01
   7119.67  1.3410339E-01
   7120.00  1.3467279E-01
   7120.33  1.3504618E-01
   7120.67  1.3497061E-01
   7121.00  1.3474121E-01
   7121.33  1.3460819E-01
   7121.67  1.3480311E-01
   7122.00  1.3572920E-01
   7122.33  1.3794119E-01
   7122.67  1.4159392E-01
   7123.00  1.4711733E-01
   7123.33  1.5559044E-01
   7123.67  1.6725418E-01
   7124.00  1.8211288E-01
   7124.33  1.9995222E-01
   7124.67  2.1974320E-01
   7125.00  2.4115101E-01
   7125.33  2.6427599E-01
   7125.67  2.8862096E-01
   7126.00  3.1342641E-01
   7126.33  3.3718317E-01
   7126.67  3.5842261E-01
   7127.00  3.7609167E-01
   7127.33  3.8950150E-01
   7127.67  4.0011657E-01
   7128.00  4.0925200E-01
   7128.33  4.1837251E-01
   7128.67  4.2868951E-01
   7129.00  4.4101281E-01
   7129.33  4.5645634E-01
   7129.67  4.7529434E-01
   7130.00  4.9791323E-01
   7130.33  5.2520084E-01
   7130.67  5.5712023E-01
   7131.00  5.9431450E-01
   7131.33  6.3863904E-01
   7131.67  6.9051178E-01
   7132.00  7.5077598E-01
   7132.33  8.2081571E-01
   7132.67  8.9845995E-01
   7133.00  9.8080289E-01
   7133.33  1.0604516E+00
   7133.67  1.1267582E+00
   7134.00  1.1708716E+00
   7134.33  1.1867900E+00
   7134.67  1.1813627E+00
   7135.00  1.1562056E+00
   7135.33  1.1104125E+00
   7135.67  1.0540281E+00
   7136.00  9.9594841E-01
   7136.33  9.4322983E-01
   7136.67  8.9709727E-01
   7137.00  8.5720953E-01
   7137.33  8.2326610E-01
   7137.67  7.9375375E-01
   7138.00  7.6818409E-01
   7138.33  7.4668101E-01
   7138.67  7.2861961E-01
   7139.00  7.1388776E-01
   7139.33  7.0268985E-01
   7139.67  6.9429151E-01
   7140.00  6.8821622E-01
   7140.33  6.8383417E-01
   7140.67  6.7985541E-01
   7141.00  6.7517524E-01
   7141.33  6.6827688E-01
   7141.67  6.5846057E-01
   7142.00  6.4539559E-01
   7142.33  6.2898225E-01
   7142.67  6.1043418E-01
   7143.00  5.9069800E-01
   7143.33  5.7083025E-01
   7143.67  5.5168698E-01
   7144.00  5.3375353E-01
   7144.33  5.1753630E-01
   7144.67  5.0295976E-01
   7145.00  4.9001915E-01
   7145.33  4.7883519E-01
   7145.67  4.6910183E-01
   7146.00  4.6071384E-01
   7146.33  4.5369675E-01
   7146.67  4.4776242E-01
   7147.00  4.4278893E-01
   7147.33  4.3874792E-01
   7147.67  4.3542025E-01
   7148.00  4.3271762E-01
   7148.33  4.3061471E-01
   7148.67  4.2896590E-01
   7149.00  4.2771155E-01
   7149.33  4.2683263E-01
   7149.67  4.2623882E-01
   7150.00  4.2589711E-01
   7150.33  4.2580263E-01
   7150.67  4.2589961E-01
   7151.00  4.2616798E-01
   7151.33  4.2660399E-01
   7151.67  4.2716271E-01
   7152.00  4.2781616E-01
   7152.33  4.2853133E-01
   7152.67  4.2925389E-01
   7153.00  4.2993841E-01
   7153.33  4.3051879E-01
   7153.67  4.3095544E-01
   7154.00  4.3121139E-01
   7154.33  4.3123099E-01
   7154.67  4.3103120E-01
   7155.00  4.3062243E-01
   7155.33  4.3001555E-01
   7155.67  4.2928436E-01
   7156.00  4.2848408E-01
   7156.33  4.2768513E-01
   7156.67  4.2695681E-01
   7157.00  4.2635348E-01
   7157.33  4.2595123E-01
   7157.67  4.2576895E-01
   7158.00  4.2583140E-01
   7158.33  4.2618808E-01
   7158.67  4.2681160E-01
   7159.00  4.2769909E-01
   7159.33  4.2887231E-01
   7159.67  4.3028431E-01
   7160.00  4.3191918E-01
   7160.33  4.3378228E-01
   7160.67  4.3582947E-01
   7161.00  4.3804886E-01
   7161.33  4.4045342E-01
   7161.67  4.4302143E-01
   7162.00  4.4575918E-01
   7162.33  4.4870062E-01
   7162.67  4.5183033E-01
   7163.00  4.5514498E-01
   7163.33  4.5864107E-01
   7163.67  4.6224835E-01
   7164.00  4.6591153E-01
   7164.33  4.6955810E-01
   7164.67  4.7311476E-01
   7165.00  4.7651877E-01
   7165.33  4.7968007E-01
   7165.67  4.8257867E-01
   7166.00  4.8518970E-01
   7166.33  4.8746559E-01
   7166.67  4.8945043E-01
   7167.00  4.9116003E-01
   7167.33  4.9258920E-01
   7167.67  4.9379908E-01
   7168.00  4.9481596E-01
   7168.33  4.9565112E-01
   7168.67  4.9635323E-01
   7169.00  4.9693895E-01
   7169.33  4.9740980E-01
   7169.67  4.9778957E-01
   7170.00  4.9808528E-01
   7170.33  4.9829368E-01
   7170.67  4.9843101E-01
   7171.00  4.9850455E-01
   7171.33  4.9852077E-01
   7171.67  4.9850682E-01
   7172.00  4.9848833E-01
