    FDMNES
    energy     <xanes>
   7097.00  5.5175914E-03
   7097.33  5.6599532E-03
   7097.67  5.8091594E-03
   7098.00  5.9656820E-03
   7098.33  6.1311183E-03
   7098.67  6.3051527E-03
   7099.00  6.4884253E-03
   7099.33  6.6830230E-03
   7099.67  6.8886163E-03
   7100.00  7.1060933E-03
   7100.33  7.3382430E-03
   7100.67  7.5847467E-03
   7101.00  7.8468687E-03
   7101.33  8.1284364E-03
   7101.67  8.4291951E-03
   7102.00  8.7510019E-03
   7102.33  9.0992725E-03
   7102.67  9.4739330E-03
   7103.00  9.8778114E-03
   7103.33  1.0318857E-02
   7103.67  1.0797429E-02
   7104.00  1.1318025E-02
   7104.33  1.1892839E-02
   7104.67  1.2523237E-02
   7105.00  1.3216751E-02
   7105.33  1.3993141E-02
   7105.67  1.4856123E-02
   7106.00  1.5819184E-02
   7106.33  1.6916627E-02
   7106.67  1.8157975E-02
   7107.00  1.9569525E-02
   7107.33  2.1216531E-02
   7107.67  2.3124239E-02
   7108.00  2.5350315E-02
   7108.33  2.8035917E-02
   7108.67  3.1255973E-02
   7109.00  3.5161475E-02
   7109.33  4.0126431E-02
   7109.67  4.6432373E-02
   7110.00  5.4618423E-02
   7110.33  6.6094083E-02
   7110.67  8.2146715E-02
   7111.00  1.0425838E-01
   7111.33  1.3549245E-01
   7111.67  1.7963395E-01
   7112.00  2.4314449E-01
   7112.33  3.4538174E-01
   7112.67  5.1268524E-01
   7113.00  7.6938310E-01
   7113.33  1.0425350E+00
   7113.67  1.1168002E+00
   7114.00  9.2719162E-01
   7114.33  6.6808413E-01
   7114.67  4.8184121E-01
   7115.00  3.6342096E-01
   7115.33  2.8929653E-01
   7115.67  2.3858308E-01
   7116.00  2.0519282E-01
   7116.33  1.8631321E-01
   7116.67  1.7686520E-01
   7117.00  1.7410768E-01
   7117.33  1.7528198E-01
   7117.67  1.7762453E-01
   7118.00  1.8014208E-01
   7118.33  1.8129108E-01
   7118.67  1.7980433E-01
   7119.00  1.7569138E-01
   7119.33  1.7025806E-01
   7119.67  1.6516138E-01
   7120.00  1.6061338E-01
   7120.33  1.5606494E-01
   7120.67  1.5127272E-01
   7121.00  1.4635800E-01
   7121.33  1.4198963E-01
   7121.67  1.3951368E-01
   7122.00  1.4000544E-01
   7122.33  1.4416541E-01
   7122.67  1.5113505E-01
   7123.00  1.6024261E-01
   7123.33  1.7095157E-01
   7123.67  1.8308692E-01
   7124.00  1.9701311E-01
   7124.33  2.1317542E-01
   7124.67  2.3086861E-01
   7125.00  2.4864918E-01
   7125.33  2.6385484E-01
   7125.67  2.7519534E-01
   7126.00  2.8246632E-01
   7126.33  2.8622136E-01
   7126.67  2.8891689E-01
   7127.00  2.9284289E-01
   7127.33  3.0062871E-01
   7127.67  3.1236431E-01
   7128.00  3.2681779E-01
   7128.33  3.4167331E-01
   7128.67  3.5567234E-01
   7129.00  3.6943149E-01
   7129.33  3.8465953E-01
   7129.67  4.0228749E-01
   7130.00  4.2247192E-01
   7130.33  4.4497280E-01
   7130.67  4.6880652E-01
   7131.00  4.9340855E-01
   7131.33  5.1837228E-01
   7131.67  5.4350567E-01
   7132.00  5.6894615E-01
   7132.33  5.9516703E-01
   7132.67  6.2253699E-01
   7133.00  6.5135120E-01
   7133.33  6.8185424E-01
   7133.67  7.1339072E-01
   7134.00  7.4492106E-01
   7134.33  7.7395049E-01
   7134.67  7.9748770E-01
   7135.00  8.1243066E-01
   7135.33  8.1473770E-01
   7135.67  8.0539249E-01
   7136.00  7.8585264E-01
   7136.33  7.5803748E-01
   7136.67  7.2587454E-01
   7137.00  6.9161880E-01
   7137.33  6.5736440E-01
   7137.67  6.2465664E-01
   7138.00  5.9447153E-01
   7138.33  5.6809854E-01
   7138.67  5.4574260E-01
   7139.00  5.2772953E-01
   7139.33  5.1475998E-01
   7139.67  5.0624422E-01
   7140.00  5.0208805E-01
   7140.33  5.0264869E-01
   7140.67  5.0715018E-01
   7141.00  5.1528326E-01
   7141.33  5.2696144E-01
   7141.67  5.4118490E-01
   7142.00  5.5735318E-01
   7142.33  5.7486713E-01
   7142.67  5.9282498E-01
   7143.00  6.1060936E-01
   7143.33  6.2745415E-01
   7143.67  6.4288386E-01
   7144.00  6.5648766E-01
   7144.33  6.6765545E-01
   7144.67  6.7650762E-01
   7145.00  6.8307637E-01
   7145.33  6.8730828E-01
   7145.67  6.8980678E-01
   7146.00  6.9092818E-01
   7146.33  6.9098392E-01
   7146.67  6.9049454E-01
   7147.00  6.8976492E-01
   7147.33  6.8910143E-01
   7147.67  6.8872879E-01
   7148.00  6.8879415E-01
   7148.33  6.8948523E-01
   7148.67  6.9080109E-01
   7149.00  6.9276641E-01
   7149.33  6.9545708E-01
   7149.67  6.9875825E-01
   7150.00  7.0262224E-01
   7150.33  7.0703941E-01
   7150.67  7.1186446E-01
   7151.00  7.1701760E-01
   7151.33  7.2242802E-01
   7151.67  7.2796547E-01
   7152.00  7.3354927E-01
   7152.33  7.3907966E-01
   7152.67  7.4445407E-01
   7153.00  7.4957176E-01
   7153.33  7.5426006E-01
   7153.67  7.5842592E-01
   7154.00  7.6192899E-01
   7154.33  7.6447997E-01
   7154.67  7.6598685E-01
   7155.00  7.6627432E-01
   7155.33  7.6496676E-01
   7155.67  7.6206842E-01
   7156.00  7.5746787E-01
   7156.33  7.5087592E-01
   7156.67  7.4252854E-01
   7157.00  7.3251008E-01
   7157.33  7.2080916E-01
   7157.67  7.0785414E-01
   7158.00  6.9388672E-01
   7158.33  6.7911373E-01
   7158.67  6.6391256E-01
   7159.00  6.4850764E-01
   7159.33  6.3312298E-01
   7159.67  6.1793235E-01
   7160.00  6.0305193E-01
   7160.33  5.8863078E-01
   7160.67  5.7468259E-01
   7161.00  5.6124202E-01
   7161.33  5.4839772E-01
   7161.67  5.3609407E-01
   7162.00  5.2433612E-01
   7162.33  5.1319751E-01
   7162.67  5.0260677E-01
   7163.00  4.9255450E-01
   7163.33  4.8309141E-01
   7163.67  4.7413553E-01
   7164.00  4.6566945E-01
   7164.33  4.5772638E-01
   7164.67  4.5022077E-01
   7165.00  4.4312626E-01
   7165.33  4.3645570E-01
   7165.67  4.3012645E-01
   7166.00  4.2410823E-01
   7166.33  4.1840200E-01
   7166.67  4.1294372E-01
   7167.00  4.0771265E-01
   7167.33  4.0271606E-01
   7167.67  3.9791467E-01
   7168.00  3.9330122E-01
   7168.33  3.8889521E-01
   7168.67  3.8467504E-01
   7169.00  3.8064520E-01
   7169.33  3.7683934E-01
   7169.67  3.7324572E-01
   7170.00  3.6987169E-01
   7170.33  3.6673267E-01
   7170.67  3.6379896E-01
   7171.00  3.6108742E-01
   7171.33  3.5866500E-01
   7171.67  3.5655943E-01
   7172.00  3.5484649E-01
