    FDMNES
    energy     <xanes>
   7097.00  4.5315313E-03
   7097.33  4.6317951E-03
   7097.67  4.7364360E-03
   7098.00  4.8457480E-03
   7098.33  4.9607411E-03
   7098.67  5.0812066E-03
   7099.00  5.2075469E-03
   7099.33  5.3410843E-03
   7099.67  5.4816083E-03
   7100.00  5.6296847E-03
   7100.33  5.7870940E-03
   7100.67  5.9536464E-03
   7101.00  6.1301654E-03
   7101.33  6.3191281E-03
   7101.67  6.5204170E-03
   7102.00  6.7352781E-03
   7102.33  6.9672990E-03
   7102.67  7.2165485E-03
   7103.00  7.4850042E-03
   7103.33  7.7781231E-03
   7103.67  8.0964227E-03
   7104.00  8.4432325E-03
   7104.33  8.8273774E-03
   7104.67  9.2504653E-03
   7105.00  9.7185333E-03
   7105.33  1.0247025E-02
   7105.67  1.0840342E-02
   7106.00  1.1510548E-02
   7106.33  1.2287663E-02
   7106.67  1.3183998E-02
   7107.00  1.4227090E-02
   7107.33  1.5484508E-02
   7107.67  1.6994828E-02
   7108.00  1.8834206E-02
   7108.33  2.1191850E-02
   7108.67  2.4218349E-02
   7109.00  2.8197437E-02
   7109.33  3.3880279E-02
   7109.67  4.2128628E-02
   7110.00  5.4638502E-02
   7110.33  7.6403205E-02
   7110.67  1.1363871E-01
   7111.00  1.6981647E-01
   7111.33  2.1495240E-01
   7111.67  2.2332545E-01
   7112.00  2.2408139E-01
   7112.33  2.3197997E-01
   7112.67  2.3269282E-01
   7113.00  2.2688788E-01
   7113.33  2.3004692E-01
   7113.67  2.3841844E-01
   7114.00  2.5332743E-01
   7114.33  2.7433274E-01
   7114.67  2.6718412E-01
   7115.00  2.2249366E-01
   7115.33  1.7266422E-01
   7115.67  1.3638302E-01
   7116.00  1.1206572E-01
   7116.33  9.4983281E-02
   7116.67  8.1108035E-02
   7117.00  7.0123172E-02
   7117.33  6.1978638E-02
   7117.67  5.6095191E-02
   7118.00  5.2410791E-02
   7118.33  5.0784817E-02
   7118.67  5.0676416E-02
   7119.00  5.2047884E-02
   7119.33  5.5338280E-02
   7119.67  6.0829398E-02
   7120.00  6.9141375E-02
   7120.33  8.1500771E-02
   7120.67  9.7585553E-02
   7121.00  1.1575296E-01
   7121.33  1.3062212E-01
   7121.67  1.3773316E-01
   7122.00  1.3764341E-01
   7122.33  1.3487134E-01
   7122.67  1.3372199E-01
   7123.00  1.3574690E-01
   7123.33  1.4247914E-01
   7123.67  1.5464784E-01
   7124.00  1.7362861E-01
   7124.33  2.0234681E-01
   7124.67  2.4147734E-01
   7125.00  2.9141184E-01
   7125.33  3.4955183E-01
   7125.67  4.0660106E-01
   7126.00  4.5641571E-01
   7126.33  4.9863567E-01
   7126.67  5.3650665E-01
   7127.00  5.6703386E-01
   7127.33  5.8388334E-01
   7127.67  5.9076217E-01
   7128.00  5.9466401E-01
   7128.33  6.0388268E-01
   7128.67  6.2169834E-01
   7129.00  6.4898378E-01
   7129.33  6.8644102E-01
   7129.67  7.2891331E-01
   7130.00  7.6816524E-01
   7130.33  7.9203735E-01
   7130.67  7.9695502E-01
   7131.00  7.8485600E-01
   7131.33  7.6353798E-01
   7131.67  7.4278252E-01
   7132.00  7.2543176E-01
   7132.33  7.1154661E-01
   7132.67  7.0099222E-01
   7133.00  6.9544270E-01
   7133.33  6.9672494E-01
   7133.67  7.0179690E-01
   7134.00  7.0651497E-01
   7134.33  7.0593922E-01
   7134.67  7.0017038E-01
   7135.00  6.9298462E-01
   7135.33  6.9157915E-01
   7135.67  6.9875031E-01
   7136.00  7.1273157E-01
   7136.33  7.2794582E-01
   7136.67  7.3801129E-01
   7137.00  7.3935875E-01
   7137.33  7.3031079E-01
   7137.67  7.1513197E-01
   7138.00  6.9777904E-01
   7138.33  6.8237246E-01
   7138.67  6.7084284E-01
   7139.00  6.6376384E-01
   7139.33  6.6143521E-01
   7139.67  6.6260107E-01
   7140.00  6.6643088E-01
   7140.33  6.7198448E-01
   7140.67  6.7782503E-01
   7141.00  6.8286105E-01
   7141.33  6.8559037E-01
   7141.67  6.8511636E-01
   7142.00  6.8061834E-01
   7142.33  6.7089718E-01
   7142.67  6.5641013E-01
   7143.00  6.3750318E-01
   7143.33  6.1461253E-01
   7143.67  5.8938865E-01
   7144.00  5.6294227E-01
   7144.33  5.3648524E-01
   7144.67  5.1109643E-01
   7145.00  4.8759888E-01
   7145.33  4.6712391E-01
   7145.67  4.4984209E-01
   7146.00  4.3589038E-01
   7146.33  4.2549988E-01
   7146.67  4.1787318E-01
   7147.00  4.1257658E-01
   7147.33  4.0931628E-01
   7147.67  4.0739243E-01
   7148.00  4.0646978E-01
   7148.33  4.0634234E-01
   7148.67  4.0672880E-01
   7149.00  4.0753901E-01
   7149.33  4.0879432E-01
   7149.67  4.1048391E-01
   7150.00  4.1267745E-01
   7150.33  4.1554913E-01
   7150.67  4.1911122E-01
   7151.00  4.2340564E-01
   7151.33  4.2850758E-01
   7151.67  4.3422769E-01
   7152.00  4.4040964E-01
   7152.33  4.4683054E-01
   7152.67  4.5317377E-01
   7153.00  4.5918109E-01
   7153.33  4.6451121E-01
   7153.67  4.6905704E-01
   7154.00  4.7273089E-01
   7154.33  4.7537033E-01
   7154.67  4.7705416E-01
   7155.00  4.7771794E-01
   7155.33  4.7706515E-01
   7155.67  4.7501328E-01
   7156.00  4.7133577E-01
   7156.33  4.6556151E-01
   7156.67  4.5778209E-01
   7157.00  4.4799713E-01
   7157.33  4.3613879E-01
   7157.67  4.2276225E-01
   7158.00  4.0824153E-01
   7158.33  3.9298149E-01
   7158.67  3.7754523E-01
   7159.00  3.6230155E-01
   7159.33  3.4766073E-01
   7159.67  3.3378647E-01
   7160.00  3.2079067E-01
   7160.33  3.0884092E-01
   7160.67  2.9782305E-01
   7161.00  2.8773434E-01
   7161.33  2.7872235E-01
   7161.67  2.7075170E-01
   7162.00  2.6394453E-01
   7162.33  2.5865822E-01
   7162.67  2.5493880E-01
   7163.00  2.5297406E-01
   7163.33  2.5321698E-01
   7163.67  2.5560380E-01
   7164.00  2.6025648E-01
   7164.33  2.6755704E-01
   7164.67  2.7721554E-01
   7165.00  2.8915243E-01
   7165.33  3.0342296E-01
   7165.67  3.1943146E-01
   7166.00  3.3678363E-01
   7166.33  3.5501428E-01
   7166.67  3.7339227E-01
   7167.00  3.9136248E-01
   7167.33  4.0820214E-01
   7167.67  4.2355078E-01
   7168.00  4.3711151E-01
   7168.33  4.4844639E-01
   7168.67  4.5776856E-01
   7169.00  4.6515035E-01
   7169.33  4.7053513E-01
   7169.67  4.7435499E-01
   7170.00  4.7679705E-01
   7170.33  4.7791774E-01
   7170.67  4.7804316E-01
   7171.00  4.7731831E-01
   7171.33  4.7586551E-01
   7171.67  4.7409295E-01
   7172.00  4.7243612E-01
