    FDMNES
    energy     <xanes>
   7097.00  4.3477540E-03
   7097.33  4.4340327E-03
   7097.67  4.5234296E-03
   7098.00  4.6161133E-03
   7098.33  4.7127349E-03
   7098.67  4.8130908E-03
   7099.00  4.9173997E-03
   7099.33  5.0264693E-03
   7099.67  5.1400788E-03
   7100.00  5.2585186E-03
   7100.33  5.3828130E-03
   7100.67  5.5127286E-03
   7101.00  5.6486627E-03
   7101.33  5.7919495E-03
   7101.67  5.9423565E-03
   7102.00  6.1004477E-03
   7102.33  6.2680214E-03
   7102.67  6.4448794E-03
   7103.00  6.6318605E-03
   7103.33  6.8314995E-03
   7103.67  7.0437136E-03
   7104.00  7.2698286E-03
   7104.33  7.5136373E-03
   7104.67  7.7753775E-03
   7105.00  8.0573208E-03
   7105.33  8.3656282E-03
   7105.67  8.7014209E-03
   7106.00  9.0690396E-03
   7106.33  9.4797269E-03
   7106.67  9.9372331E-03
   7107.00  1.0451223E-02
   7107.33  1.1045999E-02
   7107.67  1.1734477E-02
   7108.00  1.2543525E-02
   7108.33  1.3541003E-02
   7108.67  1.4781401E-02
   7109.00  1.6369555E-02
   7109.33  1.8588593E-02
   7109.67  2.1779477E-02
   7110.00  2.6623030E-02
   7110.33  3.5118121E-02
   7110.67  4.9316707E-02
   7111.00  6.8117981E-02
   7111.33  7.6116035E-02
   7111.67  7.1358793E-02
   7112.00  6.5035252E-02
   7112.33  6.2235949E-02
   7112.67  6.3196734E-02
   7113.00  6.7677767E-02
   7113.33  7.5306963E-02
   7113.67  8.1890721E-02
   7114.00  8.2216017E-02
   7114.33  7.7239089E-02
   7114.67  7.3763034E-02
   7115.00  7.3773768E-02
   7115.33  7.7493904E-02
   7115.67  8.3975635E-02
   7116.00  9.2960484E-02
   7116.33  1.0465640E-01
   7116.67  1.1879449E-01
   7117.00  1.3541599E-01
   7117.33  1.5483145E-01
   7117.67  1.7665975E-01
   7118.00  2.0075855E-01
   7118.33  2.2708417E-01
   7118.67  2.5498566E-01
   7119.00  2.8406253E-01
   7119.33  3.1378212E-01
   7119.67  3.4313000E-01
   7120.00  3.7101335E-01
   7120.33  3.9585599E-01
   7120.67  4.1723194E-01
   7121.00  4.3480800E-01
   7121.33  4.4746740E-01
   7121.67  4.5497017E-01
   7122.00  4.5715009E-01
   7122.33  4.5445029E-01
   7122.67  4.4930559E-01
   7123.00  4.4356189E-01
   7123.33  4.3940973E-01
   7123.67  4.3826442E-01
   7124.00  4.4100552E-01
   7124.33  4.4857292E-01
   7124.67  4.6021716E-01
   7125.00  4.7540237E-01
   7125.33  4.9371724E-01
   7125.67  5.1395859E-01
   7126.00  5.3506813E-01
   7126.33  5.5510806E-01
   7126.67  5.7200948E-01
   7127.00  5.8404689E-01
   7127.33  5.8918910E-01
   7127.67  5.8815126E-01
   7128.00  5.8185847E-01
   7128.33  5.7160290E-01
   7128.67  5.5965223E-01
   7129.00  5.4729548E-01
   7129.33  5.3562778E-01
   7129.67  5.2512498E-01
   7130.00  5.1600449E-01
   7130.33  5.0851954E-01
   7130.67  5.0246961E-01
   7131.00  4.9782480E-01
   7131.33  4.9472583E-01
   7131.67  4.9296764E-01
   7132.00  4.9251042E-01
   7132.33  4.9344093E-01
   7132.67  4.9551239E-01
   7133.00  4.9862720E-01
   7133.33  5.0277118E-01
   7133.67  5.0769137E-01
   7134.00  5.1325958E-01
   7134.33  5.1936163E-01
   7134.67  5.2571648E-01
   7135.00  5.3208277E-01
   7135.33  5.3807984E-01
   7135.67  5.4336965E-01
   7136.00  5.4764122E-01
   7136.33  5.5046710E-01
   7136.67  5.5191293E-01
   7137.00  5.5205512E-01
   7137.33  5.5100200E-01
   7137.67  5.4921643E-01
   7138.00  5.4698849E-01
   7138.33  5.4459048E-01
   7138.67  5.4225854E-01
   7139.00  5.4012165E-01
   7139.33  5.3831577E-01
   7139.67  5.3686740E-01
   7140.00  5.3581568E-01
   7140.33  5.3525393E-01
   7140.67  5.3515106E-01
   7141.00  5.3548871E-01
   7141.33  5.3625304E-01
   7141.67  5.3733130E-01
   7142.00  5.3867378E-01
   7142.33  5.4025386E-01
   7142.67  5.4199660E-01
   7143.00  5.4386477E-01
   7143.33  5.4583272E-01
   7143.67  5.4786049E-01
   7144.00  5.4993070E-01
   7144.33  5.5203736E-01
   7144.67  5.5417828E-01
   7145.00  5.5636486E-01
   7145.33  5.5863053E-01
   7145.67  5.6100235E-01
   7146.00  5.6351862E-01
   7146.33  5.6625773E-01
   7146.67  5.6925864E-01
   7147.00  5.7257202E-01
   7147.33  5.7628490E-01
   7147.67  5.8037589E-01
   7148.00  5.8484288E-01
   7148.33  5.8969411E-01
   7148.67  5.9481616E-01
   7149.00  6.0012133E-01
   7149.33  6.0548744E-01
   7149.67  6.1076224E-01
   7150.00  6.1582248E-01
   7150.33  6.2049427E-01
   7150.67  6.2471128E-01
   7151.00  6.2840161E-01
   7151.33  6.3143763E-01
   7151.67  6.3386620E-01
   7152.00  6.3568471E-01
   7152.33  6.3683281E-01
   7152.67  6.3741089E-01
   7153.00  6.3744626E-01
   7153.33  6.3691019E-01
   7153.67  6.3590263E-01
   7154.00  6.3445565E-01
   7154.33  6.3255743E-01
   7154.67  6.3029863E-01
   7155.00  6.2771722E-01
   7155.33  6.2482701E-01
   7155.67  6.2171285E-01
   7156.00  6.1841827E-01
   7156.33  6.1497544E-01
   7156.67  6.1144358E-01
   7157.00  6.0785263E-01
   7157.33  6.0422517E-01
   7157.67  6.0058212E-01
   7158.00  5.9692893E-01
   7158.33  5.9326010E-01
   7158.67  5.8956478E-01
   7159.00  5.8582627E-01
   7159.33  5.8200997E-01
   7159.67  5.7809405E-01
   7160.00  5.7405138E-01
   7160.33  5.6983140E-01
   7160.67  5.6542478E-01
   7161.00  5.6080791E-01
   7161.33  5.5592782E-01
   7161.67  5.5080037E-01
   7162.00  5.4542865E-01
   7162.33  5.3979804E-01
   7162.67  5.3395072E-01
   7163.00  5.2790148E-01
   7163.33  5.2165400E-01
   7163.67  5.1526456E-01
   7164.00  5.0876750E-01
   7164.33  5.0219698E-01
   7164.67  4.9560448E-01
   7165.00  4.8902759E-01
   7165.33  4.8251607E-01
   7165.67  4.7610252E-01
   7166.00  4.6981811E-01
   7166.33  4.6371270E-01
   7166.67  4.5778874E-01
   7167.00  4.5206215E-01
   7167.33  4.4657727E-01
   7167.67  4.4131824E-01
   7168.00  4.3628908E-01
   7168.33  4.3152021E-01
   7168.67  4.2698147E-01
   7169.00  4.2267012E-01
   7169.33  4.1860993E-01
   7169.67  4.1476928E-01
   7170.00  4.1114664E-01
   7170.33  4.0777059E-01
   7170.67  4.0462021E-01
   7171.00  4.0170870E-01
   7171.33  3.9910263E-01
   7171.67  3.9683570E-01
   7172.00  3.9499864E-01
