    FDMNES
    energy     <xanes>
   7097.00  4.9578085E-03
   7097.33  5.0746894E-03
   7097.67  5.1968242E-03
   7098.00  5.3245617E-03
   7098.33  5.4591064E-03
   7098.67  5.6001996E-03
   7099.00  5.7483130E-03
   7099.33  5.9050103E-03
   7099.67  6.0700213E-03
   7100.00  6.2439991E-03
   7100.33  6.4290235E-03
   7100.67  6.6248318E-03
   7101.00  6.8323548E-03
   7101.33  7.0544379E-03
   7101.67  7.2908694E-03
   7102.00  7.5430218E-03
   7102.33  7.8149228E-03
   7102.67  8.1065080E-03
   7103.00  8.4198862E-03
   7103.33  8.7609998E-03
   7103.67  9.1301499E-03
   7104.00  9.5307450E-03
   7104.33  9.9720196E-03
   7104.67  1.0455155E-02
   7105.00  1.0986028E-02
   7105.33  1.1579982E-02
   7105.67  1.2240392E-02
   7106.00  1.2978286E-02
   7106.33  1.3821567E-02
   7106.67  1.4779542E-02
   7107.00  1.5875509E-02
   7107.33  1.7167167E-02
   7107.67  1.8682380E-02
   7108.00  2.0479815E-02
   7108.33  2.2704956E-02
   7108.67  2.5459487E-02
   7109.00  2.8939846E-02
   7109.33  3.3658963E-02
   7109.67  4.0156439E-02
   7110.00  4.9492375E-02
   7110.33  6.4708853E-02
   7110.67  8.9183112E-02
   7111.00  1.2444875E-01
   7111.33  1.5815587E-01
   7111.67  1.7741340E-01
   7112.00  1.9733020E-01
   7112.33  2.3667444E-01
   7112.67  2.8615940E-01
   7113.00  3.2836698E-01
   7113.33  3.6034937E-01
   7113.67  4.0093251E-01
   7114.00  4.4866546E-01
   7114.33  4.8164309E-01
   7114.67  4.9317651E-01
   7115.00  4.8067020E-01
   7115.33  4.2745531E-01
   7115.67  3.5639028E-01
   7116.00  2.9558704E-01
   7116.33  2.5777543E-01
   7116.67  2.3503520E-01
   7117.00  2.1965214E-01
   7117.33  2.0425265E-01
   7117.67  1.8696095E-01
   7118.00  1.7072299E-01
   7118.33  1.5906603E-01
   7118.67  1.5161124E-01
   7119.00  1.4744607E-01
   7119.33  1.4535019E-01
   7119.67  1.4321689E-01
   7120.00  1.4008090E-01
   7120.33  1.3679197E-01
   7120.67  1.3504847E-01
   7121.00  1.3524552E-01
   7121.33  1.3661918E-01
   7121.67  1.3853309E-01
   7122.00  1.4123183E-01
   7122.33  1.4488537E-01
   7122.67  1.4929530E-01
   7123.00  1.5472251E-01
   7123.33  1.6164535E-01
   7123.67  1.6978174E-01
   7124.00  1.7891425E-01
   7124.33  1.8908548E-01
   7124.67  2.0025686E-01
   7125.00  2.1246020E-01
   7125.33  2.2570705E-01
   7125.67  2.3966168E-01
   7126.00  2.5407628E-01
   7126.33  2.6851717E-01
   7126.67  2.8249159E-01
   7127.00  2.9596561E-01
   7127.33  3.0957485E-01
   7127.67  3.2423527E-01
   7128.00  3.4079478E-01
   7128.33  3.6070106E-01
   7128.67  3.8481580E-01
   7129.00  4.1423091E-01
   7129.33  4.5027393E-01
   7129.67  4.9062397E-01
   7130.00  5.3196223E-01
   7130.33  5.7086920E-01
   7130.67  6.0828182E-01
   7131.00  6.4644219E-01
   7131.33  6.8601845E-01
   7131.67  7.2406478E-01
   7132.00  7.5778993E-01
   7132.33  7.8612988E-01
   7132.67  8.1222270E-01
   7133.00  8.3847163E-01
   7133.33  8.6497306E-01
   7133.67  8.8826698E-01
   7134.00  9.0489267E-01
   7134.33  9.1160548E-01
   7134.67  9.0829085E-01
   7135.00  8.9363453E-01
   7135.33  8.6608854E-01
   7135.67  8.3058671E-01
   7136.00  7.9201176E-01
   7136.33  7.5518956E-01
   7136.67  7.2192477E-01
   7137.00  6.9226611E-01
   7137.33  6.6578382E-01
   7137.67  6.4126993E-01
   7138.00  6.1826873E-01
   7138.33  5.9680955E-01
   7138.67  5.7687937E-01
   7139.00  5.5872085E-01
   7139.33  5.4285716E-01
   7139.67  5.2919303E-01
   7140.00  5.1774472E-01
   7140.33  5.0868077E-01
   7140.67  5.0162424E-01
   7141.00  4.9657105E-01
   7141.33  4.9392802E-01
   7141.67  4.9361314E-01
   7142.00  4.9570025E-01
   7142.33  5.0037563E-01
   7142.67  5.0701600E-01
   7143.00  5.1514852E-01
   7143.33  5.2416448E-01
   7143.67  5.3323063E-01
   7144.00  5.4183740E-01
   7144.33  5.4956765E-01
   7144.67  5.5651386E-01
   7145.00  5.6285531E-01
   7145.33  5.6884874E-01
   7145.67  5.7480923E-01
   7146.00  5.8090569E-01
   7146.33  5.8726347E-01
   7146.67  5.9384273E-01
   7147.00  6.0055754E-01
   7147.33  6.0723012E-01
   7147.67  6.1363432E-01
   7148.00  6.1954556E-01
   7148.33  6.2460550E-01
   7148.67  6.2867632E-01
   7149.00  6.3161050E-01
   7149.33  6.3316223E-01
   7149.67  6.3347431E-01
   7150.00  6.3259123E-01
   7150.33  6.3047091E-01
   7150.67  6.2737485E-01
   7151.00  6.2342231E-01
   7151.33  6.1866067E-01
   7151.67  6.1330622E-01
   7152.00  6.0745653E-01
   7152.33  6.0116611E-01
   7152.67  5.9458174E-01
   7153.00  5.8778591E-01
   7153.33  5.8086047E-01
   7153.67  5.7391838E-01
   7154.00  5.6704971E-01
   7154.33  5.6039069E-01
   7154.67  5.5403480E-01
   7155.00  5.4808524E-01
   7155.33  5.4272862E-01
   7155.67  5.3800739E-01
   7156.00  5.3399964E-01
   7156.33  5.3087506E-01
   7156.67  5.2857260E-01
   7157.00  5.2708857E-01
   7157.33  5.2646919E-01
   7157.67  5.2652000E-01
   7158.00  5.2712329E-01
   7158.33  5.2816351E-01
   7158.67  5.2941439E-01
   7159.00  5.3072520E-01
   7159.33  5.3192339E-01
   7159.67  5.3288856E-01
   7160.00  5.3353001E-01
   7160.33  5.3371542E-01
   7160.67  5.3343477E-01
   7161.00  5.3264749E-01
   7161.33  5.3124730E-01
   7161.67  5.2927361E-01
   7162.00  5.2671126E-01
   7162.33  5.2348780E-01
   7162.67  5.1970241E-01
   7163.00  5.1539395E-01
   7163.33  5.1057281E-01
   7163.67  5.0538426E-01
   7164.00  4.9991086E-01
   7164.33  4.9422193E-01
   7164.67  4.8842347E-01
   7165.00  4.8257338E-01
   7165.33  4.7672365E-01
   7165.67  4.7091152E-01
   7166.00  4.6516186E-01
   7166.33  4.5951282E-01
   7166.67  4.5398192E-01
   7167.00  4.4859741E-01
   7167.33  4.4342142E-01
   7167.67  4.3847549E-01
   7168.00  4.3379923E-01
   7168.33  4.2947615E-01
   7168.67  4.2551008E-01
   7169.00  4.2193482E-01
   7169.33  4.1882638E-01
   7169.67  4.1614154E-01
   7170.00  4.1387832E-01
   7170.33  4.1207320E-01
   7170.67  4.1064870E-01
   7171.00  4.0957280E-01
   7171.33  4.0883256E-01
   7171.67  4.0832114E-01
   7172.00  4.0795945E-01
