    FDMNES
    energy     <xanes>
   7097.00  4.1365411E-03
   7097.33  4.2120226E-03
   7097.67  4.2902180E-03
   7098.00  4.3712875E-03
   7098.33  4.4558212E-03
   7098.67  4.5436619E-03
   7099.00  4.6350257E-03
   7099.33  4.7306677E-03
   7099.67  4.8304269E-03
   7100.00  4.9346043E-03
   7100.33  5.0441965E-03
   7100.67  5.1590514E-03
   7101.00  5.2796053E-03
   7101.33  5.4072239E-03
   7101.67  5.5417938E-03
   7102.00  5.6839780E-03
   7102.33  5.8357373E-03
   7102.67  5.9970663E-03
   7103.00  6.1690302E-03
   7103.33  6.3546145E-03
   7103.67  6.5540861E-03
   7104.00  6.7692801E-03
   7104.33  7.0050923E-03
   7104.67  7.2624792E-03
   7105.00  7.5448931E-03
   7105.33  7.8611665E-03
   7105.67  8.2141150E-03
   7106.00  8.6110175E-03
   7106.33  9.0699576E-03
   7106.67  9.5993646E-03
   7107.00  1.0217157E-02
   7107.33  1.0967433E-02
   7107.67  1.1878941E-02
   7108.00  1.3006791E-02
   7108.33  1.4490041E-02
   7108.67  1.6455231E-02
   7109.00  1.9141085E-02
   7109.33  2.3203756E-02
   7109.67  2.9497804E-02
   7110.00  3.9732899E-02
   7110.33  5.8774507E-02
   7110.67  8.9380877E-02
   7111.00  1.1984857E-01
   7111.33  1.1762431E-01
   7111.67  1.0147376E-01
   7112.00  8.9760591E-02
   7112.33  8.8829988E-02
   7112.67  9.4828550E-02
   7113.00  9.8505919E-02
   7113.33  8.7431134E-02
   7113.67  7.0831681E-02
   7114.00  5.7632723E-02
   7114.33  5.0171552E-02
   7114.67  4.4811521E-02
   7115.00  3.9173749E-02
   7115.33  3.4226323E-02
   7115.67  3.0965646E-02
   7116.00  2.9077474E-02
   7116.33  2.8145296E-02
   7116.67  2.7728453E-02
   7117.00  2.7668779E-02
   7117.33  2.7919276E-02
   7117.67  2.8436139E-02
   7118.00  2.9244565E-02
   7118.33  3.0443179E-02
   7118.67  3.2073678E-02
   7119.00  3.4243291E-02
   7119.33  3.7233264E-02
   7119.67  4.1236791E-02
   7120.00  4.6542657E-02
   7120.33  5.3411078E-02
   7120.67  6.0910290E-02
   7121.00  6.8120153E-02
   7121.33  7.5468133E-02
   7121.67  8.4532424E-02
   7122.00  9.6550501E-02
   7122.33  1.1331978E-01
   7122.67  1.3577915E-01
   7123.00  1.6528077E-01
   7123.33  2.0311791E-01
   7123.67  2.4435835E-01
   7124.00  2.8081789E-01
   7124.33  3.0312343E-01
   7124.67  3.1567530E-01
   7125.00  3.2565495E-01
   7125.33  3.3971229E-01
   7125.67  3.6068119E-01
   7126.00  3.9011640E-01
   7126.33  4.2496845E-01
   7126.67  4.5326812E-01
   7127.00  4.7250732E-01
   7127.33  4.9315679E-01
   7127.67  5.2263062E-01
   7128.00  5.6414870E-01
   7128.33  6.2162681E-01
   7128.67  6.9155194E-01
   7129.00  7.6890056E-01
   7129.33  8.4623951E-01
   7129.67  9.1690169E-01
   7130.00  9.7552137E-01
   7130.33  1.0124468E+00
   7130.67  1.0227825E+00
   7131.00  1.0037020E+00
   7131.33  9.5751414E-01
   7131.67  9.0051324E-01
   7132.00  8.4473243E-01
   7132.33  8.0037954E-01
   7132.67  7.6895830E-01
   7133.00  7.4955126E-01
   7133.33  7.4045559E-01
   7133.67  7.3721114E-01
   7134.00  7.3748860E-01
   7134.33  7.4009065E-01
   7134.67  7.4413918E-01
   7135.00  7.4890236E-01
   7135.33  7.5375130E-01
   7135.67  7.5939666E-01
   7136.00  7.6719286E-01
   7136.33  7.7873429E-01
   7136.67  7.9369080E-01
   7137.00  8.1117109E-01
   7137.33  8.2911655E-01
   7137.67  8.4441086E-01
   7138.00  8.5408770E-01
   7138.33  8.5420287E-01
   7138.67  8.4469671E-01
   7139.00  8.2648779E-01
   7139.33  8.0163162E-01
   7139.67  7.7428597E-01
   7140.00  7.4696799E-01
   7140.33  7.2185062E-01
   7140.67  6.9955993E-01
   7141.00  6.8021871E-01
   7141.33  6.6387479E-01
   7141.67  6.4969127E-01
   7142.00  6.3719616E-01
   7142.33  6.2604493E-01
   7142.67  6.1570849E-01
   7143.00  6.0595786E-01
   7143.33  5.9667574E-01
   7143.67  5.8772174E-01
   7144.00  5.7906022E-01
   7144.33  5.7069836E-01
   7144.67  5.6256920E-01
   7145.00  5.5462703E-01
   7145.33  5.4681210E-01
   7145.67  5.3902744E-01
   7146.00  5.3121128E-01
   7146.33  5.2331226E-01
   7146.67  5.1534312E-01
   7147.00  5.0734607E-01
   7147.33  4.9941431E-01
   7147.67  4.9164980E-01
   7148.00  4.8414909E-01
   7148.33  4.7705122E-01
   7148.67  4.7036595E-01
   7149.00  4.6409669E-01
   7149.33  4.5823566E-01
   7149.67  4.5263466E-01
   7150.00  4.4718270E-01
   7150.33  4.4175292E-01
   7150.67  4.3624298E-01
   7151.00  4.3061024E-01
   7151.33  4.2484801E-01
   7151.67  4.1902626E-01
   7152.00  4.1321458E-01
   7152.33  4.0750387E-01
   7152.67  4.0193238E-01
   7153.00  3.9649952E-01
   7153.33  3.9115523E-01
   7153.67  3.8577132E-01
   7154.00  3.8021119E-01
   7154.33  3.7425403E-01
   7154.67  3.6778322E-01
   7155.00  3.6069500E-01
   7155.33  3.5283381E-01
   7155.67  3.4427709E-01
   7156.00  3.3506658E-01
   7156.33  3.2523335E-01
   7156.67  3.1499577E-01
   7157.00  3.0451335E-01
   7157.33  2.9399028E-01
   7157.67  2.8364604E-01
   7158.00  2.7365385E-01
   7158.33  2.6424953E-01
   7158.67  2.5549307E-01
   7159.00  2.4745191E-01
   7159.33  2.4025343E-01
   7159.67  2.3380234E-01
   7160.00  2.2808386E-01
   7160.33  2.2317255E-01
   7160.67  2.1898140E-01
   7161.00  2.1553484E-01
   7161.33  2.1298792E-01
   7161.67  2.1132079E-01
   7162.00  2.1061905E-01
   7162.33  2.1112286E-01
   7162.67  2.1278568E-01
   7163.00  2.1567836E-01
   7163.33  2.2005996E-01
   7163.67  2.2584936E-01
   7164.00  2.3310356E-01
   7164.33  2.4206062E-01
   7164.67  2.5256024E-01
   7165.00  2.6460952E-01
   7165.33  2.7838597E-01
   7165.67  2.9365323E-01
   7166.00  3.1034381E-01
   7166.33  3.2850349E-01
   7166.67  3.4780267E-01
   7167.00  3.6805349E-01
   7167.33  3.8906675E-01
   7167.67  4.1042309E-01
   7168.00  4.3178357E-01
   7168.33  4.5264570E-01
   7168.67  4.7259235E-01
   7169.00  4.9122627E-01
   7169.33  5.0791459E-01
   7169.67  5.2254183E-01
   7170.00  5.3491651E-01
   7170.33  5.4465448E-01
   7170.67  5.5210877E-01
   7171.00  5.5745009E-01
   7171.33  5.6078977E-01
   7171.67  5.6283256E-01
   7172.00  5.6410174E-01
