    FDMNES
    energy     <xanes>
   7097.00  5.3094726E-03
   7097.33  5.4398642E-03
   7097.67  5.5763510E-03
   7098.00  5.7193506E-03
   7098.33  5.8702810E-03
   7098.67  6.0288591E-03
   7099.00  6.1956521E-03
   7099.33  6.3725145E-03
   7099.67  6.5591535E-03
   7100.00  6.7563595E-03
   7100.33  6.9666165E-03
   7100.67  7.1896469E-03
   7101.00  7.4265835E-03
   7101.33  7.6808489E-03
   7101.67  7.9522353E-03
   7102.00  8.2424213E-03
   7102.33  8.5562833E-03
   7102.67  8.8938027E-03
   7103.00  9.2575677E-03
   7103.33  9.6548117E-03
   7103.67  1.0085971E-02
   7104.00  1.0555232E-02
   7104.33  1.1073870E-02
   7104.67  1.1643389E-02
   7105.00  1.2270981E-02
   7105.33  1.2975352E-02
   7105.67  1.3760593E-02
   7106.00  1.4640047E-02
   7106.33  1.5647386E-02
   7106.67  1.6793434E-02
   7107.00  1.8105655E-02
   7107.33  1.9651867E-02
   7107.67  2.1462742E-02
   7108.00  2.3603961E-02
   7108.33  2.6237031E-02
   7108.67  2.9464696E-02
   7109.00  3.3486732E-02
   7109.33  3.8812865E-02
   7109.67  4.5921962E-02
   7110.00  5.5741273E-02
   7110.33  7.0838219E-02
   7110.67  9.3816519E-02
   7111.00  1.2607093E-01
   7111.33  1.6389828E-01
   7111.67  2.0961186E-01
   7112.00  2.7728116E-01
   7112.33  3.7944822E-01
   7112.67  4.9689227E-01
   7113.00  6.0809537E-01
   7113.33  6.8530799E-01
   7113.67  6.8560684E-01
   7114.00  5.9765709E-01
   7114.33  4.7813269E-01
   7114.67  3.7760709E-01
   7115.00  3.0438838E-01
   7115.33  2.5701487E-01
   7115.67  2.2604804E-01
   7116.00  2.0744925E-01
   7116.33  1.9921093E-01
   7116.67  1.9655156E-01
   7117.00  1.9484633E-01
   7117.33  1.8894913E-01
   7117.67  1.7865431E-01
   7118.00  1.6605301E-01
   7118.33  1.5433451E-01
   7118.67  1.4512758E-01
   7119.00  1.3844385E-01
   7119.33  1.3373051E-01
   7119.67  1.2998594E-01
   7120.00  1.2674776E-01
   7120.33  1.2395594E-01
   7120.67  1.2193437E-01
   7121.00  1.2100261E-01
   7121.33  1.2146179E-01
   7121.67  1.2314534E-01
   7122.00  1.2587272E-01
   7122.33  1.2944010E-01
   7122.67  1.3356525E-01
   7123.00  1.3823117E-01
   7123.33  1.4364512E-01
   7123.67  1.4994997E-01
   7124.00  1.5738423E-01
   7124.33  1.6643609E-01
   7124.67  1.7727589E-01
   7125.00  1.9026979E-01
   7125.33  2.0628536E-01
   7125.67  2.2550092E-01
   7126.00  2.4805086E-01
   7126.33  2.7372582E-01
   7126.67  3.0094821E-01
   7127.00  3.2849611E-01
   7127.33  3.5512235E-01
   7127.67  3.8065493E-01
   7128.00  4.0572924E-01
   7128.33  4.3182336E-01
   7128.67  4.6057728E-01
   7129.00  4.9369397E-01
   7129.33  5.3335479E-01
   7129.67  5.7857107E-01
   7130.00  6.2760087E-01
   7130.33  6.7802765E-01
   7130.67  7.2800544E-01
   7131.00  7.7718231E-01
   7131.33  8.2580219E-01
   7131.67  8.7422311E-01
   7132.00  9.2228610E-01
   7132.33  9.6874493E-01
   7132.67  1.0112604E+00
   7133.00  1.0463155E+00
   7133.33  1.0672649E+00
   7133.67  1.0712257E+00
   7134.00  1.0564429E+00
   7134.33  1.0220026E+00
   7134.67  9.7423568E-01
   7135.00  9.1771879E-01
   7135.33  8.5705202E-01
   7135.67  7.9664086E-01
   7136.00  7.3881676E-01
   7136.33  6.8579551E-01
   7136.67  6.3794673E-01
   7137.00  5.9567213E-01
   7137.33  5.5993285E-01
   7137.67  5.3008634E-01
   7138.00  5.0608828E-01
   7138.33  4.8839138E-01
   7138.67  4.7577822E-01
   7139.00  4.6759590E-01
   7139.33  4.6339070E-01
   7139.67  4.6184406E-01
   7140.00  4.6233047E-01
   7140.33  4.6452130E-01
   7140.67  4.6792466E-01
   7141.00  4.7240763E-01
   7141.33  4.7802014E-01
   7141.67  4.8458623E-01
   7142.00  4.9204861E-01
   7142.33  5.0039940E-01
   7142.67  5.0937933E-01
   7143.00  5.1880688E-01
   7143.33  5.2845340E-01
   7143.67  5.3801439E-01
   7144.00  5.4724617E-01
   7144.33  5.5581224E-01
   7144.67  5.6357004E-01
   7145.00  5.7038386E-01
   7145.33  5.7603139E-01
   7145.67  5.8061399E-01
   7146.00  5.8414899E-01
   7146.33  5.8656935E-01
   7146.67  5.8808171E-01
   7147.00  5.8876801E-01
   7147.33  5.8863698E-01
   7147.67  5.8787749E-01
   7148.00  5.8657018E-01
   7148.33  5.8474763E-01
   7148.67  5.8255364E-01
   7149.00  5.8006113E-01
   7149.33  5.7732977E-01
   7149.67  5.7447810E-01
   7150.00  5.7158539E-01
   7150.33  5.6874652E-01
   7150.67  5.6604393E-01
   7151.00  5.6355312E-01
   7151.33  5.6139677E-01
   7151.67  5.5961870E-01
   7152.00  5.5828324E-01
   7152.33  5.5752015E-01
   7152.67  5.5731912E-01
   7153.00  5.5771120E-01
   7153.33  5.5878462E-01
   7153.67  5.6044556E-01
   7154.00  5.6265208E-01
   7154.33  5.6538353E-01
   7154.67  5.6847440E-01
   7155.00  5.7181574E-01
   7155.33  5.7528350E-01
   7155.67  5.7872323E-01
   7156.00  5.8202028E-01
   7156.33  5.8502339E-01
   7156.67  5.8766854E-01
   7157.00  5.8989263E-01
   7157.33  5.9158692E-01
   7157.67  5.9278371E-01
   7158.00  5.9347587E-01
   7158.33  5.9360639E-01
   7158.67  5.9325279E-01
   7159.00  5.9243266E-01
   7159.33  5.9111350E-01
   7159.67  5.8937406E-01
   7160.00  5.8723358E-01
   7160.33  5.8466568E-01
   7160.67  5.8173684E-01
   7161.00  5.7846197E-01
   7161.33  5.7481888E-01
   7161.67  5.7086509E-01
   7162.00  5.6661186E-01
   7162.33  5.6204224E-01
   7162.67  5.5721646E-01
   7163.00  5.5215834E-01
   7163.33  5.4687138E-01
   7163.67  5.4141079E-01
   7164.00  5.3580250E-01
   7164.33  5.3006093E-01
   7164.67  5.2422794E-01
   7165.00  5.1832613E-01
   7165.33  5.1237522E-01
   7165.67  5.0640449E-01
   7166.00  5.0043429E-01
   7166.33  4.9449008E-01
   7166.67  4.8858964E-01
   7167.00  4.8275023E-01
   7167.33  4.7700240E-01
   7167.67  4.7135656E-01
   7168.00  4.6583097E-01
   7168.33  4.6046773E-01
   7168.67  4.5527664E-01
   7169.00  4.5027978E-01
   7169.33  4.4552511E-01
   7169.67  4.4100668E-01
   7170.00  4.3674399E-01
   7170.33  4.3279512E-01
   7170.67  4.2914871E-01
   7171.00  4.2582755E-01
   7171.33  4.2291397E-01
   7171.67  4.2042525E-01
   7172.00  4.1843868E-01
