    FDMNES
    energy     <xanes>
   7097.00  4.6962284E-03
   7097.33  4.7903343E-03
   7097.67  4.8880597E-03
   7098.00  4.9896230E-03
   7098.33  5.0958189E-03
   7098.67  5.2064434E-03
   7099.00  5.3217908E-03
   7099.33  5.4428799E-03
   7099.67  5.5695003E-03
   7100.00  5.7020611E-03
   7100.33  5.8419076E-03
   7100.67  5.9888395E-03
   7101.00  6.1434477E-03
   7101.33  6.3075745E-03
   7101.67  6.4810690E-03
   7102.00  6.6648246E-03
   7102.33  6.8614818E-03
   7102.67  7.0710293E-03
   7103.00  7.2948961E-03
   7103.33  7.5370912E-03
   7103.67  7.7979589E-03
   7104.00  8.0799507E-03
   7104.33  8.3896161E-03
   7104.67  8.7282063E-03
   7105.00  9.1003145E-03
   7105.33  9.5177107E-03
   7105.67  9.9840938E-03
   7106.00  1.0509114E-02
   7106.33  1.1116773E-02
   7106.67  1.1818149E-02
   7107.00  1.2636904E-02
   7107.33  1.3631265E-02
   7107.67  1.4838865E-02
   7108.00  1.6331932E-02
   7108.33  1.8292352E-02
   7108.67  2.0883652E-02
   7109.00  2.4413572E-02
   7109.33  2.9722804E-02
   7109.67  3.7888012E-02
   7110.00  5.1055624E-02
   7110.33  7.5391985E-02
   7110.67  1.1543158E-01
   7111.00  1.6150517E-01
   7111.33  1.7676966E-01
   7111.67  1.6014681E-01
   7112.00  1.2828657E-01
   7112.33  1.0461023E-01
   7112.67  8.9323810E-02
   7113.00  7.8700936E-02
   7113.33  7.2395926E-02
   7113.67  6.6297249E-02
   7114.00  5.8556418E-02
   7114.33  5.1772115E-02
   7114.67  4.7225945E-02
   7115.00  4.4513607E-02
   7115.33  4.3139851E-02
   7115.67  4.2681118E-02
   7116.00  4.3078333E-02
   7116.33  4.4424787E-02
   7116.67  4.6616894E-02
   7117.00  4.9644435E-02
   7117.33  5.3532250E-02
   7117.67  5.8050807E-02
   7118.00  6.3140799E-02
   7118.33  6.9010649E-02
   7118.67  7.5863999E-02
   7119.00  8.4052885E-02
   7119.33  9.4345011E-02
   7119.67  1.0714478E-01
   7120.00  1.2305297E-01
   7120.33  1.4327734E-01
   7120.67  1.6799463E-01
   7121.00  1.9754367E-01
   7121.33  2.3245611E-01
   7121.67  2.7168369E-01
   7122.00  3.1489421E-01
   7122.33  3.6270604E-01
   7122.67  4.1501500E-01
   7123.00  4.7177517E-01
   7123.33  5.3288995E-01
   7123.67  5.9769334E-01
   7124.00  6.6674620E-01
   7124.33  7.4060704E-01
   7124.67  8.1535471E-01
   7125.00  8.8470361E-01
   7125.33  9.3928098E-01
   7125.67  9.7721266E-01
   7126.00  9.9882804E-01
   7126.33  1.0038204E+00
   7126.67  9.9565533E-01
   7127.00  9.7592724E-01
   7127.33  9.4574768E-01
   7127.67  9.0898589E-01
   7128.00  8.6820602E-01
   7128.33  8.2622554E-01
   7128.67  7.8571642E-01
   7129.00  7.4838487E-01
   7129.33  7.1609968E-01
   7129.67  6.8878098E-01
   7130.00  6.6616246E-01
   7130.33  6.4768260E-01
   7130.67  6.3166434E-01
   7131.00  6.1784000E-01
   7131.33  6.0769846E-01
   7131.67  6.0213958E-01
   7132.00  6.0140290E-01
   7132.33  6.0528632E-01
   7132.67  6.1204834E-01
   7133.00  6.2040127E-01
   7133.33  6.2845306E-01
   7133.67  6.3423240E-01
   7134.00  6.3673402E-01
   7134.33  6.3635393E-01
   7134.67  6.3539597E-01
   7135.00  6.3502450E-01
   7135.33  6.3531762E-01
   7135.67  6.3544657E-01
   7136.00  6.3483601E-01
   7136.33  6.3313513E-01
   7136.67  6.3062197E-01
   7137.00  6.2753294E-01
   7137.33  6.2401509E-01
   7137.67  6.2015252E-01
   7138.00  6.1586848E-01
   7138.33  6.1093210E-01
   7138.67  6.0524478E-01
   7139.00  5.9869432E-01
   7139.33  5.9110605E-01
   7139.67  5.8262113E-01
   7140.00  5.7332080E-01
   7140.33  5.6325736E-01
   7140.67  5.5266648E-01
   7141.00  5.4166603E-01
   7141.33  5.3032499E-01
   7141.67  5.1875766E-01
   7142.00  5.0701965E-01
   7142.33  4.9517250E-01
   7142.67  4.8332407E-01
   7143.00  4.7156449E-01
   7143.33  4.6000328E-01
   7143.67  4.4868917E-01
   7144.00  4.3767659E-01
   7144.33  4.2706295E-01
   7144.67  4.1684416E-01
   7145.00  4.0704536E-01
   7145.33  3.9774125E-01
   7145.67  3.8888884E-01
   7146.00  3.8049406E-01
   7146.33  3.7261679E-01
   7146.67  3.6519784E-01
   7147.00  3.5823299E-01
   7147.33  3.5176966E-01
   7147.67  3.4574049E-01
   7148.00  3.4013308E-01
   7148.33  3.3498067E-01
   7148.67  3.3021340E-01
   7149.00  3.2581389E-01
   7149.33  3.2180440E-01
   7149.67  3.1812030E-01
   7150.00  3.1474330E-01
   7150.33  3.1168842E-01
   7150.67  3.0890233E-01
   7151.00  3.0637438E-01
   7151.33  3.0412674E-01
   7151.67  3.0212101E-01
   7152.00  3.0035351E-01
   7152.33  2.9885400E-01
   7152.67  2.9759705E-01
   7153.00  2.9658859E-01
   7153.33  2.9586808E-01
   7153.67  2.9541384E-01
   7154.00  2.9523664E-01
   7154.33  2.9538568E-01
   7154.67  2.9583836E-01
   7155.00  2.9660876E-01
   7155.33  2.9776320E-01
   7155.67  2.9929475E-01
   7156.00  3.0124655E-01
   7156.33  3.0374638E-01
   7156.67  3.0681663E-01
   7157.00  3.1053733E-01
   7157.33  3.1509244E-01
   7157.67  3.2046328E-01
   7158.00  3.2668776E-01
   7158.33  3.3387221E-01
   7158.67  3.4184984E-01
   7159.00  3.5051899E-01
   7159.33  3.5977994E-01
   7159.67  3.6937276E-01
   7160.00  3.7912747E-01
   7160.33  3.8886247E-01
   7160.67  3.9843647E-01
   7161.00  4.0776068E-01
   7161.33  4.1673148E-01
   7161.67  4.2535671E-01
   7162.00  4.3362405E-01
   7162.33  4.4149001E-01
   7162.67  4.4901821E-01
   7163.00  4.5623029E-01
   7163.33  4.6311577E-01
   7163.67  4.6973914E-01
   7164.00  4.7612584E-01
   7164.33  4.8228079E-01
   7164.67  4.8826309E-01
   7165.00  4.9409499E-01
   7165.33  4.9977515E-01
   7165.67  5.0533497E-01
   7166.00  5.1078376E-01
   7166.33  5.1611269E-01
   7166.67  5.2133187E-01
   7167.00  5.2643213E-01
   7167.33  5.3137919E-01
   7167.67  5.3616592E-01
   7168.00  5.4076676E-01
   7168.33  5.4512085E-01
   7168.67  5.4922018E-01
   7169.00  5.5303378E-01
   7169.33  5.5648672E-01
   7169.67  5.5958787E-01
   7170.00  5.6231482E-01
   7170.33  5.6460159E-01
   7170.67  5.6649647E-01
   7171.00  5.6800832E-01
   7171.33  5.6911519E-01
   7171.67  5.6991600E-01
   7172.00  5.7049143E-01
