    FDMNES
    energy     <xanes>
   7097.00  5.2384714E-03
   7097.33  5.3605868E-03
   7097.67  5.4881645E-03
   7098.00  5.6215671E-03
   7098.33  5.7620461E-03
   7098.67  5.9093326E-03
   7099.00  6.0639167E-03
   7099.33  6.2274242E-03
   7099.67  6.3995749E-03
   7100.00  6.5810484E-03
   7100.33  6.7740088E-03
   7100.67  6.9781851E-03
   7101.00  7.1945481E-03
   7101.33  7.4260628E-03
   7101.67  7.6725147E-03
   7102.00  7.9353393E-03
   7102.33  8.2187430E-03
   7102.67  8.5226727E-03
   7103.00  8.8493427E-03
   7103.33  9.2049806E-03
   7103.67  9.5899327E-03
   7104.00  1.0007798E-02
   7104.33  1.0468304E-02
   7104.67  1.0972762E-02
   7105.00  1.1527424E-02
   7105.33  1.2148572E-02
   7105.67  1.2839942E-02
   7106.00  1.3613387E-02
   7106.33  1.4498834E-02
   7106.67  1.5506639E-02
   7107.00  1.6662201E-02
   7107.33  1.8028351E-02
   7107.67  1.9636466E-02
   7108.00  2.1551779E-02
   7108.33  2.3936240E-02
   7108.67  2.6906659E-02
   7109.00  3.0687738E-02
   7109.33  3.5869721E-02
   7109.67  4.3092011E-02
   7110.00  5.3610431E-02
   7110.33  7.0959561E-02
   7110.67  9.8184657E-02
   7111.00  1.3371362E-01
   7111.33  1.6951198E-01
   7111.67  2.0653095E-01
   7112.00  2.4033185E-01
   7112.33  2.7012654E-01
   7112.67  2.9342272E-01
   7113.00  3.0620030E-01
   7113.33  3.2636543E-01
   7113.67  3.7022732E-01
   7114.00  4.2960324E-01
   7114.33  4.7359376E-01
   7114.67  4.7657560E-01
   7115.00  4.3932181E-01
   7115.33  3.8284247E-01
   7115.67  3.3085245E-01
   7116.00  2.9224984E-01
   7116.33  2.6917034E-01
   7116.67  2.5316963E-01
   7117.00  2.3607992E-01
   7117.33  2.1477287E-01
   7117.67  1.9620738E-01
   7118.00  1.8324586E-01
   7118.33  1.7369971E-01
   7118.67  1.6545812E-01
   7119.00  1.5938488E-01
   7119.33  1.5744577E-01
   7119.67  1.6004148E-01
   7120.00  1.6685987E-01
   7120.33  1.7605915E-01
   7120.67  1.8389396E-01
   7121.00  1.8821663E-01
   7121.33  1.8818088E-01
   7121.67  1.8495134E-01
   7122.00  1.7993185E-01
   7122.33  1.7549573E-01
   7122.67  1.7302439E-01
   7123.00  1.7277097E-01
   7123.33  1.7509721E-01
   7123.67  1.8007724E-01
   7124.00  1.8812956E-01
   7124.33  2.0010458E-01
   7124.67  2.1587332E-01
   7125.00  2.3556951E-01
   7125.33  2.5948936E-01
   7125.67  2.8646752E-01
   7126.00  3.1560377E-01
   7126.33  3.4612297E-01
   7126.67  3.7733901E-01
   7127.00  4.0879395E-01
   7127.33  4.3910334E-01
   7127.67  4.6638467E-01
   7128.00  4.8915574E-01
   7128.33  5.0670843E-01
   7128.67  5.2147216E-01
   7129.00  5.3585023E-01
   7129.33  5.5271169E-01
   7129.67  5.7336749E-01
   7130.00  5.9826668E-01
   7130.33  6.2758554E-01
   7130.67  6.5991984E-01
   7131.00  6.9417351E-01
   7131.33  7.2890793E-01
   7131.67  7.6255258E-01
   7132.00  7.9384886E-01
   7132.33  8.2082810E-01
   7132.67  8.4241953E-01
   7133.00  8.5741670E-01
   7133.33  8.6406759E-01
   7133.67  8.6339829E-01
   7134.00  8.5616135E-01
   7134.33  8.4301781E-01
   7134.67  8.2608542E-01
   7135.00  8.0654370E-01
   7135.33  7.8531221E-01
   7135.67  7.6329249E-01
   7136.00  7.4081866E-01
   7136.33  7.1807434E-01
   7136.67  6.9529200E-01
   7137.00  6.7279589E-01
   7137.33  6.5137620E-01
   7137.67  6.3181966E-01
   7138.00  6.1487675E-01
   7138.33  6.0148453E-01
   7138.67  5.9128748E-01
   7139.00  5.8396133E-01
   7139.33  5.7917734E-01
   7139.67  5.7599954E-01
   7140.00  5.7395455E-01
   7140.33  5.7274793E-01
   7140.67  5.7207354E-01
   7141.00  5.7185939E-01
   7141.33  5.7216043E-01
   7141.67  5.7295399E-01
   7142.00  5.7425188E-01
   7142.33  5.7600221E-01
   7142.67  5.7784659E-01
   7143.00  5.7938516E-01
   7143.33  5.7997149E-01
   7143.67  5.7920615E-01
   7144.00  5.7679855E-01
   7144.33  5.7246800E-01
   7144.67  5.6666044E-01
   7145.00  5.5974029E-01
   7145.33  5.5210858E-01
   7145.67  5.4426796E-01
   7146.00  5.3649053E-01
   7146.33  5.2901960E-01
   7146.67  5.2194272E-01
   7147.00  5.1532070E-01
   7147.33  5.0926043E-01
   7147.67  5.0373102E-01
   7148.00  4.9875535E-01
   7148.33  4.9442915E-01
   7148.67  4.9070111E-01
   7149.00  4.8758742E-01
   7149.33  4.8518278E-01
   7149.67  4.8342049E-01
   7150.00  4.8231199E-01
   7150.33  4.8195837E-01
   7150.67  4.8229408E-01
   7151.00  4.8333312E-01
   7151.33  4.8516919E-01
   7151.67  4.8770577E-01
   7152.00  4.9093439E-01
   7152.33  4.9492213E-01
   7152.67  4.9955325E-01
   7153.00  5.0478800E-01
   7153.33  5.1063138E-01
   7153.67  5.1693235E-01
   7154.00  5.2360079E-01
   7154.33  5.3054014E-01
   7154.67  5.3757157E-01
   7155.00  5.4455257E-01
   7155.33  5.5127903E-01
   7155.67  5.5760352E-01
   7156.00  5.6338432E-01
   7156.33  5.6839032E-01
   7156.67  5.7259477E-01
   7157.00  5.7593470E-01
   7157.33  5.7826744E-01
   7157.67  5.7971649E-01
   7158.00  5.8032003E-01
   7158.33  5.8005072E-01
   7158.67  5.7909392E-01
   7159.00  5.7753419E-01
   7159.33  5.7541126E-01
   7159.67  5.7288822E-01
   7160.00  5.7004613E-01
   7160.33  5.6694183E-01
   7160.67  5.6367845E-01
   7161.00  5.6030864E-01
   7161.33  5.5687565E-01
   7161.67  5.5342615E-01
   7162.00  5.4998670E-01
   7162.33  5.4658523E-01
   7162.67  5.4323600E-01
   7163.00  5.3995254E-01
   7163.33  5.3675910E-01
   7163.67  5.3365987E-01
   7164.00  5.3066600E-01
   7164.33  5.2780183E-01
   7164.67  5.2506202E-01
   7165.00  5.2245392E-01
   7165.33  5.2000018E-01
   7165.67  5.1768510E-01
   7166.00  5.1550754E-01
   7166.33  5.1348010E-01
   7166.67  5.1157796E-01
   7167.00  5.0979079E-01
   7167.33  5.0811673E-01
   7167.67  5.0652707E-01
   7168.00  5.0500626E-01
   7168.33  5.0353982E-01
   7168.67  5.0210104E-01
   7169.00  5.0067416E-01
   7169.33  4.9923766E-01
   7169.67  4.9777063E-01
   7170.00  4.9625809E-01
   7170.33  4.9468274E-01
   7170.67  4.9305263E-01
   7171.00  4.9138297E-01
   7171.33  4.8972079E-01
   7171.67  4.8816387E-01
   7172.00  4.8684904E-01
