    FDMNES
    energy     <xanes>
   7097.00  4.9905365E-03
   7097.33  5.1057956E-03
   7097.67  5.2261638E-03
   7098.00  5.3519807E-03
   7098.33  5.4844184E-03
   7098.67  5.6232271E-03
   7099.00  5.7688681E-03
   7099.33  5.9228685E-03
   7099.67  6.0849718E-03
   7100.00  6.2558223E-03
   7100.33  6.4374628E-03
   7100.67  6.6296537E-03
   7101.00  6.8333243E-03
   7101.33  7.0512959E-03
   7101.67  7.2833989E-03
   7102.00  7.5310273E-03
   7102.33  7.7982308E-03
   7102.67  8.0850304E-03
   7103.00  8.3936179E-03
   7103.33  8.7300934E-03
   7103.67  9.0949464E-03
   7104.00  9.4918332E-03
   7104.33  9.9305189E-03
   7104.67  1.0412644E-02
   7105.00  1.0944784E-02
   7105.33  1.1543861E-02
   7105.67  1.2214489E-02
   7106.00  1.2969727E-02
   7106.33  1.3842211E-02
   7106.67  1.4845041E-02
   7107.00  1.6007952E-02
   7107.33  1.7404140E-02
   7107.67  1.9075199E-02
   7108.00  2.1103752E-02
   7108.33  2.3695775E-02
   7108.67  2.7016821E-02
   7109.00  3.1380240E-02
   7109.33  3.7621799E-02
   7109.67  4.6721025E-02
   7110.00  6.0611331E-02
   7110.33  8.4858189E-02
   7110.67  1.2477433E-01
   7111.00  1.7810982E-01
   7111.33  2.1998799E-01
   7111.67  2.4104468E-01
   7112.00  2.4756815E-01
   7112.33  2.4579351E-01
   7112.67  2.4087597E-01
   7113.00  2.3502022E-01
   7113.33  2.3006984E-01
   7113.67  2.2710893E-01
   7114.00  2.2672902E-01
   7114.33  2.2917380E-01
   7114.67  2.3286871E-01
   7115.00  2.3592027E-01
   7115.33  2.3607164E-01
   7115.67  2.3324843E-01
   7116.00  2.2819601E-01
   7116.33  2.2184109E-01
   7116.67  2.1506178E-01
   7117.00  2.0828957E-01
   7117.33  2.0210788E-01
   7117.67  1.9705385E-01
   7118.00  1.9363937E-01
   7118.33  1.9260830E-01
   7118.67  1.9399649E-01
   7119.00  1.9791786E-01
   7119.33  2.0467290E-01
   7119.67  2.1380047E-01
   7120.00  2.2509093E-01
   7120.33  2.3846056E-01
   7120.67  2.5332065E-01
   7121.00  2.6935288E-01
   7121.33  2.8627772E-01
   7121.67  3.0360122E-01
   7122.00  3.2098486E-01
   7122.33  3.3804442E-01
   7122.67  3.5455851E-01
   7123.00  3.7039051E-01
   7123.33  3.8537540E-01
   7123.67  3.9959932E-01
   7124.00  4.1306893E-01
   7124.33  4.2571102E-01
   7124.67  4.3764375E-01
   7125.00  4.4888453E-01
   7125.33  4.5946289E-01
   7125.67  4.6964568E-01
   7126.00  4.7965651E-01
   7126.33  4.8984395E-01
   7126.67  5.0052573E-01
   7127.00  5.1196060E-01
   7127.33  5.2451848E-01
   7127.67  5.3822565E-01
   7128.00  5.5311684E-01
   7128.33  5.6925383E-01
   7128.67  5.8629892E-01
   7129.00  6.0398884E-01
   7129.33  6.2194009E-01
   7129.67  6.3958137E-01
   7130.00  6.5631754E-01
   7130.33  6.7104562E-01
   7130.67  6.8290245E-01
   7131.00  6.9084182E-01
   7131.33  6.9303801E-01
   7131.67  6.8923977E-01
   7132.00  6.7914412E-01
   7132.33  6.6235492E-01
   7132.67  6.4067919E-01
   7133.00  6.1541629E-01
   7133.33  5.8796619E-01
   7133.67  5.6006471E-01
   7134.00  5.3274528E-01
   7134.33  5.0710093E-01
   7134.67  4.8361954E-01
   7135.00  4.6277261E-01
   7135.33  4.4540831E-01
   7135.67  4.3145443E-01
   7136.00  4.2098313E-01
   7136.33  4.1418830E-01
   7136.67  4.1016562E-01
   7137.00  4.0837075E-01
   7137.33  4.0837872E-01
   7137.67  4.0947672E-01
   7138.00  4.1134405E-01
   7138.33  4.1379364E-01
   7138.67  4.1660177E-01
   7139.00  4.1967573E-01
   7139.33  4.2295405E-01
   7139.67  4.2633872E-01
   7140.00  4.2976593E-01
   7140.33  4.3315856E-01
   7140.67  4.3645308E-01
   7141.00  4.3960159E-01
   7141.33  4.4254266E-01
   7141.67  4.4528354E-01
   7142.00  4.4782933E-01
   7142.33  4.5018397E-01
   7142.67  4.5240923E-01
   7143.00  4.5454787E-01
   7143.33  4.5665044E-01
   7143.67  4.5877580E-01
   7144.00  4.6096850E-01
   7144.33  4.6329067E-01
   7144.67  4.6576917E-01
   7145.00  4.6843139E-01
   7145.33  4.7132919E-01
   7145.67  4.7445896E-01
   7146.00  4.7783444E-01
   7146.33  4.8149394E-01
   7146.67  4.8540444E-01
   7147.00  4.8956125E-01
   7147.33  4.9398634E-01
   7147.67  4.9864001E-01
   7148.00  5.0351244E-01
   7148.33  5.0861764E-01
   7148.67  5.1391796E-01
   7149.00  5.1940355E-01
   7149.33  5.2508659E-01
   7149.67  5.3093757E-01
   7150.00  5.3695198E-01
   7150.33  5.4314748E-01
   7150.67  5.4950359E-01
   7151.00  5.5602045E-01
   7151.33  5.6271840E-01
   7151.67  5.6957615E-01
   7152.00  5.7658978E-01
   7152.33  5.8376830E-01
   7152.67  5.9107661E-01
   7153.00  5.9849236E-01
   7153.33  6.0598746E-01
   7153.67  6.1350273E-01
   7154.00  6.2098302E-01
   7154.33  6.2833669E-01
   7154.67  6.3548614E-01
   7155.00  6.4234222E-01
   7155.33  6.4874630E-01
   7155.67  6.5464890E-01
   7156.00  6.5997218E-01
   7156.33  6.6454572E-01
   7156.67  6.6837281E-01
   7157.00  6.7139505E-01
   7157.33  6.7345393E-01
   7157.67  6.7462538E-01
   7158.00  6.7489899E-01
   7158.33  6.7416985E-01
   7158.67  6.7258466E-01
   7159.00  6.7020049E-01
   7159.33  6.6699888E-01
   7159.67  6.6314153E-01
   7160.00  6.5869367E-01
   7160.33  6.5366874E-01
   7160.67  6.4820661E-01
   7161.00  6.4237703E-01
   7161.33  6.3623897E-01
   7161.67  6.2990074E-01
   7162.00  6.2340729E-01
   7162.33  6.1679120E-01
   7162.67  6.1010668E-01
   7163.00  6.0338275E-01
   7163.33  5.9664511E-01
   7163.67  5.8991710E-01
   7164.00  5.8321330E-01
   7164.33  5.7654941E-01
   7164.67  5.6992817E-01
   7165.00  5.6335425E-01
   7165.33  5.5683817E-01
   7165.67  5.5037676E-01
   7166.00  5.4397334E-01
   7166.33  5.3764077E-01
   7166.67  5.3137837E-01
   7167.00  5.2519492E-01
   7167.33  5.1911450E-01
   7167.67  5.1314033E-01
   7168.00  5.0728707E-01
   7168.33  5.0159116E-01
   7168.67  4.9605522E-01
   7169.00  4.9069713E-01
   7169.33  4.8556182E-01
   7169.67  4.8064302E-01
   7170.00  4.7595573E-01
   7170.33  4.7154888E-01
   7170.67  4.6741273E-01
   7171.00  4.6357353E-01
   7171.33  4.6012673E-01
   7171.67  4.5712680E-01
   7172.00  4.5470317E-01
