    FDMNES
    energy     <xanes>
   7097.00  5.0908402E-03
   7097.33  5.2071811E-03
   7097.67  5.3286466E-03
   7098.00  5.4555741E-03
   7098.33  5.5891334E-03
   7098.67  5.7290685E-03
   7099.00  5.8758354E-03
   7099.33  6.0309515E-03
   7099.67  6.1941500E-03
   7100.00  6.3660626E-03
   7100.33  6.5487068E-03
   7100.67  6.7418242E-03
   7101.00  6.9463167E-03
   7101.33  7.1649455E-03
   7101.67  7.3975047E-03
   7102.00  7.6453277E-03
   7102.33  7.9123288E-03
   7102.67  8.1984516E-03
   7103.00  8.5057530E-03
   7103.33  8.8400241E-03
   7103.67  9.2015789E-03
   7104.00  9.5937591E-03
   7104.33  1.0025603E-02
   7104.67  1.0498317E-02
   7105.00  1.1017699E-02
   7105.33  1.1598855E-02
   7105.67  1.2245215E-02
   7106.00  1.2967735E-02
   7106.33  1.3794074E-02
   7106.67  1.4733663E-02
   7107.00  1.5809780E-02
   7107.33  1.7079945E-02
   7107.67  1.8572205E-02
   7108.00  2.0345158E-02
   7108.33  2.2543619E-02
   7108.67  2.5267996E-02
   7109.00  2.8711104E-02
   7109.33  3.3371956E-02
   7109.67  3.9759971E-02
   7110.00  4.8865775E-02
   7110.33  6.3503543E-02
   7110.67  8.6897328E-02
   7111.00  1.2172329E-01
   7111.33  1.6440129E-01
   7111.67  2.0557202E-01
   7112.00  2.4308965E-01
   7112.33  2.7595008E-01
   7112.67  3.0420765E-01
   7113.00  3.3050398E-01
   7113.33  3.5318058E-01
   7113.67  3.6304151E-01
   7114.00  3.5834349E-01
   7114.33  3.4445060E-01
   7114.67  3.2426964E-01
   7115.00  2.9880301E-01
   7115.33  2.7270150E-01
   7115.67  2.5082332E-01
   7116.00  2.3515573E-01
   7116.33  2.2729314E-01
   7116.67  2.2640995E-01
   7117.00  2.3068832E-01
   7117.33  2.3347498E-01
   7117.67  2.2777628E-01
   7118.00  2.1375821E-01
   7118.33  1.9746160E-01
   7118.67  1.8364144E-01
   7119.00  1.7281121E-01
   7119.33  1.6448165E-01
   7119.67  1.5817482E-01
   7120.00  1.5410687E-01
   7120.33  1.5217833E-01
   7120.67  1.5104948E-01
   7121.00  1.5031491E-01
   7121.33  1.5135354E-01
   7121.67  1.5574817E-01
   7122.00  1.6428767E-01
   7122.33  1.7680563E-01
   7122.67  1.9082266E-01
   7123.00  2.0494990E-01
   7123.33  2.1975893E-01
   7123.67  2.3592755E-01
   7124.00  2.5320932E-01
   7124.33  2.7126805E-01
   7124.67  2.8996204E-01
   7125.00  3.0951024E-01
   7125.33  3.3047729E-01
   7125.67  3.5315405E-01
   7126.00  3.7782070E-01
   7126.33  4.0447559E-01
   7126.67  4.3151178E-01
   7127.00  4.5672241E-01
   7127.33  4.7683818E-01
   7127.67  4.9130686E-01
   7128.00  5.0109905E-01
   7128.33  5.0879140E-01
   7128.67  5.1774255E-01
   7129.00  5.2983520E-01
   7129.33  5.4643577E-01
   7129.67  5.6689154E-01
   7130.00  5.9055297E-01
   7130.33  6.1612793E-01
   7130.67  6.4118742E-01
   7131.00  6.6379537E-01
   7131.33  6.8183835E-01
   7131.67  6.9529614E-01
   7132.00  7.0461406E-01
   7132.33  7.1065845E-01
   7132.67  7.1519426E-01
   7133.00  7.1913933E-01
   7133.33  7.2293477E-01
   7133.67  7.2636684E-01
   7134.00  7.2887539E-01
   7134.33  7.2960007E-01
   7134.67  7.2838355E-01
   7135.00  7.2517933E-01
   7135.33  7.1981560E-01
   7135.67  7.1261396E-01
   7136.00  7.0368143E-01
   7136.33  6.9310699E-01
   7136.67  6.8155665E-01
   7137.00  6.6958235E-01
   7137.33  6.5791267E-01
   7137.67  6.4714779E-01
   7138.00  6.3772365E-01
   7138.33  6.3021905E-01
   7138.67  6.2465917E-01
   7139.00  6.2118081E-01
   7139.33  6.2017403E-01
   7139.67  6.2144450E-01
   7140.00  6.2502453E-01
   7140.33  6.3118279E-01
   7140.67  6.3952369E-01
   7141.00  6.4983619E-01
   7141.33  6.6186074E-01
   7141.67  6.7467004E-01
   7142.00  6.8737132E-01
   7142.33  6.9848276E-01
   7142.67  7.0675449E-01
   7143.00  7.1108354E-01
   7143.33  7.1002910E-01
   7143.67  7.0403464E-01
   7144.00  6.9352785E-01
   7144.33  6.7902479E-01
   7144.67  6.6213290E-01
   7145.00  6.4380868E-01
   7145.33  6.2492024E-01
   7145.67  6.0623467E-01
   7146.00  5.8820205E-01
   7146.33  5.7134594E-01
   7146.67  5.5580713E-01
   7147.00  5.4171490E-01
   7147.33  5.2932780E-01
   7147.67  5.1848074E-01
   7148.00  5.0916379E-01
   7148.33  5.0151292E-01
   7148.67  4.9525895E-01
   7149.00  4.9030908E-01
   7149.33  4.8668847E-01
   7149.67  4.8411585E-01
   7150.00  4.8246175E-01
   7150.33  4.8166442E-01
   7150.67  4.8147642E-01
   7151.00  4.8177346E-01
   7151.33  4.8246190E-01
   7151.67  4.8336989E-01
   7152.00  4.8439449E-01
   7152.33  4.8542496E-01
   7152.67  4.8635997E-01
   7153.00  4.8712374E-01
   7153.33  4.8761263E-01
   7153.67  4.8780368E-01
   7154.00  4.8766904E-01
   7154.33  4.8715727E-01
   7154.67  4.8632522E-01
   7155.00  4.8520345E-01
   7155.33  4.8381450E-01
   7155.67  4.8225234E-01
   7156.00  4.8057656E-01
   7156.33  4.7885050E-01
   7156.67  4.7714459E-01
   7157.00  4.7550945E-01
   7157.33  4.7401199E-01
   7157.67  4.7267947E-01
   7158.00  4.7154078E-01
   7158.33  4.7064832E-01
   7158.67  4.6999135E-01
   7159.00  4.6957815E-01
   7159.33  4.6944333E-01
   7159.67  4.6955414E-01
   7160.00  4.6990558E-01
   7160.33  4.7051816E-01
   7160.67  4.7135183E-01
   7161.00  4.7239511E-01
   7161.33  4.7365592E-01
   7161.67  4.7509125E-01
   7162.00  4.7668284E-01
   7162.33  4.7842269E-01
   7162.67  4.8026569E-01
   7163.00  4.8218188E-01
   7163.33  4.8413673E-01
   7163.67  4.8608924E-01
   7164.00  4.8800951E-01
   7164.33  4.8985600E-01
   7164.67  4.9160537E-01
   7165.00  4.9323262E-01
   7165.33  4.9469457E-01
   7165.67  4.9599050E-01
   7166.00  4.9710844E-01
   7166.33  4.9801546E-01
   7166.67  4.9873065E-01
   7167.00  4.9925463E-01
   7167.33  4.9956954E-01
   7167.67  4.9971025E-01
   7168.00  4.9969025E-01
   7168.33  4.9950447E-01
   7168.67  4.9918593E-01
   7169.00  4.9874908E-01
   7169.33  4.9819798E-01
   7169.67  4.9756138E-01
   7170.00  4.9685315E-01
   7170.33  4.9608327E-01
   7170.67  4.9527750E-01
   7171.00  4.9445547E-01
   7171.33  4.9365059E-01
   7171.67  4.9291193E-01
   7172.00  4.9230323E-01
