    FDMNES
    energy     <xanes>
   7097.00  5.5868282E-03
   7097.33  5.7352596E-03
   7097.67  5.8911406E-03
   7098.00  6.0550105E-03
   7098.33  6.2286515E-03
   7098.67  6.4117566E-03
   7099.00  6.6050683E-03
   7099.33  6.8109500E-03
   7099.67  7.0290955E-03
   7100.00  7.2605535E-03
   7100.33  7.5085383E-03
   7100.67  7.7727843E-03
   7101.00  8.0548171E-03
   7101.33  8.3591400E-03
   7101.67  8.6856144E-03
   7102.00  9.0365386E-03
   7102.33  9.4184473E-03
   7102.67  9.8315171E-03
   7103.00  1.0279357E-02
   7103.33  1.0771860E-02
   7103.67  1.1309939E-02
   7104.00  1.1899553E-02
   7104.33  1.2556482E-02
   7104.67  1.3283357E-02
   7105.00  1.4090660E-02
   7105.33  1.5005276E-02
   7105.67  1.6034021E-02
   7106.00  1.7196892E-02
   7106.33  1.8543808E-02
   7106.67  2.0092663E-02
   7107.00  2.1885994E-02
   7107.33  2.4028119E-02
   7107.67  2.6570342E-02
   7108.00  2.9618397E-02
   7108.33  3.3431732E-02
   7108.67  3.8186013E-02
   7109.00  4.4216452E-02
   7109.33  5.2379677E-02
   7109.67  6.3509249E-02
   7110.00  7.9208176E-02
   7110.33  1.0395070E-01
   7110.67  1.4275612E-01
   7111.00  2.0051223E-01
   7111.33  2.7760075E-01
   7111.67  3.7040546E-01
   7112.00  4.8741623E-01
   7112.33  6.2960275E-01
   7112.67  7.3486607E-01
   7113.00  7.6238624E-01
   7113.33  7.5667921E-01
   7113.67  7.2943764E-01
   7114.00  6.4545951E-01
   7114.33  5.1242312E-01
   7114.67  3.9054518E-01
   7115.00  3.0049177E-01
   7115.33  2.4214546E-01
   7115.67  2.0225271E-01
   7116.00  1.7427752E-01
   7116.33  1.5488298E-01
   7116.67  1.4158004E-01
   7117.00  1.3352157E-01
   7117.33  1.3050983E-01
   7117.67  1.3147679E-01
   7118.00  1.3505221E-01
   7118.33  1.3913055E-01
   7118.67  1.4210344E-01
   7119.00  1.4277820E-01
   7119.33  1.3997399E-01
   7119.67  1.3539238E-01
   7120.00  1.3125727E-01
   7120.33  1.2944812E-01
   7120.67  1.2920009E-01
   7121.00  1.2890361E-01
   7121.33  1.2827350E-01
   7121.67  1.2943412E-01
   7122.00  1.3278621E-01
   7122.33  1.3690965E-01
   7122.67  1.4106426E-01
   7123.00  1.4578077E-01
   7123.33  1.5199785E-01
   7123.67  1.6014713E-01
   7124.00  1.7058624E-01
   7124.33  1.8380754E-01
   7124.67  1.9935103E-01
   7125.00  2.1670090E-01
   7125.33  2.3473978E-01
   7125.67  2.5190533E-01
   7126.00  2.6734681E-01
   7126.33  2.8069989E-01
   7126.67  2.9275727E-01
   7127.00  3.0427229E-01
   7127.33  3.1620896E-01
   7127.67  3.2920504E-01
   7128.00  3.4330495E-01
   7128.33  3.5747408E-01
   7128.67  3.7026489E-01
   7129.00  3.8168958E-01
   7129.33  3.9374260E-01
   7129.67  4.0888909E-01
   7130.00  4.2870128E-01
   7130.33  4.5449935E-01
   7130.67  4.8527456E-01
   7131.00  5.2038254E-01
   7131.33  5.5947186E-01
   7131.67  6.0128736E-01
   7132.00  6.4498409E-01
   7132.33  6.8908703E-01
   7132.67  7.3088687E-01
   7133.00  7.6724119E-01
   7133.33  7.9428313E-01
   7133.67  8.1287825E-01
   7134.00  8.2449810E-01
   7134.33  8.3062673E-01
   7134.67  8.3368010E-01
   7135.00  8.3482767E-01
   7135.33  8.3456596E-01
   7135.67  8.3253500E-01
   7136.00  8.2727916E-01
   7136.33  8.1590398E-01
   7136.67  7.9771054E-01
   7137.00  7.7312167E-01
   7137.33  7.4394911E-01
   7137.67  7.1383122E-01
   7138.00  6.8506877E-01
   7138.33  6.5959771E-01
   7138.67  6.3743542E-01
   7139.00  6.1827984E-01
   7139.33  6.0182546E-01
   7139.67  5.8727835E-01
   7140.00  5.7447951E-01
   7140.33  5.6378452E-01
   7140.67  5.5526445E-01
   7141.00  5.4918604E-01
   7141.33  5.4606088E-01
   7141.67  5.4554440E-01
   7142.00  5.4746557E-01
   7142.33  5.5174723E-01
   7142.67  5.5769166E-01
   7143.00  5.6488907E-01
   7143.33  5.7295836E-01
   7143.67  5.8135825E-01
   7144.00  5.8975200E-01
   7144.33  5.9776366E-01
   7144.67  6.0516043E-01
   7145.00  6.1175046E-01
   7145.33  6.1724206E-01
   7145.67  6.2165293E-01
   7146.00  6.2495640E-01
   7146.33  6.2706422E-01
   7146.67  6.2821942E-01
   7147.00  6.2856160E-01
   7147.33  6.2821928E-01
   7147.67  6.2749792E-01
   7148.00  6.2659538E-01
   7148.33  6.2573040E-01
   7148.67  6.2508097E-01
   7149.00  6.2476756E-01
   7149.33  6.2495045E-01
   7149.67  6.2563797E-01
   7150.00  6.2684963E-01
   7150.33  6.2863893E-01
   7150.67  6.3089328E-01
   7151.00  6.3354608E-01
   7151.33  6.3654087E-01
   7151.67  6.3973575E-01
   7152.00  6.4303971E-01
   7152.33  6.4635205E-01
   7152.67  6.4958004E-01
   7153.00  6.5265463E-01
   7153.33  6.5547923E-01
   7153.67  6.5802283E-01
   7154.00  6.6023851E-01
   7154.33  6.6202119E-01
   7154.67  6.6335659E-01
   7155.00  6.6418750E-01
   7155.33  6.6437396E-01
   7155.67  6.6392132E-01
   7156.00  6.6277520E-01
   7156.33  6.6078182E-01
   7156.67  6.5799750E-01
   7157.00  6.5441268E-01
   7157.33  6.4993828E-01
   7157.67  6.4470178E-01
   7158.00  6.3874037E-01
   7158.33  6.3202450E-01
   7158.67  6.2470072E-01
   7159.00  6.1682811E-01
   7159.33  6.0842093E-01
   7159.67  5.9961428E-01
   7160.00  5.9047609E-01
   7160.33  5.8106343E-01
   7160.67  5.7150218E-01
   7161.00  5.6187396E-01
   7161.33  5.5227583E-01
   7161.67  5.4279611E-01
   7162.00  5.3350847E-01
   7162.33  5.2452061E-01
   7162.67  5.1585974E-01
   7163.00  5.0756555E-01
   7163.33  4.9971561E-01
   7163.67  4.9226912E-01
   7164.00  4.8521944E-01
   7164.33  4.7859155E-01
   7164.67  4.7230525E-01
   7165.00  4.6632572E-01
   7165.33  4.6063997E-01
   7165.67  4.5516741E-01
   7166.00  4.4986750E-01
   7166.33  4.4471238E-01
   7166.67  4.3964743E-01
   7167.00  4.3464576E-01
   7167.33  4.2969070E-01
   7167.67  4.2476866E-01
   7168.00  4.1987978E-01
   7168.33  4.1503267E-01
   7168.67  4.1023924E-01
   7169.00  4.0551752E-01
   7169.33  4.0090285E-01
   7169.67  3.9641074E-01
   7170.00  3.9206723E-01
   7170.33  3.8792672E-01
   7170.67  3.8400251E-01
   7171.00  3.8033345E-01
   7171.33  3.7702437E-01
   7171.67  3.7414028E-01
   7172.00  3.7180803E-01
