    FDMNES
    energy     <xanes>
   7097.00  4.5476593E-03
   7097.33  4.6541287E-03
   7097.67  4.7655335E-03
   7098.00  4.8822254E-03
   7098.33  5.0053769E-03
   7098.67  5.1347809E-03
   7099.00  5.2709254E-03
   7099.33  5.4153710E-03
   7099.67  5.5679186E-03
   7100.00  5.7292673E-03
   7100.33  5.9015563E-03
   7100.67  6.0846298E-03
   7101.00  6.2795243E-03
   7101.33  6.4892783E-03
   7101.67  6.7138563E-03
   7102.00  6.9548610E-03
   7102.33  7.2167968E-03
   7102.67  7.4999204E-03
   7103.00  7.8068384E-03
   7103.33  8.1445886E-03
   7103.67  8.5141200E-03
   7104.00  8.9199457E-03
   7104.33  9.3738077E-03
   7104.67  9.8783427E-03
   7105.00  1.0442008E-02
   7105.33  1.1086120E-02
   7105.67  1.1817721E-02
   7106.00  1.2654389E-02
   7106.33  1.3639437E-02
   7106.67  1.4792763E-02
   7107.00  1.6156479E-02
   7107.33  1.7833593E-02
   7107.67  1.9888625E-02
   7108.00  2.2445490E-02
   7108.33  2.5813896E-02
   7108.67  3.0261163E-02
   7109.00  3.6289001E-02
   7109.33  4.5251377E-02
   7109.67  5.8818016E-02
   7110.00  8.0298202E-02
   7110.33  1.1921386E-01
   7110.67  1.8361160E-01
   7111.00  2.6375749E-01
   7111.33  3.0834526E-01
   7111.67  3.1520816E-01
   7112.00  3.0490566E-01
   7112.33  2.8181483E-01
   7112.67  2.5112565E-01
   7113.00  2.1554211E-01
   7113.33  1.7932501E-01
   7113.67  1.5442743E-01
   7114.00  1.4691949E-01
   7114.33  1.6109115E-01
   7114.67  1.8776087E-01
   7115.00  2.0257766E-01
   7115.33  1.8167754E-01
   7115.67  1.5134907E-01
   7116.00  1.2881627E-01
   7116.33  1.1686476E-01
   7116.67  1.1025564E-01
   7117.00  1.0595814E-01
   7117.33  1.0208930E-01
   7117.67  9.8638419E-02
   7118.00  9.6565131E-02
   7118.33  9.7068425E-02
   7118.67  1.0029014E-01
   7119.00  1.0623460E-01
   7119.33  1.1417913E-01
   7119.67  1.2123713E-01
   7120.00  1.2434033E-01
   7120.33  1.2197231E-01
   7120.67  1.1584580E-01
   7121.00  1.0714534E-01
   7121.33  9.8831218E-02
   7121.67  9.3251761E-02
   7122.00  9.0739537E-02
   7122.33  9.1209475E-02
   7122.67  9.3981670E-02
   7123.00  9.8909711E-02
   7123.33  1.0611160E-01
   7123.67  1.1515758E-01
   7124.00  1.2595470E-01
   7124.33  1.3897525E-01
   7124.67  1.5445174E-01
   7125.00  1.7238786E-01
   7125.33  1.9191285E-01
   7125.67  2.1182659E-01
   7126.00  2.3268202E-01
   7126.33  2.5642180E-01
   7126.67  2.8292677E-01
   7127.00  3.1037620E-01
   7127.33  3.3613476E-01
   7127.67  3.6027270E-01
   7128.00  3.8430582E-01
   7128.33  4.1001628E-01
   7128.67  4.3801748E-01
   7129.00  4.6896453E-01
   7129.33  5.0435242E-01
   7129.67  5.4352756E-01
   7130.00  5.8391848E-01
   7130.33  6.2039663E-01
   7130.67  6.5178262E-01
   7131.00  6.8115049E-01
   7131.33  7.1477483E-01
   7131.67  7.5730443E-01
   7132.00  8.1191186E-01
   7132.33  8.8085452E-01
   7132.67  9.5687625E-01
   7133.00  1.0300170E+00
   7133.33  1.0858389E+00
   7133.67  1.1171046E+00
   7134.00  1.1193836E+00
   7134.33  1.0901944E+00
   7134.67  1.0421003E+00
   7135.00  9.8552915E-01
   7135.33  9.2965422E-01
   7135.67  8.7860982E-01
   7136.00  8.3333007E-01
   7136.33  7.9421667E-01
   7136.67  7.5981679E-01
   7137.00  7.2940526E-01
   7137.33  7.0253506E-01
   7137.67  6.7798437E-01
   7138.00  6.5509115E-01
   7138.33  6.3340655E-01
   7138.67  6.1255383E-01
   7139.00  5.9259981E-01
   7139.33  5.7395147E-01
   7139.67  5.5679149E-01
   7140.00  5.4142221E-01
   7140.33  5.2851510E-01
   7140.67  5.1823861E-01
   7141.00  5.1095699E-01
   7141.33  5.0737352E-01
   7141.67  5.0713173E-01
   7142.00  5.1009380E-01
   7142.33  5.1633767E-01
   7142.67  5.2516767E-01
   7143.00  5.3629486E-01
   7143.33  5.4959307E-01
   7143.67  5.6436921E-01
   7144.00  5.8014125E-01
   7144.33  5.9628912E-01
   7144.67  6.1205318E-01
   7145.00  6.2683114E-01
   7145.33  6.3981029E-01
   7145.67  6.5073476E-01
   7146.00  6.5937197E-01
   7146.33  6.6535439E-01
   7146.67  6.6909882E-01
   7147.00  6.7082879E-01
   7147.33  6.7067683E-01
   7147.67  6.6922724E-01
   7148.00  6.6679632E-01
   7148.33  6.6361965E-01
   7148.67  6.6002782E-01
   7149.00  6.5617566E-01
   7149.33  6.5216167E-01
   7149.67  6.4805833E-01
   7150.00  6.4387422E-01
   7150.33  6.3957431E-01
   7150.67  6.3512679E-01
   7151.00  6.3048620E-01
   7151.33  6.2557406E-01
   7151.67  6.2038984E-01
   7152.00  6.1492652E-01
   7152.33  6.0916683E-01
   7152.67  6.0318376E-01
   7153.00  5.9702670E-01
   7153.33  5.9074742E-01
   7153.67  5.8442405E-01
   7154.00  5.7810556E-01
   7154.33  5.7184207E-01
   7154.67  5.6565775E-01
   7155.00  5.5957007E-01
   7155.33  5.5360610E-01
   7155.67  5.4775933E-01
   7156.00  5.4203111E-01
   7156.33  5.3643442E-01
   7156.67  5.3094918E-01
   7157.00  5.2556843E-01
   7157.33  5.2029518E-01
   7157.67  5.1511068E-01
   7158.00  5.1001527E-01
   7158.33  5.0503238E-01
   7158.67  5.0017090E-01
   7159.00  4.9545499E-01
   7159.33  4.9093649E-01
   7159.67  4.8661805E-01
   7160.00  4.8251092E-01
   7160.33  4.7863557E-01
   7160.67  4.7493573E-01
   7161.00  4.7136166E-01
   7161.33  4.6782848E-01
   7161.67  4.6421623E-01
   7162.00  4.6041447E-01
   7162.33  4.5625574E-01
   7162.67  4.5167322E-01
   7163.00  4.4660868E-01
   7163.33  4.4098406E-01
   7163.67  4.3490635E-01
   7164.00  4.2845730E-01
   7164.33  4.2173466E-01
   7164.67  4.1490955E-01
   7165.00  4.0809667E-01
   7165.33  4.0142376E-01
   7165.67  3.9495897E-01
   7166.00  3.8875140E-01
   7166.33  3.8287377E-01
   7166.67  3.7731259E-01
   7167.00  3.7208344E-01
   7167.33  3.6724757E-01
   7167.67  3.6278126E-01
   7168.00  3.5870216E-01
   7168.33  3.5507820E-01
   7168.67  3.5187231E-01
   7169.00  3.4909075E-01
   7169.33  3.4678486E-01
   7169.67  3.4489140E-01
   7170.00  3.4339572E-01
   7170.33  3.4232191E-01
   7170.67  3.4159335E-01
   7171.00  3.4117624E-01
   7171.33  3.4104557E-01
   7171.67  3.4107837E-01
   7172.00  3.4115916E-01
