    FDMNES
    energy     <xanes>
   7097.00  4.2946414E-03
   7097.33  4.3765087E-03
   7097.67  4.4612785E-03
   7098.00  4.5491100E-03
   7098.33  4.6406135E-03
   7098.67  4.7356034E-03
   7099.00  4.8342884E-03
   7099.33  4.9374314E-03
   7099.67  5.0448340E-03
   7100.00  5.1567777E-03
   7100.33  5.2742398E-03
   7100.67  5.3970164E-03
   7101.00  5.5254991E-03
   7101.33  5.6609794E-03
   7101.67  5.8032645E-03
   7102.00  5.9529225E-03
   7102.33  6.1117257E-03
   7102.67  6.2795335E-03
   7103.00  6.4572112E-03
   7103.33  6.6473119E-03
   7103.67  6.8498430E-03
   7104.00  7.0662055E-03
   7104.33  7.3003153E-03
   7104.67  7.5525635E-03
   7105.00  7.8254010E-03
   7105.33  8.1253447E-03
   7105.67  8.4537948E-03
   7106.00  8.8154918E-03
   7106.33  9.2225271E-03
   7106.67  9.6791671E-03
   7107.00  1.0195895E-02
   7107.33  1.0798755E-02
   7107.67  1.1501376E-02
   7108.00  1.2331718E-02
   7108.33  1.3359292E-02
   7108.67  1.4636056E-02
   7109.00  1.6260657E-02
   7109.33  1.8490687E-02
   7109.67  2.1603537E-02
   7110.00  2.6138110E-02
   7110.33  3.3655858E-02
   7110.67  4.6221713E-02
   7111.00  6.6667058E-02
   7111.33  9.6016045E-02
   7111.67  1.1695086E-01
   7112.00  1.1259907E-01
   7112.33  9.6838971E-02
   7112.67  8.7228702E-02
   7113.00  8.3334890E-02
   7113.33  8.3242584E-02
   7113.67  8.8047185E-02
   7114.00  9.3056056E-02
   7114.33  8.8395524E-02
   7114.67  8.1628097E-02
   7115.00  7.5446820E-02
   7115.33  6.6384659E-02
   7115.67  5.8510454E-02
   7116.00  5.4408847E-02
   7116.33  5.3812295E-02
   7116.67  5.4269863E-02
   7117.00  5.4393948E-02
   7117.33  5.4511858E-02
   7117.67  5.5572148E-02
   7118.00  5.7877510E-02
   7118.33  6.1619548E-02
   7118.67  6.6646240E-02
   7119.00  7.3021053E-02
   7119.33  8.1077750E-02
   7119.67  9.0849167E-02
   7120.00  1.0258198E-01
   7120.33  1.1691130E-01
   7120.67  1.3389743E-01
   7121.00  1.5377872E-01
   7121.33  1.7705981E-01
   7121.67  2.0311174E-01
   7122.00  2.3124265E-01
   7122.33  2.6031301E-01
   7122.67  2.8914840E-01
   7123.00  3.1763886E-01
   7123.33  3.4720363E-01
   7123.67  3.8025477E-01
   7124.00  4.1890883E-01
   7124.33  4.6530803E-01
   7124.67  5.1843597E-01
   7125.00  5.7705036E-01
   7125.33  6.3870204E-01
   7125.67  6.9856537E-01
   7126.00  7.5103451E-01
   7126.33  7.8608683E-01
   7126.67  8.0079146E-01
   7127.00  7.9916672E-01
   7127.33  7.9209022E-01
   7127.67  7.8716668E-01
   7128.00  7.8384912E-01
   7128.33  7.8055259E-01
   7128.67  7.7808706E-01
   7129.00  7.7723818E-01
   7129.33  7.7823311E-01
   7129.67  7.8051331E-01
   7130.00  7.8414102E-01
   7130.33  7.8966521E-01
   7130.67  7.9599263E-01
   7131.00  8.0144127E-01
   7131.33  8.0379601E-01
   7131.67  8.0229198E-01
   7132.00  7.9673951E-01
   7132.33  7.8728487E-01
   7132.67  7.7562728E-01
   7133.00  7.6347406E-01
   7133.33  7.5397891E-01
   7133.67  7.4835713E-01
   7134.00  7.4399662E-01
   7134.33  7.3686880E-01
   7134.67  7.2720782E-01
   7135.00  7.1627731E-01
   7135.33  7.0517824E-01
   7135.67  6.9436981E-01
   7136.00  6.8372586E-01
   7136.33  6.7264504E-01
   7136.67  6.6066468E-01
   7137.00  6.4776639E-01
   7137.33  6.3432017E-01
   7137.67  6.2090622E-01
   7138.00  6.0783490E-01
   7138.33  5.9536730E-01
   7138.67  5.8351694E-01
   7139.00  5.7230512E-01
   7139.33  5.6180793E-01
   7139.67  5.5192703E-01
   7140.00  5.4263919E-01
   7140.33  5.3398059E-01
   7140.67  5.2584241E-01
   7141.00  5.1818887E-01
   7141.33  5.1103215E-01
   7141.67  5.0427648E-01
   7142.00  4.9789287E-01
   7142.33  4.9190245E-01
   7142.67  4.8625716E-01
   7143.00  4.8097191E-01
   7143.33  4.7613666E-01
   7143.67  4.7176233E-01
   7144.00  4.6790128E-01
   7144.33  4.6463697E-01
   7144.67  4.6185482E-01
   7145.00  4.5946218E-01
   7145.33  4.5734468E-01
   7145.67  4.5533039E-01
   7146.00  4.5333111E-01
   7146.33  4.5129053E-01
   7146.67  4.4920784E-01
   7147.00  4.4710137E-01
   7147.33  4.4500369E-01
   7147.67  4.4294504E-01
   7148.00  4.4094673E-01
   7148.33  4.3903383E-01
   7148.67  4.3720260E-01
   7149.00  4.3545121E-01
   7149.33  4.3377981E-01
   7149.67  4.3216591E-01
   7150.00  4.3059591E-01
   7150.33  4.2905681E-01
   7150.67  4.2752932E-01
   7151.00  4.2600127E-01
   7151.33  4.2445958E-01
   7151.67  4.2289769E-01
   7152.00  4.2131121E-01
   7152.33  4.1969382E-01
   7152.67  4.1804774E-01
   7153.00  4.1637375E-01
   7153.33  4.1468171E-01
   7153.67  4.1300132E-01
   7154.00  4.1135270E-01
   7154.33  4.0975860E-01
   7154.67  4.0823141E-01
   7155.00  4.0678820E-01
   7155.33  4.0545503E-01
   7155.67  4.0422882E-01
   7156.00  4.0312356E-01
   7156.33  4.0217497E-01
   7156.67  4.0138141E-01
   7157.00  4.0075405E-01
   7157.33  4.0032505E-01
   7157.67  4.0008023E-01
   7158.00  4.0002412E-01
   7158.33  4.0018139E-01
   7158.67  4.0052501E-01
   7159.00  4.0105003E-01
   7159.33  4.0177007E-01
   7159.67  4.0265328E-01
   7160.00  4.0368910E-01
   7160.33  4.0487998E-01
   7160.67  4.0619124E-01
   7161.00  4.0760530E-01
   7161.33  4.0910876E-01
   7161.67  4.1066668E-01
   7162.00  4.1225735E-01
   7162.33  4.1385849E-01
   7162.67  4.1545020E-01
   7163.00  4.1702206E-01
   7163.33  4.1856505E-01
   7163.67  4.2007974E-01
   7164.00  4.2157106E-01
   7164.33  4.2305567E-01
   7164.67  4.2455757E-01
   7165.00  4.2609773E-01
   7165.33  4.2770648E-01
   7165.67  4.2939504E-01
   7166.00  4.3117570E-01
   7166.33  4.3307070E-01
   7166.67  4.3507156E-01
   7167.00  4.3717815E-01
   7167.33  4.3939982E-01
   7167.67  4.4171799E-01
   7168.00  4.4412667E-01
   7168.33  4.4662908E-01
   7168.67  4.4920798E-01
   7169.00  4.5185625E-01
   7169.33  4.5457001E-01
   7169.67  4.5732756E-01
   7170.00  4.6011305E-01
   7170.33  4.6290113E-01
   7170.67  4.6565658E-01
   7171.00  4.6834176E-01
   7171.33  4.7087222E-01
   7171.67  4.7314392E-01
   7172.00  4.7500423E-01
