    FDMNES
    energy     <xanes>
   7097.00  5.1276837E-03
   7097.33  5.2483525E-03
   7097.67  5.3744125E-03
   7098.00  5.5062236E-03
   7098.33  5.6450256E-03
   7098.67  5.7905569E-03
   7099.00  5.9433068E-03
   7099.33  6.1048914E-03
   7099.67  6.2750421E-03
   7100.00  6.4544417E-03
   7100.33  6.6452525E-03
   7100.67  6.8472225E-03
   7101.00  7.0613352E-03
   7101.33  7.2905740E-03
   7101.67  7.5347571E-03
   7102.00  7.7953544E-03
   7102.33  8.0766378E-03
   7102.67  8.3786150E-03
   7103.00  8.7035824E-03
   7103.33  9.0579408E-03
   7103.67  9.4421584E-03
   7104.00  9.8600245E-03
   7104.33  1.0321687E-02
   7104.67  1.0828723E-02
   7105.00  1.1387831E-02
   7105.33  1.2016305E-02
   7105.67  1.2718506E-02
   7106.00  1.3507378E-02
   7106.33  1.4415362E-02
   7106.67  1.5454439E-02
   7107.00  1.6652855E-02
   7107.33  1.8080115E-02
   7107.67  1.9772283E-02
   7108.00  2.1802777E-02
   7108.33  2.4352984E-02
   7108.67  2.7554770E-02
   7109.00  3.1658631E-02
   7109.33  3.7315449E-02
   7109.67  4.5211234E-02
   7110.00  5.6680014E-02
   7110.33  7.5558811E-02
   7110.67  1.0658251E-01
   7111.00  1.5446014E-01
   7111.33  2.1120827E-01
   7111.67  2.5398065E-01
   7112.00  2.8818050E-01
   7112.33  3.2404938E-01
   7112.67  3.4669686E-01
   7113.00  3.5900740E-01
   7113.33  3.6359996E-01
   7113.67  3.6063916E-01
   7114.00  3.4859622E-01
   7114.33  3.1849908E-01
   7114.67  2.7883730E-01
   7115.00  2.3998406E-01
   7115.33  2.0860023E-01
   7115.67  1.8402563E-01
   7116.00  1.6503500E-01
   7116.33  1.5088740E-01
   7116.67  1.4017954E-01
   7117.00  1.3237412E-01
   7117.33  1.2731175E-01
   7117.67  1.2437101E-01
   7118.00  1.2331711E-01
   7118.33  1.2401086E-01
   7118.67  1.2591048E-01
   7119.00  1.2889435E-01
   7119.33  1.3333646E-01
   7119.67  1.3941243E-01
   7120.00  1.4720091E-01
   7120.33  1.5668611E-01
   7120.67  1.6750976E-01
   7121.00  1.7973175E-01
   7121.33  1.9364619E-01
   7121.67  2.0901968E-01
   7122.00  2.2572036E-01
   7122.33  2.4378048E-01
   7122.67  2.6306908E-01
   7123.00  2.8367984E-01
   7123.33  3.0590277E-01
   7123.67  3.2958132E-01
   7124.00  3.5455149E-01
   7124.33  3.8034403E-01
   7124.67  4.0578239E-01
   7125.00  4.2951671E-01
   7125.33  4.4931432E-01
   7125.67  4.6417023E-01
   7126.00  4.7369224E-01
   7126.33  4.7822766E-01
   7126.67  4.8035590E-01
   7127.00  4.8211376E-01
   7127.33  4.8575153E-01
   7127.67  4.9229496E-01
   7128.00  5.0211962E-01
   7128.33  5.1543623E-01
   7128.67  5.3123087E-01
   7129.00  5.4879641E-01
   7129.33  5.6745343E-01
   7129.67  5.8655021E-01
   7130.00  6.0602715E-01
   7130.33  6.2649914E-01
   7130.67  6.4891373E-01
   7131.00  6.7445394E-01
   7131.33  7.0513888E-01
   7131.67  7.4172575E-01
   7132.00  7.8521915E-01
   7132.33  8.3769918E-01
   7132.67  8.9913675E-01
   7133.00  9.7002350E-01
   7133.33  1.0508388E+00
   7133.67  1.1372595E+00
   7134.00  1.2235071E+00
   7134.33  1.2981905E+00
   7134.67  1.3512130E+00
   7135.00  1.3747337E+00
   7135.33  1.3606964E+00
   7135.67  1.3160382E+00
   7136.00  1.2475230E+00
   7136.33  1.1637985E+00
   7136.67  1.0764645E+00
   7137.00  9.9196969E-01
   7137.33  9.1571366E-01
   7137.67  8.4852144E-01
   7138.00  7.9046636E-01
   7138.33  7.4182444E-01
   7138.67  7.0040643E-01
   7139.00  6.6519108E-01
   7139.33  6.3571886E-01
   7139.67  6.1040877E-01
   7140.00  5.8858259E-01
   7140.33  5.6993778E-01
   7140.67  5.5359835E-01
   7141.00  5.3920691E-01
   7141.33  5.2660424E-01
   7141.67  5.1528614E-01
   7142.00  5.0503083E-01
   7142.33  4.9572018E-01
   7142.67  4.8705458E-01
   7143.00  4.7888428E-01
   7143.33  4.7110060E-01
   7143.67  4.6354758E-01
   7144.00  4.5615281E-01
   7144.33  4.4885219E-01
   7144.67  4.4156933E-01
   7145.00  4.3425728E-01
   7145.33  4.2686507E-01
   7145.67  4.1937431E-01
   7146.00  4.1177339E-01
   7146.33  4.0404934E-01
   7146.67  3.9624455E-01
   7147.00  3.8840840E-01
   7147.33  3.8059605E-01
   7147.67  3.7285410E-01
   7148.00  3.6523088E-01
   7148.33  3.5780993E-01
   7148.67  3.5062998E-01
   7149.00  3.4373956E-01
   7149.33  3.3723021E-01
   7149.67  3.3110046E-01
   7150.00  3.2537758E-01
   7150.33  3.2013563E-01
   7150.67  3.1532915E-01
   7151.00  3.1095548E-01
   7151.33  3.0705409E-01
   7151.67  3.0355167E-01
   7152.00  3.0042643E-01
   7152.33  2.9769396E-01
   7152.67  2.9528204E-01
   7153.00  2.9316706E-01
   7153.33  2.9135708E-01
   7153.67  2.8979493E-01
   7154.00  2.8846296E-01
   7154.33  2.8736949E-01
   7154.67  2.8647263E-01
   7155.00  2.8576162E-01
   7155.33  2.8524871E-01
   7155.67  2.8490525E-01
   7156.00  2.8472870E-01
   7156.33  2.8474163E-01
   7156.67  2.8492986E-01
   7157.00  2.8530400E-01
   7157.33  2.8590788E-01
   7157.67  2.8673988E-01
   7158.00  2.8782250E-01
   7158.33  2.8921589E-01
   7158.67  2.9090900E-01
   7159.00  2.9291798E-01
   7159.33  2.9529463E-01
   7159.67  2.9799769E-01
   7160.00  3.0101646E-01
   7160.33  3.0436337E-01
   7160.67  3.0796737E-01
   7161.00  3.1179258E-01
   7161.33  3.1581570E-01
   7161.67  3.1996913E-01
   7162.00  3.2421568E-01
   7162.33  3.2852296E-01
   7162.67  3.3285099E-01
   7163.00  3.3717684E-01
   7163.33  3.4147833E-01
   7163.67  3.4574602E-01
   7164.00  3.4997449E-01
   7164.33  3.5415309E-01
   7164.67  3.5827819E-01
   7165.00  3.6234649E-01
   7165.33  3.6635585E-01
   7165.67  3.7031909E-01
   7166.00  3.7424134E-01
   7166.33  3.7812327E-01
   7166.67  3.8197361E-01
   7167.00  3.8579596E-01
   7167.33  3.8959188E-01
   7167.67  3.9336832E-01
   7168.00  3.9712796E-01
   7168.33  4.0087150E-01
   7168.67  4.0460220E-01
   7169.00  4.0831998E-01
   7169.33  4.1202135E-01
   7169.67  4.1570420E-01
   7170.00  4.1936239E-01
   7170.33  4.2297867E-01
   7170.67  4.2653404E-01
   7171.00  4.2999270E-01
   7171.33  4.3325647E-01
   7171.67  4.3619999E-01
   7172.00  4.3862642E-01
