    FDMNES
    energy     <xanes>
   7097.00  5.2975268E-03
   7097.33  5.4262022E-03
   7097.67  5.5608287E-03
   7098.00  5.7018106E-03
   7098.33  5.8505271E-03
   7098.67  6.0066973E-03
   7099.00  6.1708700E-03
   7099.33  6.3448458E-03
   7099.67  6.5283336E-03
   7100.00  6.7220972E-03
   7100.33  6.9285448E-03
   7100.67  7.1473990E-03
   7101.00  7.3797538E-03
   7101.33  7.6289229E-03
   7101.67  7.8946959E-03
   7102.00  8.1786935E-03
   7102.33  8.4856329E-03
   7102.67  8.8154872E-03
   7103.00  9.1707568E-03
   7103.33  9.5584384E-03
   7103.67  9.9789495E-03
   7104.00  1.0436343E-02
   7104.33  1.0941536E-02
   7104.67  1.1496001E-02
   7105.00  1.2106723E-02
   7105.33  1.2791876E-02
   7105.67  1.3555505E-02
   7106.00  1.4410663E-02
   7106.33  1.5390278E-02
   7106.67  1.6505195E-02
   7107.00  1.7782600E-02
   7107.33  1.9289639E-02
   7107.67  2.1057611E-02
   7108.00  2.3152858E-02
   7108.33  2.5738848E-02
   7108.67  2.8923349E-02
   7109.00  3.2914812E-02
   7109.33  3.8248307E-02
   7109.67  4.5445022E-02
   7110.00  5.5516315E-02
   7110.33  7.1302465E-02
   7110.67  9.5931574E-02
   7111.00  1.3178888E-01
   7111.33  1.7532138E-01
   7111.67  2.2272102E-01
   7112.00  2.7591409E-01
   7112.33  3.3333315E-01
   7112.67  4.0427494E-01
   7113.00  4.9939367E-01
   7113.33  5.9258501E-01
   7113.67  6.3121185E-01
   7114.00  5.9551490E-01
   7114.33  4.9521029E-01
   7114.67  3.8908834E-01
   7115.00  3.0724701E-01
   7115.33  2.5699254E-01
   7115.67  2.2861772E-01
   7116.00  2.1768903E-01
   7116.33  2.1988348E-01
   7116.67  2.2360516E-01
   7117.00  2.2119496E-01
   7117.33  2.0942869E-01
   7117.67  1.9244847E-01
   7118.00  1.7540001E-01
   7118.33  1.6237164E-01
   7118.67  1.5299874E-01
   7119.00  1.4628785E-01
   7119.33  1.4160491E-01
   7119.67  1.3835365E-01
   7120.00  1.3628542E-01
   7120.33  1.3489233E-01
   7120.67  1.3372562E-01
   7121.00  1.3307012E-01
   7121.33  1.3363697E-01
   7121.67  1.3582866E-01
   7122.00  1.4004050E-01
   7122.33  1.4673667E-01
   7122.67  1.5561504E-01
   7123.00  1.6665193E-01
   7123.33  1.8011108E-01
   7123.67  1.9563608E-01
   7124.00  2.1300416E-01
   7124.33  2.3191440E-01
   7124.67  2.5158476E-01
   7125.00  2.7153954E-01
   7125.33  2.9131812E-01
   7125.67  3.1041501E-01
   7126.00  3.2824729E-01
   7126.33  3.4417613E-01
   7126.67  3.5872348E-01
   7127.00  3.7262042E-01
   7127.33  3.8686412E-01
   7127.67  4.0245615E-01
   7128.00  4.2047063E-01
   7128.33  4.4282718E-01
   7128.67  4.7049574E-01
   7129.00  5.0460760E-01
   7129.33  5.4674354E-01
   7129.67  5.9499677E-01
   7130.00  6.4646337E-01
   7130.33  6.9576266E-01
   7130.67  7.3876524E-01
   7131.00  7.7465140E-01
   7131.33  8.0554740E-01
   7131.67  8.3591576E-01
   7132.00  8.6787548E-01
   7132.33  9.0182767E-01
   7132.67  9.3563657E-01
   7133.00  9.6626150E-01
   7133.33  9.8774287E-01
   7133.67  9.9567693E-01
   7134.00  9.8666824E-01
   7134.33  9.5789809E-01
   7134.67  9.1469289E-01
   7135.00  8.6150629E-01
   7135.33  8.0308707E-01
   7135.67  7.4429200E-01
   7136.00  6.8768978E-01
   7136.33  6.3573455E-01
   7136.67  5.8908119E-01
   7137.00  5.4835579E-01
   7137.33  5.1477505E-01
   7137.67  4.8765221E-01
   7138.00  4.6678379E-01
   7138.33  4.5225368E-01
   7138.67  4.4242497E-01
   7139.00  4.3641160E-01
   7139.33  4.3364182E-01
   7139.67  4.3306192E-01
   7140.00  4.3428437E-01
   7140.33  4.3722462E-01
   7140.67  4.4151591E-01
   7141.00  4.4702900E-01
   7141.33  4.5372998E-01
   7141.67  4.6128802E-01
   7142.00  4.6950592E-01
   7142.33  4.7818453E-01
   7142.67  4.8701531E-01
   7143.00  4.9578422E-01
   7143.33  5.0422793E-01
   7143.67  5.1219185E-01
   7144.00  5.1954811E-01
   7144.33  5.2610520E-01
   7144.67  5.3189733E-01
   7145.00  5.3690903E-01
   7145.33  5.4106061E-01
   7145.67  5.4450070E-01
   7146.00  5.4730060E-01
   7146.33  5.4950020E-01
   7146.67  5.5129066E-01
   7147.00  5.5278754E-01
   7147.33  5.5411082E-01
   7147.67  5.5541788E-01
   7148.00  5.5682214E-01
   7148.33  5.5847518E-01
   7148.67  5.6045659E-01
   7149.00  5.6283625E-01
   7149.33  5.6572630E-01
   7149.67  5.6909754E-01
   7150.00  5.7295108E-01
   7150.33  5.7732248E-01
   7150.67  5.8211124E-01
   7151.00  5.8726641E-01
   7151.33  5.9275221E-01
   7151.67  5.9844724E-01
   7152.00  6.0426936E-01
   7152.33  6.1011153E-01
   7152.67  6.1584767E-01
   7153.00  6.2136396E-01
   7153.33  6.2647995E-01
   7153.67  6.3110683E-01
   7154.00  6.3513908E-01
   7154.33  6.3838613E-01
   7154.67  6.4086083E-01
   7155.00  6.4252635E-01
   7155.33  6.4326991E-01
   7155.67  6.4321542E-01
   7156.00  6.4240178E-01
   7156.33  6.4080374E-01
   7156.67  6.3858074E-01
   7157.00  6.3579843E-01
   7157.33  6.3247358E-01
   7157.67  6.2874196E-01
   7158.00  6.2466624E-01
   7158.33  6.2028196E-01
   7158.67  6.1568985E-01
   7159.00  6.1094358E-01
   7159.33  6.0608754E-01
   7159.67  6.0118178E-01
   7160.00  5.9625901E-01
   7160.33  5.9134784E-01
   7160.67  5.8646076E-01
   7161.00  5.8159969E-01
   7161.33  5.7676246E-01
   7161.67  5.7193572E-01
   7162.00  5.6710476E-01
   7162.33  5.6224730E-01
   7162.67  5.5735120E-01
   7163.00  5.5240650E-01
   7163.33  5.4739784E-01
   7163.67  5.4232890E-01
   7164.00  5.3720085E-01
   7164.33  5.3201329E-01
   7164.67  5.2678410E-01
   7165.00  5.2152676E-01
   7165.33  5.1625985E-01
   7165.67  5.1100614E-01
   7166.00  5.0578420E-01
   7166.33  5.0062052E-01
   7166.67  4.9552569E-01
   7167.00  4.9051099E-01
   7167.33  4.8559685E-01
   7167.67  4.8077904E-01
   7168.00  4.7606242E-01
   7168.33  4.7146178E-01
   7168.67  4.6696282E-01
   7169.00  4.6256325E-01
   7169.33  4.5827235E-01
   7169.67  4.5407793E-01
   7170.00  4.4998306E-01
   7170.33  4.4601015E-01
   7170.67  4.4216555E-01
   7171.00  4.3848199E-01
   7171.33  4.3506030E-01
   7171.67  4.3200832E-01
   7172.00  4.2950625E-01
