    FDMNES
    energy     <xanes>
   7097.00  4.5042574E-03
   7097.33  4.5948580E-03
   7097.67  4.6889825E-03
   7098.00  4.7868452E-03
   7098.33  4.8892223E-03
   7098.67  4.9959164E-03
   7099.00  5.1072154E-03
   7099.33  5.2241135E-03
   7099.67  5.3464048E-03
   7100.00  5.4744872E-03
   7100.33  5.6096688E-03
   7100.67  5.7517492E-03
   7101.00  5.9012970E-03
   7101.33  6.0600914E-03
   7101.67  6.2279689E-03
   7102.00  6.4057760E-03
   7102.33  6.5960324E-03
   7102.67  6.7986832E-03
   7103.00  7.0150527E-03
   7103.33  7.2488932E-03
   7103.67  7.5004262E-03
   7104.00  7.7718536E-03
   7104.33  8.0691299E-03
   7104.67  8.3931640E-03
   7105.00  8.7479105E-03
   7105.33  9.1436258E-03
   7105.67  9.5830035E-03
   7106.00  1.0073894E-02
   7106.33  1.0635995E-02
   7106.67  1.1277089E-02
   7107.00  1.2015023E-02
   7107.33  1.2893781E-02
   7107.67  1.3938094E-02
   7108.00  1.5197229E-02
   7108.33  1.6793792E-02
   7108.67  1.8824878E-02
   7109.00  2.1473902E-02
   7109.33  2.5226736E-02
   7109.67  3.0640129E-02
   7110.00  3.8808133E-02
   7110.33  5.2906075E-02
   7110.67  7.6478750E-02
   7111.00  1.1063347E-01
   7111.33  1.4248516E-01
   7111.67  1.5842323E-01
   7112.00  1.6068736E-01
   7112.33  1.5902984E-01
   7112.67  1.5865456E-01
   7113.00  1.5897877E-01
   7113.33  1.5595111E-01
   7113.67  1.4916415E-01
   7114.00  1.4038281E-01
   7114.33  1.2239466E-01
   7114.67  9.7669679E-02
   7115.00  7.8556007E-02
   7115.33  6.8766990E-02
   7115.67  6.4107453E-02
   7116.00  6.1993979E-02
   7116.33  6.0184316E-02
   7116.67  5.8266336E-02
   7117.00  5.7162221E-02
   7117.33  5.7877798E-02
   7117.67  6.0467014E-02
   7118.00  6.5092308E-02
   7118.33  7.2437303E-02
   7118.67  8.2805794E-02
   7119.00  9.6727377E-02
   7119.33  1.1470614E-01
   7119.67  1.3488382E-01
   7120.00  1.5476301E-01
   7120.33  1.7098394E-01
   7120.67  1.8276812E-01
   7121.00  1.9095097E-01
   7121.33  1.9771550E-01
   7121.67  2.0558006E-01
   7122.00  2.1603067E-01
   7122.33  2.3079684E-01
   7122.67  2.5024617E-01
   7123.00  2.7458379E-01
   7123.33  3.0373052E-01
   7123.67  3.3596957E-01
   7124.00  3.7055258E-01
   7124.33  4.0788809E-01
   7124.67  4.4885210E-01
   7125.00  4.9468122E-01
   7125.33  5.4500912E-01
   7125.67  5.9467511E-01
   7126.00  6.3864721E-01
   7126.33  6.7093586E-01
   7126.67  6.9016786E-01
   7127.00  6.9592767E-01
   7127.33  6.8919405E-01
   7127.67  6.7668001E-01
   7128.00  6.6324419E-01
   7128.33  6.5333636E-01
   7128.67  6.4847964E-01
   7129.00  6.4900966E-01
   7129.33  6.5546233E-01
   7129.67  6.6666348E-01
   7130.00  6.8153595E-01
   7130.33  6.9825760E-01
   7130.67  7.1440552E-01
   7131.00  7.2868214E-01
   7131.33  7.4057087E-01
   7131.67  7.5116718E-01
   7132.00  7.6131189E-01
   7132.33  7.7109626E-01
   7132.67  7.7927958E-01
   7133.00  7.8402495E-01
   7133.33  7.8315200E-01
   7133.67  7.7747496E-01
   7134.00  7.6827339E-01
   7134.33  7.5668274E-01
   7134.67  7.4351666E-01
   7135.00  7.2900555E-01
   7135.33  7.1369548E-01
   7135.67  6.9852314E-01
   7136.00  6.8402469E-01
   7136.33  6.7059014E-01
   7136.67  6.5810362E-01
   7137.00  6.4646607E-01
   7137.33  6.3563060E-01
   7137.67  6.2538957E-01
   7138.00  6.1566299E-01
   7138.33  6.0643509E-01
   7138.67  5.9759925E-01
   7139.00  5.8912608E-01
   7139.33  5.8104144E-01
   7139.67  5.7330572E-01
   7140.00  5.6593945E-01
   7140.33  5.5903402E-01
   7140.67  5.5258885E-01
   7141.00  5.4664865E-01
   7141.33  5.4132597E-01
   7141.67  5.3657960E-01
   7142.00  5.3241585E-01
   7142.33  5.2889038E-01
   7142.67  5.2589474E-01
   7143.00  5.2338670E-01
   7143.33  5.2137477E-01
   7143.67  5.1977217E-01
   7144.00  5.1857335E-01
   7144.33  5.1786767E-01
   7144.67  5.1769471E-01
   7145.00  5.1817278E-01
   7145.33  5.1955444E-01
   7145.67  5.2186850E-01
   7146.00  5.2516425E-01
   7146.33  5.2949828E-01
   7146.67  5.3455867E-01
   7147.00  5.4008584E-01
   7147.33  5.4573321E-01
   7147.67  5.5111987E-01
   7148.00  5.5595859E-01
   7148.33  5.5986869E-01
   7148.67  5.6274764E-01
   7149.00  5.6447684E-01
   7149.33  5.6482736E-01
   7149.67  5.6393660E-01
   7150.00  5.6183421E-01
   7150.33  5.5845441E-01
   7150.67  5.5404720E-01
   7151.00  5.4872019E-01
   7151.33  5.4250616E-01
   7151.67  5.3563475E-01
   7152.00  5.2821641E-01
   7152.33  5.2031700E-01
   7152.67  5.1209553E-01
   7153.00  5.0362274E-01
   7153.33  4.9493553E-01
   7153.67  4.8610703E-01
   7154.00  4.7717114E-01
   7154.33  4.6814869E-01
   7154.67  4.5908016E-01
   7155.00  4.5000053E-01
   7155.33  4.4095185E-01
   7155.67  4.3196474E-01
   7156.00  4.2307455E-01
   7156.33  4.1435164E-01
   7156.67  4.0584093E-01
   7157.00  3.9760571E-01
   7157.33  3.8976837E-01
   7157.67  3.8236116E-01
   7158.00  3.7544437E-01
   7158.33  3.6914602E-01
   7158.67  3.6344081E-01
   7159.00  3.5835343E-01
   7159.33  3.5398487E-01
   7159.67  3.5027021E-01
   7160.00  3.4721769E-01
   7160.33  3.4491620E-01
   7160.67  3.4328577E-01
   7161.00  3.4232935E-01
   7161.33  3.4213681E-01
   7161.67  3.4262956E-01
   7162.00  3.4381343E-01
   7162.33  3.4578170E-01
   7162.67  3.4844891E-01
   7163.00  3.5180994E-01
   7163.33  3.5592966E-01
   7163.67  3.6067545E-01
   7164.00  3.6599491E-01
   7164.33  3.7189049E-01
   7164.67  3.7822447E-01
   7165.00  3.8492245E-01
   7165.33  3.9192481E-01
   7165.67  3.9910378E-01
   7166.00  4.0638290E-01
   7166.33  4.1368587E-01
   7166.67  4.2094429E-01
   7167.00  4.2811211E-01
   7167.33  4.3512937E-01
   7167.67  4.4197740E-01
   7168.00  4.4862985E-01
   7168.33  4.5503155E-01
   7168.67  4.6118466E-01
   7169.00  4.6706752E-01
   7169.33  4.7261871E-01
   7169.67  4.7785144E-01
   7170.00  4.8274652E-01
   7170.33  4.8723955E-01
   7170.67  4.9135829E-01
   7171.00  4.9508519E-01
   7171.33  4.9833314E-01
   7171.67  5.0109272E-01
   7172.00  5.0328425E-01
