    FDMNES
    energy     <xanes>
   7097.00  5.2914930E-03
   7097.33  5.4190190E-03
   7097.67  5.5524760E-03
   7098.00  5.6922738E-03
   7098.33  5.8397987E-03
   7098.67  5.9947813E-03
   7099.00  6.1577819E-03
   7099.33  6.3306218E-03
   7099.67  6.5130276E-03
   7100.00  6.7057862E-03
   7100.33  6.9113535E-03
   7100.67  7.1294812E-03
   7101.00  7.3613094E-03
   7101.33  7.6102525E-03
   7101.67  7.8761528E-03
   7102.00  8.1607234E-03
   7102.33  8.4688907E-03
   7102.67  8.8007307E-03
   7103.00  9.1589346E-03
   7103.33  9.5509382E-03
   7103.67  9.9773778E-03
   7104.00  1.0442718E-02
   7104.33  1.0958833E-02
   7104.67  1.1527702E-02
   7105.00  1.2157259E-02
   7105.33  1.2867898E-02
   7105.67  1.3664968E-02
   7106.00  1.4563911E-02
   7106.33  1.5603311E-02
   7106.67  1.6797831E-02
   7107.00  1.8181516E-02
   7107.33  1.9838067E-02
   7107.67  2.1812133E-02
   7108.00  2.4193894E-02
   7108.33  2.7206904E-02
   7108.67  3.1019598E-02
   7109.00  3.5952315E-02
   7109.33  4.2848470E-02
   7109.67  5.2643775E-02
   7110.00  6.7175438E-02
   7110.33  9.1686521E-02
   7110.67  1.3128067E-01
   7111.00  1.8504569E-01
   7111.33  2.3302947E-01
   7111.67  2.7040490E-01
   7112.00  3.0750086E-01
   7112.33  3.4687241E-01
   7112.67  3.9359622E-01
   7113.00  4.5268146E-01
   7113.33  5.0567393E-01
   7113.67  5.0624568E-01
   7114.00  4.4358606E-01
   7114.33  3.6475266E-01
   7114.67  3.0390762E-01
   7115.00  2.6340256E-01
   7115.33  2.3993196E-01
   7115.67  2.2555632E-01
   7116.00  2.1464058E-01
   7116.33  2.0011761E-01
   7116.67  1.7989127E-01
   7117.00  1.5778536E-01
   7117.33  1.4041972E-01
   7117.67  1.2973358E-01
   7118.00  1.2564172E-01
   7118.33  1.2807630E-01
   7118.67  1.3470318E-01
   7119.00  1.4261255E-01
   7119.33  1.4758336E-01
   7119.67  1.4953873E-01
   7120.00  1.5016702E-01
   7120.33  1.5039007E-01
   7120.67  1.5134747E-01
   7121.00  1.5414474E-01
   7121.33  1.5849791E-01
   7121.67  1.6349436E-01
   7122.00  1.7006886E-01
   7122.33  1.8037793E-01
   7122.67  1.9391916E-01
   7123.00  2.0901796E-01
   7123.33  2.2341512E-01
   7123.67  2.3658898E-01
   7124.00  2.4935367E-01
   7124.33  2.6248007E-01
   7124.67  2.7560998E-01
   7125.00  2.8835375E-01
   7125.33  3.0096081E-01
   7125.67  3.1413632E-01
   7126.00  3.2814990E-01
   7126.33  3.4286683E-01
   7126.67  3.5823339E-01
   7127.00  3.7501579E-01
   7127.33  3.9508588E-01
   7127.67  4.1958717E-01
   7128.00  4.4922561E-01
   7128.33  4.8389625E-01
   7128.67  5.2038398E-01
   7129.00  5.5561745E-01
   7129.33  5.8659271E-01
   7129.67  6.1364747E-01
   7130.00  6.3840672E-01
   7130.33  6.6356508E-01
   7130.67  6.9122596E-01
   7131.00  7.2229003E-01
   7131.33  7.5718220E-01
   7131.67  7.9455050E-01
   7132.00  8.3286177E-01
   7132.33  8.6937048E-01
   7132.67  9.0160995E-01
   7133.00  9.2800471E-01
   7133.33  9.4715731E-01
   7133.67  9.5990482E-01
   7134.00  9.6583562E-01
   7134.33  9.6243533E-01
   7134.67  9.4900069E-01
   7135.00  9.2503205E-01
   7135.33  8.9082427E-01
   7135.67  8.5057302E-01
   7136.00  8.0718445E-01
   7136.33  7.6340272E-01
   7136.67  7.2117948E-01
   7137.00  6.8158861E-01
   7137.33  6.4590232E-01
   7137.67  6.1423908E-01
   7138.00  5.8689784E-01
   7138.33  5.6459563E-01
   7138.67  5.4672744E-01
   7139.00  5.3309455E-01
   7139.33  5.2379346E-01
   7139.67  5.1787415E-01
   7140.00  5.1492698E-01
   7140.33  5.1483060E-01
   7140.67  5.1688505E-01
   7141.00  5.2077944E-01
   7141.33  5.2628168E-01
   7141.67  5.3267291E-01
   7142.00  5.3935297E-01
   7142.33  5.4543902E-01
   7142.67  5.5020147E-01
   7143.00  5.5313308E-01
   7143.33  5.5373310E-01
   7143.67  5.5240549E-01
   7144.00  5.4948988E-01
   7144.33  5.4532851E-01
   7144.67  5.4049772E-01
   7145.00  5.3528947E-01
   7145.33  5.2993413E-01
   7145.67  5.2462407E-01
   7146.00  5.1947004E-01
   7146.33  5.1461084E-01
   7146.67  5.1012398E-01
   7147.00  5.0610828E-01
   7147.33  5.0274017E-01
   7147.67  5.0002600E-01
   7148.00  4.9800450E-01
   7148.33  4.9677184E-01
   7148.67  4.9621121E-01
   7149.00  4.9627196E-01
   7149.33  4.9694237E-01
   7149.67  4.9806463E-01
   7150.00  4.9956103E-01
   7150.33  5.0138527E-01
   7150.67  5.0343347E-01
   7151.00  5.0566351E-01
   7151.33  5.0806515E-01
   7151.67  5.1060900E-01
   7152.00  5.1329755E-01
   7152.33  5.1615933E-01
   7152.67  5.1918248E-01
   7153.00  5.2236578E-01
   7153.33  5.2571220E-01
   7153.67  5.2916987E-01
   7154.00  5.3269656E-01
   7154.33  5.3623650E-01
   7154.67  5.3972730E-01
   7155.00  5.4311583E-01
   7155.33  5.4632036E-01
   7155.67  5.4930069E-01
   7156.00  5.5200494E-01
   7156.33  5.5433121E-01
   7156.67  5.5626253E-01
   7157.00  5.5774968E-01
   7157.33  5.5867546E-01
   7157.67  5.5905107E-01
   7158.00  5.5883640E-01
   7158.33  5.5791203E-01
   7158.67  5.5632547E-01
   7159.00  5.5405984E-01
   7159.33  5.5102603E-01
   7159.67  5.4732824E-01
   7160.00  5.4300026E-01
   7160.33  5.3803358E-01
   7160.67  5.3258743E-01
   7161.00  5.2675087E-01
   7161.33  5.2060631E-01
   7161.67  5.1431556E-01
   7162.00  5.0799266E-01
   7162.33  5.0177933E-01
   7162.67  4.9577808E-01
   7163.00  4.9007738E-01
   7163.33  4.8481741E-01
   7163.67  4.8002031E-01
   7164.00  4.7573000E-01
   7164.33  4.7204569E-01
   7164.67  4.6891288E-01
   7165.00  4.6632999E-01
   7165.33  4.6434975E-01
   7165.67  4.6287914E-01
   7166.00  4.6188800E-01
   7166.33  4.6138856E-01
   7166.67  4.6127644E-01
   7167.00  4.6150309E-01
   7167.33  4.6204065E-01
   7167.67  4.6278671E-01
   7168.00  4.6367900E-01
   7168.33  4.6464923E-01
   7168.67  4.6560959E-01
   7169.00  4.6649439E-01
   7169.33  4.6721135E-01
   7169.67  4.6771178E-01
   7170.00  4.6794887E-01
   7170.33  4.6784950E-01
   7170.67  4.6744321E-01
   7171.00  4.6675236E-01
   7171.33  4.6582116E-01
   7171.67  4.6481251E-01
   7172.00  4.6389891E-01
