    FDMNES
    energy     <xanes>
   7097.00  5.1375389E-03
   7097.33  5.2581427E-03
   7097.67  5.3841451E-03
   7098.00  5.5159039E-03
   7098.33  5.6546556E-03
   7098.67  5.8001335E-03
   7099.00  5.9528214E-03
   7099.33  6.1143244E-03
   7099.67  6.2843644E-03
   7100.00  6.4636114E-03
   7100.33  6.6542006E-03
   7100.67  6.8558620E-03
   7101.00  7.0695514E-03
   7101.33  7.2981911E-03
   7101.67  7.5415647E-03
   7102.00  7.8010831E-03
   7102.33  8.0808854E-03
   7102.67  8.3809094E-03
   7103.00  8.7033255E-03
   7103.33  9.0542470E-03
   7103.67  9.4339922E-03
   7104.00  9.8460746E-03
   7104.33  1.0300006E-02
   7104.67  1.0797020E-02
   7105.00  1.1343180E-02
   7105.33  1.1954310E-02
   7105.67  1.2633910E-02
   7106.00  1.3393363E-02
   7106.33  1.4261441E-02
   7106.67  1.5247729E-02
   7107.00  1.6376188E-02
   7107.33  1.7706087E-02
   7107.67  1.9265724E-02
   7108.00  2.1114726E-02
   7108.33  2.3400426E-02
   7108.67  2.6223202E-02
   7109.00  2.9776591E-02
   7109.33  3.4560794E-02
   7109.67  4.1080445E-02
   7110.00  5.0316671E-02
   7110.33  6.5030281E-02
   7110.67  8.8138086E-02
   7111.00  1.2123896E-01
   7111.33  1.6146921E-01
   7111.67  2.1145489E-01
   7112.00  2.7163653E-01
   7112.33  3.0656140E-01
   7112.67  3.0536136E-01
   7113.00  2.9873715E-01
   7113.33  3.2022544E-01
   7113.67  3.7068596E-01
   7114.00  4.3217157E-01
   7114.33  4.6694910E-01
   7114.67  4.4187269E-01
   7115.00  3.8000228E-01
   7115.33  3.3746126E-01
   7115.67  3.2734032E-01
   7116.00  3.3513765E-01
   7116.33  3.2152880E-01
   7116.67  2.8024382E-01
   7117.00  2.3535834E-01
   7117.33  2.0389547E-01
   7117.67  1.8327707E-01
   7118.00  1.7026912E-01
   7118.33  1.6276463E-01
   7118.67  1.5740472E-01
   7119.00  1.5218406E-01
   7119.33  1.4709973E-01
   7119.67  1.4369431E-01
   7120.00  1.4292535E-01
   7120.33  1.4467294E-01
   7120.67  1.4705785E-01
   7121.00  1.4903416E-01
   7121.33  1.5011871E-01
   7121.67  1.5084940E-01
   7122.00  1.5197616E-01
   7122.33  1.5410793E-01
   7122.67  1.5751956E-01
   7123.00  1.6313829E-01
   7123.33  1.7302846E-01
   7123.67  1.8769879E-01
   7124.00  2.0694519E-01
   7124.33  2.3017372E-01
   7124.67  2.5585349E-01
   7125.00  2.8328267E-01
   7125.33  3.1177301E-01
   7125.67  3.4024104E-01
   7126.00  3.6800136E-01
   7126.33  3.9473935E-01
   7126.67  4.2067349E-01
   7127.00  4.4550511E-01
   7127.33  4.6810188E-01
   7127.67  4.8759802E-01
   7128.00  5.0339684E-01
   7128.33  5.1589357E-01
   7128.67  5.2742133E-01
   7129.00  5.3931865E-01
   7129.33  5.5212905E-01
   7129.67  5.6574165E-01
   7130.00  5.8031934E-01
   7130.33  5.9640443E-01
   7130.67  6.1422078E-01
   7131.00  6.3393134E-01
   7131.33  6.5574736E-01
   7131.67  6.7940209E-01
   7132.00  7.0486705E-01
   7132.33  7.3192117E-01
   7132.67  7.5913669E-01
   7133.00  7.8465348E-01
   7133.33  8.0529342E-01
   7133.67  8.1939301E-01
   7134.00  8.2610473E-01
   7134.33  8.2497363E-01
   7134.67  8.1817908E-01
   7135.00  8.0687200E-01
   7135.33  7.9152883E-01
   7135.67  7.7312780E-01
   7136.00  7.5203255E-01
   7136.33  7.2857279E-01
   7136.67  7.0393903E-01
   7137.00  6.7915632E-01
   7137.33  6.5560968E-01
   7137.67  6.3423126E-01
   7138.00  6.1563762E-01
   7138.33  6.0050058E-01
   7138.67  5.8832618E-01
   7139.00  5.7882320E-01
   7139.33  5.7186641E-01
   7139.67  5.6681818E-01
   7140.00  5.6346867E-01
   7140.33  5.6187588E-01
   7140.67  5.6177947E-01
   7141.00  5.6313921E-01
   7141.33  5.6605713E-01
   7141.67  5.7022395E-01
   7142.00  5.7543435E-01
   7142.33  5.8138557E-01
   7142.67  5.8744754E-01
   7143.00  5.9305876E-01
   7143.33  5.9739981E-01
   7143.67  6.0005131E-01
   7144.00  6.0073930E-01
   7144.33  5.9917167E-01
   7144.67  5.9580693E-01
   7145.00  5.9095341E-01
   7145.33  5.8490295E-01
   7145.67  5.7821565E-01
   7146.00  5.7122631E-01
   7146.33  5.6427602E-01
   7146.67  5.5763817E-01
   7147.00  5.5150814E-01
   7147.33  5.4615660E-01
   7147.67  5.4164047E-01
   7148.00  5.3805316E-01
   7148.33  5.3559458E-01
   7148.67  5.3417481E-01
   7149.00  5.3378972E-01
   7149.33  5.3451129E-01
   7149.67  5.3611266E-01
   7150.00  5.3846416E-01
   7150.33  5.4144590E-01
   7150.67  5.4477277E-01
   7151.00  5.4825465E-01
   7151.33  5.5168038E-01
   7151.67  5.5489229E-01
   7152.00  5.5779294E-01
   7152.33  5.6026974E-01
   7152.67  5.6234738E-01
   7153.00  5.6403509E-01
   7153.33  5.6532847E-01
   7153.67  5.6633204E-01
   7154.00  5.6710503E-01
   7154.33  5.6769256E-01
   7154.67  5.6816586E-01
   7155.00  5.6854921E-01
   7155.33  5.6883484E-01
   7155.67  5.6901290E-01
   7156.00  5.6905223E-01
   7156.33  5.6888751E-01
   7156.67  5.6850125E-01
   7157.00  5.6786740E-01
   7157.33  5.6693801E-01
   7157.67  5.6574878E-01
   7158.00  5.6431536E-01
   7158.33  5.6264120E-01
   7158.67  5.6079099E-01
   7159.00  5.5879927E-01
   7159.33  5.5669170E-01
   7159.67  5.5451514E-01
   7160.00  5.5229434E-01
   7160.33  5.5005426E-01
   7160.67  5.4782156E-01
   7161.00  5.4560987E-01
   7161.33  5.4343329E-01
   7161.67  5.4129422E-01
   7162.00  5.3919424E-01
   7162.33  5.3713272E-01
   7162.67  5.3509197E-01
   7163.00  5.3305445E-01
   7163.33  5.3098985E-01
   7163.67  5.2886518E-01
   7164.00  5.2664255E-01
   7164.33  5.2425054E-01
   7164.67  5.2165228E-01
   7165.00  5.1880926E-01
   7165.33  5.1565539E-01
   7165.67  5.1220907E-01
   7166.00  5.0847037E-01
   7166.33  5.0442233E-01
   7166.67  5.0013378E-01
   7167.00  4.9564432E-01
   7167.33  4.9098835E-01
   7167.67  4.8624126E-01
   7168.00  4.8145217E-01
   7168.33  4.7667672E-01
   7168.67  4.7196345E-01
   7169.00  4.6735205E-01
   7169.33  4.6289928E-01
   7169.67  4.5861881E-01
   7170.00  4.5453474E-01
   7170.33  4.5070169E-01
   7170.67  4.4711965E-01
   7171.00  4.4381718E-01
   7171.33  4.4088249E-01
   7171.67  4.3835408E-01
   7172.00  4.3633018E-01
