    FDMNES
    energy     <xanes>
   7097.00  4.4445410E-03
   7097.33  4.5331874E-03
   7097.67  4.6251307E-03
   7098.00  4.7205590E-03
   7098.33  4.8201781E-03
   7098.67  4.9237868E-03
   7099.00  5.0316342E-03
   7099.33  5.1446101E-03
   7099.67  5.2625010E-03
   7100.00  5.3856455E-03
   7100.33  5.5151950E-03
   7100.67  5.6509329E-03
   7101.00  5.7933356E-03
   7101.33  5.9439403E-03
   7101.67  6.1025511E-03
   7102.00  6.2698654E-03
   7102.33  6.4480191E-03
   7102.67  6.6368907E-03
   7103.00  6.8375546E-03
   7103.33  7.0531301E-03
   7103.67  7.2836983E-03
   7104.00  7.5310211E-03
   7104.33  7.7999561E-03
   7104.67  8.0911029E-03
   7105.00  8.4075888E-03
   7105.33  8.7576388E-03
   7105.67  9.1432153E-03
   7106.00  9.5704667E-03
   7106.33  1.0054957E-02
   7106.67  1.0602548E-02
   7107.00  1.1227098E-02
   7107.33  1.1962911E-02
   7107.67  1.2828778E-02
   7108.00  1.3862573E-02
   7108.33  1.5158567E-02
   7108.67  1.6790039E-02
   7109.00  1.8895702E-02
   7109.33  2.1841526E-02
   7109.67  2.6039267E-02
   7110.00  3.2293247E-02
   7110.33  4.2885821E-02
   7110.67  5.9992583E-02
   7111.00  8.3367304E-02
   7111.33  1.1001788E-01
   7111.67  1.4730600E-01
   7112.00  1.7909330E-01
   7112.33  1.5536967E-01
   7112.67  1.1747776E-01
   7113.00  9.0908639E-02
   7113.33  7.5725213E-02
   7113.67  6.7198283E-02
   7114.00  6.2318074E-02
   7114.33  5.6382892E-02
   7114.67  5.0065214E-02
   7115.00  4.5546451E-02
   7115.33  4.3386358E-02
   7115.67  4.2770615E-02
   7116.00  4.3342311E-02
   7116.33  4.5008801E-02
   7116.67  4.7588311E-02
   7117.00  5.1119350E-02
   7117.33  5.5866765E-02
   7117.67  6.1911314E-02
   7118.00  6.9513547E-02
   7118.33  7.9316658E-02
   7118.67  9.1551685E-02
   7119.00  1.0659791E-01
   7119.33  1.2498622E-01
   7119.67  1.4598759E-01
   7120.00  1.6910296E-01
   7120.33  1.9463282E-01
   7120.67  2.2353966E-01
   7121.00  2.5764521E-01
   7121.33  3.0035706E-01
   7121.67  3.5287607E-01
   7122.00  4.1610961E-01
   7122.33  4.8987435E-01
   7122.67  5.6744691E-01
   7123.00  6.4037336E-01
   7123.33  6.9602921E-01
   7123.67  7.3152895E-01
   7124.00  7.5007825E-01
   7124.33  7.5821344E-01
   7124.67  7.6231971E-01
   7125.00  7.6280345E-01
   7125.33  7.5646314E-01
   7125.67  7.4216161E-01
   7126.00  7.2081250E-01
   7126.33  6.9566491E-01
   7126.67  6.7129148E-01
   7127.00  6.5023539E-01
   7127.33  6.3448456E-01
   7127.67  6.2354103E-01
   7128.00  6.1683901E-01
   7128.33  6.1373735E-01
   7128.67  6.1270120E-01
   7129.00  6.1293284E-01
   7129.33  6.1400138E-01
   7129.67  6.1560537E-01
   7130.00  6.1748922E-01
   7130.33  6.1889891E-01
   7130.67  6.1892567E-01
   7131.00  6.1706920E-01
   7131.33  6.1371740E-01
   7131.67  6.1074970E-01
   7132.00  6.0966418E-01
   7132.33  6.1142451E-01
   7132.67  6.1493054E-01
   7133.00  6.1875648E-01
   7133.33  6.2100557E-01
   7133.67  6.2084152E-01
   7134.00  6.1821711E-01
   7134.33  6.1352925E-01
   7134.67  6.0783972E-01
   7135.00  6.0172593E-01
   7135.33  5.9558975E-01
   7135.67  5.8960273E-01
   7136.00  5.8380271E-01
   7136.33  5.7821365E-01
   7136.67  5.7281372E-01
   7137.00  5.6762046E-01
   7137.33  5.6270251E-01
   7137.67  5.5807649E-01
   7138.00  5.5378068E-01
   7138.33  5.4989168E-01
   7138.67  5.4637443E-01
   7139.00  5.4321780E-01
   7139.33  5.4042367E-01
   7139.67  5.3788327E-01
   7140.00  5.3551957E-01
   7140.33  5.3324906E-01
   7140.67  5.3097258E-01
   7141.00  5.2862060E-01
   7141.33  5.2610403E-01
   7141.67  5.2338370E-01
   7142.00  5.2042213E-01
   7142.33  5.1715717E-01
   7142.67  5.1361221E-01
   7143.00  5.0979252E-01
   7143.33  5.0568742E-01
   7143.67  5.0136413E-01
   7144.00  4.9686342E-01
   7144.33  4.9222790E-01
   7144.67  4.8753956E-01
   7145.00  4.8286262E-01
   7145.33  4.7828931E-01
   7145.67  4.7389329E-01
   7146.00  4.6974927E-01
   7146.33  4.6598421E-01
   7146.67  4.6263416E-01
   7147.00  4.5975695E-01
   7147.33  4.5746920E-01
   7147.67  4.5573438E-01
   7148.00  4.5455712E-01
   7148.33  4.5398514E-01
   7148.67  4.5390633E-01
   7149.00  4.5426545E-01
   7149.33  4.5502930E-01
   7149.67  4.5606676E-01
   7150.00  4.5730279E-01
   7150.33  4.5866863E-01
   7150.67  4.6007561E-01
   7151.00  4.6146924E-01
   7151.33  4.6278900E-01
   7151.67  4.6400192E-01
   7152.00  4.6507908E-01
   7152.33  4.6597250E-01
   7152.67  4.6668393E-01
   7153.00  4.6720506E-01
   7153.33  4.6751037E-01
   7153.67  4.6763039E-01
   7154.00  4.6757633E-01
   7154.33  4.6734712E-01
   7154.67  4.6698395E-01
   7155.00  4.6650625E-01
   7155.33  4.6592470E-01
   7155.67  4.6526999E-01
   7156.00  4.6455480E-01
   7156.33  4.6378278E-01
   7156.67  4.6296514E-01
   7157.00  4.6210503E-01
   7157.33  4.6120049E-01
   7157.67  4.6025471E-01
   7158.00  4.5926431E-01
   7158.33  4.5822075E-01
   7158.67  4.5712988E-01
   7159.00  4.5599323E-01
   7159.33  4.5480843E-01
   7159.67  4.5358594E-01
   7160.00  4.5233210E-01
   7160.33  4.5105292E-01
   7160.67  4.4976014E-01
   7161.00  4.4846084E-01
   7161.33  4.4716284E-01
   7161.67  4.4587300E-01
   7162.00  4.4459652E-01
   7162.33  4.4333994E-01
   7162.67  4.4210360E-01
   7163.00  4.4088922E-01
   7163.33  4.3970179E-01
   7163.67  4.3854074E-01
   7164.00  4.3740922E-01
   7164.33  4.3631690E-01
   7164.67  4.3526763E-01
   7165.00  4.3427184E-01
   7165.33  4.3335417E-01
   7165.67  4.3252573E-01
   7166.00  4.3180649E-01
   7166.33  4.3123835E-01
   7166.67  4.3082996E-01
   7167.00  4.3060330E-01
   7167.33  4.3061003E-01
   7167.67  4.3085279E-01
   7168.00  4.3135832E-01
   7168.33  4.3218454E-01
   7168.67  4.3330861E-01
   7169.00  4.3473645E-01
   7169.33  4.3650682E-01
   7169.67  4.3857398E-01
   7170.00  4.4092281E-01
   7170.33  4.4355400E-01
   7170.67  4.4638586E-01
   7171.00  4.4935165E-01
   7171.33  4.5232940E-01
   7171.67  4.5511308E-01
   7172.00  4.5744296E-01
