    FDMNES
    energy     <xanes>
   7097.00  4.4583110E-03
   7097.33  4.5577980E-03
   7097.67  4.6616919E-03
   7098.00  4.7702920E-03
   7098.33  4.8846207E-03
   7098.67  5.0044721E-03
   7099.00  5.1302561E-03
   7099.33  5.2633135E-03
   7099.67  5.4034365E-03
   7100.00  5.5512018E-03
   7100.33  5.7084162E-03
   7100.67  5.8748924E-03
   7101.00  6.0514681E-03
   7101.33  6.2406572E-03
   7101.67  6.4423427E-03
   7102.00  6.6577879E-03
   7102.33  6.8906270E-03
   7102.67  7.1409225E-03
   7103.00  7.4106676E-03
   7103.33  7.7053645E-03
   7103.67  8.0255033E-03
   7104.00  8.3744054E-03
   7104.33  8.7608906E-03
   7104.67  9.1864665E-03
   7105.00  9.6570574E-03
   7105.33  1.0187857E-02
   7105.67  1.0782903E-02
   7106.00  1.1453728E-02
   7106.33  1.2229075E-02
   7106.67  1.3119841E-02
   7107.00  1.4151240E-02
   7107.33  1.5385054E-02
   7107.67  1.6853460E-02
   7108.00  1.8621457E-02
   7108.33  2.0848831E-02
   7108.67  2.3649706E-02
   7109.00  2.7239746E-02
   7109.33  3.2173632E-02
   7109.67  3.9014783E-02
   7110.00  4.8846130E-02
   7110.33  6.4704026E-02
   7110.67  8.9978453E-02
   7111.00  1.2778157E-01
   7111.33  1.7993898E-01
   7111.67  2.4642952E-01
   7112.00  3.2664514E-01
   7112.33  4.0168945E-01
   7112.67  4.1390478E-01
   7113.00  3.4484045E-01
   7113.33  2.6139912E-01
   7113.67  2.0499543E-01
   7114.00  1.7391847E-01
   7114.33  1.5324029E-01
   7114.67  1.2989492E-01
   7115.00  1.0804437E-01
   7115.33  9.2836449E-02
   7115.67  8.2508533E-02
   7116.00  7.5813558E-02
   7116.33  7.2194435E-02
   7116.67  7.0640883E-02
   7117.00  7.0799382E-02
   7117.33  7.2700225E-02
   7117.67  7.6079652E-02
   7118.00  8.0721282E-02
   7118.33  8.6255990E-02
   7118.67  9.2151165E-02
   7119.00  9.8398055E-02
   7119.33  1.0552954E-01
   7119.67  1.1317033E-01
   7120.00  1.2005296E-01
   7120.33  1.2534879E-01
   7120.67  1.3041454E-01
   7121.00  1.3650470E-01
   7121.33  1.4473639E-01
   7121.67  1.5533059E-01
   7122.00  1.6857100E-01
   7122.33  1.8501958E-01
   7122.67  2.0426523E-01
   7123.00  2.2605829E-01
   7123.33  2.5044041E-01
   7123.67  2.7718908E-01
   7124.00  3.0648893E-01
   7124.33  3.3820596E-01
   7124.67  3.6993026E-01
   7125.00  3.9851005E-01
   7125.33  4.2014975E-01
   7125.67  4.3528454E-01
   7126.00  4.4522821E-01
   7126.33  4.5111842E-01
   7126.67  4.5442878E-01
   7127.00  4.5586487E-01
   7127.33  4.5603758E-01
   7127.67  4.5543436E-01
   7128.00  4.5415786E-01
   7128.33  4.5261988E-01
   7128.67  4.5137408E-01
   7129.00  4.5061222E-01
   7129.33  4.5048605E-01
   7129.67  4.5093962E-01
   7130.00  4.5188895E-01
   7130.33  4.5313276E-01
   7130.67  4.5428393E-01
   7131.00  4.5507285E-01
   7131.33  4.5564101E-01
   7131.67  4.5689120E-01
   7132.00  4.5948747E-01
   7132.33  4.6330153E-01
   7132.67  4.6712231E-01
   7133.00  4.7011533E-01
   7133.33  4.7178081E-01
   7133.67  4.7252608E-01
   7134.00  4.7282073E-01
   7134.33  4.7321181E-01
   7134.67  4.7399427E-01
   7135.00  4.7523091E-01
   7135.33  4.7696791E-01
   7135.67  4.7916596E-01
   7136.00  4.8189630E-01
   7136.33  4.8546396E-01
   7136.67  4.9014751E-01
   7137.00  4.9632105E-01
   7137.33  5.0457752E-01
   7137.67  5.1487879E-01
   7138.00  5.2725553E-01
   7138.33  5.4188677E-01
   7138.67  5.5837052E-01
   7139.00  5.7651336E-01
   7139.33  5.9616347E-01
   7139.67  6.1671066E-01
   7140.00  6.3767232E-01
   7140.33  6.5835521E-01
   7140.67  6.7806711E-01
   7141.00  6.9620000E-01
   7141.33  7.1188955E-01
   7141.67  7.2503702E-01
   7142.00  7.3553969E-01
   7142.33  7.4316584E-01
   7142.67  7.4842422E-01
   7143.00  7.5145335E-01
   7143.33  7.5205204E-01
   7143.67  7.5049243E-01
   7144.00  7.4681376E-01
   7144.33  7.4100123E-01
   7144.67  7.3374001E-01
   7145.00  7.2553745E-01
   7145.33  7.1705925E-01
   7145.67  7.0907002E-01
   7146.00  7.0212718E-01
   7146.33  6.9688831E-01
   7146.67  6.9339560E-01
   7147.00  6.9166325E-01
   7147.33  6.9173031E-01
   7147.67  6.9309997E-01
   7148.00  6.9545532E-01
   7148.33  6.9847830E-01
   7148.67  7.0171764E-01
   7149.00  7.0488345E-01
   7149.33  7.0764538E-01
   7149.67  7.0982355E-01
   7150.00  7.1127235E-01
   7150.33  7.1176704E-01
   7150.67  7.1134484E-01
   7151.00  7.0998187E-01
   7151.33  7.0756796E-01
   7151.67  7.0425668E-01
   7152.00  7.0009900E-01
   7152.33  6.9507746E-01
   7152.67  6.8938182E-01
   7153.00  6.8309784E-01
   7153.33  6.7626340E-01
   7153.67  6.6903336E-01
   7154.00  6.6148491E-01
   7154.33  6.5367549E-01
   7154.67  6.4571423E-01
   7155.00  6.3766593E-01
   7155.33  6.2960036E-01
   7155.67  6.2158611E-01
   7156.00  6.1367441E-01
   7156.33  6.0593247E-01
   7156.67  5.9837516E-01
   7157.00  5.9101955E-01
   7157.33  5.8389761E-01
   7157.67  5.7697211E-01
   7158.00  5.7022170E-01
   7158.33  5.6363083E-01
   7158.67  5.5714532E-01
   7159.00  5.5073547E-01
   7159.33  5.4437657E-01
   7159.67  5.3803713E-01
   7160.00  5.3169827E-01
   7160.33  5.2534222E-01
   7160.67  5.1896531E-01
   7161.00  5.1256738E-01
   7161.33  5.0614587E-01
   7161.67  4.9970437E-01
   7162.00  4.9324554E-01
   7162.33  4.8677303E-01
   7162.67  4.8029626E-01
   7163.00  4.7382535E-01
   7163.33  4.6737948E-01
   7163.67  4.6097875E-01
   7164.00  4.5464885E-01
   7164.33  4.4844036E-01
   7164.67  4.4238486E-01
   7165.00  4.3652680E-01
   7165.33  4.3095337E-01
   7165.67  4.2568980E-01
   7166.00  4.2078332E-01
   7166.33  4.1633310E-01
   7166.67  4.1232597E-01
   7167.00  4.0878344E-01
   7167.33  4.0577684E-01
   7167.67  4.0324538E-01
   7168.00  4.0117939E-01
   7168.33  3.9961642E-01
   7168.67  3.9847828E-01
   7169.00  3.9774517E-01
   7169.33  3.9744223E-01
   7169.67  3.9749992E-01
   7170.00  3.9790022E-01
   7170.33  3.9866073E-01
   7170.67  3.9971176E-01
   7171.00  4.0101381E-01
   7171.33  4.0250603E-01
   7171.67  4.0400935E-01
   7172.00  4.0530691E-01
