    FDMNES
    energy     <xanes>
   7097.00  5.1802971E-03
   7097.33  5.3061282E-03
   7097.67  5.4378051E-03
   7098.00  5.5757284E-03
   7098.33  5.7212587E-03
   7098.67  5.8741249E-03
   7099.00  6.0348725E-03
   7099.33  6.2052830E-03
   7099.67  6.3850783E-03
   7100.00  6.5750209E-03
   7100.33  6.7775025E-03
   7100.67  6.9922641E-03
   7101.00  7.2204039E-03
   7101.33  7.4652300E-03
   7101.67  7.7265607E-03
   7102.00  8.0060349E-03
   7102.33  8.3083946E-03
   7102.67  8.6336640E-03
   7103.00  8.9843971E-03
   7103.33  9.3676941E-03
   7103.67  9.7840779E-03
   7104.00  1.0237745E-02
   7104.33  1.0739924E-02
   7104.67  1.1292335E-02
   7105.00  1.1902354E-02
   7105.33  1.2589039E-02
   7105.67  1.3357110E-02
   7106.00  1.4220741E-02
   7106.33  1.5215502E-02
   7106.67  1.6354355E-02
   7107.00  1.7668126E-02
   7107.33  1.9232805E-02
   7107.67  2.1087754E-02
   7108.00  2.3313514E-02
   7108.33  2.6109951E-02
   7108.67  2.9625063E-02
   7109.00  3.4141938E-02
   7109.33  4.0406271E-02
   7109.67  4.9240927E-02
   7110.00  6.2264825E-02
   7110.33  8.4084134E-02
   7110.67  1.1898217E-01
   7111.00  1.6533500E-01
   7111.33  2.0568571E-01
   7111.67  2.3774460E-01
   7112.00  2.6772769E-01
   7112.33  2.9904282E-01
   7112.67  3.4200846E-01
   7113.00  4.0700851E-01
   7113.33  4.8706232E-01
   7113.67  5.3798482E-01
   7114.00  5.2692719E-01
   7114.33  4.5804676E-01
   7114.67  3.7862314E-01
   7115.00  3.1287353E-01
   7115.33  2.7088219E-01
   7115.67  2.4794746E-01
   7116.00  2.4034241E-01
   7116.33  2.4304396E-01
   7116.67  2.4712854E-01
   7117.00  2.4683084E-01
   7117.33  2.3935420E-01
   7117.67  2.2818677E-01
   7118.00  2.1604025E-01
   7118.33  2.0411119E-01
   7118.67  1.9204390E-01
   7119.00  1.8016501E-01
   7119.33  1.6992535E-01
   7119.67  1.6144083E-01
   7120.00  1.5395932E-01
   7120.33  1.4687527E-01
   7120.67  1.4058796E-01
   7121.00  1.3564696E-01
   7121.33  1.3260183E-01
   7121.67  1.3169037E-01
   7122.00  1.3310413E-01
   7122.33  1.3677938E-01
   7122.67  1.4198376E-01
   7123.00  1.4846259E-01
   7123.33  1.5631076E-01
   7123.67  1.6553179E-01
   7124.00  1.7642122E-01
   7124.33  1.8981706E-01
   7124.67  2.0600237E-01
   7125.00  2.2502682E-01
   7125.33  2.4652230E-01
   7125.67  2.6888298E-01
   7126.00  2.9043607E-01
   7126.33  3.0929444E-01
   7126.67  3.2609363E-01
   7127.00  3.4217917E-01
   7127.33  3.5833003E-01
   7127.67  3.7429319E-01
   7128.00  3.8992970E-01
   7128.33  4.0587489E-01
   7128.67  4.2344050E-01
   7129.00  4.4382633E-01
   7129.33  4.6838543E-01
   7129.67  4.9684435E-01
   7130.00  5.2855618E-01
   7130.33  5.6241377E-01
   7130.67  5.9797975E-01
   7131.00  6.3674574E-01
   7131.33  6.8173178E-01
   7131.67  7.3353873E-01
   7132.00  7.9184554E-01
   7132.33  8.5481030E-01
   7132.67  9.1713658E-01
   7133.00  9.7301005E-01
   7133.33  1.0133325E+00
   7133.67  1.0340686E+00
   7134.00  1.0329721E+00
   7134.33  1.0080736E+00
   7134.67  9.6533154E-01
   7135.00  9.0921201E-01
   7135.33  8.4529411E-01
   7135.67  7.8061041E-01
   7136.00  7.1900485E-01
   7136.33  6.6357914E-01
   7136.67  6.1436874E-01
   7137.00  5.7125635E-01
   7137.33  5.3454542E-01
   7137.67  5.0314109E-01
   7138.00  4.7679074E-01
   7138.33  4.5580712E-01
   7138.67  4.3923670E-01
   7139.00  4.2669711E-01
   7139.33  4.1814060E-01
   7139.67  4.1265589E-01
   7140.00  4.0989614E-01
   7140.33  4.0982874E-01
   7140.67  4.1188558E-01
   7141.00  4.1586884E-01
   7141.33  4.2178221E-01
   7141.67  4.2920556E-01
   7142.00  4.3795541E-01
   7142.33  4.4793811E-01
   7142.67  4.5876201E-01
   7143.00  4.7018760E-01
   7143.33  4.8195763E-01
   7143.67  4.9373957E-01
   7144.00  5.0530247E-01
   7144.33  5.1637366E-01
   7144.67  5.2686161E-01
   7145.00  5.3670189E-01
   7145.33  5.4580138E-01
   7145.67  5.5428544E-01
   7146.00  5.6222274E-01
   7146.33  5.6965467E-01
   7146.67  5.7672973E-01
   7147.00  5.8351902E-01
   7147.33  5.9007025E-01
   7147.67  5.9647235E-01
   7148.00  6.0276713E-01
   7148.33  6.0898398E-01
   7148.67  6.1516267E-01
   7149.00  6.2131300E-01
   7149.33  6.2741950E-01
   7149.67  6.3346507E-01
   7150.00  6.3942929E-01
   7150.33  6.4526449E-01
   7150.67  6.5093353E-01
   7151.00  6.5637812E-01
   7151.33  6.6147935E-01
   7151.67  6.6618428E-01
   7152.00  6.7041007E-01
   7152.33  6.7398840E-01
   7152.67  6.7690068E-01
   7153.00  6.7907806E-01
   7153.33  6.8035436E-01
   7153.67  6.8078166E-01
   7154.00  6.8033503E-01
   7154.33  6.7889543E-01
   7154.67  6.7658733E-01
   7155.00  6.7344184E-01
   7155.33  6.6941939E-01
   7155.67  6.6469651E-01
   7156.00  6.5935554E-01
   7156.33  6.5344187E-01
   7156.67  6.4713786E-01
   7157.00  6.4054895E-01
   7157.33  6.3377608E-01
   7157.67  6.2695525E-01
   7158.00  6.2017899E-01
   7158.33  6.1356501E-01
   7158.67  6.0718172E-01
   7159.00  6.0108622E-01
   7159.33  5.9536245E-01
   7159.67  5.8998501E-01
   7160.00  5.8494552E-01
   7160.33  5.8024567E-01
   7160.67  5.7578565E-01
   7161.00  5.7149590E-01
   7161.33  5.6729077E-01
   7161.67  5.6305581E-01
   7162.00  5.5870567E-01
   7162.33  5.5413408E-01
   7162.67  5.4931148E-01
   7163.00  5.4421911E-01
   7163.33  5.3883718E-01
   7163.67  5.3324302E-01
   7164.00  5.2749416E-01
   7164.33  5.2165864E-01
   7164.67  5.1582300E-01
   7165.00  5.1004490E-01
   7165.33  5.0439056E-01
   7165.67  4.9888027E-01
   7166.00  4.9352935E-01
   7166.33  4.8836257E-01
   7166.67  4.8335141E-01
   7167.00  4.7848159E-01
   7167.33  4.7374602E-01
   7167.67  4.6910364E-01
   7168.00  4.6453107E-01
   7168.33  4.6001153E-01
   7168.67  4.5552307E-01
   7169.00  4.5105794E-01
   7169.33  4.4661721E-01
   7169.67  4.4220532E-01
   7170.00  4.3783623E-01
   7170.33  4.3354429E-01
   7170.67  4.2935991E-01
   7171.00  4.2533182E-01
   7171.33  4.2158084E-01
   7171.67  4.1823391E-01
   7172.00  4.1549199E-01
