    FDMNES
    energy     <xanes>
   7097.00  4.2151226E-03
   7097.33  4.3006762E-03
   7097.67  4.3895210E-03
   7098.00  4.4818530E-03
   7098.33  4.5783898E-03
   7098.67  4.6789411E-03
   7099.00  4.7837680E-03
   7099.33  4.8937834E-03
   7099.67  5.0087862E-03
   7100.00  5.1291337E-03
   7100.33  5.2560172E-03
   7100.67  5.3892349E-03
   7101.00  5.5292916E-03
   7101.33  5.6777894E-03
   7101.67  5.8345498E-03
   7102.00  6.0003130E-03
   7102.33  6.1773158E-03
   7102.67  6.3654564E-03
   7103.00  6.5658709E-03
   7103.33  6.7818281E-03
   7103.67  7.0134269E-03
   7104.00  7.2625102E-03
   7104.33  7.5341382E-03
   7104.67  7.8289056E-03
   7105.00  8.1500181E-03
   7105.33  8.5059057E-03
   7105.67  8.8984196E-03
   7106.00  9.3336601E-03
   7106.33  9.8270968E-03
   7106.67  1.0384016E-02
   7107.00  1.1017514E-02
   7107.33  1.1760013E-02
   7107.67  1.2627548E-02
   7108.00  1.3653504E-02
   7108.33  1.4920450E-02
   7108.67  1.6486431E-02
   7109.00  1.8462537E-02
   7109.33  2.1136381E-02
   7109.67  2.4803530E-02
   7110.00  3.0037971E-02
   7110.33  3.8475012E-02
   7110.67  5.2040300E-02
   7111.00  7.2446167E-02
   7111.33  9.6795832E-02
   7111.67  1.1781797E-01
   7112.00  1.3913757E-01
   7112.33  1.7428116E-01
   7112.67  2.1304759E-01
   7113.00  2.2997001E-01
   7113.33  2.0642118E-01
   7113.67  1.6485717E-01
   7114.00  1.2725360E-01
   7114.33  1.0420233E-01
   7114.67  9.1612846E-02
   7115.00  8.3765246E-02
   7115.33  7.4726709E-02
   7115.67  6.7067236E-02
   7116.00  6.2703901E-02
   7116.33  6.1474779E-02
   7116.67  6.2206110E-02
   7117.00  6.4476797E-02
   7117.33  6.8209225E-02
   7117.67  7.3124902E-02
   7118.00  7.9145898E-02
   7118.33  8.6253554E-02
   7118.67  9.4022310E-02
   7119.00  1.0196558E-01
   7119.33  1.0932012E-01
   7119.67  1.1592055E-01
   7120.00  1.2240925E-01
   7120.33  1.3016203E-01
   7120.67  1.3975283E-01
   7121.00  1.5121691E-01
   7121.33  1.6454110E-01
   7121.67  1.7932607E-01
   7122.00  1.9553988E-01
   7122.33  2.1359268E-01
   7122.67  2.3376571E-01
   7123.00  2.5659265E-01
   7123.33  2.8302424E-01
   7123.67  3.1290589E-01
   7124.00  3.4590860E-01
   7124.33  3.8084764E-01
   7124.67  4.1537248E-01
   7125.00  4.4779916E-01
   7125.33  4.7616799E-01
   7125.67  5.0053768E-01
   7126.00  5.2217261E-01
   7126.33  5.4214617E-01
   7126.67  5.5986202E-01
   7127.00  5.7352726E-01
   7127.33  5.8026062E-01
   7127.67  5.8174969E-01
   7128.00  5.8201375E-01
   7128.33  5.8553547E-01
   7128.67  5.9312863E-01
   7129.00  6.0473248E-01
   7129.33  6.2035518E-01
   7129.67  6.3880790E-01
   7130.00  6.5962536E-01
   7130.33  6.8243087E-01
   7130.67  7.0534231E-01
   7131.00  7.2556392E-01
   7131.33  7.3733724E-01
   7131.67  7.3691308E-01
   7132.00  7.2322279E-01
   7132.33  6.9936599E-01
   7132.67  6.7404581E-01
   7133.00  6.5305042E-01
   7133.33  6.4185786E-01
   7133.67  6.4159204E-01
   7134.00  6.5192862E-01
   7134.33  6.7016998E-01
   7134.67  6.9060327E-01
   7135.00  7.1044668E-01
   7135.33  7.2832132E-01
   7135.67  7.4409888E-01
   7136.00  7.5724366E-01
   7136.33  7.6612284E-01
   7136.67  7.7009667E-01
   7137.00  7.6901706E-01
   7137.33  7.6343991E-01
   7137.67  7.5569578E-01
   7138.00  7.4737223E-01
   7138.33  7.3996909E-01
   7138.67  7.3415906E-01
   7139.00  7.3014380E-01
   7139.33  7.2789894E-01
   7139.67  7.2660502E-01
   7140.00  7.2548618E-01
   7140.33  7.2338006E-01
   7140.67  7.1938513E-01
   7141.00  7.1285546E-01
   7141.33  7.0313437E-01
   7141.67  6.9083139E-01
   7142.00  6.7654393E-01
   7142.33  6.6108812E-01
   7142.67  6.4555789E-01
   7143.00  6.3062148E-01
   7143.33  6.1694695E-01
   7143.67  6.0466718E-01
   7144.00  5.9385010E-01
   7144.33  5.8461081E-01
   7144.67  5.7661578E-01
   7145.00  5.6969090E-01
   7145.33  5.6373359E-01
   7145.67  5.5843680E-01
   7146.00  5.5364465E-01
   7146.33  5.4924055E-01
   7146.67  5.4504792E-01
   7147.00  5.4097266E-01
   7147.33  5.3693075E-01
   7147.67  5.3285437E-01
   7148.00  5.2870596E-01
   7148.33  5.2444577E-01
   7148.67  5.2007276E-01
   7149.00  5.1558299E-01
   7149.33  5.1096218E-01
   7149.67  5.0622843E-01
   7150.00  5.0138686E-01
   7150.33  4.9642883E-01
   7150.67  4.9136633E-01
   7151.00  4.8619521E-01
   7151.33  4.8089215E-01
   7151.67  4.7546026E-01
   7152.00  4.6988914E-01
   7152.33  4.6414923E-01
   7152.67  4.5825334E-01
   7153.00  4.5220376E-01
   7153.33  4.4599715E-01
   7153.67  4.3967944E-01
   7154.00  4.3328704E-01
   7154.33  4.2687218E-01
   7154.67  4.2050230E-01
   7155.00  4.1423756E-01
   7155.33  4.0816843E-01
   7155.67  4.0233437E-01
   7156.00  3.9677520E-01
   7156.33  3.9154870E-01
   7156.67  3.8660812E-01
   7157.00  3.8191753E-01
   7157.33  3.7742087E-01
   7157.67  3.7298715E-01
   7158.00  3.6850802E-01
   7158.33  3.6383189E-01
   7158.67  3.5887898E-01
   7159.00  3.5361691E-01
   7159.33  3.4803789E-01
   7159.67  3.4226309E-01
   7160.00  3.3640252E-01
   7160.33  3.3061606E-01
   7160.67  3.2505193E-01
   7161.00  3.1983549E-01
   7161.33  3.1515347E-01
   7161.67  3.1105108E-01
   7162.00  3.0759627E-01
   7162.33  3.0493125E-01
   7162.67  3.0300146E-01
   7163.00  3.0182065E-01
   7163.33  3.0148211E-01
   7163.67  3.0187605E-01
   7164.00  3.0297793E-01
   7164.33  3.0483169E-01
   7164.67  3.0730236E-01
   7165.00  3.1033683E-01
   7165.33  3.1392574E-01
   7165.67  3.1792814E-01
   7166.00  3.2227064E-01
   7166.33  3.2689580E-01
   7166.67  3.3168371E-01
   7167.00  3.3656267E-01
   7167.33  3.4146169E-01
   7167.67  3.4631865E-01
   7168.00  3.5109432E-01
   7168.33  3.5574615E-01
   7168.67  3.6027712E-01
   7169.00  3.6468947E-01
   7169.33  3.6898014E-01
   7169.67  3.7317393E-01
   7170.00  3.7727508E-01
   7170.33  3.8126386E-01
   7170.67  3.8512658E-01
   7171.00  3.8882051E-01
   7171.33  3.9222951E-01
   7171.67  3.9524123E-01
   7172.00  3.9767938E-01
