    FDMNES
    energy     <xanes>
   7097.00  4.3480734E-03
   7097.33  4.4387773E-03
   7097.67  4.5331524E-03
   7098.00  4.6314311E-03
   7098.33  4.7344376E-03
   7098.67  4.8419787E-03
   7099.00  4.9543695E-03
   7099.33  5.0726759E-03
   7099.67  5.1966994E-03
   7100.00  5.3268800E-03
   7100.33  5.4646352E-03
   7100.67  5.6097785E-03
   7101.00  5.7629447E-03
   7101.33  5.9260843E-03
   7101.67  6.0990603E-03
   7102.00  6.2828275E-03
   7102.33  6.4801814E-03
   7102.67  6.6911207E-03
   7103.00  6.9171532E-03
   7103.33  7.1624929E-03
   7103.67  7.4274724E-03
   7104.00  7.7146219E-03
   7104.33  8.0307072E-03
   7104.67  8.3768811E-03
   7105.00  8.7577227E-03
   7105.33  9.1850120E-03
   7105.67  9.6620151E-03
   7106.00  1.0197878E-02
   7106.33  1.0815433E-02
   7106.67  1.1523948E-02
   7107.00  1.2344316E-02
   7107.33  1.3327890E-02
   7107.67  1.4503948E-02
   7108.00  1.5930443E-02
   7108.33  1.7751609E-02
   7108.67  2.0082950E-02
   7109.00  2.3142788E-02
   7109.33  2.7512487E-02
   7109.67  3.3870253E-02
   7110.00  4.3551155E-02
   7110.33  6.0328275E-02
   7110.67  8.7128027E-02
   7111.00  1.1993078E-01
   7111.33  1.4516661E-01
   7111.67  1.7253541E-01
   7112.00  2.0638654E-01
   7112.33  2.3383271E-01
   7112.67  2.4259427E-01
   7113.00  2.2424175E-01
   7113.33  1.8027627E-01
   7113.67  1.3703227E-01
   7114.00  1.0705598E-01
   7114.33  9.0911401E-02
   7114.67  7.9644368E-02
   7115.00  6.8523710E-02
   7115.33  5.9951019E-02
   7115.67  5.5023815E-02
   7116.00  5.3053074E-02
   7116.33  5.3460706E-02
   7116.67  5.5481203E-02
   7117.00  5.8861960E-02
   7117.33  6.3554440E-02
   7117.67  6.9270566E-02
   7118.00  7.5862199E-02
   7118.33  8.3038495E-02
   7118.67  9.0149065E-02
   7119.00  9.6784732E-02
   7119.33  1.0303650E-01
   7119.67  1.0959210E-01
   7120.00  1.1688156E-01
   7120.33  1.2508652E-01
   7120.67  1.3391950E-01
   7121.00  1.4319908E-01
   7121.33  1.5287484E-01
   7121.67  1.6301685E-01
   7122.00  1.7390586E-01
   7122.33  1.8615009E-01
   7122.67  2.0008477E-01
   7123.00  2.1616092E-01
   7123.33  2.3533358E-01
   7123.67  2.5777024E-01
   7124.00  2.8346593E-01
   7124.33  3.1190082E-01
   7124.67  3.4131223E-01
   7125.00  3.7055766E-01
   7125.33  3.9981193E-01
   7125.67  4.3084561E-01
   7126.00  4.6467706E-01
   7126.33  5.0078826E-01
   7126.67  5.3569468E-01
   7127.00  5.6645730E-01
   7127.33  5.9295927E-01
   7127.67  6.1897574E-01
   7128.00  6.4636220E-01
   7128.33  6.7597719E-01
   7128.67  7.0777941E-01
   7129.00  7.4109070E-01
   7129.33  7.7288828E-01
   7129.67  7.9938642E-01
   7130.00  8.1751458E-01
   7130.33  8.2288700E-01
   7130.67  8.1529413E-01
   7131.00  7.9562854E-01
   7131.33  7.6656201E-01
   7131.67  7.3371428E-01
   7132.00  7.0104971E-01
   7132.33  6.7403386E-01
   7132.67  6.5606075E-01
   7133.00  6.4910364E-01
   7133.33  6.5464636E-01
   7133.67  6.6859700E-01
   7134.00  6.8713243E-01
   7134.33  7.0647027E-01
   7134.67  7.2467253E-01
   7135.00  7.4140565E-01
   7135.33  7.5640196E-01
   7135.67  7.6926952E-01
   7136.00  7.7890211E-01
   7136.33  7.8343193E-01
   7136.67  7.8310596E-01
   7137.00  7.7866440E-01
   7137.33  7.7129765E-01
   7137.67  7.6281794E-01
   7138.00  7.5411925E-01
   7138.33  7.4574733E-01
   7138.67  7.3772124E-01
   7139.00  7.2987184E-01
   7139.33  7.2190257E-01
   7139.67  7.1357788E-01
   7140.00  7.0476798E-01
   7140.33  6.9536410E-01
   7140.67  6.8548974E-01
   7141.00  6.7525555E-01
   7141.33  6.6482193E-01
   7141.67  6.5441844E-01
   7142.00  6.4420703E-01
   7142.33  6.3440127E-01
   7142.67  6.2510466E-01
   7143.00  6.1642416E-01
   7143.33  6.0854147E-01
   7143.67  6.0141942E-01
   7144.00  5.9506308E-01
   7144.33  5.8951710E-01
   7144.67  5.8459135E-01
   7145.00  5.8016289E-01
   7145.33  5.7610112E-01
   7145.67  5.7218580E-01
   7146.00  5.6827404E-01
   7146.33  5.6421077E-01
   7146.67  5.5991194E-01
   7147.00  5.5532087E-01
   7147.33  5.5036536E-01
   7147.67  5.4508084E-01
   7148.00  5.3947129E-01
   7148.33  5.3350388E-01
   7148.67  5.2722270E-01
   7149.00  5.2062595E-01
   7149.33  5.1366329E-01
   7149.67  5.0635894E-01
   7150.00  4.9869599E-01
   7150.33  4.9060748E-01
   7150.67  4.8212732E-01
   7151.00  4.7325444E-01
   7151.33  4.6395873E-01
   7151.67  4.5433106E-01
   7152.00  4.4443475E-01
   7152.33  4.3435323E-01
   7152.67  4.2424143E-01
   7153.00  4.1423398E-01
   7153.33  4.0453291E-01
   7153.67  3.9527138E-01
   7154.00  3.8658437E-01
   7154.33  3.7870022E-01
   7154.67  3.7164155E-01
   7155.00  3.6547577E-01
   7155.33  3.6035632E-01
   7155.67  3.5615279E-01
   7156.00  3.5280563E-01
   7156.33  3.5027004E-01
   7156.67  3.4824316E-01
   7157.00  3.4650473E-01
   7157.33  3.4479772E-01
   7157.67  3.4288395E-01
   7158.00  3.4061054E-01
   7158.33  3.3782577E-01
   7158.67  3.3458991E-01
   7159.00  3.3097391E-01
   7159.33  3.2708110E-01
   7159.67  3.2310442E-01
   7160.00  3.1918996E-01
   7160.33  3.1552284E-01
   7160.67  3.1220519E-01
   7161.00  3.0932739E-01
   7161.33  3.0703731E-01
   7161.67  3.0533032E-01
   7162.00  3.0424354E-01
   7162.33  3.0388813E-01
   7162.67  3.0420158E-01
   7163.00  3.0518922E-01
   7163.33  3.0692973E-01
   7163.67  3.0932311E-01
   7164.00  3.1234367E-01
   7164.33  3.1601893E-01
   7164.67  3.2021552E-01
   7165.00  3.2486978E-01
   7165.33  3.2994157E-01
   7165.67  3.3529041E-01
   7166.00  3.4083363E-01
   7166.33  3.4649101E-01
   7166.67  3.5216662E-01
   7167.00  3.5780045E-01
   7167.33  3.6332886E-01
   7167.67  3.6873256E-01
   7168.00  3.7400051E-01
   7168.33  3.7911767E-01
   7168.67  3.8411096E-01
   7169.00  3.8898918E-01
   7169.33  3.9374226E-01
   7169.67  3.9837579E-01
   7170.00  4.0287162E-01
   7170.33  4.0717566E-01
   7170.67  4.1126460E-01
   7171.00  4.1508985E-01
   7171.33  4.1853342E-01
   7171.67  4.2152217E-01
   7172.00  4.2391868E-01
