    FDMNES
    energy     <xanes>
   7097.00  5.2643611E-03
   7097.33  5.3862274E-03
   7097.67  5.5135054E-03
   7098.00  5.6465506E-03
   7098.33  5.7865965E-03
   7098.67  5.9333712E-03
   7099.00  6.0873534E-03
   7099.33  6.2501398E-03
   7099.67  6.4214442E-03
   7100.00  6.6019271E-03
   7100.33  6.7937040E-03
   7100.67  6.9964928E-03
   7101.00  7.2112304E-03
   7101.33  7.4407984E-03
   7101.67  7.6849594E-03
   7102.00  7.9450876E-03
   7102.33  8.2252398E-03
   7102.67  8.5253144E-03
   7103.00  8.8474088E-03
   7103.33  9.1974680E-03
   7103.67  9.5757307E-03
   7104.00  9.9855581E-03
   7104.33  1.0436109E-02
   7104.67  1.0928438E-02
   7105.00  1.1468276E-02
   7105.33  1.2070659E-02
   7105.67  1.2738655E-02
   7106.00  1.3482843E-02
   7106.33  1.4330095E-02
   7106.67  1.5288805E-02
   7107.00  1.6380764E-02
   7107.33  1.7660047E-02
   7107.67  1.9151077E-02
   7108.00  2.0906533E-02
   7108.33  2.3056534E-02
   7108.67  2.5685465E-02
   7109.00  2.8957697E-02
   7109.33  3.3295432E-02
   7109.67  3.9106971E-02
   7110.00  4.7185120E-02
   7110.33  5.9742342E-02
   7110.67  7.9110767E-02
   7111.00  1.0708158E-01
   7111.33  1.4392875E-01
   7111.67  1.8559306E-01
   7112.00  2.2763282E-01
   7112.33  2.7583840E-01
   7112.67  3.2334905E-01
   7113.00  3.5094231E-01
   7113.33  3.6492986E-01
   7113.67  3.9387227E-01
   7114.00  4.3607282E-01
   7114.33  4.5874230E-01
   7114.67  4.5051958E-01
   7115.00  4.1899311E-01
   7115.33  3.7445144E-01
   7115.67  3.3211573E-01
   7116.00  3.0014158E-01
   7116.33  2.8320849E-01
   7116.67  2.7860878E-01
   7117.00  2.8287518E-01
   7117.33  2.8864567E-01
   7117.67  2.8813165E-01
   7118.00  2.7828117E-01
   7118.33  2.5939718E-01
   7118.67  2.3768061E-01
   7119.00  2.1698424E-01
   7119.33  1.9950257E-01
   7119.67  1.8517825E-01
   7120.00  1.7379061E-01
   7120.33  1.6501217E-01
   7120.67  1.5771324E-01
   7121.00  1.5129096E-01
   7121.33  1.4565939E-01
   7121.67  1.4109226E-01
   7122.00  1.3801970E-01
   7122.33  1.3708157E-01
   7122.67  1.3827417E-01
   7123.00  1.4153328E-01
   7123.33  1.4647227E-01
   7123.67  1.5222971E-01
   7124.00  1.5891173E-01
   7124.33  1.6779332E-01
   7124.67  1.7979643E-01
   7125.00  1.9557615E-01
   7125.33  2.1594899E-01
   7125.67  2.4030387E-01
   7126.00  2.6825102E-01
   7126.33  2.9917543E-01
   7126.67  3.3115293E-01
   7127.00  3.6247639E-01
   7127.33  3.9088434E-01
   7127.67  4.1528464E-01
   7128.00  4.3522515E-01
   7128.33  4.5098166E-01
   7128.67  4.6492239E-01
   7129.00  4.7896370E-01
   7129.33  4.9529384E-01
   7129.67  5.1492045E-01
   7130.00  5.3840318E-01
   7130.33  5.6635838E-01
   7130.67  5.9777189E-01
   7131.00  6.3171188E-01
   7131.33  6.6675760E-01
   7131.67  7.0098802E-01
   7132.00  7.3294626E-01
   7132.33  7.6083499E-01
   7132.67  7.8421653E-01
   7133.00  8.0267090E-01
   7133.33  8.1545409E-01
   7133.67  8.2349827E-01
   7134.00  8.2738625E-01
   7134.33  8.2765475E-01
   7134.67  8.2567442E-01
   7135.00  8.2206705E-01
   7135.33  8.1692033E-01
   7135.67  8.1007481E-01
   7136.00  8.0084609E-01
   7136.33  7.8783339E-01
   7136.67  7.7073179E-01
   7137.00  7.4946682E-01
   7137.33  7.2437877E-01
   7137.67  6.9747924E-01
   7138.00  6.7047269E-01
   7138.33  6.4547856E-01
   7138.67  6.2369731E-01
   7139.00  6.0585092E-01
   7139.33  5.9277720E-01
   7139.67  5.8383673E-01
   7140.00  5.7874205E-01
   7140.33  5.7749258E-01
   7140.67  5.7922226E-01
   7141.00  5.8358267E-01
   7141.33  5.9049203E-01
   7141.67  5.9933095E-01
   7142.00  6.0981068E-01
   7142.33  6.2171800E-01
   7142.67  6.3444688E-01
   7143.00  6.4752412E-01
   7143.33  6.6022759E-01
   7143.67  6.7179721E-01
   7144.00  6.8149833E-01
   7144.33  6.8817795E-01
   7144.67  6.9151814E-01
   7145.00  6.9118298E-01
   7145.33  6.8664876E-01
   7145.67  6.7868635E-01
   7146.00  6.6779205E-01
   7146.33  6.5443217E-01
   7146.67  6.3966849E-01
   7147.00  6.2413130E-01
   7147.33  6.0842051E-01
   7147.67  5.9302743E-01
   7148.00  5.7824306E-01
   7148.33  5.6439689E-01
   7148.67  5.5151473E-01
   7149.00  5.3965355E-01
   7149.33  5.2896654E-01
   7149.67  5.1931722E-01
   7150.00  5.1068996E-01
   7150.33  5.0318545E-01
   7150.67  4.9665105E-01
   7151.00  4.9106230E-01
   7151.33  4.8650571E-01
   7151.67  4.8283981E-01
   7152.00  4.8004264E-01
   7152.33  4.7819111E-01
   7152.67  4.7714283E-01
   7153.00  4.7685586E-01
   7153.33  4.7735432E-01
   7153.67  4.7846965E-01
   7154.00  4.8011705E-01
   7154.33  4.8223508E-01
   7154.67  4.8464743E-01
   7155.00  4.8724549E-01
   7155.33  4.8991643E-01
   7155.67  4.9254545E-01
   7156.00  4.9505775E-01
   7156.33  4.9736778E-01
   7156.67  4.9946283E-01
   7157.00  5.0133406E-01
   7157.33  5.0296608E-01
   7157.67  5.0441460E-01
   7158.00  5.0571549E-01
   7158.33  5.0690609E-01
   7158.67  5.0805177E-01
   7159.00  5.0919856E-01
   7159.33  5.1040411E-01
   7159.67  5.1170752E-01
   7160.00  5.1314194E-01
   7160.33  5.1475796E-01
   7160.67  5.1655589E-01
   7161.00  5.1854484E-01
   7161.33  5.2074944E-01
   7161.67  5.2313477E-01
   7162.00  5.2568187E-01
   7162.33  5.2837598E-01
   7162.67  5.3116235E-01
   7163.00  5.3400338E-01
   7163.33  5.3685255E-01
   7163.67  5.3965867E-01
   7164.00  5.4237192E-01
   7164.33  5.4490489E-01
   7164.67  5.4722000E-01
   7165.00  5.4927759E-01
   7165.33  5.5099738E-01
   7165.67  5.5237721E-01
   7166.00  5.5338742E-01
   7166.33  5.5395023E-01
   7166.67  5.5409361E-01
   7167.00  5.5380410E-01
   7167.33  5.5301714E-01
   7167.67  5.5178472E-01
   7168.00  5.5010807E-01
   7168.33  5.4794062E-01
   7168.67  5.4535517E-01
   7169.00  5.4237258E-01
   7169.33  5.3897764E-01
   7169.67  5.3525772E-01
   7170.00  5.3125492E-01
   7170.33  5.2700301E-01
   7170.67  5.2261225E-01
   7171.00  5.1817862E-01
   7171.33  5.1388039E-01
   7171.67  5.0996349E-01
   7172.00  5.0674372E-01
