    FDMNES
    energy     <xanes>
   7097.00  4.7817822E-03
   7097.33  4.8850756E-03
   7097.67  4.9926799E-03
   7098.00  5.1048652E-03
   7098.33  5.2225925E-03
   7098.67  5.3456277E-03
   7099.00  5.4743309E-03
   7099.33  5.6099324E-03
   7099.67  5.7521831E-03
   7100.00  5.9015748E-03
   7100.33  6.0597191E-03
   7100.67  6.2263630E-03
   7101.00  6.4021976E-03
   7101.33  6.5893919E-03
   7101.67  6.7877168E-03
   7102.00  6.9981757E-03
   7102.33  7.2237854E-03
   7102.67  7.4644033E-03
   7103.00  7.7215465E-03
   7103.33  7.9995846E-03
   7103.67  8.2986036E-03
   7104.00  8.6210174E-03
   7104.33  8.9734869E-03
   7104.67  9.3566675E-03
   7105.00  9.7746565E-03
   7105.33  1.0238313E-02
   7105.67  1.0749734E-02
   7106.00  1.1316507E-02
   7106.33  1.1958037E-02
   7106.67  1.2680374E-02
   7107.00  1.3499396E-02
   7107.33  1.4454711E-02
   7107.67  1.5564912E-02
   7108.00  1.6869913E-02
   7108.33  1.8469191E-02
   7108.67  2.0432108E-02
   7109.00  2.2893601E-02
   7109.33  2.6207613E-02
   7109.67  3.0750273E-02
   7110.00  3.7263976E-02
   7110.33  4.7910034E-02
   7110.67  6.5319873E-02
   7111.00  9.1330871E-02
   7111.33  1.1686348E-01
   7111.67  1.2655150E-01
   7112.00  1.2228644E-01
   7112.33  1.2670896E-01
   7112.67  1.4494252E-01
   7113.00  1.7289556E-01
   7113.33  2.1705078E-01
   7113.67  2.8570271E-01
   7114.00  3.4672861E-01
   7114.33  3.3977241E-01
   7114.67  3.3507641E-01
   7115.00  3.7702747E-01
   7115.33  4.2637762E-01
   7115.67  3.9815496E-01
   7116.00  3.0462313E-01
   7116.33  2.2698147E-01
   7116.67  1.8502370E-01
   7117.00  1.7120690E-01
   7117.33  1.8216664E-01
   7117.67  2.1366503E-01
   7118.00  2.6174234E-01
   7118.33  3.0893420E-01
   7118.67  3.3736722E-01
   7119.00  3.4645224E-01
   7119.33  3.3568683E-01
   7119.67  3.1034902E-01
   7120.00  2.7960150E-01
   7120.33  2.5199112E-01
   7120.67  2.2845509E-01
   7121.00  2.0851019E-01
   7121.33  1.9244815E-01
   7121.67  1.7928865E-01
   7122.00  1.6856299E-01
   7122.33  1.6021168E-01
   7122.67  1.5361469E-01
   7123.00  1.4840868E-01
   7123.33  1.4440370E-01
   7123.67  1.4140334E-01
   7124.00  1.3954826E-01
   7124.33  1.3934584E-01
   7124.67  1.4100529E-01
   7125.00  1.4451371E-01
   7125.33  1.4916577E-01
   7125.67  1.5419646E-01
   7126.00  1.6026855E-01
   7126.33  1.6916124E-01
   7126.67  1.8142717E-01
   7127.00  1.9717202E-01
   7127.33  2.1656407E-01
   7127.67  2.3880229E-01
   7128.00  2.6353528E-01
   7128.33  2.9071740E-01
   7128.67  3.1964695E-01
   7129.00  3.4940208E-01
   7129.33  3.7758770E-01
   7129.67  4.0137757E-01
   7130.00  4.1896027E-01
   7130.33  4.3022274E-01
   7130.67  4.3922656E-01
   7131.00  4.4953191E-01
   7131.33  4.6486165E-01
   7131.67  4.8615091E-01
   7132.00  5.1361884E-01
   7132.33  5.4761271E-01
   7132.67  5.8657521E-01
   7133.00  6.2946628E-01
   7133.33  6.7511922E-01
   7133.67  7.2153227E-01
   7134.00  7.6698551E-01
   7134.33  8.0868612E-01
   7134.67  8.4445346E-01
   7135.00  8.7220640E-01
   7135.33  8.8898646E-01
   7135.67  8.9553016E-01
   7136.00  8.9265205E-01
   7136.33  8.8159760E-01
   7136.67  8.6602464E-01
   7137.00  8.4814708E-01
   7137.33  8.2982433E-01
   7137.67  8.1211437E-01
   7138.00  7.9520274E-01
   7138.33  7.7875529E-01
   7138.67  7.6199875E-01
   7139.00  7.4431160E-01
   7139.33  7.2507933E-01
   7139.67  7.0454925E-01
   7140.00  6.8324621E-01
   7140.33  6.6219106E-01
   7140.67  6.4246220E-01
   7141.00  6.2487182E-01
   7141.33  6.1040934E-01
   7141.67  5.9904318E-01
   7142.00  5.9085179E-01
   7142.33  5.8619099E-01
   7142.67  5.8456661E-01
   7143.00  5.8586668E-01
   7143.33  5.9027471E-01
   7143.67  5.9721812E-01
   7144.00  6.0640656E-01
   7144.33  6.1755809E-01
   7144.67  6.2975362E-01
   7145.00  6.4221962E-01
   7145.33  6.5377788E-01
   7145.67  6.6336153E-01
   7146.00  6.7002720E-01
   7146.33  6.7246383E-01
   7146.67  6.7074504E-01
   7147.00  6.6495324E-01
   7147.33  6.5520453E-01
   7147.67  6.4285323E-01
   7148.00  6.2882408E-01
   7148.33  6.1410823E-01
   7148.67  5.9970094E-01
   7149.00  5.8620396E-01
   7149.33  5.7424064E-01
   7149.67  5.6383953E-01
   7150.00  5.5500656E-01
   7150.33  5.4779492E-01
   7150.67  5.4181067E-01
   7151.00  5.3684391E-01
   7151.33  5.3277222E-01
   7151.67  5.2934618E-01
   7152.00  5.2650685E-01
   7152.33  5.2432368E-01
   7152.67  5.2275854E-01
   7153.00  5.2184358E-01
   7153.33  5.2167455E-01
   7153.67  5.2213703E-01
   7154.00  5.2316407E-01
   7154.33  5.2469400E-01
   7154.67  5.2652773E-01
   7155.00  5.2854019E-01
   7155.33  5.3060748E-01
   7155.67  5.3262273E-01
   7156.00  5.3452845E-01
   7156.33  5.3627090E-01
   7156.67  5.3785836E-01
   7157.00  5.3929577E-01
   7157.33  5.4058046E-01
   7157.67  5.4174755E-01
   7158.00  5.4281330E-01
   7158.33  5.4378650E-01
   7158.67  5.4469680E-01
   7159.00  5.4556111E-01
   7159.33  5.4639551E-01
   7159.67  5.4722156E-01
   7160.00  5.4805330E-01
   7160.33  5.4890689E-01
   7160.67  5.4979138E-01
   7161.00  5.5071434E-01
   7161.33  5.5168734E-01
   7161.67  5.5270797E-01
   7162.00  5.5377655E-01
   7162.33  5.5489586E-01
   7162.67  5.5605261E-01
   7163.00  5.5723531E-01
   7163.33  5.5842455E-01
   7163.67  5.5959143E-01
   7164.00  5.6070573E-01
   7164.33  5.6171146E-01
   7164.67  5.6256629E-01
   7165.00  5.6321802E-01
   7165.33  5.6356978E-01
   7165.67  5.6359209E-01
   7166.00  5.6323520E-01
   7166.33  5.6239683E-01
   7166.67  5.6109535E-01
   7167.00  5.5931343E-01
   7167.33  5.5698708E-01
   7167.67  5.5419276E-01
   7168.00  5.5095877E-01
   7168.33  5.4728335E-01
   7168.67  5.4327545E-01
   7169.00  5.3899292E-01
   7169.33  5.3447963E-01
   7169.67  5.2983016E-01
   7170.00  5.2510186E-01
   7170.33  5.2035790E-01
   7170.67  5.1566930E-01
   7171.00  5.1110638E-01
   7171.33  5.0681864E-01
   7171.67  5.0297913E-01
   7172.00  4.9984470E-01
