    FDMNES
    energy     <xanes>
   7097.00  4.9837135E-03
   7097.33  5.0977014E-03
   7097.67  5.2167225E-03
   7098.00  5.3411101E-03
   7098.33  5.4720162E-03
   7098.67  5.6091926E-03
   7099.00  5.7530901E-03
   7099.33  5.9052062E-03
   7099.67  6.0652828E-03
   7100.00  6.2339465E-03
   7100.33  6.4131919E-03
   7100.67  6.6027712E-03
   7101.00  6.8035811E-03
   7101.33  7.0183579E-03
   7101.67  7.2469090E-03
   7102.00  7.4905633E-03
   7102.33  7.7532101E-03
   7102.67  8.0348104E-03
   7103.00  8.3374199E-03
   7103.33  8.6668096E-03
   7103.67  9.0233187E-03
   7104.00  9.4102967E-03
   7104.33  9.8367798E-03
   7104.67  1.0304017E-02
   7105.00  1.0817837E-02
   7105.33  1.1393401E-02
   7105.67  1.2034223E-02
   7106.00  1.2751364E-02
   7106.33  1.3572703E-02
   7106.67  1.4507901E-02
   7107.00  1.5580579E-02
   7107.33  1.6849074E-02
   7107.67  1.8342245E-02
   7108.00  2.0120079E-02
   7108.33  2.2330979E-02
   7108.67  2.5079571E-02
   7109.00  2.8566636E-02
   7109.33  3.3314464E-02
   7109.67  3.9868340E-02
   7110.00  4.9291691E-02
   7110.33  6.4584478E-02
   7110.67  8.8771154E-02
   7111.00  1.2284689E-01
   7111.33  1.6312126E-01
   7111.67  2.0652632E-01
   7112.00  2.4680848E-01
   7112.33  2.7145529E-01
   7112.67  2.8438306E-01
   7113.00  3.0038146E-01
   7113.33  3.3462366E-01
   7113.67  3.7546878E-01
   7114.00  4.0120271E-01
   7114.33  4.0464242E-01
   7114.67  3.8497342E-01
   7115.00  3.4106410E-01
   7115.33  2.9306665E-01
   7115.67  2.5701985E-01
   7116.00  2.3297464E-01
   7116.33  2.1554269E-01
   7116.67  1.9988569E-01
   7117.00  1.8476264E-01
   7117.33  1.6877854E-01
   7117.67  1.5248213E-01
   7118.00  1.3796105E-01
   7118.33  1.2756354E-01
   7118.67  1.2123461E-01
   7119.00  1.1859077E-01
   7119.33  1.1905782E-01
   7119.67  1.2108317E-01
   7120.00  1.2399998E-01
   7120.33  1.2807113E-01
   7120.67  1.3284881E-01
   7121.00  1.3667417E-01
   7121.33  1.3749634E-01
   7121.67  1.3657795E-01
   7122.00  1.3591043E-01
   7122.33  1.3730263E-01
   7122.67  1.4114839E-01
   7123.00  1.4764192E-01
   7123.33  1.5721944E-01
   7123.67  1.6964906E-01
   7124.00  1.8509165E-01
   7124.33  2.0403166E-01
   7124.67  2.2590249E-01
   7125.00  2.5025291E-01
   7125.33  2.7617173E-01
   7125.67  3.0184347E-01
   7126.00  3.2621497E-01
   7126.33  3.4961112E-01
   7126.67  3.7402955E-01
   7127.00  4.0102152E-01
   7127.33  4.3155496E-01
   7127.67  4.6407645E-01
   7128.00  4.9652240E-01
   7128.33  5.2588307E-01
   7128.67  5.5066941E-01
   7129.00  5.7056415E-01
   7129.33  5.8636799E-01
   7129.67  6.0098414E-01
   7130.00  6.1635148E-01
   7130.33  6.3336392E-01
   7130.67  6.5065452E-01
   7131.00  6.6644567E-01
   7131.33  6.7892597E-01
   7131.67  6.8870575E-01
   7132.00  6.9716795E-01
   7132.33  7.0636413E-01
   7132.67  7.1771884E-01
   7133.00  7.3196734E-01
   7133.33  7.4989769E-01
   7133.67  7.7110630E-01
   7134.00  7.9521631E-01
   7134.33  8.2126290E-01
   7134.67  8.4690184E-01
   7135.00  8.6974187E-01
   7135.33  8.8627907E-01
   7135.67  8.9525622E-01
   7136.00  8.9610117E-01
   7136.33  8.8831381E-01
   7136.67  8.7398075E-01
   7137.00  8.5427296E-01
   7137.33  8.3017854E-01
   7137.67  8.0376335E-01
   7138.00  7.7645271E-01
   7138.33  7.4998083E-01
   7138.67  7.2565452E-01
   7139.00  7.0433767E-01
   7139.33  6.8704346E-01
   7139.67  6.7348326E-01
   7140.00  6.6355465E-01
   7140.33  6.5737043E-01
   7140.67  6.5407454E-01
   7141.00  6.5320126E-01
   7141.33  6.5432902E-01
   7141.67  6.5648571E-01
   7142.00  6.5896093E-01
   7142.33  6.6083490E-01
   7142.67  6.6138573E-01
   7143.00  6.6007385E-01
   7143.33  6.5623966E-01
   7143.67  6.5008372E-01
   7144.00  6.4173038E-01
   7144.33  6.3123906E-01
   7144.67  6.1926314E-01
   7145.00  6.0620534E-01
   7145.33  5.9245136E-01
   7145.67  5.7849446E-01
   7146.00  5.6463706E-01
   7146.33  5.5120938E-01
   7146.67  5.3837449E-01
   7147.00  5.2626276E-01
   7147.33  5.1507913E-01
   7147.67  5.0477892E-01
   7148.00  4.9538560E-01
   7148.33  4.8702119E-01
   7148.67  4.7957395E-01
   7149.00  4.7303458E-01
   7149.33  4.6748287E-01
   7149.67  4.6277347E-01
   7150.00  4.5887545E-01
   7150.33  4.5584992E-01
   7150.67  4.5356666E-01
   7151.00  4.5200056E-01
   7151.33  4.5121089E-01
   7151.67  4.5108243E-01
   7152.00  4.5159016E-01
   7152.33  4.5278078E-01
   7152.67  4.5454297E-01
   7153.00  4.5683750E-01
   7153.33  4.5966404E-01
   7153.67  4.6288697E-01
   7154.00  4.6642744E-01
   7154.33  4.7020856E-01
   7154.67  4.7409213E-01
   7155.00  4.7798072E-01
   7155.33  4.8175168E-01
   7155.67  4.8531823E-01
   7156.00  4.8860582E-01
   7156.33  4.9150057E-01
   7156.67  4.9399623E-01
   7157.00  4.9606724E-01
   7157.33  4.9764948E-01
   7157.67  4.9880680E-01
   7158.00  4.9955997E-01
   7158.33  4.9989738E-01
   7158.67  4.9990574E-01
   7159.00  4.9962076E-01
   7159.33  4.9905060E-01
   7159.67  4.9826262E-01
   7160.00  4.9728227E-01
   7160.33  4.9611216E-01
   7160.67  4.9479331E-01
   7161.00  4.9334154E-01
   7161.33  4.9176157E-01
   7161.67  4.9008965E-01
   7162.00  4.8834862E-01
   7162.33  4.8656548E-01
   7162.67  4.8478144E-01
   7163.00  4.8302991E-01
   7163.33  4.8135549E-01
   7163.67  4.7977415E-01
   7164.00  4.7829547E-01
   7164.33  4.7694266E-01
   7164.67  4.7570692E-01
   7165.00  4.7458611E-01
   7165.33  4.7358362E-01
   7165.67  4.7267100E-01
   7166.00  4.7183292E-01
   7166.33  4.7105728E-01
   7166.67  4.7031700E-01
   7167.00  4.6959445E-01
   7167.33  4.6886997E-01
   7167.67  4.6812656E-01
   7168.00  4.6735148E-01
   7168.33  4.6652927E-01
   7168.67  4.6566399E-01
   7169.00  4.6475715E-01
   7169.33  4.6380867E-01
   7169.67  4.6283427E-01
   7170.00  4.6184803E-01
   7170.33  4.6087210E-01
   7170.67  4.5993036E-01
   7171.00  4.5904649E-01
   7171.33  4.5826066E-01
   7171.67  4.5759247E-01
   7172.00  4.5706672E-01
