    FDMNES
    energy     <xanes>
   7097.00  4.2648247E-03
   7097.33  4.3597568E-03
   7097.67  4.4589143E-03
   7098.00  4.5625910E-03
   7098.33  4.6717795E-03
   7098.67  4.7862936E-03
   7099.00  4.9065401E-03
   7099.33  5.0338336E-03
   7099.67  5.1679926E-03
   7100.00  5.3095979E-03
   7100.33  5.4604427E-03
   7100.67  5.6203786E-03
   7101.00  5.7902638E-03
   7101.33  5.9726321E-03
   7101.67  6.1674302E-03
   7102.00  6.3759792E-03
   7102.33  6.6020154E-03
   7102.67  6.8457172E-03
   7103.00  7.1092225E-03
   7103.33  7.3983329E-03
   7103.67  7.7137757E-03
   7104.00  8.0592283E-03
   7104.33  8.4442966E-03
   7104.67  8.8710385E-03
   7105.00  9.3462831E-03
   7105.33  9.8872969E-03
   7105.67  1.0499571E-02
   7106.00  1.1197124E-02
   7106.33  1.2014552E-02
   7106.67  1.2967213E-02
   7107.00  1.4088086E-02
   7107.33  1.5457811E-02
   7107.67  1.7125245E-02
   7108.00  1.9184934E-02
   7108.33  2.1872322E-02
   7108.67  2.5384065E-02
   7109.00  3.0089348E-02
   7109.33  3.6976210E-02
   7109.67  4.7227883E-02
   7110.00  6.3178298E-02
   7110.33  9.1511470E-02
   7110.67  1.3805757E-01
   7111.00  1.9766714E-01
   7111.33  2.4181055E-01
   7111.67  2.7043767E-01
   7112.00  2.8186182E-01
   7112.33  2.7470059E-01
   7112.67  2.6242915E-01
   7113.00  2.4589555E-01
   7113.33  2.2862939E-01
   7113.67  2.0052929E-01
   7114.00  1.5983012E-01
   7114.33  1.2399383E-01
   7114.67  9.8770324E-02
   7115.00  8.2606068E-02
   7115.33  7.4779854E-02
   7115.67  7.1555943E-02
   7116.00  6.9026333E-02
   7116.33  6.4861345E-02
   7116.67  6.0052740E-02
   7117.00  5.5096639E-02
   7117.33  5.0578393E-02
   7117.67  4.6989571E-02
   7118.00  4.4422735E-02
   7118.33  4.2829127E-02
   7118.67  4.1868037E-02
   7119.00  4.1334753E-02
   7119.33  4.1082692E-02
   7119.67  4.1048302E-02
   7120.00  4.1331437E-02
   7120.33  4.2185539E-02
   7120.67  4.3726329E-02
   7121.00  4.6061048E-02
   7121.33  4.9350203E-02
   7121.67  5.3519847E-02
   7122.00  5.8691924E-02
   7122.33  6.5319963E-02
   7122.67  7.3619035E-02
   7123.00  8.3971619E-02
   7123.33  9.7331067E-02
   7123.67  1.1438866E-01
   7124.00  1.3648359E-01
   7124.33  1.6648480E-01
   7124.67  2.0513366E-01
   7125.00  2.5166849E-01
   7125.33  2.9975235E-01
   7125.67  3.3996150E-01
   7126.00  3.7067769E-01
   7126.33  3.9553834E-01
   7126.67  4.1585697E-01
   7127.00  4.2864537E-01
   7127.33  4.3038482E-01
   7127.67  4.2458693E-01
   7128.00  4.1648737E-01
   7128.33  4.1262163E-01
   7128.67  4.1460617E-01
   7129.00  4.2167566E-01
   7129.33  4.3444589E-01
   7129.67  4.5484116E-01
   7130.00  4.8578504E-01
   7130.33  5.3024817E-01
   7130.67  5.8472537E-01
   7131.00  6.4530334E-01
   7131.33  7.0804059E-01
   7131.67  7.7094356E-01
   7132.00  8.3317801E-01
   7132.33  8.9282259E-01
   7132.67  9.4863137E-01
   7133.00  9.9954858E-01
   7133.33  1.0414708E+00
   7133.67  1.0686174E+00
   7134.00  1.0754494E+00
   7134.33  1.0605464E+00
   7134.67  1.0344230E+00
   7135.00  1.0042828E+00
   7135.33  9.7536446E-01
   7135.67  9.4881380E-01
   7136.00  9.2415889E-01
   7136.33  9.0173200E-01
   7136.67  8.8158227E-01
   7137.00  8.6228813E-01
   7137.33  8.4062670E-01
   7137.67  8.1582657E-01
   7138.00  7.8912165E-01
   7138.33  7.6257285E-01
   7138.67  7.3762058E-01
   7139.00  7.1494838E-01
   7139.33  6.9529502E-01
   7139.67  6.7851525E-01
   7140.00  6.6465444E-01
   7140.33  6.5392670E-01
   7140.67  6.4556803E-01
   7141.00  6.3896993E-01
   7141.33  6.3331851E-01
   7141.67  6.2760745E-01
   7142.00  6.2133639E-01
   7142.33  6.1430969E-01
   7142.67  6.0691843E-01
   7143.00  5.9960341E-01
   7143.33  5.9291567E-01
   7143.67  5.8706862E-01
   7144.00  5.8211865E-01
   7144.33  5.7807537E-01
   7144.67  5.7467823E-01
   7145.00  5.7181647E-01
   7145.33  5.6952784E-01
   7145.67  5.6786144E-01
   7146.00  5.6700728E-01
   7146.33  5.6736284E-01
   7146.67  5.6900252E-01
   7147.00  5.7197966E-01
   7147.33  5.7628033E-01
   7147.67  5.8132829E-01
   7148.00  5.8658529E-01
   7148.33  5.9132299E-01
   7148.67  5.9505066E-01
   7149.00  5.9749421E-01
   7149.33  5.9842904E-01
   7149.67  5.9818022E-01
   7150.00  5.9695864E-01
   7150.33  5.9489282E-01
   7150.67  5.9218933E-01
   7151.00  5.8882470E-01
   7151.33  5.8452084E-01
   7151.67  5.7911801E-01
   7152.00  5.7237577E-01
   7152.33  5.6385086E-01
   7152.67  5.5359436E-01
   7153.00  5.4159916E-01
   7153.33  5.2779768E-01
   7153.67  5.1264401E-01
   7154.00  4.9642323E-01
   7154.33  4.7941295E-01
   7154.67  4.6206000E-01
   7155.00  4.4464335E-01
   7155.33  4.2746263E-01
   7155.67  4.1070593E-01
   7156.00  3.9451368E-01
   7156.33  3.7909484E-01
   7156.67  3.6445017E-01
   7157.00  3.5062609E-01
   7157.33  3.3776243E-01
   7157.67  3.2577359E-01
   7158.00  3.1467238E-01
   7158.33  3.0458153E-01
   7158.67  2.9539572E-01
   7159.00  2.8711657E-01
   7159.33  2.7984793E-01
   7159.67  2.7345522E-01
   7160.00  2.6790801E-01
   7160.33  2.6325930E-01
   7160.67  2.5935668E-01
   7161.00  2.5615825E-01
   7161.33  2.5371276E-01
   7161.67  2.5192446E-01
   7162.00  2.5079943E-01
   7162.33  2.5043640E-01
   7162.67  2.5076658E-01
   7163.00  2.5179501E-01
   7163.33  2.5360158E-01
   7163.67  2.5607199E-01
   7164.00  2.5916102E-01
   7164.33  2.6286350E-01
   7164.67  2.6702285E-01
   7165.00  2.7155689E-01
   7165.33  2.7640376E-01
   7165.67  2.8144121E-01
   7166.00  2.8660430E-01
   7166.33  2.9183590E-01
   7166.67  2.9707505E-01
   7167.00  3.0228519E-01
   7167.33  3.0742778E-01
   7167.67  3.1249206E-01
   7168.00  3.1747244E-01
   7168.33  3.2236331E-01
   7168.67  3.2718814E-01
   7169.00  3.3196342E-01
   7169.33  3.3670788E-01
   7169.67  3.4144565E-01
   7170.00  3.4618818E-01
   7170.33  3.5093653E-01
   7170.67  3.5566988E-01
   7171.00  3.6034353E-01
   7171.33  3.6482482E-01
   7171.67  3.6890898E-01
   7172.00  3.7228806E-01
