    FDMNES
    energy     <xanes>
   7097.00  4.2565332E-03
   7097.33  4.3501893E-03
   7097.67  4.4479744E-03
   7098.00  4.5501751E-03
   7098.33  4.6577603E-03
   7098.67  4.7705471E-03
   7099.00  4.8889327E-03
   7099.33  5.0142006E-03
   7099.67  5.1461736E-03
   7100.00  5.2854194E-03
   7100.33  5.4336905E-03
   7100.67  5.5908439E-03
   7101.00  5.7577204E-03
   7101.33  5.9368009E-03
   7101.67  6.1280390E-03
   7102.00  6.3327336E-03
   7102.33  6.5545529E-03
   7102.67  6.7936863E-03
   7103.00  7.0522454E-03
   7103.33  7.3359493E-03
   7103.67  7.6455466E-03
   7104.00  7.9846911E-03
   7104.33  8.3629075E-03
   7104.67  8.7823057E-03
   7105.00  9.2497242E-03
   7105.33  9.7824192E-03
   7105.67  1.0386039E-02
   7106.00  1.1074762E-02
   7106.33  1.1883534E-02
   7106.67  1.2828269E-02
   7107.00  1.3942754E-02
   7107.33  1.5309595E-02
   7107.67  1.6979980E-02
   7108.00  1.9052363E-02
   7108.33  2.1772299E-02
   7108.67  2.5348845E-02
   7109.00  3.0173873E-02
   7109.33  3.7299697E-02
   7109.67  4.8003947E-02
   7110.00  6.4811112E-02
   7110.33  9.4995744E-02
   7110.67  1.4518624E-01
   7111.00  2.1067371E-01
   7111.33  2.5765169E-01
   7111.67  2.7158570E-01
   7112.00  2.5642656E-01
   7112.33  2.3589139E-01
   7112.67  2.1837955E-01
   7113.00  2.0999810E-01
   7113.33  2.0159833E-01
   7113.67  1.7543537E-01
   7114.00  1.4087552E-01
   7114.33  1.1257695E-01
   7114.67  9.2020489E-02
   7115.00  7.8452974E-02
   7115.33  7.0946603E-02
   7115.67  6.5830242E-02
   7116.00  6.1344314E-02
   7116.33  5.7438537E-02
   7116.67  5.3913862E-02
   7117.00  5.0162428E-02
   7117.33  4.6438478E-02
   7117.67  4.3501356E-02
   7118.00  4.1602517E-02
   7118.33  4.0681407E-02
   7118.67  4.0261638E-02
   7119.00  4.0071332E-02
   7119.33  4.0032449E-02
   7119.67  4.0262000E-02
   7120.00  4.0954201E-02
   7120.33  4.2379546E-02
   7120.67  4.4535560E-02
   7121.00  4.7407894E-02
   7121.33  5.1101315E-02
   7121.67  5.5704717E-02
   7122.00  6.1469671E-02
   7122.33  6.8891729E-02
   7122.67  7.8156108E-02
   7123.00  8.9752839E-02
   7123.33  1.0502130E-01
   7123.67  1.2494199E-01
   7124.00  1.5103146E-01
   7124.33  1.8607247E-01
   7124.67  2.2950628E-01
   7125.00  2.7822483E-01
   7125.33  3.2219660E-01
   7125.67  3.5412752E-01
   7126.00  3.7594113E-01
   7126.33  3.9185692E-01
   7126.67  4.0340417E-01
   7127.00  4.1062657E-01
   7127.33  4.1381734E-01
   7127.67  4.1429116E-01
   7128.00  4.1363409E-01
   7128.33  4.1411167E-01
   7128.67  4.1735908E-01
   7129.00  4.2566247E-01
   7129.33  4.4401686E-01
   7129.67  4.7526054E-01
   7130.00  5.2155989E-01
   7130.33  5.8437102E-01
   7130.67  6.5721037E-01
   7131.00  7.3317474E-01
   7131.33  8.0379436E-01
   7131.67  8.6559975E-01
   7132.00  9.1872720E-01
   7132.33  9.6497934E-01
   7132.67  1.0069094E+00
   7133.00  1.0425743E+00
   7133.33  1.0633799E+00
   7133.67  1.0648563E+00
   7134.00  1.0485308E+00
   7134.33  1.0218910E+00
   7134.67  9.9501146E-01
   7135.00  9.7257138E-01
   7135.33  9.5673554E-01
   7135.67  9.4501264E-01
   7136.00  9.3527008E-01
   7136.33  9.2566042E-01
   7136.67  9.1368998E-01
   7137.00  8.9651141E-01
   7137.33  8.7213763E-01
   7137.67  8.4336965E-01
   7138.00  8.1267468E-01
   7138.33  7.8222354E-01
   7138.67  7.5323599E-01
   7139.00  7.2631922E-01
   7139.33  7.0217035E-01
   7139.67  6.8063229E-01
   7140.00  6.6168524E-01
   7140.33  6.4547379E-01
   7140.67  6.3143177E-01
   7141.00  6.1928691E-01
   7141.33  6.0890190E-01
   7141.67  5.9978595E-01
   7142.00  5.9176965E-01
   7142.33  5.8486081E-01
   7142.67  5.7884706E-01
   7143.00  5.7366073E-01
   7143.33  5.6930698E-01
   7143.67  5.6559460E-01
   7144.00  5.6244838E-01
   7144.33  5.5988990E-01
   7144.67  5.5788308E-01
   7145.00  5.5651569E-01
   7145.33  5.5604504E-01
   7145.67  5.5655553E-01
   7146.00  5.5819823E-01
   7146.33  5.6126937E-01
   7146.67  5.6567203E-01
   7147.00  5.7136553E-01
   7147.33  5.7828335E-01
   7147.67  5.8587710E-01
   7148.00  5.9362767E-01
   7148.33  6.0076018E-01
   7148.67  6.0665444E-01
   7149.00  6.1083847E-01
   7149.33  6.1274074E-01
   7149.67  6.1256710E-01
   7150.00  6.1045850E-01
   7150.33  6.0648918E-01
   7150.67  6.0115710E-01
   7151.00  5.9465836E-01
   7151.33  5.8699923E-01
   7151.67  5.7835768E-01
   7152.00  5.6873067E-01
   7152.33  5.5796794E-01
   7152.67  5.4618229E-01
   7153.00  5.3339210E-01
   7153.33  5.1955366E-01
   7153.67  5.0490468E-01
   7154.00  4.8957599E-01
   7154.33  4.7367824E-01
   7154.67  4.5745869E-01
   7155.00  4.4107193E-01
   7155.33  4.2468350E-01
   7155.67  4.0843979E-01
   7156.00  3.9244957E-01
   7156.33  3.7686792E-01
   7156.67  3.6175247E-01
   7157.00  3.4718625E-01
   7157.33  3.3332791E-01
   7157.67  3.2016757E-01
   7158.00  3.0776007E-01
   7158.33  2.9626664E-01
   7158.67  2.8564290E-01
   7159.00  2.7593377E-01
   7159.33  2.6730082E-01
   7159.67  2.5965676E-01
   7160.00  2.5302326E-01
   7160.33  2.4754654E-01
   7160.67  2.4310671E-01
   7161.00  2.3970286E-01
   7161.33  2.3745015E-01
   7161.67  2.3619403E-01
   7162.00  2.3589893E-01
   7162.33  2.3662007E-01
   7162.67  2.3817361E-01
   7163.00  2.4048332E-01
   7163.33  2.4352879E-01
   7163.67  2.4713547E-01
   7164.00  2.5122919E-01
   7164.33  2.5577286E-01
   7164.67  2.6063056E-01
   7165.00  2.6573282E-01
   7165.33  2.7102649E-01
   7165.67  2.7642650E-01
   7166.00  2.8189211E-01
   7166.33  2.8739515E-01
   7166.67  2.9291204E-01
   7167.00  2.9843445E-01
   7167.33  3.0396095E-01
   7167.67  3.0949324E-01
   7168.00  3.1503273E-01
   7168.33  3.2058176E-01
   7168.67  3.2614005E-01
   7169.00  3.3170663E-01
   7169.33  3.3727823E-01
   7169.67  3.4284549E-01
   7170.00  3.4839491E-01
   7170.33  3.5389569E-01
   7170.67  3.5931047E-01
   7171.00  3.6457816E-01
   7171.33  3.6954019E-01
   7171.67  3.7399992E-01
   7172.00  3.7765503E-01
