    FDMNES
    energy     <xanes>
   7097.00  4.1995417E-03
   7097.33  4.2838910E-03
   7097.67  4.3715198E-03
   7098.00  4.4626310E-03
   7098.33  4.5579525E-03
   7098.67  4.6573057E-03
   7099.00  4.7609651E-03
   7099.33  4.8698691E-03
   7099.67  4.9838344E-03
   7100.00  5.1032439E-03
   7100.33  5.2293427E-03
   7100.67  5.3619582E-03
   7101.00  5.5016442E-03
   7101.33  5.6501117E-03
   7101.67  5.8072337E-03
   7102.00  5.9738461E-03
   7102.33  6.1524033E-03
   7102.67  6.3429033E-03
   7103.00  6.5466742E-03
   7103.33  6.7674295E-03
   7103.67  7.0054772E-03
   7104.00  7.2630655E-03
   7104.33  7.5462013E-03
   7104.67  7.8559603E-03
   7105.00  8.1964658E-03
   7105.33  8.5783021E-03
   7105.67  9.0045532E-03
   7106.00  9.4836051E-03
   7106.33  1.0036348E-02
   7106.67  1.0671684E-02
   7107.00  1.1409244E-02
   7107.33  1.2297274E-02
   7107.67  1.3364577E-02
   7108.00  1.4667453E-02
   7108.33  1.6346525E-02
   7108.67  1.8519307E-02
   7109.00  2.1407324E-02
   7109.33  2.5605700E-02
   7109.67  3.1833310E-02
   7110.00  4.1512042E-02
   7110.33  5.8701910E-02
   7110.67  8.6662550E-02
   7111.00  1.2086206E-01
   7111.33  1.4204916E-01
   7111.67  1.5434497E-01
   7112.00  1.6504911E-01
   7112.33  1.7362798E-01
   7112.67  1.7176011E-01
   7113.00  1.5717998E-01
   7113.33  1.3480338E-01
   7113.67  1.1165048E-01
   7114.00  9.3149244E-02
   7114.33  7.9352070E-02
   7114.67  6.6752400E-02
   7115.00  5.5274099E-02
   7115.33  4.7473705E-02
   7115.67  4.2895289E-02
   7116.00  4.0630342E-02
   7116.33  4.0139501E-02
   7116.67  4.0836229E-02
   7117.00  4.2527314E-02
   7117.33  4.5152778E-02
   7117.67  4.8395564E-02
   7118.00  5.1854135E-02
   7118.33  5.5064580E-02
   7118.67  5.8495241E-02
   7119.00  6.2770200E-02
   7119.33  6.8016620E-02
   7119.67  7.3494376E-02
   7120.00  7.8577634E-02
   7120.33  8.2907927E-02
   7120.67  8.6985710E-02
   7121.00  9.1511934E-02
   7121.33  9.7479721E-02
   7121.67  1.0536695E-01
   7122.00  1.1556459E-01
   7122.33  1.2884474E-01
   7122.67  1.4540442E-01
   7123.00  1.6572207E-01
   7123.33  1.9056409E-01
   7123.67  2.1908684E-01
   7124.00  2.5054735E-01
   7124.33  2.8425030E-01
   7124.67  3.1936341E-01
   7125.00  3.5565950E-01
   7125.33  3.9302152E-01
   7125.67  4.3067760E-01
   7126.00  4.6688534E-01
   7126.33  4.9745120E-01
   7126.67  5.2157626E-01
   7127.00  5.4233873E-01
   7127.33  5.6543089E-01
   7127.67  5.9394056E-01
   7128.00  6.2905902E-01
   7128.33  6.7269796E-01
   7128.67  7.2436121E-01
   7129.00  7.8280086E-01
   7129.33  8.4351617E-01
   7129.67  8.9875414E-01
   7130.00  9.4264660E-01
   7130.33  9.7065086E-01
   7130.67  9.8609759E-01
   7131.00  9.9169108E-01
   7131.33  9.8917517E-01
   7131.67  9.8116533E-01
   7132.00  9.6874945E-01
   7132.33  9.5273047E-01
   7132.67  9.3461639E-01
   7133.00  9.1511866E-01
   7133.33  8.9477255E-01
   7133.67  8.7453679E-01
   7134.00  8.5538708E-01
   7134.33  8.3802902E-01
   7134.67  8.2149219E-01
   7135.00  8.0463284E-01
   7135.33  7.8632773E-01
   7135.67  7.6647278E-01
   7136.00  7.4530211E-01
   7136.33  7.2331939E-01
   7136.67  7.0134714E-01
   7137.00  6.7998840E-01
   7137.33  6.5995697E-01
   7137.67  6.4148131E-01
   7138.00  6.2473165E-01
   7138.33  6.0997669E-01
   7138.67  5.9694538E-01
   7139.00  5.8556806E-01
   7139.33  5.7595311E-01
   7139.67  5.6782109E-01
   7140.00  5.6110551E-01
   7140.33  5.5589965E-01
   7140.67  5.5196119E-01
   7141.00  5.4922358E-01
   7141.33  5.4774290E-01
   7141.67  5.4728743E-01
   7142.00  5.4777114E-01
   7142.33  5.4919480E-01
   7142.67  5.5134104E-01
   7143.00  5.5409172E-01
   7143.33  5.5734096E-01
   7143.67  5.6084857E-01
   7144.00  5.6443748E-01
   7144.33  5.6787126E-01
   7144.67  5.7096984E-01
   7145.00  5.7361505E-01
   7145.33  5.7565151E-01
   7145.67  5.7709588E-01
   7146.00  5.7793293E-01
   7146.33  5.7809835E-01
   7146.67  5.7769184E-01
   7147.00  5.7672958E-01
   7147.33  5.7515108E-01
   7147.67  5.7302451E-01
   7148.00  5.7033980E-01
   7148.33  5.6700599E-01
   7148.67  5.6307740E-01
   7149.00  5.5854549E-01
   7149.33  5.5333720E-01
   7149.67  5.4754524E-01
   7150.00  5.4119674E-01
   7150.33  5.3426966E-01
   7150.67  5.2687658E-01
   7151.00  5.1905945E-01
   7151.33  5.1081854E-01
   7151.67  5.0224446E-01
   7152.00  4.9336391E-01
   7152.33  4.8415899E-01
   7152.67  4.7467512E-01
   7153.00  4.6491655E-01
   7153.33  4.5485399E-01
   7153.67  4.4453055E-01
   7154.00  4.3396312E-01
   7154.33  4.2315496E-01
   7154.67  4.1217336E-01
   7155.00  4.0106494E-01
   7155.33  3.8989089E-01
   7155.67  3.7874228E-01
   7156.00  3.6770360E-01
   7156.33  3.5691416E-01
   7156.67  3.4647003E-01
   7157.00  3.3648323E-01
   7157.33  3.2716150E-01
   7157.67  3.1856618E-01
   7158.00  3.1080710E-01
   7158.33  3.0411302E-01
   7158.67  2.9844879E-01
   7159.00  2.9385822E-01
   7159.33  2.9049279E-01
   7159.67  2.8819498E-01
   7160.00  2.8692025E-01
   7160.33  2.8670970E-01
   7160.67  2.8735366E-01
   7161.00  2.8877224E-01
   7161.33  2.9095943E-01
   7161.67  2.9374064E-01
   7162.00  2.9704993E-01
   7162.33  3.0088280E-01
   7162.67  3.0512096E-01
   7163.00  3.0970709E-01
   7163.33  3.1460810E-01
   7163.67  3.1971682E-01
   7164.00  3.2497002E-01
   7164.33  3.3030350E-01
   7164.67  3.3563488E-01
   7165.00  3.4090921E-01
   7165.33  3.4605897E-01
   7165.67  3.5105531E-01
   7166.00  3.5587163E-01
   7166.33  3.6046447E-01
   7166.67  3.6485187E-01
   7167.00  3.6903496E-01
   7167.33  3.7299544E-01
   7167.67  3.7677042E-01
   7168.00  3.8037537E-01
   7168.33  3.8381247E-01
   7168.67  3.8712192E-01
   7169.00  3.9032133E-01
   7169.33  3.9341816E-01
   7169.67  3.9643992E-01
   7170.00  3.9939678E-01
   7170.33  4.0228675E-01
   7170.67  4.0511183E-01
   7171.00  4.0785295E-01
   7171.33  4.1043984E-01
   7171.67  4.1277653E-01
   7172.00  4.1470593E-01
