    FDMNES
    energy     <xanes>
   7097.00  4.0382962E-03
   7097.33  4.1155776E-03
   7097.67  4.1957458E-03
   7098.00  4.2789757E-03
   7098.33  4.3659027E-03
   7098.67  4.4563655E-03
   7099.00  4.5506010E-03
   7099.33  4.6494259E-03
   7099.67  4.7526753E-03
   7100.00  4.8606798E-03
   7100.33  4.9745216E-03
   7100.67  5.0940458E-03
   7101.00  5.2197316E-03
   7101.33  5.3530659E-03
   7101.67  5.4939356E-03
   7102.00  5.6430666E-03
   7102.33  5.8025956E-03
   7102.67  5.9725229E-03
   7103.00  6.1540090E-03
   7103.33  6.3502986E-03
   7103.67  6.5616750E-03
   7104.00  6.7901188E-03
   7104.33  7.0409128E-03
   7104.67  7.3150459E-03
   7105.00  7.6161885E-03
   7105.33  7.9537433E-03
   7105.67  8.3305598E-03
   7106.00  8.7542067E-03
   7106.33  9.2435032E-03
   7106.67  9.8067546E-03
   7107.00  1.0461985E-02
   7107.33  1.1253470E-02
   7107.67  1.2208442E-02
   7108.00  1.3379664E-02
   7108.33  1.4899123E-02
   7108.67  1.6879675E-02
   7109.00  1.9533446E-02
   7109.33  2.3431890E-02
   7109.67  2.9274460E-02
   7110.00  3.8446211E-02
   7110.33  5.4945132E-02
   7110.67  8.2382008E-02
   7111.00  1.1786752E-01
   7111.33  1.4053121E-01
   7111.67  1.4303999E-01
   7112.00  1.3584720E-01
   7112.33  1.2321585E-01
   7112.67  1.0622919E-01
   7113.00  9.2579970E-02
   7113.33  8.8495781E-02
   7113.67  9.2497267E-02
   7114.00  9.5329379E-02
   7114.33  8.3346181E-02
   7114.67  6.4275400E-02
   7115.00  4.8963223E-02
   7115.33  4.0415879E-02
   7115.67  3.5636984E-02
   7116.00  3.3153238E-02
   7116.33  3.2188650E-02
   7116.67  3.2071350E-02
   7117.00  3.2535470E-02
   7117.33  3.3441599E-02
   7117.67  3.4692595E-02
   7118.00  3.6353019E-02
   7118.33  3.8631150E-02
   7118.67  4.1630210E-02
   7119.00  4.5506642E-02
   7119.33  5.0456509E-02
   7119.67  5.6084260E-02
   7120.00  6.1767477E-02
   7120.33  6.6642325E-02
   7120.67  7.0708392E-02
   7121.00  7.4536809E-02
   7121.33  7.9089048E-02
   7121.67  8.4973937E-02
   7122.00  9.2587972E-02
   7122.33  1.0256098E-01
   7122.67  1.1497992E-01
   7123.00  1.3010152E-01
   7123.33  1.4837886E-01
   7123.67  1.6957433E-01
   7124.00  1.9462789E-01
   7124.33  2.2595576E-01
   7124.67  2.6270188E-01
   7125.00  3.0198976E-01
   7125.33  3.3748839E-01
   7125.67  3.6396277E-01
   7126.00  3.7972645E-01
   7126.33  3.8686283E-01
   7126.67  3.9338444E-01
   7127.00  4.0572091E-01
   7127.33  4.2877774E-01
   7127.67  4.6073994E-01
   7128.00  4.9944607E-01
   7128.33  5.4265776E-01
   7128.67  5.8781810E-01
   7129.00  6.3404506E-01
   7129.33  6.8146204E-01
   7129.67  7.3065642E-01
   7130.00  7.8232147E-01
   7130.33  8.3684633E-01
   7130.67  8.9258987E-01
   7131.00  9.4717821E-01
   7131.33  9.9577022E-01
   7131.67  1.0339424E+00
   7132.00  1.0580169E+00
   7132.33  1.0645175E+00
   7132.67  1.0570474E+00
   7133.00  1.0384039E+00
   7133.33  1.0112184E+00
   7133.67  9.8015459E-01
   7134.00  9.4842867E-01
   7134.33  9.1889158E-01
   7134.67  8.9172956E-01
   7135.00  8.6622551E-01
   7135.33  8.4164032E-01
   7135.67  8.1750314E-01
   7136.00  7.9384835E-01
   7136.33  7.7103285E-01
   7136.67  7.4929014E-01
   7137.00  7.2885618E-01
   7137.33  7.1008691E-01
   7137.67  6.9285688E-01
   7138.00  6.7715162E-01
   7138.33  6.6309656E-01
   7138.67  6.5043941E-01
   7139.00  6.3912938E-01
   7139.33  6.2928502E-01
   7139.67  6.2071073E-01
   7140.00  6.1337822E-01
   7140.33  6.0738578E-01
   7140.67  6.0250246E-01
   7141.00  5.9863353E-01
   7141.33  5.9576192E-01
   7141.67  5.9365550E-01
   7142.00  5.9224215E-01
   7142.33  5.9157643E-01
   7142.67  5.9159180E-01
   7143.00  5.9230721E-01
   7143.33  5.9380257E-01
   7143.67  5.9594581E-01
   7144.00  5.9867558E-01
   7144.33  6.0196017E-01
   7144.67  6.0560591E-01
   7145.00  6.0945549E-01
   7145.33  6.1327708E-01
   7145.67  6.1682288E-01
   7146.00  6.1988647E-01
   7146.33  6.2218255E-01
   7146.67  6.2364667E-01
   7147.00  6.2418524E-01
   7147.33  6.2359479E-01
   7147.67  6.2196172E-01
   7148.00  6.1929252E-01
   7148.33  6.1549630E-01
   7148.67  6.1074601E-01
   7149.00  6.0508907E-01
   7149.33  5.9848311E-01
   7149.67  5.9111101E-01
   7150.00  5.8305126E-01
   7150.33  5.7432831E-01
   7150.67  5.6511045E-01
   7151.00  5.5546842E-01
   7151.33  5.4542190E-01
   7151.67  5.3505938E-01
   7152.00  5.2440463E-01
   7152.33  5.1344510E-01
   7152.67  5.0223828E-01
   7153.00  4.9081496E-01
   7153.33  4.7920984E-01
   7153.67  4.6751877E-01
   7154.00  4.5581095E-01
   7154.33  4.4415685E-01
   7154.67  4.3259851E-01
   7155.00  4.2116919E-01
   7155.33  4.0992164E-01
   7155.67  3.9886932E-01
   7156.00  3.8804815E-01
   7156.33  3.7754184E-01
   7156.67  3.6737018E-01
   7157.00  3.5758430E-01
   7157.33  3.4829970E-01
   7157.67  3.3951766E-01
   7158.00  3.3128466E-01
   7158.33  3.2372536E-01
   7158.67  3.1681090E-01
   7159.00  3.1057980E-01
   7159.33  3.0516903E-01
   7159.67  3.0053710E-01
   7160.00  2.9673154E-01
   7160.33  2.9392355E-01
   7160.67  2.9206311E-01
   7161.00  2.9119823E-01
   7161.33  2.9151196E-01
   7161.67  2.9291483E-01
   7162.00  2.9542242E-01
   7162.33  2.9913850E-01
   7162.67  3.0384269E-01
   7163.00  3.0943021E-01
   7163.33  3.1582184E-01
   7163.67  3.2272550E-01
   7164.00  3.2996052E-01
   7164.33  3.3734323E-01
   7164.67  3.4468265E-01
   7165.00  3.5185863E-01
   7165.33  3.5873894E-01
   7165.67  3.6529565E-01
   7166.00  3.7149995E-01
   7166.33  3.7729170E-01
   7166.67  3.8271534E-01
   7167.00  3.8777424E-01
   7167.33  3.9243286E-01
   7167.67  3.9675068E-01
   7168.00  4.0074265E-01
   7168.33  4.0438958E-01
   7168.67  4.0775047E-01
   7169.00  4.1084268E-01
   7169.33  4.1365205E-01
   7169.67  4.1622784E-01
   7170.00  4.1858612E-01
   7170.33  4.2071873E-01
   7170.67  4.2266391E-01
   7171.00  4.2442783E-01
   7171.33  4.2598301E-01
   7171.67  4.2732574E-01
   7172.00  4.2841072E-01
