    FDMNES
    energy     <xanes>
   7097.00  4.3260270E-03
   7097.33  4.4090374E-03
   7097.67  4.4950600E-03
   7098.00  4.5842650E-03
   7098.33  4.6772935E-03
   7098.67  4.7739593E-03
   7099.00  4.8744870E-03
   7099.33  4.9796836E-03
   7099.67  5.0893513E-03
   7100.00  5.2037948E-03
   7100.33  5.3240565E-03
   7100.67  5.4499353E-03
   7101.00  5.5818594E-03
   7101.33  5.7212178E-03
   7101.67  5.8678274E-03
   7102.00  6.0223148E-03
   7102.33  6.1866061E-03
   7102.67  6.3605849E-03
   7103.00  6.5452162E-03
   7103.33  6.7433095E-03
   7103.67  6.9549307E-03
   7104.00  7.1816637E-03
   7104.33  7.4278832E-03
   7104.67  7.6941264E-03
   7105.00  7.9832132E-03
   7105.33  8.3025681E-03
   7105.67  8.6539831E-03
   7106.00  9.0430447E-03
   7106.33  9.4839057E-03
   7106.67  9.9820242E-03
   7107.00  1.0550200E-02
   7107.33  1.1220184E-02
   7107.67  1.2010017E-02
   7108.00  1.2955853E-02
   7108.33  1.4148325E-02
   7108.67  1.5661641E-02
   7109.00  1.7636748E-02
   7109.33  2.0452439E-02
   7109.67  2.4563264E-02
   7110.00  3.0871626E-02
   7110.33  4.1999942E-02
   7110.67  6.0484583E-02
   7111.00  8.4640375E-02
   7111.33  9.6762277E-02
   7111.67  9.4763053E-02
   7112.00  9.4789427E-02
   7112.33  1.0709957E-01
   7112.67  1.1974064E-01
   7113.00  1.1881214E-01
   7113.33  1.0649342E-01
   7113.67  9.4556560E-02
   7114.00  7.9433156E-02
   7114.33  6.2334706E-02
   7114.67  5.1167942E-02
   7115.00  4.5521259E-02
   7115.33  4.3854291E-02
   7115.67  4.4664152E-02
   7116.00  4.7652115E-02
   7116.33  5.3118397E-02
   7116.67  6.0944463E-02
   7117.00  7.1229915E-02
   7117.33  8.4347574E-02
   7117.67  9.9942434E-02
   7118.00  1.1770283E-01
   7118.33  1.3672447E-01
   7118.67  1.5472971E-01
   7119.00  1.6879411E-01
   7119.33  1.7499996E-01
   7119.67  1.7495523E-01
   7120.00  1.7221873E-01
   7120.33  1.7121489E-01
   7120.67  1.7448519E-01
   7121.00  1.8351892E-01
   7121.33  2.0044933E-01
   7121.67  2.2500742E-01
   7122.00  2.5660323E-01
   7122.33  2.9281049E-01
   7122.67  3.2809402E-01
   7123.00  3.5813727E-01
   7123.33  3.7859869E-01
   7123.67  3.8770066E-01
   7124.00  3.8523647E-01
   7124.33  3.8059735E-01
   7124.67  3.8518412E-01
   7125.00  4.0262478E-01
   7125.33  4.3324871E-01
   7125.67  4.7128960E-01
   7126.00  5.1259685E-01
   7126.33  5.5364991E-01
   7126.67  5.9372556E-01
   7127.00  6.3393759E-01
   7127.33  6.7394209E-01
   7127.67  7.1102131E-01
   7128.00  7.4498659E-01
   7128.33  7.7565543E-01
   7128.67  7.9930215E-01
   7129.00  8.1134228E-01
   7129.33  8.0724804E-01
   7129.67  7.9042981E-01
   7130.00  7.6567579E-01
   7130.33  7.4019462E-01
   7130.67  7.1947834E-01
   7131.00  7.0523779E-01
   7131.33  6.9759714E-01
   7131.67  6.9375233E-01
   7132.00  6.9178184E-01
   7132.33  6.9068940E-01
   7132.67  6.9090056E-01
   7133.00  6.9312832E-01
   7133.33  6.9698021E-01
   7133.67  7.0047624E-01
   7134.00  7.0309072E-01
   7134.33  7.0590173E-01
   7134.67  7.0818367E-01
   7135.00  7.0697457E-01
   7135.33  6.9897711E-01
   7135.67  6.8581844E-01
   7136.00  6.7007271E-01
   7136.33  6.5495164E-01
   7136.67  6.4268207E-01
   7137.00  6.3439113E-01
   7137.33  6.3106622E-01
   7137.67  6.3184393E-01
   7138.00  6.3604708E-01
   7138.33  6.4290501E-01
   7138.67  6.5092663E-01
   7139.00  6.5909975E-01
   7139.33  6.6626979E-01
   7139.67  6.7175733E-01
   7140.00  6.7513496E-01
   7140.33  6.7589073E-01
   7140.67  6.7430829E-01
   7141.00  6.7046682E-01
   7141.33  6.6421692E-01
   7141.67  6.5594539E-01
   7142.00  6.4576017E-01
   7142.33  6.3358657E-01
   7142.67  6.1981338E-01
   7143.00  6.0459200E-01
   7143.33  5.8795282E-01
   7143.67  5.7027636E-01
   7144.00  5.5180488E-01
   7144.33  5.3285280E-01
   7144.67  5.1393680E-01
   7145.00  4.9550951E-01
   7145.33  4.7825366E-01
   7145.67  4.6255586E-01
   7146.00  4.4877417E-01
   7146.33  4.3744126E-01
   7146.67  4.2834607E-01
   7147.00  4.2138191E-01
   7147.33  4.1650435E-01
   7147.67  4.1310782E-01
   7148.00  4.1085541E-01
   7148.33  4.0950312E-01
   7148.67  4.0868831E-01
   7149.00  4.0824162E-01
   7149.33  4.0803228E-01
   7149.67  4.0789359E-01
   7150.00  4.0770738E-01
   7150.33  4.0732468E-01
   7150.67  4.0666555E-01
   7151.00  4.0566481E-01
   7151.33  4.0420922E-01
   7151.67  4.0229826E-01
   7152.00  3.9989933E-01
   7152.33  3.9693271E-01
   7152.67  3.9347529E-01
   7153.00  3.8956615E-01
   7153.33  3.8523549E-01
   7153.67  3.8063403E-01
   7154.00  3.7586295E-01
   7154.33  3.7103569E-01
   7154.67  3.6626231E-01
   7155.00  3.6160655E-01
   7155.33  3.5712568E-01
   7155.67  3.5279948E-01
   7156.00  3.4860161E-01
   7156.33  3.4449797E-01
   7156.67  3.4043839E-01
   7157.00  3.3640493E-01
   7157.33  3.3240730E-01
   7157.67  3.2847767E-01
   7158.00  3.2466818E-01
   7158.33  3.2108101E-01
   7158.67  3.1777799E-01
   7159.00  3.1483307E-01
   7159.33  3.1237975E-01
   7159.67  3.1043036E-01
   7160.00  3.0903073E-01
   7160.33  3.0829367E-01
   7160.67  3.0817773E-01
   7161.00  3.0870962E-01
   7161.33  3.1000564E-01
   7161.67  3.1201432E-01
   7162.00  3.1476781E-01
   7162.33  3.1840694E-01
   7162.67  3.2287668E-01
   7163.00  3.2820820E-01
   7163.33  3.3453111E-01
   7163.67  3.4172539E-01
   7164.00  3.4975223E-01
   7164.33  3.5862185E-01
   7164.67  3.6811853E-01
   7165.00  3.7811231E-01
   7165.33  3.8847420E-01
   7165.67  3.9898546E-01
   7166.00  4.0949720E-01
   7166.33  4.1983222E-01
   7166.67  4.2987749E-01
   7167.00  4.3954229E-01
   7167.33  4.4869154E-01
   7167.67  4.5733185E-01
   7168.00  4.6543741E-01
   7168.33  4.7292513E-01
   7168.67  4.7986064E-01
   7169.00  4.8624681E-01
   7169.33  4.9202261E-01
   7169.67  4.9726661E-01
   7170.00  5.0199231E-01
   7170.33  5.0615770E-01
   7170.67  5.0984766E-01
   7171.00  5.1308050E-01
   7171.33  5.1581475E-01
   7171.67  5.1810021E-01
   7172.00  5.1991337E-01
