    FDMNES
    energy     <xanes>
   7097.00  4.2116617E-03
   7097.33  4.2875284E-03
   7097.67  4.3659469E-03
   7098.00  4.4470506E-03
   7098.33  4.5313651E-03
   7098.67  4.6187189E-03
   7099.00  4.7092856E-03
   7099.33  4.8037161E-03
   7099.67  4.9018268E-03
   7100.00  5.0038499E-03
   7100.33  5.1106122E-03
   7100.67  5.2219236E-03
   7101.00  5.3381064E-03
   7101.33  5.4602441E-03
   7101.67  5.5881555E-03
   7102.00  5.7223075E-03
   7102.33  5.8641799E-03
   7102.67  6.0136369E-03
   7103.00  6.1713939E-03
   7103.33  6.3395835E-03
   7103.67  6.5182046E-03
   7104.00  6.7084333E-03
   7104.33  6.9135712E-03
   7104.67  7.1339811E-03
   7105.00  7.3717807E-03
   7105.33  7.6325958E-03
   7105.67  7.9177959E-03
   7106.00  8.2316741E-03
   7106.33  8.5851533E-03
   7106.67  8.9826578E-03
   7107.00  9.4343983E-03
   7107.33  9.9657862E-03
   7107.67  1.0592201E-02
   7108.00  1.1344035E-02
   7108.33  1.2298014E-02
   7108.67  1.3520936E-02
   7109.00  1.5139371E-02
   7109.33  1.7497990E-02
   7109.67  2.1030657E-02
   7110.00  2.6602621E-02
   7110.33  3.6724172E-02
   7110.67  5.3556363E-02
   7111.00  7.4292190E-02
   7111.33  8.2353042E-02
   7111.67  7.5745911E-02
   7112.00  6.3725916E-02
   7112.33  5.3577072E-02
   7112.67  4.6328380E-02
   7113.00  4.1685027E-02
   7113.33  3.9055187E-02
   7113.67  3.6630914E-02
   7114.00  3.4734527E-02
   7114.33  3.3639907E-02
   7114.67  3.2531511E-02
   7115.00  3.2063406E-02
   7115.33  3.2948477E-02
   7115.67  3.4960573E-02
   7116.00  3.7909907E-02
   7116.33  4.1428535E-02
   7116.67  4.4798577E-02
   7117.00  4.7613611E-02
   7117.33  4.9940750E-02
   7117.67  5.2539896E-02
   7118.00  5.6182224E-02
   7118.33  6.1898216E-02
   7118.67  7.0219873E-02
   7119.00  8.1998164E-02
   7119.33  9.9406300E-02
   7119.67  1.2428409E-01
   7120.00  1.5956654E-01
   7120.33  2.1038557E-01
   7120.67  2.7454410E-01
   7121.00  3.4331399E-01
   7121.33  3.9382296E-01
   7121.67  4.1099531E-01
   7122.00  3.9612176E-01
   7122.33  3.6458309E-01
   7122.67  3.3423516E-01
   7123.00  3.0916483E-01
   7123.33  2.9021161E-01
   7123.67  2.7811535E-01
   7124.00  2.7475663E-01
   7124.33  2.8270097E-01
   7124.67  3.0114921E-01
   7125.00  3.3066657E-01
   7125.33  3.7454346E-01
   7125.67  4.3401541E-01
   7126.00  5.1154314E-01
   7126.33  6.1076413E-01
   7126.67  7.2697852E-01
   7127.00  8.5240139E-01
   7127.33  9.6761452E-01
   7127.67  1.0518301E+00
   7128.00  1.0931939E+00
   7128.33  1.0859329E+00
   7128.67  1.0466052E+00
   7129.00  9.8816613E-01
   7129.33  9.2107245E-01
   7129.67  8.5327966E-01
   7130.00  7.8879038E-01
   7130.33  7.3245989E-01
   7130.67  6.8675302E-01
   7131.00  6.5283644E-01
   7131.33  6.3080001E-01
   7131.67  6.1583629E-01
   7132.00  6.0393704E-01
   7132.33  5.9098039E-01
   7132.67  5.7557348E-01
   7133.00  5.5864772E-01
   7133.33  5.4244511E-01
   7133.67  5.2854964E-01
   7134.00  5.1741779E-01
   7134.33  5.0845272E-01
   7134.67  5.0030529E-01
   7135.00  4.9327913E-01
   7135.33  4.8909739E-01
   7135.67  4.8754427E-01
   7136.00  4.8653962E-01
   7136.33  4.8216196E-01
   7136.67  4.7345029E-01
   7137.00  4.6233980E-01
   7137.33  4.5258074E-01
   7137.67  4.4647577E-01
   7138.00  4.4484922E-01
   7138.33  4.4850609E-01
   7138.67  4.5698355E-01
   7139.00  4.7061146E-01
   7139.33  4.9075761E-01
   7139.67  5.1707649E-01
   7140.00  5.4879603E-01
   7140.33  5.8314772E-01
   7140.67  6.1529972E-01
   7141.00  6.4198238E-01
   7141.33  6.6063029E-01
   7141.67  6.7251394E-01
   7142.00  6.7894710E-01
   7142.33  6.8149598E-01
   7142.67  6.8241594E-01
   7143.00  6.8257406E-01
   7143.33  6.8155310E-01
   7143.67  6.7793378E-01
   7144.00  6.7015451E-01
   7144.33  6.5693617E-01
   7144.67  6.4019441E-01
   7145.00  6.2215154E-01
   7145.33  6.0530709E-01
   7145.67  5.9036537E-01
   7146.00  5.7654801E-01
   7146.33  5.6182004E-01
   7146.67  5.4453190E-01
   7147.00  5.2413881E-01
   7147.33  5.0099056E-01
   7147.67  4.7692134E-01
   7148.00  4.5339946E-01
   7148.33  4.3209976E-01
   7148.67  4.1364322E-01
   7149.00  3.9830199E-01
   7149.33  3.8637881E-01
   7149.67  3.7717495E-01
   7150.00  3.7032297E-01
   7150.33  3.6559525E-01
   7150.67  3.6230385E-01
   7151.00  3.6007855E-01
   7151.33  3.5858030E-01
   7151.67  3.5731774E-01
   7152.00  3.5595444E-01
   7152.33  3.5408553E-01
   7152.67  3.5150293E-01
   7153.00  3.4808108E-01
   7153.33  3.4370656E-01
   7153.67  3.3861428E-01
   7154.00  3.3299710E-01
   7154.33  3.2710237E-01
   7154.67  3.2125558E-01
   7155.00  3.1569483E-01
   7155.33  3.1071943E-01
   7155.67  3.0643555E-01
   7156.00  3.0293216E-01
   7156.33  3.0034451E-01
   7156.67  2.9853296E-01
   7157.00  2.9741490E-01
   7157.33  2.9691810E-01
   7157.67  2.9680785E-01
   7158.00  2.9694491E-01
   7158.33  2.9721094E-01
   7158.67  2.9751875E-01
   7159.00  2.9787206E-01
   7159.33  2.9837952E-01
   7159.67  2.9919339E-01
   7160.00  3.0048724E-01
   7160.33  3.0254191E-01
   7160.67  3.0544000E-01
   7161.00  3.0929920E-01
   7161.33  3.1437079E-01
   7161.67  3.2062203E-01
   7162.00  3.2812600E-01
   7162.33  3.3709703E-01
   7162.67  3.4735958E-01
   7163.00  3.5883163E-01
   7163.33  3.7145138E-01
   7163.67  3.8480878E-01
   7164.00  3.9860836E-01
   7164.33  4.1249583E-01
   7164.67  4.2612495E-01
   7165.00  4.3926366E-01
   7165.33  4.5165021E-01
   7165.67  4.6329032E-01
   7166.00  4.7418214E-01
   7166.33  4.8428326E-01
   7166.67  4.9374651E-01
   7167.00  5.0262389E-01
   7167.33  5.1089291E-01
   7167.67  5.1864707E-01
   7168.00  5.2589567E-01
   7168.33  5.3257719E-01
   7168.67  5.3875470E-01
   7169.00  5.4443552E-01
   7169.33  5.4958290E-01
   7169.67  5.5429330E-01
   7170.00  5.5860745E-01
   7170.33  5.6253388E-01
   7170.67  5.6616235E-01
   7171.00  5.6951963E-01
   7171.33  5.7256980E-01
   7171.67  5.7527901E-01
   7172.00  5.7752197E-01
