    FDMNES
    energy     <xanes>
   7097.00  4.5147242E-03
   7097.33  4.6186162E-03
   7097.67  4.7272398E-03
   7098.00  4.8409273E-03
   7098.33  4.9607955E-03
   7098.67  5.0866395E-03
   7099.00  5.2189199E-03
   7099.33  5.3591176E-03
   7099.67  5.5070337E-03
   7100.00  5.6633252E-03
   7100.33  5.8300148E-03
   7100.67  6.0069408E-03
   7101.00  6.1950739E-03
   7101.33  6.3972742E-03
   7101.67  6.6134867E-03
   7102.00  6.8452046E-03
   7102.33  7.0966458E-03
   7102.67  7.3680148E-03
   7103.00  7.6617248E-03
   7103.33  7.9843207E-03
   7103.67  8.3366197E-03
   7104.00  8.7227630E-03
   7104.33  9.1535679E-03
   7104.67  9.6313290E-03
   7105.00  1.0163707E-02
   7105.33  1.0770075E-02
   7105.67  1.1456509E-02
   7106.00  1.2238628E-02
   7106.33  1.3154979E-02
   7106.67  1.4222363E-02
   7107.00  1.5477078E-02
   7107.33  1.7007760E-02
   7107.67  1.8866771E-02
   7108.00  2.1155784E-02
   7108.33  2.4126620E-02
   7108.67  2.7982109E-02
   7109.00  3.3101486E-02
   7109.33  4.0484741E-02
   7109.67  5.1271896E-02
   7110.00  6.7687564E-02
   7110.33  9.6134428E-02
   7110.67  1.4364584E-01
   7111.00  2.1318722E-01
   7111.33  2.9062307E-01
   7111.67  3.5924918E-01
   7112.00  4.0233422E-01
   7112.33  3.7459260E-01
   7112.67  2.9168533E-01
   7113.00  2.0699932E-01
   7113.33  1.5193690E-01
   7113.67  1.1896797E-01
   7114.00  1.0166999E-01
   7114.33  9.6823758E-02
   7114.67  9.8918176E-02
   7115.00  1.0205624E-01
   7115.33  1.0208061E-01
   7115.67  1.0396671E-01
   7116.00  1.1147313E-01
   7116.33  1.2340058E-01
   7116.67  1.3040833E-01
   7117.00  1.2578450E-01
   7117.33  1.1269869E-01
   7117.67  1.0027414E-01
   7118.00  9.1309820E-02
   7118.33  8.6203092E-02
   7118.67  8.3561583E-02
   7119.00  8.2521739E-02
   7119.33  8.2262486E-02
   7119.67  8.2037104E-02
   7120.00  8.1643698E-02
   7120.33  8.1310134E-02
   7120.67  8.1488236E-02
   7121.00  8.2548963E-02
   7121.33  8.4970795E-02
   7121.67  8.8795001E-02
   7122.00  9.4059346E-02
   7122.33  1.0090071E-01
   7122.67  1.0917118E-01
   7123.00  1.1901345E-01
   7123.33  1.3096772E-01
   7123.67  1.4518816E-01
   7124.00  1.6195611E-01
   7124.33  1.8181588E-01
   7124.67  2.0474979E-01
   7125.00  2.3115439E-01
   7125.33  2.6069809E-01
   7125.67  2.9063171E-01
   7126.00  3.1859835E-01
   7126.33  3.4028227E-01
   7126.67  3.5248671E-01
   7127.00  3.5783866E-01
   7127.33  3.6423499E-01
   7127.67  3.7400266E-01
   7128.00  3.8702553E-01
   7128.33  4.0517841E-01
   7128.67  4.2990488E-01
   7129.00  4.6278314E-01
   7129.33  5.0650385E-01
   7129.67  5.6064693E-01
   7130.00  6.2481461E-01
   7130.33  6.9736059E-01
   7130.67  7.7190771E-01
   7131.00  8.4230423E-01
   7131.33  9.0189777E-01
   7131.67  9.5125483E-01
   7132.00  9.9255881E-01
   7132.33  1.0266353E+00
   7132.67  1.0531601E+00
   7133.00  1.0699192E+00
   7133.33  1.0731797E+00
   7133.67  1.0639230E+00
   7134.00  1.0436571E+00
   7134.33  1.0148881E+00
   7134.67  9.8220432E-01
   7135.00  9.4775009E-01
   7135.33  9.1234805E-01
   7135.67  8.7612421E-01
   7136.00  8.3935253E-01
   7136.33  8.0297619E-01
   7136.67  7.6789631E-01
   7137.00  7.3463220E-01
   7137.33  7.0373249E-01
   7137.67  6.7504562E-01
   7138.00  6.4863229E-01
   7138.33  6.2487687E-01
   7138.67  6.0360708E-01
   7139.00  5.8494191E-01
   7139.33  5.6933554E-01
   7139.67  5.5649390E-01
   7140.00  5.4637973E-01
   7140.33  5.3918601E-01
   7140.67  5.3439700E-01
   7141.00  5.3184041E-01
   7141.33  5.3160204E-01
   7141.67  5.3329767E-01
   7142.00  5.3684374E-01
   7142.33  5.4236031E-01
   7142.67  5.4950145E-01
   7143.00  5.5812218E-01
   7143.33  5.6815651E-01
   7143.67  5.7917168E-01
   7144.00  5.9090696E-01
   7144.33  6.0310763E-01
   7144.67  6.1542492E-01
   7145.00  6.2761352E-01
   7145.33  6.3934808E-01
   7145.67  6.5041376E-01
   7146.00  6.6059069E-01
   7146.33  6.6949512E-01
   7146.67  6.7704742E-01
   7147.00  6.8307901E-01
   7147.33  6.8721052E-01
   7147.67  6.8951715E-01
   7148.00  6.8990118E-01
   7148.33  6.8801234E-01
   7148.67  6.8403133E-01
   7149.00  6.7793070E-01
   7149.33  6.6947291E-01
   7149.67  6.5901527E-01
   7150.00  6.4671010E-01
   7150.33  6.3262420E-01
   7150.67  6.1727922E-01
   7151.00  6.0097110E-01
   7151.33  5.8398623E-01
   7151.67  5.6676856E-01
   7152.00  5.4962445E-01
   7152.33  5.3292298E-01
   7152.67  5.1688285E-01
   7153.00  5.0169179E-01
   7153.33  4.8764485E-01
   7153.67  4.7473127E-01
   7154.00  4.6301191E-01
   7154.33  4.5266359E-01
   7154.67  4.4350796E-01
   7155.00  4.3548108E-01
   7155.33  4.2858392E-01
   7155.67  4.2251921E-01
   7156.00  4.1711397E-01
   7156.33  4.1221289E-01
   7156.67  4.0756316E-01
   7157.00  4.0302509E-01
   7157.33  3.9848170E-01
   7157.67  3.9387119E-01
   7158.00  3.8918062E-01
   7158.33  3.8442776E-01
   7158.67  3.7967935E-01
   7159.00  3.7500963E-01
   7159.33  3.7054756E-01
   7159.67  3.6638796E-01
   7160.00  3.6263295E-01
   7160.33  3.5945499E-01
   7160.67  3.5687453E-01
   7161.00  3.5493334E-01
   7161.33  3.5371485E-01
   7161.67  3.5310047E-01
   7162.00  3.5302709E-01
   7162.33  3.5344903E-01
   7162.67  3.5419392E-01
   7163.00  3.5515558E-01
   7163.33  3.5622313E-01
   7163.67  3.5726960E-01
   7164.00  3.5820562E-01
   7164.33  3.5891597E-01
   7164.67  3.5935374E-01
   7165.00  3.5947630E-01
   7165.33  3.5921907E-01
   7165.67  3.5862890E-01
   7166.00  3.5773215E-01
   7166.33  3.5655529E-01
   7166.67  3.5521149E-01
   7167.00  3.5378503E-01
   7167.33  3.5238429E-01
   7167.67  3.5111084E-01
   7168.00  3.5004733E-01
   7168.33  3.4931154E-01
   7168.67  3.4892622E-01
   7169.00  3.4892371E-01
   7169.33  3.4937102E-01
   7169.67  3.5021285E-01
   7170.00  3.5142800E-01
   7170.33  3.5301495E-01
   7170.67  3.5486967E-01
   7171.00  3.5691960E-01
   7171.33  3.5905539E-01
   7171.67  3.6108379E-01
   7172.00  3.6278380E-01
