    FDMNES
    energy     <xanes>
   7097.00  5.1330740E-03
   7097.33  5.2539873E-03
   7097.67  5.3802735E-03
   7098.00  5.5122838E-03
   7098.33  5.6512406E-03
   7098.67  5.7968714E-03
   7099.00  5.9496488E-03
   7099.33  6.1111527E-03
   7099.67  6.2810961E-03
   7100.00  6.4601300E-03
   7100.33  6.6503451E-03
   7100.67  6.8514569E-03
   7101.00  7.0643880E-03
   7101.33  7.2919821E-03
   7101.67  7.5339976E-03
   7102.00  7.7917861E-03
   7102.33  8.0693458E-03
   7102.67  8.3665675E-03
   7103.00  8.6855130E-03
   7103.33  9.0320365E-03
   7103.67  9.4063638E-03
   7104.00  9.8118014E-03
   7104.33  1.0257369E-02
   7104.67  1.0744107E-02
   7105.00  1.1277668E-02
   7105.33  1.1872900E-02
   7105.67  1.2532883E-02
   7106.00  1.3268141E-02
   7106.33  1.4105426E-02
   7106.67  1.5053374E-02
   7107.00  1.6134092E-02
   7107.33  1.7402556E-02
   7107.67  1.8885019E-02
   7108.00  2.0637350E-02
   7108.33  2.2798786E-02
   7108.67  2.5468039E-02
   7109.00  2.8837265E-02
   7109.33  3.3414536E-02
   7109.67  3.9756844E-02
   7110.00  4.8971316E-02
   7110.33  6.4243316E-02
   7110.67  8.8612644E-02
   7111.00  1.2016831E-01
   7111.33  1.3712315E-01
   7111.67  1.3983586E-01
   7112.00  1.5077410E-01
   7112.33  1.8593365E-01
   7112.67  2.4464511E-01
   7113.00  3.1866212E-01
   7113.33  3.9834975E-01
   7113.67  4.8558080E-01
   7114.00  5.7655494E-01
   7114.33  6.0310121E-01
   7114.67  5.4116434E-01
   7115.00  4.4426900E-01
   7115.33  3.6682694E-01
   7115.67  3.1652450E-01
   7116.00  2.8875764E-01
   7116.33  2.7715349E-01
   7116.67  2.6999459E-01
   7117.00  2.5998097E-01
   7117.33  2.4440551E-01
   7117.67  2.2623048E-01
   7118.00  2.0767437E-01
   7118.33  1.9125813E-01
   7118.67  1.7793748E-01
   7119.00  1.6755865E-01
   7119.33  1.5956566E-01
   7119.67  1.5292034E-01
   7120.00  1.4726033E-01
   7120.33  1.4262131E-01
   7120.67  1.3902704E-01
   7121.00  1.3669611E-01
   7121.33  1.3613975E-01
   7121.67  1.3730359E-01
   7122.00  1.4001939E-01
   7122.33  1.4405294E-01
   7122.67  1.4898339E-01
   7123.00  1.5476723E-01
   7123.33  1.6170838E-01
   7123.67  1.7006530E-01
   7124.00  1.8030482E-01
   7124.33  1.9342633E-01
   7124.67  2.0990873E-01
   7125.00  2.3049477E-01
   7125.33  2.5664461E-01
   7125.67  2.8819790E-01
   7126.00  3.2453740E-01
   7126.33  3.6248056E-01
   7126.67  3.9540261E-01
   7127.00  4.1817729E-01
   7127.33  4.2912015E-01
   7127.67  4.3510946E-01
   7128.00  4.4191052E-01
   7128.33  4.5494952E-01
   7128.67  4.7587288E-01
   7129.00  5.0524963E-01
   7129.33  5.4348688E-01
   7129.67  5.8792498E-01
   7130.00  6.3634548E-01
   7130.33  6.8585027E-01
   7130.67  7.3345044E-01
   7131.00  7.7694938E-01
   7131.33  8.1374240E-01
   7131.67  8.4408127E-01
   7132.00  8.6888509E-01
   7132.33  8.8998251E-01
   7132.67  9.1026758E-01
   7133.00  9.3131473E-01
   7133.33  9.5424532E-01
   7133.67  9.7875104E-01
   7134.00  1.0033995E+00
   7134.33  1.0229587E+00
   7134.67  1.0297831E+00
   7135.00  1.0164304E+00
   7135.33  9.7644289E-01
   7135.67  9.1762995E-01
   7136.00  8.4827311E-01
   7136.33  7.7725441E-01
   7136.67  7.1038985E-01
   7137.00  6.4983710E-01
   7137.33  5.9709097E-01
   7137.67  5.5097138E-01
   7138.00  5.1097984E-01
   7138.33  4.7729491E-01
   7138.67  4.4887198E-01
   7139.00  4.2553048E-01
   7139.33  4.0770804E-01
   7139.67  3.9455239E-01
   7140.00  3.8575174E-01
   7140.33  3.8128316E-01
   7140.67  3.8005130E-01
   7141.00  3.8150022E-01
   7141.33  3.8527906E-01
   7141.67  3.9061364E-01
   7142.00  3.9715534E-01
   7142.33  4.0471262E-01
   7142.67  4.1295175E-01
   7143.00  4.2172409E-01
   7143.33  4.3092320E-01
   7143.67  4.4034863E-01
   7144.00  4.4986443E-01
   7144.33  4.5930416E-01
   7144.67  4.6852489E-01
   7145.00  4.7740770E-01
   7145.33  4.8577968E-01
   7145.67  4.9361021E-01
   7146.00  5.0084754E-01
   7146.33  5.0737912E-01
   7146.67  5.1327499E-01
   7147.00  5.1854663E-01
   7147.33  5.2315553E-01
   7147.67  5.2723416E-01
   7148.00  5.3085237E-01
   7148.33  5.3407026E-01
   7148.67  5.3705959E-01
   7149.00  5.3994539E-01
   7149.33  5.4289282E-01
   7149.67  5.4604777E-01
   7150.00  5.4952522E-01
   7150.33  5.5348434E-01
   7150.67  5.5793453E-01
   7151.00  5.6288742E-01
   7151.33  5.6836011E-01
   7151.67  5.7420093E-01
   7152.00  5.8029848E-01
   7152.33  5.8651846E-01
   7152.67  5.9269736E-01
   7153.00  5.9871662E-01
   7153.33  6.0442409E-01
   7153.67  6.0976188E-01
   7154.00  6.1466929E-01
   7154.33  6.1903073E-01
   7154.67  6.2286723E-01
   7155.00  6.2616129E-01
   7155.33  6.2884097E-01
   7155.67  6.3098452E-01
   7156.00  6.3260933E-01
   7156.33  6.3368259E-01
   7156.67  6.3429992E-01
   7157.00  6.3449281E-01
   7157.33  6.3424869E-01
   7157.67  6.3364826E-01
   7158.00  6.3271405E-01
   7158.33  6.3142559E-01
   7158.67  6.2983308E-01
   7159.00  6.2793970E-01
   7159.33  6.2570507E-01
   7159.67  6.2315944E-01
   7160.00  6.2029301E-01
   7160.33  6.1704999E-01
   7160.67  6.1345791E-01
   7161.00  6.0950579E-01
   7161.33  6.0513741E-01
   7161.67  6.0039380E-01
   7162.00  5.9527467E-01
   7162.33  5.8973725E-01
   7162.67  5.8383978E-01
   7163.00  5.7760155E-01
   7163.33  5.7101562E-01
   7163.67  5.6415650E-01
   7164.00  5.5705758E-01
   7164.33  5.4973621E-01
   7164.67  5.4226092E-01
   7165.00  5.3467073E-01
   7165.33  5.2700314E-01
   7165.67  5.1931164E-01
   7166.00  5.1163345E-01
   7166.33  5.0401743E-01
   7166.67  4.9649626E-01
   7167.00  4.8910051E-01
   7167.33  4.8188197E-01
   7167.67  4.7485144E-01
   7168.00  4.6803422E-01
   7168.33  4.6148703E-01
   7168.67  4.5520412E-01
   7169.00  4.4920563E-01
   7169.33  4.4355249E-01
   7169.67  4.3822749E-01
   7170.00  4.3324827E-01
   7170.33  4.2868189E-01
   7170.67  4.2450347E-01
   7171.00  4.2072796E-01
   7171.33  4.1743390E-01
   7171.67  4.1462271E-01
   7172.00  4.1237422E-01
