    FDMNES
    energy     <xanes>
   7097.00  4.9243399E-03
   7097.33  5.0373597E-03
   7097.67  5.1553883E-03
   7098.00  5.2787617E-03
   7098.33  5.4086348E-03
   7098.67  5.5447675E-03
   7099.00  5.6876181E-03
   7099.33  5.8386961E-03
   7099.67  5.9977569E-03
   7100.00  6.1654432E-03
   7100.33  6.3437814E-03
   7100.67  6.5325472E-03
   7101.00  6.7326710E-03
   7101.33  6.9469620E-03
   7101.67  7.1752705E-03
   7102.00  7.4189968E-03
   7102.33  7.6821885E-03
   7102.67  7.9648923E-03
   7103.00  8.2693148E-03
   7103.33  8.6015714E-03
   7103.67  8.9621834E-03
   7104.00  9.3548321E-03
   7104.33  9.7893194E-03
   7104.67  1.0267313E-02
   7105.00  1.0795410E-02
   7105.33  1.1390553E-02
   7105.67  1.2057313E-02
   7106.00  1.2808660E-02
   7106.33  1.3676951E-02
   7106.67  1.4674801E-02
   7107.00  1.5831096E-02
   7107.33  1.7216724E-02
   7107.67  1.8870071E-02
   7108.00  2.0867961E-02
   7108.33  2.3400134E-02
   7108.67  2.6608725E-02
   7109.00  3.0761665E-02
   7109.33  3.6555869E-02
   7109.67  4.4736404E-02
   7110.00  5.6745145E-02
   7110.33  7.6682781E-02
   7110.67  1.0923184E-01
   7111.00  1.5837634E-01
   7111.33  2.2548274E-01
   7111.67  3.0604323E-01
   7112.00  3.7057809E-01
   7112.33  3.5062602E-01
   7112.67  2.7970062E-01
   7113.00  2.1793580E-01
   7113.33  1.8722435E-01
   7113.67  1.7598945E-01
   7114.00  1.7533544E-01
   7114.33  1.7785993E-01
   7114.67  1.8319439E-01
   7115.00  1.9628406E-01
   7115.33  2.1955673E-01
   7115.67  2.3950422E-01
   7116.00  2.4136427E-01
   7116.33  2.2400562E-01
   7116.67  2.0373931E-01
   7117.00  1.8790186E-01
   7117.33  1.7877440E-01
   7117.67  1.7459617E-01
   7118.00  1.7430311E-01
   7118.33  1.7649262E-01
   7118.67  1.7842785E-01
   7119.00  1.7810013E-01
   7119.33  1.7444203E-01
   7119.67  1.6900532E-01
   7120.00  1.6318943E-01
   7120.33  1.5814083E-01
   7120.67  1.5425996E-01
   7121.00  1.5180840E-01
   7121.33  1.5134430E-01
   7121.67  1.5299862E-01
   7122.00  1.5695089E-01
   7122.33  1.6353517E-01
   7122.67  1.7250836E-01
   7123.00  1.8402066E-01
   7123.33  1.9867988E-01
   7123.67  2.1635461E-01
   7124.00  2.3713832E-01
   7124.33  2.6134890E-01
   7124.67  2.8824231E-01
   7125.00  3.1725277E-01
   7125.33  3.4753182E-01
   7125.67  3.7755343E-01
   7126.00  4.0601910E-01
   7126.33  4.3162174E-01
   7126.67  4.5498355E-01
   7127.00  4.7752046E-01
   7127.33  5.0159533E-01
   7127.67  5.2844300E-01
   7128.00  5.5793938E-01
   7128.33  5.8878013E-01
   7128.67  6.1890333E-01
   7129.00  6.4695753E-01
   7129.33  6.7174126E-01
   7129.67  6.9388701E-01
   7130.00  7.1416513E-01
   7130.33  7.3332834E-01
   7130.67  7.5205920E-01
   7131.00  7.7047506E-01
   7131.33  7.8835030E-01
   7131.67  8.0553272E-01
   7132.00  8.2196876E-01
   7132.33  8.3747373E-01
   7132.67  8.5115833E-01
   7133.00  8.6046507E-01
   7133.33  8.5990197E-01
   7133.67  8.4838862E-01
   7134.00  8.2780540E-01
   7134.33  8.0181656E-01
   7134.67  7.7444114E-01
   7135.00  7.4725403E-01
   7135.33  7.2111122E-01
   7135.67  6.9607353E-01
   7136.00  6.7216673E-01
   7136.33  6.4957993E-01
   7136.67  6.2827851E-01
   7137.00  6.0842764E-01
   7137.33  5.9050261E-01
   7137.67  5.7459310E-01
   7138.00  5.6095457E-01
   7138.33  5.5013151E-01
   7138.67  5.4190768E-01
   7139.00  5.3622894E-01
   7139.33  5.3318950E-01
   7139.67  5.3218792E-01
   7140.00  5.3291206E-01
   7140.33  5.3516724E-01
   7140.67  5.3845755E-01
   7141.00  5.4254224E-01
   7141.33  5.4724133E-01
   7141.67  5.5227375E-01
   7142.00  5.5748639E-01
   7142.33  5.6273056E-01
   7142.67  5.6787232E-01
   7143.00  5.7281574E-01
   7143.33  5.7743239E-01
   7143.67  5.8168887E-01
   7144.00  5.8554406E-01
   7144.33  5.8891821E-01
   7144.67  5.9185873E-01
   7145.00  5.9437324E-01
   7145.33  5.9643097E-01
   7145.67  5.9811015E-01
   7146.00  5.9943691E-01
   7146.33  6.0040153E-01
   7146.67  6.0107243E-01
   7147.00  6.0147065E-01
   7147.33  6.0158496E-01
   7147.67  6.0146215E-01
   7148.00  6.0111082E-01
   7148.33  6.0050761E-01
   7148.67  5.9967988E-01
   7149.00  5.9862343E-01
   7149.33  5.9730169E-01
   7149.67  5.9574534E-01
   7150.00  5.9396554E-01
   7150.33  5.9193806E-01
   7150.67  5.8968649E-01
   7151.00  5.8720964E-01
   7151.33  5.8449041E-01
   7151.67  5.8159322E-01
   7152.00  5.7855274E-01
   7152.33  5.7538080E-01
   7152.67  5.7211996E-01
   7153.00  5.6879909E-01
   7153.33  5.6545288E-01
   7153.67  5.6212365E-01
   7154.00  5.5884490E-01
   7154.33  5.5566131E-01
   7154.67  5.5258424E-01
   7155.00  5.4962908E-01
   7155.33  5.4683067E-01
   7155.67  5.4418044E-01
   7156.00  5.4167781E-01
   7156.33  5.3933065E-01
   7156.67  5.3710447E-01
   7157.00  5.3497942E-01
   7157.33  5.3293783E-01
   7157.67  5.3094248E-01
   7158.00  5.2897087E-01
   7158.33  5.2700057E-01
   7158.67  5.2501428E-01
   7159.00  5.2300234E-01
   7159.33  5.2095599E-01
   7159.67  5.1888111E-01
   7160.00  5.1678471E-01
   7160.33  5.1467885E-01
   7160.67  5.1258186E-01
   7161.00  5.1051088E-01
   7161.33  5.0849271E-01
   7161.67  5.0654133E-01
   7162.00  5.0467177E-01
   7162.33  5.0290916E-01
   7162.67  5.0124805E-01
   7163.00  4.9968617E-01
   7163.33  4.9821821E-01
   7163.67  4.9680754E-01
   7164.00  4.9542487E-01
   7164.33  4.9402450E-01
   7164.67  4.9255689E-01
   7165.00  4.9097548E-01
   7165.33  4.8920636E-01
   7165.67  4.8722145E-01
   7166.00  4.8498447E-01
   7166.33  4.8242774E-01
   7166.67  4.7956744E-01
   7167.00  4.7639696E-01
   7167.33  4.7288062E-01
   7167.67  4.6907131E-01
   7168.00  4.6499075E-01
   7168.33  4.6064355E-01
   7168.67  4.5610140E-01
   7169.00  4.5140595E-01
   7169.33  4.4659988E-01
   7169.67  4.4175899E-01
   7170.00  4.3694373E-01
   7170.33  4.3223785E-01
   7170.67  4.2770463E-01
   7171.00  4.2341725E-01
   7171.33  4.1952558E-01
   7171.67  4.1613580E-01
   7172.00  4.1341671E-01
