    FDMNES
    energy     <xanes>
   7097.00  4.2397896E-03
   7097.33  4.3329148E-03
   7097.67  4.4301643E-03
   7098.00  4.5318270E-03
   7098.33  4.6388761E-03
   7098.67  4.7511334E-03
   7099.00  4.8690013E-03
   7099.33  4.9937732E-03
   7099.67  5.1252794E-03
   7100.00  5.2640978E-03
   7100.33  5.4120024E-03
   7100.67  5.5688624E-03
   7101.00  5.7355383E-03
   7101.33  5.9145556E-03
   7101.67  6.1058895E-03
   7102.00  6.3108784E-03
   7102.33  6.5332808E-03
   7102.67  6.7733285E-03
   7103.00  7.0332140E-03
   7103.33  7.3188437E-03
   7103.67  7.6310569E-03
   7104.00  7.9736809E-03
   7104.33  8.3566452E-03
   7104.67  8.7822713E-03
   7105.00  9.2577967E-03
   7105.33  9.8014126E-03
   7105.67  1.0419315E-02
   7106.00  1.1126688E-02
   7106.33  1.1960860E-02
   7106.67  1.2939358E-02
   7107.00  1.4098874E-02
   7107.33  1.5529032E-02
   7107.67  1.7286737E-02
   7108.00  1.9480686E-02
   7108.33  2.2382417E-02
   7108.67  2.6227858E-02
   7109.00  3.1458964E-02
   7109.33  3.9268563E-02
   7109.67  5.1130863E-02
   7110.00  6.9962082E-02
   7110.33  1.0406204E-01
   7110.67  1.5956930E-01
   7111.00  2.2514519E-01
   7111.33  2.6601373E-01
   7111.67  2.9947455E-01
   7112.00  3.1506603E-01
   7112.33  2.7233413E-01
   7112.67  2.1069427E-01
   7113.00  1.5734462E-01
   7113.33  1.1865424E-01
   7113.67  9.3352964E-02
   7114.00  7.8369653E-02
   7114.33  7.1209698E-02
   7114.67  6.7402119E-02
   7115.00  6.2702414E-02
   7115.33  5.6040887E-02
   7115.67  5.0262296E-02
   7116.00  4.5739922E-02
   7116.33  4.1974908E-02
   7116.67  3.8922636E-02
   7117.00  3.6844056E-02
   7117.33  3.5933712E-02
   7117.67  3.5989023E-02
   7118.00  3.6990616E-02
   7118.33  3.9147632E-02
   7118.67  4.2436796E-02
   7119.00  4.6765937E-02
   7119.33  5.1891948E-02
   7119.67  5.8095578E-02
   7120.00  6.6680704E-02
   7120.33  8.0084472E-02
   7120.67  9.8853671E-02
   7121.00  1.2050003E-01
   7121.33  1.3315744E-01
   7121.67  1.3065560E-01
   7122.00  1.2148261E-01
   7122.33  1.1774777E-01
   7122.67  1.2205997E-01
   7123.00  1.3405747E-01
   7123.33  1.5336089E-01
   7123.67  1.7655956E-01
   7124.00  1.9997668E-01
   7124.33  2.1952190E-01
   7124.67  2.3421728E-01
   7125.00  2.4340890E-01
   7125.33  2.4695040E-01
   7125.67  2.4895712E-01
   7126.00  2.5357400E-01
   7126.33  2.6481298E-01
   7126.67  2.8189147E-01
   7127.00  3.0259646E-01
   7127.33  3.2453324E-01
   7127.67  3.4729388E-01
   7128.00  3.7188755E-01
   7128.33  3.9885779E-01
   7128.67  4.2768491E-01
   7129.00  4.5973812E-01
   7129.33  4.9865872E-01
   7129.67  5.4456090E-01
   7130.00  5.9456989E-01
   7130.33  6.4165999E-01
   7130.67  6.8205464E-01
   7131.00  7.1716319E-01
   7131.33  7.4854489E-01
   7131.67  7.7318082E-01
   7132.00  7.8495130E-01
   7132.33  7.8062264E-01
   7132.67  7.7120046E-01
   7133.00  7.6604727E-01
   7133.33  7.7208189E-01
   7133.67  7.9014697E-01
   7134.00  8.2203390E-01
   7134.33  8.7412459E-01
   7134.67  9.5082596E-01
   7135.00  1.0566816E+00
   7135.33  1.1820546E+00
   7135.67  1.2710510E+00
   7136.00  1.2654045E+00
   7136.33  1.1606926E+00
   7136.67  1.0356936E+00
   7137.00  9.2805745E-01
   7137.33  8.5033342E-01
   7137.67  7.9425964E-01
   7138.00  7.5439799E-01
   7138.33  7.2735944E-01
   7138.67  7.0859801E-01
   7139.00  6.9643383E-01
   7139.33  6.9034232E-01
   7139.67  6.8897405E-01
   7140.00  6.9200079E-01
   7140.33  6.9968397E-01
   7140.67  7.1121930E-01
   7141.00  7.2619274E-01
   7141.33  7.4406167E-01
   7141.67  7.6304508E-01
   7142.00  7.8134817E-01
   7142.33  7.9601813E-01
   7142.67  8.0489071E-01
   7143.00  8.0623688E-01
   7143.33  7.9814439E-01
   7143.67  7.8232452E-01
   7144.00  7.6038601E-01
   7144.33  7.3434862E-01
   7144.67  7.0710571E-01
   7145.00  6.8034542E-01
   7145.33  6.5563249E-01
   7145.67  6.3344959E-01
   7146.00  6.1401866E-01
   7146.33  5.9763773E-01
   7146.67  5.8374010E-01
   7147.00  5.7206127E-01
   7147.33  5.6250790E-01
   7147.67  5.5452673E-01
   7148.00  5.4786834E-01
   7148.33  5.4239996E-01
   7148.67  5.3774558E-01
   7149.00  5.3370743E-01
   7149.33  5.3010023E-01
   7149.67  5.2662584E-01
   7150.00  5.2306125E-01
   7150.33  5.1911643E-01
   7150.67  5.1460197E-01
   7151.00  5.0932232E-01
   7151.33  5.0293233E-01
   7151.67  4.9535612E-01
   7152.00  4.8646046E-01
   7152.33  4.7597950E-01
   7152.67  4.6406530E-01
   7153.00  4.5075316E-01
   7153.33  4.3600062E-01
   7153.67  4.2017042E-01
   7154.00  4.0351537E-01
   7154.33  3.8637652E-01
   7154.67  3.6923251E-01
   7155.00  3.5243839E-01
   7155.33  3.3648744E-01
   7155.67  3.2164752E-01
   7156.00  3.0817890E-01
   7156.33  2.9651037E-01
   7156.67  2.8658809E-01
   7157.00  2.7847715E-01
   7157.33  2.7242248E-01
   7157.67  2.6816303E-01
   7158.00  2.6564328E-01
   7158.33  2.6498215E-01
   7158.67  2.6586354E-01
   7159.00  2.6817105E-01
   7159.33  2.7189109E-01
   7159.67  2.7665030E-01
   7160.00  2.8222518E-01
   7160.33  2.8839741E-01
   7160.67  2.9480771E-01
   7161.00  3.0121566E-01
   7161.33  3.0734973E-01
   7161.67  3.1306016E-01
   7162.00  3.1824608E-01
   7162.33  3.2277429E-01
   7162.67  3.2670627E-01
   7163.00  3.3005957E-01
   7163.33  3.3280943E-01
   7163.67  3.3508126E-01
   7164.00  3.3693397E-01
   7164.33  3.3840063E-01
   7164.67  3.3960428E-01
   7165.00  3.4061340E-01
   7165.33  3.4148718E-01
   7165.67  3.4230394E-01
   7166.00  3.4310863E-01
   7166.33  3.4394761E-01
   7166.67  3.4484981E-01
   7167.00  3.4583633E-01
   7167.33  3.4693854E-01
   7167.67  3.4815776E-01
   7168.00  3.4950411E-01
   7168.33  3.5100546E-01
   7168.67  3.5265358E-01
   7169.00  3.5445534E-01
   7169.33  3.5643812E-01
   7169.67  3.5858607E-01
   7170.00  3.6089764E-01
   7170.33  3.6338004E-01
   7170.67  3.6598603E-01
   7171.00  3.6867077E-01
   7171.33  3.7133872E-01
   7171.67  3.7382044E-01
   7172.00  3.7589320E-01
