    FDMNES
    energy     <xanes>
   7097.00  4.2342106E-03
   7097.33  4.3271539E-03
   7097.67  4.4242081E-03
   7098.00  4.5256611E-03
   7098.33  4.6324824E-03
   7098.67  4.7444944E-03
   7099.00  4.8620978E-03
   7099.33  4.9865817E-03
   7099.67  5.1177767E-03
   7100.00  5.2562586E-03
   7100.33  5.4037955E-03
   7100.67  5.5602572E-03
   7101.00  5.7265016E-03
   7101.33  5.9050462E-03
   7101.67  6.0958671E-03
   7102.00  6.3002995E-03
   7102.33  6.5220918E-03
   7102.67  6.7614774E-03
   7103.00  7.0206451E-03
   7103.33  7.3054893E-03
   7103.67  7.6168524E-03
   7104.00  7.9585585E-03
   7104.33  8.3405253E-03
   7104.67  8.7650808E-03
   7105.00  9.2394622E-03
   7105.33  9.7818535E-03
   7105.67  1.0398463E-02
   7106.00  1.1104479E-02
   7106.33  1.1937227E-02
   7106.67  1.2914232E-02
   7107.00  1.4072153E-02
   7107.33  1.5500464E-02
   7107.67  1.7255761E-02
   7108.00  1.9446049E-02
   7108.33  2.2340526E-02
   7108.67  2.6170591E-02
   7109.00  3.1368252E-02
   7109.33  3.9091434E-02
   7109.67  5.0743609E-02
   7110.00  6.9092312E-02
   7110.33  1.0218174E-01
   7110.67  1.5828924E-01
   7111.00  2.3621136E-01
   7111.33  2.9900719E-01
   7111.67  3.1989968E-01
   7112.00  2.9526716E-01
   7112.33  2.3748310E-01
   7112.67  1.8046425E-01
   7113.00  1.3452562E-01
   7113.33  1.0341850E-01
   7113.67  8.3612717E-02
   7114.00  7.2648580E-02
   7114.33  6.8702357E-02
   7114.67  6.7165522E-02
   7115.00  6.4119616E-02
   7115.33  5.9184597E-02
   7115.67  5.4178287E-02
   7116.00  4.9759372E-02
   7116.33  4.6671044E-02
   7116.67  4.4868435E-02
   7117.00  4.4148869E-02
   7117.33  4.4289936E-02
   7117.67  4.4945279E-02
   7118.00  4.6001893E-02
   7118.33  4.7499314E-02
   7118.67  4.9489419E-02
   7119.00  5.2099732E-02
   7119.33  5.5638327E-02
   7119.67  6.0284213E-02
   7120.00  6.6332921E-02
   7120.33  7.4396421E-02
   7120.67  8.4608835E-02
   7121.00  9.7128427E-02
   7121.33  1.1207371E-01
   7121.67  1.2843562E-01
   7122.00  1.4488555E-01
   7122.33  1.5924236E-01
   7122.67  1.7082163E-01
   7123.00  1.8095827E-01
   7123.33  1.9332010E-01
   7123.67  2.0965165E-01
   7124.00  2.2836638E-01
   7124.33  2.4412969E-01
   7124.67  2.5278417E-01
   7125.00  2.5322041E-01
   7125.33  2.4688949E-01
   7125.67  2.3991293E-01
   7126.00  2.3725271E-01
   7126.33  2.4302724E-01
   7126.67  2.5571743E-01
   7127.00  2.7268767E-01
   7127.33  2.9121049E-01
   7127.67  3.1046804E-01
   7128.00  3.3153036E-01
   7128.33  3.5666650E-01
   7128.67  3.8716377E-01
   7129.00  4.2450712E-01
   7129.33  4.7152393E-01
   7129.67  5.2793867E-01
   7130.00  5.9199504E-01
   7130.33  6.5672543E-01
   7130.67  7.1056630E-01
   7131.00  7.4560041E-01
   7131.33  7.6080470E-01
   7131.67  7.6887310E-01
   7132.00  7.7870059E-01
   7132.33  7.9623355E-01
   7132.67  8.2103567E-01
   7133.00  8.5188246E-01
   7133.33  8.8807661E-01
   7133.67  9.2886993E-01
   7134.00  9.7502842E-01
   7134.33  1.0274520E+00
   7134.67  1.0802943E+00
   7135.00  1.1206040E+00
   7135.33  1.1228784E+00
   7135.67  1.0825252E+00
   7136.00  1.0115135E+00
   7136.33  9.3165779E-01
   7136.67  8.5939861E-01
   7137.00  7.9986650E-01
   7137.33  7.5543121E-01
   7137.67  7.2284923E-01
   7138.00  7.0031329E-01
   7138.33  6.8681534E-01
   7138.67  6.7968679E-01
   7139.00  6.7781236E-01
   7139.33  6.8070900E-01
   7139.67  6.8705020E-01
   7140.00  6.9628772E-01
   7140.33  7.0822893E-01
   7140.67  7.2217968E-01
   7141.00  7.3776615E-01
   7141.33  7.5447087E-01
   7141.67  7.7116944E-01
   7142.00  7.8667999E-01
   7142.33  7.9901433E-01
   7142.67  8.0691889E-01
   7143.00  8.0935786E-01
   7143.33  8.0508629E-01
   7143.67  7.9516908E-01
   7144.00  7.8040398E-01
   7144.33  7.6163661E-01
   7144.67  7.4073875E-01
   7145.00  7.1887719E-01
   7145.33  6.9721121E-01
   7145.67  6.7652574E-01
   7146.00  6.5724707E-01
   7146.33  6.3984307E-01
   7146.67  6.2420197E-01
   7147.00  6.1032526E-01
   7147.33  5.9835433E-01
   7147.67  5.8794703E-01
   7148.00  5.7895469E-01
   7148.33  5.7131404E-01
   7148.67  5.6460647E-01
   7149.00  5.5853891E-01
   7149.33  5.5270633E-01
   7149.67  5.4656743E-01
   7150.00  5.3965335E-01
   7150.33  5.3130989E-01
   7150.67  5.2136230E-01
   7151.00  5.0972975E-01
   7151.33  4.9638223E-01
   7151.67  4.8186073E-01
   7152.00  4.6654405E-01
   7152.33  4.5084275E-01
   7152.67  4.3519304E-01
   7153.00  4.1985164E-01
   7153.33  4.0508188E-01
   7153.67  3.9093457E-01
   7154.00  3.7746784E-01
   7154.33  3.6483258E-01
   7154.67  3.5297969E-01
   7155.00  3.4192305E-01
   7155.33  3.3176947E-01
   7155.67  3.2242340E-01
   7156.00  3.1388765E-01
   7156.33  3.0626657E-01
   7156.67  2.9946637E-01
   7157.00  2.9350203E-01
   7157.33  2.8850999E-01
   7157.67  2.8442167E-01
   7158.00  2.8127763E-01
   7158.33  2.7925226E-01
   7158.67  2.7826819E-01
   7159.00  2.7835719E-01
   7159.33  2.7967775E-01
   7159.67  2.8208962E-01
   7160.00  2.8555832E-01
   7160.33  2.9010907E-01
   7160.67  2.9544689E-01
   7161.00  3.0136096E-01
   7161.33  3.0759599E-01
   7161.67  3.1380819E-01
   7162.00  3.1974979E-01
   7162.33  3.2512127E-01
   7162.67  3.2982572E-01
   7163.00  3.3378951E-01
   7163.33  3.3689876E-01
   7163.67  3.3928658E-01
   7164.00  3.4101844E-01
   7164.33  3.4212531E-01
   7164.67  3.4278982E-01
   7165.00  3.4310976E-01
   7165.33  3.4316057E-01
   7165.67  3.4306333E-01
   7166.00  3.4288597E-01
   7166.33  3.4269752E-01
   7166.67  3.4256262E-01
   7167.00  3.4253170E-01
   7167.33  3.4267943E-01
   7167.67  3.4303520E-01
   7168.00  3.4363508E-01
   7168.33  3.4454691E-01
   7168.67  3.4575855E-01
   7169.00  3.4728104E-01
   7169.33  3.4915861E-01
   7169.67  3.5134896E-01
   7170.00  3.5384365E-01
   7170.33  3.5665872E-01
   7170.67  3.5972045E-01
   7171.00  3.6297045E-01
   7171.33  3.6629242E-01
   7171.67  3.6944221E-01
   7172.00  3.7210322E-01
