    FDMNES
    energy     <xanes>
   7097.00  4.5252307E-03
   7097.33  4.6169298E-03
   7097.67  4.7121808E-03
   7098.00  4.8111984E-03
   7098.33  4.9147625E-03
   7098.67  5.0226726E-03
   7099.00  5.1352168E-03
   7099.33  5.2533932E-03
   7099.67  5.3769931E-03
   7100.00  5.5064148E-03
   7100.33  5.6429714E-03
   7100.67  5.7864602E-03
   7101.00  5.9374514E-03
   7101.33  6.0977322E-03
   7101.67  6.2671387E-03
   7102.00  6.4465228E-03
   7102.33  6.6384201E-03
   7102.67  6.8427813E-03
   7103.00  7.0609458E-03
   7103.33  7.2967037E-03
   7103.67  7.5502978E-03
   7104.00  7.8239712E-03
   7104.33  8.1237771E-03
   7104.67  8.4506891E-03
   7105.00  8.8087771E-03
   7105.33  9.2085689E-03
   7105.67  9.6529539E-03
   7106.00  1.0150122E-02
   7106.33  1.0720575E-02
   7106.67  1.1372735E-02
   7107.00  1.2125551E-02
   7107.33  1.3025692E-02
   7107.67  1.4100305E-02
   7108.00  1.5402908E-02
   7108.33  1.7066954E-02
   7108.67  1.9201330E-02
   7109.00  2.2011248E-02
   7109.33  2.6043708E-02
   7109.67  3.1941739E-02
   7110.00  4.0971729E-02
   7110.33  5.6790735E-02
   7110.67  8.3088783E-02
   7111.00  1.1933620E-01
   7111.33  1.4999385E-01
   7111.67  1.6641274E-01
   7112.00  1.7485953E-01
   7112.33  1.6823311E-01
   7112.67  1.4664085E-01
   7113.00  1.2783778E-01
   7113.33  1.1985591E-01
   7113.67  1.1293995E-01
   7114.00  1.0191411E-01
   7114.33  8.6881256E-02
   7114.67  7.0793320E-02
   7115.00  5.8018425E-02
   7115.33  5.0330330E-02
   7115.67  4.5900539E-02
   7116.00  4.3769624E-02
   7116.33  4.3531289E-02
   7116.67  4.4715548E-02
   7117.00  4.7183911E-02
   7117.33  5.0706376E-02
   7117.67  5.4887097E-02
   7118.00  6.0134576E-02
   7118.33  6.7593952E-02
   7118.67  7.7815993E-02
   7119.00  9.1404704E-02
   7119.33  1.0941698E-01
   7119.67  1.3137610E-01
   7120.00  1.5634864E-01
   7120.33  1.8188181E-01
   7120.67  2.0486313E-01
   7121.00  2.2404920E-01
   7121.33  2.4038870E-01
   7121.67  2.5673499E-01
   7122.00  2.7465908E-01
   7122.33  2.9519971E-01
   7122.67  3.1814343E-01
   7123.00  3.4335228E-01
   7123.33  3.7099088E-01
   7123.67  4.0107862E-01
   7124.00  4.3430066E-01
   7124.33  4.7220797E-01
   7124.67  5.1507871E-01
   7125.00  5.6321848E-01
   7125.33  6.1725559E-01
   7125.67  6.7518677E-01
   7126.00  7.3331079E-01
   7126.33  7.8349163E-01
   7126.67  8.1960353E-01
   7127.00  8.3961448E-01
   7127.33  8.4569396E-01
   7127.67  8.4615509E-01
   7128.00  8.4566937E-01
   7128.33  8.4653725E-01
   7128.67  8.4763384E-01
   7129.00  8.4676519E-01
   7129.33  8.4057686E-01
   7129.67  8.2774640E-01
   7130.00  8.0789671E-01
   7130.33  7.8134892E-01
   7130.67  7.5089723E-01
   7131.00  7.1859401E-01
   7131.33  6.8702368E-01
   7131.67  6.5853551E-01
   7132.00  6.3480835E-01
   7132.33  6.1764857E-01
   7132.67  6.0659018E-01
   7133.00  6.0159704E-01
   7133.33  6.0325345E-01
   7133.67  6.1017466E-01
   7134.00  6.2085310E-01
   7134.33  6.3197800E-01
   7134.67  6.3943568E-01
   7135.00  6.4121766E-01
   7135.33  6.3720917E-01
   7135.67  6.3019398E-01
   7136.00  6.2190971E-01
   7136.33  6.1369134E-01
   7136.67  6.0621609E-01
   7137.00  5.9974216E-01
   7137.33  5.9448802E-01
   7137.67  5.9027565E-01
   7138.00  5.8703514E-01
   7138.33  5.8482248E-01
   7138.67  5.8352635E-01
   7139.00  5.8319542E-01
   7139.33  5.8401815E-01
   7139.67  5.8585551E-01
   7140.00  5.8859823E-01
   7140.33  5.9206148E-01
   7140.67  5.9578376E-01
   7141.00  5.9941214E-01
   7141.33  6.0252651E-01
   7141.67  6.0492261E-01
   7142.00  6.0646899E-01
   7142.33  6.0699050E-01
   7142.67  6.0660594E-01
   7143.00  6.0534559E-01
   7143.33  6.0314665E-01
   7143.67  6.0014971E-01
   7144.00  5.9638364E-01
   7144.33  5.9179029E-01
   7144.67  5.8648504E-01
   7145.00  5.8047651E-01
   7145.33  5.7367958E-01
   7145.67  5.6618234E-01
   7146.00  5.5798701E-01
   7146.33  5.4901487E-01
   7146.67  5.3937044E-01
   7147.00  5.2908292E-01
   7147.33  5.1813532E-01
   7147.67  5.0668872E-01
   7148.00  4.9484791E-01
   7148.33  4.8274043E-01
   7148.67  4.7058615E-01
   7149.00  4.5856189E-01
   7149.33  4.4691097E-01
   7149.67  4.3577178E-01
   7150.00  4.2526857E-01
   7150.33  4.1559314E-01
   7150.67  4.0670309E-01
   7151.00  3.9860426E-01
   7151.33  3.9136379E-01
   7151.67  3.8482959E-01
   7152.00  3.7893740E-01
   7152.33  3.7367127E-01
   7152.67  3.6887250E-01
   7153.00  3.6446640E-01
   7153.33  3.6040983E-01
   7153.67  3.5658979E-01
   7154.00  3.5294956E-01
   7154.33  3.4944253E-01
   7154.67  3.4600552E-01
   7155.00  3.4261882E-01
   7155.33  3.3928000E-01
   7155.67  3.3599182E-01
   7156.00  3.3277670E-01
   7156.33  3.2968995E-01
   7156.67  3.2677386E-01
   7157.00  3.2409015E-01
   7157.33  3.2176245E-01
   7157.67  3.1984234E-01
   7158.00  3.1840930E-01
   7158.33  3.1762416E-01
   7158.67  3.1749490E-01
   7159.00  3.1807819E-01
   7159.33  3.1951606E-01
   7159.67  3.2173763E-01
   7160.00  3.2474191E-01
   7160.33  3.2859687E-01
   7160.67  3.3315844E-01
   7161.00  3.3836571E-01
   7161.33  3.4419986E-01
   7161.67  3.5048750E-01
   7162.00  3.5713259E-01
   7162.33  3.6405622E-01
   7162.67  3.7112391E-01
   7163.00  3.7825587E-01
   7163.33  3.8536815E-01
   7163.67  3.9239353E-01
   7164.00  3.9928280E-01
   7164.33  4.0596922E-01
   7164.67  4.1244515E-01
   7165.00  4.1869471E-01
   7165.33  4.2468026E-01
   7165.67  4.3043093E-01
   7166.00  4.3595062E-01
   7166.33  4.4121872E-01
   7166.67  4.4627097E-01
   7167.00  4.5111240E-01
   7167.33  4.5572001E-01
   7167.67  4.6011792E-01
   7168.00  4.6429977E-01
   7168.33  4.6822542E-01
   7168.67  4.7190799E-01
   7169.00  4.7533201E-01
   7169.33  4.7844339E-01
   7169.67  4.8125777E-01
   7170.00  4.8376034E-01
   7170.33  4.8589748E-01
   7170.67  4.8770389E-01
   7171.00  4.8918224E-01
   7171.33  4.9030963E-01
   7171.67  4.9116164E-01
   7172.00  4.9179132E-01
