    FDMNES
    energy     <xanes>
   7097.00  5.1400885E-03
   7097.33  5.2642384E-03
   7097.67  5.3940831E-03
   7098.00  5.5300054E-03
   7098.33  5.6733185E-03
   7098.67  5.8237476E-03
   7099.00  5.9818109E-03
   7099.33  6.1492170E-03
   7099.67  6.3256791E-03
   7100.00  6.5119154E-03
   7100.33  6.7102023E-03
   7100.67  6.9202620E-03
   7101.00  7.1431184E-03
   7101.33  7.3818905E-03
   7101.67  7.6363563E-03
   7102.00  7.9080252E-03
   7102.33  8.2013154E-03
   7102.67  8.5161651E-03
   7103.00  8.8548910E-03
   7103.33  9.2240104E-03
   7103.67  9.6238571E-03
   7104.00  1.0058167E-02
   7104.33  1.0537054E-02
   7104.67  1.1061800E-02
   7105.00  1.1638822E-02
   7105.33  1.2284878E-02
   7105.67  1.3003599E-02
   7106.00  1.3806966E-02
   7106.33  1.4725312E-02
   7106.67  1.5768597E-02
   7107.00  1.6961970E-02
   7107.33  1.8367767E-02
   7107.67  2.0015715E-02
   7108.00  2.1968788E-02
   7108.33  2.4383322E-02
   7108.67  2.7368127E-02
   7109.00  3.1134342E-02
   7109.33  3.6235347E-02
   7109.67  4.3258753E-02
   7110.00  5.3363365E-02
   7110.33  6.9846550E-02
   7110.67  9.5899611E-02
   7111.00  1.3111903E-01
   7111.33  1.6236702E-01
   7111.67  1.8277610E-01
   7112.00  2.0048542E-01
   7112.33  2.2571385E-01
   7112.67  2.7042397E-01
   7113.00  3.4149747E-01
   7113.33  4.4189591E-01
   7113.67  5.6078302E-01
   7114.00  6.7436219E-01
   7114.33  7.0575286E-01
   7114.67  6.2989952E-01
   7115.00  5.0392383E-01
   7115.33  3.9719327E-01
   7115.67  3.2167725E-01
   7116.00  2.7151433E-01
   7116.33  2.4091467E-01
   7116.67  2.2224191E-01
   7117.00  2.1214256E-01
   7117.33  2.0681369E-01
   7117.67  2.0030343E-01
   7118.00  1.8934325E-01
   7118.33  1.7446253E-01
   7118.67  1.5988819E-01
   7119.00  1.4794713E-01
   7119.33  1.3998049E-01
   7119.67  1.3535872E-01
   7120.00  1.3346469E-01
   7120.33  1.3353717E-01
   7120.67  1.3443399E-01
   7121.00  1.3557342E-01
   7121.33  1.3652668E-01
   7121.67  1.3701016E-01
   7122.00  1.3700081E-01
   7122.33  1.3693039E-01
   7122.67  1.3715708E-01
   7123.00  1.3762963E-01
   7123.33  1.3828336E-01
   7123.67  1.3933143E-01
   7124.00  1.4097940E-01
   7124.33  1.4335322E-01
   7124.67  1.4656679E-01
   7125.00  1.5101132E-01
   7125.33  1.5742710E-01
   7125.67  1.6604616E-01
   7126.00  1.7715071E-01
   7126.33  1.9125775E-01
   7126.67  2.0811732E-01
   7127.00  2.2784988E-01
   7127.33  2.5116306E-01
   7127.67  2.7788772E-01
   7128.00  3.0762612E-01
   7128.33  3.3897233E-01
   7128.67  3.6947326E-01
   7129.00  3.9781792E-01
   7129.33  4.2433044E-01
   7129.67  4.5166718E-01
   7130.00  4.8237240E-01
   7130.33  5.1929696E-01
   7130.67  5.6247766E-01
   7131.00  6.1154897E-01
   7131.33  6.6597253E-01
   7131.67  7.2365793E-01
   7132.00  7.8320252E-01
   7132.33  8.4288874E-01
   7132.67  9.0079889E-01
   7133.00  9.5504916E-01
   7133.33  1.0021791E+00
   7133.67  1.0397888E+00
   7134.00  1.0650261E+00
   7134.33  1.0733426E+00
   7134.67  1.0655639E+00
   7135.00  1.0424888E+00
   7135.33  1.0052190E+00
   7135.67  9.5905654E-01
   7136.00  9.0730083E-01
   7136.33  8.5302617E-01
   7136.67  7.9908640E-01
   7137.00  7.4707694E-01
   7137.33  6.9868996E-01
   7137.67  6.5437584E-01
   7138.00  6.1463003E-01
   7138.33  5.8044485E-01
   7138.67  5.5138048E-01
   7139.00  5.2742202E-01
   7139.33  5.0894631E-01
   7139.67  4.9490941E-01
   7140.00  4.8484590E-01
   7140.33  4.7864026E-01
   7140.67  4.7539428E-01
   7141.00  4.7477725E-01
   7141.33  4.7674211E-01
   7141.67  4.8068954E-01
   7142.00  4.8635873E-01
   7142.33  4.9362655E-01
   7142.67  5.0201148E-01
   7143.00  5.1124520E-01
   7143.33  5.2106696E-01
   7143.67  5.3107162E-01
   7144.00  5.4096487E-01
   7144.33  5.5036720E-01
   7144.67  5.5905424E-01
   7145.00  5.6684145E-01
   7145.33  5.7345801E-01
   7145.67  5.7896775E-01
   7146.00  5.8336031E-01
   7146.33  5.8652114E-01
   7146.67  5.8862697E-01
   7147.00  5.8971497E-01
   7147.33  5.8970835E-01
   7147.67  5.8878149E-01
   7148.00  5.8699227E-01
   7148.33  5.8433174E-01
   7148.67  5.8100033E-01
   7149.00  5.7709250E-01
   7149.33  5.7267448E-01
   7149.67  5.6794651E-01
   7150.00  5.6304438E-01
   7150.33  5.5812108E-01
   7150.67  5.5332657E-01
   7151.00  5.4878037E-01
   7151.33  5.4465584E-01
   7151.67  5.4101516E-01
   7152.00  5.3793591E-01
   7152.33  5.3556706E-01
   7152.67  5.3387771E-01
   7153.00  5.3289264E-01
   7153.33  5.3271320E-01
   7153.67  5.3324658E-01
   7154.00  5.3448022E-01
   7154.33  5.3647436E-01
   7154.67  5.3911071E-01
   7155.00  5.4235253E-01
   7155.33  5.4621521E-01
   7155.67  5.5056239E-01
   7156.00  5.5532435E-01
   7156.33  5.6044663E-01
   7156.67  5.6577966E-01
   7157.00  5.7121722E-01
   7157.33  5.7662553E-01
   7157.67  5.8187756E-01
   7158.00  5.8686413E-01
   7158.33  5.9141433E-01
   7158.67  5.9546052E-01
   7159.00  5.9890947E-01
   7159.33  6.0157606E-01
   7159.67  6.0346381E-01
   7160.00  6.0451669E-01
   7160.33  6.0458224E-01
   7160.67  6.0375431E-01
   7161.00  6.0204081E-01
   7161.33  5.9936674E-01
   7161.67  5.9589042E-01
   7162.00  5.9166963E-01
   7162.33  5.8669515E-01
   7162.67  5.8112126E-01
   7163.00  5.7500856E-01
   7163.33  5.6837054E-01
   7163.67  5.6133266E-01
   7164.00  5.5394849E-01
   7164.33  5.4624134E-01
   7164.67  5.3830516E-01
   7165.00  5.3019017E-01
   7165.33  5.2194085E-01
   7165.67  5.1363401E-01
   7166.00  5.0532584E-01
   7166.33  4.9709228E-01
   7166.67  4.8899247E-01
   7167.00  4.8108286E-01
   7167.33  4.7345682E-01
   7167.67  4.6613694E-01
   7168.00  4.5916190E-01
   7168.33  4.5261508E-01
   7168.67  4.4647500E-01
   7169.00  4.4075605E-01
   7169.33  4.3552045E-01
   7169.67  4.3071492E-01
   7170.00  4.2633262E-01
   7170.33  4.2240931E-01
   7170.67  4.1887810E-01
   7171.00  4.1573027E-01
   7171.33  4.1301611E-01
   7171.67  4.1071565E-01
   7172.00  4.0887752E-01
