    FDMNES
    energy     <xanes>
   7097.00  5.3256978E-03
   7097.33  5.4625947E-03
   7097.67  5.6062498E-03
   7098.00  5.7571552E-03
   7098.33  5.9169343E-03
   7098.67  6.0853158E-03
   7099.00  6.2629831E-03
   7099.33  6.4521012E-03
   7099.67  6.6524088E-03
   7100.00  6.8648822E-03
   7100.33  7.0924918E-03
   7100.67  7.3350322E-03
   7101.00  7.5939456E-03
   7101.33  7.8734467E-03
   7101.67  8.1734874E-03
   7102.00  8.4962850E-03
   7102.33  8.8480678E-03
   7102.67  9.2291698E-03
   7103.00  9.6431701E-03
   7103.33  1.0099743E-02
   7103.67  1.0600127E-02
   7104.00  1.1150457E-02
   7104.33  1.1766734E-02
   7104.67  1.2452383E-02
   7105.00  1.3218760E-02
   7105.33  1.4094567E-02
   7105.67  1.5088885E-02
   7106.00  1.6224961E-02
   7106.33  1.7560193E-02
   7106.67  1.9119979E-02
   7107.00  2.0958980E-02
   7107.33  2.3210969E-02
   7107.67  2.5957083E-02
   7108.00  2.9354539E-02
   7108.33  3.3795359E-02
   7108.67  3.9608675E-02
   7109.00  4.7412895E-02
   7109.33  5.8866102E-02
   7109.67  7.5965807E-02
   7110.00  1.0266544E-01
   7110.33  1.5049331E-01
   7110.67  2.3128727E-01
   7111.00  3.4111395E-01
   7111.33  4.0778689E-01
   7111.67  4.0678462E-01
   7112.00  3.8784832E-01
   7112.33  3.8086338E-01
   7112.67  3.7219782E-01
   7113.00  3.5333489E-01
   7113.33  3.3275346E-01
   7113.67  3.2055464E-01
   7114.00  3.1938247E-01
   7114.33  3.2924822E-01
   7114.67  3.3952983E-01
   7115.00  3.3502450E-01
   7115.33  3.0586478E-01
   7115.67  2.6767360E-01
   7116.00  2.3257655E-01
   7116.33  2.0694678E-01
   7116.67  1.8919979E-01
   7117.00  1.7744604E-01
   7117.33  1.7002177E-01
   7117.67  1.6500894E-01
   7118.00  1.6175341E-01
   7118.33  1.5998572E-01
   7118.67  1.5917635E-01
   7119.00  1.5899141E-01
   7119.33  1.5910574E-01
   7119.67  1.5932452E-01
   7120.00  1.5969412E-01
   7120.33  1.6036975E-01
   7120.67  1.6140870E-01
   7121.00  1.6271483E-01
   7121.33  1.6390689E-01
   7121.67  1.6494938E-01
   7122.00  1.6663658E-01
   7122.33  1.7056890E-01
   7122.67  1.7700202E-01
   7123.00  1.8566582E-01
   7123.33  1.9649223E-01
   7123.67  2.0931055E-01
   7124.00  2.2429813E-01
   7124.33  2.4162017E-01
   7124.67  2.6031332E-01
   7125.00  2.7938613E-01
   7125.33  2.9775928E-01
   7125.67  3.1529936E-01
   7126.00  3.3241253E-01
   7126.33  3.4945929E-01
   7126.67  3.6607706E-01
   7127.00  3.8157865E-01
   7127.33  3.9526904E-01
   7127.67  4.0753653E-01
   7128.00  4.1916550E-01
   7128.33  4.3175735E-01
   7128.67  4.4688749E-01
   7129.00  4.6583461E-01
   7129.33  4.9028644E-01
   7129.67  5.2008102E-01
   7130.00  5.5497745E-01
   7130.33  5.9440773E-01
   7130.67  6.3615763E-01
   7131.00  6.7867936E-01
   7131.33  7.2037613E-01
   7131.67  7.5973147E-01
   7132.00  7.9464757E-01
   7132.33  8.2106757E-01
   7132.67  8.3752639E-01
   7133.00  8.4352105E-01
   7133.33  8.3903610E-01
   7133.67  8.2724316E-01
   7134.00  8.0983805E-01
   7134.33  7.8791901E-01
   7134.67  7.6318550E-01
   7135.00  7.3644126E-01
   7135.33  7.0833643E-01
   7135.67  6.7977224E-01
   7136.00  6.5138755E-01
   7136.33  6.2403028E-01
   7136.67  5.9827679E-01
   7137.00  5.7465500E-01
   7137.33  5.5400383E-01
   7137.67  5.3637087E-01
   7138.00  5.2197292E-01
   7138.33  5.1136931E-01
   7138.67  5.0417823E-01
   7139.00  5.0037825E-01
   7139.33  5.0030597E-01
   7139.67  5.0341020E-01
   7140.00  5.0951506E-01
   7140.33  5.1865658E-01
   7140.67  5.3007148E-01
   7141.00  5.4330017E-01
   7141.33  5.5788393E-01
   7141.67  5.7303779E-01
   7142.00  5.8823669E-01
   7142.33  6.0286659E-01
   7142.67  6.1655672E-01
   7143.00  6.2903652E-01
   7143.33  6.3991199E-01
   7143.67  6.4923528E-01
   7144.00  6.5695662E-01
   7144.33  6.6287280E-01
   7144.67  6.6723002E-01
   7145.00  6.7009832E-01
   7145.33  6.7141606E-01
   7145.67  6.7149073E-01
   7146.00  6.7045336E-01
   7146.33  6.6834320E-01
   7146.67  6.6542057E-01
   7147.00  6.6179058E-01
   7147.33  6.5749883E-01
   7147.67  6.5273642E-01
   7148.00  6.4760303E-01
   7148.33  6.4218352E-01
   7148.67  6.3661730E-01
   7149.00  6.3098831E-01
   7149.33  6.2539369E-01
   7149.67  6.1991940E-01
   7150.00  6.1463907E-01
   7150.33  6.0966661E-01
   7150.67  6.0503886E-01
   7151.00  6.0080824E-01
   7151.33  5.9707966E-01
   7151.67  5.9383218E-01
   7152.00  5.9108378E-01
   7152.33  5.8890279E-01
   7152.67  5.8721304E-01
   7153.00  5.8598823E-01
   7153.33  5.8523178E-01
   7153.67  5.8482484E-01
   7154.00  5.8469803E-01
   7154.33  5.8478313E-01
   7154.67  5.8495632E-01
   7155.00  5.8513007E-01
   7155.33  5.8519686E-01
   7155.67  5.8508559E-01
   7156.00  5.8473771E-01
   7156.33  5.8406467E-01
   7156.67  5.8306741E-01
   7157.00  5.8172879E-01
   7157.33  5.7999828E-01
   7157.67  5.7792362E-01
   7158.00  5.7551474E-01
   7158.33  5.7274892E-01
   7158.67  5.6968810E-01
   7159.00  5.6635362E-01
   7159.33  5.6273788E-01
   7159.67  5.5889359E-01
   7160.00  5.5483696E-01
   7160.33  5.5056011E-01
   7160.67  5.4610223E-01
   7161.00  5.4147425E-01
   7161.33  5.3666660E-01
   7161.67  5.3170742E-01
   7162.00  5.2660249E-01
   7162.33  5.2134046E-01
   7162.67  5.1594495E-01
   7163.00  5.1042158E-01
   7163.33  5.0476291E-01
   7163.67  4.9899296E-01
   7164.00  4.9312006E-01
   7164.33  4.8714399E-01
   7164.67  4.8108983E-01
   7165.00  4.7497145E-01
   7165.33  4.6880226E-01
   7165.67  4.6260948E-01
   7166.00  4.5641273E-01
   7166.33  4.5023783E-01
   7166.67  4.4410599E-01
   7167.00  4.3803723E-01
   7167.33  4.3206724E-01
   7167.67  4.2621008E-01
   7168.00  4.2048351E-01
   7168.33  4.1492422E-01
   7168.67  4.0953067E-01
   7169.00  4.0431962E-01
   7169.33  3.9933821E-01
   7169.67  3.9458462E-01
   7170.00  3.9008092E-01
   7170.33  3.8588979E-01
   7170.67  3.8200884E-01
   7171.00  3.7847118E-01
   7171.33  3.7537536E-01
   7171.67  3.7274312E-01
   7172.00  3.7065067E-01
