    FDMNES
    energy     <xanes>
   7097.00  4.3124459E-03
   7097.33  4.3993294E-03
   7097.67  4.4897253E-03
   7098.00  4.5838598E-03
   7098.33  4.6825281E-03
   7098.67  4.7855506E-03
   7099.00  4.8932357E-03
   7099.33  5.0066169E-03
   7099.67  5.1255118E-03
   7100.00  5.2503534E-03
   7100.33  5.3825238E-03
   7100.67  5.5218559E-03
   7101.00  5.6689782E-03
   7101.33  5.8258045E-03
   7101.67  5.9922222E-03
   7102.00  6.1691827E-03
   7102.33  6.3594481E-03
   7102.67  6.5630498E-03
   7103.00  6.7815006E-03
   7103.33  7.0189967E-03
   7103.67  7.2759206E-03
   7104.00  7.5548295E-03
   7104.33  7.8625210E-03
   7104.67  8.2002384E-03
   7105.00  8.5726527E-03
   7105.33  8.9917239E-03
   7105.67  9.4609304E-03
   7106.00  9.9897154E-03
   7106.33  1.0601583E-02
   7106.67  1.1306461E-02
   7107.00  1.2126314E-02
   7107.33  1.3115133E-02
   7107.67  1.4304941E-02
   7108.00  1.5758554E-02
   7108.33  1.7633165E-02
   7108.67  2.0060617E-02
   7109.00  2.3290638E-02
   7109.33  2.7998647E-02
   7109.67  3.5014961E-02
   7110.00  4.5990399E-02
   7110.33  6.5582812E-02
   7110.67  9.6545828E-02
   7111.00  1.2902239E-01
   7111.33  1.3658958E-01
   7111.67  1.3892012E-01
   7112.00  1.5542994E-01
   7112.33  1.9748748E-01
   7112.67  2.5410478E-01
   7113.00  2.8298110E-01
   7113.33  2.3453485E-01
   7113.67  1.6870177E-01
   7114.00  1.2079868E-01
   7114.33  9.2874997E-02
   7114.67  7.5433159E-02
   7115.00  6.5109797E-02
   7115.33  5.9632619E-02
   7115.67  5.6471134E-02
   7116.00  5.4766500E-02
   7116.33  5.4493384E-02
   7116.67  5.5555294E-02
   7117.00  5.8002903E-02
   7117.33  6.2130493E-02
   7117.67  6.7914798E-02
   7118.00  7.5450088E-02
   7118.33  8.4732240E-02
   7118.67  9.4661854E-02
   7119.00  1.0369417E-01
   7119.33  1.0911553E-01
   7119.67  1.0975346E-01
   7120.00  1.0589756E-01
   7120.33  9.9376088E-02
   7120.67  9.2930864E-02
   7121.00  8.7920706E-02
   7121.33  8.5388669E-02
   7121.67  8.5471175E-02
   7122.00  8.8590718E-02
   7122.33  9.6010238E-02
   7122.67  1.0826758E-01
   7123.00  1.2598312E-01
   7123.33  1.4877903E-01
   7123.67  1.7209633E-01
   7124.00  1.9132387E-01
   7124.33  2.0321859E-01
   7124.67  2.1091372E-01
   7125.00  2.1776751E-01
   7125.33  2.2699785E-01
   7125.67  2.4056642E-01
   7126.00  2.5960252E-01
   7126.33  2.8284980E-01
   7126.67  3.0677193E-01
   7127.00  3.3194423E-01
   7127.33  3.6211485E-01
   7127.67  3.9886460E-01
   7128.00  4.4284689E-01
   7128.33  4.9406430E-01
   7128.67  5.4834470E-01
   7129.00  6.0087298E-01
   7129.33  6.4382608E-01
   7129.67  6.7217893E-01
   7130.00  6.8444839E-01
   7130.33  6.8462270E-01
   7130.67  6.8236464E-01
   7131.00  6.8216648E-01
   7131.33  6.8609899E-01
   7131.67  6.9376275E-01
   7132.00  7.0500882E-01
   7132.33  7.1992868E-01
   7132.67  7.3770005E-01
   7133.00  7.5826418E-01
   7133.33  7.8293269E-01
   7133.67  8.1320810E-01
   7134.00  8.5105404E-01
   7134.33  8.9838788E-01
   7134.67  9.5096775E-01
   7135.00  1.0009903E+00
   7135.33  1.0319220E+00
   7135.67  1.0342785E+00
   7136.00  1.0093932E+00
   7136.33  9.6864529E-01
   7136.67  9.2752222E-01
   7137.00  8.9280676E-01
   7137.33  8.6837618E-01
   7137.67  8.5271388E-01
   7138.00  8.4427544E-01
   7138.33  8.4095300E-01
   7138.67  8.3875092E-01
   7139.00  8.3441452E-01
   7139.33  8.2391771E-01
   7139.67  8.0621122E-01
   7140.00  7.8162670E-01
   7140.33  7.5170181E-01
   7140.67  7.1990523E-01
   7141.00  6.8844192E-01
   7141.33  6.5933313E-01
   7141.67  6.3319296E-01
   7142.00  6.1024198E-01
   7142.33  5.9075978E-01
   7142.67  5.7407953E-01
   7143.00  5.5993282E-01
   7143.33  5.4831728E-01
   7143.67  5.3871643E-01
   7144.00  5.3096885E-01
   7144.33  5.2512402E-01
   7144.67  5.2079925E-01
   7145.00  5.1780609E-01
   7145.33  5.1600680E-01
   7145.67  5.1496734E-01
   7146.00  5.1441070E-01
   7146.33  5.1405449E-01
   7146.67  5.1364776E-01
   7147.00  5.1308176E-01
   7147.33  5.1231983E-01
   7147.67  5.1147468E-01
   7148.00  5.1068200E-01
   7148.33  5.1015268E-01
   7148.67  5.1002909E-01
   7149.00  5.1043281E-01
   7149.33  5.1152472E-01
   7149.67  5.1323329E-01
   7150.00  5.1549617E-01
   7150.33  5.1822243E-01
   7150.67  5.2115769E-01
   7151.00  5.2410164E-01
   7151.33  5.2681371E-01
   7151.67  5.2916344E-01
   7152.00  5.3107200E-01
   7152.33  5.3243874E-01
   7152.67  5.3332702E-01
   7153.00  5.3376098E-01
   7153.33  5.3370497E-01
   7153.67  5.3320921E-01
   7154.00  5.3226284E-01
   7154.33  5.3075725E-01
   7154.67  5.2865750E-01
   7155.00  5.2584608E-01
   7155.33  5.2205658E-01
   7155.67  5.1724648E-01
   7156.00  5.1131604E-01
   7156.33  5.0405957E-01
   7156.67  4.9563936E-01
   7157.00  4.8612411E-01
   7157.33  4.7552198E-01
   7157.67  4.6411213E-01
   7158.00  4.5203509E-01
   7158.33  4.3937783E-01
   7158.67  4.2633776E-01
   7159.00  4.1301958E-01
   7159.33  3.9952621E-01
   7159.67  3.8601434E-01
   7160.00  3.7262178E-01
   7160.33  3.5957156E-01
   7160.67  3.4703615E-01
   7161.00  3.3520763E-01
   7161.33  3.2441329E-01
   7161.67  3.1471971E-01
   7162.00  3.0626144E-01
   7162.33  2.9934882E-01
   7162.67  2.9392915E-01
   7163.00  2.9009187E-01
   7163.33  2.8813939E-01
   7163.67  2.8794517E-01
   7164.00  2.8957167E-01
   7164.33  2.9331267E-01
   7164.67  2.9896980E-01
   7165.00  3.0654922E-01
   7165.33  3.1625467E-01
   7165.67  3.2776188E-01
   7166.00  3.4094061E-01
   7166.33  3.5574714E-01
   7166.67  3.7169217E-01
   7167.00  3.8844544E-01
   7167.33  4.0560273E-01
   7167.67  4.2262310E-01
   7168.00  4.3906801E-01
   7168.33  4.5431503E-01
   7168.67  4.6806903E-01
   7169.00  4.8003731E-01
   7169.33  4.8973412E-01
   7169.67  4.9730045E-01
   7170.00  5.0273564E-01
   7170.33  5.0588659E-01
   7170.67  5.0720763E-01
   7171.00  5.0695123E-01
   7171.33  5.0538056E-01
   7171.67  5.0322851E-01
   7172.00  5.0115919E-01
