    FDMNES
    energy     <xanes>
   7097.00  5.2079138E-03
   7097.33  5.3313281E-03
   7097.67  5.4604123E-03
   7098.00  5.5955537E-03
   7098.33  5.7380708E-03
   7098.67  5.8876999E-03
   7099.00  6.0449691E-03
   7099.33  6.2116047E-03
   7099.67  6.3873367E-03
   7100.00  6.5729037E-03
   7100.33  6.7706242E-03
   7100.67  6.9802472E-03
   7101.00  7.2028378E-03
   7101.33  7.4416037E-03
   7101.67  7.6963702E-03
   7102.00  7.9687279E-03
   7102.33  8.2632771E-03
   7102.67  8.5800442E-03
   7103.00  8.9215087E-03
   7103.33  9.2945611E-03
   7103.67  9.6997116E-03
   7104.00  1.0141032E-02
   7104.33  1.0629417E-02
   7104.67  1.1166529E-02
   7105.00  1.1759510E-02
   7105.33  1.2426812E-02
   7105.67  1.3172955E-02
   7106.00  1.4011590E-02
   7106.33  1.4976956E-02
   7106.67  1.6081283E-02
   7107.00  1.7353880E-02
   7107.33  1.8866882E-02
   7107.67  2.0656447E-02
   7108.00  2.2797042E-02
   7108.33  2.5472333E-02
   7108.67  2.8811440E-02
   7109.00  3.3060819E-02
   7109.33  3.8857475E-02
   7109.67  4.6853409E-02
   7110.00  5.8313062E-02
   7110.33  7.6829913E-02
   7110.67  1.0661697E-01
   7111.00  1.5170184E-01
   7111.33  2.0964772E-01
   7111.67  2.6625690E-01
   7112.00  3.1056228E-01
   7112.33  3.3853951E-01
   7112.67  3.6615407E-01
   7113.00  4.0754474E-01
   7113.33  4.5482679E-01
   7113.67  4.7874041E-01
   7114.00  4.6337900E-01
   7114.33  4.0829522E-01
   7114.67  3.4545403E-01
   7115.00  2.9350697E-01
   7115.33  2.5927093E-01
   7115.67  2.3772548E-01
   7116.00  2.2523691E-01
   7116.33  2.1842605E-01
   7116.67  2.1249231E-01
   7117.00  2.0309776E-01
   7117.33  1.8656145E-01
   7117.67  1.6725286E-01
   7118.00  1.4989192E-01
   7118.33  1.3744797E-01
   7118.67  1.2929478E-01
   7119.00  1.2474132E-01
   7119.33  1.2315027E-01
   7119.67  1.2311732E-01
   7120.00  1.2373840E-01
   7120.33  1.2430175E-01
   7120.67  1.2461552E-01
   7121.00  1.2470921E-01
   7121.33  1.2464558E-01
   7121.67  1.2478018E-01
   7122.00  1.2569178E-01
   7122.33  1.2828068E-01
   7122.67  1.3284123E-01
   7123.00  1.3961878E-01
   7123.33  1.4920929E-01
   7123.67  1.6158349E-01
   7124.00  1.7669985E-01
   7124.33  1.9415340E-01
   7124.67  2.1298305E-01
   7125.00  2.3298784E-01
   7125.33  2.5387766E-01
   7125.67  2.7500348E-01
   7126.00  2.9635636E-01
   7126.33  3.1827462E-01
   7126.67  3.4059619E-01
   7127.00  3.6291864E-01
   7127.33  3.8489511E-01
   7127.67  4.0678387E-01
   7128.00  4.2912157E-01
   7128.33  4.5285165E-01
   7128.67  4.7849437E-01
   7129.00  5.0636672E-01
   7129.33  5.3687023E-01
   7129.67  5.6953496E-01
   7130.00  6.0387105E-01
   7130.33  6.3943250E-01
   7130.67  6.7593302E-01
   7131.00  7.1332214E-01
   7131.33  7.5099708E-01
   7131.67  7.8765039E-01
   7132.00  8.2208442E-01
   7132.33  8.5291690E-01
   7132.67  8.8026608E-01
   7133.00  9.0435922E-01
   7133.33  9.2523996E-01
   7133.67  9.4329689E-01
   7134.00  9.5796367E-01
   7134.33  9.6722061E-01
   7134.67  9.6975615E-01
   7135.00  9.6409273E-01
   7135.33  9.4843221E-01
   7135.67  9.2473211E-01
   7136.00  8.9465355E-01
   7136.33  8.5993351E-01
   7136.67  8.2312141E-01
   7137.00  7.8564333E-01
   7137.33  7.4891793E-01
   7137.67  7.1393611E-01
   7138.00  6.8146104E-01
   7138.33  6.5260933E-01
   7138.67  6.2747823E-01
   7139.00  6.0629424E-01
   7139.33  5.8955148E-01
   7139.67  5.7648545E-01
   7140.00  5.6668495E-01
   7140.33  5.5986931E-01
   7140.67  5.5505355E-01
   7141.00  5.5170991E-01
   7141.33  5.4941687E-01
   7141.67  5.4761392E-01
   7142.00  5.4599094E-01
   7142.33  5.4424004E-01
   7142.67  5.4214250E-01
   7143.00  5.3954209E-01
   7143.33  5.3622865E-01
   7143.67  5.3221070E-01
   7144.00  5.2748005E-01
   7144.33  5.2200662E-01
   7144.67  5.1598665E-01
   7145.00  5.0955729E-01
   7145.33  5.0288083E-01
   7145.67  4.9618777E-01
   7146.00  4.8964863E-01
   7146.33  4.8348591E-01
   7146.67  4.7780989E-01
   7147.00  4.7271989E-01
   7147.33  4.6836203E-01
   7147.67  4.6467654E-01
   7148.00  4.6166716E-01
   7148.33  4.5941063E-01
   7148.67  4.5780204E-01
   7149.00  4.5681243E-01
   7149.33  4.5647614E-01
   7149.67  4.5667848E-01
   7150.00  4.5737956E-01
   7150.33  4.5858988E-01
   7150.67  4.6021163E-01
   7151.00  4.6221632E-01
   7151.33  4.6462533E-01
   7151.67  4.6737855E-01
   7152.00  4.7046663E-01
   7152.33  4.7391926E-01
   7152.67  4.7768002E-01
   7153.00  4.8172763E-01
   7153.33  4.8605744E-01
   7153.67  4.9058894E-01
   7154.00  4.9526988E-01
   7154.33  5.0004237E-01
   7154.67  5.0482535E-01
   7155.00  5.0955630E-01
   7155.33  5.1414465E-01
   7155.67  5.1853361E-01
   7156.00  5.2266600E-01
   7156.33  5.2644366E-01
   7156.67  5.2985696E-01
   7157.00  5.3287300E-01
   7157.33  5.3541335E-01
   7157.67  5.3752074E-01
   7158.00  5.3919972E-01
   7158.33  5.4042036E-01
   7158.67  5.4127018E-01
   7159.00  5.4179106E-01
   7159.33  5.4200662E-01
   7159.67  5.4201287E-01
   7160.00  5.4186219E-01
   7160.33  5.4159719E-01
   7160.67  5.4127654E-01
   7161.00  5.4092870E-01
   7161.33  5.4057151E-01
   7161.67  5.4021044E-01
   7162.00  5.3983942E-01
   7162.33  5.3943989E-01
   7162.67  5.3899114E-01
   7163.00  5.3846216E-01
   7163.33  5.3780322E-01
   7163.67  5.3700622E-01
   7164.00  5.3605563E-01
   7164.33  5.3491489E-01
   7164.67  5.3359577E-01
   7165.00  5.3209532E-01
   7165.33  5.3039319E-01
   7165.67  5.2852022E-01
   7166.00  5.2648783E-01
   7166.33  5.2429483E-01
   7166.67  5.2197933E-01
   7167.00  5.1956074E-01
   7167.33  5.1705153E-01
   7167.67  5.1448357E-01
   7168.00  5.1187521E-01
   7168.33  5.0924409E-01
   7168.67  5.0661060E-01
   7169.00  5.0398843E-01
   7169.33  5.0139876E-01
   7169.67  4.9885606E-01
   7170.00  4.9637175E-01
   7170.33  4.9396722E-01
   7170.67  4.9165009E-01
   7171.00  4.8944203E-01
   7171.33  4.8740527E-01
   7171.67  4.8560082E-01
   7172.00  4.8413322E-01
