    FDMNES
    energy     <xanes>
   7097.00  4.0655437E-03
   7097.33  4.1434977E-03
   7097.67  4.2243546E-03
   7098.00  4.3082889E-03
   7098.33  4.3959375E-03
   7098.67  4.4871364E-03
   7099.00  4.5821215E-03
   7099.33  4.6817098E-03
   7099.67  4.7857330E-03
   7100.00  4.8945197E-03
   7100.33  5.0091499E-03
   7100.67  5.1294642E-03
   7101.00  5.2559379E-03
   7101.33  5.3900510E-03
   7101.67  5.5316837E-03
   7102.00  5.6815541E-03
   7102.33  5.8417823E-03
   7102.67  6.0123580E-03
   7103.00  6.1944250E-03
   7103.33  6.3911920E-03
   7103.67  6.6029211E-03
   7104.00  6.8315571E-03
   7104.33  7.0823004E-03
   7104.67  7.3560919E-03
   7105.00  7.6565161E-03
   7105.33  7.9927737E-03
   7105.67  8.3675831E-03
   7106.00  8.7882770E-03
   7106.33  9.2731086E-03
   7106.67  9.8299466E-03
   7107.00  1.0476036E-02
   7107.33  1.1253714E-02
   7107.67  1.2188373E-02
   7108.00  1.3329449E-02
   7108.33  1.4800110E-02
   7108.67  1.6702565E-02
   7109.00  1.9228543E-02
   7109.33  2.2889175E-02
   7109.67  2.8288924E-02
   7110.00  3.6616436E-02
   7110.33  5.1308069E-02
   7110.67  7.5908737E-02
   7111.00  1.1046904E-01
   7111.33  1.4267724E-01
   7111.67  1.5868630E-01
   7112.00  1.5595127E-01
   7112.33  1.4497194E-01
   7112.67  1.2500207E-01
   7113.00  9.9054609E-02
   7113.33  7.7475643E-02
   7113.67  6.2874059E-02
   7114.00  5.4025593E-02
   7114.33  4.8338093E-02
   7114.67  4.3335553E-02
   7115.00  3.8871711E-02
   7115.33  3.6042022E-02
   7115.67  3.4697541E-02
   7116.00  3.4391713E-02
   7116.33  3.4720769E-02
   7116.67  3.5361968E-02
   7117.00  3.6303331E-02
   7117.33  3.7711022E-02
   7117.67  3.9667375E-02
   7118.00  4.2266701E-02
   7118.33  4.5664359E-02
   7118.67  4.9743592E-02
   7119.00  5.4365020E-02
   7119.33  5.9257158E-02
   7119.67  6.3990902E-02
   7120.00  6.8256716E-02
   7120.33  7.1888915E-02
   7120.67  7.5280271E-02
   7121.00  7.8932754E-02
   7121.33  8.3526367E-02
   7121.67  8.9367377E-02
   7122.00  9.6694540E-02
   7122.33  1.0597729E-01
   7122.67  1.1730034E-01
   7123.00  1.3098929E-01
   7123.33  1.4790773E-01
   7123.67  1.6841348E-01
   7124.00  1.9330975E-01
   7124.33  2.2420610E-01
   7124.67  2.6078990E-01
   7125.00  3.0242550E-01
   7125.33  3.4699740E-01
   7125.67  3.8891303E-01
   7126.00  4.2249523E-01
   7126.33  4.4569542E-01
   7126.67  4.6779739E-01
   7127.00  4.9584895E-01
   7127.33  5.3285978E-01
   7127.67  5.7658517E-01
   7128.00  6.2599601E-01
   7128.33  6.7987212E-01
   7128.67  7.3464941E-01
   7129.00  7.8708850E-01
   7129.33  8.3354289E-01
   7129.67  8.7379477E-01
   7130.00  9.0865633E-01
   7130.33  9.3931175E-01
   7130.67  9.6807951E-01
   7131.00  9.9582942E-01
   7131.33  1.0191723E+00
   7131.67  1.0310559E+00
   7132.00  1.0253969E+00
   7132.33  9.9897346E-01
   7132.67  9.6006812E-01
   7133.00  9.1603163E-01
   7133.33  8.7449925E-01
   7133.67  8.3980114E-01
   7134.00  8.1372923E-01
   7134.33  7.9731128E-01
   7134.67  7.8718147E-01
   7135.00  7.7949442E-01
   7135.33  7.6974145E-01
   7135.67  7.5699330E-01
   7136.00  7.4225274E-01
   7136.33  7.2703443E-01
   7136.67  7.1251052E-01
   7137.00  6.9920137E-01
   7137.33  6.8752246E-01
   7137.67  6.7727628E-01
   7138.00  6.6833686E-01
   7138.33  6.6063362E-01
   7138.67  6.5380417E-01
   7139.00  6.4766784E-01
   7139.33  6.4210984E-01
   7139.67  6.3692893E-01
   7140.00  6.3204178E-01
   7140.33  6.2741477E-01
   7140.67  6.2298684E-01
   7141.00  6.1874977E-01
   7141.33  6.1473565E-01
   7141.67  6.1093869E-01
   7142.00  6.0737791E-01
   7142.33  6.0410190E-01
   7142.67  6.0108170E-01
   7143.00  5.9829407E-01
   7143.33  5.9569360E-01
   7143.67  5.9316195E-01
   7144.00  5.9060733E-01
   7144.33  5.8792723E-01
   7144.67  5.8509310E-01
   7145.00  5.8211547E-01
   7145.33  5.7904366E-01
   7145.67  5.7597600E-01
   7146.00  5.7298671E-01
   7146.33  5.7015171E-01
   7146.67  5.6746509E-01
   7147.00  5.6489313E-01
   7147.33  5.6235382E-01
   7147.67  5.5972081E-01
   7148.00  5.5687397E-01
   7148.33  5.5363375E-01
   7148.67  5.4992124E-01
   7149.00  5.4564536E-01
   7149.33  5.4064314E-01
   7149.67  5.3494914E-01
   7150.00  5.2855571E-01
   7150.33  5.2138956E-01
   7150.67  5.1357002E-01
   7151.00  5.0514323E-01
   7151.33  4.9611104E-01
   7151.67  4.8662127E-01
   7152.00  4.7674814E-01
   7152.33  4.6654431E-01
   7152.67  4.5613871E-01
   7153.00  4.4560721E-01
   7153.33  4.3502402E-01
   7153.67  4.2446724E-01
   7154.00  4.1399204E-01
   7154.33  4.0366915E-01
   7154.67  3.9352511E-01
   7155.00  3.8359087E-01
   7155.33  3.7392704E-01
   7155.67  3.6453192E-01
   7156.00  3.5543112E-01
   7156.33  3.4669976E-01
   7156.67  3.3833896E-01
   7157.00  3.3039046E-01
   7157.33  3.2296061E-01
   7157.67  3.1603820E-01
   7158.00  3.0966141E-01
   7158.33  3.0394704E-01
   7158.67  2.9886589E-01
   7159.00  2.9445923E-01
   7159.33  2.9087156E-01
   7159.67  2.8807253E-01
   7160.00  2.8611958E-01
   7160.33  2.8519759E-01
   7160.67  2.8526024E-01
   7161.00  2.8635812E-01
   7161.33  2.8866860E-01
   7161.67  2.9207125E-01
   7162.00  2.9654665E-01
   7162.33  3.0214932E-01
   7162.67  3.0863300E-01
   7163.00  3.1588032E-01
   7163.33  3.2380375E-01
   7163.67  3.3213575E-01
   7164.00  3.4070278E-01
   7164.33  3.4930847E-01
   7164.67  3.5775958E-01
   7165.00  3.6591263E-01
   7165.33  3.7357646E-01
   7165.67  3.8070228E-01
   7166.00  3.8722885E-01
   7166.33  3.9304014E-01
   7166.67  3.9821806E-01
   7167.00  4.0279135E-01
   7167.33  4.0674704E-01
   7167.67  4.1022508E-01
   7168.00  4.1329314E-01
   7168.33  4.1599107E-01
   7168.67  4.1843807E-01
   7169.00  4.2069570E-01
   7169.33  4.2281140E-01
   7169.67  4.2485282E-01
   7170.00  4.2685415E-01
   7170.33  4.2884005E-01
   7170.67  4.3082125E-01
   7171.00  4.3278781E-01
   7171.33  4.3469050E-01
   7171.67  4.3644160E-01
   7172.00  4.3790967E-01
