    FDMNES
    energy     <xanes>
   7097.00  4.4288529E-03
   7097.33  4.5318972E-03
   7097.67  4.6398149E-03
   7098.00  4.7529658E-03
   7098.33  4.8725300E-03
   7098.67  4.9983221E-03
   7099.00  5.1308482E-03
   7099.33  5.2716979E-03
   7099.67  5.4207035E-03
   7100.00  5.5786005E-03
   7100.33  5.7475989E-03
   7100.67  5.9275922E-03
   7101.00  6.1196885E-03
   7101.33  6.3270792E-03
   7101.67  6.5498130E-03
   7102.00  6.7896347E-03
   7102.33  7.0513660E-03
   7102.67  7.3354216E-03
   7103.00  7.6446970E-03
   7103.33  7.9868904E-03
   7103.67  8.3632760E-03
   7104.00  8.7789796E-03
   7104.33  9.2471622E-03
   7104.67  9.7711969E-03
   7105.00  1.0360924E-02
   7105.33  1.1040895E-02
   7105.67  1.1820002E-02
   7106.00  1.2719240E-02
   7106.33  1.3789987E-02
   7106.67  1.5057443E-02
   7107.00  1.6573284E-02
   7107.33  1.8463528E-02
   7107.67  2.0810714E-02
   7108.00  2.3770937E-02
   7108.33  2.7734374E-02
   7108.67  3.3046654E-02
   7109.00  4.0352625E-02
   7109.33  5.1393267E-02
   7109.67  6.8333989E-02
   7110.00  9.5466808E-02
   7110.33  1.4538079E-01
   7110.67  2.3125713E-01
   7111.00  3.4972440E-01
   7111.33  4.1966983E-01
   7111.67  3.8601424E-01
   7112.00  3.0584890E-01
   7112.33  2.4561873E-01
   7112.67  1.9952120E-01
   7113.00  1.6014426E-01
   7113.33  1.2821381E-01
   7113.67  1.0382417E-01
   7114.00  8.7028251E-02
   7114.33  7.7801759E-02
   7114.67  7.3165400E-02
   7115.00  6.9121804E-02
   7115.33  6.2528745E-02
   7115.67  5.6654746E-02
   7116.00  5.3227517E-02
   7116.33  5.0739228E-02
   7116.67  4.8130230E-02
   7117.00  4.6270613E-02
   7117.33  4.5143521E-02
   7117.67  4.3778905E-02
   7118.00  4.2683454E-02
   7118.33  4.2841735E-02
   7118.67  4.4216815E-02
   7119.00  4.6731834E-02
   7119.33  5.0579057E-02
   7119.67  5.5830576E-02
   7120.00  6.2809605E-02
   7120.33  7.2459167E-02
   7120.67  8.5390618E-02
   7121.00  1.0166686E-01
   7121.33  1.1727704E-01
   7121.67  1.2410057E-01
   7122.00  1.1911820E-01
   7122.33  1.0847141E-01
   7122.67  1.0084116E-01
   7123.00  9.8637924E-02
   7123.33  1.0257941E-01
   7123.67  1.1146964E-01
   7124.00  1.2514668E-01
   7124.33  1.4457013E-01
   7124.67  1.6982337E-01
   7125.00  2.0141122E-01
   7125.33  2.3957940E-01
   7125.67  2.8068488E-01
   7126.00  3.1960807E-01
   7126.33  3.4843840E-01
   7126.67  3.6602913E-01
   7127.00  3.7424786E-01
   7127.33  3.7395679E-01
   7127.67  3.6832602E-01
   7128.00  3.6177636E-01
   7128.33  3.6012594E-01
   7128.67  3.6529513E-01
   7129.00  3.7760728E-01
   7129.33  3.9738038E-01
   7129.67  4.2312121E-01
   7130.00  4.5461645E-01
   7130.33  4.9308144E-01
   7130.67  5.3876191E-01
   7131.00  5.9263291E-01
   7131.33  6.5671978E-01
   7131.67  7.2949223E-01
   7132.00  8.0639359E-01
   7132.33  8.6855195E-01
   7132.67  8.9541874E-01
   7133.00  8.8895964E-01
   7133.33  8.7480413E-01
   7133.67  8.7335998E-01
   7134.00  8.9031890E-01
   7134.33  9.3147466E-01
   7134.67  9.9707929E-01
   7135.00  1.0870765E+00
   7135.33  1.1903611E+00
   7135.67  1.2689883E+00
   7136.00  1.2831187E+00
   7136.33  1.2122416E+00
   7136.67  1.1028541E+00
   7137.00  9.9064833E-01
   7137.33  8.9771077E-01
   7137.67  8.2463848E-01
   7138.00  7.6864975E-01
   7138.33  7.2734420E-01
   7138.67  6.9578103E-01
   7139.00  6.7188820E-01
   7139.33  6.5470875E-01
   7139.67  6.4234122E-01
   7140.00  6.3409617E-01
   7140.33  6.2985260E-01
   7140.67  6.2877817E-01
   7141.00  6.3063483E-01
   7141.33  6.3554406E-01
   7141.67  6.4296769E-01
   7142.00  6.5272640E-01
   7142.33  6.6482792E-01
   7142.67  6.7864944E-01
   7143.00  6.9375043E-01
   7143.33  7.0949665E-01
   7143.67  7.2486240E-01
   7144.00  7.3884897E-01
   7144.33  7.4986084E-01
   7144.67  7.5705534E-01
   7145.00  7.5970030E-01
   7145.33  7.5686264E-01
   7145.67  7.4947203E-01
   7146.00  7.3824118E-01
   7146.33  7.2395222E-01
   7146.67  7.0813256E-01
   7147.00  6.9170653E-01
   7147.33  6.7557788E-01
   7147.67  6.6030137E-01
   7148.00  6.4616497E-01
   7148.33  6.3346915E-01
   7148.67  6.2203438E-01
   7149.00  6.1174702E-01
   7149.33  6.0250986E-01
   7149.67  5.9394200E-01
   7150.00  5.8580632E-01
   7150.33  5.7784973E-01
   7150.67  5.6979174E-01
   7151.00  5.6142601E-01
   7151.33  5.5247177E-01
   7151.67  5.4280974E-01
   7152.00  5.3231237E-01
   7152.33  5.2076730E-01
   7152.67  5.0824940E-01
   7153.00  4.9474689E-01
   7153.33  4.8016069E-01
   7153.67  4.6468150E-01
   7154.00  4.4841466E-01
   7154.33  4.3146606E-01
   7154.67  4.1415404E-01
   7155.00  3.9670631E-01
   7155.33  3.7941525E-01
   7155.67  3.6255009E-01
   7156.00  3.4635467E-01
   7156.33  3.3120512E-01
   7156.67  3.1720205E-01
   7157.00  3.0448884E-01
   7157.33  2.9335248E-01
   7157.67  2.8367217E-01
   7158.00  2.7545574E-01
   7158.33  2.6885624E-01
   7158.67  2.6363518E-01
   7159.00  2.5972106E-01
   7159.33  2.5716247E-01
   7159.67  2.5569329E-01
   7160.00  2.5520830E-01
   7160.33  2.5568993E-01
   7160.67  2.5690802E-01
   7161.00  2.5876284E-01
   7161.33  2.6121503E-01
   7161.67  2.6410550E-01
   7162.00  2.6736662E-01
   7162.33  2.7097964E-01
   7162.67  2.7486998E-01
   7163.00  2.7902193E-01
   7163.33  2.8346142E-01
   7163.67  2.8815324E-01
   7164.00  2.9308468E-01
   7164.33  2.9823670E-01
   7164.67  3.0349458E-01
   7165.00  3.0873937E-01
   7165.33  3.1377449E-01
   7165.67  3.1844464E-01
   7166.00  3.2262346E-01
   7166.33  3.2615586E-01
   7166.67  3.2911346E-01
   7167.00  3.3155726E-01
   7167.33  3.3355944E-01
   7167.67  3.3531707E-01
   7168.00  3.3696057E-01
   7168.33  3.3863446E-01
   7168.67  3.4045436E-01
   7169.00  3.4249939E-01
   7169.33  3.4486841E-01
   7169.67  3.4755649E-01
   7170.00  3.5056524E-01
   7170.33  3.5390433E-01
   7170.67  3.5747699E-01
   7171.00  3.6119996E-01
   7171.33  3.6492000E-01
   7171.67  3.6838304E-01
   7172.00  3.7127331E-01
