    FDMNES
    energy     <xanes>
   7097.00  4.1783054E-03
   7097.33  4.2606270E-03
   7097.67  4.3461080E-03
   7098.00  4.4349412E-03
   7098.33  4.5278236E-03
   7098.67  4.6245796E-03
   7099.00  4.7254691E-03
   7099.33  4.8313870E-03
   7099.67  4.9421515E-03
   7100.00  5.0581234E-03
   7100.33  5.1804844E-03
   7100.67  5.3090599E-03
   7101.00  5.4443684E-03
   7101.33  5.5880241E-03
   7101.67  5.7398904E-03
   7102.00  5.9007438E-03
   7102.33  6.0728831E-03
   7102.67  6.2562785E-03
   7103.00  6.4521533E-03
   7103.33  6.6639536E-03
   7103.67  6.8919175E-03
   7104.00  7.1380940E-03
   7104.33  7.4079947E-03
   7104.67  7.7025205E-03
   7105.00  8.0253805E-03
   7105.33  8.3861510E-03
   7105.67  8.7874536E-03
   7106.00  9.2367122E-03
   7106.33  9.7524955E-03
   7106.67  1.0342343E-02
   7107.00  1.1023284E-02
   7107.33  1.1837228E-02
   7107.67  1.2808201E-02
   7108.00  1.3983735E-02
   7108.33  1.5482222E-02
   7108.67  1.7399026E-02
   7109.00  1.9914201E-02
   7109.33  2.3507147E-02
   7109.67  2.8737802E-02
   7110.00  3.6709105E-02
   7110.33  5.0585118E-02
   7110.67  7.3314858E-02
   7111.00  1.0320246E-01
   7111.33  1.2587688E-01
   7111.67  1.4422431E-01
   7112.00  1.6613589E-01
   7112.33  1.7674928E-01
   7112.67  1.6150061E-01
   7113.00  1.3398899E-01
   7113.33  1.1767398E-01
   7113.67  1.1521541E-01
   7114.00  1.1900836E-01
   7114.33  1.1249375E-01
   7114.67  9.6338807E-02
   7115.00  7.7888553E-02
   7115.33  6.2229604E-02
   7115.67  5.2143929E-02
   7116.00  4.6670435E-02
   7116.33  4.4416266E-02
   7116.67  4.3764164E-02
   7117.00  4.3940026E-02
   7117.33  4.4515820E-02
   7117.67  4.5478879E-02
   7118.00  4.6989986E-02
   7118.33  4.9160835E-02
   7118.67  5.1848691E-02
   7119.00  5.5092577E-02
   7119.33  5.9281435E-02
   7119.67  6.4802269E-02
   7120.00  7.2157635E-02
   7120.33  8.2218029E-02
   7120.67  9.5181295E-02
   7121.00  1.1140035E-01
   7121.33  1.3147723E-01
   7121.67  1.5449804E-01
   7122.00  1.7916338E-01
   7122.33  2.0296919E-01
   7122.67  2.2415126E-01
   7123.00  2.4321022E-01
   7123.33  2.6289875E-01
   7123.67  2.8483281E-01
   7124.00  3.0782633E-01
   7124.33  3.2810460E-01
   7124.67  3.4326723E-01
   7125.00  3.5348814E-01
   7125.33  3.6066206E-01
   7125.67  3.6728824E-01
   7126.00  3.7453512E-01
   7126.33  3.8334276E-01
   7126.67  3.9393733E-01
   7127.00  4.0693215E-01
   7127.33  4.2427530E-01
   7127.67  4.4697244E-01
   7128.00  4.7547845E-01
   7128.33  5.0973679E-01
   7128.67  5.4763557E-01
   7129.00  5.8787727E-01
   7129.33  6.2922707E-01
   7129.67  6.7005696E-01
   7130.00  7.0885137E-01
   7130.33  7.4350155E-01
   7130.67  7.7349119E-01
   7131.00  7.9869806E-01
   7131.33  8.1904528E-01
   7131.67  8.3580378E-01
   7132.00  8.4972384E-01
   7132.33  8.6167099E-01
   7132.67  8.7277950E-01
   7133.00  8.8313049E-01
   7133.33  8.9169785E-01
   7133.67  8.9770061E-01
   7134.00  9.0103102E-01
   7134.33  9.0243602E-01
   7134.67  9.0325440E-01
   7135.00  9.0350768E-01
   7135.33  9.0143945E-01
   7135.67  8.9506784E-01
   7136.00  8.8299536E-01
   7136.33  8.6417768E-01
   7136.67  8.4031065E-01
   7137.00  8.1283446E-01
   7137.33  7.8364851E-01
   7137.67  7.5512439E-01
   7138.00  7.2886346E-01
   7138.33  7.0655498E-01
   7138.67  6.8831255E-01
   7139.00  6.7417643E-01
   7139.33  6.6435931E-01
   7139.67  6.5792201E-01
   7140.00  6.5437953E-01
   7140.33  6.5336439E-01
   7140.67  6.5385986E-01
   7141.00  6.5517545E-01
   7141.33  6.5649719E-01
   7141.67  6.5705824E-01
   7142.00  6.5627288E-01
   7142.33  6.5336614E-01
   7142.67  6.4826312E-01
   7143.00  6.4092823E-01
   7143.33  6.3133813E-01
   7143.67  6.2019718E-01
   7144.00  6.0800558E-01
   7144.33  5.9530933E-01
   7144.67  5.8268226E-01
   7145.00  5.7044813E-01
   7145.33  5.5890542E-01
   7145.67  5.4805635E-01
   7146.00  5.3788786E-01
   7146.33  5.2840668E-01
   7146.67  5.1944000E-01
   7147.00  5.1089851E-01
   7147.33  5.0271825E-01
   7147.67  4.9476085E-01
   7148.00  4.8695249E-01
   7148.33  4.7924193E-01
   7148.67  4.7159749E-01
   7149.00  4.6404212E-01
   7149.33  4.5667241E-01
   7149.67  4.4958656E-01
   7150.00  4.4290378E-01
   7150.33  4.3682768E-01
   7150.67  4.3139803E-01
   7151.00  4.2666193E-01
   7151.33  4.2270194E-01
   7151.67  4.1937131E-01
   7152.00  4.1657617E-01
   7152.33  4.1421022E-01
   7152.67  4.1203272E-01
   7153.00  4.0986265E-01
   7153.33  4.0747249E-01
   7153.67  4.0471091E-01
   7154.00  4.0146767E-01
   7154.33  3.9760668E-01
   7154.67  3.9319828E-01
   7155.00  3.8829550E-01
   7155.33  3.8295943E-01
   7155.67  3.7738147E-01
   7156.00  3.7169720E-01
   7156.33  3.6606768E-01
   7156.67  3.6062672E-01
   7157.00  3.5547851E-01
   7157.33  3.5076931E-01
   7157.67  3.4651627E-01
   7158.00  3.4275042E-01
   7158.33  3.3954202E-01
   7158.67  3.3681074E-01
   7159.00  3.3452267E-01
   7159.33  3.3267021E-01
   7159.67  3.3113838E-01
   7160.00  3.2986882E-01
   7160.33  3.2882608E-01
   7160.67  3.2793904E-01
   7161.00  3.2718376E-01
   7161.33  3.2656896E-01
   7161.67  3.2609464E-01
   7162.00  3.2578989E-01
   7162.33  3.2572759E-01
   7162.67  3.2593502E-01
   7163.00  3.2646323E-01
   7163.33  3.2741708E-01
   7163.67  3.2880320E-01
   7164.00  3.3066039E-01
   7164.33  3.3307988E-01
   7164.67  3.3600814E-01
   7165.00  3.3943727E-01
   7165.33  3.4340111E-01
   7165.67  3.4779898E-01
   7166.00  3.5258460E-01
   7166.33  3.5773848E-01
   7166.67  3.6315964E-01
   7167.00  3.6880008E-01
   7167.33  3.7463194E-01
   7167.67  3.8059298E-01
   7168.00  3.8665410E-01
   7168.33  3.9279621E-01
   7168.67  3.9898555E-01
   7169.00  4.0520113E-01
   7169.33  4.1141668E-01
   7169.67  4.1760021E-01
   7170.00  4.2371699E-01
   7170.33  4.2970096E-01
   7170.67  4.3549933E-01
   7171.00  4.4103453E-01
   7171.33  4.4612676E-01
   7171.67  4.5061497E-01
   7172.00  4.5424457E-01
