    FDMNES
    energy     <xanes>
   7097.00  4.9614915E-03
   7097.33  5.0770877E-03
   7097.67  5.1977647E-03
   7098.00  5.3238547E-03
   7098.33  5.4565139E-03
   7098.67  5.5954855E-03
   7099.00  5.7412183E-03
   7099.33  5.8952103E-03
   7099.67  6.0571943E-03
   7100.00  6.2277922E-03
   7100.33  6.4089947E-03
   7100.67  6.6005439E-03
   7101.00  6.8033289E-03
   7101.33  7.0200758E-03
   7101.67  7.2505811E-03
   7102.00  7.4961637E-03
   7102.33  7.7606953E-03
   7102.67  8.0441290E-03
   7103.00  8.3485098E-03
   7103.33  8.6795899E-03
   7103.67  9.0377123E-03
   7104.00  9.4262286E-03
   7104.33  9.8541836E-03
   7104.67  1.0322873E-02
   7105.00  1.0838189E-02
   7105.33  1.1415441E-02
   7105.67  1.2058344E-02
   7106.00  1.2778265E-02
   7106.33  1.3603810E-02
   7106.67  1.4545425E-02
   7107.00  1.5628017E-02
   7107.33  1.6913096E-02
   7107.67  1.8432908E-02
   7108.00  2.0253307E-02
   7108.33  2.2537976E-02
   7108.67  2.5409910E-02
   7109.00  2.9104029E-02
   7109.33  3.4240618E-02
   7109.67  4.1511778E-02
   7110.00  5.2278335E-02
   7110.33  7.0395924E-02
   7110.67  9.9253338E-02
   7111.00  1.3684627E-01
   7111.33  1.7074415E-01
   7111.67  2.0195300E-01
   7112.00  2.3364053E-01
   7112.33  2.6565889E-01
   7112.67  2.9304819E-01
   7113.00  3.0405549E-01
   7113.33  2.9898424E-01
   7113.67  3.0406639E-01
   7114.00  3.1809039E-01
   7114.33  3.0764920E-01
   7114.67  2.6521497E-01
   7115.00  2.1514830E-01
   7115.33  1.8101407E-01
   7115.67  1.6430500E-01
   7116.00  1.6279687E-01
   7116.33  1.7458870E-01
   7116.67  1.9296959E-01
   7117.00  2.1096234E-01
   7117.33  2.1892541E-01
   7117.67  2.1561484E-01
   7118.00  2.0655899E-01
   7118.33  2.0134539E-01
   7118.67  2.0366034E-01
   7119.00  2.1242621E-01
   7119.33  2.2481482E-01
   7119.67  2.3755819E-01
   7120.00  2.4942562E-01
   7120.33  2.6073273E-01
   7120.67  2.7278811E-01
   7121.00  2.8647984E-01
   7121.33  3.0252428E-01
   7121.67  3.2049482E-01
   7122.00  3.4009572E-01
   7122.33  3.6131745E-01
   7122.67  3.8256076E-01
   7123.00  4.0076580E-01
   7123.33  4.1135791E-01
   7123.67  4.1454503E-01
   7124.00  4.1309752E-01
   7124.33  4.1155252E-01
   7124.67  4.1293861E-01
   7125.00  4.1789600E-01
   7125.33  4.2573553E-01
   7125.67  4.3423792E-01
   7126.00  4.4186156E-01
   7126.33  4.4752952E-01
   7126.67  4.5196435E-01
   7127.00  4.5635528E-01
   7127.33  4.6239211E-01
   7127.67  4.7112311E-01
   7128.00  4.8333071E-01
   7128.33  4.9984129E-01
   7128.67  5.1944756E-01
   7129.00  5.4059347E-01
   7129.33  5.6095536E-01
   7129.67  5.7894968E-01
   7130.00  5.9414462E-01
   7130.33  6.0682979E-01
   7130.67  6.1813843E-01
   7131.00  6.2820954E-01
   7131.33  6.3584523E-01
   7131.67  6.3973473E-01
   7132.00  6.3879545E-01
   7132.33  6.3218383E-01
   7132.67  6.2146589E-01
   7133.00  6.0801749E-01
   7133.33  5.9357139E-01
   7133.67  5.7992165E-01
   7134.00  5.6800924E-01
   7134.33  5.5849436E-01
   7134.67  5.5120777E-01
   7135.00  5.4636639E-01
   7135.33  5.4472091E-01
   7135.67  5.4624319E-01
   7136.00  5.5109156E-01
   7136.33  5.5976475E-01
   7136.67  5.7177466E-01
   7137.00  5.8686940E-01
   7137.33  6.0467849E-01
   7137.67  6.2374203E-01
   7138.00  6.4273750E-01
   7138.33  6.5975332E-01
   7138.67  6.7346286E-01
   7139.00  6.8288109E-01
   7139.33  6.8690464E-01
   7139.67  6.8642869E-01
   7140.00  6.8223283E-01
   7140.33  6.7518837E-01
   7140.67  6.6674857E-01
   7141.00  6.5767747E-01
   7141.33  6.4856930E-01
   7141.67  6.3977675E-01
   7142.00  6.3148872E-01
   7142.33  6.2397186E-01
   7142.67  6.1732002E-01
   7143.00  6.1168005E-01
   7143.33  6.0732081E-01
   7143.67  6.0414709E-01
   7144.00  6.0213345E-01
   7144.33  6.0133608E-01
   7144.67  6.0152331E-01
   7145.00  6.0261438E-01
   7145.33  6.0462669E-01
   7145.67  6.0736906E-01
   7146.00  6.1073531E-01
   7146.33  6.1459693E-01
   7146.67  6.1863186E-01
   7147.00  6.2252658E-01
   7147.33  6.2572236E-01
   7147.67  6.2770407E-01
   7148.00  6.2792399E-01
   7148.33  6.2552582E-01
   7148.67  6.2046530E-01
   7149.00  6.1273115E-01
   7149.33  6.0235054E-01
   7149.67  5.9019848E-01
   7150.00  5.7685596E-01
   7150.33  5.6288565E-01
   7150.67  5.4885632E-01
   7151.00  5.3507043E-01
   7151.33  5.2180964E-01
   7151.67  5.0913368E-01
   7152.00  4.9708446E-01
   7152.33  4.8573642E-01
   7152.67  4.7496569E-01
   7153.00  4.6471076E-01
   7153.33  4.5494040E-01
   7153.67  4.4551628E-01
   7154.00  4.3637716E-01
   7154.33  4.2750171E-01
   7154.67  4.1883768E-01
   7155.00  4.1038830E-01
   7155.33  4.0221039E-01
   7155.67  3.9432057E-01
   7156.00  3.8677075E-01
   7156.33  3.7967877E-01
   7156.67  3.7306108E-01
   7157.00  3.6697157E-01
   7157.33  3.6153479E-01
   7157.67  3.5671605E-01
   7158.00  3.5253660E-01
   7158.33  3.4908913E-01
   7158.67  3.4629153E-01
   7159.00  3.4413554E-01
   7159.33  3.4268189E-01
   7159.67  3.4182787E-01
   7160.00  3.4154772E-01
   7160.33  3.4187395E-01
   7160.67  3.4269867E-01
   7161.00  3.4398216E-01
   7161.33  3.4572177E-01
   7161.67  3.4780377E-01
   7162.00  3.5016243E-01
   7162.33  3.5273797E-01
   7162.67  3.5543081E-01
   7163.00  3.5818611E-01
   7163.33  3.6095110E-01
   7163.67  3.6367961E-01
   7164.00  3.6633998E-01
   7164.33  3.6889252E-01
   7164.67  3.7133130E-01
   7165.00  3.7364806E-01
   7165.33  3.7582493E-01
   7165.67  3.7788161E-01
   7166.00  3.7982611E-01
   7166.33  3.8166085E-01
   7166.67  3.8341757E-01
   7167.00  3.8511611E-01
   7167.33  3.8677878E-01
   7167.67  3.8843757E-01
   7168.00  3.9011642E-01
   7168.33  3.9184785E-01
   7168.67  3.9364989E-01
   7169.00  3.9553931E-01
   7169.33  3.9754289E-01
   7169.67  3.9965505E-01
   7170.00  4.0187481E-01
   7170.33  4.0420268E-01
   7170.67  4.0660112E-01
   7171.00  4.0903202E-01
   7171.33  4.1141247E-01
   7171.67  4.1360739E-01
   7172.00  4.1543332E-01
