    FDMNES
    energy     <xanes>
   7097.00  4.4036427E-03
   7097.33  4.4906533E-03
   7097.67  4.5808576E-03
   7098.00  4.6744334E-03
   7098.33  4.7720565E-03
   7098.67  4.8735251E-03
   7099.00  4.9790720E-03
   7099.33  5.0895423E-03
   7099.67  5.2047191E-03
   7100.00  5.3249150E-03
   7100.33  5.4512119E-03
   7100.67  5.5833850E-03
   7101.00  5.7218673E-03
   7101.33  5.8680855E-03
   7101.67  6.0218240E-03
   7102.00  6.1837075E-03
   7102.33  6.3556876E-03
   7102.67  6.5376016E-03
   7103.00  6.7303956E-03
   7103.33  6.9368710E-03
   7103.67  7.1570217E-03
   7104.00  7.3923753E-03
   7104.33  7.6472168E-03
   7104.67  7.9219600E-03
   7105.00  8.2192842E-03
   7105.33  8.5463354E-03
   7105.67  8.9046711E-03
   7106.00  9.2995444E-03
   7106.33  9.7443905E-03
   7106.67  1.0244176E-02
   7107.00  1.0810913E-02
   7107.33  1.1474595E-02
   7107.67  1.2252160E-02
   7108.00  1.3177908E-02
   7108.33  1.4338340E-02
   7108.67  1.5805420E-02
   7109.00  1.7716582E-02
   7109.33  2.0444422E-02
   7109.67  2.4447002E-02
   7110.00  3.0637035E-02
   7110.33  4.1638599E-02
   7110.67  5.9546878E-02
   7111.00  8.1011378E-02
   7111.33  9.0878706E-02
   7111.67  9.1113356E-02
   7112.00  8.7682170E-02
   7112.33  8.0784250E-02
   7112.67  7.3038330E-02
   7113.00  6.7008192E-02
   7113.33  6.3729624E-02
   7113.67  6.2571204E-02
   7114.00  6.3230777E-02
   7114.33  6.5646085E-02
   7114.67  6.9469695E-02
   7115.00  7.4671004E-02
   7115.33  8.1496249E-02
   7115.67  8.9867894E-02
   7116.00  9.9844220E-02
   7116.33  1.1166707E-01
   7116.67  1.2516191E-01
   7117.00  1.4038815E-01
   7117.33  1.5779015E-01
   7117.67  1.7758493E-01
   7118.00  2.0032739E-01
   7118.33  2.2676086E-01
   7118.67  2.5570168E-01
   7119.00  2.8541356E-01
   7119.33  3.1310660E-01
   7119.67  3.3695910E-01
   7120.00  3.5619211E-01
   7120.33  3.7044073E-01
   7120.67  3.8102174E-01
   7121.00  3.8857331E-01
   7121.33  3.9361278E-01
   7121.67  3.9760329E-01
   7122.00  4.0158244E-01
   7122.33  4.0613655E-01
   7122.67  4.1078098E-01
   7123.00  4.1475385E-01
   7123.33  4.1747371E-01
   7123.67  4.1999171E-01
   7124.00  4.2408394E-01
   7124.33  4.3206652E-01
   7124.67  4.4409931E-01
   7125.00  4.5967527E-01
   7125.33  4.7775097E-01
   7125.67  4.9654349E-01
   7126.00  5.1499491E-01
   7126.33  5.3220213E-01
   7126.67  5.4781987E-01
   7127.00  5.6134479E-01
   7127.33  5.7170154E-01
   7127.67  5.7853828E-01
   7128.00  5.8143131E-01
   7128.33  5.8016800E-01
   7128.67  5.7649804E-01
   7129.00  5.7172419E-01
   7129.33  5.6678153E-01
   7129.67  5.6212933E-01
   7130.00  5.5797846E-01
   7130.33  5.5452574E-01
   7130.67  5.5169788E-01
   7131.00  5.4943339E-01
   7131.33  5.4764540E-01
   7131.67  5.4606865E-01
   7132.00  5.4448139E-01
   7132.33  5.4259583E-01
   7132.67  5.4026806E-01
   7133.00  5.3747590E-01
   7133.33  5.3436340E-01
   7133.67  5.3130776E-01
   7134.00  5.2861148E-01
   7134.33  5.2660401E-01
   7134.67  5.2532679E-01
   7135.00  5.2479281E-01
   7135.33  5.2501625E-01
   7135.67  5.2573409E-01
   7136.00  5.2669992E-01
   7136.33  5.2754171E-01
   7136.67  5.2790934E-01
   7137.00  5.2754513E-01
   7137.33  5.2615478E-01
   7137.67  5.2383236E-01
   7138.00  5.2068805E-01
   7138.33  5.1689461E-01
   7138.67  5.1284190E-01
   7139.00  5.0881649E-01
   7139.33  5.0516689E-01
   7139.67  5.0209364E-01
   7140.00  4.9973381E-01
   7140.33  4.9827819E-01
   7140.67  4.9766810E-01
   7141.00  4.9791177E-01
   7141.33  4.9909969E-01
   7141.67  5.0109405E-01
   7142.00  5.0385629E-01
   7142.33  5.0742219E-01
   7142.67  5.1164065E-01
   7143.00  5.1645206E-01
   7143.33  5.2184365E-01
   7143.67  5.2766418E-01
   7144.00  5.3383018E-01
   7144.33  5.4026328E-01
   7144.67  5.4681448E-01
   7145.00  5.5337278E-01
   7145.33  5.5978397E-01
   7145.67  5.6591931E-01
   7146.00  5.7165096E-01
   7146.33  5.7676357E-01
   7146.67  5.8119033E-01
   7147.00  5.8482582E-01
   7147.33  5.8744241E-01
   7147.67  5.8905998E-01
   7148.00  5.8963281E-01
   7148.33  5.8903130E-01
   7148.67  5.8745516E-01
   7149.00  5.8502165E-01
   7149.33  5.8184460E-01
   7149.67  5.7824495E-01
   7150.00  5.7443977E-01
   7150.33  5.7067274E-01
   7150.67  5.6713802E-01
   7151.00  5.6396069E-01
   7151.33  5.6126746E-01
   7151.67  5.5901635E-01
   7152.00  5.5719070E-01
   7152.33  5.5580649E-01
   7152.67  5.5478083E-01
   7153.00  5.5409199E-01
   7153.33  5.5376956E-01
   7153.67  5.5377573E-01
   7154.00  5.5411885E-01
   7154.33  5.5485553E-01
   7154.67  5.5595286E-01
   7155.00  5.5741296E-01
   7155.33  5.5926649E-01
   7155.67  5.6143719E-01
   7156.00  5.6388339E-01
   7156.33  5.6657159E-01
   7156.67  5.6940682E-01
   7157.00  5.7232847E-01
   7157.33  5.7526820E-01
   7157.67  5.7815508E-01
   7158.00  5.8093198E-01
   7158.33  5.8351310E-01
   7158.67  5.8585749E-01
   7159.00  5.8791233E-01
   7159.33  5.8957602E-01
   7159.67  5.9083971E-01
   7160.00  5.9166420E-01
   7160.33  5.9195227E-01
   7160.67  5.9173764E-01
   7161.00  5.9101128E-01
   7161.33  5.8971472E-01
   7161.67  5.8792823E-01
   7162.00  5.8567161E-01
   7162.33  5.8291876E-01
   7162.67  5.7976049E-01
   7163.00  5.7623206E-01
   7163.33  5.7233885E-01
   7163.67  5.6817393E-01
   7164.00  5.6378828E-01
   7164.33  5.5922666E-01
   7164.67  5.5457390E-01
   7165.00  5.4988188E-01
   7165.33  5.4520177E-01
   7165.67  5.4056740E-01
   7166.00  5.3599573E-01
   7166.33  5.3149939E-01
   7166.67  5.2705963E-01
   7167.00  5.2265825E-01
   7167.33  5.1826837E-01
   7167.67  5.1385873E-01
   7168.00  5.0940554E-01
   7168.33  5.0487719E-01
   7168.67  5.0026574E-01
   7169.00  4.9556387E-01
   7169.33  4.9075935E-01
   7169.67  4.8587279E-01
   7170.00  4.8092188E-01
   7170.33  4.7593700E-01
   7170.67  4.7097641E-01
   7171.00  4.6611162E-01
   7171.33  4.6150440E-01
   7171.67  4.5735390E-01
   7172.00  4.5394595E-01
