    FDMNES
    energy     <xanes>
   7097.00  4.8434327E-03
   7097.33  4.9527005E-03
   7097.67  5.0666010E-03
   7098.00  5.1854287E-03
   7098.33  5.3102242E-03
   7098.67  5.4407430E-03
   7099.00  5.5773815E-03
   7099.33  5.7214810E-03
   7099.67  5.8727862E-03
   7100.00  6.0318452E-03
   7100.33  6.2004321E-03
   7100.67  6.3782987E-03
   7101.00  6.5662275E-03
   7101.33  6.7666396E-03
   7101.67  6.9793351E-03
   7102.00  7.2054757E-03
   7102.33  7.4484940E-03
   7102.67  7.7083323E-03
   7103.00  7.9867988E-03
   7103.33  8.2889983E-03
   7103.67  8.6152333E-03
   7104.00  8.9684895E-03
   7104.33  9.3568328E-03
   7104.67  9.7814609E-03
   7105.00  1.0247688E-02
   7105.33  1.0769308E-02
   7105.67  1.1349836E-02
   7106.00  1.1999712E-02
   7106.33  1.2745177E-02
   7106.67  1.3596333E-02
   7107.00  1.4576667E-02
   7107.33  1.5744145E-02
   7107.67  1.7130770E-02
   7108.00  1.8800800E-02
   7108.33  2.0914279E-02
   7108.67  2.3596812E-02
   7109.00  2.7086549E-02
   7109.33  3.2015058E-02
   7109.67  3.9105733E-02
   7110.00  4.9782574E-02
   7110.33  6.8170249E-02
   7110.67  9.8735841E-02
   7111.00  1.4243805E-01
   7111.33  1.8231415E-01
   7111.67  1.9882134E-01
   7112.00  1.9617204E-01
   7112.33  1.9664636E-01
   7112.67  2.1057761E-01
   7113.00  2.2561308E-01
   7113.33  2.2124614E-01
   7113.67  2.1199889E-01
   7114.00  2.1023119E-01
   7114.33  2.0394412E-01
   7114.67  1.7892551E-01
   7115.00  1.4605447E-01
   7115.33  1.2194567E-01
   7115.67  1.0800777E-01
   7116.00  1.0206899E-01
   7116.33  1.0265988E-01
   7116.67  1.0802559E-01
   7117.00  1.1802769E-01
   7117.33  1.3344270E-01
   7117.67  1.5293783E-01
   7118.00  1.7449789E-01
   7118.33  1.9871233E-01
   7118.67  2.3065488E-01
   7119.00  2.7310740E-01
   7119.33  3.2475416E-01
   7119.67  3.7616372E-01
   7120.00  4.1682115E-01
   7120.33  4.3600683E-01
   7120.67  4.3855307E-01
   7121.00  4.3236554E-01
   7121.33  4.2514301E-01
   7121.67  4.1977504E-01
   7122.00  4.1613451E-01
   7122.33  4.1416222E-01
   7122.67  4.1388861E-01
   7123.00  4.1559122E-01
   7123.33  4.2033131E-01
   7123.67  4.2900134E-01
   7124.00  4.4223799E-01
   7124.33  4.5982031E-01
   7124.67  4.7942715E-01
   7125.00  4.9927237E-01
   7125.33  5.1734416E-01
   7125.67  5.3284632E-01
   7126.00  5.4582676E-01
   7126.33  5.5689460E-01
   7126.67  5.6738818E-01
   7127.00  5.7822802E-01
   7127.33  5.9033760E-01
   7127.67  6.0363363E-01
   7128.00  6.1731814E-01
   7128.33  6.2938404E-01
   7128.67  6.3778970E-01
   7129.00  6.4107611E-01
   7129.33  6.3860024E-01
   7129.67  6.3338553E-01
   7130.00  6.2841620E-01
   7130.33  6.2602956E-01
   7130.67  6.2517976E-01
   7131.00  6.2384382E-01
   7131.33  6.1951503E-01
   7131.67  6.1158470E-01
   7132.00  6.0040204E-01
   7132.33  5.8698872E-01
   7132.67  5.7307653E-01
   7133.00  5.5975230E-01
   7133.33  5.4813823E-01
   7133.67  5.3863811E-01
   7134.00  5.3152644E-01
   7134.33  5.2719332E-01
   7134.67  5.2519093E-01
   7135.00  5.2525900E-01
   7135.33  5.2718861E-01
   7135.67  5.3029410E-01
   7136.00  5.3415389E-01
   7136.33  5.3833083E-01
   7136.67  5.4235936E-01
   7137.00  5.4592246E-01
   7137.33  5.4865164E-01
   7137.67  5.5049943E-01
   7138.00  5.5146554E-01
   7138.33  5.5159074E-01
   7138.67  5.5120563E-01
   7139.00  5.5053339E-01
   7139.33  5.4977668E-01
   7139.67  5.4905806E-01
   7140.00  5.4838290E-01
   7140.33  5.4766089E-01
   7140.67  5.4675345E-01
   7141.00  5.4552935E-01
   7141.33  5.4381574E-01
   7141.67  5.4161553E-01
   7142.00  5.3894492E-01
   7142.33  5.3582929E-01
   7142.67  5.3242454E-01
   7143.00  5.2882291E-01
   7143.33  5.2509568E-01
   7143.67  5.2130612E-01
   7144.00  5.1746778E-01
   7144.33  5.1356502E-01
   7144.67  5.0958643E-01
   7145.00  5.0552099E-01
   7145.33  5.0136106E-01
   7145.67  4.9714217E-01
   7146.00  4.9290366E-01
   7146.33  4.8871262E-01
   7146.67  4.8463588E-01
   7147.00  4.8073716E-01
   7147.33  4.7711638E-01
   7147.67  4.7380093E-01
   7148.00  4.7082962E-01
   7148.33  4.6828115E-01
   7148.67  4.6612797E-01
   7149.00  4.6437954E-01
   7149.33  4.6309318E-01
   7149.67  4.6222178E-01
   7150.00  4.6176872E-01
   7150.33  4.6178487E-01
   7150.67  4.6219980E-01
   7151.00  4.6298817E-01
   7151.33  4.6415298E-01
   7151.67  4.6558875E-01
   7152.00  4.6721669E-01
   7152.33  4.6893242E-01
   7152.67  4.7059690E-01
   7153.00  4.7209552E-01
   7153.33  4.7326907E-01
   7153.67  4.7405203E-01
   7154.00  4.7437606E-01
   7154.33  4.7412816E-01
   7154.67  4.7335500E-01
   7155.00  4.7206725E-01
   7155.33  4.7024381E-01
   7155.67  4.6800765E-01
   7156.00  4.6542733E-01
   7156.33  4.6255651E-01
   7156.67  4.5951395E-01
   7157.00  4.5637039E-01
   7157.33  4.5319860E-01
   7157.67  4.5006915E-01
   7158.00  4.4703220E-01
   7158.33  4.4415576E-01
   7158.67  4.4146499E-01
   7159.00  4.3899154E-01
   7159.33  4.3679738E-01
   7159.67  4.3487568E-01
   7160.00  4.3324178E-01
   7160.33  4.3194488E-01
   7160.67  4.3095473E-01
   7161.00  4.3027352E-01
   7161.33  4.2993275E-01
   7161.67  4.2987813E-01
   7162.00  4.3008637E-01
   7162.33  4.3054715E-01
   7162.67  4.3118496E-01
   7163.00  4.3195411E-01
   7163.33  4.3280741E-01
   7163.67  4.3367851E-01
   7164.00  4.3452174E-01
   7164.33  4.3528217E-01
   7164.67  4.3593401E-01
   7165.00  4.3645678E-01
   7165.33  4.3681957E-01
   7165.67  4.3703730E-01
   7166.00  4.3711451E-01
   7166.33  4.3704627E-01
   7166.67  4.3686379E-01
   7167.00  4.3658094E-01
   7167.33  4.3620259E-01
   7167.67  4.3575304E-01
   7168.00  4.3524261E-01
   7168.33  4.3467517E-01
   7168.67  4.3406595E-01
   7169.00  4.3342254E-01
   7169.33  4.3275071E-01
   7169.67  4.3206282E-01
   7170.00  4.3136759E-01
   7170.33  4.3067699E-01
   7170.67  4.3000329E-01
   7171.00  4.2935916E-01
   7171.33  4.2876923E-01
   7171.67  4.2825322E-01
   7172.00  4.2783908E-01
