    FDMNES
    energy     <xanes>
   7097.00  4.8135288E-03
   7097.33  4.9211238E-03
   7097.67  5.0332389E-03
   7098.00  5.1501588E-03
   7098.33  5.2728945E-03
   7098.67  5.4012040E-03
   7099.00  5.5354697E-03
   7099.33  5.6769918E-03
   7099.67  5.8255164E-03
   7100.00  5.9815710E-03
   7100.33  6.1468707E-03
   7100.67  6.3211664E-03
   7101.00  6.5052092E-03
   7101.33  6.7013324E-03
   7101.67  6.9093303E-03
   7102.00  7.1303140E-03
   7102.33  7.3675809E-03
   7102.67  7.6210559E-03
   7103.00  7.8924629E-03
   7103.33  8.1866863E-03
   7103.67  8.5039865E-03
   7104.00  8.8471987E-03
   7104.33  9.2240094E-03
   7104.67  9.6355134E-03
   7105.00  1.0086738E-02
   7105.33  1.0590771E-02
   7105.67  1.1150870E-02
   7106.00  1.1776876E-02
   7106.33  1.2493570E-02
   7106.67  1.3310359E-02
   7107.00  1.4249300E-02
   7107.33  1.5364891E-02
   7107.67  1.6686969E-02
   7108.00  1.8275669E-02
   7108.33  2.0280821E-02
   7108.67  2.2819445E-02
   7109.00  2.6113679E-02
   7109.33  3.0752383E-02
   7109.67  3.7408020E-02
   7110.00  4.7404007E-02
   7110.33  6.4570167E-02
   7110.67  9.3049269E-02
   7111.00  1.3384130E-01
   7111.33  1.7262566E-01
   7111.67  1.9075602E-01
   7112.00  1.8678498E-01
   7112.33  1.8080796E-01
   7112.67  1.8668281E-01
   7113.00  1.9973903E-01
   7113.33  2.0893106E-01
   7113.67  2.1230620E-01
   7114.00  2.1209427E-01
   7114.33  2.0390413E-01
   7114.67  1.8034482E-01
   7115.00  1.4968836E-01
   7115.33  1.2684062E-01
   7115.67  1.1377677E-01
   7116.00  1.0875678E-01
   7116.33  1.1073575E-01
   7116.67  1.1820581E-01
   7117.00  1.3095306E-01
   7117.33  1.4784925E-01
   7117.67  1.6466927E-01
   7118.00  1.8055231E-01
   7118.33  2.0152297E-01
   7118.67  2.3384493E-01
   7119.00  2.7974661E-01
   7119.33  3.3703820E-01
   7119.67  3.9291062E-01
   7120.00  4.3463839E-01
   7120.33  4.5338443E-01
   7120.67  4.5713847E-01
   7121.00  4.5256564E-01
   7121.33  4.4314089E-01
   7121.67  4.3095359E-01
   7122.00  4.1788055E-01
   7122.33  4.0707033E-01
   7122.67  4.0058270E-01
   7123.00  3.9955134E-01
   7123.33  4.0512950E-01
   7123.67  4.1584077E-01
   7124.00  4.2996817E-01
   7124.33  4.4493822E-01
   7124.67  4.5858211E-01
   7125.00  4.7033699E-01
   7125.33  4.8062200E-01
   7125.67  4.9075950E-01
   7126.00  5.0184121E-01
   7126.33  5.1517077E-01
   7126.67  5.3071471E-01
   7127.00  5.4778345E-01
   7127.33  5.6503928E-01
   7127.67  5.8088850E-01
   7128.00  5.9386731E-01
   7128.33  6.0182214E-01
   7128.67  6.0458305E-01
   7129.00  6.0308794E-01
   7129.33  6.0036091E-01
   7129.67  5.9959850E-01
   7130.00  6.0067750E-01
   7130.33  6.0068984E-01
   7130.67  5.9833221E-01
   7131.00  5.9458453E-01
   7131.33  5.9085044E-01
   7131.67  5.8734690E-01
   7132.00  5.8360280E-01
   7132.33  5.7898000E-01
   7132.67  5.7344363E-01
   7133.00  5.6723584E-01
   7133.33  5.6086357E-01
   7133.67  5.5490899E-01
   7134.00  5.4975810E-01
   7134.33  5.4581979E-01
   7134.67  5.4305045E-01
   7135.00  5.4141131E-01
   7135.33  5.4089279E-01
   7135.67  5.4119312E-01
   7136.00  5.4216250E-01
   7136.33  5.4372118E-01
   7136.67  5.4569443E-01
   7137.00  5.4800698E-01
   7137.33  5.5060366E-01
   7137.67  5.5334830E-01
   7138.00  5.5612874E-01
   7138.33  5.5877364E-01
   7138.67  5.6111918E-01
   7139.00  5.6300378E-01
   7139.33  5.6418228E-01
   7139.67  5.6461091E-01
   7140.00  5.6423087E-01
   7140.33  5.6293161E-01
   7140.67  5.6086498E-01
   7141.00  5.5810640E-01
   7141.33  5.5468985E-01
   7141.67  5.5080249E-01
   7142.00  5.4654283E-01
   7142.33  5.4199223E-01
   7142.67  5.3729435E-01
   7143.00  5.3254155E-01
   7143.33  5.2784059E-01
   7143.67  5.2327607E-01
   7144.00  5.1891420E-01
   7144.33  5.1484919E-01
   7144.67  5.1109179E-01
   7145.00  5.0766633E-01
   7145.33  5.0463065E-01
   7145.67  5.0194747E-01
   7146.00  4.9962144E-01
   7146.33  4.9769892E-01
   7146.67  4.9612659E-01
   7147.00  4.9488747E-01
   7147.33  4.9398836E-01
   7147.67  4.9335122E-01
   7148.00  4.9293757E-01
   7148.33  4.9272596E-01
   7148.67  4.9265796E-01
   7149.00  4.9271344E-01
   7149.33  4.9289743E-01
   7149.67  4.9319342E-01
   7150.00  4.9359845E-01
   7150.33  4.9413026E-01
   7150.67  4.9477585E-01
   7151.00  4.9552265E-01
   7151.33  4.9634335E-01
   7151.67  4.9717171E-01
   7152.00  4.9794492E-01
   7152.33  4.9856761E-01
   7152.67  4.9897396E-01
   7153.00  4.9909576E-01
   7153.33  4.9881913E-01
   7153.67  4.9813020E-01
   7154.00  4.9699184E-01
   7154.33  4.9532210E-01
   7154.67  4.9317858E-01
   7155.00  4.9057631E-01
   7155.33  4.8749513E-01
   7155.67  4.8403499E-01
   7156.00  4.8024491E-01
   7156.33  4.7615620E-01
   7156.67  4.7187281E-01
   7157.00  4.6745872E-01
   7157.33  4.6298323E-01
   7157.67  4.5853010E-01
   7158.00  4.5416434E-01
   7158.33  4.4997811E-01
   7158.67  4.4601835E-01
   7159.00  4.4233588E-01
   7159.33  4.3901919E-01
   7159.67  4.3606154E-01
   7160.00  4.3347982E-01
   7160.33  4.3132662E-01
   7160.67  4.2954536E-01
   7161.00  4.2812078E-01
   7161.33  4.2706982E-01
   7161.67  4.2631952E-01
   7162.00  4.2583845E-01
   7162.33  4.2561744E-01
   7162.67  4.2559175E-01
   7163.00  4.2573337E-01
   7163.33  4.2602997E-01
   7163.67  4.2643729E-01
   7164.00  4.2693427E-01
   7164.33  4.2750786E-01
   7164.67  4.2813125E-01
   7165.00  4.2879114E-01
   7165.33  4.2947708E-01
   7165.67  4.3017435E-01
   7166.00  4.3087371E-01
   7166.33  4.3156402E-01
   7166.67  4.3223592E-01
   7167.00  4.3287946E-01
   7167.33  4.3347614E-01
   7167.67  4.3401569E-01
   7168.00  4.3448374E-01
   7168.33  4.3485243E-01
   7168.67  4.3511717E-01
   7169.00  4.3526688E-01
   7169.33  4.3527716E-01
   7169.67  4.3515959E-01
   7170.00  4.3491558E-01
   7170.33  4.3453865E-01
   7170.67  4.3405951E-01
   7171.00  4.3349904E-01
   7171.33  4.3288886E-01
   7171.67  4.3229383E-01
   7172.00  4.3178544E-01
