    FDMNES
    energy     <xanes>
   7097.00  5.2418629E-03
   7097.33  5.3661437E-03
   7097.67  5.4961159E-03
   7098.00  5.6321669E-03
   7098.33  5.7756172E-03
   7098.67  5.9262001E-03
   7099.00  6.0844431E-03
   7099.33  6.2520736E-03
   7099.67  6.4288180E-03
   7100.00  6.6154136E-03
   7100.33  6.8141782E-03
   7100.67  7.0248566E-03
   7101.00  7.2485110E-03
   7101.33  7.4883460E-03
   7101.67  7.7441817E-03
   7102.00  8.0176043E-03
   7102.33  8.3132069E-03
   7102.67  8.6310104E-03
   7103.00  8.9734879E-03
   7103.33  9.3475184E-03
   7103.67  9.7536083E-03
   7104.00  1.0195824E-02
   7104.33  1.0685049E-02
   7104.67  1.1222951E-02
   7105.00  1.1816683E-02
   7105.33  1.2484718E-02
   7105.67  1.3231627E-02
   7106.00  1.4071145E-02
   7106.33  1.5037710E-02
   7106.67  1.6143820E-02
   7107.00  1.7419221E-02
   7107.33  1.8937165E-02
   7107.67  2.0735166E-02
   7108.00  2.2890068E-02
   7108.33  2.5591957E-02
   7108.67  2.8978445E-02
   7109.00  3.3312131E-02
   7109.33  3.9278012E-02
   7109.67  4.7605154E-02
   7110.00  5.9717154E-02
   7110.33  7.9671285E-02
   7110.67  1.1182832E-01
   7111.00  1.5805499E-01
   7111.33  2.0869622E-01
   7111.67  2.5531835E-01
   7112.00  2.9725120E-01
   7112.33  3.2550250E-01
   7112.67  3.4794292E-01
   7113.00  3.7837758E-01
   7113.33  4.2124955E-01
   7113.67  4.5889837E-01
   7114.00  4.6495715E-01
   7114.33  4.2434722E-01
   7114.67  3.6639454E-01
   7115.00  3.1299882E-01
   7115.33  2.7536325E-01
   7115.67  2.5047914E-01
   7116.00  2.3427031E-01
   7116.33  2.2148394E-01
   7116.67  2.0696685E-01
   7117.00  1.8968092E-01
   7117.33  1.7272538E-01
   7117.67  1.5897591E-01
   7118.00  1.4884244E-01
   7118.33  1.4232145E-01
   7118.67  1.3875729E-01
   7119.00  1.3797794E-01
   7119.33  1.3984790E-01
   7119.67  1.4333732E-01
   7120.00  1.4768752E-01
   7120.33  1.5187205E-01
   7120.67  1.5464120E-01
   7121.00  1.5547253E-01
   7121.33  1.5568616E-01
   7121.67  1.5739982E-01
   7122.00  1.6130575E-01
   7122.33  1.6748318E-01
   7122.67  1.7526481E-01
   7123.00  1.8417996E-01
   7123.33  1.9397239E-01
   7123.67  2.0475685E-01
   7124.00  2.1680954E-01
   7124.33  2.3063543E-01
   7124.67  2.4679323E-01
   7125.00  2.6586890E-01
   7125.33  2.8760752E-01
   7125.67  3.1001093E-01
   7126.00  3.3192861E-01
   7126.33  3.5366279E-01
   7126.67  3.7704883E-01
   7127.00  4.0372002E-01
   7127.33  4.3498780E-01
   7127.67  4.6912260E-01
   7128.00  5.0312406E-01
   7128.33  5.3155729E-01
   7128.67  5.5191987E-01
   7129.00  5.6546055E-01
   7129.33  5.7749285E-01
   7129.67  5.9388774E-01
   7130.00  6.1709302E-01
   7130.33  6.4744029E-01
   7130.67  6.8110228E-01
   7131.00  7.1445436E-01
   7131.33  7.4306461E-01
   7131.67  7.6553464E-01
   7132.00  7.8267213E-01
   7132.33  7.9768062E-01
   7132.67  8.1477999E-01
   7133.00  8.3579633E-01
   7133.33  8.6016111E-01
   7133.67  8.8367235E-01
   7134.00  9.0185132E-01
   7134.33  9.0874974E-01
   7134.67  9.0339409E-01
   7135.00  8.8630064E-01
   7135.33  8.5894230E-01
   7135.67  8.2606997E-01
   7136.00  7.9044945E-01
   7136.33  7.5379668E-01
   7136.67  7.1682869E-01
   7137.00  6.7994204E-01
   7137.33  6.4436033E-01
   7137.67  6.1153823E-01
   7138.00  5.8275595E-01
   7138.33  5.5955623E-01
   7138.67  5.4155797E-01
   7139.00  5.2853469E-01
   7139.33  5.2044494E-01
   7139.67  5.1597826E-01
   7140.00  5.1446059E-01
   7140.33  5.1543862E-01
   7140.67  5.1798982E-01
   7141.00  5.2161855E-01
   7141.33  5.2584441E-01
   7141.67  5.3005032E-01
   7142.00  5.3375653E-01
   7142.33  5.3632210E-01
   7142.67  5.3749107E-01
   7143.00  5.3710664E-01
   7143.33  5.3503790E-01
   7143.67  5.3174964E-01
   7144.00  5.2758390E-01
   7144.33  5.2289989E-01
   7144.67  5.1811081E-01
   7145.00  5.1343937E-01
   7145.33  5.0907844E-01
   7145.67  5.0506105E-01
   7146.00  5.0139053E-01
   7146.33  4.9806037E-01
   7146.67  4.9497553E-01
   7147.00  4.9211124E-01
   7147.33  4.8950913E-01
   7147.67  4.8719338E-01
   7148.00  4.8523355E-01
   7148.33  4.8377990E-01
   7148.67  4.8286693E-01
   7149.00  4.8255938E-01
   7149.33  4.8299415E-01
   7149.67  4.8411743E-01
   7150.00  4.8593147E-01
   7150.33  4.8850456E-01
   7150.67  4.9172751E-01
   7151.00  4.9557352E-01
   7151.33  5.0008010E-01
   7151.67  5.0513360E-01
   7152.00  5.1069567E-01
   7152.33  5.1677353E-01
   7152.67  5.2325188E-01
   7153.00  5.3007347E-01
   7153.33  5.3719640E-01
   7153.67  5.4450034E-01
   7154.00  5.5189868E-01
   7154.33  5.5927771E-01
   7154.67  5.6652309E-01
   7155.00  5.7353260E-01
   7155.33  5.8014054E-01
   7155.67  5.8626851E-01
   7156.00  5.9180987E-01
   7156.33  5.9655309E-01
   7156.67  6.0046990E-01
   7157.00  6.0346922E-01
   7157.33  6.0533670E-01
   7157.67  6.0613497E-01
   7158.00  6.0583437E-01
   7158.33  6.0429417E-01
   7158.67  6.0168396E-01
   7159.00  5.9805772E-01
   7159.33  5.9339005E-01
   7159.67  5.8791136E-01
   7160.00  5.8173545E-01
   7160.33  5.7493957E-01
   7160.67  5.6774738E-01
   7161.00  5.6029405E-01
   7161.33  5.5272218E-01
   7161.67  5.4519523E-01
   7162.00  5.3783526E-01
   7162.33  5.3080835E-01
   7162.67  5.2418640E-01
   7163.00  5.1804372E-01
   7163.33  5.1251647E-01
   7163.67  5.0758446E-01
   7164.00  5.0327354E-01
   7164.33  4.9967632E-01
   7164.67  4.9671051E-01
   7165.00  4.9436292E-01
   7165.33  4.9268089E-01
   7165.67  4.9155092E-01
   7166.00  4.9092852E-01
   7166.33  4.9080514E-01
   7166.67  4.9104785E-01
   7167.00  4.9157918E-01
   7167.33  4.9232172E-01
   7167.67  4.9314393E-01
   7168.00  4.9395085E-01
   7168.33  4.9461908E-01
   7168.67  4.9506479E-01
   7169.00  4.9521318E-01
   7169.33  4.9495284E-01
   7169.67  4.9429169E-01
   7170.00  4.9322139E-01
   7170.33  4.9171303E-01
   7170.67  4.8986944E-01
   7171.00  4.8776765E-01
   7171.33  4.8552809E-01
   7171.67  4.8337410E-01
   7172.00  4.8154745E-01
