    FDMNES
    energy     <xanes>
   7097.00  5.1934493E-03
   7097.33  5.3188617E-03
   7097.67  5.4500879E-03
   7098.00  5.5875267E-03
   7098.33  5.7325324E-03
   7098.67  5.8848368E-03
   7099.00  6.0449839E-03
   7099.33  6.2147487E-03
   7099.67  6.3938569E-03
   7100.00  6.5830703E-03
   7100.33  6.7847752E-03
   7100.67  6.9987183E-03
   7101.00  7.2259992E-03
   7101.33  7.4699242E-03
   7101.67  7.7303211E-03
   7102.00  8.0088350E-03
   7102.33  8.3102162E-03
   7102.67  8.6345060E-03
   7103.00  8.9842757E-03
   7103.33  9.3666587E-03
   7103.67  9.7822103E-03
   7104.00  1.0235170E-02
   7104.33  1.0736859E-02
   7104.67  1.1289063E-02
   7105.00  1.1899263E-02
   7105.33  1.2586743E-02
   7105.67  1.3356371E-02
   7106.00  1.4222562E-02
   7106.33  1.5221427E-02
   7106.67  1.6366247E-02
   7107.00  1.7688384E-02
   7107.33  1.9264998E-02
   7107.67  2.1135952E-02
   7108.00  2.3382541E-02
   7108.33  2.6205655E-02
   7108.67  2.9751030E-02
   7109.00  3.4295851E-02
   7109.33  4.0560829E-02
   7109.67  4.9306219E-02
   7110.00  6.2011023E-02
   7110.33  8.2916826E-02
   7110.67  1.1712320E-01
   7111.00  1.6954276E-01
   7111.33  2.3532621E-01
   7111.67  2.8743587E-01
   7112.00  3.1198325E-01
   7112.33  3.2711739E-01
   7112.67  3.4456439E-01
   7113.00  3.6724603E-01
   7113.33  3.9753402E-01
   7113.67  4.2683520E-01
   7114.00  4.3377421E-01
   7114.33  4.0287800E-01
   7114.67  3.6194225E-01
   7115.00  3.3084715E-01
   7115.33  3.1524367E-01
   7115.67  3.0414370E-01
   7116.00  2.8838031E-01
   7116.33  2.6581873E-01
   7116.67  2.4284000E-01
   7117.00  2.2271090E-01
   7117.33  2.0659060E-01
   7117.67  1.9358588E-01
   7118.00  1.8293080E-01
   7118.33  1.7354960E-01
   7118.67  1.6447633E-01
   7119.00  1.5572772E-01
   7119.33  1.4788645E-01
   7119.67  1.4120525E-01
   7120.00  1.3574937E-01
   7120.33  1.3164972E-01
   7120.67  1.2876288E-01
   7121.00  1.2713654E-01
   7121.33  1.2706732E-01
   7121.67  1.2851553E-01
   7122.00  1.3144308E-01
   7122.33  1.3581052E-01
   7122.67  1.4136887E-01
   7123.00  1.4825268E-01
   7123.33  1.5704424E-01
   7123.67  1.6805241E-01
   7124.00  1.8178443E-01
   7124.33  1.9917886E-01
   7124.67  2.1998478E-01
   7125.00  2.4370318E-01
   7125.33  2.6910858E-01
   7125.67  2.9443967E-01
   7126.00  3.1898153E-01
   7126.33  3.4242818E-01
   7126.67  3.6480758E-01
   7127.00  3.8608473E-01
   7127.33  4.0613391E-01
   7127.67  4.2551044E-01
   7128.00  4.4549759E-01
   7128.33  4.6865937E-01
   7128.67  4.9638821E-01
   7129.00  5.2922781E-01
   7129.33  5.6682490E-01
   7129.67  6.0598532E-01
   7130.00  6.4364698E-01
   7130.33  6.7663962E-01
   7130.67  7.0511842E-01
   7131.00  7.3030494E-01
   7131.33  7.5392625E-01
   7131.67  7.7757134E-01
   7132.00  8.0178012E-01
   7132.33  8.2650590E-01
   7132.67  8.5095564E-01
   7133.00  8.7407327E-01
   7133.33  8.9376388E-01
   7133.67  9.0831715E-01
   7134.00  9.1594540E-01
   7134.33  9.1372425E-01
   7134.67  9.0122883E-01
   7135.00  8.7787368E-01
   7135.33  8.4343639E-01
   7135.67  8.0181848E-01
   7136.00  7.5585040E-01
   7136.33  7.0846011E-01
   7136.67  6.6230948E-01
   7137.00  6.1905877E-01
   7137.33  5.8070532E-01
   7137.67  5.4771275E-01
   7138.00  5.2059692E-01
   7138.33  5.0024752E-01
   7138.67  4.8549574E-01
   7139.00  4.7556328E-01
   7139.33  4.6967880E-01
   7139.67  4.6614549E-01
   7140.00  4.6411261E-01
   7140.33  4.6308879E-01
   7140.67  4.6272674E-01
   7141.00  4.6301456E-01
   7141.33  4.6411244E-01
   7141.67  4.6598476E-01
   7142.00  4.6862145E-01
   7142.33  4.7202178E-01
   7142.67  4.7595697E-01
   7143.00  4.8028304E-01
   7143.33  4.8486888E-01
   7143.67  4.8955760E-01
   7144.00  4.9427379E-01
   7144.33  4.9896571E-01
   7144.67  5.0361829E-01
   7145.00  5.0823074E-01
   7145.33  5.1280391E-01
   7145.67  5.1734520E-01
   7146.00  5.2185159E-01
   7146.33  5.2630657E-01
   7146.67  5.3069833E-01
   7147.00  5.3500791E-01
   7147.33  5.3919994E-01
   7147.67  5.4327545E-01
   7148.00  5.4723736E-01
   7148.33  5.5108504E-01
   7148.67  5.5484613E-01
   7149.00  5.5854097E-01
   7149.33  5.6220363E-01
   7149.67  5.6588049E-01
   7150.00  5.6960989E-01
   7150.33  5.7345272E-01
   7150.67  5.7744577E-01
   7151.00  5.8162820E-01
   7151.33  5.8606403E-01
   7151.67  5.9074230E-01
   7152.00  5.9565643E-01
   7152.33  6.0079422E-01
   7152.67  6.0605885E-01
   7153.00  6.1135841E-01
   7153.33  6.1654020E-01
   7153.67  6.2146212E-01
   7154.00  6.2599039E-01
   7154.33  6.2991019E-01
   7154.67  6.3316307E-01
   7155.00  6.3566529E-01
   7155.33  6.3725121E-01
   7155.67  6.3799665E-01
   7156.00  6.3790837E-01
   7156.33  6.3692436E-01
   7156.67  6.3520639E-01
   7157.00  6.3282117E-01
   7157.33  6.2978244E-01
   7157.67  6.2625196E-01
   7158.00  6.2230402E-01
   7158.33  6.1797601E-01
   7158.67  6.1337983E-01
   7159.00  6.0856683E-01
   7159.33  6.0356583E-01
   7159.67  5.9843748E-01
   7160.00  5.9320883E-01
   7160.33  5.8789374E-01
   7160.67  5.8251778E-01
   7161.00  5.7709317E-01
   7161.33  5.7163171E-01
   7161.67  5.6615386E-01
   7162.00  5.6067455E-01
   7162.33  5.5521871E-01
   7162.67  5.4981109E-01
   7163.00  5.4447701E-01
   7163.33  5.3925718E-01
   7163.67  5.3416264E-01
   7164.00  5.2920736E-01
   7164.33  5.2441529E-01
   7164.67  5.1976171E-01
   7165.00  5.1523102E-01
   7165.33  5.1080818E-01
   7165.67  5.0644940E-01
   7166.00  5.0212673E-01
   7166.33  4.9781162E-01
   7166.67  4.9348150E-01
   7167.00  4.8912499E-01
   7167.33  4.8473326E-01
   7167.67  4.8031529E-01
   7168.00  4.7588326E-01
   7168.33  4.7145817E-01
   7168.67  4.6706185E-01
   7169.00  4.6271373E-01
   7169.33  4.5844625E-01
   7169.67  4.5427607E-01
   7170.00  4.5022619E-01
   7170.33  4.4634297E-01
   7170.67  4.4264025E-01
   7171.00  4.3915469E-01
   7171.33  4.3598616E-01
   7171.67  4.3320942E-01
   7172.00  4.3096106E-01
