    FDMNES
    energy     <xanes>
   7097.00  5.2349257E-03
   7097.33  5.3727160E-03
   7097.67  5.5174453E-03
   7098.00  5.6696289E-03
   7098.33  5.8309504E-03
   7098.67  6.0011455E-03
   7099.00  6.1809335E-03
   7099.33  6.3725729E-03
   7099.67  6.5758154E-03
   7100.00  6.7916950E-03
   7100.33  7.0233298E-03
   7100.67  7.2705398E-03
   7101.00  7.5348622E-03
   7101.33  7.8207520E-03
   7101.67  8.1282105E-03
   7102.00  8.4596168E-03
   7102.33  8.8216025E-03
   7102.67  9.2146004E-03
   7103.00  9.6424753E-03
   7103.33  1.0115605E-02
   7103.67  1.0635430E-02
   7104.00  1.1208613E-02
   7104.33  1.1852436E-02
   7104.67  1.2570759E-02
   7105.00  1.3375963E-02
   7105.33  1.4299208E-02
   7105.67  1.5350556E-02
   7106.00  1.6555366E-02
   7106.33  1.7976073E-02
   7106.67  1.9640408E-02
   7107.00  2.1607720E-02
   7107.33  2.4022873E-02
   7107.67  2.6972928E-02
   7108.00  3.0626304E-02
   7108.33  3.5401354E-02
   7108.67  4.1642774E-02
   7109.00  4.9996778E-02
   7109.33  6.2184424E-02
   7109.67  8.0234328E-02
   7110.00  1.0813508E-01
   7110.33  1.5728500E-01
   7110.67  2.3790379E-01
   7111.00  3.4309946E-01
   7111.33  4.2839284E-01
   7111.67  4.9928504E-01
   7112.00  5.6828363E-01
   7112.33  5.9494628E-01
   7112.67  5.4988250E-01
   7113.00  4.5471952E-01
   7113.33  3.5833918E-01
   7113.67  2.8106141E-01
   7114.00  2.2353540E-01
   7114.33  1.8223235E-01
   7114.67  1.5066056E-01
   7115.00  1.2717757E-01
   7115.33  1.1107851E-01
   7115.67  9.8894560E-02
   7116.00  8.8072173E-02
   7116.33  7.8662551E-02
   7116.67  7.2208116E-02
   7117.00  6.8926916E-02
   7117.33  6.8664604E-02
   7117.67  7.0663848E-02
   7118.00  7.4534115E-02
   7118.33  7.9492999E-02
   7118.67  8.4295076E-02
   7119.00  8.8663821E-02
   7119.33  9.3116915E-02
   7119.67  9.7945535E-02
   7120.00  1.0288118E-01
   7120.33  1.0807007E-01
   7120.67  1.1445991E-01
   7121.00  1.2324138E-01
   7121.33  1.3626198E-01
   7121.67  1.5416748E-01
   7122.00  1.7775647E-01
   7122.33  2.0781661E-01
   7122.67  2.4163827E-01
   7123.00  2.7759230E-01
   7123.33  3.1951645E-01
   7123.67  3.7342982E-01
   7124.00  4.4277059E-01
   7124.33  5.2614218E-01
   7124.67  6.0933818E-01
   7125.00  6.7661046E-01
   7125.33  7.1086771E-01
   7125.67  7.1422233E-01
   7126.00  6.9249960E-01
   7126.33  6.5595902E-01
   7126.67  6.1905686E-01
   7127.00  5.8736334E-01
   7127.33  5.6118124E-01
   7127.67  5.3754801E-01
   7128.00  5.1579299E-01
   7128.33  4.9708254E-01
   7128.67  4.8228730E-01
   7129.00  4.7200635E-01
   7129.33  4.6677532E-01
   7129.67  4.6533411E-01
   7130.00  4.6671796E-01
   7130.33  4.7008196E-01
   7130.67  4.7454947E-01
   7131.00  4.7962114E-01
   7131.33  4.8447558E-01
   7131.67  4.8861475E-01
   7132.00  4.9231804E-01
   7132.33  4.9683846E-01
   7132.67  5.0356254E-01
   7133.00  5.1344060E-01
   7133.33  5.2718692E-01
   7133.67  5.4382512E-01
   7134.00  5.6250392E-01
   7134.33  5.8198053E-01
   7134.67  6.0046190E-01
   7135.00  6.1653276E-01
   7135.33  6.2890829E-01
   7135.67  6.3827155E-01
   7136.00  6.4544288E-01
   7136.33  6.5120470E-01
   7136.67  6.5635847E-01
   7137.00  6.6133974E-01
   7137.33  6.6667908E-01
   7137.67  6.7268359E-01
   7138.00  6.7938242E-01
   7138.33  6.8649755E-01
   7138.67  6.9338085E-01
   7139.00  6.9941578E-01
   7139.33  7.0369218E-01
   7139.67  7.0582403E-01
   7140.00  7.0555129E-01
   7140.33  7.0265372E-01
   7140.67  6.9786408E-01
   7141.00  6.9175641E-01
   7141.33  6.8502179E-01
   7141.67  6.7848100E-01
   7142.00  6.7269650E-01
   7142.33  6.6829056E-01
   7142.67  6.6531186E-01
   7143.00  6.6372146E-01
   7143.33  6.6343127E-01
   7143.67  6.6391380E-01
   7144.00  6.6479396E-01
   7144.33  6.6567895E-01
   7144.67  6.6627173E-01
   7145.00  6.6640001E-01
   7145.33  6.6586017E-01
   7145.67  6.6465310E-01
   7146.00  6.6275886E-01
   7146.33  6.6012677E-01
   7146.67  6.5692908E-01
   7147.00  6.5327491E-01
   7147.33  6.4925893E-01
   7147.67  6.4504056E-01
   7148.00  6.4069717E-01
   7148.33  6.3626732E-01
   7148.67  6.3176263E-01
   7149.00  6.2715863E-01
   7149.33  6.2239269E-01
   7149.67  6.1743377E-01
   7150.00  6.1224480E-01
   7150.33  6.0676313E-01
   7150.67  6.0101100E-01
   7151.00  5.9499924E-01
   7151.33  5.8873654E-01
   7151.67  5.8231017E-01
   7152.00  5.7578463E-01
   7152.33  5.6924013E-01
   7152.67  5.6275923E-01
   7153.00  5.5640271E-01
   7153.33  5.5024898E-01
   7153.67  5.4431274E-01
   7154.00  5.3860859E-01
   7154.33  5.3315545E-01
   7154.67  5.2788216E-01
   7155.00  5.2271807E-01
   7155.33  5.1753089E-01
   7155.67  5.1214052E-01
   7156.00  5.0635525E-01
   7156.33  4.9985270E-01
   7156.67  4.9248447E-01
   7157.00  4.8409846E-01
   7157.33  4.7446251E-01
   7157.67  4.6373462E-01
   7158.00  4.5202391E-01
   7158.33  4.3945199E-01
   7158.67  4.2639545E-01
   7159.00  4.1311579E-01
   7159.33  3.9991915E-01
   7159.67  3.8706359E-01
   7160.00  3.7474493E-01
   7160.33  3.6323188E-01
   7160.67  3.5256334E-01
   7161.00  3.4281361E-01
   7161.33  3.3415152E-01
   7161.67  3.2646698E-01
   7162.00  3.1974579E-01
   7162.33  3.1406740E-01
   7162.67  3.0926053E-01
   7163.00  3.0526325E-01
   7163.33  3.0208007E-01
   7163.67  2.9952546E-01
   7164.00  2.9751547E-01
   7164.33  2.9601036E-01
   7164.67  2.9486530E-01
   7165.00  2.9401398E-01
   7165.33  2.9342285E-01
   7165.67  2.9301872E-01
   7166.00  2.9277920E-01
   7166.33  2.9271595E-01
   7166.67  2.9281892E-01
   7167.00  2.9310704E-01
   7167.33  2.9363672E-01
   7167.67  2.9441392E-01
   7168.00  2.9546581E-01
   7168.33  2.9685693E-01
   7168.67  2.9856795E-01
   7169.00  3.0060597E-01
   7169.33  3.0300922E-01
   7169.67  3.0572288E-01
   7170.00  3.0872452E-01
   7170.33  3.1200538E-01
   7170.67  3.1547489E-01
   7171.00  3.1905768E-01
   7171.33  3.2261236E-01
   7171.67  3.2590528E-01
   7172.00  3.2863535E-01
