    FDMNES
    energy     <xanes>
   7097.00  4.1948049E-03
   7097.33  4.2780694E-03
   7097.67  4.3645755E-03
   7098.00  4.4545258E-03
   7098.33  4.5486439E-03
   7098.67  4.6467568E-03
   7099.00  4.7491400E-03
   7099.33  4.8567299E-03
   7099.67  4.9693505E-03
   7100.00  5.0873884E-03
   7100.33  5.2120916E-03
   7100.67  5.3432980E-03
   7101.00  5.4815699E-03
   7101.33  5.6286320E-03
   7101.67  5.7843735E-03
   7102.00  5.9496484E-03
   7102.33  6.1269478E-03
   7102.67  6.3162965E-03
   7103.00  6.5190616E-03
   7103.33  6.7390406E-03
   7103.67  6.9765923E-03
   7104.00  7.2340488E-03
   7104.33  7.5176052E-03
   7104.67  7.8284438E-03
   7105.00  8.1708755E-03
   7105.33  8.5559159E-03
   7105.67  8.9868987E-03
   7106.00  9.4726584E-03
   7106.33  1.0035131E-02
   7106.67  1.0683877E-02
   7107.00  1.1439705E-02
   7107.33  1.2353644E-02
   7107.67  1.3456480E-02
   7108.00  1.4808012E-02
   7108.33  1.6557290E-02
   7108.67  1.8828712E-02
   7109.00  2.1855788E-02
   7109.33  2.6262758E-02
   7109.67  3.2794403E-02
   7110.00  4.2917548E-02
   7110.33  6.0841716E-02
   7110.67  9.0450209E-02
   7111.00  1.2976497E-01
   7111.33  1.6341969E-01
   7111.67  1.8474776E-01
   7112.00  1.9000966E-01
   7112.33  1.7628224E-01
   7112.67  1.5012559E-01
   7113.00  1.2058840E-01
   7113.33  9.7604376E-02
   7113.67  8.3294434E-02
   7114.00  7.7870428E-02
   7114.33  7.7327380E-02
   7114.67  7.0990151E-02
   7115.00  5.8861258E-02
   7115.33  4.8640545E-02
   7115.67  4.1935321E-02
   7116.00  3.7842634E-02
   7116.33  3.5620133E-02
   7116.67  3.4524142E-02
   7117.00  3.4287751E-02
   7117.33  3.4773302E-02
   7117.67  3.5738875E-02
   7118.00  3.7090128E-02
   7118.33  3.8834059E-02
   7118.67  4.1005009E-02
   7119.00  4.3741674E-02
   7119.33  4.7292265E-02
   7119.67  5.1649045E-02
   7120.00  5.6813040E-02
   7120.33  6.2836044E-02
   7120.67  6.9554090E-02
   7121.00  7.6883191E-02
   7121.33  8.4851821E-02
   7121.67  9.3622458E-02
   7122.00  1.0369328E-01
   7122.33  1.1610293E-01
   7122.67  1.3139276E-01
   7123.00  1.5019366E-01
   7123.33  1.7361903E-01
   7123.67  2.0149360E-01
   7124.00  2.3369468E-01
   7124.33  2.6921383E-01
   7124.67  3.0430739E-01
   7125.00  3.3590831E-01
   7125.33  3.6349431E-01
   7125.67  3.9022672E-01
   7126.00  4.1665582E-01
   7126.33  4.4112223E-01
   7126.67  4.6500483E-01
   7127.00  4.9222437E-01
   7127.33  5.2831362E-01
   7127.67  5.7488482E-01
   7128.00  6.3286009E-01
   7128.33  7.0382768E-01
   7128.67  7.8471156E-01
   7129.00  8.7054211E-01
   7129.33  9.4880565E-01
   7129.67  1.0058066E+00
   7130.00  1.0320628E+00
   7130.33  1.0201216E+00
   7130.67  9.8099519E-01
   7131.00  9.2718172E-01
   7131.33  8.7339195E-01
   7131.67  8.2699349E-01
   7132.00  7.8933849E-01
   7132.33  7.6216957E-01
   7132.67  7.4539473E-01
   7133.00  7.3963447E-01
   7133.33  7.4497712E-01
   7133.67  7.5682161E-01
   7134.00  7.7204179E-01
   7134.33  7.8836667E-01
   7134.67  8.0393812E-01
   7135.00  8.1683115E-01
   7135.33  8.2418123E-01
   7135.67  8.2558938E-01
   7136.00  8.2143428E-01
   7136.33  8.1271444E-01
   7136.67  8.0188223E-01
   7137.00  7.9042301E-01
   7137.33  7.7960052E-01
   7137.67  7.6996197E-01
   7138.00  7.6170648E-01
   7138.33  7.5500750E-01
   7138.67  7.4950812E-01
   7139.00  7.4489213E-01
   7139.33  7.4064069E-01
   7139.67  7.3604454E-01
   7140.00  7.3057421E-01
   7140.33  7.2362951E-01
   7140.67  7.1518559E-01
   7141.00  7.0526022E-01
   7141.33  6.9385298E-01
   7141.67  6.8139058E-01
   7142.00  6.6814481E-01
   7142.33  6.5439121E-01
   7142.67  6.4052741E-01
   7143.00  6.2685005E-01
   7143.33  6.1375212E-01
   7143.67  6.0144789E-01
   7144.00  5.9010960E-01
   7144.33  5.7996664E-01
   7144.67  5.7086434E-01
   7145.00  5.6270295E-01
   7145.33  5.5540254E-01
   7145.67  5.4867190E-01
   7146.00  5.4235566E-01
   7146.33  5.3633807E-01
   7146.67  5.3047943E-01
   7147.00  5.2472118E-01
   7147.33  5.1902568E-01
   7147.67  5.1335550E-01
   7148.00  5.0769157E-01
   7148.33  5.0201348E-01
   7148.67  4.9630621E-01
   7149.00  4.9055683E-01
   7149.33  4.8474473E-01
   7149.67  4.7886652E-01
   7150.00  4.7291665E-01
   7150.33  4.6688271E-01
   7150.67  4.6077503E-01
   7151.00  4.5459766E-01
   7151.33  4.4835017E-01
   7151.67  4.4205030E-01
   7152.00  4.3570762E-01
   7152.33  4.2932877E-01
   7152.67  4.2292726E-01
   7153.00  4.1651000E-01
   7153.33  4.1008226E-01
   7153.67  4.0365181E-01
   7154.00  3.9722637E-01
   7154.33  3.9082301E-01
   7154.67  3.8445954E-01
   7155.00  3.7815224E-01
   7155.33  3.7191178E-01
   7155.67  3.6570983E-01
   7156.00  3.5950869E-01
   7156.33  3.5323249E-01
   7156.67  3.4680675E-01
   7157.00  3.4015900E-01
   7157.33  3.3318011E-01
   7157.67  3.2587936E-01
   7158.00  3.1827924E-01
   7158.33  3.1042357E-01
   7158.67  3.0245496E-01
   7159.00  2.9449572E-01
   7159.33  2.8672333E-01
   7159.67  2.7927696E-01
   7160.00  2.7228921E-01
   7160.33  2.6597798E-01
   7160.67  2.6039014E-01
   7161.00  2.5561190E-01
   7161.33  2.5183455E-01
   7161.67  2.4900623E-01
   7162.00  2.4716635E-01
   7162.33  2.4648017E-01
   7162.67  2.4684722E-01
   7163.00  2.4828223E-01
   7163.33  2.5092299E-01
   7163.67  2.5462297E-01
   7164.00  2.5935642E-01
   7164.33  2.6519477E-01
   7164.67  2.7193770E-01
   7165.00  2.7949633E-01
   7165.33  2.8782757E-01
   7165.67  2.9670282E-01
   7166.00  3.0599762E-01
   7166.33  3.1560661E-01
   7166.67  3.2536759E-01
   7167.00  3.3518663E-01
   7167.33  3.4497158E-01
   7167.67  3.5465769E-01
   7168.00  3.6419698E-01
   7168.33  3.7351525E-01
   7168.67  3.8258753E-01
   7169.00  3.9136768E-01
   7169.33  3.9975266E-01
   7169.67  4.0772274E-01
   7170.00  4.1522275E-01
   7170.33  4.2212660E-01
   7170.67  4.2844755E-01
   7171.00  4.3414389E-01
   7171.33  4.3907587E-01
   7171.67  4.4324163E-01
   7172.00  4.4653211E-01
