    FDMNES
    energy     <xanes>
   7097.00  4.1897760E-03
   7097.33  4.2792549E-03
   7097.67  4.3726614E-03
   7098.00  4.4702673E-03
   7098.33  4.5729930E-03
   7098.67  4.6806632E-03
   7099.00  4.7936538E-03
   7099.33  4.9131820E-03
   7099.67  5.0390767E-03
   7100.00  5.1718738E-03
   7100.33  5.3132317E-03
   7100.67  5.4630094E-03
   7101.00  5.6219984E-03
   7101.33  5.7925404E-03
   7101.67  5.9745821E-03
   7102.00  6.1693428E-03
   7102.33  6.3802754E-03
   7102.67  6.6075436E-03
   7103.00  6.8531251E-03
   7103.33  7.1223899E-03
   7103.67  7.4160216E-03
   7104.00  7.7374394E-03
   7104.33  8.0955749E-03
   7104.67  8.4923907E-03
   7105.00  8.9342988E-03
   7105.33  9.4375046E-03
   7105.67  1.0007342E-02
   7106.00  1.0657200E-02
   7106.33  1.1420125E-02
   7106.67  1.2311440E-02
   7107.00  1.3363559E-02
   7107.33  1.4655959E-02
   7107.67  1.6239409E-02
   7108.00  1.8211345E-02
   7108.33  2.0816617E-02
   7108.67  2.4272900E-02
   7109.00  2.8990463E-02
   7109.33  3.6089926E-02
   7109.67  4.7002935E-02
   7110.00  6.4586072E-02
   7110.33  9.6978400E-02
   7110.67  1.4928418E-01
   7111.00  2.0455348E-01
   7111.33  2.1252494E-01
   7111.67  1.9894654E-01
   7112.00  1.8268386E-01
   7112.33  1.6602721E-01
   7112.67  1.6600723E-01
   7113.00  1.8758129E-01
   7113.33  2.0587646E-01
   7113.67  1.9052836E-01
   7114.00  1.5594174E-01
   7114.33  1.3205169E-01
   7114.67  1.2370614E-01
   7115.00  1.2610263E-01
   7115.33  1.3277742E-01
   7115.67  1.3925106E-01
   7116.00  1.3765125E-01
   7116.33  1.2449302E-01
   7116.67  1.1093592E-01
   7117.00  1.0162597E-01
   7117.33  9.7010896E-02
   7117.67  9.4616383E-02
   7118.00  9.2715823E-02
   7118.33  9.0919052E-02
   7118.67  9.0137478E-02
   7119.00  9.0936839E-02
   7119.33  9.3921501E-02
   7119.67  9.8871100E-02
   7120.00  1.0478657E-01
   7120.33  1.0904049E-01
   7120.67  1.1059650E-01
   7121.00  1.1051407E-01
   7121.33  1.1062245E-01
   7121.67  1.1184825E-01
   7122.00  1.1436538E-01
   7122.33  1.1832836E-01
   7122.67  1.2367474E-01
   7123.00  1.3053932E-01
   7123.33  1.3907285E-01
   7123.67  1.4878134E-01
   7124.00  1.5936304E-01
   7124.33  1.7080238E-01
   7124.67  1.8317602E-01
   7125.00  1.9668492E-01
   7125.33  2.1156453E-01
   7125.67  2.2741947E-01
   7126.00  2.4350376E-01
   7126.33  2.5776217E-01
   7126.67  2.6833580E-01
   7127.00  2.7523965E-01
   7127.33  2.8132365E-01
   7127.67  2.9001930E-01
   7128.00  3.0255284E-01
   7128.33  3.1887385E-01
   7128.67  3.3696586E-01
   7129.00  3.5520950E-01
   7129.33  3.7188245E-01
   7129.67  3.8643483E-01
   7130.00  3.9900306E-01
   7130.33  4.1030652E-01
   7130.67  4.2167344E-01
   7131.00  4.3401957E-01
   7131.33  4.4822366E-01
   7131.67  4.6426590E-01
   7132.00  4.8199320E-01
   7132.33  5.0120181E-01
   7132.67  5.2134466E-01
   7133.00  5.4218205E-01
   7133.33  5.6355603E-01
   7133.67  5.8505083E-01
   7134.00  6.0604757E-01
   7134.33  6.2505824E-01
   7134.67  6.4050345E-01
   7135.00  6.5077171E-01
   7135.33  6.5385996E-01
   7135.67  6.5066392E-01
   7136.00  6.4236661E-01
   7136.33  6.3075063E-01
   7136.67  6.1840200E-01
   7137.00  6.0682895E-01
   7137.33  5.9738323E-01
   7137.67  5.9031903E-01
   7138.00  5.8568094E-01
   7138.33  5.8349138E-01
   7138.67  5.8299580E-01
   7139.00  5.8365431E-01
   7139.33  5.8483103E-01
   7139.67  5.8580458E-01
   7140.00  5.8612334E-01
   7140.33  5.8538727E-01
   7140.67  5.8375172E-01
   7141.00  5.8149634E-01
   7141.33  5.7914616E-01
   7141.67  5.7735529E-01
   7142.00  5.7667122E-01
   7142.33  5.7785308E-01
   7142.67  5.8109911E-01
   7143.00  5.8661424E-01
   7143.33  5.9474727E-01
   7143.67  6.0507432E-01
   7144.00  6.1734905E-01
   7144.33  6.3137106E-01
   7144.67  6.4649540E-01
   7145.00  6.6233434E-01
   7145.33  6.7851555E-01
   7145.67  6.9466874E-01
   7146.00  7.1056946E-01
   7146.33  7.2593079E-01
   7146.67  7.4059324E-01
   7147.00  7.5435950E-01
   7147.33  7.6683878E-01
   7147.67  7.7791210E-01
   7148.00  7.8735699E-01
   7148.33  7.9470960E-01
   7148.67  8.0002639E-01
   7149.00  8.0321641E-01
   7149.33  8.0398560E-01
   7149.67  8.0266456E-01
   7150.00  7.9936833E-01
   7150.33  7.9407061E-01
   7150.67  7.8723600E-01
   7151.00  7.7908552E-01
   7151.33  7.6974988E-01
   7151.67  7.5961925E-01
   7152.00  7.4889481E-01
   7152.33  7.3772951E-01
   7152.67  7.2634189E-01
   7153.00  7.1485415E-01
   7153.33  7.0339448E-01
   7153.67  6.9207350E-01
   7154.00  6.8097601E-01
   7154.33  6.7022280E-01
   7154.67  6.5984548E-01
   7155.00  6.4989702E-01
   7155.33  6.4049235E-01
   7155.67  6.3161984E-01
   7156.00  6.2331829E-01
   7156.33  6.1570490E-01
   7156.67  6.0873899E-01
   7157.00  6.0244781E-01
   7157.33  5.9694639E-01
   7157.67  5.9216935E-01
   7158.00  5.8813126E-01
   7158.33  5.8493578E-01
   7158.67  5.8249083E-01
   7159.00  5.8078899E-01
   7159.33  5.7989369E-01
   7159.67  5.7966161E-01
   7160.00  5.8002725E-01
   7160.33  5.8095396E-01
   7160.67  5.8225093E-01
   7161.00  5.8378655E-01
   7161.33  5.8539759E-01
   7161.67  5.8688821E-01
   7162.00  5.8809277E-01
   7162.33  5.8878366E-01
   7162.67  5.8888084E-01
   7163.00  5.8829390E-01
   7163.33  5.8686120E-01
   7163.67  5.8465660E-01
   7164.00  5.8168980E-01
   7164.33  5.7789805E-01
   7164.67  5.7342060E-01
   7165.00  5.6830886E-01
   7165.33  5.6255633E-01
   7165.67  5.5629911E-01
   7166.00  5.4959240E-01
   7166.33  5.4245268E-01
   7166.67  5.3498948E-01
   7167.00  5.2725492E-01
   7167.33  5.1928973E-01
   7167.67  5.1120411E-01
   7168.00  5.0308831E-01
   7168.33  4.9505085E-01
   7168.67  4.8717590E-01
   7169.00  4.7954257E-01
   7169.33  4.7227889E-01
   7169.67  4.6542093E-01
   7170.00  4.5902557E-01
   7170.33  4.5321130E-01
   7170.67  4.4795577E-01
   7171.00  4.4328915E-01
   7171.33  4.3932435E-01
   7171.67  4.3603008E-01
   7172.00  4.3345527E-01
