    FDMNES
    energy     <xanes>
   7097.00  4.4495847E-03
   7097.33  4.5451230E-03
   7097.67  4.6448300E-03
   7098.00  4.7489887E-03
   7098.33  4.8585660E-03
   7098.67  4.9733673E-03
   7099.00  5.0937808E-03
   7099.33  5.2210762E-03
   7099.67  5.3550584E-03
   7100.00  5.4962752E-03
   7100.33  5.6464411E-03
   7100.67  5.8053836E-03
   7101.00  5.9739022E-03
   7101.33  6.1543908E-03
   7101.67  6.3467508E-03
   7102.00  6.5521963E-03
   7102.33  6.7742083E-03
   7102.67  7.0128763E-03
   7103.00  7.2701358E-03
   7103.33  7.5513067E-03
   7103.67  7.8569319E-03
   7104.00  8.1902876E-03
   7104.33  8.5600290E-03
   7104.67  8.9678045E-03
   7105.00  9.4195995E-03
   7105.33  9.9306830E-03
   7105.67  1.0505562E-02
   7106.00  1.1156327E-02
   7106.33  1.1913008E-02
   7106.67  1.2788326E-02
   7107.00  1.3810326E-02
   7107.33  1.5047839E-02
   7107.67  1.6541495E-02
   7108.00  1.8370878E-02
   7108.33  2.0734526E-02
   7108.67  2.3796490E-02
   7109.00  2.7866116E-02
   7109.33  3.3772011E-02
   7109.67  4.2504708E-02
   7110.00  5.6024142E-02
   7110.33  8.0016638E-02
   7110.67  1.2014232E-01
   7111.00  1.7467664E-01
   7111.33  2.1289141E-01
   7111.67  2.1042827E-01
   7112.00  1.8634735E-01
   7112.33  1.7880699E-01
   7112.67  1.9852713E-01
   7113.00  2.4214389E-01
   7113.33  2.7195906E-01
   7113.67  2.5080416E-01
   7114.00  2.0807370E-01
   7114.33  1.8395765E-01
   7114.67  1.7583285E-01
   7115.00  1.7270211E-01
   7115.33  1.7249890E-01
   7115.67  1.7527170E-01
   7116.00  1.6775004E-01
   7116.33  1.4427130E-01
   7116.67  1.2191539E-01
   7117.00  1.0680403E-01
   7117.33  9.9092046E-02
   7117.67  9.6049866E-02
   7118.00  9.6247264E-02
   7118.33  9.7843540E-02
   7118.67  9.9629796E-02
   7119.00  1.0238765E-01
   7119.33  1.0714191E-01
   7119.67  1.1407362E-01
   7120.00  1.2298399E-01
   7120.33  1.3084007E-01
   7120.67  1.3372399E-01
   7121.00  1.3251528E-01
   7121.33  1.3138553E-01
   7121.67  1.3245278E-01
   7122.00  1.3582651E-01
   7122.33  1.4128950E-01
   7122.67  1.4840502E-01
   7123.00  1.5729096E-01
   7123.33  1.6832580E-01
   7123.67  1.8122827E-01
   7124.00  1.9578780E-01
   7124.33  2.1172153E-01
   7124.67  2.2833028E-01
   7125.00  2.4522234E-01
   7125.33  2.6240797E-01
   7125.67  2.8038314E-01
   7126.00  2.9942598E-01
   7126.33  3.1838243E-01
   7126.67  3.3477888E-01
   7127.00  3.4764591E-01
   7127.33  3.5845681E-01
   7127.67  3.6964837E-01
   7128.00  3.8183319E-01
   7128.33  3.9454648E-01
   7128.67  4.0665150E-01
   7129.00  4.1723008E-01
   7129.33  4.2528863E-01
   7129.67  4.3095288E-01
   7130.00  4.3458644E-01
   7130.33  4.3699751E-01
   7130.67  4.3954958E-01
   7131.00  4.4317184E-01
   7131.33  4.4875148E-01
   7131.67  4.5623415E-01
   7132.00  4.6542553E-01
   7132.33  4.7607185E-01
   7132.67  4.8762476E-01
   7133.00  4.9989663E-01
   7133.33  5.1285047E-01
   7133.67  5.2620173E-01
   7134.00  5.3958054E-01
   7134.33  5.5219170E-01
   7134.67  5.6309632E-01
   7135.00  5.7125192E-01
   7135.33  5.7511145E-01
   7135.67  5.7474318E-01
   7136.00  5.7061652E-01
   7136.33  5.6382948E-01
   7136.67  5.5643628E-01
   7137.00  5.4977043E-01
   7137.33  5.4506683E-01
   7137.67  5.4251159E-01
   7138.00  5.4207860E-01
   7138.33  5.4372300E-01
   7138.67  5.4683436E-01
   7139.00  5.5108920E-01
   7139.33  5.5627512E-01
   7139.67  5.6206793E-01
   7140.00  5.6835421E-01
   7140.33  5.7510703E-01
   7140.67  5.8222043E-01
   7141.00  5.8965379E-01
   7141.33  5.9737742E-01
   7141.67  6.0526819E-01
   7142.00  6.1322953E-01
   7142.33  6.2114572E-01
   7142.67  6.2894436E-01
   7143.00  6.3660738E-01
   7143.33  6.4417455E-01
   7143.67  6.5178314E-01
   7144.00  6.5959112E-01
   7144.33  6.6786866E-01
   7144.67  6.7678624E-01
   7145.00  6.8651276E-01
   7145.33  6.9731074E-01
   7145.67  7.0912033E-01
   7146.00  7.2190740E-01
   7146.33  7.3562231E-01
   7146.67  7.4987920E-01
   7147.00  7.6433799E-01
   7147.33  7.7848484E-01
   7147.67  7.9182966E-01
   7148.00  8.0392501E-01
   7148.33  8.1408448E-01
   7148.67  8.2214453E-01
   7149.00  8.2787271E-01
   7149.33  8.3079952E-01
   7149.67  8.3118947E-01
   7150.00  8.2907771E-01
   7150.33  8.2427607E-01
   7150.67  8.1725282E-01
   7151.00  8.0818888E-01
   7151.33  7.9710012E-01
   7151.67  7.8447963E-01
   7152.00  7.7058229E-01
   7152.33  7.5559134E-01
   7152.67  7.3991342E-01
   7153.00  7.2378268E-01
   7153.33  7.0744234E-01
   7153.67  6.9116211E-01
   7154.00  6.7513125E-01
   7154.33  6.5959338E-01
   7154.67  6.4464728E-01
   7155.00  6.3039917E-01
   7155.33  6.1704521E-01
   7155.67  6.0455892E-01
   7156.00  5.9298768E-01
   7156.33  5.8249090E-01
   7156.67  5.7297629E-01
   7157.00  5.6445928E-01
   7157.33  5.5707683E-01
   7157.67  5.5070962E-01
   7158.00  5.4536219E-01
   7158.33  5.4116681E-01
   7158.67  5.3799834E-01
   7159.00  5.3585697E-01
   7159.33  5.3486502E-01
   7159.67  5.3487878E-01
   7160.00  5.3587146E-01
   7160.33  5.3790666E-01
   7160.67  5.4078721E-01
   7161.00  5.4441443E-01
   7161.33  5.4871841E-01
   7161.67  5.5345630E-01
   7162.00  5.5847120E-01
   7162.33  5.6358515E-01
   7162.67  5.6859923E-01
   7163.00  5.7335448E-01
   7163.33  5.7762320E-01
   7163.67  5.8130584E-01
   7164.00  5.8428258E-01
   7164.33  5.8632782E-01
   7164.67  5.8745523E-01
   7165.00  5.8761521E-01
   7165.33  5.8665860E-01
   7165.67  5.8472575E-01
   7166.00  5.8186210E-01
   7166.33  5.7804321E-01
   7166.67  5.7347785E-01
   7167.00  5.6826350E-01
   7167.33  5.6245167E-01
   7167.67  5.5622671E-01
   7168.00  5.4968892E-01
   7168.33  5.4293909E-01
   7168.67  5.3612840E-01
   7169.00  5.2935147E-01
   7169.33  5.2272401E-01
   7169.67  5.1632271E-01
   7170.00  5.1022102E-01
   7170.33  5.0454098E-01
   7170.67  4.9930065E-01
   7171.00  4.9455119E-01
   7171.33  4.9042582E-01
   7171.67  4.8694334E-01
   7172.00  4.8420338E-01
