    FDMNES
    energy     <xanes>
   7097.00  5.4108912E-03
   7097.33  5.5478722E-03
   7097.67  5.6914698E-03
   7098.00  5.8421522E-03
   7098.33  6.0014844E-03
   7098.67  6.1691799E-03
   7099.00  6.3458813E-03
   7099.33  6.5336543E-03
   7099.67  6.7322106E-03
   7100.00  6.9424549E-03
   7100.33  7.1671847E-03
   7100.67  7.4061431E-03
   7101.00  7.6606434E-03
   7101.33  7.9345886E-03
   7101.67  8.2278276E-03
   7102.00  8.5423341E-03
   7102.33  8.8837523E-03
   7102.67  9.2521970E-03
   7103.00  9.6507627E-03
   7103.33  1.0087970E-02
   7103.67  1.0564558E-02
   7104.00  1.1085634E-02
   7104.33  1.1664758E-02
   7104.67  1.2304140E-02
   7105.00  1.3012757E-02
   7105.33  1.3813683E-02
   7105.67  1.4712718E-02
   7106.00  1.5726998E-02
   7106.33  1.6899350E-02
   7106.67  1.8245096E-02
   7107.00  1.9800734E-02
   7107.33  2.1655825E-02
   7107.67  2.3854467E-02
   7108.00  2.6487566E-02
   7108.33  2.9778288E-02
   7108.67  3.3878199E-02
   7109.00  3.9076605E-02
   7109.33  4.6113911E-02
   7109.67  5.5714995E-02
   7110.00  6.9273965E-02
   7110.33  9.0637926E-02
   7110.67  1.2358960E-01
   7111.00  1.7013007E-01
   7111.33  2.3190831E-01
   7111.67  3.1901986E-01
   7112.00  4.3710911E-01
   7112.33  5.7551133E-01
   7112.67  6.9437191E-01
   7113.00  7.2513532E-01
   7113.33  6.2410936E-01
   7113.67  4.9070936E-01
   7114.00  3.8150610E-01
   7114.33  3.0874349E-01
   7114.67  2.5961237E-01
   7115.00  2.2788711E-01
   7115.33  2.1059969E-01
   7115.67  2.0309852E-01
   7116.00  2.0201960E-01
   7116.33  2.0119375E-01
   7116.67  1.9591687E-01
   7117.00  1.8644134E-01
   7117.33  1.7543734E-01
   7117.67  1.6526631E-01
   7118.00  1.5639435E-01
   7118.33  1.4873316E-01
   7118.67  1.4205359E-01
   7119.00  1.3645401E-01
   7119.33  1.3224299E-01
   7119.67  1.2925716E-01
   7120.00  1.2723531E-01
   7120.33  1.2582729E-01
   7120.67  1.2483062E-01
   7121.00  1.2437383E-01
   7121.33  1.2463962E-01
   7121.67  1.2566898E-01
   7122.00  1.2766274E-01
   7122.33  1.3096316E-01
   7122.67  1.3550998E-01
   7123.00  1.4129321E-01
   7123.33  1.4837110E-01
   7123.67  1.5652172E-01
   7124.00  1.6581188E-01
   7124.33  1.7675379E-01
   7124.67  1.8968673E-01
   7125.00  2.0508211E-01
   7125.33  2.2368747E-01
   7125.67  2.4506938E-01
   7126.00  2.6852300E-01
   7126.33  2.9269516E-01
   7126.67  3.1625871E-01
   7127.00  3.3905974E-01
   7127.33  3.6226710E-01
   7127.67  3.8746671E-01
   7128.00  4.1547023E-01
   7128.33  4.4705300E-01
   7128.67  4.8288049E-01
   7129.00  5.2415079E-01
   7129.33  5.7112190E-01
   7129.67  6.2020642E-01
   7130.00  6.6832466E-01
   7130.33  7.1346568E-01
   7130.67  7.5688259E-01
   7131.00  8.0034484E-01
   7131.33  8.4587121E-01
   7131.67  8.9406133E-01
   7132.00  9.4453025E-01
   7132.33  9.9494871E-01
   7132.67  1.0404266E+00
   7133.00  1.0750003E+00
   7133.33  1.0894526E+00
   7133.67  1.0820790E+00
   7134.00  1.0535073E+00
   7134.33  1.0064207E+00
   7134.67  9.4944404E-01
   7135.00  8.8779815E-01
   7135.33  8.2598504E-01
   7135.67  7.6683787E-01
   7136.00  7.1175987E-01
   7136.33  6.6230370E-01
   7136.67  6.1836988E-01
   7137.00  5.8025626E-01
   7137.33  5.4895743E-01
   7137.67  5.2380962E-01
   7138.00  5.0470858E-01
   7138.33  4.9191847E-01
   7138.67  4.8392934E-01
   7139.00  4.7982294E-01
   7139.33  4.7882178E-01
   7139.67  4.7964286E-01
   7140.00  4.8174620E-01
   7140.33  4.8493286E-01
   7140.67  4.8899856E-01
   7141.00  4.9396129E-01
   7141.33  4.9996826E-01
   7141.67  5.0688717E-01
   7142.00  5.1464427E-01
   7142.33  5.2316486E-01
   7142.67  5.3213335E-01
   7143.00  5.4130658E-01
   7143.33  5.5035402E-01
   7143.67  5.5896034E-01
   7144.00  5.6685271E-01
   7144.33  5.7362602E-01
   7144.67  5.7918887E-01
   7145.00  5.8342502E-01
   7145.33  5.8612221E-01
   7145.67  5.8751048E-01
   7146.00  5.8770124E-01
   7146.33  5.8674040E-01
   7146.67  5.8496590E-01
   7147.00  5.8257233E-01
   7147.33  5.7973213E-01
   7147.67  5.7669565E-01
   7148.00  5.7360967E-01
   7148.33  5.7062276E-01
   7148.67  5.6782789E-01
   7149.00  5.6529381E-01
   7149.33  5.6311835E-01
   7149.67  5.6129507E-01
   7150.00  5.5984023E-01
   7150.33  5.5880987E-01
   7150.67  5.5815358E-01
   7151.00  5.5785809E-01
   7151.33  5.5793718E-01
   7151.67  5.5830982E-01
   7152.00  5.5893543E-01
   7152.33  5.5978913E-01
   7152.67  5.6079772E-01
   7153.00  5.6192627E-01
   7153.33  5.6315667E-01
   7153.67  5.6446094E-01
   7154.00  5.6583294E-01
   7154.33  5.6728064E-01
   7154.67  5.6879707E-01
   7155.00  5.7037959E-01
   7155.33  5.7202213E-01
   7155.67  5.7369255E-01
   7156.00  5.7535912E-01
   7156.33  5.7696913E-01
   7156.67  5.7847526E-01
   7157.00  5.7982853E-01
   7157.33  5.8094573E-01
   7157.67  5.8179947E-01
   7158.00  5.8234831E-01
   7158.33  5.8250846E-01
   7158.67  5.8229244E-01
   7159.00  5.8168176E-01
   7159.33  5.8061296E-01
   7159.67  5.7913241E-01
   7160.00  5.7723912E-01
   7160.33  5.7488019E-01
   7160.67  5.7210887E-01
   7161.00  5.6892930E-01
   7161.33  5.6528832E-01
   7161.67  5.6122950E-01
   7162.00  5.5675493E-01
   7162.33  5.5182526E-01
   7162.67  5.4651143E-01
   7163.00  5.4084056E-01
   7163.33  5.3481736E-01
   7163.67  5.2853732E-01
   7164.00  5.2205643E-01
   7164.33  5.1542688E-01
   7164.67  5.0873311E-01
   7165.00  5.0202927E-01
   7165.33  4.9537328E-01
   7165.67  4.8879910E-01
   7166.00  4.8233009E-01
   7166.33  4.7599636E-01
   7166.67  4.6978724E-01
   7167.00  4.6370270E-01
   7167.33  4.5775843E-01
   7167.67  4.5194276E-01
   7168.00  4.4626629E-01
   7168.33  4.4077084E-01
   7168.67  4.3546319E-01
   7169.00  4.3036895E-01
   7169.33  4.2555059E-01
   7169.67  4.2101034E-01
   7170.00  4.1677587E-01
   7170.33  4.1291769E-01
   7170.67  4.0941828E-01
   7171.00  4.0629662E-01
   7171.33  4.0362706E-01
   7171.67  4.0139382E-01
   7172.00  3.9963428E-01
