    FDMNES
    energy     <xanes>
   7097.00  5.0606684E-03
   7097.33  5.1871092E-03
   7097.67  5.3195302E-03
   7098.00  5.4583525E-03
   7098.33  5.6049883E-03
   7098.67  5.7591784E-03
   7099.00  5.9215042E-03
   7099.33  6.0938352E-03
   7099.67  6.2759170E-03
   7100.00  6.4685757E-03
   7100.33  6.6743587E-03
   7100.67  6.8930540E-03
   7101.00  7.1258773E-03
   7101.33  7.3764203E-03
   7101.67  7.6445979E-03
   7102.00  7.9322740E-03
   7102.33  8.2447281E-03
   7102.67  8.5821915E-03
   7103.00  8.9476680E-03
   7103.33  9.3493272E-03
   7103.67  9.7881571E-03
   7104.00  1.0269308E-02
   7104.33  1.0806266E-02
   7104.67  1.1401866E-02
   7105.00  1.2065662E-02
   7105.33  1.2821850E-02
   7105.67  1.3678078E-02
   7106.00  1.4653981E-02
   7106.33  1.5798094E-02
   7106.67  1.7132027E-02
   7107.00  1.8702229E-02
   7107.33  2.0622448E-02
   7107.67  2.2962277E-02
   7108.00  2.5856321E-02
   7108.33  2.9640522E-02
   7108.67  3.4599199E-02
   7109.00  4.1266296E-02
   7109.33  5.1075588E-02
   7109.67  6.5764188E-02
   7110.00  8.8767612E-02
   7110.33  1.3002827E-01
   7110.67  1.9900558E-01
   7111.00  2.9036712E-01
   7111.33  3.5226391E-01
   7111.67  3.6518331E-01
   7112.00  3.4802618E-01
   7112.33  3.1895166E-01
   7112.67  2.8704663E-01
   7113.00  2.5960272E-01
   7113.33  2.4438611E-01
   7113.67  2.3726380E-01
   7114.00  2.3060587E-01
   7114.33  2.1711608E-01
   7114.67  1.9791284E-01
   7115.00  1.7683664E-01
   7115.33  1.5875409E-01
   7115.67  1.4550746E-01
   7116.00  1.3719656E-01
   7116.33  1.3370762E-01
   7116.67  1.3380443E-01
   7117.00  1.3698103E-01
   7117.33  1.4297186E-01
   7117.67  1.5091526E-01
   7118.00  1.6032928E-01
   7118.33  1.7022435E-01
   7118.67  1.7916017E-01
   7119.00  1.8656630E-01
   7119.33  1.9318838E-01
   7119.67  2.0137296E-01
   7120.00  2.1319962E-01
   7120.33  2.3051631E-01
   7120.67  2.5208384E-01
   7121.00  2.7622487E-01
   7121.33  3.0193017E-01
   7121.67  3.3012388E-01
   7122.00  3.6168541E-01
   7122.33  3.9525896E-01
   7122.67  4.2699387E-01
   7123.00  4.5388459E-01
   7123.33  4.7402140E-01
   7123.67  4.9026042E-01
   7124.00  5.0536407E-01
   7124.33  5.2070111E-01
   7124.67  5.3550670E-01
   7125.00  5.4937593E-01
   7125.33  5.6278384E-01
   7125.67  5.7607659E-01
   7126.00  5.8856168E-01
   7126.33  5.9832961E-01
   7126.67  6.0418598E-01
   7127.00  6.0551154E-01
   7127.33  6.0221760E-01
   7127.67  5.9614427E-01
   7128.00  5.8868129E-01
   7128.33  5.8131393E-01
   7128.67  5.7490771E-01
   7129.00  5.6946283E-01
   7129.33  5.6428610E-01
   7129.67  5.5851103E-01
   7130.00  5.5178800E-01
   7130.33  5.4405737E-01
   7130.67  5.3574069E-01
   7131.00  5.2723421E-01
   7131.33  5.1923659E-01
   7131.67  5.1242190E-01
   7132.00  5.0729470E-01
   7132.33  5.0437416E-01
   7132.67  5.0337643E-01
   7133.00  5.0407107E-01
   7133.33  5.0592519E-01
   7133.67  5.0755486E-01
   7134.00  5.0779482E-01
   7134.33  5.0591457E-01
   7134.67  5.0283842E-01
   7135.00  4.9959099E-01
   7135.33  4.9732104E-01
   7135.67  4.9659852E-01
   7136.00  4.9776963E-01
   7136.33  5.0133439E-01
   7136.67  5.0715128E-01
   7137.00  5.1526999E-01
   7137.33  5.2597963E-01
   7137.67  5.3891347E-01
   7138.00  5.5391139E-01
   7138.33  5.7086414E-01
   7138.67  5.8905616E-01
   7139.00  6.0791680E-01
   7139.33  6.2661265E-01
   7139.67  6.4421375E-01
   7140.00  6.5981340E-01
   7140.33  6.7205180E-01
   7140.67  6.8061878E-01
   7141.00  6.8521418E-01
   7141.33  6.8536864E-01
   7141.67  6.8198943E-01
   7142.00  6.7566365E-01
   7142.33  6.6692397E-01
   7142.67  6.5680714E-01
   7143.00  6.4586002E-01
   7143.33  6.3450770E-01
   7143.67  6.2310784E-01
   7144.00  6.1184595E-01
   7144.33  6.0093627E-01
   7144.67  5.9051031E-01
   7145.00  5.8072132E-01
   7145.33  5.7184367E-01
   7145.67  5.6391810E-01
   7146.00  5.5702338E-01
   7146.33  5.5132398E-01
   7146.67  5.4666323E-01
   7147.00  5.4299847E-01
   7147.33  5.4039936E-01
   7147.67  5.3870724E-01
   7148.00  5.3789786E-01
   7148.33  5.3806003E-01
   7148.67  5.3906204E-01
   7149.00  5.4086383E-01
   7149.33  5.4346452E-01
   7149.67  5.4662318E-01
   7150.00  5.5015528E-01
   7150.33  5.5380960E-01
   7150.67  5.5728656E-01
   7151.00  5.6035675E-01
   7151.33  5.6273032E-01
   7151.67  5.6435226E-01
   7152.00  5.6517265E-01
   7152.33  5.6508881E-01
   7152.67  5.6423309E-01
   7153.00  5.6264173E-01
   7153.33  5.6026604E-01
   7153.67  5.5722135E-01
   7154.00  5.5352319E-01
   7154.33  5.4910271E-01
   7154.67  5.4405053E-01
   7155.00  5.3837989E-01
   7155.33  5.3204316E-01
   7155.67  5.2515882E-01
   7156.00  5.1778385E-01
   7156.33  5.0995708E-01
   7156.67  5.0183772E-01
   7157.00  4.9352783E-01
   7157.33  4.8513460E-01
   7157.67  4.7676823E-01
   7158.00  4.6849667E-01
   7158.33  4.6038943E-01
   7158.67  4.5244519E-01
   7159.00  4.4465472E-01
   7159.33  4.3699761E-01
   7159.67  4.2940874E-01
   7160.00  4.2184515E-01
   7160.33  4.1426647E-01
   7160.67  4.0665887E-01
   7161.00  3.9903449E-01
   7161.33  3.9143820E-01
   7161.67  3.8393073E-01
   7162.00  3.7657861E-01
   7162.33  3.6949480E-01
   7162.67  3.6273116E-01
   7163.00  3.5635118E-01
   7163.33  3.5047111E-01
   7163.67  3.4507987E-01
   7164.00  3.4020208E-01
   7164.33  3.3591485E-01
   7164.67  3.3214514E-01
   7165.00  3.2887335E-01
   7165.33  3.2612358E-01
   7165.67  3.2379745E-01
   7166.00  3.2185919E-01
   7166.33  3.2031304E-01
   7166.67  3.1908172E-01
   7167.00  3.1814269E-01
   7167.33  3.1751237E-01
   7167.67  3.1714714E-01
   7168.00  3.1704483E-01
   7168.33  3.1724091E-01
   7168.67  3.1770731E-01
   7169.00  3.1844881E-01
   7169.33  3.1950437E-01
   7169.67  3.2083892E-01
   7170.00  3.2244650E-01
   7170.33  3.2434180E-01
   7170.67  3.2645867E-01
   7171.00  3.2874660E-01
   7171.33  3.3111199E-01
   7171.67  3.3336069E-01
   7172.00  3.3524975E-01
