    FDMNES
    energy     <xanes>
   7097.00  5.3655141E-03
   7097.33  5.5000232E-03
   7097.67  5.6409546E-03
   7098.00  5.7887573E-03
   7098.33  5.9449415E-03
   7098.67  6.1092215E-03
   7099.00  6.2822115E-03
   7099.33  6.4658979E-03
   7099.67  6.6599904E-03
   7100.00  6.8653506E-03
   7100.33  7.0846582E-03
   7100.67  7.3176486E-03
   7101.00  7.5655670E-03
   7101.33  7.8321367E-03
   7101.67  8.1171853E-03
   7102.00  8.4225769E-03
   7102.33  8.7536691E-03
   7102.67  9.1105292E-03
   7103.00  9.4960651E-03
   7103.33  9.9183224E-03
   7103.67  1.0377936E-02
   7104.00  1.0879679E-02
   7104.33  1.1436286E-02
   7104.67  1.2049730E-02
   7105.00  1.2728365E-02
   7105.33  1.3493733E-02
   7105.67  1.4351093E-02
   7106.00  1.5316325E-02
   7106.33  1.6429225E-02
   7106.67  1.7703813E-02
   7107.00  1.9173864E-02
   7107.33  2.0922451E-02
   7107.67  2.2990418E-02
   7108.00  2.5462371E-02
   7108.33  2.8546786E-02
   7108.67  3.2387510E-02
   7109.00  3.7260380E-02
   7109.33  4.3878496E-02
   7109.67  5.2967452E-02
   7110.00  6.5937708E-02
   7110.33  8.6718036E-02
   7110.67  1.1891402E-01
   7111.00  1.6228627E-01
   7111.33  2.0984396E-01
   7111.67  2.7009277E-01
   7112.00  3.5283844E-01
   7112.33  4.5626174E-01
   7112.67  5.7158749E-01
   7113.00  6.7301957E-01
   7113.33  6.7746400E-01
   7113.67  5.8562717E-01
   7114.00  4.6470045E-01
   7114.33  3.7071467E-01
   7114.67  3.0694759E-01
   7115.00  2.6687885E-01
   7115.33  2.4562716E-01
   7115.67  2.3633095E-01
   7116.00  2.3428454E-01
   7116.33  2.3047586E-01
   7116.67  2.1796267E-01
   7117.00  1.9850918E-01
   7117.33  1.7903642E-01
   7117.67  1.6349344E-01
   7118.00  1.5225245E-01
   7118.33  1.4506931E-01
   7118.67  1.4085939E-01
   7119.00  1.3910414E-01
   7119.33  1.3896911E-01
   7119.67  1.3916282E-01
   7120.00  1.3901821E-01
   7120.33  1.3763986E-01
   7120.67  1.3490033E-01
   7121.00  1.3166464E-01
   7121.33  1.2939313E-01
   7121.67  1.2845273E-01
   7122.00  1.2876728E-01
   7122.33  1.3036411E-01
   7122.67  1.3303222E-01
   7123.00  1.3674153E-01
   7123.33  1.4163501E-01
   7123.67  1.4766252E-01
   7124.00  1.5496792E-01
   7124.33  1.6402759E-01
   7124.67  1.7506248E-01
   7125.00  1.8851677E-01
   7125.33  2.0529611E-01
   7125.67  2.2537824E-01
   7126.00  2.4870120E-01
   7126.33  2.7519506E-01
   7126.67  3.0406528E-01
   7127.00  3.3509236E-01
   7127.33  3.6805536E-01
   7127.67  4.0145929E-01
   7128.00  4.3407783E-01
   7128.33  4.6595602E-01
   7128.67  4.9909121E-01
   7129.00  5.3507669E-01
   7129.33  5.7437122E-01
   7129.67  6.1473258E-01
   7130.00  6.5396102E-01
   7130.33  6.8977945E-01
   7130.67  7.2202477E-01
   7131.00  7.5134168E-01
   7131.33  7.7931529E-01
   7131.67  8.0829723E-01
   7132.00  8.3997503E-01
   7132.33  8.7587697E-01
   7132.67  9.1503991E-01
   7133.00  9.5549860E-01
   7133.33  9.9278411E-01
   7133.67  1.0216427E+00
   7134.00  1.0369572E+00
   7134.33  1.0319528E+00
   7134.67  1.0078297E+00
   7135.00  9.6693209E-01
   7135.33  9.1305875E-01
   7135.67  8.5347945E-01
   7136.00  7.9244215E-01
   7136.33  7.3379942E-01
   7136.67  6.7954675E-01
   7137.00  6.3084131E-01
   7137.33  5.8922660E-01
   7137.67  5.5428057E-01
   7138.00  5.2613106E-01
   7138.33  5.0561484E-01
   7138.67  4.9168240E-01
   7139.00  4.8395124E-01
   7139.33  4.8231690E-01
   7139.67  4.8492179E-01
   7140.00  4.9050234E-01
   7140.33  4.9770525E-01
   7140.67  5.0507079E-01
   7141.00  5.1189959E-01
   7141.33  5.1779992E-01
   7141.67  5.2303837E-01
   7142.00  5.2794775E-01
   7142.33  5.3293847E-01
   7142.67  5.3825543E-01
   7143.00  5.4392972E-01
   7143.33  5.4979686E-01
   7143.67  5.5547132E-01
   7144.00  5.6057773E-01
   7144.33  5.6459044E-01
   7144.67  5.6735096E-01
   7145.00  5.6875594E-01
   7145.33  5.6867866E-01
   7145.67  5.6745571E-01
   7146.00  5.6530076E-01
   7146.33  5.6241081E-01
   7146.67  5.5914011E-01
   7147.00  5.5569793E-01
   7147.33  5.5229110E-01
   7147.67  5.4906566E-01
   7148.00  5.4610339E-01
   7148.33  5.4350080E-01
   7148.67  5.4125399E-01
   7149.00  5.3937806E-01
   7149.33  5.3791596E-01
   7149.67  5.3680429E-01
   7150.00  5.3602291E-01
   7150.33  5.3558339E-01
   7150.67  5.3542157E-01
   7151.00  5.3551851E-01
   7151.33  5.3589108E-01
   7151.67  5.3650782E-01
   7152.00  5.3737982E-01
   7152.33  5.3856896E-01
   7152.67  5.4007824E-01
   7153.00  5.4194441E-01
   7153.33  5.4425592E-01
   7153.67  5.4698834E-01
   7154.00  5.5014466E-01
   7154.33  5.5375045E-01
   7154.67  5.5769802E-01
   7155.00  5.6191157E-01
   7155.33  5.6629545E-01
   7155.67  5.7069499E-01
   7156.00  5.7498276E-01
   7156.33  5.7897563E-01
   7156.67  5.8257022E-01
   7157.00  5.8567101E-01
   7157.33  5.8812679E-01
   7157.67  5.8996618E-01
   7158.00  5.9117928E-01
   7158.33  5.9170261E-01
   7158.67  5.9164581E-01
   7159.00  5.9104728E-01
   7159.33  5.8989574E-01
   7159.67  5.8830351E-01
   7160.00  5.8631172E-01
   7160.33  5.8391755E-01
   7160.67  5.8120174E-01
   7161.00  5.7819108E-01
   7161.33  5.7487094E-01
   7161.67  5.7128519E-01
   7162.00  5.6744161E-01
   7162.33  5.6331245E-01
   7162.67  5.5892503E-01
   7163.00  5.5426976E-01
   7163.33  5.4929459E-01
   7163.67  5.4401595E-01
   7164.00  5.3841823E-01
   7164.33  5.3244319E-01
   7164.67  5.2612385E-01
   7165.00  5.1946477E-01
   7165.33  5.1244896E-01
   7165.67  5.0515896E-01
   7166.00  4.9764905E-01
   7166.33  4.8998251E-01
   7166.67  4.8226822E-01
   7167.00  4.7458890E-01
   7167.33  4.6705750E-01
   7167.67  4.5974791E-01
   7168.00  4.5272921E-01
   7168.33  4.4611639E-01
   7168.67  4.3992049E-01
   7169.00  4.3417248E-01
   7169.33  4.2894700E-01
   7169.67  4.2418988E-01
   7170.00  4.1989834E-01
   7170.33  4.1612069E-01
   7170.67  4.1278703E-01
   7171.00  4.0988599E-01
   7171.33  4.0746099E-01
   7171.67  4.0545956E-01
   7172.00  4.0388890E-01
