    FDMNES
    energy     <xanes>
   7097.00  4.5323777E-03
   7097.33  4.6358569E-03
   7097.67  4.7441431E-03
   7098.00  4.8575827E-03
   7098.33  4.9773251E-03
   7098.67  5.1031746E-03
   7099.00  5.2356141E-03
   7099.33  5.3761787E-03
   7099.67  5.5246835E-03
   7100.00  5.6818227E-03
   7100.33  5.8497095E-03
   7100.67  6.0282056E-03
   7101.00  6.2183448E-03
   7101.33  6.4231418E-03
   7101.67  6.6425837E-03
   7102.00  6.8782755E-03
   7102.33  7.1347063E-03
   7102.67  7.4121638E-03
   7103.00  7.7132673E-03
   7103.33  8.0450593E-03
   7103.67  8.4085332E-03
   7104.00  8.8082337E-03
   7104.33  9.2559469E-03
   7104.67  9.7543702E-03
   7105.00  1.0312019E-02
   7105.33  1.0950306E-02
   7105.67  1.1676322E-02
   7106.00  1.2507691E-02
   7106.33  1.3487745E-02
   7106.67  1.4636176E-02
   7107.00  1.5994688E-02
   7107.33  1.7664989E-02
   7107.67  1.9709247E-02
   7108.00  2.2246944E-02
   7108.33  2.5574595E-02
   7108.67  2.9938107E-02
   7109.00  3.5796257E-02
   7109.33  4.4366027E-02
   7109.67  5.7069722E-02
   7110.00  7.6692146E-02
   7110.33  1.1128737E-01
   7110.67  1.6964814E-01
   7111.00  2.5475127E-01
   7111.33  3.4544351E-01
   7111.67  4.0615880E-01
   7112.00  4.0503607E-01
   7112.33  3.4027629E-01
   7112.67  2.6302749E-01
   7113.00  1.9901397E-01
   7113.33  1.5527805E-01
   7113.67  1.2452687E-01
   7114.00  1.0265288E-01
   7114.33  8.7833934E-02
   7114.67  7.7717572E-02
   7115.00  7.0897573E-02
   7115.33  6.6600044E-02
   7115.67  6.4002479E-02
   7116.00  6.2747083E-02
   7116.33  6.2645902E-02
   7116.67  6.3351854E-02
   7117.00  6.4733349E-02
   7117.33  6.6633487E-02
   7117.67  6.8665595E-02
   7118.00  7.0610535E-02
   7118.33  7.2405520E-02
   7118.67  7.4118925E-02
   7119.00  7.5909215E-02
   7119.33  7.8159373E-02
   7119.67  8.1150040E-02
   7120.00  8.5109625E-02
   7120.33  9.0426096E-02
   7120.67  9.7209972E-02
   7121.00  1.0573539E-01
   7121.33  1.1664950E-01
   7121.67  1.3011200E-01
   7122.00  1.4650168E-01
   7122.33  1.6668896E-01
   7122.67  1.9067714E-01
   7123.00  2.1871133E-01
   7123.33  2.5119718E-01
   7123.67  2.8688439E-01
   7124.00  3.2438597E-01
   7124.33  3.6088365E-01
   7124.67  3.9283672E-01
   7125.00  4.1744635E-01
   7125.33  4.3230676E-01
   7125.67  4.3935474E-01
   7126.00  4.4020098E-01
   7126.33  4.3604014E-01
   7126.67  4.2857585E-01
   7127.00  4.1854628E-01
   7127.33  4.0682751E-01
   7127.67  3.9487213E-01
   7128.00  3.8364640E-01
   7128.33  3.7414192E-01
   7128.67  3.6666662E-01
   7129.00  3.6148057E-01
   7129.33  3.5898709E-01
   7129.67  3.5875179E-01
   7130.00  3.6054058E-01
   7130.33  3.6437332E-01
   7130.67  3.7002791E-01
   7131.00  3.7767679E-01
   7131.33  3.8797179E-01
   7131.67  4.0114112E-01
   7132.00  4.1772824E-01
   7132.33  4.3876697E-01
   7132.67  4.6377617E-01
   7133.00  4.9191891E-01
   7133.33  5.2100891E-01
   7133.67  5.4773111E-01
   7134.00  5.6966671E-01
   7134.33  5.8499145E-01
   7134.67  5.9537019E-01
   7135.00  6.0240625E-01
   7135.33  6.0760482E-01
   7135.67  6.1220763E-01
   7136.00  6.1658718E-01
   7136.33  6.2084335E-01
   7136.67  6.2506308E-01
   7137.00  6.2941759E-01
   7137.33  6.3432370E-01
   7137.67  6.4015320E-01
   7138.00  6.4722217E-01
   7138.33  6.5589124E-01
   7138.67  6.6589975E-01
   7139.00  6.7695775E-01
   7139.33  6.8858822E-01
   7139.67  7.0008057E-01
   7140.00  7.1090803E-01
   7140.33  7.2047369E-01
   7140.67  7.2869828E-01
   7141.00  7.3557849E-01
   7141.33  7.4110979E-01
   7141.67  7.4565431E-01
   7142.00  7.4938327E-01
   7142.33  7.5235482E-01
   7142.67  7.5472288E-01
   7143.00  7.5650090E-01
   7143.33  7.5758678E-01
   7143.67  7.5799532E-01
   7144.00  7.5768312E-01
   7144.33  7.5657016E-01
   7144.67  7.5482690E-01
   7145.00  7.5257209E-01
   7145.33  7.4993838E-01
   7145.67  7.4715869E-01
   7146.00  7.4439335E-01
   7146.33  7.4182797E-01
   7146.67  7.3955831E-01
   7147.00  7.3766025E-01
   7147.33  7.3625795E-01
   7147.67  7.3533171E-01
   7148.00  7.3488539E-01
   7148.33  7.3495848E-01
   7148.67  7.3545894E-01
   7149.00  7.3634530E-01
   7149.33  7.3759523E-01
   7149.67  7.3908974E-01
   7150.00  7.4074393E-01
   7150.33  7.4243403E-01
   7150.67  7.4398946E-01
   7151.00  7.4523383E-01
   7151.33  7.4586147E-01
   7151.67  7.4568868E-01
   7152.00  7.4450774E-01
   7152.33  7.4196103E-01
   7152.67  7.3805779E-01
   7153.00  7.3274071E-01
   7153.33  7.2585060E-01
   7153.67  7.1766034E-01
   7154.00  7.0830367E-01
   7154.33  6.9785076E-01
   7154.67  6.8663276E-01
   7155.00  6.7482770E-01
   7155.33  6.6257850E-01
   7155.67  6.5010316E-01
   7156.00  6.3752485E-01
   7156.33  6.2496203E-01
   7156.67  6.1250340E-01
   7157.00  6.0020893E-01
   7157.33  5.8815665E-01
   7157.67  5.7635286E-01
   7158.00  5.6481326E-01
   7158.33  5.5357674E-01
   7158.67  5.4260279E-01
   7159.00  5.3187733E-01
   7159.33  5.2140651E-01
   7159.67  5.1113696E-01
   7160.00  5.0104998E-01
   7160.33  4.9114956E-01
   7160.67  4.8140596E-01
   7161.00  4.7182338E-01
   7161.33  4.6244696E-01
   7161.67  4.5329692E-01
   7162.00  4.4442653E-01
   7162.33  4.3595657E-01
   7162.67  4.2792757E-01
   7163.00  4.2041336E-01
   7163.33  4.1356635E-01
   7163.67  4.0737453E-01
   7164.00  4.0187388E-01
   7164.33  3.9717248E-01
   7164.67  3.9317780E-01
   7165.00  3.8986847E-01
   7165.33  3.8727921E-01
   7165.67  3.8527947E-01
   7166.00  3.8382767E-01
   7166.33  3.8293777E-01
   7166.67  3.8250069E-01
   7167.00  3.8247932E-01
   7167.33  3.8288132E-01
   7167.67  3.8362353E-01
   7168.00  3.8467661E-01
   7168.33  3.8604259E-01
   7168.67  3.8765492E-01
   7169.00  3.8948646E-01
   7169.33  3.9152879E-01
   7169.67  3.9372561E-01
   7170.00  3.9604670E-01
   7170.33  3.9846382E-01
   7170.67  4.0092099E-01
   7171.00  4.0336940E-01
   7171.33  4.0571592E-01
   7171.67  4.0783664E-01
   7172.00  4.0956180E-01
