    FDMNES
    energy     <xanes>
   7097.00  4.3390094E-03
   7097.33  4.4298728E-03
   7097.67  4.5244414E-03
   7098.00  4.6229520E-03
   7098.33  4.7262394E-03
   7098.67  4.8341115E-03
   7099.00  4.9468896E-03
   7099.33  5.0656562E-03
   7099.67  5.1902146E-03
   7100.00  5.3210145E-03
   7100.33  5.4594991E-03
   7100.67  5.6054856E-03
   7101.00  5.7596247E-03
   7101.33  5.9239081E-03
   7101.67  6.0982064E-03
   7102.00  6.2835019E-03
   7102.33  6.4826587E-03
   7102.67  6.6956920E-03
   7103.00  6.9241590E-03
   7103.33  7.1723953E-03
   7103.67  7.4407707E-03
   7104.00  7.7319094E-03
   7104.33  8.0528075E-03
   7104.67  8.4047046E-03
   7105.00  8.7923756E-03
   7105.33  9.2280709E-03
   7105.67  9.7152745E-03
   7106.00  1.0263577E-02
   7106.33  1.0896868E-02
   7106.67  1.1625005E-02
   7107.00  1.2469996E-02
   7107.33  1.3485840E-02
   7107.67  1.4703521E-02
   7108.00  1.6184040E-02
   7108.33  1.8078743E-02
   7108.67  2.0507769E-02
   7109.00  2.3696712E-02
   7109.33  2.8240007E-02
   7109.67  3.4810222E-02
   7110.00  4.4722046E-02
   7110.33  6.1804316E-02
   7110.67  9.0755610E-02
   7111.00  1.3537863E-01
   7111.33  1.8455221E-01
   7111.67  2.0966784E-01
   7112.00  2.0780978E-01
   7112.33  2.0238304E-01
   7112.67  1.9514404E-01
   7113.00  1.7558370E-01
   7113.33  1.4913381E-01
   7113.67  1.2772401E-01
   7114.00  1.1260550E-01
   7114.33  9.8730212E-02
   7114.67  8.4492942E-02
   7115.00  7.3486776E-02
   7115.33  6.7324503E-02
   7115.67  6.3627320E-02
   7116.00  6.0879795E-02
   7116.33  5.9036572E-02
   7116.67  5.8593685E-02
   7117.00  5.9668431E-02
   7117.33  6.2255957E-02
   7117.67  6.5903805E-02
   7118.00  7.0314656E-02
   7118.33  7.5366972E-02
   7118.67  8.1169710E-02
   7119.00  8.8070062E-02
   7119.33  9.6683698E-02
   7119.67  1.0715449E-01
   7120.00  1.1969619E-01
   7120.33  1.3482047E-01
   7120.67  1.5242364E-01
   7121.00  1.7259900E-01
   7121.33  1.9568560E-01
   7121.67  2.2123479E-01
   7122.00  2.4896269E-01
   7122.33  2.7842925E-01
   7122.67  3.0850363E-01
   7123.00  3.3828424E-01
   7123.33  3.6620558E-01
   7123.67  3.9042075E-01
   7124.00  4.1017499E-01
   7124.33  4.2737647E-01
   7124.67  4.4399392E-01
   7125.00  4.5912920E-01
   7125.33  4.7051070E-01
   7125.67  4.7749902E-01
   7126.00  4.7991052E-01
   7126.33  4.7914095E-01
   7126.67  4.7886258E-01
   7127.00  4.8071249E-01
   7127.33  4.8512152E-01
   7127.67  4.9131273E-01
   7128.00  4.9859905E-01
   7128.33  5.0602768E-01
   7128.67  5.1306538E-01
   7129.00  5.1970660E-01
   7129.33  5.2599635E-01
   7129.67  5.3185320E-01
   7130.00  5.3685915E-01
   7130.33  5.4029752E-01
   7130.67  5.4261588E-01
   7131.00  5.4514239E-01
   7131.33  5.5065604E-01
   7131.67  5.6129150E-01
   7132.00  5.7843935E-01
   7132.33  6.0305369E-01
   7132.67  6.3257923E-01
   7133.00  6.6433821E-01
   7133.33  6.9463579E-01
   7133.67  7.2089791E-01
   7134.00  7.4200251E-01
   7134.33  7.5739735E-01
   7134.67  7.6901556E-01
   7135.00  7.7837092E-01
   7135.33  7.8568330E-01
   7135.67  7.8964203E-01
   7136.00  7.8888442E-01
   7136.33  7.8271096E-01
   7136.67  7.7289574E-01
   7137.00  7.6069298E-01
   7137.33  7.4710044E-01
   7137.67  7.3297075E-01
   7138.00  7.1865642E-01
   7138.33  7.0446244E-01
   7138.67  6.9063532E-01
   7139.00  6.7739337E-01
   7139.33  6.6506836E-01
   7139.67  6.5373528E-01
   7140.00  6.4349090E-01
   7140.33  6.3452322E-01
   7140.67  6.2667482E-01
   7141.00  6.1989553E-01
   7141.33  6.1422236E-01
   7141.67  6.0943334E-01
   7142.00  6.0544410E-01
   7142.33  6.0225470E-01
   7142.67  5.9970344E-01
   7143.00  5.9774271E-01
   7143.33  5.9640084E-01
   7143.67  5.9557608E-01
   7144.00  5.9524388E-01
   7144.33  5.9544982E-01
   7144.67  5.9613775E-01
   7145.00  5.9732079E-01
   7145.33  5.9908247E-01
   7145.67  6.0137227E-01
   7146.00  6.0418876E-01
   7146.33  6.0756654E-01
   7146.67  6.1137563E-01
   7147.00  6.1551398E-01
   7147.33  6.1981896E-01
   7147.67  6.2404399E-01
   7148.00  6.2796976E-01
   7148.33  6.3125486E-01
   7148.67  6.3371112E-01
   7149.00  6.3514939E-01
   7149.33  6.3526641E-01
   7149.67  6.3413627E-01
   7150.00  6.3177087E-01
   7150.33  6.2811770E-01
   7150.67  6.2346512E-01
   7151.00  6.1796148E-01
   7151.33  6.1169006E-01
   7151.67  6.0487663E-01
   7152.00  5.9760929E-01
   7152.33  5.8990498E-01
   7152.67  5.8184731E-01
   7153.00  5.7345012E-01
   7153.33  5.6467501E-01
   7153.67  5.5556297E-01
   7154.00  5.4611604E-01
   7154.33  5.3630400E-01
   7154.67  5.2619427E-01
   7155.00  5.1583033E-01
   7155.33  5.0525333E-01
   7155.67  4.9455580E-01
   7156.00  4.8380076E-01
   7156.33  4.7306686E-01
   7156.67  4.6242762E-01
   7157.00  4.5194577E-01
   7157.33  4.4171709E-01
   7157.67  4.3177504E-01
   7158.00  4.2216892E-01
   7158.33  4.1300140E-01
   7158.67  4.0427544E-01
   7159.00  3.9603394E-01
   7159.33  3.8839023E-01
   7159.67  3.8132175E-01
   7160.00  3.7486371E-01
   7160.33  3.6913287E-01
   7160.67  3.6407750E-01
   7161.00  3.5971517E-01
   7161.33  3.5614038E-01
   7161.67  3.5325646E-01
   7162.00  3.5104411E-01
   7162.33  3.4954711E-01
   7162.67  3.4863829E-01
   7163.00  3.4826670E-01
   7163.33  3.4841734E-01
   7163.67  3.4896051E-01
   7164.00  3.4984117E-01
   7164.33  3.5103389E-01
   7164.67  3.5244928E-01
   7165.00  3.5404630E-01
   7165.33  3.5580412E-01
   7165.67  3.5767713E-01
   7166.00  3.5964982E-01
   7166.33  3.6172398E-01
   7166.67  3.6388617E-01
   7167.00  3.6613789E-01
   7167.33  3.6849406E-01
   7167.67  3.7094555E-01
   7168.00  3.7349228E-01
   7168.33  3.7614198E-01
   7168.67  3.7887449E-01
   7169.00  3.8167761E-01
   7169.33  3.8453825E-01
   7169.67  3.8742539E-01
   7170.00  3.9031402E-01
   7170.33  3.9316652E-01
   7170.67  3.9594678E-01
   7171.00  3.9861174E-01
   7171.33  4.0106911E-01
   7171.67  4.0323411E-01
   7172.00  4.0497769E-01
