    FDMNES
    energy     <xanes>
   7097.00  4.2969011E-03
   7097.33  4.3866220E-03
   7097.67  4.4799822E-03
   7098.00  4.5772132E-03
   7098.33  4.6791333E-03
   7098.67  4.7855527E-03
   7099.00  4.8967853E-03
   7099.33  5.0138915E-03
   7099.67  5.1366768E-03
   7100.00  5.2655807E-03
   7100.33  5.4020163E-03
   7100.67  5.5458024E-03
   7101.00  5.6975756E-03
   7101.33  5.8592852E-03
   7101.67  6.0308035E-03
   7102.00  6.2130916E-03
   7102.33  6.4089545E-03
   7102.67  6.6184077E-03
   7103.00  6.8429782E-03
   7103.33  7.0869173E-03
   7103.67  7.3505946E-03
   7104.00  7.6365918E-03
   7104.33  7.9517882E-03
   7104.67  8.2974269E-03
   7105.00  8.6782300E-03
   7105.33  9.1063048E-03
   7105.67  9.5851681E-03
   7106.00  1.0124385E-02
   7106.33  1.0747771E-02
   7106.67  1.1465387E-02
   7107.00  1.2299478E-02
   7107.33  1.3304670E-02
   7107.67  1.4513160E-02
   7108.00  1.5987986E-02
   7108.33  1.7886147E-02
   7108.67  2.0336368E-02
   7109.00  2.3580657E-02
   7109.33  2.8263572E-02
   7109.67  3.5142794E-02
   7110.00  4.5710037E-02
   7110.33  6.4298004E-02
   7110.67  9.5568660E-02
   7111.00  1.4010385E-01
   7111.33  1.7861428E-01
   7111.67  1.9165728E-01
   7112.00  1.8652919E-01
   7112.33  1.8137705E-01
   7112.67  1.7521058E-01
   7113.00  1.6034587E-01
   7113.33  1.3955886E-01
   7113.67  1.2219808E-01
   7114.00  1.1049714E-01
   7114.33  9.9291532E-02
   7114.67  8.6256970E-02
   7115.00  7.5601894E-02
   7115.33  6.9218455E-02
   7115.67  6.4877466E-02
   7116.00  6.1738809E-02
   7116.33  6.0254462E-02
   7116.67  6.0469949E-02
   7117.00  6.2306770E-02
   7117.33  6.5783050E-02
   7117.67  7.0424666E-02
   7118.00  7.5781861E-02
   7118.33  8.1556631E-02
   7118.67  8.8031013E-02
   7119.00  9.5713011E-02
   7119.33  1.0518893E-01
   7119.67  1.1640508E-01
   7120.00  1.2940600E-01
   7120.33  1.4445457E-01
   7120.67  1.6134721E-01
   7121.00  1.8011233E-01
   7121.33  2.0106886E-01
   7121.67  2.2410325E-01
   7122.00  2.4931240E-01
   7122.33  2.7683662E-01
   7122.67  3.0583716E-01
   7123.00  3.3538528E-01
   7123.33  3.6347379E-01
   7123.67  3.8766760E-01
   7124.00  4.0743289E-01
   7124.33  4.2533161E-01
   7124.67  4.4341514E-01
   7125.00  4.6084753E-01
   7125.33  4.7529338E-01
   7125.67  4.8516944E-01
   7126.00  4.8938701E-01
   7126.33  4.8873191E-01
   7126.67  4.8696341E-01
   7127.00  4.8608059E-01
   7127.33  4.8721141E-01
   7127.67  4.8999401E-01
   7128.00  4.9379898E-01
   7128.33  4.9787569E-01
   7128.67  5.0191559E-01
   7129.00  5.0616513E-01
   7129.33  5.1113933E-01
   7129.67  5.1680835E-01
   7130.00  5.2276048E-01
   7130.33  5.2838780E-01
   7130.67  5.3373685E-01
   7131.00  5.3959324E-01
   7131.33  5.4793976E-01
   7131.67  5.6043135E-01
   7132.00  5.7816604E-01
   7132.33  6.0163468E-01
   7132.67  6.2840417E-01
   7133.00  6.5617541E-01
   7133.33  6.8228963E-01
   7133.67  7.0533168E-01
   7134.00  7.2447766E-01
   7134.33  7.3865891E-01
   7134.67  7.4915203E-01
   7135.00  7.5745821E-01
   7135.33  7.6366288E-01
   7135.67  7.6615925E-01
   7136.00  7.6370285E-01
   7136.33  7.5628804E-01
   7136.67  7.4634044E-01
   7137.00  7.3547976E-01
   7137.33  7.2501425E-01
   7137.67  7.1544697E-01
   7138.00  7.0682986E-01
   7138.33  6.9905093E-01
   7138.67  6.9170689E-01
   7139.00  6.8455770E-01
   7139.33  6.7742149E-01
   7139.67  6.7022911E-01
   7140.00  6.6300111E-01
   7140.33  6.5582700E-01
   7140.67  6.4881297E-01
   7141.00  6.4205392E-01
   7141.33  6.3568120E-01
   7141.67  6.2970732E-01
   7142.00  6.2415449E-01
   7142.33  6.1908125E-01
   7142.67  6.1443214E-01
   7143.00  6.1021146E-01
   7143.33  6.0649764E-01
   7143.67  6.0327893E-01
   7144.00  6.0060895E-01
   7144.33  5.9863568E-01
   7144.67  5.9734652E-01
   7145.00  5.9677892E-01
   7145.33  5.9703808E-01
   7145.67  5.9802032E-01
   7146.00  5.9969963E-01
   7146.33  6.0210167E-01
   7146.67  6.0506152E-01
   7147.00  6.0848450E-01
   7147.33  6.1226850E-01
   7147.67  6.1618899E-01
   7148.00  6.2005077E-01
   7148.33  6.2354431E-01
   7148.67  6.2640927E-01
   7149.00  6.2838264E-01
   7149.33  6.2905281E-01
   7149.67  6.2838333E-01
   7150.00  6.2631266E-01
   7150.33  6.2272564E-01
   7150.67  6.1795896E-01
   7151.00  6.1221641E-01
   7151.33  6.0566278E-01
   7151.67  5.9861953E-01
   7152.00  5.9124337E-01
   7152.33  5.8363412E-01
   7152.67  5.7588716E-01
   7153.00  5.6802231E-01
   7153.33  5.6000874E-01
   7153.67  5.5182333E-01
   7154.00  5.4342594E-01
   7154.33  5.3474802E-01
   7154.67  5.2579594E-01
   7155.00  5.1655701E-01
   7155.33  5.0699953E-01
   7155.67  4.9718858E-01
   7156.00  4.8716898E-01
   7156.33  4.7699261E-01
   7156.67  4.6675924E-01
   7157.00  4.5654553E-01
   7157.33  4.4645501E-01
   7157.67  4.3656009E-01
   7158.00  4.2693011E-01
   7158.33  4.1768160E-01
   7158.67  4.0884029E-01
   7159.00  4.0046145E-01
   7159.33  3.9267132E-01
   7159.67  3.8546230E-01
   7160.00  3.7888164E-01
   7160.33  3.7306287E-01
   7160.67  3.6795917E-01
   7161.00  3.6359168E-01
   7161.33  3.6006274E-01
   7161.67  3.5726986E-01
   7162.00  3.5519102E-01
   7162.33  3.5386864E-01
   7162.67  3.5315843E-01
   7163.00  3.5299968E-01
   7163.33  3.5338029E-01
   7163.67  3.5416560E-01
   7164.00  3.5528859E-01
   7164.33  3.5670350E-01
   7164.67  3.5830378E-01
   7165.00  3.6003194E-01
   7165.33  3.6184087E-01
   7165.67  3.6367978E-01
   7166.00  3.6552426E-01
   7166.33  3.6735627E-01
   7166.67  3.6917100E-01
   7167.00  3.7096908E-01
   7167.33  3.7275338E-01
   7167.67  3.7453047E-01
   7168.00  3.7630399E-01
   7168.33  3.7807711E-01
   7168.67  3.7985180E-01
   7169.00  3.8162822E-01
   7169.33  3.8340451E-01
   7169.67  3.8517591E-01
   7170.00  3.8693586E-01
   7170.33  3.8867081E-01
   7170.67  3.9036729E-01
   7171.00  3.9200375E-01
   7171.33  3.9352688E-01
   7171.67  3.9487940E-01
   7172.00  3.9597406E-01
