    FDMNES
    energy     <xanes>
   7097.00  5.5969989E-03
   7097.33  5.7458260E-03
   7097.67  5.9021232E-03
   7098.00  6.0664306E-03
   7098.33  6.2405343E-03
   7098.67  6.4241258E-03
   7099.00  6.6179482E-03
   7099.33  6.8243692E-03
   7099.67  7.0430799E-03
   7100.00  7.2751295E-03
   7100.33  7.5237356E-03
   7100.67  7.7886288E-03
   7101.00  8.0713334E-03
   7101.33  8.3763532E-03
   7101.67  8.7035427E-03
   7102.00  9.0551950E-03
   7102.33  9.4378366E-03
   7102.67  9.8516306E-03
   7103.00  1.0300170E-02
   7103.33  1.0793317E-02
   7103.67  1.1331953E-02
   7104.00  1.1921994E-02
   7104.33  1.2579126E-02
   7104.67  1.3305902E-02
   7105.00  1.4112684E-02
   7105.33  1.5026077E-02
   7105.67  1.6052684E-02
   7106.00  1.7212140E-02
   7106.33  1.8553510E-02
   7106.67  2.0093988E-02
   7107.00  2.1874904E-02
   7107.33  2.3997639E-02
   7107.67  2.6510771E-02
   7108.00  2.9515241E-02
   7108.33  3.3258231E-02
   7108.67  3.7901850E-02
   7109.00  4.3756390E-02
   7109.33  5.1609073E-02
   7109.67  6.2196676E-02
   7110.00  7.6928198E-02
   7110.33  9.9672745E-02
   7110.67  1.3451215E-01
   7111.00  1.8518007E-01
   7111.33  2.5531405E-01
   7111.67  3.5630564E-01
   7112.00  5.0692948E-01
   7112.33  6.8194138E-01
   7112.67  8.0220759E-01
   7113.00  8.6332976E-01
   7113.33  8.2054551E-01
   7113.67  6.8903058E-01
   7114.00  5.3789214E-01
   7114.33  4.2046099E-01
   7114.67  3.3724444E-01
   7115.00  2.7997115E-01
   7115.33  2.4173285E-01
   7115.67  2.1451639E-01
   7116.00  1.9529436E-01
   7116.33  1.8253604E-01
   7116.67  1.7406942E-01
   7117.00  1.6894967E-01
   7117.33  1.6618727E-01
   7117.67  1.6383496E-01
   7118.00  1.6054337E-01
   7118.33  1.5580264E-01
   7118.67  1.5085425E-01
   7119.00  1.4682795E-01
   7119.33  1.4432126E-01
   7119.67  1.4264684E-01
   7120.00  1.4116318E-01
   7120.33  1.3920871E-01
   7120.67  1.3638697E-01
   7121.00  1.3273740E-01
   7121.33  1.2900371E-01
   7121.67  1.2608348E-01
   7122.00  1.2430805E-01
   7122.33  1.2349782E-01
   7122.67  1.2321129E-01
   7123.00  1.2356290E-01
   7123.33  1.2481078E-01
   7123.67  1.2684036E-01
   7124.00  1.2961248E-01
   7124.33  1.3321275E-01
   7124.67  1.3762485E-01
   7125.00  1.4302147E-01
   7125.33  1.4985737E-01
   7125.67  1.5825535E-01
   7126.00  1.6843478E-01
   7126.33  1.8102850E-01
   7126.67  1.9636578E-01
   7127.00  2.1513489E-01
   7127.33  2.3887479E-01
   7127.67  2.6822215E-01
   7128.00  3.0416368E-01
   7128.33  3.4806236E-01
   7128.67  3.9825502E-01
   7129.00  4.5285736E-01
   7129.33  5.0904099E-01
   7129.67  5.6371159E-01
   7130.00  6.1455170E-01
   7130.33  6.5835535E-01
   7130.67  6.9455194E-01
   7131.00  7.2373448E-01
   7131.33  7.4851470E-01
   7131.67  7.7339483E-01
   7132.00  8.0023340E-01
   7132.33  8.2815919E-01
   7132.67  8.5382782E-01
   7133.00  8.7421110E-01
   7133.33  8.8571648E-01
   7133.67  8.8816554E-01
   7134.00  8.8164010E-01
   7134.33  8.6607078E-01
   7134.67  8.4381127E-01
   7135.00  8.1610284E-01
   7135.33  7.8390871E-01
   7135.67  7.4921948E-01
   7136.00  7.1332081E-01
   7136.33  6.7765327E-01
   7136.67  6.4344673E-01
   7137.00  6.1163949E-01
   7137.33  5.8356017E-01
   7137.67  5.5942394E-01
   7138.00  5.3941878E-01
   7138.33  5.2373254E-01
   7138.67  5.1115160E-01
   7139.00  5.0093752E-01
   7139.33  4.9264161E-01
   7139.67  4.8578003E-01
   7140.00  4.8042264E-01
   7140.33  4.7709830E-01
   7140.67  4.7597013E-01
   7141.00  4.7734395E-01
   7141.33  4.8181024E-01
   7141.67  4.8910578E-01
   7142.00  4.9915314E-01
   7142.33  5.1201794E-01
   7142.67  5.2699613E-01
   7143.00  5.4366390E-01
   7143.33  5.6160335E-01
   7143.67  5.8008081E-01
   7144.00  5.9858618E-01
   7144.33  6.1648122E-01
   7144.67  6.3331442E-01
   7145.00  6.4870142E-01
   7145.33  6.6206527E-01
   7145.67  6.7340109E-01
   7146.00  6.8261821E-01
   7146.33  6.8946988E-01
   7146.67  6.9434668E-01
   7147.00  6.9742507E-01
   7147.33  6.9876536E-01
   7147.67  6.9882924E-01
   7148.00  6.9783550E-01
   7148.33  6.9589879E-01
   7148.67  6.9329331E-01
   7149.00  6.9012657E-01
   7149.33  6.8640596E-01
   7149.67  6.8219649E-01
   7150.00  6.7747691E-01
   7150.33  6.7215399E-01
   7150.67  6.6628543E-01
   7151.00  6.5988881E-01
   7151.33  6.5296363E-01
   7151.67  6.4566771E-01
   7152.00  6.3811377E-01
   7152.33  6.3044086E-01
   7152.67  6.2282417E-01
   7153.00  6.1540104E-01
   7153.33  6.0836361E-01
   7153.67  6.0180180E-01
   7154.00  5.9581554E-01
   7154.33  5.9058935E-01
   7154.67  5.8612246E-01
   7155.00  5.8247438E-01
   7155.33  5.7980736E-01
   7155.67  5.7804455E-01
   7156.00  5.7719328E-01
   7156.33  5.7734435E-01
   7156.67  5.7832968E-01
   7157.00  5.8007069E-01
   7157.33  5.8252161E-01
   7157.67  5.8544272E-01
   7158.00  5.8866952E-01
   7158.33  5.9200941E-01
   7158.67  5.9524483E-01
   7159.00  5.9820753E-01
   7159.33  6.0066239E-01
   7159.67  6.0251351E-01
   7160.00  6.0365652E-01
   7160.33  6.0390563E-01
   7160.67  6.0330808E-01
   7161.00  6.0184064E-01
   7161.33  5.9940427E-01
   7161.67  5.9615404E-01
   7162.00  5.9214964E-01
   7162.33  5.8739246E-01
   7162.67  5.8206005E-01
   7163.00  5.7623329E-01
   7163.33  5.6994911E-01
   7163.67  5.6333533E-01
   7164.00  5.5644806E-01
   7164.33  5.4931207E-01
   7164.67  5.4199416E-01
   7165.00  5.3451883E-01
   7165.33  5.2688775E-01
   7165.67  5.1912941E-01
   7166.00  5.1125048E-01
   7166.33  5.0324460E-01
   7166.67  4.9513432E-01
   7167.00  4.8692760E-01
   7167.33  4.7862797E-01
   7167.67  4.7026519E-01
   7168.00  4.6185938E-01
   7168.33  4.5343578E-01
   7168.67  4.4503533E-01
   7169.00  4.3669739E-01
   7169.33  4.2848337E-01
   7169.67  4.2043175E-01
   7170.00  4.1259266E-01
   7170.33  4.0506681E-01
   7170.67  3.9789661E-01
   7171.00  3.9116381E-01
   7171.33  3.8507255E-01
   7171.67  3.7976277E-01
   7172.00  3.7548699E-01
