    FDMNES
    energy     <xanes>
   7097.00  4.6585134E-03
   7097.33  4.7663096E-03
   7097.67  4.8788884E-03
   7098.00  4.9965716E-03
   7098.33  5.1204643E-03
   7098.67  5.2503395E-03
   7099.00  5.3866379E-03
   7099.33  5.5308067E-03
   7099.67  5.6826169E-03
   7100.00  5.8426890E-03
   7100.33  6.0129723E-03
   7100.67  6.1932615E-03
   7101.00  6.3844597E-03
   7101.33  6.5892817E-03
   7101.67  6.8076028E-03
   7102.00  7.0407915E-03
   7102.33  7.2927846E-03
   7102.67  7.5636651E-03
   7103.00  7.8556098E-03
   7103.33  8.1746176E-03
   7103.67  8.5212734E-03
   7104.00  8.8992511E-03
   7104.33  9.3182775E-03
   7104.67  9.7801572E-03
   7105.00  1.0291573E-02
   7105.33  1.0869602E-02
   7105.67  1.1519174E-02
   7106.00  1.2253689E-02
   7106.33  1.3106450E-02
   7106.67  1.4091231E-02
   7107.00  1.5238675E-02
   7107.33  1.6623910E-02
   7107.67  1.8289923E-02
   7108.00  2.0321361E-02
   7108.33  2.2928184E-02
   7108.67  2.6276767E-02
   7109.00  3.0679915E-02
   7109.33  3.6963063E-02
   7109.67  4.6063372E-02
   7110.00  5.9814099E-02
   7110.33  8.3494076E-02
   7110.67  1.2285163E-01
   7111.00  1.8010231E-01
   7111.33  2.4212203E-01
   7111.67  2.8642064E-01
   7112.00  2.9927816E-01
   7112.33  2.9263328E-01
   7112.67  2.8093384E-01
   7113.00  2.5973071E-01
   7113.33  2.2786781E-01
   7113.67  1.9515166E-01
   7114.00  1.6851392E-01
   7114.33  1.5034401E-01
   7114.67  1.3628495E-01
   7115.00  1.2478185E-01
   7115.33  1.1568331E-01
   7115.67  1.0651416E-01
   7116.00  9.6698561E-02
   7116.33  8.9169992E-02
   7116.67  8.5418145E-02
   7117.00  8.5439570E-02
   7117.33  8.9363752E-02
   7117.67  9.6781444E-02
   7118.00  1.0791596E-01
   7118.33  1.2287091E-01
   7118.67  1.3905259E-01
   7119.00  1.5404714E-01
   7119.33  1.6823380E-01
   7119.67  1.8465624E-01
   7120.00  2.0267250E-01
   7120.33  2.1659835E-01
   7120.67  2.2432971E-01
   7121.00  2.2671363E-01
   7121.33  2.2740462E-01
   7121.67  2.3240717E-01
   7122.00  2.4529402E-01
   7122.33  2.6795352E-01
   7122.67  2.9663316E-01
   7123.00  3.2708329E-01
   7123.33  3.5357161E-01
   7123.67  3.7405253E-01
   7124.00  3.9067607E-01
   7124.33  4.0846760E-01
   7124.67  4.3018822E-01
   7125.00  4.5598986E-01
   7125.33  4.8494176E-01
   7125.67  5.1375813E-01
   7126.00  5.3842272E-01
   7126.33  5.5460572E-01
   7126.67  5.6406650E-01
   7127.00  5.6998232E-01
   7127.33  5.7632152E-01
   7127.67  5.8562238E-01
   7128.00  5.9868116E-01
   7128.33  6.1548894E-01
   7128.67  6.3436810E-01
   7129.00  6.5365564E-01
   7129.33  6.7046922E-01
   7129.67  6.8253665E-01
   7130.00  6.8817735E-01
   7130.33  6.8505340E-01
   7130.67  6.7386562E-01
   7131.00  6.5600195E-01
   7131.33  6.3434020E-01
   7131.67  6.1260454E-01
   7132.00  5.9252652E-01
   7132.33  5.7517205E-01
   7132.67  5.6028836E-01
   7133.00  5.4792055E-01
   7133.33  5.3897585E-01
   7133.67  5.3392630E-01
   7134.00  5.3319767E-01
   7134.33  5.3691152E-01
   7134.67  5.4341102E-01
   7135.00  5.5146588E-01
   7135.33  5.5995144E-01
   7135.67  5.6839581E-01
   7136.00  5.7712794E-01
   7136.33  5.8705421E-01
   7136.67  5.9852451E-01
   7137.00  6.1129011E-01
   7137.33  6.2429216E-01
   7137.67  6.3604145E-01
   7138.00  6.4548590E-01
   7138.33  6.5168363E-01
   7138.67  6.5516541E-01
   7139.00  6.5651761E-01
   7139.33  6.5647891E-01
   7139.67  6.5606394E-01
   7140.00  6.5584045E-01
   7140.33  6.5619921E-01
   7140.67  6.5714649E-01
   7141.00  6.5868302E-01
   7141.33  6.6090960E-01
   7141.67  6.6380263E-01
   7142.00  6.6738028E-01
   7142.33  6.7161688E-01
   7142.67  6.7614608E-01
   7143.00  6.8055138E-01
   7143.33  6.8411097E-01
   7143.67  6.8624504E-01
   7144.00  6.8644698E-01
   7144.33  6.8404330E-01
   7144.67  6.7923759E-01
   7145.00  6.7219449E-01
   7145.33  6.6307843E-01
   7145.67  6.5261673E-01
   7146.00  6.4123255E-01
   7146.33  6.2929134E-01
   7146.67  6.1719650E-01
   7147.00  6.0518763E-01
   7147.33  5.9355391E-01
   7147.67  5.8246756E-01
   7148.00  5.7206063E-01
   7148.33  5.6250840E-01
   7148.67  5.5371557E-01
   7149.00  5.4562526E-01
   7149.33  5.3820009E-01
   7149.67  5.3122931E-01
   7150.00  5.2458945E-01
   7150.33  5.1816480E-01
   7150.67  5.1179500E-01
   7151.00  5.0537083E-01
   7151.33  4.9876151E-01
   7151.67  4.9189956E-01
   7152.00  4.8473456E-01
   7152.33  4.7720707E-01
   7152.67  4.6938668E-01
   7153.00  4.6133762E-01
   7153.33  4.5315910E-01
   7153.67  4.4500815E-01
   7154.00  4.3701740E-01
   7154.33  4.2937510E-01
   7154.67  4.2217258E-01
   7155.00  4.1549681E-01
   7155.33  4.0948488E-01
   7155.67  4.0408032E-01
   7156.00  3.9926190E-01
   7156.33  3.9503709E-01
   7156.67  3.9126130E-01
   7157.00  3.8786508E-01
   7157.33  3.8481591E-01
   7157.67  3.8202020E-01
   7158.00  3.7944342E-01
   7158.33  3.7707799E-01
   7158.67  3.7487157E-01
   7159.00  3.7279502E-01
   7159.33  3.7081366E-01
   7159.67  3.6885731E-01
   7160.00  3.6686529E-01
   7160.33  3.6474810E-01
   7160.67  3.6245057E-01
   7161.00  3.5992868E-01
   7161.33  3.5712351E-01
   7161.67  3.5407039E-01
   7162.00  3.5080540E-01
   7162.33  3.4738204E-01
   7162.67  3.4390329E-01
   7163.00  3.4044334E-01
   7163.33  3.3709256E-01
   7163.67  3.3390556E-01
   7164.00  3.3093106E-01
   7164.33  3.2824869E-01
   7164.67  3.2586402E-01
   7165.00  3.2380277E-01
   7165.33  3.2212856E-01
   7165.67  3.2080875E-01
   7166.00  3.1984642E-01
   7166.33  3.1928703E-01
   7166.67  3.1908576E-01
   7167.00  3.1924652E-01
   7167.33  3.1982920E-01
   7167.67  3.2080562E-01
   7168.00  3.2219229E-01
   7168.33  3.2405677E-01
   7168.67  3.2635043E-01
   7169.00  3.2906652E-01
   7169.33  3.3223411E-01
   7169.67  3.3576801E-01
   7170.00  3.3962742E-01
   7170.33  3.4378511E-01
   7170.67  3.4812918E-01
   7171.00  3.5256788E-01
   7171.33  3.5693100E-01
   7171.67  3.6095235E-01
   7172.00  3.6428275E-01
