    FDMNES
    energy     <xanes>
   7097.00  4.6943044E-03
   7097.33  4.8022562E-03
   7097.67  4.9148788E-03
   7098.00  5.0324753E-03
   7098.33  5.1561051E-03
   7098.67  5.2855304E-03
   7099.00  5.4211610E-03
   7099.33  5.5643695E-03
   7099.67  5.7149090E-03
   7100.00  5.8733489E-03
   7100.33  6.0415141E-03
   7100.67  6.2191681E-03
   7101.00  6.4071273E-03
   7101.33  6.6078947E-03
   7101.67  6.8212882E-03
   7102.00  7.0485236E-03
   7102.33  7.2931663E-03
   7102.67  7.5551873E-03
   7103.00  7.8364829E-03
   7103.33  8.1423750E-03
   7103.67  8.4732147E-03
   7104.00  8.8321339E-03
   7104.33  9.2275581E-03
   7104.67  9.6607700E-03
   7105.00  1.0137330E-02
   7105.33  1.0671635E-02
   7105.67  1.1267348E-02
   7106.00  1.1935328E-02
   7106.33  1.2702824E-02
   7106.67  1.3580184E-02
   7107.00  1.4591569E-02
   7107.33  1.5796559E-02
   7107.67  1.7227426E-02
   7108.00  1.8949292E-02
   7108.33  2.1124157E-02
   7108.67  2.3877053E-02
   7109.00  2.7445836E-02
   7109.33  3.2461085E-02
   7109.67  3.9640923E-02
   7110.00  5.0400375E-02
   7110.33  6.8779737E-02
   7110.67  9.8456960E-02
   7111.00  1.3718908E-01
   7111.33  1.6691125E-01
   7111.67  1.8880288E-01
   7112.00  2.1421430E-01
   7112.33  2.3867709E-01
   7112.67  2.6787698E-01
   7113.00  3.1670146E-01
   7113.33  3.4774260E-01
   7113.67  3.0878686E-01
   7114.00  2.3518125E-01
   7114.33  1.7870011E-01
   7114.67  1.4266860E-01
   7115.00  1.2122537E-01
   7115.33  1.0944962E-01
   7115.67  1.0317213E-01
   7116.00  1.0167993E-01
   7116.33  1.0537953E-01
   7116.67  1.1363296E-01
   7117.00  1.2613076E-01
   7117.33  1.4227582E-01
   7117.67  1.6082067E-01
   7118.00  1.8109606E-01
   7118.33  1.9883269E-01
   7118.67  2.0864495E-01
   7119.00  2.1082845E-01
   7119.33  2.0900504E-01
   7119.67  2.0632383E-01
   7120.00  2.0580492E-01
   7120.33  2.1111512E-01
   7120.67  2.2248261E-01
   7121.00  2.3994646E-01
   7121.33  2.6365216E-01
   7121.67  2.9094775E-01
   7122.00  3.1891118E-01
   7122.33  3.4413718E-01
   7122.67  3.6713519E-01
   7123.00  3.9044245E-01
   7123.33  4.1642376E-01
   7123.67  4.4464749E-01
   7124.00  4.7443889E-01
   7124.33  5.0502237E-01
   7124.67  5.3431079E-01
   7125.00  5.5965590E-01
   7125.33  5.7814278E-01
   7125.67  5.9079239E-01
   7126.00  5.9884192E-01
   7126.33  6.0274919E-01
   7126.67  6.0326233E-01
   7127.00  6.0097789E-01
   7127.33  5.9711679E-01
   7127.67  5.9287787E-01
   7128.00  5.8817143E-01
   7128.33  5.8214431E-01
   7128.67  5.7450089E-01
   7129.00  5.6533198E-01
   7129.33  5.5496142E-01
   7129.67  5.4416955E-01
   7130.00  5.3347249E-01
   7130.33  5.2344432E-01
   7130.67  5.1457654E-01
   7131.00  5.0744263E-01
   7131.33  5.0293599E-01
   7131.67  5.0112361E-01
   7132.00  5.0208902E-01
   7132.33  5.0605787E-01
   7132.67  5.1241070E-01
   7133.00  5.2074788E-01
   7133.33  5.3061725E-01
   7133.67  5.4128089E-01
   7134.00  5.5250394E-01
   7134.33  5.6431114E-01
   7134.67  5.7653527E-01
   7135.00  5.8886382E-01
   7135.33  6.0059411E-01
   7135.67  6.1099696E-01
   7136.00  6.1943171E-01
   7136.33  6.2511738E-01
   7136.67  6.2831531E-01
   7137.00  6.2932275E-01
   7137.33  6.2852702E-01
   7137.67  6.2676870E-01
   7138.00  6.2452193E-01
   7138.33  6.2221745E-01
   7138.67  6.2018486E-01
   7139.00  6.1861583E-01
   7139.33  6.1771050E-01
   7139.67  6.1741622E-01
   7140.00  6.1766607E-01
   7140.33  6.1833941E-01
   7140.67  6.1915470E-01
   7141.00  6.1987073E-01
   7141.33  6.2014250E-01
   7141.67  6.1977494E-01
   7142.00  6.1864017E-01
   7142.33  6.1660339E-01
   7142.67  6.1384203E-01
   7143.00  6.1048608E-01
   7143.33  6.0667285E-01
   7143.67  6.0264849E-01
   7144.00  5.9856893E-01
   7144.33  5.9460442E-01
   7144.67  5.9087583E-01
   7145.00  5.8748152E-01
   7145.33  5.8456440E-01
   7145.67  5.8212723E-01
   7146.00  5.8018611E-01
   7146.33  5.7878005E-01
   7146.67  5.7778742E-01
   7147.00  5.7712024E-01
   7147.33  5.7665219E-01
   7147.67  5.7616515E-01
   7148.00  5.7547083E-01
   7148.33  5.7432051E-01
   7148.67  5.7263778E-01
   7149.00  5.7038771E-01
   7149.33  5.6754146E-01
   7149.67  5.6425825E-01
   7150.00  5.6062590E-01
   7150.33  5.5668879E-01
   7150.67  5.5252290E-01
   7151.00  5.4813626E-01
   7151.33  5.4347406E-01
   7151.67  5.3852033E-01
   7152.00  5.3322086E-01
   7152.33  5.2744486E-01
   7152.67  5.2116297E-01
   7153.00  5.1430835E-01
   7153.33  5.0673832E-01
   7153.67  4.9850215E-01
   7154.00  4.8961568E-01
   7154.33  4.8008912E-01
   7154.67  4.7014845E-01
   7155.00  4.5997954E-01
   7155.33  4.4984196E-01
   7155.67  4.3999821E-01
   7156.00  4.3065757E-01
   7156.33  4.2210289E-01
   7156.67  4.1437656E-01
   7157.00  4.0753530E-01
   7157.33  4.0169844E-01
   7157.67  3.9671242E-01
   7158.00  3.9251292E-01
   7158.33  3.8908891E-01
   7158.67  3.8624309E-01
   7159.00  3.8387493E-01
   7159.33  3.8190886E-01
   7159.67  3.8017844E-01
   7160.00  3.7858338E-01
   7160.33  3.7702256E-01
   7160.67  3.7540351E-01
   7161.00  3.7366704E-01
   7161.33  3.7174850E-01
   7161.67  3.6964956E-01
   7162.00  3.6737180E-01
   7162.33  3.6491403E-01
   7162.67  3.6232519E-01
   7163.00  3.5963243E-01
   7163.33  3.5686296E-01
   7163.67  3.5406215E-01
   7164.00  3.5125956E-01
   7164.33  3.4849168E-01
   7164.67  3.4578893E-01
   7165.00  3.4318438E-01
   7165.33  3.4073854E-01
   7165.67  3.3847966E-01
   7166.00  3.3644795E-01
   7166.33  3.3472289E-01
   7166.67  3.3331129E-01
   7167.00  3.3224258E-01
   7167.33  3.3158867E-01
   7167.67  3.3132000E-01
   7168.00  3.3144417E-01
   7168.33  3.3201284E-01
   7168.67  3.3297294E-01
   7169.00  3.3431700E-01
   7169.33  3.3607702E-01
   7169.67  3.3818496E-01
   7170.00  3.4061429E-01
   7170.33  3.4335671E-01
   7170.67  3.4631542E-01
   7171.00  3.4941428E-01
   7171.33  3.5251931E-01
   7171.67  3.5540811E-01
   7172.00  3.5780628E-01
