    FDMNES
    energy     <xanes>
   7097.00  5.0760965E-03
   7097.33  5.1999178E-03
   7097.67  5.3294344E-03
   7098.00  5.4650323E-03
   7098.33  5.6080294E-03
   7098.67  5.7581559E-03
   7099.00  5.9159355E-03
   7099.33  6.0830891E-03
   7099.67  6.2593377E-03
   7100.00  6.4454112E-03
   7100.33  6.6436119E-03
   7100.67  6.8536754E-03
   7101.00  7.0766491E-03
   7101.33  7.3157045E-03
   7101.67  7.5706445E-03
   7102.00  7.8430248E-03
   7102.33  8.1373690E-03
   7102.67  8.4536636E-03
   7103.00  8.7943176E-03
   7103.33  9.1660623E-03
   7103.67  9.5693292E-03
   7104.00  1.0008044E-02
   7104.33  1.0492764E-02
   7104.67  1.1024982E-02
   7105.00  1.1611520E-02
   7105.33  1.2270087E-02
   7105.67  1.3004796E-02
   7106.00  1.3828545E-02
   7106.33  1.4773803E-02
   7106.67  1.5851718E-02
   7107.00  1.7089629E-02
   7107.33  1.8554980E-02
   7107.67  2.0280582E-02
   7108.00  2.2334902E-02
   7108.33  2.4886938E-02
   7108.67  2.8053022E-02
   7109.00  3.2056545E-02
   7109.33  3.7474485E-02
   7109.67  4.4890740E-02
   7110.00  5.5440143E-02
   7110.33  7.2353607E-02
   7110.67  9.9485272E-02
   7111.00  1.4081833E-01
   7111.33  1.9223818E-01
   7111.67  2.3378261E-01
   7112.00  2.6767067E-01
   7112.33  3.1322651E-01
   7112.67  3.6564421E-01
   7113.00  3.9731306E-01
   7113.33  4.0595363E-01
   7113.67  4.3722497E-01
   7114.00  5.0306711E-01
   7114.33  5.5996102E-01
   7114.67  5.4733064E-01
   7115.00  4.6357165E-01
   7115.33  3.6387530E-01
   7115.67  2.8580564E-01
   7116.00  2.3210931E-01
   7116.33  1.9660696E-01
   7116.67  1.6643470E-01
   7117.00  1.3817733E-01
   7117.33  1.1619788E-01
   7117.67  1.0140029E-01
   7118.00  9.2505246E-02
   7118.33  8.8203463E-02
   7118.67  8.6855333E-02
   7119.00  8.8056903E-02
   7119.33  9.1909204E-02
   7119.67  9.7685407E-02
   7120.00  1.0473111E-01
   7120.33  1.1233382E-01
   7120.67  1.1902525E-01
   7121.00  1.2409052E-01
   7121.33  1.2958733E-01
   7121.67  1.3755531E-01
   7122.00  1.4732581E-01
   7122.33  1.5597000E-01
   7122.67  1.6263317E-01
   7123.00  1.6920901E-01
   7123.33  1.7854730E-01
   7123.67  1.9143710E-01
   7124.00  2.0784744E-01
   7124.33  2.2761173E-01
   7124.67  2.4990697E-01
   7125.00  2.7481486E-01
   7125.33  3.0219540E-01
   7125.67  3.2943524E-01
   7126.00  3.5414933E-01
   7126.33  3.7534539E-01
   7126.67  3.9477059E-01
   7127.00  4.1379839E-01
   7127.33  4.3395965E-01
   7127.67  4.5632005E-01
   7128.00  4.8159708E-01
   7128.33  5.1060510E-01
   7128.67  5.4301677E-01
   7129.00  5.7860836E-01
   7129.33  6.1692729E-01
   7129.67  6.5637828E-01
   7130.00  6.9526715E-01
   7130.33  7.3009116E-01
   7130.67  7.5769870E-01
   7131.00  7.7613753E-01
   7131.33  7.8494844E-01
   7131.67  7.8823551E-01
   7132.00  7.8899222E-01
   7132.33  7.8991648E-01
   7132.67  7.9266483E-01
   7133.00  7.9817721E-01
   7133.33  8.0760540E-01
   7133.67  8.2057631E-01
   7134.00  8.3635638E-01
   7134.33  8.5321493E-01
   7134.67  8.6826135E-01
   7135.00  8.7888394E-01
   7135.33  8.8202680E-01
   7135.67  8.7788044E-01
   7136.00  8.6717057E-01
   7136.33  8.5101040E-01
   7136.67  8.3189477E-01
   7137.00  8.1121590E-01
   7137.33  7.9019929E-01
   7137.67  7.6980925E-01
   7138.00  7.5062544E-01
   7138.33  7.3334548E-01
   7138.67  7.1809553E-01
   7139.00  7.0505952E-01
   7139.33  6.9457027E-01
   7139.67  6.8618144E-01
   7140.00  6.7958083E-01
   7140.33  6.7438032E-01
   7140.67  6.6975925E-01
   7141.00  6.6515194E-01
   7141.33  6.5999747E-01
   7141.67  6.5414995E-01
   7142.00  6.4767727E-01
   7142.33  6.4077268E-01
   7142.67  6.3369455E-01
   7143.00  6.2644705E-01
   7143.33  6.1867646E-01
   7143.67  6.0987889E-01
   7144.00  5.9954547E-01
   7144.33  5.8719687E-01
   7144.67  5.7338813E-01
   7145.00  5.5875321E-01
   7145.33  5.4413858E-01
   7145.67  5.3021150E-01
   7146.00  5.1730346E-01
   7146.33  5.0571555E-01
   7146.67  4.9531691E-01
   7147.00  4.8607281E-01
   7147.33  4.7805898E-01
   7147.67  4.7107215E-01
   7148.00  4.6505681E-01
   7148.33  4.6006718E-01
   7148.67  4.5594312E-01
   7149.00  4.5265506E-01
   7149.33  4.5025820E-01
   7149.67  4.4859750E-01
   7150.00  4.4761687E-01
   7150.33  4.4731018E-01
   7150.67  4.4749405E-01
   7151.00  4.4806025E-01
   7151.33  4.4890874E-01
   7151.67  4.4987746E-01
   7152.00  4.5086349E-01
   7152.33  4.5175914E-01
   7152.67  4.5250740E-01
   7153.00  4.5307399E-01
   7153.33  4.5341583E-01
   7153.67  4.5355753E-01
   7154.00  4.5350843E-01
   7154.33  4.5326149E-01
   7154.67  4.5285246E-01
   7155.00  4.5229037E-01
   7155.33  4.5156388E-01
   7155.67  4.5069409E-01
   7156.00  4.4968016E-01
   7156.33  4.4849911E-01
   7156.67  4.4716141E-01
   7157.00  4.4565705E-01
   7157.33  4.4394863E-01
   7157.67  4.4204282E-01
   7158.00  4.3992716E-01
   7158.33  4.3756405E-01
   7158.67  4.3497841E-01
   7159.00  4.3217572E-01
   7159.33  4.2914711E-01
   7159.67  4.2594373E-01
   7160.00  4.2259380E-01
   7160.33  4.1911890E-01
   7160.67  4.1556664E-01
   7161.00  4.1196158E-01
   7161.33  4.0832007E-01
   7161.67  4.0465687E-01
   7162.00  4.0097585E-01
   7162.33  3.9727836E-01
   7162.67  3.9357326E-01
   7163.00  3.8987250E-01
   7163.33  3.8620133E-01
   7163.67  3.8258832E-01
   7164.00  3.7906549E-01
   7164.33  3.7568002E-01
   7164.67  3.7244414E-01
   7165.00  3.6938525E-01
   7165.33  3.6655971E-01
   7165.67  3.6396618E-01
   7166.00  3.6162131E-01
   7166.33  3.5957267E-01
   7166.67  3.5779869E-01
   7167.00  3.5630770E-01
   7167.33  3.5514387E-01
   7167.67  3.5427610E-01
   7168.00  3.5370752E-01
   7168.33  3.5347810E-01
   7168.67  3.5355007E-01
   7169.00  3.5392035E-01
   7169.33  3.5461760E-01
   7169.67  3.5559297E-01
   7170.00  3.5683038E-01
   7170.33  3.5833201E-01
   7170.67  3.6002878E-01
   7171.00  3.6187137E-01
   7171.33  3.6377736E-01
   7171.67  3.6558694E-01
   7172.00  3.6710511E-01
