    FDMNES
    energy     <xanes>
   7097.00  4.7285907E-03
   7097.33  4.8459917E-03
   7097.67  4.9692307E-03
   7098.00  5.0987483E-03
   7098.33  5.2359741E-03
   7098.67  5.3806975E-03
   7099.00  5.5335388E-03
   7099.33  5.6964292E-03
   7099.67  5.8691798E-03
   7100.00  6.0526912E-03
   7100.33  6.2496530E-03
   7100.67  6.4599491E-03
   7101.00  6.6849335E-03
   7101.33  6.9284906E-03
   7101.67  7.1906873E-03
   7102.00  7.4736467E-03
   7102.33  7.7832264E-03
   7102.67  8.1199214E-03
   7103.00  8.4872331E-03
   7103.33  8.8944704E-03
   7103.67  9.3431260E-03
   7104.00  9.8393418E-03
   7104.33  1.0398908E-02
   7104.67  1.1025726E-02
   7105.00  1.1731442E-02
   7105.33  1.2545157E-02
   7105.67  1.3477020E-02
   7106.00  1.4551462E-02
   7106.33  1.5828334E-02
   7106.67  1.7335898E-02
   7107.00  1.9132947E-02
   7107.33  2.1362746E-02
   7107.67  2.4115710E-02
   7108.00  2.7564169E-02
   7108.33  3.2137069E-02
   7108.67  3.8201212E-02
   7109.00  4.6441026E-02
   7109.33  5.8688140E-02
   7109.67  7.7151599E-02
   7110.00  1.0618345E-01
   7110.33  1.5840619E-01
   7110.67  2.4667101E-01
   7111.00  3.6878831E-01
   7111.33  4.6992981E-01
   7111.67  5.1331063E-01
   7112.00  4.7858522E-01
   7112.33  3.9092196E-01
   7112.67  3.2206076E-01
   7113.00  2.7298176E-01
   7113.33  2.2500486E-01
   7113.67  1.7874308E-01
   7114.00  1.3994447E-01
   7114.33  1.1244937E-01
   7114.67  9.4193435E-02
   7115.00  8.3413572E-02
   7115.33  7.7238729E-02
   7115.67  7.0253184E-02
   7116.00  6.2101846E-02
   7116.33  5.6105132E-02
   7116.67  5.2205177E-02
   7117.00  4.8923428E-02
   7117.33  4.5740249E-02
   7117.67  4.3261376E-02
   7118.00  4.1744624E-02
   7118.33  4.1291110E-02
   7118.67  4.1698113E-02
   7119.00  4.2907940E-02
   7119.33  4.4997977E-02
   7119.67  4.7940300E-02
   7120.00  5.1906145E-02
   7120.33  5.7430057E-02
   7120.67  6.4865077E-02
   7121.00  7.4793390E-02
   7121.33  8.8511324E-02
   7121.67  1.0607478E-01
   7122.00  1.2540672E-01
   7122.33  1.3812118E-01
   7122.67  1.3986385E-01
   7123.00  1.3470758E-01
   7123.33  1.2942469E-01
   7123.67  1.2760838E-01
   7124.00  1.3035125E-01
   7124.33  1.3877430E-01
   7124.67  1.5254518E-01
   7125.00  1.7198966E-01
   7125.33  1.9841441E-01
   7125.67  2.3141867E-01
   7126.00  2.7047530E-01
   7126.33  3.1248071E-01
   7126.67  3.4952783E-01
   7127.00  3.7493461E-01
   7127.33  3.8572566E-01
   7127.67  3.8700017E-01
   7128.00  3.8168939E-01
   7128.33  3.7480479E-01
   7128.67  3.7247611E-01
   7129.00  3.7738110E-01
   7129.33  3.9128764E-01
   7129.67  4.1300847E-01
   7130.00  4.4178063E-01
   7130.33  4.7700528E-01
   7130.67  5.1688897E-01
   7131.00  5.6110395E-01
   7131.33  6.1068528E-01
   7131.67  6.6603648E-01
   7132.00  7.2758136E-01
   7132.33  7.9248048E-01
   7132.67  8.4764475E-01
   7133.00  8.7613674E-01
   7133.33  8.6968011E-01
   7133.67  8.5375821E-01
   7134.00  8.4685017E-01
   7134.33  8.5859532E-01
   7134.67  8.8758925E-01
   7135.00  9.3482702E-01
   7135.33  1.0060528E+00
   7135.67  1.1004461E+00
   7136.00  1.2109750E+00
   7136.33  1.3026689E+00
   7136.67  1.3250405E+00
   7137.00  1.2593874E+00
   7137.33  1.1367375E+00
   7137.67  1.0133793E+00
   7138.00  9.0974867E-01
   7138.33  8.3211930E-01
   7138.67  7.7322509E-01
   7139.00  7.2876123E-01
   7139.33  6.9613709E-01
   7139.67  6.7138270E-01
   7140.00  6.5298628E-01
   7140.33  6.4044319E-01
   7140.67  6.3239429E-01
   7141.00  6.2847245E-01
   7141.33  6.2891206E-01
   7141.67  6.3308085E-01
   7142.00  6.4086416E-01
   7142.33  6.5249096E-01
   7142.67  6.6718246E-01
   7143.00  6.8440074E-01
   7143.33  7.0326602E-01
   7143.67  7.2198826E-01
   7144.00  7.3881298E-01
   7144.33  7.5103753E-01
   7144.67  7.5733208E-01
   7145.00  7.5681945E-01
   7145.33  7.4872933E-01
   7145.67  7.3503369E-01
   7146.00  7.1721557E-01
   7146.33  6.9683646E-01
   7146.67  6.7578666E-01
   7147.00  6.5510777E-01
   7147.33  6.3574964E-01
   7147.67  6.1799285E-01
   7148.00  6.0198168E-01
   7148.33  5.8793109E-01
   7148.67  5.7549081E-01
   7149.00  5.6448705E-01
   7149.33  5.5484081E-01
   7149.67  5.4615101E-01
   7150.00  5.3820053E-01
   7150.33  5.3081335E-01
   7150.67  5.2370306E-01
   7151.00  5.1669009E-01
   7151.33  5.0956947E-01
   7151.67  5.0217932E-01
   7152.00  4.9438871E-01
   7152.33  4.8600276E-01
   7152.67  4.7698657E-01
   7153.00  4.6727956E-01
   7153.33  4.5675529E-01
   7153.67  4.4549567E-01
   7154.00  4.3351580E-01
   7154.33  4.2078627E-01
   7154.67  4.0748973E-01
   7155.00  3.9375978E-01
   7155.33  3.7979354E-01
   7155.67  3.6586839E-01
   7156.00  3.5220289E-01
   7156.33  3.3912137E-01
   7156.67  3.2680268E-01
   7157.00  3.1542109E-01
   7157.33  3.0526419E-01
   7157.67  2.9628883E-01
   7158.00  2.8852917E-01
   7158.33  2.8213013E-01
   7158.67  2.7689663E-01
   7159.00  2.7276908E-01
   7159.33  2.6978822E-01
   7159.67  2.6773161E-01
   7160.00  2.6651810E-01
   7160.33  2.6615379E-01
   7160.67  2.6646731E-01
   7161.00  2.6740424E-01
   7161.33  2.6898902E-01
   7161.67  2.7112063E-01
   7162.00  2.7378862E-01
   7162.33  2.7705963E-01
   7162.67  2.8087003E-01
   7163.00  2.8521928E-01
   7163.33  2.9015204E-01
   7163.67  2.9553997E-01
   7164.00  3.0127841E-01
   7164.33  3.0720266E-01
   7164.67  3.1305624E-01
   7165.00  3.1862584E-01
   7165.33  3.2363265E-01
   7165.67  3.2799539E-01
   7166.00  3.3166369E-01
   7166.33  3.3457717E-01
   7166.67  3.3691096E-01
   7167.00  3.3877602E-01
   7167.33  3.4027504E-01
   7167.67  3.4158809E-01
   7168.00  3.4282150E-01
   7168.33  3.4408326E-01
   7168.67  3.4545437E-01
   7169.00  3.4699039E-01
   7169.33  3.4876411E-01
   7169.67  3.5077674E-01
   7170.00  3.5303670E-01
   7170.33  3.5556402E-01
   7170.67  3.5829431E-01
   7171.00  3.6117106E-01
   7171.33  3.6408296E-01
   7171.67  3.6682112E-01
   7172.00  3.6912276E-01
