    FDMNES
    energy     <xanes>
   7097.00  4.1822198E-03
   7097.33  4.2590296E-03
   7097.67  4.3384513E-03
   7098.00  4.4206232E-03
   7098.33  4.5060866E-03
   7098.67  4.5946686E-03
   7099.00  4.6865497E-03
   7099.33  4.7824028E-03
   7099.67  4.8820430E-03
   7100.00  4.9857133E-03
   7100.33  5.0942710E-03
   7100.67  5.2075259E-03
   7101.00  5.3258161E-03
   7101.33  5.4502697E-03
   7101.67  5.5807069E-03
   7102.00  5.7176190E-03
   7102.33  5.8625520E-03
   7102.67  6.0153747E-03
   7103.00  6.1768403E-03
   7103.33  6.3491818E-03
   7103.67  6.5324089E-03
   7104.00  6.7277570E-03
   7104.33  6.9386826E-03
   7104.67  7.1655687E-03
   7105.00  7.4106263E-03
   7105.33  7.6797200E-03
   7105.67  7.9742499E-03
   7106.00  8.2986480E-03
   7106.33  8.6641854E-03
   7106.67  9.0753023E-03
   7107.00  9.5423634E-03
   7107.33  1.0091153E-02
   7107.67  1.0736848E-02
   7108.00  1.1509681E-02
   7108.33  1.2485869E-02
   7108.67  1.3730486E-02
   7109.00  1.5367319E-02
   7109.33  1.7733394E-02
   7109.67  2.1250612E-02
   7110.00  2.6759846E-02
   7110.33  3.6642457E-02
   7110.67  5.2324487E-02
   7111.00  6.8787801E-02
   7111.33  7.2925535E-02
   7111.67  7.5003119E-02
   7112.00  8.1500588E-02
   7112.33  8.5085070E-02
   7112.67  8.0375271E-02
   7113.00  7.1710449E-02
   7113.33  6.1522274E-02
   7113.67  5.2465742E-02
   7114.00  4.5871598E-02
   7114.33  4.1053488E-02
   7114.67  3.7438059E-02
   7115.00  3.5297168E-02
   7115.33  3.4636293E-02
   7115.67  3.5016934E-02
   7116.00  3.6305987E-02
   7116.33  3.8572332E-02
   7116.67  4.1771991E-02
   7117.00  4.6024275E-02
   7117.33  5.1643762E-02
   7117.67  5.8594224E-02
   7118.00  6.6952493E-02
   7118.33  7.7137461E-02
   7118.67  8.9080166E-02
   7119.00  1.0220837E-01
   7119.33  1.1467576E-01
   7119.67  1.2459921E-01
   7120.00  1.3141949E-01
   7120.33  1.3611178E-01
   7120.67  1.4114952E-01
   7121.00  1.4831595E-01
   7121.33  1.5956694E-01
   7121.67  1.7540024E-01
   7122.00  1.9635344E-01
   7122.33  2.2363081E-01
   7122.67  2.5676084E-01
   7123.00  2.9532458E-01
   7123.33  3.3809508E-01
   7123.67  3.8149517E-01
   7124.00  4.2224137E-01
   7124.33  4.5689017E-01
   7124.67  4.8617246E-01
   7125.00  5.1211959E-01
   7125.33  5.3841246E-01
   7125.67  5.6842451E-01
   7126.00  6.0243210E-01
   7126.33  6.3637089E-01
   7126.67  6.6518571E-01
   7127.00  6.8746603E-01
   7127.33  7.0442224E-01
   7127.67  7.1920912E-01
   7128.00  7.3309698E-01
   7128.33  7.4616541E-01
   7128.67  7.5760096E-01
   7129.00  7.6642085E-01
   7129.33  7.7212344E-01
   7129.67  7.7617749E-01
   7130.00  7.7949857E-01
   7130.33  7.8218939E-01
   7130.67  7.8488028E-01
   7131.00  7.8915309E-01
   7131.33  7.9622768E-01
   7131.67  8.0417303E-01
   7132.00  8.1095044E-01
   7132.33  8.1500886E-01
   7132.67  8.1673733E-01
   7133.00  8.1670259E-01
   7133.33  8.1550273E-01
   7133.67  8.1372671E-01
   7134.00  8.1107415E-01
   7134.33  8.0587448E-01
   7134.67  7.9718931E-01
   7135.00  7.8514241E-01
   7135.33  7.7057832E-01
   7135.67  7.5498333E-01
   7136.00  7.3908492E-01
   7136.33  7.2338373E-01
   7136.67  7.0805874E-01
   7137.00  6.9314671E-01
   7137.33  6.7863942E-01
   7137.67  6.6437728E-01
   7138.00  6.5025508E-01
   7138.33  6.3619067E-01
   7138.67  6.2214710E-01
   7139.00  6.0814940E-01
   7139.33  5.9429402E-01
   7139.67  5.8068505E-01
   7140.00  5.6744092E-01
   7140.33  5.5476104E-01
   7140.67  5.4270415E-01
   7141.00  5.3135513E-01
   7141.33  5.2088274E-01
   7141.67  5.1123170E-01
   7142.00  5.0241672E-01
   7142.33  4.9453590E-01
   7142.67  4.8745916E-01
   7143.00  4.8115065E-01
   7143.33  4.7564585E-01
   7143.67  4.7079449E-01
   7144.00  4.6654439E-01
   7144.33  4.6290928E-01
   7144.67  4.5977539E-01
   7145.00  4.5711119E-01
   7145.33  4.5494228E-01
   7145.67  4.5319073E-01
   7146.00  4.5184134E-01
   7146.33  4.5093016E-01
   7146.67  4.5040284E-01
   7147.00  4.5026204E-01
   7147.33  4.5057143E-01
   7147.67  4.5130516E-01
   7148.00  4.5248909E-01
   7148.33  4.5421099E-01
   7148.67  4.5642271E-01
   7149.00  4.5910715E-01
   7149.33  4.6224520E-01
   7149.67  4.6564791E-01
   7150.00  4.6913612E-01
   7150.33  4.7241702E-01
   7150.67  4.7520641E-01
   7151.00  4.7724401E-01
   7151.33  4.7815770E-01
   7151.67  4.7793741E-01
   7152.00  4.7658017E-01
   7152.33  4.7407604E-01
   7152.67  4.7075832E-01
   7153.00  4.6683854E-01
   7153.33  4.6252231E-01
   7153.67  4.5805621E-01
   7154.00  4.5356021E-01
   7154.33  4.4912734E-01
   7154.67  4.4479422E-01
   7155.00  4.4057509E-01
   7155.33  4.3648247E-01
   7155.67  4.3248970E-01
   7156.00  4.2858154E-01
   7156.33  4.2474585E-01
   7156.67  4.2095576E-01
   7157.00  4.1719934E-01
   7157.33  4.1347280E-01
   7157.67  4.0977516E-01
   7158.00  4.0611779E-01
   7158.33  4.0253350E-01
   7158.67  3.9905246E-01
   7159.00  3.9571757E-01
   7159.33  3.9261093E-01
   7159.67  3.8976917E-01
   7160.00  3.8724761E-01
   7160.33  3.8515761E-01
   7160.67  3.8351077E-01
   7161.00  3.8235236E-01
   7161.33  3.8179132E-01
   7161.67  3.8179132E-01
   7162.00  3.8236874E-01
   7162.33  3.8360561E-01
   7162.67  3.8542004E-01
   7163.00  3.8778935E-01
   7163.33  3.9073594E-01
   7163.67  3.9414049E-01
   7164.00  3.9794638E-01
   7164.33  4.0211861E-01
   7164.67  4.0653348E-01
   7165.00  4.1111938E-01
   7165.33  4.1580678E-01
   7165.67  4.2050317E-01
   7166.00  4.2514868E-01
   7166.33  4.2968212E-01
   7166.67  4.3408415E-01
   7167.00  4.3833857E-01
   7167.33  4.4241712E-01
   7167.67  4.4633611E-01
   7168.00  4.5009814E-01
   7168.33  4.5369470E-01
   7168.67  4.5715509E-01
   7169.00  4.6048625E-01
   7169.33  4.6367645E-01
   7169.67  4.6673979E-01
   7170.00  4.6966987E-01
   7170.33  4.7243473E-01
   7170.67  4.7503218E-01
   7171.00  4.7744000E-01
   7171.33  4.7959692E-01
   7171.67  4.8146826E-01
   7172.00  4.8297292E-01
