    FDMNES
    energy     <xanes>
   7097.00  4.9141445E-03
   7097.33  5.0282311E-03
   7097.67  5.1474720E-03
   7098.00  5.2722179E-03
   7098.33  5.4036652E-03
   7098.67  5.5415732E-03
   7099.00  5.6864214E-03
   7099.33  5.8397775E-03
   7099.67  6.0013975E-03
   7100.00  6.1719541E-03
   7100.33  6.3535578E-03
   7100.67  6.5459862E-03
   7101.00  6.7502148E-03
   7101.33  6.9691752E-03
   7101.67  7.2027242E-03
   7102.00  7.4523302E-03
   7102.33  7.7222246E-03
   7102.67  8.0124702E-03
   7103.00  8.3253817E-03
   7103.33  8.6673585E-03
   7103.67  9.0389613E-03
   7104.00  9.4440503E-03
   7104.33  9.8928903E-03
   7104.67  1.0387243E-02
   7105.00  1.0934027E-02
   7105.33  1.1550999E-02
   7105.67  1.2242973E-02
   7106.00  1.3023567E-02
   7106.33  1.3926764E-02
   7106.67  1.4965909E-02
   7107.00  1.6171498E-02
   7107.33  1.7618457E-02
   7107.67  1.9347987E-02
   7108.00  2.1442450E-02
   7108.33  2.4106188E-02
   7108.67  2.7496974E-02
   7109.00  3.1913471E-02
   7109.33  3.8143618E-02
   7109.67  4.7073774E-02
   7110.00  6.0443519E-02
   7110.33  8.3254769E-02
   7110.67  1.2073918E-01
   7111.00  1.7348488E-01
   7111.33  2.2101346E-01
   7111.67  2.4727520E-01
   7112.00  2.7170240E-01
   7112.33  3.2594188E-01
   7112.67  3.8227134E-01
   7113.00  3.8667941E-01
   7113.33  3.2118266E-01
   7113.67  2.4599294E-01
   7114.00  1.9145062E-01
   7114.33  1.6007369E-01
   7114.67  1.4363710E-01
   7115.00  1.4149021E-01
   7115.33  1.5628624E-01
   7115.67  1.8883482E-01
   7116.00  2.3943114E-01
   7116.33  2.9093838E-01
   7116.67  3.1615477E-01
   7117.00  3.2039137E-01
   7117.33  3.1567517E-01
   7117.67  2.9754046E-01
   7118.00  2.6644586E-01
   7118.33  2.3330139E-01
   7118.67  2.0528295E-01
   7119.00  1.8198369E-01
   7119.33  1.6208925E-01
   7119.67  1.4568204E-01
   7120.00  1.3313877E-01
   7120.33  1.2406848E-01
   7120.67  1.1735522E-01
   7121.00  1.1273967E-01
   7121.33  1.1008615E-01
   7121.67  1.0861426E-01
   7122.00  1.0788720E-01
   7122.33  1.0814219E-01
   7122.67  1.1012231E-01
   7123.00  1.1434890E-01
   7123.33  1.2081864E-01
   7123.67  1.2861442E-01
   7124.00  1.3757592E-01
   7124.33  1.4921659E-01
   7124.67  1.6538099E-01
   7125.00  1.8752041E-01
   7125.33  2.1782322E-01
   7125.67  2.5645711E-01
   7126.00  3.0376308E-01
   7126.33  3.5840852E-01
   7126.67  4.1202271E-01
   7127.00  4.5523428E-01
   7127.33  4.8041957E-01
   7127.67  4.9212964E-01
   7128.00  4.9411813E-01
   7128.33  4.8994892E-01
   7128.67  4.8574467E-01
   7129.00  4.8595273E-01
   7129.33  4.9406862E-01
   7129.67  5.0888353E-01
   7130.00  5.2882995E-01
   7130.33  5.5261822E-01
   7130.67  5.7930212E-01
   7131.00  6.0904542E-01
   7131.33  6.4169731E-01
   7131.67  6.7498604E-01
   7132.00  7.0640133E-01
   7132.33  7.3250634E-01
   7132.67  7.5212124E-01
   7133.00  7.6511243E-01
   7133.33  7.7230111E-01
   7133.67  7.7678666E-01
   7134.00  7.8066336E-01
   7134.33  7.8567989E-01
   7134.67  7.9188251E-01
   7135.00  7.9816032E-01
   7135.33  8.0212694E-01
   7135.67  8.0211030E-01
   7136.00  7.9719746E-01
   7136.33  7.8657604E-01
   7136.67  7.7136985E-01
   7137.00  7.5235406E-01
   7137.33  7.3042691E-01
   7137.67  7.0740164E-01
   7138.00  6.8467484E-01
   7138.33  6.6408141E-01
   7138.67  6.4675057E-01
   7139.00  6.3350888E-01
   7139.33  6.2529893E-01
   7139.67  6.2121798E-01
   7140.00  6.2043818E-01
   7140.33  6.2189799E-01
   7140.67  6.2407233E-01
   7141.00  6.2614959E-01
   7141.33  6.2752100E-01
   7141.67  6.2807684E-01
   7142.00  6.2780721E-01
   7142.33  6.2668680E-01
   7142.67  6.2492998E-01
   7143.00  6.2266513E-01
   7143.33  6.1999847E-01
   7143.67  6.1708702E-01
   7144.00  6.1397846E-01
   7144.33  6.1067661E-01
   7144.67  6.0725919E-01
   7145.00  6.0384067E-01
   7145.33  6.0065056E-01
   7145.67  5.9788337E-01
   7146.00  5.9568976E-01
   7146.33  5.9425982E-01
   7146.67  5.9354545E-01
   7147.00  5.9353438E-01
   7147.33  5.9425715E-01
   7147.67  5.9555506E-01
   7148.00  5.9733484E-01
   7148.33  5.9950167E-01
   7148.67  6.0185397E-01
   7149.00  6.0423226E-01
   7149.33  6.0640042E-01
   7149.67  6.0816241E-01
   7150.00  6.0934281E-01
   7150.33  6.0967790E-01
   7150.67  6.0913405E-01
   7151.00  6.0764388E-01
   7151.33  6.0507090E-01
   7151.67  6.0158826E-01
   7152.00  5.9728170E-01
   7152.33  5.9219138E-01
   7152.67  5.8655157E-01
   7153.00  5.8049515E-01
   7153.33  5.7414084E-01
   7153.67  5.6766422E-01
   7154.00  5.6117765E-01
   7154.33  5.5480956E-01
   7154.67  5.4864409E-01
   7155.00  5.4275290E-01
   7155.33  5.3724610E-01
   7155.67  5.3212878E-01
   7156.00  5.2742703E-01
   7156.33  5.2320794E-01
   7156.67  5.1941363E-01
   7157.00  5.1602692E-01
   7157.33  5.1305957E-01
   7157.67  5.1041592E-01
   7158.00  5.0804489E-01
   7158.33  5.0590583E-01
   7158.67  5.0390283E-01
   7159.00  5.0197628E-01
   7159.33  5.0006363E-01
   7159.67  4.9810986E-01
   7160.00  4.9608070E-01
   7160.33  4.9393904E-01
   7160.67  4.9168951E-01
   7161.00  4.8933759E-01
   7161.33  4.8689197E-01
   7161.67  4.8438993E-01
   7162.00  4.8185351E-01
   7162.33  4.7929947E-01
   7162.67  4.7673683E-01
   7163.00  4.7416059E-01
   7163.33  4.7155799E-01
   7163.67  4.6892511E-01
   7164.00  4.6625919E-01
   7164.33  4.6355699E-01
   7164.67  4.6082764E-01
   7165.00  4.5808225E-01
   7165.33  4.5534285E-01
   7165.67  4.5263585E-01
   7166.00  4.4998721E-01
   7166.33  4.4743835E-01
   7166.67  4.4500651E-01
   7167.00  4.4271368E-01
   7167.33  4.4060182E-01
   7167.67  4.3866793E-01
   7168.00  4.3692303E-01
   7168.33  4.3540142E-01
   7168.67  4.3408467E-01
   7169.00  4.3297184E-01
   7169.33  4.3207887E-01
   7169.67  4.3136989E-01
   7170.00  4.3083096E-01
   7170.33  4.3045806E-01
   7170.67  4.3020527E-01
   7171.00  4.3004635E-01
   7171.33  4.2995702E-01
   7171.67  4.2989763E-01
   7172.00  4.2984347E-01
