    FDMNES
    energy     <xanes>
   7097.00  5.0460195E-03
   7097.33  5.1661101E-03
   7097.67  5.2916441E-03
   7098.00  5.4229890E-03
   7098.33  5.5614039E-03
   7098.67  5.7066306E-03
   7099.00  5.8591706E-03
   7099.33  6.0206704E-03
   7099.67  6.1908671E-03
   7100.00  6.3704635E-03
   7100.33  6.5616718E-03
   7100.67  6.7642509E-03
   7101.00  6.9792188E-03
   7101.33  7.2096443E-03
   7101.67  7.4553690E-03
   7102.00  7.7179261E-03
   7102.33  8.0017430E-03
   7102.67  8.3068804E-03
   7103.00  8.6357607E-03
   7103.33  8.9950899E-03
   7103.67  9.3854652E-03
   7104.00  9.8109502E-03
   7104.33  1.0282351E-02
   7104.67  1.0801586E-02
   7105.00  1.1376016E-02
   7105.33  1.2024528E-02
   7105.67  1.2752480E-02
   7106.00  1.3574653E-02
   7106.33  1.4527919E-02
   7106.67  1.5627615E-02
   7107.00  1.6907996E-02
   7107.33  1.8453428E-02
   7107.67  2.0313712E-02
   7108.00  2.2586959E-02
   7108.33  2.5519139E-02
   7108.67  2.9317140E-02
   7109.00  3.4373419E-02
   7109.33  4.1750826E-02
   7109.67  5.2760176E-02
   7110.00  7.0012500E-02
   7110.33  1.0098475E-01
   7110.67  1.5124302E-01
   7111.00  2.0945651E-01
   7111.33  2.3049357E-01
   7111.67  2.2216751E-01
   7112.00  2.0668609E-01
   7112.33  1.9609833E-01
   7112.67  2.0188239E-01
   7113.00  2.3064584E-01
   7113.33  2.9068482E-01
   7113.67  3.7779807E-01
   7114.00  4.6974313E-01
   7114.33  4.6862775E-01
   7114.67  3.7065720E-01
   7115.00  2.6723461E-01
   7115.33  2.0278766E-01
   7115.67  1.6449998E-01
   7116.00  1.4330824E-01
   7116.33  1.3431065E-01
   7116.67  1.3316087E-01
   7117.00  1.3874040E-01
   7117.33  1.5108215E-01
   7117.67  1.6807875E-01
   7118.00  1.8744057E-01
   7118.33  2.0611984E-01
   7118.67  2.2155598E-01
   7119.00  2.3141494E-01
   7119.33  2.3409945E-01
   7119.67  2.3311575E-01
   7120.00  2.3177546E-01
   7120.33  2.3325426E-01
   7120.67  2.3891527E-01
   7121.00  2.4964142E-01
   7121.33  2.6621470E-01
   7121.67  2.8555437E-01
   7122.00  3.0261981E-01
   7122.33  3.1150083E-01
   7122.67  3.1536649E-01
   7123.00  3.1947374E-01
   7123.33  3.2730168E-01
   7123.67  3.3742930E-01
   7124.00  3.4774715E-01
   7124.33  3.5550345E-01
   7124.67  3.6011551E-01
   7125.00  3.6355533E-01
   7125.33  3.7033635E-01
   7125.67  3.8361555E-01
   7126.00  4.0489518E-01
   7126.33  4.3468275E-01
   7126.67  4.6899362E-01
   7127.00  5.0367567E-01
   7127.33  5.3359064E-01
   7127.67  5.5650948E-01
   7128.00  5.7175660E-01
   7128.33  5.7959348E-01
   7128.67  5.8342430E-01
   7129.00  5.8547482E-01
   7129.33  5.8658645E-01
   7129.67  5.8607317E-01
   7130.00  5.8356128E-01
   7130.33  5.8058756E-01
   7130.67  5.8012298E-01
   7131.00  5.8424140E-01
   7131.33  5.9471870E-01
   7131.67  6.1071173E-01
   7132.00  6.3143199E-01
   7132.33  6.5559619E-01
   7132.67  6.8037219E-01
   7133.00  7.0330007E-01
   7133.33  7.2116730E-01
   7133.67  7.3282150E-01
   7134.00  7.3787905E-01
   7134.33  7.3636085E-01
   7134.67  7.3061381E-01
   7135.00  7.2215686E-01
   7135.33  7.1220446E-01
   7135.67  7.0177564E-01
   7136.00  6.9127507E-01
   7136.33  6.8096686E-01
   7136.67  6.7095635E-01
   7137.00  6.6132731E-01
   7137.33  6.5222999E-01
   7137.67  6.4366333E-01
   7138.00  6.3563344E-01
   7138.33  6.2816126E-01
   7138.67  6.2109275E-01
   7139.00  6.1431103E-01
   7139.33  6.0766322E-01
   7139.67  6.0096221E-01
   7140.00  5.9409154E-01
   7140.33  5.8696548E-01
   7140.67  5.7964943E-01
   7141.00  5.7221469E-01
   7141.33  5.6471305E-01
   7141.67  5.5715717E-01
   7142.00  5.4953507E-01
   7142.33  5.4184913E-01
   7142.67  5.3415665E-01
   7143.00  5.2653018E-01
   7143.33  5.1910135E-01
   7143.67  5.1197278E-01
   7144.00  5.0524353E-01
   7144.33  4.9906578E-01
   7144.67  4.9345119E-01
   7145.00  4.8844714E-01
   7145.33  4.8416135E-01
   7145.67  4.8050503E-01
   7146.00  4.7743768E-01
   7146.33  4.7493766E-01
   7146.67  4.7282728E-01
   7147.00  4.7099990E-01
   7147.33  4.6936854E-01
   7147.67  4.6784407E-01
   7148.00  4.6641417E-01
   7148.33  4.6513471E-01
   7148.67  4.6407352E-01
   7149.00  4.6332577E-01
   7149.33  4.6306728E-01
   7149.67  4.6336206E-01
   7150.00  4.6430201E-01
   7150.33  4.6607368E-01
   7150.67  4.6864755E-01
   7151.00  4.7203079E-01
   7151.33  4.7623609E-01
   7151.67  4.8097533E-01
   7152.00  4.8597624E-01
   7152.33  4.9079681E-01
   7152.67  4.9498024E-01
   7153.00  4.9814457E-01
   7153.33  4.9979832E-01
   7153.67  4.9997668E-01
   7154.00  4.9872779E-01
   7154.33  4.9609716E-01
   7154.67  4.9251305E-01
   7155.00  4.8821806E-01
   7155.33  4.8340684E-01
   7155.67  4.7833882E-01
   7156.00  4.7314594E-01
   7156.33  4.6793929E-01
   7156.67  4.6279972E-01
   7157.00  4.5777642E-01
   7157.33  4.5293211E-01
   7157.67  4.4827908E-01
   7158.00  4.4383954E-01
   7158.33  4.3966586E-01
   7158.67  4.3574969E-01
   7159.00  4.3210881E-01
   7159.33  4.2880137E-01
   7159.67  4.2581139E-01
   7160.00  4.2315575E-01
   7160.33  4.2089547E-01
   7160.67  4.1899911E-01
   7161.00  4.1747119E-01
   7161.33  4.1635425E-01
   7161.67  4.1558898E-01
   7162.00  4.1515163E-01
   7162.33  4.1503562E-01
   7162.67  4.1514964E-01
   7163.00  4.1543791E-01
   7163.33  4.1584400E-01
   7163.67  4.1628938E-01
   7164.00  4.1672536E-01
   7164.33  4.1709915E-01
   7164.67  4.1738593E-01
   7165.00  4.1757040E-01
   7165.33  4.1763410E-01
   7165.67  4.1759817E-01
   7166.00  4.1747723E-01
   7166.33  4.1728629E-01
   7166.67  4.1705979E-01
   7167.00  4.1682226E-01
   7167.33  4.1660503E-01
   7167.67  4.1643481E-01
   7168.00  4.1633581E-01
   7168.33  4.1634694E-01
   7168.67  4.1648075E-01
   7169.00  4.1675685E-01
   7169.33  4.1721554E-01
   7169.67  4.1785242E-01
   7170.00  4.1867661E-01
   7170.33  4.1971439E-01
   7170.67  4.2093154E-01
   7171.00  4.2230304E-01
   7171.33  4.2377847E-01
   7171.67  4.2522158E-01
   7172.00  4.2646164E-01
