    FDMNES
    energy     <xanes>
   7097.00  5.2311020E-03
   7097.33  5.3512230E-03
   7097.67  5.4766236E-03
   7098.00  5.6076487E-03
   7098.33  5.7454992E-03
   7098.67  5.8899079E-03
   7099.00  6.0413397E-03
   7099.33  6.2013484E-03
   7099.67  6.3696536E-03
   7100.00  6.5468975E-03
   7100.33  6.7351394E-03
   7100.67  6.9341042E-03
   7101.00  7.1447048E-03
   7101.33  7.3697492E-03
   7101.67  7.6090093E-03
   7102.00  7.8638280E-03
   7102.33  8.1381671E-03
   7102.67  8.4319387E-03
   7103.00  8.7472019E-03
   7103.33  9.0897838E-03
   7103.67  9.4599478E-03
   7104.00  9.8610160E-03
   7104.33  1.0302018E-02
   7104.67  1.0784066E-02
   7105.00  1.1312878E-02
   7105.33  1.1903416E-02
   7105.67  1.2558909E-02
   7106.00  1.3290066E-02
   7106.33  1.4124015E-02
   7106.67  1.5069697E-02
   7107.00  1.6149656E-02
   7107.33  1.7419754E-02
   7107.67  1.8906675E-02
   7108.00  2.0666809E-02
   7108.33  2.2839841E-02
   7108.67  2.5522047E-02
   7109.00  2.8899457E-02
   7109.33  3.3455642E-02
   7109.67  3.9689397E-02
   7110.00  4.8576097E-02
   7110.33  6.2889573E-02
   7110.67  8.5673918E-02
   7111.00  1.1894614E-01
   7111.33  1.5693767E-01
   7111.67  1.8543123E-01
   7112.00  2.0881223E-01
   7112.33  2.4240754E-01
   7112.67  2.7944972E-01
   7113.00  3.0901742E-01
   7113.33  3.4058982E-01
   7113.67  3.8536678E-01
   7114.00  4.4436123E-01
   7114.33  4.8210976E-01
   7114.67  4.7271427E-01
   7115.00  4.1725480E-01
   7115.33  3.4625883E-01
   7115.67  2.9041619E-01
   7116.00  2.5471167E-01
   7116.33  2.3719083E-01
   7116.67  2.3000514E-01
   7117.00  2.2727898E-01
   7117.33  2.1972173E-01
   7117.67  2.0404705E-01
   7118.00  1.8533114E-01
   7118.33  1.7070995E-01
   7118.67  1.6172941E-01
   7119.00  1.5777614E-01
   7119.33  1.5757111E-01
   7119.67  1.5864026E-01
   7120.00  1.5947978E-01
   7120.33  1.5911996E-01
   7120.67  1.5788594E-01
   7121.00  1.5644561E-01
   7121.33  1.5584755E-01
   7121.67  1.5689067E-01
   7122.00  1.6024914E-01
   7122.33  1.6694902E-01
   7122.67  1.7694926E-01
   7123.00  1.9020712E-01
   7123.33  2.0674942E-01
   7123.67  2.2551992E-01
   7124.00  2.4551552E-01
   7124.33  2.6510082E-01
   7124.67  2.8280574E-01
   7125.00  2.9803004E-01
   7125.33  3.1108239E-01
   7125.67  3.2371289E-01
   7126.00  3.3728807E-01
   7126.33  3.5314308E-01
   7126.67  3.7159367E-01
   7127.00  3.9294742E-01
   7127.33  4.1788952E-01
   7127.67  4.4618747E-01
   7128.00  4.7785984E-01
   7128.33  5.1319715E-01
   7128.67  5.5158188E-01
   7129.00  5.9274505E-01
   7129.33  6.3615166E-01
   7129.67  6.7983554E-01
   7130.00  7.2148505E-01
   7130.33  7.5717813E-01
   7130.67  7.8491839E-01
   7131.00  8.0402907E-01
   7131.33  8.1486146E-01
   7131.67  8.2117844E-01
   7132.00  8.2583318E-01
   7132.33  8.3172586E-01
   7132.67  8.4018283E-01
   7133.00  8.5123435E-01
   7133.33  8.6384452E-01
   7133.67  8.7583079E-01
   7134.00  8.8537066E-01
   7134.33  8.9016999E-01
   7134.67  8.8950847E-01
   7135.00  8.8269001E-01
   7135.33  8.6846002E-01
   7135.67  8.4763277E-01
   7136.00  8.2058620E-01
   7136.33  7.8761156E-01
   7136.67  7.5085713E-01
   7137.00  7.1193297E-01
   7137.33  6.7285478E-01
   7137.67  6.3556841E-01
   7138.00  6.0146659E-01
   7138.33  5.7228841E-01
   7138.67  5.4817807E-01
   7139.00  5.2934571E-01
   7139.33  5.1628666E-01
   7139.67  5.0787773E-01
   7140.00  5.0351777E-01
   7140.33  5.0280831E-01
   7140.67  5.0454402E-01
   7141.00  5.0810247E-01
   7141.33  5.1300681E-01
   7141.67  5.1858975E-01
   7142.00  5.2448537E-01
   7142.33  5.3033454E-01
   7142.67  5.3584601E-01
   7143.00  5.4079911E-01
   7143.33  5.4487176E-01
   7143.67  5.4797367E-01
   7144.00  5.4997651E-01
   7144.33  5.5062681E-01
   7144.67  5.5002888E-01
   7145.00  5.4819165E-01
   7145.33  5.4503310E-01
   7145.67  5.4081804E-01
   7146.00  5.3568525E-01
   7146.33  5.2973907E-01
   7146.67  5.2328486E-01
   7147.00  5.1651333E-01
   7147.33  5.0963251E-01
   7147.67  5.0286503E-01
   7148.00  4.9637886E-01
   7148.33  4.9040787E-01
   7148.67  4.8504840E-01
   7149.00  4.8041268E-01
   7149.33  4.7671138E-01
   7149.67  4.7392191E-01
   7150.00  4.7209359E-01
   7150.33  4.7138440E-01
   7150.67  4.7167787E-01
   7151.00  4.7296031E-01
   7151.33  4.7530719E-01
   7151.67  4.7852893E-01
   7152.00  4.8254821E-01
   7152.33  4.8733967E-01
   7152.67  4.9267914E-01
   7153.00  4.9842963E-01
   7153.33  5.0445020E-01
   7153.67  5.1053801E-01
   7154.00  5.1655216E-01
   7154.33  5.2232007E-01
   7154.67  5.2775268E-01
   7155.00  5.3277760E-01
   7155.33  5.3728689E-01
   7155.67  5.4131725E-01
   7156.00  5.4486937E-01
   7156.33  5.4790878E-01
   7156.67  5.5053009E-01
   7157.00  5.5276991E-01
   7157.33  5.5462838E-01
   7157.67  5.5618682E-01
   7158.00  5.5747447E-01
   7158.33  5.5849042E-01
   7158.67  5.5928980E-01
   7159.00  5.5989151E-01
   7159.33  5.6029361E-01
   7159.67  5.6053773E-01
   7160.00  5.6064088E-01
   7160.33  5.6060905E-01
   7160.67  5.6047951E-01
   7161.00  5.6027184E-01
   7161.33  5.6000108E-01
   7161.67  5.5969374E-01
   7162.00  5.5936400E-01
   7162.33  5.5902325E-01
   7162.67  5.5867959E-01
   7163.00  5.5833428E-01
   7163.33  5.5798221E-01
   7163.67  5.5761256E-01
   7164.00  5.5721022E-01
   7164.33  5.5674426E-01
   7164.67  5.5619071E-01
   7165.00  5.5552261E-01
   7165.33  5.5469157E-01
   7165.67  5.5368483E-01
   7166.00  5.5247597E-01
   7166.33  5.5100702E-01
   7166.67  5.4928223E-01
   7167.00  5.4728525E-01
   7167.33  5.4496674E-01
   7167.67  5.4235495E-01
   7168.00  5.3944985E-01
   7168.33  5.3622422E-01
   7168.67  5.3273097E-01
   7169.00  5.2899095E-01
   7169.33  5.2500751E-01
   7169.67  5.2084602E-01
   7170.00  5.1654672E-01
   7170.33  5.1215638E-01
   7170.67  5.0775703E-01
   7171.00  5.0342838E-01
   7171.33  4.9932639E-01
   7171.67  4.9563666E-01
   7172.00  4.9261895E-01
