    FDMNES
    energy     <xanes>
   7097.00  4.3553893E-03
   7097.33  4.4463324E-03
   7097.67  4.5409750E-03
   7098.00  4.6395548E-03
   7098.33  4.7429079E-03
   7098.67  4.8508446E-03
   7099.00  4.9636890E-03
   7099.33  5.0825283E-03
   7099.67  5.2071708E-03
   7100.00  5.3380721E-03
   7100.33  5.4766885E-03
   7100.67  5.6228459E-03
   7101.00  5.7772088E-03
   7101.33  5.9417983E-03
   7101.67  6.1165029E-03
   7102.00  6.3023341E-03
   7102.33  6.5022221E-03
   7102.67  6.7162188E-03
   7103.00  6.9459456E-03
   7103.33  7.1958856E-03
   7103.67  7.4664898E-03
   7104.00  7.7605293E-03
   7104.33  8.0853394E-03
   7104.67  8.4423569E-03
   7105.00  8.8367125E-03
   7105.33  9.2814894E-03
   7105.67  9.7807029E-03
   7106.00  1.0344895E-02
   7106.33  1.1000212E-02
   7106.67  1.1758167E-02
   7107.00  1.2643696E-02
   7107.33  1.3717952E-02
   7107.67  1.5018181E-02
   7108.00  1.6616581E-02
   7108.33  1.8693328E-02
   7108.67  2.1400357E-02
   7109.00  2.5022901E-02
   7109.33  3.0325608E-02
   7109.67  3.8230149E-02
   7110.00  5.0558838E-02
   7110.33  7.2626691E-02
   7110.67  1.0996318E-01
   7111.00  1.6125984E-01
   7111.33  1.9565721E-01
   7111.67  1.9770496E-01
   7112.00  1.8284268E-01
   7112.33  1.7882556E-01
   7112.67  1.8140354E-01
   7113.00  1.6878014E-01
   7113.33  1.4086582E-01
   7113.67  1.1979932E-01
   7114.00  1.0921727E-01
   7114.33  1.0152784E-01
   7114.67  8.8111855E-02
   7115.00  7.0527688E-02
   7115.33  5.7475384E-02
   7115.67  4.9550044E-02
   7116.00  4.5058906E-02
   7116.33  4.2872065E-02
   7116.67  4.2022719E-02
   7117.00  4.2174833E-02
   7117.33  4.3132942E-02
   7117.67  4.4516606E-02
   7118.00  4.6094852E-02
   7118.33  4.7810894E-02
   7118.67  4.9853783E-02
   7119.00  5.2486917E-02
   7119.33  5.6064079E-02
   7119.67  6.0680644E-02
   7120.00  6.6535825E-02
   7120.33  7.4128224E-02
   7120.67  8.3659597E-02
   7121.00  9.5553604E-02
   7121.33  1.1080715E-01
   7121.67  1.2983947E-01
   7122.00  1.5346343E-01
   7122.33  1.8330387E-01
   7122.67  2.1890606E-01
   7123.00  2.5895120E-01
   7123.33  2.9976441E-01
   7123.67  3.3731110E-01
   7124.00  3.7052909E-01
   7124.33  4.0039110E-01
   7124.67  4.2917179E-01
   7125.00  4.5819008E-01
   7125.33  4.8844901E-01
   7125.67  5.1917161E-01
   7126.00  5.4844665E-01
   7126.33  5.7346370E-01
   7126.67  5.9421098E-01
   7127.00  6.1166080E-01
   7127.33  6.2725463E-01
   7127.67  6.4323710E-01
   7128.00  6.6058790E-01
   7128.33  6.7806101E-01
   7128.67  6.9352332E-01
   7129.00  7.0637302E-01
   7129.33  7.1731889E-01
   7129.67  7.2862552E-01
   7130.00  7.4263889E-01
   7130.33  7.6267820E-01
   7130.67  7.8944271E-01
   7131.00  8.2234862E-01
   7131.33  8.5878870E-01
   7131.67  8.9330284E-01
   7132.00  9.2086298E-01
   7132.33  9.3519391E-01
   7132.67  9.3576113E-01
   7133.00  9.2343157E-01
   7133.33  9.0007366E-01
   7133.67  8.7092695E-01
   7134.00  8.3956841E-01
   7134.33  8.1018530E-01
   7134.67  7.8510858E-01
   7135.00  7.6432099E-01
   7135.33  7.4642383E-01
   7135.67  7.2963027E-01
   7136.00  7.1353695E-01
   7136.33  6.9837890E-01
   7136.67  6.8432804E-01
   7137.00  6.7153296E-01
   7137.33  6.6017774E-01
   7137.67  6.5001137E-01
   7138.00  6.4089782E-01
   7138.33  6.3274271E-01
   7138.67  6.2521755E-01
   7139.00  6.1813524E-01
   7139.33  6.1133797E-01
   7139.67  6.0466154E-01
   7140.00  5.9805426E-01
   7140.33  5.9154673E-01
   7140.67  5.8522474E-01
   7141.00  5.7921400E-01
   7141.33  5.7373525E-01
   7141.67  5.6887125E-01
   7142.00  5.6470562E-01
   7142.33  5.6136934E-01
   7142.67  5.5874931E-01
   7143.00  5.5680569E-01
   7143.33  5.5559490E-01
   7143.67  5.5502816E-01
   7144.00  5.5510770E-01
   7144.33  5.5593162E-01
   7144.67  5.5742771E-01
   7145.00  5.5957516E-01
   7145.33  5.6235094E-01
   7145.67  5.6549594E-01
   7146.00  5.6877239E-01
   7146.33  5.7182484E-01
   7146.67  5.7435105E-01
   7147.00  5.7612152E-01
   7147.33  5.7684302E-01
   7147.67  5.7655044E-01
   7148.00  5.7523171E-01
   7148.33  5.7278707E-01
   7148.67  5.6937111E-01
   7149.00  5.6499494E-01
   7149.33  5.5953864E-01
   7149.67  5.5312524E-01
   7150.00  5.4577539E-01
   7150.33  5.3743764E-01
   7150.67  5.2831992E-01
   7151.00  5.1853277E-01
   7151.33  5.0815441E-01
   7151.67  4.9739336E-01
   7152.00  4.8636171E-01
   7152.33  4.7515057E-01
   7152.67  4.6386005E-01
   7153.00  4.5253626E-01
   7153.33  4.4121228E-01
   7153.67  4.2990332E-01
   7154.00  4.1861521E-01
   7154.33  4.0735660E-01
   7154.67  3.9613810E-01
   7155.00  3.8498387E-01
   7155.33  3.7394263E-01
   7155.67  3.6304914E-01
   7156.00  3.5235749E-01
   7156.33  3.4197798E-01
   7156.67  3.3196033E-01
   7157.00  3.2237996E-01
   7157.33  3.1338931E-01
   7157.67  3.0500573E-01
   7158.00  2.9729409E-01
   7158.33  2.9041204E-01
   7158.67  2.8432225E-01
   7159.00  2.7906425E-01
   7159.33  2.7478473E-01
   7159.67  2.7140390E-01
   7160.00  2.6893944E-01
   7160.33  2.6752134E-01
   7160.67  2.6703966E-01
   7161.00  2.6749261E-01
   7161.33  2.6898238E-01
   7161.67  2.7136670E-01
   7162.00  2.7460894E-01
   7162.33  2.7874485E-01
   7162.67  2.8358577E-01
   7163.00  2.8904667E-01
   7163.33  2.9509130E-01
   7163.67  3.0154160E-01
   7164.00  3.0828736E-01
   7164.33  3.1522025E-01
   7164.67  3.2219636E-01
   7165.00  3.2912756E-01
   7165.33  3.3591538E-01
   7165.67  3.4250750E-01
   7166.00  3.4885746E-01
   7166.33  3.5489183E-01
   7166.67  3.6062297E-01
   7167.00  3.6604238E-01
   7167.33  3.7111279E-01
   7167.67  3.7588456E-01
   7168.00  3.8037392E-01
   7168.33  3.8457400E-01
   7168.67  3.8854779E-01
   7169.00  3.9232484E-01
   7169.33  3.9592127E-01
   7169.67  3.9939242E-01
   7170.00  4.0276503E-01
   7170.33  4.0605317E-01
   7170.67  4.0927525E-01
   7171.00  4.1241951E-01
   7171.33  4.1541442E-01
   7171.67  4.1814252E-01
   7172.00  4.2041069E-01
