    FDMNES
    energy     <xanes>
   7097.00  4.1521732E-03
   7097.33  4.2286461E-03
   7097.67  4.3077674E-03
   7098.00  4.3896823E-03
   7098.33  4.4749477E-03
   7098.67  4.5633950E-03
   7099.00  4.6552158E-03
   7099.33  4.7511084E-03
   7099.67  4.8508945E-03
   7100.00  4.9548345E-03
   7100.33  5.0638282E-03
   7100.67  5.1776956E-03
   7101.00  5.2968036E-03
   7101.33  5.4223510E-03
   7101.67  5.5541755E-03
   7102.00  5.6928175E-03
   7102.33  5.8399431E-03
   7102.67  5.9954533E-03
   7103.00  6.1601879E-03
   7103.33  6.3365906E-03
   7103.67  6.5247347E-03
   7104.00  6.7260155E-03
   7104.33  6.9442753E-03
   7104.67  7.1800330E-03
   7105.00  7.4358124E-03
   7105.33  7.7182304E-03
   7105.67  8.0290008E-03
   7106.00  8.3732221E-03
   7106.33  8.7637603E-03
   7106.67  9.2058617E-03
   7107.00  9.7114825E-03
   7107.33  1.0310225E-02
   7107.67  1.1019661E-02
   7108.00  1.1874495E-02
   7108.33  1.2961882E-02
   7108.67  1.4355648E-02
   7109.00  1.6195576E-02
   7109.33  1.8859768E-02
   7109.67  2.2813765E-02
   7110.00  2.8982724E-02
   7110.33  4.0023318E-02
   7110.67  5.8061722E-02
   7111.00  7.9733542E-02
   7111.33  8.9579998E-02
   7111.67  8.9936232E-02
   7112.00  8.9449619E-02
   7112.33  9.0756000E-02
   7112.67  9.0920890E-02
   7113.00  8.7886981E-02
   7113.33  8.0041107E-02
   7113.67  6.9486523E-02
   7114.00  5.8850654E-02
   7114.33  4.9713808E-02
   7114.67  4.2651892E-02
   7115.00  3.8147619E-02
   7115.33  3.5995016E-02
   7115.67  3.5237080E-02
   7116.00  3.5433845E-02
   7116.33  3.6323772E-02
   7116.67  3.7678219E-02
   7117.00  3.9519390E-02
   7117.33  4.2081133E-02
   7117.67  4.5496701E-02
   7118.00  4.9938377E-02
   7118.33  5.5628299E-02
   7118.67  6.2193889E-02
   7119.00  6.9066904E-02
   7119.33  7.5316225E-02
   7119.67  8.0544050E-02
   7120.00  8.4984061E-02
   7120.33  8.9438146E-02
   7120.67  9.4762733E-02
   7121.00  1.0145938E-01
   7121.33  1.1002879E-01
   7121.67  1.2051173E-01
   7122.00  1.3334841E-01
   7122.33  1.4985824E-01
   7122.67  1.7092599E-01
   7123.00  1.9787985E-01
   7123.33  2.3325269E-01
   7123.67  2.7721371E-01
   7124.00  3.2954584E-01
   7124.33  3.8836110E-01
   7124.67  4.4775157E-01
   7125.00  5.0224467E-01
   7125.33  5.4483114E-01
   7125.67  5.7408270E-01
   7126.00  5.9126324E-01
   7126.33  5.9957048E-01
   7126.67  6.0386926E-01
   7127.00  6.0676850E-01
   7127.33  6.1228150E-01
   7127.67  6.2514328E-01
   7128.00  6.4984146E-01
   7128.33  6.9183032E-01
   7128.67  7.4937302E-01
   7129.00  8.1957232E-01
   7129.33  8.9653047E-01
   7129.67  9.6993178E-01
   7130.00  1.0303334E+00
   7130.33  1.0657022E+00
   7130.67  1.0757597E+00
   7131.00  1.0638490E+00
   7131.33  1.0347652E+00
   7131.67  9.9506770E-01
   7132.00  9.4651423E-01
   7132.33  8.9057377E-01
   7132.67  8.3261181E-01
   7133.00  7.7783580E-01
   7133.33  7.3302184E-01
   7133.67  7.0068828E-01
   7134.00  6.8164077E-01
   7134.33  6.7542632E-01
   7134.67  6.7634819E-01
   7135.00  6.8007655E-01
   7135.33  6.8264615E-01
   7135.67  6.8268478E-01
   7136.00  6.8037439E-01
   7136.33  6.7635458E-01
   7136.67  6.7159288E-01
   7137.00  6.6653914E-01
   7137.33  6.6150642E-01
   7137.67  6.5665680E-01
   7138.00  6.5206061E-01
   7138.33  6.4777907E-01
   7138.67  6.4375741E-01
   7139.00  6.3995109E-01
   7139.33  6.3630534E-01
   7139.67  6.3272016E-01
   7140.00  6.2912635E-01
   7140.33  6.2544375E-01
   7140.67  6.2162498E-01
   7141.00  6.1762691E-01
   7141.33  6.1337209E-01
   7141.67  6.0883449E-01
   7142.00  6.0396236E-01
   7142.33  5.9864576E-01
   7142.67  5.9288093E-01
   7143.00  5.8663529E-01
   7143.33  5.7983201E-01
   7143.67  5.7255011E-01
   7144.00  5.6483268E-01
   7144.33  5.5671693E-01
   7144.67  5.4835633E-01
   7145.00  5.3985945E-01
   7145.33  5.3135653E-01
   7145.67  5.2297027E-01
   7146.00  5.1479016E-01
   7146.33  5.0693202E-01
   7146.67  4.9941068E-01
   7147.00  4.9224520E-01
   7147.33  4.8547196E-01
   7147.67  4.7900750E-01
   7148.00  4.7279887E-01
   7148.33  4.6679837E-01
   7148.67  4.6090436E-01
   7149.00  4.5504799E-01
   7149.33  4.4914758E-01
   7149.67  4.4313825E-01
   7150.00  4.3696763E-01
   7150.33  4.3055677E-01
   7150.67  4.2389031E-01
   7151.00  4.1694124E-01
   7151.33  4.0965049E-01
   7151.67  4.0204750E-01
   7152.00  3.9414010E-01
   7152.33  3.8592646E-01
   7152.67  3.7748538E-01
   7153.00  3.6886389E-01
   7153.33  3.6011865E-01
   7153.67  3.5134963E-01
   7154.00  3.4264019E-01
   7154.33  3.3411269E-01
   7154.67  3.2584952E-01
   7155.00  3.1793639E-01
   7155.33  3.1052329E-01
   7155.67  3.0364400E-01
   7156.00  2.9737160E-01
   7156.33  2.9187054E-01
   7156.67  2.8712751E-01
   7157.00  2.8320101E-01
   7157.33  2.8026506E-01
   7157.67  2.7826721E-01
   7158.00  2.7725108E-01
   7158.33  2.7738847E-01
   7158.67  2.7858517E-01
   7159.00  2.8086003E-01
   7159.33  2.8435492E-01
   7159.67  2.8891989E-01
   7160.00  2.9452387E-01
   7160.33  3.0123033E-01
   7160.67  3.0883384E-01
   7161.00  3.1724601E-01
   7161.33  3.2643403E-01
   7161.67  3.3617765E-01
   7162.00  3.4635027E-01
   7162.33  3.5680552E-01
   7162.67  3.6732883E-01
   7163.00  3.7779787E-01
   7163.33  3.8806404E-01
   7163.67  3.9803575E-01
   7164.00  4.0762845E-01
   7164.33  4.1670109E-01
   7164.67  4.2524195E-01
   7165.00  4.3320399E-01
   7165.33  4.4047647E-01
   7165.67  4.4712364E-01
   7166.00  4.5314906E-01
   7166.33  4.5849404E-01
   7166.67  4.6326576E-01
   7167.00  4.6750083E-01
   7167.33  4.7118776E-01
   7167.67  4.7444120E-01
   7168.00  4.7730862E-01
   7168.33  4.7980343E-01
   7168.67  4.8201872E-01
   7169.00  4.8399459E-01
   7169.33  4.8574752E-01
   7169.67  4.8733698E-01
   7170.00  4.8878724E-01
   7170.33  4.9010561E-01
   7170.67  4.9132146E-01
   7171.00  4.9244053E-01
   7171.33  4.9344659E-01
   7171.67  4.9433253E-01
   7172.00  4.9506740E-01
