    FDMNES
    energy     <xanes>
   7097.00  5.0398194E-03
   7097.33  5.1548350E-03
   7097.67  5.2749357E-03
   7098.00  5.4004594E-03
   7098.33  5.5325723E-03
   7098.67  5.6710253E-03
   7099.00  5.8162766E-03
   7099.33  5.9698439E-03
   7099.67  6.1314697E-03
   7100.00  6.3017919E-03
   7100.33  6.4828361E-03
   7100.67  6.6743577E-03
   7101.00  6.8772718E-03
   7101.33  7.0943648E-03
   7101.67  7.3254519E-03
   7102.00  7.5718948E-03
   7102.33  7.8376664E-03
   7102.67  8.1227475E-03
   7103.00  8.4292532E-03
   7103.33  8.7631032E-03
   7103.67  9.1246824E-03
   7104.00  9.5174558E-03
   7104.33  9.9507410E-03
   7104.67  1.0425894E-02
   7105.00  1.0948983E-02
   7105.33  1.1535740E-02
   7105.67  1.2189943E-02
   7106.00  1.2923187E-02
   7106.33  1.3764621E-02
   7106.67  1.4724597E-02
   7107.00  1.5828051E-02
   7107.33  1.7136448E-02
   7107.67  1.8680654E-02
   7108.00  2.0524303E-02
   7108.33  2.2824525E-02
   7108.67  2.5692450E-02
   7109.00  2.9340231E-02
   7109.33  3.4317160E-02
   7109.67  4.1189521E-02
   7110.00  5.1056530E-02
   7110.33  6.7048918E-02
   7110.67  9.2862744E-02
   7111.00  1.3210372E-01
   7111.33  1.8267795E-01
   7111.67  2.2886837E-01
   7112.00  2.6087699E-01
   7112.33  2.8515877E-01
   7112.67  3.0973204E-01
   7113.00  3.3521866E-01
   7113.33  3.5691674E-01
   7113.67  3.6931852E-01
   7114.00  3.7091977E-01
   7114.33  3.5228155E-01
   7114.67  3.1277276E-01
   7115.00  2.6583217E-01
   7115.33  2.2743707E-01
   7115.67  2.0031496E-01
   7116.00  1.8242192E-01
   7116.33  1.7057707E-01
   7116.67  1.6080660E-01
   7117.00  1.5193000E-01
   7117.33  1.4500738E-01
   7117.67  1.4117113E-01
   7118.00  1.4066888E-01
   7118.33  1.4310046E-01
   7118.67  1.4700888E-01
   7119.00  1.5153069E-01
   7119.33  1.5581016E-01
   7119.67  1.5909547E-01
   7120.00  1.6094263E-01
   7120.33  1.6140424E-01
   7120.67  1.6135533E-01
   7121.00  1.6120184E-01
   7121.33  1.6134533E-01
   7121.67  1.6268115E-01
   7122.00  1.6622159E-01
   7122.33  1.7319524E-01
   7122.67  1.8359176E-01
   7123.00  1.9731051E-01
   7123.33  2.1428457E-01
   7123.67  2.3388189E-01
   7124.00  2.5605775E-01
   7124.33  2.8088625E-01
   7124.67  3.0738233E-01
   7125.00  3.3448950E-01
   7125.33  3.6018774E-01
   7125.67  3.8227819E-01
   7126.00  3.9942067E-01
   7126.33  4.1209372E-01
   7126.67  4.2375799E-01
   7127.00  4.3656701E-01
   7127.33  4.5148647E-01
   7127.67  4.6741782E-01
   7128.00  4.8332841E-01
   7128.33  4.9889400E-01
   7128.67  5.1537551E-01
   7129.00  5.3452563E-01
   7129.33  5.5864300E-01
   7129.67  5.8780177E-01
   7130.00  6.2128254E-01
   7130.33  6.5717808E-01
   7130.67  6.9240115E-01
   7131.00  7.2470766E-01
   7131.33  7.5152731E-01
   7131.67  7.7245463E-01
   7132.00  7.8754605E-01
   7132.33  7.9724184E-01
   7132.67  8.0350394E-01
   7133.00  8.0699707E-01
   7133.33  8.0718775E-01
   7133.67  8.0396811E-01
   7134.00  7.9755581E-01
   7134.33  7.8892867E-01
   7134.67  7.7972020E-01
   7135.00  7.7055518E-01
   7135.33  7.6152570E-01
   7135.67  7.5239320E-01
   7136.00  7.4285244E-01
   7136.33  7.3228716E-01
   7136.67  7.2027064E-01
   7137.00  7.0653808E-01
   7137.33  6.9110389E-01
   7137.67  6.7496576E-01
   7138.00  6.5911837E-01
   7138.33  6.4489120E-01
   7138.67  6.3295024E-01
   7139.00  6.2369594E-01
   7139.33  6.1764042E-01
   7139.67  6.1435285E-01
   7140.00  6.1364027E-01
   7140.33  6.1544348E-01
   7140.67  6.1903064E-01
   7141.00  6.2391882E-01
   7141.33  6.2951359E-01
   7141.67  6.3497547E-01
   7142.00  6.3963757E-01
   7142.33  6.4262517E-01
   7142.67  6.4364733E-01
   7143.00  6.4252783E-01
   7143.33  6.3908157E-01
   7143.67  6.3387432E-01
   7144.00  6.2727251E-01
   7144.33  6.1960169E-01
   7144.67  6.1136623E-01
   7145.00  6.0281427E-01
   7145.33  5.9409521E-01
   7145.67  5.8527482E-01
   7146.00  5.7634598E-01
   7146.33  5.6728187E-01
   7146.67  5.5811346E-01
   7147.00  5.4889101E-01
   7147.33  5.3972130E-01
   7147.67  5.3072993E-01
   7148.00  5.2203572E-01
   7148.33  5.1381526E-01
   7148.67  5.0611115E-01
   7149.00  4.9898104E-01
   7149.33  4.9254734E-01
   7149.67  4.8675627E-01
   7150.00  4.8161644E-01
   7150.33  4.7721595E-01
   7150.67  4.7347929E-01
   7151.00  4.7041399E-01
   7151.33  4.6811404E-01
   7151.67  4.6649911E-01
   7152.00  4.6556477E-01
   7152.33  4.6537147E-01
   7152.67  4.6578961E-01
   7153.00  4.6675276E-01
   7153.33  4.6820615E-01
   7153.67  4.6995573E-01
   7154.00  4.7186388E-01
   7154.33  4.7376010E-01
   7154.67  4.7548284E-01
   7155.00  4.7690983E-01
   7155.33  4.7788044E-01
   7155.67  4.7837811E-01
   7156.00  4.7838070E-01
   7156.33  4.7784100E-01
   7156.67  4.7686728E-01
   7157.00  4.7552120E-01
   7157.33  4.7385229E-01
   7157.67  4.7198615E-01
   7158.00  4.6999820E-01
   7158.33  4.6796545E-01
   7158.67  4.6596437E-01
   7159.00  4.6404656E-01
   7159.33  4.6227643E-01
   7159.67  4.6067293E-01
   7160.00  4.5925775E-01
   7160.33  4.5807300E-01
   7160.67  4.5710104E-01
   7161.00  4.5634200E-01
   7161.33  4.5581418E-01
   7161.67  4.5547839E-01
   7162.00  4.5532014E-01
   7162.33  4.5534028E-01
   7162.67  4.5549921E-01
   7163.00  4.5578003E-01
   7163.33  4.5617486E-01
   7163.67  4.5664854E-01
   7164.00  4.5718809E-01
   7164.33  4.5779572E-01
   7164.67  4.5846289E-01
   7165.00  4.5919153E-01
   7165.33  4.5999577E-01
   7165.67  4.6087511E-01
   7166.00  4.6183656E-01
   7166.33  4.6289871E-01
   7166.67  4.6405581E-01
   7167.00  4.6530974E-01
   7167.33  4.6666983E-01
   7167.67  4.6811623E-01
   7168.00  4.6963766E-01
   7168.33  4.7122368E-01
   7168.67  4.7284567E-01
   7169.00  4.7448344E-01
   7169.33  4.7610920E-01
   7169.67  4.7769417E-01
   7170.00  4.7921226E-01
   7170.33  4.8062373E-01
   7170.67  4.8191602E-01
   7171.00  4.8307074E-01
   7171.33  4.8404954E-01
   7171.67  4.8485487E-01
   7172.00  4.8547449E-01
