    FDMNES
    energy     <xanes>
   7097.00  4.7220770E-03
   7097.33  4.8337566E-03
   7097.67  4.9507282E-03
   7098.00  5.0733785E-03
   7098.33  5.2029829E-03
   7098.67  5.3393338E-03
   7099.00  5.4829739E-03
   7099.33  5.6356144E-03
   7099.67  5.7970646E-03
   7100.00  5.9681090E-03
   7100.33  6.1511178E-03
   7100.67  6.3459609E-03
   7101.00  6.5538156E-03
   7101.33  6.7780892E-03
   7101.67  7.0188091E-03
   7102.00  7.2778209E-03
   7102.33  7.5602473E-03
   7102.67  7.8664907E-03
   7103.00  8.1995995E-03
   7103.33  8.5677101E-03
   7103.67  8.9721091E-03
   7104.00  9.4181675E-03
   7104.33  9.9197210E-03
   7104.67  1.0480219E-02
   7105.00  1.1109926E-02
   7105.33  1.1834518E-02
   7105.67  1.2663135E-02
   7106.00  1.3617597E-02
   7106.33  1.4751383E-02
   7106.67  1.6090480E-02
   7107.00  1.7688464E-02
   7107.33  1.9676148E-02
   7107.67  2.2138967E-02
   7108.00  2.5238946E-02
   7108.33  2.9381789E-02
   7108.67  3.4928458E-02
   7109.00  4.2554436E-02
   7109.33  5.4091724E-02
   7109.67  7.1845783E-02
   7110.00  1.0039993E-01
   7110.33  1.5307721E-01
   7110.67  2.4178413E-01
   7111.00  3.5217997E-01
   7111.33  3.8963353E-01
   7111.67  3.6594809E-01
   7112.00  3.4524091E-01
   7112.33  3.1647689E-01
   7112.67  2.6112113E-01
   7113.00  2.0022101E-01
   7113.33  1.5514121E-01
   7113.67  1.2451653E-01
   7114.00  1.0413157E-01
   7114.33  9.0365602E-02
   7114.67  7.9347024E-02
   7115.00  6.9959545E-02
   7115.33  6.3137440E-02
   7115.67  5.8916518E-02
   7116.00  5.6660580E-02
   7116.33  5.5771378E-02
   7116.67  5.5713428E-02
   7117.00  5.6363004E-02
   7117.33  5.7720253E-02
   7117.67  5.9619638E-02
   7118.00  6.1993064E-02
   7118.33  6.4867260E-02
   7118.67  6.8195169E-02
   7119.00  7.1966184E-02
   7119.33  7.6171923E-02
   7119.67  8.0690039E-02
   7120.00  8.5487377E-02
   7120.33  9.0668005E-02
   7120.67  9.6417772E-02
   7121.00  1.0308338E-01
   7121.33  1.1139577E-01
   7121.67  1.2181207E-01
   7122.00  1.3490867E-01
   7122.33  1.5176459E-01
   7122.67  1.7257551E-01
   7123.00  1.9775494E-01
   7123.33  2.2803867E-01
   7123.67  2.6247659E-01
   7124.00  3.0022362E-01
   7124.33  3.3998246E-01
   7124.67  3.7921201E-01
   7125.00  4.1477963E-01
   7125.33  4.4100293E-01
   7125.67  4.5576931E-01
   7126.00  4.5971351E-01
   7126.33  4.5678025E-01
   7126.67  4.5414669E-01
   7127.00  4.5611011E-01
   7127.33  4.6619792E-01
   7127.67  4.8459503E-01
   7128.00  5.1095673E-01
   7128.33  5.4308671E-01
   7128.67  5.7563713E-01
   7129.00  6.0511749E-01
   7129.33  6.2909642E-01
   7129.67  6.4801803E-01
   7130.00  6.6212804E-01
   7130.33  6.7148019E-01
   7130.67  6.7772699E-01
   7131.00  6.8223900E-01
   7131.33  6.8683501E-01
   7131.67  6.9318299E-01
   7132.00  7.0228622E-01
   7132.33  7.1475799E-01
   7132.67  7.2913309E-01
   7133.00  7.4343347E-01
   7133.33  7.5463367E-01
   7133.67  7.6181549E-01
   7134.00  7.6611095E-01
   7134.33  7.7038920E-01
   7134.67  7.7670505E-01
   7135.00  7.8504627E-01
   7135.33  7.9379073E-01
   7135.67  8.0073965E-01
   7136.00  8.0459761E-01
   7136.33  8.0453892E-01
   7136.67  8.0156163E-01
   7137.00  7.9645189E-01
   7137.33  7.8984271E-01
   7137.67  7.8237357E-01
   7138.00  7.7421114E-01
   7138.33  7.6533247E-01
   7138.67  7.5586860E-01
   7139.00  7.4592340E-01
   7139.33  7.3565458E-01
   7139.67  7.2532856E-01
   7140.00  7.1513349E-01
   7140.33  7.0528165E-01
   7140.67  6.9584314E-01
   7141.00  6.8685980E-01
   7141.33  6.7840201E-01
   7141.67  6.7040350E-01
   7142.00  6.6285057E-01
   7142.33  6.5579927E-01
   7142.67  6.4925045E-01
   7143.00  6.4325960E-01
   7143.33  6.3794931E-01
   7143.67  6.3331155E-01
   7144.00  6.2942295E-01
   7144.33  6.2647956E-01
   7144.67  6.2444103E-01
   7145.00  6.2331634E-01
   7145.33  6.2313733E-01
   7145.67  6.2361527E-01
   7146.00  6.2450216E-01
   7146.33  6.2542955E-01
   7146.67  6.2597836E-01
   7147.00  6.2581001E-01
   7147.33  6.2447951E-01
   7147.67  6.2192875E-01
   7148.00  6.1811847E-01
   7148.33  6.1298043E-01
   7148.67  6.0681363E-01
   7149.00  5.9976705E-01
   7149.33  5.9192637E-01
   7149.67  5.8354006E-01
   7150.00  5.7472636E-01
   7150.33  5.6554678E-01
   7150.67  5.5610660E-01
   7151.00  5.4643662E-01
   7151.33  5.3652158E-01
   7151.67  5.2638122E-01
   7152.00  5.1599896E-01
   7152.33  5.0531526E-01
   7152.67  4.9433681E-01
   7153.00  4.8304499E-01
   7153.33  4.7138656E-01
   7153.67  4.5940957E-01
   7154.00  4.4714259E-01
   7154.33  4.3462156E-01
   7154.67  4.2197465E-01
   7155.00  4.0931304E-01
   7155.33  3.9680858E-01
   7155.67  3.8461635E-01
   7156.00  3.7288757E-01
   7156.33  3.6186370E-01
   7156.67  3.5159737E-01
   7157.00  3.4216165E-01
   7157.33  3.3369465E-01
   7157.67  3.2606233E-01
   7158.00  3.1920404E-01
   7158.33  3.1310328E-01
   7158.67  3.0756182E-01
   7159.00  3.0248575E-01
   7159.33  2.9783095E-01
   7159.67  2.9349040E-01
   7160.00  2.8944210E-01
   7160.33  2.8573385E-01
   7160.67  2.8237330E-01
   7161.00  2.7942251E-01
   7161.33  2.7703271E-01
   7161.67  2.7523114E-01
   7162.00  2.7408279E-01
   7162.33  2.7373690E-01
   7162.67  2.7413951E-01
   7163.00  2.7529777E-01
   7163.33  2.7728821E-01
   7163.67  2.7997451E-01
   7164.00  2.8329964E-01
   7164.33  2.8725101E-01
   7164.67  2.9166739E-01
   7165.00  2.9646794E-01
   7165.33  3.0159587E-01
   7165.67  3.0692791E-01
   7166.00  3.1239974E-01
   7166.33  3.1796123E-01
   7166.67  3.2355810E-01
   7167.00  3.2916378E-01
   7167.33  3.3475854E-01
   7167.67  3.4033606E-01
   7168.00  3.4589594E-01
   7168.33  3.5144076E-01
   7168.67  3.5697878E-01
   7169.00  3.6251538E-01
   7169.33  3.6805490E-01
   7169.67  3.7359508E-01
   7170.00  3.7912688E-01
   7170.33  3.8462379E-01
   7170.67  3.9004688E-01
   7171.00  3.9533330E-01
   7171.33  4.0032133E-01
   7171.67  4.0480799E-01
   7172.00  4.0848670E-01
