    FDMNES
    energy     <xanes>
   7097.00  4.6977497E-03
   7097.33  4.7998321E-03
   7097.67  4.9060686E-03
   7098.00  5.0167127E-03
   7098.33  5.1326803E-03
   7098.67  5.2537380E-03
   7099.00  5.3802240E-03
   7099.33  5.5133065E-03
   7099.67  5.6527382E-03
   7100.00  5.7989812E-03
   7100.33  5.9535632E-03
   7100.67  6.1162352E-03
   7101.00  6.2876490E-03
   7101.33  6.4698618E-03
   7101.67  6.6626530E-03
   7102.00  6.8669766E-03
   7102.33  7.0857061E-03
   7102.67  7.3187177E-03
   7103.00  7.5674737E-03
   7103.33  7.8361743E-03
   7103.67  8.1249532E-03
   7104.00  8.4361828E-03
   7104.33  8.7763724E-03
   7104.67  9.1463023E-03
   7105.00  9.5501147E-03
   7105.33  9.9986979E-03
   7105.67  1.0494506E-02
   7106.00  1.1045502E-02
   7106.33  1.1671881E-02
   7106.67  1.2380809E-02
   7107.00  1.3189753E-02
   7107.33  1.4142023E-02
   7107.67  1.5260172E-02
   7108.00  1.6590534E-02
   7108.33  1.8248411E-02
   7108.67  2.0320226E-02
   7109.00  2.2970843E-02
   7109.33  2.6633855E-02
   7109.67  3.1786621E-02
   7110.00  3.9364013E-02
   7110.33  5.2055518E-02
   7110.67  7.2873340E-02
   7111.00  1.0356044E-01
   7111.33  1.3875197E-01
   7111.67  1.6493207E-01
   7112.00  1.7139821E-01
   7112.33  1.6464822E-01
   7112.67  1.6176394E-01
   7113.00  1.6384008E-01
   7113.33  1.6840669E-01
   7113.67  1.7493852E-01
   7114.00  1.7908747E-01
   7114.33  1.7068657E-01
   7114.67  1.5055544E-01
   7115.00  1.2905126E-01
   7115.33  1.1638893E-01
   7115.67  1.1230616E-01
   7116.00  1.1602590E-01
   7116.33  1.2918676E-01
   7116.67  1.5308863E-01
   7117.00  1.9026410E-01
   7117.33  2.4135121E-01
   7117.67  2.9026922E-01
   7118.00  3.1514769E-01
   7118.33  3.0833767E-01
   7118.67  2.9317129E-01
   7119.00  2.8207319E-01
   7119.33  2.7860243E-01
   7119.67  2.7943937E-01
   7120.00  2.8371148E-01
   7120.33  2.9352430E-01
   7120.67  3.0963541E-01
   7121.00  3.3059615E-01
   7121.33  3.5070738E-01
   7121.67  3.6496534E-01
   7122.00  3.7405570E-01
   7122.33  3.8185675E-01
   7122.67  3.9058182E-01
   7123.00  4.0004398E-01
   7123.33  4.0929615E-01
   7123.67  4.1756032E-01
   7124.00  4.2457105E-01
   7124.33  4.3114525E-01
   7124.67  4.3945049E-01
   7125.00  4.5108101E-01
   7125.33  4.6654497E-01
   7125.67  4.8361978E-01
   7126.00  5.0012964E-01
   7126.33  5.1386116E-01
   7126.67  5.2506034E-01
   7127.00  5.3512248E-01
   7127.33  5.4595139E-01
   7127.67  5.5807632E-01
   7128.00  5.7089286E-01
   7128.33  5.8275624E-01
   7128.67  5.9212214E-01
   7129.00  5.9833438E-01
   7129.33  6.0190120E-01
   7129.67  6.0505187E-01
   7130.00  6.0933547E-01
   7130.33  6.1557598E-01
   7130.67  6.2252267E-01
   7131.00  6.2870303E-01
   7131.33  6.3296739E-01
   7131.67  6.3583594E-01
   7132.00  6.3806966E-01
   7132.33  6.4045584E-01
   7132.67  6.4315579E-01
   7133.00  6.4567218E-01
   7133.33  6.4666508E-01
   7133.67  6.4511690E-01
   7134.00  6.4065869E-01
   7134.33  6.3375848E-01
   7134.67  6.2605844E-01
   7135.00  6.1836661E-01
   7135.33  6.1090423E-01
   7135.67  6.0356774E-01
   7136.00  5.9645120E-01
   7136.33  5.8985848E-01
   7136.67  5.8383647E-01
   7137.00  5.7827569E-01
   7137.33  5.7299953E-01
   7137.67  5.6788900E-01
   7138.00  5.6302509E-01
   7138.33  5.5865517E-01
   7138.67  5.5487782E-01
   7139.00  5.5171071E-01
   7139.33  5.4908226E-01
   7139.67  5.4666978E-01
   7140.00  5.4418398E-01
   7140.33  5.4121482E-01
   7140.67  5.3750780E-01
   7141.00  5.3289644E-01
   7141.33  5.2723333E-01
   7141.67  5.2078001E-01
   7142.00  5.1376098E-01
   7142.33  5.0644729E-01
   7142.67  4.9914865E-01
   7143.00  4.9204416E-01
   7143.33  4.8530676E-01
   7143.67  4.7897148E-01
   7144.00  4.7309160E-01
   7144.33  4.6781460E-01
   7144.67  4.6318092E-01
   7145.00  4.5928818E-01
   7145.33  4.5632456E-01
   7145.67  4.5420834E-01
   7146.00  4.5289437E-01
   7146.33  4.5234577E-01
   7146.67  4.5230403E-01
   7147.00  4.5260524E-01
   7147.33  4.5309676E-01
   7147.67  4.5363681E-01
   7148.00  4.5418669E-01
   7148.33  4.5477339E-01
   7148.67  4.5545790E-01
   7149.00  4.5631282E-01
   7149.33  4.5744787E-01
   7149.67  4.5888801E-01
   7150.00  4.6065605E-01
   7150.33  4.6278394E-01
   7150.67  4.6519166E-01
   7151.00  4.6782781E-01
   7151.33  4.7064461E-01
   7151.67  4.7355591E-01
   7152.00  4.7651252E-01
   7152.33  4.7947300E-01
   7152.67  4.8241667E-01
   7153.00  4.8534181E-01
   7153.33  4.8824763E-01
   7153.67  4.9114256E-01
   7154.00  4.9404590E-01
   7154.33  4.9697723E-01
   7154.67  4.9992134E-01
   7155.00  5.0283364E-01
   7155.33  5.0559878E-01
   7155.67  5.0808426E-01
   7156.00  5.1012897E-01
   7156.33  5.1145395E-01
   7156.67  5.1197296E-01
   7157.00  5.1159942E-01
   7157.33  5.1020417E-01
   7157.67  5.0797710E-01
   7158.00  5.0504228E-01
   7158.33  5.0151806E-01
   7158.67  4.9766644E-01
   7159.00  4.9364664E-01
   7159.33  4.8961537E-01
   7159.67  4.8569531E-01
   7160.00  4.8196262E-01
   7160.33  4.7850260E-01
   7160.67  4.7530327E-01
   7161.00  4.7235716E-01
   7161.33  4.6966697E-01
   7161.67  4.6717206E-01
   7162.00  4.6484679E-01
   7162.33  4.6268195E-01
   7162.67  4.6063816E-01
   7163.00  4.5870324E-01
   7163.33  4.5688454E-01
   7163.67  4.5517271E-01
   7164.00  4.5357695E-01
   7164.33  4.5212940E-01
   7164.67  4.5083117E-01
   7165.00  4.4969585E-01
   7165.33  4.4875764E-01
   7165.67  4.4800075E-01
   7166.00  4.4742319E-01
   7166.33  4.4703260E-01
   7166.67  4.4678166E-01
   7167.00  4.4663692E-01
   7167.33  4.4655644E-01
   7167.67  4.4647725E-01
   7168.00  4.4635040E-01
   7168.33  4.4611124E-01
   7168.67  4.4573110E-01
   7169.00  4.4518677E-01
   7169.33  4.4444561E-01
   7169.67  4.4353697E-01
   7170.00  4.4248078E-01
   7170.33  4.4129854E-01
   7170.67  4.4004940E-01
   7171.00  4.3877834E-01
   7171.33  4.3755216E-01
   7171.67  4.3644530E-01
   7172.00  4.3554142E-01
