    FDMNES
    energy     <xanes>
   7097.00  4.0459945E-03
   7097.33  4.1307434E-03
   7097.67  4.2190671E-03
   7098.00  4.3112091E-03
   7098.33  4.4080017E-03
   7098.67  4.5092818E-03
   7099.00  4.6153877E-03
   7099.33  4.7274205E-03
   7099.67  4.8452231E-03
   7100.00  4.9692807E-03
   7100.33  5.1010970E-03
   7100.67  5.2405471E-03
   7101.00  5.3883530E-03
   7101.33  5.5466483E-03
   7101.67  5.7153972E-03
   7102.00  5.8957228E-03
   7102.33  6.0907945E-03
   7102.67  6.3007935E-03
   7103.00  6.5275623E-03
   7103.33  6.7760791E-03
   7103.67  7.0470418E-03
   7104.00  7.3436755E-03
   7104.33  7.6743588E-03
   7104.67  8.0410558E-03
   7105.00  8.4498887E-03
   7105.33  8.9162519E-03
   7105.67  9.4454320E-03
   7106.00  1.0050337E-02
   7106.33  1.0762698E-02
   7106.67  1.1597551E-02
   7107.00  1.2586256E-02
   7107.33  1.3805400E-02
   7107.67  1.5303948E-02
   7108.00  1.7175175E-02
   7108.33  1.9651933E-02
   7108.67  2.2936714E-02
   7109.00  2.7407727E-02
   7109.33  3.4082229E-02
   7109.67  4.4207638E-02
   7110.00  6.0250328E-02
   7110.33  8.9405167E-02
   7110.67  1.3904659E-01
   7111.00  2.0701702E-01
   7111.33  2.5302561E-01
   7111.67  2.5850889E-01
   7112.00  2.3443526E-01
   7112.33  1.8663247E-01
   7112.67  1.3987978E-01
   7113.00  1.0629331E-01
   7113.33  8.7617121E-02
   7113.67  7.7710681E-02
   7114.00  7.0824801E-02
   7114.33  6.3260068E-02
   7114.67  5.6698718E-02
   7115.00  5.1352383E-02
   7115.33  4.6230448E-02
   7115.67  4.1706923E-02
   7116.00  3.8363005E-02
   7116.33  3.6324364E-02
   7116.67  3.5168504E-02
   7117.00  3.4651931E-02
   7117.33  3.4547181E-02
   7117.67  3.4620733E-02
   7118.00  3.4856529E-02
   7118.33  3.5394952E-02
   7118.67  3.6300996E-02
   7119.00  3.7580239E-02
   7119.33  3.9171062E-02
   7119.67  4.0880512E-02
   7120.00  4.2605774E-02
   7120.33  4.4369320E-02
   7120.67  4.6333338E-02
   7121.00  4.8688929E-02
   7121.33  5.1705135E-02
   7121.67  5.5435993E-02
   7122.00  5.9929340E-02
   7122.33  6.5296353E-02
   7122.67  7.1516693E-02
   7123.00  7.8794404E-02
   7123.33  8.7672243E-02
   7123.67  9.8351360E-02
   7124.00  1.1111855E-01
   7124.33  1.2656585E-01
   7124.67  1.4465021E-01
   7125.00  1.6550557E-01
   7125.33  1.8950444E-01
   7125.67  2.1628816E-01
   7126.00  2.4592920E-01
   7126.33  2.7899239E-01
   7126.67  3.1528189E-01
   7127.00  3.5512716E-01
   7127.33  4.0010947E-01
   7127.67  4.5094630E-01
   7128.00  5.0772144E-01
   7128.33  5.6730408E-01
   7128.67  6.2179944E-01
   7129.00  6.6529049E-01
   7129.33  6.9529010E-01
   7129.67  7.1783011E-01
   7130.00  7.3828357E-01
   7130.33  7.6135822E-01
   7130.67  7.8636630E-01
   7131.00  8.0948497E-01
   7131.33  8.2564631E-01
   7131.67  8.3506475E-01
   7132.00  8.4014769E-01
   7132.33  8.4477801E-01
   7132.67  8.5224343E-01
   7133.00  8.6377221E-01
   7133.33  8.7857854E-01
   7133.67  8.9287442E-01
   7134.00  9.0349336E-01
   7134.33  9.0756530E-01
   7134.67  9.0566772E-01
   7135.00  8.9881349E-01
   7135.33  8.8819508E-01
   7135.67  8.7537353E-01
   7136.00  8.6083003E-01
   7136.33  8.4491724E-01
   7136.67  8.2853004E-01
   7137.00  8.1239379E-01
   7137.33  7.9735529E-01
   7137.67  7.8378468E-01
   7138.00  7.7192188E-01
   7138.33  7.6210842E-01
   7138.67  7.5410078E-01
   7139.00  7.4781022E-01
   7139.33  7.4325645E-01
   7139.67  7.4001137E-01
   7140.00  7.3783722E-01
   7140.33  7.3653567E-01
   7140.67  7.3572640E-01
   7141.00  7.3519655E-01
   7141.33  7.3475930E-01
   7141.67  7.3426943E-01
   7142.00  7.3365907E-01
   7142.33  7.3287482E-01
   7142.67  7.3193388E-01
   7143.00  7.3084579E-01
   7143.33  7.2960206E-01
   7143.67  7.2821281E-01
   7144.00  7.2665053E-01
   7144.33  7.2482136E-01
   7144.67  7.2265343E-01
   7145.00  7.2003241E-01
   7145.33  7.1672796E-01
   7145.67  7.1265850E-01
   7146.00  7.0770665E-01
   7146.33  7.0166462E-01
   7146.67  6.9463664E-01
   7147.00  6.8665752E-01
   7147.33  6.7770258E-01
   7147.67  6.6799415E-01
   7148.00  6.5764765E-01
   7148.33  6.4675297E-01
   7148.67  6.3552383E-01
   7149.00  6.2407319E-01
   7149.33  6.1249710E-01
   7149.67  6.0090035E-01
   7150.00  5.8934675E-01
   7150.33  5.7790798E-01
   7150.67  5.6661730E-01
   7151.00  5.5550738E-01
   7151.33  5.4463738E-01
   7151.67  5.3400937E-01
   7152.00  5.2364710E-01
   7152.33  5.1361810E-01
   7152.67  5.0392389E-01
   7153.00  4.9460628E-01
   7153.33  4.8577534E-01
   7153.67  4.7744871E-01
   7154.00  4.6970671E-01
   7154.33  4.6272265E-01
   7154.67  4.5647918E-01
   7155.00  4.5100335E-01
   7155.33  4.4636499E-01
   7155.67  4.4238021E-01
   7156.00  4.3892275E-01
   7156.33  4.3585192E-01
   7156.67  4.3292079E-01
   7157.00  4.2994629E-01
   7157.33  4.2671097E-01
   7157.67  4.2310387E-01
   7158.00  4.1903320E-01
   7158.33  4.1434723E-01
   7158.67  4.0905266E-01
   7159.00  4.0311282E-01
   7159.33  3.9641932E-01
   7159.67  3.8905213E-01
   7160.00  3.8102632E-01
   7160.33  3.7230505E-01
   7160.67  3.6303288E-01
   7161.00  3.5329105E-01
   7161.33  3.4315948E-01
   7161.67  3.3283313E-01
   7162.00  3.2246071E-01
   7162.33  3.1225283E-01
   7162.67  3.0239205E-01
   7163.00  2.9304382E-01
   7163.33  2.8447377E-01
   7163.67  2.7675496E-01
   7164.00  2.7000350E-01
   7164.33  2.6445712E-01
   7164.67  2.6004757E-01
   7165.00  2.5680040E-01
   7165.33  2.5485635E-01
   7165.67  2.5403422E-01
   7166.00  2.5428060E-01
   7166.33  2.5563563E-01
   7166.67  2.5787836E-01
   7167.00  2.6091911E-01
   7167.33  2.6473796E-01
   7167.67  2.6913890E-01
   7168.00  2.7402580E-01
   7168.33  2.7934590E-01
   7168.67  2.8496129E-01
   7169.00  2.9079981E-01
   7169.33  2.9680064E-01
   7169.67  3.0287159E-01
   7170.00  3.0895115E-01
   7170.33  3.1495879E-01
   7170.67  3.2082230E-01
   7171.00  3.2645707E-01
   7171.33  3.3167617E-01
   7171.67  3.3629368E-01
   7172.00  3.4002095E-01
