    FDMNES
    energy     <xanes>
   7097.00  4.9062697E-03
   7097.33  5.0241244E-03
   7097.67  5.1474562E-03
   7098.00  5.2766485E-03
   7098.33  5.4129918E-03
   7098.67  5.5562458E-03
   7099.00  5.7069396E-03
   7099.33  5.8667788E-03
   7099.67  6.0355262E-03
   7100.00  6.2139321E-03
   7100.33  6.4043153E-03
   7100.67  6.6064744E-03
   7101.00  6.8215094E-03
   7101.33  7.0526796E-03
   7101.67  7.2998911E-03
   7102.00  7.5648218E-03
   7102.33  7.8522389E-03
   7102.67  8.1623165E-03
   7103.00  8.4977369E-03
   7103.33  8.8658214E-03
   7103.67  9.2673787E-03
   7104.00  9.7069525E-03
   7104.33  1.0196489E-02
   7104.67  1.0738320E-02
   7105.00  1.1340726E-02
   7105.33  1.2024763E-02
   7105.67  1.2796638E-02
   7106.00  1.3672935E-02
   7106.33  1.4694765E-02
   7106.67  1.5879193E-02
   7107.00  1.7264005E-02
   7107.33  1.8941671E-02
   7107.67  2.0964842E-02
   7108.00  2.3437133E-02
   7108.33  2.6615179E-02
   7108.67  3.0700691E-02
   7109.00  3.6073003E-02
   7109.33  4.3731666E-02
   7109.67  5.4805121E-02
   7110.00  7.1502213E-02
   7110.33  1.0019021E-01
   7110.67  1.4778856E-01
   7111.00  2.1586886E-01
   7111.33  2.7893433E-01
   7111.67  3.2413094E-01
   7112.00  3.7300886E-01
   7112.33  4.3098244E-01
   7112.67  4.5042909E-01
   7113.00  3.9743819E-01
   7113.33  3.0459392E-01
   7113.67  2.2796487E-01
   7114.00  1.7677849E-01
   7114.33  1.5140830E-01
   7114.67  1.4588461E-01
   7115.00  1.5707470E-01
   7115.33  1.7086608E-01
   7115.67  1.6369432E-01
   7116.00  1.3824401E-01
   7116.33  1.1424169E-01
   7116.67  9.8352349E-02
   7117.00  8.9490970E-02
   7117.33  8.5931715E-02
   7117.67  8.5111770E-02
   7118.00  8.5779348E-02
   7118.33  8.7326029E-02
   7118.67  8.9806572E-02
   7119.00  9.3544656E-02
   7119.33  9.8729214E-02
   7119.67  1.0529124E-01
   7120.00  1.1348526E-01
   7120.33  1.2302280E-01
   7120.67  1.3203521E-01
   7121.00  1.3959619E-01
   7121.33  1.4768629E-01
   7121.67  1.5925607E-01
   7122.00  1.7538722E-01
   7122.33  1.9622522E-01
   7122.67  2.2042134E-01
   7123.00  2.4778121E-01
   7123.33  2.7873034E-01
   7123.67  3.1060458E-01
   7124.00  3.3946192E-01
   7124.33  3.6085225E-01
   7124.67  3.7459054E-01
   7125.00  3.8198173E-01
   7125.33  3.8601435E-01
   7125.67  3.9065036E-01
   7126.00  3.9821192E-01
   7126.33  4.1089896E-01
   7126.67  4.2826817E-01
   7127.00  4.4905042E-01
   7127.33  4.7170788E-01
   7127.67  4.9600905E-01
   7128.00  5.2319002E-01
   7128.33  5.5472165E-01
   7128.67  5.8961208E-01
   7129.00  6.2646513E-01
   7129.33  6.6314194E-01
   7129.67  6.9755218E-01
   7130.00  7.2858432E-01
   7130.33  7.5612758E-01
   7130.67  7.8192157E-01
   7131.00  8.0641245E-01
   7131.33  8.2716099E-01
   7131.67  8.4002855E-01
   7132.00  8.4093709E-01
   7132.33  8.2683258E-01
   7132.67  8.0352019E-01
   7133.00  7.7737672E-01
   7133.33  7.5580410E-01
   7133.67  7.4185311E-01
   7134.00  7.3531190E-01
   7134.33  7.3396852E-01
   7134.67  7.3415603E-01
   7135.00  7.3413515E-01
   7135.33  7.3241249E-01
   7135.67  7.2875020E-01
   7136.00  7.2393274E-01
   7136.33  7.1949876E-01
   7136.67  7.1614025E-01
   7137.00  7.1361746E-01
   7137.33  7.1125849E-01
   7137.67  7.0844700E-01
   7138.00  7.0485593E-01
   7138.33  7.0011210E-01
   7138.67  6.9419020E-01
   7139.00  6.8704516E-01
   7139.33  6.7855430E-01
   7139.67  6.6887243E-01
   7140.00  6.5793481E-01
   7140.33  6.4552780E-01
   7140.67  6.3204557E-01
   7141.00  6.1804310E-01
   7141.33  6.0452761E-01
   7141.67  5.9245162E-01
   7142.00  5.8253068E-01
   7142.33  5.7565196E-01
   7142.67  5.7168524E-01
   7143.00  5.7051735E-01
   7143.33  5.7191847E-01
   7143.67  5.7462937E-01
   7144.00  5.7745942E-01
   7144.33  5.7858124E-01
   7144.67  5.7666037E-01
   7145.00  5.7087061E-01
   7145.33  5.6067815E-01
   7145.67  5.4755962E-01
   7146.00  5.3291759E-01
   7146.33  5.1844745E-01
   7146.67  5.0543875E-01
   7147.00  4.9455836E-01
   7147.33  4.8638930E-01
   7147.67  4.8057738E-01
   7148.00  4.7694177E-01
   7148.33  4.7543939E-01
   7148.67  4.7551764E-01
   7149.00  4.7690022E-01
   7149.33  4.7941008E-01
   7149.67  4.8265595E-01
   7150.00  4.8644537E-01
   7150.33  4.9064571E-01
   7150.67  4.9508212E-01
   7151.00  4.9967803E-01
   7151.33  5.0438430E-01
   7151.67  5.0913873E-01
   7152.00  5.1389171E-01
   7152.33  5.1855203E-01
   7152.67  5.2301346E-01
   7153.00  5.2714545E-01
   7153.33  5.3070801E-01
   7153.67  5.3358215E-01
   7154.00  5.3562798E-01
   7154.33  5.3660959E-01
   7154.67  5.3659532E-01
   7155.00  5.3560149E-01
   7155.33  5.3359613E-01
   7155.67  5.3081886E-01
   7156.00  5.2739507E-01
   7156.33  5.2340201E-01
   7156.67  5.1902004E-01
   7157.00  5.1432472E-01
   7157.33  5.0934422E-01
   7157.67  5.0414671E-01
   7158.00  4.9875121E-01
   7158.33  4.9314983E-01
   7158.67  4.8738056E-01
   7159.00  4.8146164E-01
   7159.33  4.7541055E-01
   7159.67  4.6928668E-01
   7160.00  4.6313512E-01
   7160.33  4.5701854E-01
   7160.67  4.5099520E-01
   7161.00  4.4511605E-01
   7161.33  4.3945700E-01
   7161.67  4.3403146E-01
   7162.00  4.2885562E-01
   7162.33  4.2395833E-01
   7162.67  4.1929229E-01
   7163.00  4.1483673E-01
   7163.33  4.1058626E-01
   7163.67  4.0649078E-01
   7164.00  4.0253170E-01
   7164.33  3.9871099E-01
   7164.67  3.9500955E-01
   7165.00  3.9143252E-01
   7165.33  3.8801147E-01
   7165.67  3.8474915E-01
   7166.00  3.8166575E-01
   7166.33  3.7881219E-01
   7166.67  3.7618811E-01
   7167.00  3.7381295E-01
   7167.33  3.7173923E-01
   7167.67  3.6994849E-01
   7168.00  3.6844957E-01
   7168.33  3.6728371E-01
   7168.67  3.6641151E-01
   7169.00  3.6582627E-01
   7169.33  3.6554949E-01
   7169.67  3.6552896E-01
   7170.00  3.6574519E-01
   7170.33  3.6619691E-01
   7170.67  3.6682474E-01
   7171.00  3.6759301E-01
   7171.33  3.6845369E-01
   7171.67  3.6930246E-01
   7172.00  3.7002073E-01
