    FDMNES
    energy     <xanes>
   7097.00  4.2919872E-03
   7097.33  4.3772557E-03
   7097.67  4.4658306E-03
   7098.00  4.5579163E-03
   7098.33  4.6542471E-03
   7098.67  4.7546432E-03
   7099.00  4.8593816E-03
   7099.33  4.9694092E-03
   7099.67  5.0845420E-03
   7100.00  5.2051670E-03
   7100.33  5.3325419E-03
   7100.67  5.4664944E-03
   7101.00  5.6075857E-03
   7101.33  5.7575466E-03
   7101.67  5.9162535E-03
   7102.00  6.0845556E-03
   7102.33  6.2649426E-03
   7102.67  6.4574221E-03
   7103.00  6.6633492E-03
   7103.33  6.8865053E-03
   7103.67  7.1272242E-03
   7104.00  7.3878133E-03
   7104.33  7.6744223E-03
   7104.67  7.9881970E-03
   7105.00  8.3334005E-03
   7105.33  8.7209518E-03
   7105.67  9.1541330E-03
   7106.00  9.6416987E-03
   7106.33  1.0205421E-02
   7106.67  1.0854823E-02
   7107.00  1.1610647E-02
   7107.33  1.2523842E-02
   7107.67  1.3625480E-02
   7108.00  1.4975896E-02
   7108.33  1.6725904E-02
   7108.67  1.9003495E-02
   7109.00  2.2049330E-02
   7109.33  2.6510722E-02
   7109.67  3.3175492E-02
   7110.00  4.3604057E-02
   7110.33  6.2323484E-02
   7110.67  9.3654160E-02
   7111.00  1.3475252E-01
   7111.33  1.5803355E-01
   7111.67  1.5818226E-01
   7112.00  1.5533993E-01
   7112.33  1.5770588E-01
   7112.67  1.5404364E-01
   7113.00  1.3927166E-01
   7113.33  1.2146178E-01
   7113.67  1.0070581E-01
   7114.00  8.0142292E-02
   7114.33  6.6049912E-02
   7114.67  5.6739943E-02
   7115.00  4.9278906E-02
   7115.33  4.3076514E-02
   7115.67  3.9061032E-02
   7116.00  3.6986738E-02
   7116.33  3.6478953E-02
   7116.67  3.6985436E-02
   7117.00  3.8229316E-02
   7117.33  3.9870529E-02
   7117.67  4.1515450E-02
   7118.00  4.3115219E-02
   7118.33  4.4998758E-02
   7118.67  4.7518888E-02
   7119.00  5.0878672E-02
   7119.33  5.5304523E-02
   7119.67  6.0765850E-02
   7120.00  6.7398250E-02
   7120.33  7.5775025E-02
   7120.67  8.6431540E-02
   7121.00  1.0015449E-01
   7121.33  1.1829601E-01
   7121.67  1.4102797E-01
   7122.00  1.6865537E-01
   7122.33  2.0151149E-01
   7122.67  2.3774721E-01
   7123.00  2.7559071E-01
   7123.33  3.1306432E-01
   7123.67  3.4876601E-01
   7124.00  3.8110674E-01
   7124.33  4.0833136E-01
   7124.67  4.3288190E-01
   7125.00  4.5841496E-01
   7125.33  4.9116840E-01
   7125.67  5.3347579E-01
   7126.00  5.8298084E-01
   7126.33  6.3067413E-01
   7126.67  6.6628157E-01
   7127.00  6.8602801E-01
   7127.33  6.9220868E-01
   7127.67  6.9150044E-01
   7128.00  6.8673021E-01
   7128.33  6.8196437E-01
   7128.67  6.8054834E-01
   7129.00  6.8305623E-01
   7129.33  6.8862316E-01
   7129.67  6.9522910E-01
   7130.00  7.0194412E-01
   7130.33  7.0827952E-01
   7130.67  7.1388510E-01
   7131.00  7.1839909E-01
   7131.33  7.2158634E-01
   7131.67  7.2366074E-01
   7132.00  7.2444283E-01
   7132.33  7.2344005E-01
   7132.67  7.2107841E-01
   7133.00  7.1819428E-01
   7133.33  7.1612190E-01
   7133.67  7.1549815E-01
   7134.00  7.1655302E-01
   7134.33  7.2031704E-01
   7134.67  7.2793609E-01
   7135.00  7.4057392E-01
   7135.33  7.5932098E-01
   7135.67  7.8210455E-01
   7136.00  8.0568898E-01
   7136.33  8.2381569E-01
   7136.67  8.3207532E-01
   7137.00  8.2890843E-01
   7137.33  8.1467961E-01
   7137.67  7.9398043E-01
   7138.00  7.6967540E-01
   7138.33  7.4422970E-01
   7138.67  7.1951845E-01
   7139.00  6.9650509E-01
   7139.33  6.7614735E-01
   7139.67  6.5843597E-01
   7140.00  6.4338859E-01
   7140.33  6.3116976E-01
   7140.67  6.2124805E-01
   7141.00  6.1345079E-01
   7141.33  6.0785060E-01
   7141.67  6.0401605E-01
   7142.00  6.0170982E-01
   7142.33  6.0066727E-01
   7142.67  6.0023072E-01
   7143.00  5.9992242E-01
   7143.33  5.9919922E-01
   7143.67  5.9775251E-01
   7144.00  5.9541207E-01
   7144.33  5.9200494E-01
   7144.67  5.8770843E-01
   7145.00  5.8261959E-01
   7145.33  5.7677063E-01
   7145.67  5.7032835E-01
   7146.00  5.6332096E-01
   7146.33  5.5566635E-01
   7146.67  5.4740902E-01
   7147.00  5.3852926E-01
   7147.33  5.2895695E-01
   7147.67  5.1883809E-01
   7148.00  5.0828973E-01
   7148.33  4.9747668E-01
   7148.67  4.8665569E-01
   7149.00  4.7600860E-01
   7149.33  4.6575237E-01
   7149.67  4.5598753E-01
   7150.00  4.4681556E-01
   7150.33  4.3841067E-01
   7150.67  4.3074617E-01
   7151.00  4.2385412E-01
   7151.33  4.1784929E-01
   7151.67  4.1261241E-01
   7152.00  4.0809281E-01
   7152.33  4.0426857E-01
   7152.67  4.0091714E-01
   7153.00  3.9787961E-01
   7153.33  3.9495470E-01
   7153.67  3.9190294E-01
   7154.00  3.8852967E-01
   7154.33  3.8456184E-01
   7154.67  3.7991796E-01
   7155.00  3.7453006E-01
   7155.33  3.6829296E-01
   7155.67  3.6136545E-01
   7156.00  3.5385953E-01
   7156.33  3.4590979E-01
   7156.67  3.3778997E-01
   7157.00  3.2971091E-01
   7157.33  3.2196280E-01
   7157.67  3.1475577E-01
   7158.00  3.0828438E-01
   7158.33  3.0286155E-01
   7158.67  2.9852756E-01
   7159.00  2.9538075E-01
   7159.33  2.9364527E-01
   7159.67  2.9317835E-01
   7160.00  2.9395125E-01
   7160.33  2.9603475E-01
   7160.67  2.9916908E-01
   7161.00  3.0322779E-01
   7161.33  3.0813979E-01
   7161.67  3.1364886E-01
   7162.00  3.1962869E-01
   7162.33  3.2598569E-01
   7162.67  3.3255983E-01
   7163.00  3.3927605E-01
   7163.33  3.4608812E-01
   7163.67  3.5295421E-01
   7164.00  3.5986759E-01
   7164.33  3.6684239E-01
   7164.67  3.7387858E-01
   7165.00  3.8097735E-01
   7165.33  3.8813925E-01
   7165.67  3.9533538E-01
   7166.00  4.0253253E-01
   7166.33  4.0966817E-01
   7166.67  4.1667938E-01
   7167.00  4.2350110E-01
   7167.33  4.3002543E-01
   7167.67  4.3621656E-01
   7168.00  4.4202326E-01
   7168.33  4.4734385E-01
   7168.67  4.5219942E-01
   7169.00  4.5657429E-01
   7169.33  4.6040458E-01
   7169.67  4.6376229E-01
   7170.00  4.6666768E-01
   7170.33  4.6910274E-01
   7170.67  4.7116258E-01
   7171.00  4.7288761E-01
   7171.33  4.7428747E-01
   7171.67  4.7543387E-01
   7172.00  4.7634382E-01
