    FDMNES
    energy     <xanes>
   7097.00  4.2806149E-03
   7097.33  4.3689235E-03
   7097.67  4.4607902E-03
   7098.00  4.5564420E-03
   7098.33  4.6566809E-03
   7098.67  4.7613226E-03
   7099.00  4.8706765E-03
   7099.33  4.9857839E-03
   7099.67  5.1064582E-03
   7100.00  5.2331339E-03
   7100.33  5.3672038E-03
   7100.67  5.5084973E-03
   7101.00  5.6576476E-03
   7101.33  5.8165848E-03
   7101.67  5.9851970E-03
   7102.00  6.1644467E-03
   7102.33  6.3571278E-03
   7102.67  6.5632820E-03
   7103.00  6.7844505E-03
   7103.33  7.0249004E-03
   7103.67  7.2850499E-03
   7104.00  7.5675285E-03
   7104.33  7.8793062E-03
   7104.67  8.2217303E-03
   7105.00  8.5996618E-03
   7105.33  9.0255082E-03
   7105.67  9.5030476E-03
   7106.00  1.0042251E-02
   7106.33  1.0667868E-02
   7106.67  1.1390744E-02
   7107.00  1.2234437E-02
   7107.33  1.3256750E-02
   7107.67  1.4492837E-02
   7108.00  1.6010944E-02
   7108.33  1.7981576E-02
   7108.67  2.0549001E-02
   7109.00  2.3984671E-02
   7109.33  2.9018998E-02
   7109.67  3.6541135E-02
   7110.00  4.8311247E-02
   7110.33  6.9376138E-02
   7110.67  1.0392788E-01
   7111.00  1.4664672E-01
   7111.33  1.7090777E-01
   7111.67  1.7899866E-01
   7112.00  1.8730731E-01
   7112.33  1.9928698E-01
   7112.67  1.9846208E-01
   7113.00  1.7669906E-01
   7113.33  1.4047374E-01
   7113.67  1.0795692E-01
   7114.00  8.6468411E-02
   7114.33  7.4976421E-02
   7114.67  6.7092324E-02
   7115.00  5.8902444E-02
   7115.33  5.1351515E-02
   7115.67  4.6440273E-02
   7116.00  4.3875502E-02
   7116.33  4.3120429E-02
   7116.67  4.3449486E-02
   7117.00  4.4483187E-02
   7117.33  4.5783361E-02
   7117.67  4.6950068E-02
   7118.00  4.7949612E-02
   7118.33  4.9113389E-02
   7118.67  5.0815048E-02
   7119.00  5.3269175E-02
   7119.33  5.6717648E-02
   7119.67  6.1143546E-02
   7120.00  6.6618161E-02
   7120.33  7.3409184E-02
   7120.67  8.1608000E-02
   7121.00  9.1448948E-02
   7121.33  1.0340935E-01
   7121.67  1.1759646E-01
   7122.00  1.3452920E-01
   7122.33  1.5548621E-01
   7122.67  1.8073151E-01
   7123.00  2.1039255E-01
   7123.33  2.4439328E-01
   7123.67  2.8149683E-01
   7124.00  3.2160173E-01
   7124.33  3.6604070E-01
   7124.67  4.1561878E-01
   7125.00  4.7065035E-01
   7125.33  5.2893555E-01
   7125.67  5.8356421E-01
   7126.00  6.2742008E-01
   7126.33  6.5243378E-01
   7126.67  6.6138514E-01
   7127.00  6.6015689E-01
   7127.33  6.5622989E-01
   7127.67  6.5528701E-01
   7128.00  6.5924413E-01
   7128.33  6.6666924E-01
   7128.67  6.7403157E-01
   7129.00  6.8034120E-01
   7129.33  6.8629354E-01
   7129.67  6.9324988E-01
   7130.00  7.0209901E-01
   7130.33  7.1369434E-01
   7130.67  7.2763027E-01
   7131.00  7.4308777E-01
   7131.33  7.5816789E-01
   7131.67  7.7043080E-01
   7132.00  7.7776096E-01
   7132.33  7.7764526E-01
   7132.67  7.7070005E-01
   7133.00  7.5807021E-01
   7133.33  7.4182763E-01
   7133.67  7.2535188E-01
   7134.00  7.1112596E-01
   7134.33  7.0204780E-01
   7134.67  6.9870642E-01
   7135.00  7.0106448E-01
   7135.33  7.0887527E-01
   7135.67  7.2000451E-01
   7136.00  7.3254375E-01
   7136.33  7.4360339E-01
   7136.67  7.5086322E-01
   7137.00  7.5311485E-01
   7137.33  7.4972382E-01
   7137.67  7.4239012E-01
   7138.00  7.3234444E-01
   7138.33  7.2072555E-01
   7138.67  7.0870519E-01
   7139.00  6.9688205E-01
   7139.33  6.8580241E-01
   7139.67  6.7566619E-01
   7140.00  6.6661036E-01
   7140.33  6.5884337E-01
   7140.67  6.5222715E-01
   7141.00  6.4673860E-01
   7141.33  6.4244384E-01
   7141.67  6.3908224E-01
   7142.00  6.3649075E-01
   7142.33  6.3451020E-01
   7142.67  6.3279701E-01
   7143.00  6.3108230E-01
   7143.33  6.2901102E-01
   7143.67  6.2633472E-01
   7144.00  6.2284976E-01
   7144.33  6.1827527E-01
   7144.67  6.1268399E-01
   7145.00  6.0613973E-01
   7145.33  5.9874458E-01
   7145.67  5.9089104E-01
   7146.00  5.8287070E-01
   7146.33  5.7501947E-01
   7146.67  5.6755779E-01
   7147.00  5.6059711E-01
   7147.33  5.5422177E-01
   7147.67  5.4830027E-01
   7148.00  5.4273031E-01
   7148.33  5.3738732E-01
   7148.67  5.3208776E-01
   7149.00  5.2670523E-01
   7149.33  5.2109080E-01
   7149.67  5.1518300E-01
   7150.00  5.0893988E-01
   7150.33  5.0230589E-01
   7150.67  4.9534319E-01
   7151.00  4.8808466E-01
   7151.33  4.8055644E-01
   7151.67  4.7285785E-01
   7152.00  4.6504771E-01
   7152.33  4.5716403E-01
   7152.67  4.4923578E-01
   7153.00  4.4126294E-01
   7153.33  4.3321604E-01
   7153.67  4.2506404E-01
   7154.00  4.1676488E-01
   7154.33  4.0823970E-01
   7154.67  3.9946541E-01
   7155.00  3.9041462E-01
   7155.33  3.8104387E-01
   7155.67  3.7141225E-01
   7156.00  3.6156619E-01
   7156.33  3.5157099E-01
   7156.67  3.4155046E-01
   7157.00  3.3161178E-01
   7157.33  3.2191707E-01
   7157.67  3.1257868E-01
   7158.00  3.0371578E-01
   7158.33  2.9553739E-01
   7158.67  2.8809004E-01
   7159.00  2.8146794E-01
   7159.33  2.7587985E-01
   7159.67  2.7128551E-01
   7160.00  2.6773186E-01
   7160.33  2.6538578E-01
   7160.67  2.6412072E-01
   7161.00  2.6392159E-01
   7161.33  2.6487004E-01
   7161.67  2.6676547E-01
   7162.00  2.6953914E-01
   7162.33  2.7321070E-01
   7162.67  2.7759088E-01
   7163.00  2.8259316E-01
   7163.33  2.8818739E-01
   7163.67  2.9421961E-01
   7164.00  3.0062020E-01
   7164.33  3.0735112E-01
   7164.67  3.1430284E-01
   7165.00  3.2141165E-01
   7165.33  3.2861150E-01
   7165.67  3.3581361E-01
   7166.00  3.4294939E-01
   7166.33  3.4992323E-01
   7166.67  3.5668197E-01
   7167.00  3.6317272E-01
   7167.33  3.6930803E-01
   7167.67  3.7509688E-01
   7168.00  3.8052802E-01
   7168.33  3.8556185E-01
   7168.67  3.9026337E-01
   7169.00  3.9466014E-01
   7169.33  3.9875826E-01
   7169.67  4.0263185E-01
   7170.00  4.0631251E-01
   7170.33  4.0980728E-01
   7170.67  4.1314884E-01
   7171.00  4.1632850E-01
   7171.33  4.1927437E-01
   7171.67  4.2190266E-01
   7172.00  4.2405961E-01
