    FDMNES
    energy     <xanes>
   7097.00  4.3363657E-03
   7097.33  4.4224562E-03
   7097.67  4.5117754E-03
   7098.00  4.6045124E-03
   7098.33  4.7013662E-03
   7098.67  4.8021467E-03
   7099.00  4.9071060E-03
   7099.33  5.0171325E-03
   7099.67  5.1320263E-03
   7100.00  5.2521336E-03
   7100.33  5.3786137E-03
   7100.67  5.5112685E-03
   7101.00  5.6505899E-03
   7101.33  5.7981416E-03
   7101.67  5.9537537E-03
   7102.00  6.1181544E-03
   7102.33  6.2935406E-03
   7102.67  6.4798311E-03
   7103.00  6.6781602E-03
   7103.33  6.8917753E-03
   7103.67  7.1208258E-03
   7104.00  7.3671907E-03
   7104.33  7.6359907E-03
   7104.67  7.9279537E-03
   7105.00  8.2464453E-03
   7105.33  8.6002385E-03
   7105.67  8.9915672E-03
   7106.00  9.4270958E-03
   7106.33  9.9235933E-03
   7106.67  1.0487578E-02
   7107.00  1.1134145E-02
   7107.33  1.1900524E-02
   7107.67  1.2807392E-02
   7108.00  1.3896083E-02
   7108.33  1.5269312E-02
   7108.67  1.7007206E-02
   7109.00  1.9261012E-02
   7109.33  2.2429191E-02
   7109.67  2.6959270E-02
   7110.00  3.3725578E-02
   7110.33  4.5237496E-02
   7110.67  6.4203286E-02
   7111.00  9.1608975E-02
   7111.33  1.2198221E-01
   7111.67  1.5105211E-01
   7112.00  1.7297198E-01
   7112.33  1.6467352E-01
   7112.67  1.3824930E-01
   7113.00  1.1507105E-01
   7113.33  9.9690678E-02
   7113.67  9.0306090E-02
   7114.00  8.1787045E-02
   7114.33  6.8697615E-02
   7114.67  5.7692804E-02
   7115.00  5.1348521E-02
   7115.33  4.8809092E-02
   7115.67  4.8339879E-02
   7116.00  4.9302988E-02
   7116.33  5.1328406E-02
   7116.67  5.3909264E-02
   7117.00  5.6807077E-02
   7117.33  5.9917615E-02
   7117.67  6.3223939E-02
   7118.00  6.6855904E-02
   7118.33  7.1130740E-02
   7118.67  7.6232230E-02
   7119.00  8.2396242E-02
   7119.33  9.0107495E-02
   7119.67  9.9523366E-02
   7120.00  1.1095053E-01
   7120.33  1.2515930E-01
   7120.67  1.4241937E-01
   7121.00  1.6317264E-01
   7121.33  1.8809071E-01
   7121.67  2.1636466E-01
   7122.00  2.4706523E-01
   7122.33  2.7830064E-01
   7122.67  3.0751054E-01
   7123.00  3.3313529E-01
   7123.33  3.5513102E-01
   7123.67  3.7659766E-01
   7124.00  4.0041142E-01
   7124.33  4.2941399E-01
   7124.67  4.6327482E-01
   7125.00  5.0062979E-01
   7125.33  5.3910167E-01
   7125.67  5.7646030E-01
   7126.00  6.1200903E-01
   7126.33  6.4508180E-01
   7126.67  6.7390446E-01
   7127.00  6.9597294E-01
   7127.33  7.0933598E-01
   7127.67  7.1761049E-01
   7128.00  7.2526971E-01
   7128.33  7.3753293E-01
   7128.67  7.5559589E-01
   7129.00  7.7820718E-01
   7129.33  8.0195021E-01
   7129.67  8.2292902E-01
   7130.00  8.3930423E-01
   7130.33  8.5038851E-01
   7130.67  8.5765910E-01
   7131.00  8.6164767E-01
   7131.33  8.6189773E-01
   7131.67  8.5814924E-01
   7132.00  8.4945809E-01
   7132.33  8.3405615E-01
   7132.67  8.1287510E-01
   7133.00  7.8773496E-01
   7133.33  7.6198394E-01
   7133.67  7.3870955E-01
   7134.00  7.1910964E-01
   7134.33  7.0363807E-01
   7134.67  6.9110232E-01
   7135.00  6.8049874E-01
   7135.33  6.7079254E-01
   7135.67  6.6145251E-01
   7136.00  6.5266268E-01
   7136.33  6.4491946E-01
   7136.67  6.3831928E-01
   7137.00  6.3284136E-01
   7137.33  6.2840061E-01
   7137.67  6.2459352E-01
   7138.00  6.2117441E-01
   7138.33  6.1793629E-01
   7138.67  6.1472303E-01
   7139.00  6.1149182E-01
   7139.33  6.0826058E-01
   7139.67  6.0509214E-01
   7140.00  6.0205253E-01
   7140.33  5.9923575E-01
   7140.67  5.9667126E-01
   7141.00  5.9439157E-01
   7141.33  5.9244900E-01
   7141.67  5.9079447E-01
   7142.00  5.8939882E-01
   7142.33  5.8823818E-01
   7142.67  5.8722863E-01
   7143.00  5.8631192E-01
   7143.33  5.8541120E-01
   7143.67  5.8444394E-01
   7144.00  5.8334281E-01
   7144.33  5.8200769E-01
   7144.67  5.8039720E-01
   7145.00  5.7846060E-01
   7145.33  5.7610204E-01
   7145.67  5.7333181E-01
   7146.00  5.7012784E-01
   7146.33  5.6641863E-01
   7146.67  5.6225720E-01
   7147.00  5.5764989E-01
   7147.33  5.5255901E-01
   7147.67  5.4706209E-01
   7148.00  5.4118354E-01
   7148.33  5.3490919E-01
   7148.67  5.2831180E-01
   7149.00  5.2141413E-01
   7149.33  5.1420374E-01
   7149.67  5.0673257E-01
   7150.00  4.9901163E-01
   7150.33  4.9101881E-01
   7150.67  4.8278848E-01
   7151.00  4.7432272E-01
   7151.33  4.6559368E-01
   7151.67  4.5663305E-01
   7152.00  4.4744747E-01
   7152.33  4.3802840E-01
   7152.67  4.2843006E-01
   7153.00  4.1868332E-01
   7153.33  4.0881345E-01
   7153.67  3.9888006E-01
   7154.00  3.8893033E-01
   7154.33  3.7903180E-01
   7154.67  3.6924930E-01
   7155.00  3.5964411E-01
   7155.33  3.5031402E-01
   7155.67  3.4129630E-01
   7156.00  3.3265050E-01
   7156.33  3.2450103E-01
   7156.67  3.1686156E-01
   7157.00  3.0979030E-01
   7157.33  3.0343156E-01
   7157.67  2.9776743E-01
   7158.00  2.9284681E-01
   7158.33  2.8881723E-01
   7158.67  2.8561593E-01
   7159.00  2.8326552E-01
   7159.33  2.8189136E-01
   7159.67  2.8139082E-01
   7160.00  2.8175928E-01
   7160.33  2.8308635E-01
   7160.67  2.8523621E-01
   7161.00  2.8817405E-01
   7161.33  2.9194016E-01
   7161.67  2.9637923E-01
   7162.00  3.0142960E-01
   7162.33  3.0708015E-01
   7162.67  3.1318056E-01
   7163.00  3.1965563E-01
   7163.33  3.2645127E-01
   7163.67  3.3343245E-01
   7164.00  3.4051025E-01
   7164.33  3.4758092E-01
   7164.67  3.5455388E-01
   7165.00  3.6136660E-01
   7165.33  3.6792917E-01
   7165.67  3.7421714E-01
   7166.00  3.8019534E-01
   7166.33  3.8579424E-01
   7166.67  3.9104307E-01
   7167.00  3.9594159E-01
   7167.33  4.0045895E-01
   7167.67  4.0465995E-01
   7168.00  4.0857052E-01
   7168.33  4.1219465E-01
   7168.67  4.1560303E-01
   7169.00  4.1882939E-01
   7169.33  4.2189265E-01
   7169.67  4.2484251E-01
   7170.00  4.2770049E-01
   7170.33  4.3047395E-01
   7170.67  4.3317616E-01
   7171.00  4.3579475E-01
   7171.33  4.3826749E-01
   7171.67  4.4050564E-01
   7172.00  4.4236131E-01
