    FDMNES
    energy     <xanes>
   7097.00  5.1427823E-03
   7097.33  5.2689518E-03
   7097.67  5.4010529E-03
   7098.00  5.5395012E-03
   7098.33  5.6856933E-03
   7098.67  5.8393685E-03
   7099.00  6.0010982E-03
   7099.33  6.1727265E-03
   7099.67  6.3539937E-03
   7100.00  6.5457083E-03
   7100.33  6.7503726E-03
   7100.67  6.9677619E-03
   7101.00  7.1990576E-03
   7101.33  7.4477678E-03
   7101.67  7.7137778E-03
   7102.00  7.9988827E-03
   7102.33  8.3081972E-03
   7102.67  8.6418834E-03
   7103.00  9.0027999E-03
   7103.33  9.3987718E-03
   7103.67  9.8306213E-03
   7104.00  1.0303173E-02
   7104.33  1.0829142E-02
   7104.67  1.1410945E-02
   7105.00  1.2057344E-02
   7105.33  1.2790673E-02
   7105.67  1.3617418E-02
   7106.00  1.4555102E-02
   7106.33  1.5647241E-02
   7106.67  1.6911810E-02
   7107.00  1.8388800E-02
   7107.33  2.0176227E-02
   7107.67  2.2330120E-02
   7108.00  2.4960897E-02
   7108.33  2.8342642E-02
   7108.67  3.2693040E-02
   7109.00  3.8421903E-02
   7109.33  4.6612792E-02
   7109.67  5.8503533E-02
   7110.00  7.6523859E-02
   7110.33  1.0775361E-01
   7110.67  1.6051992E-01
   7111.00  2.3941811E-01
   7111.33  3.1565243E-01
   7111.67  3.4563916E-01
   7112.00  3.4190500E-01
   7112.33  3.2660637E-01
   7112.67  3.0258864E-01
   7113.00  2.8754509E-01
   7113.33  3.0620049E-01
   7113.67  3.5961685E-01
   7114.00  4.2765925E-01
   7114.33  4.3447657E-01
   7114.67  3.6871794E-01
   7115.00  2.8185690E-01
   7115.33  2.1563958E-01
   7115.67  1.7305047E-01
   7116.00  1.4917869E-01
   7116.33  1.3989472E-01
   7116.67  1.3777911E-01
   7117.00  1.3519587E-01
   7117.33  1.2537688E-01
   7117.67  1.1517375E-01
   7118.00  1.1058263E-01
   7118.33  1.1314088E-01
   7118.67  1.1876625E-01
   7119.00  1.2399904E-01
   7119.33  1.2673641E-01
   7119.67  1.2770328E-01
   7120.00  1.2845733E-01
   7120.33  1.2968061E-01
   7120.67  1.3152873E-01
   7121.00  1.3497070E-01
   7121.33  1.4167361E-01
   7121.67  1.5210837E-01
   7122.00  1.6671900E-01
   7122.33  1.8650403E-01
   7122.67  2.1106539E-01
   7123.00  2.4023835E-01
   7123.33  2.7434499E-01
   7123.67  3.1279494E-01
   7124.00  3.5497174E-01
   7124.33  3.9823744E-01
   7124.67  4.3817748E-01
   7125.00  4.7220988E-01
   7125.33  4.9952209E-01
   7125.67  5.2233500E-01
   7126.00  5.4127300E-01
   7126.33  5.5503815E-01
   7126.67  5.6288555E-01
   7127.00  5.6426215E-01
   7127.33  5.5935286E-01
   7127.67  5.5181622E-01
   7128.00  5.4499051E-01
   7128.33  5.4187894E-01
   7128.67  5.4247057E-01
   7129.00  5.4599963E-01
   7129.33  5.5136571E-01
   7129.67  5.5731659E-01
   7130.00  5.6349008E-01
   7130.33  5.6998084E-01
   7130.67  5.7677939E-01
   7131.00  5.8352271E-01
   7131.33  5.8927564E-01
   7131.67  5.9339370E-01
   7132.00  5.9570893E-01
   7132.33  5.9653453E-01
   7132.67  5.9692228E-01
   7133.00  5.9764548E-01
   7133.33  5.9953985E-01
   7133.67  6.0290638E-01
   7134.00  6.0798578E-01
   7134.33  6.1536372E-01
   7134.67  6.2509837E-01
   7135.00  6.3718008E-01
   7135.33  6.5112953E-01
   7135.67  6.6515408E-01
   7136.00  6.7735310E-01
   7136.33  6.8512061E-01
   7136.67  6.8782771E-01
   7137.00  6.8564481E-01
   7137.33  6.7948549E-01
   7137.67  6.7191313E-01
   7138.00  6.6490825E-01
   7138.33  6.6075342E-01
   7138.67  6.6034653E-01
   7139.00  6.6400141E-01
   7139.33  6.7171015E-01
   7139.67  6.8183621E-01
   7140.00  6.9302170E-01
   7140.33  7.0366721E-01
   7140.67  7.1277576E-01
   7141.00  7.1993803E-01
   7141.33  7.2472381E-01
   7141.67  7.2726793E-01
   7142.00  7.2745638E-01
   7142.33  7.2504196E-01
   7142.67  7.2075681E-01
   7143.00  7.1531076E-01
   7143.33  7.0964216E-01
   7143.67  7.0455357E-01
   7144.00  7.0040848E-01
   7144.33  6.9741205E-01
   7144.67  6.9526410E-01
   7145.00  6.9371907E-01
   7145.33  6.9249064E-01
   7145.67  6.9121867E-01
   7146.00  6.8963126E-01
   7146.33  6.8735381E-01
   7146.67  6.8421276E-01
   7147.00  6.8006361E-01
   7147.33  6.7472045E-01
   7147.67  6.6839052E-01
   7148.00  6.6121199E-01
   7148.33  6.5329723E-01
   7148.67  6.4490141E-01
   7149.00  6.3612559E-01
   7149.33  6.2700276E-01
   7149.67  6.1762014E-01
   7150.00  6.0801840E-01
   7150.33  5.9823377E-01
   7150.67  5.8835497E-01
   7151.00  5.7844718E-01
   7151.33  5.6859516E-01
   7151.67  5.5887233E-01
   7152.00  5.4935030E-01
   7152.33  5.4015887E-01
   7152.67  5.3134911E-01
   7153.00  5.2298298E-01
   7153.33  5.1518563E-01
   7153.67  5.0794655E-01
   7154.00  5.0130152E-01
   7154.33  4.9534912E-01
   7154.67  4.9001107E-01
   7155.00  4.8526802E-01
   7155.33  4.8114391E-01
   7155.67  4.7750351E-01
   7156.00  4.7427568E-01
   7156.33  4.7140503E-01
   7156.67  4.6874966E-01
   7157.00  4.6622177E-01
   7157.33  4.6372931E-01
   7157.67  4.6118528E-01
   7158.00  4.5853241E-01
   7158.33  4.5570214E-01
   7158.67  4.5268401E-01
   7159.00  4.4946491E-01
   7159.33  4.4601348E-01
   7159.67  4.4235436E-01
   7160.00  4.3848674E-01
   7160.33  4.3438383E-01
   7160.67  4.3007205E-01
   7161.00  4.2555857E-01
   7161.33  4.2084160E-01
   7161.67  4.1598029E-01
   7162.00  4.1102161E-01
   7162.33  4.0602892E-01
   7162.67  4.0107671E-01
   7163.00  3.9621960E-01
   7163.33  3.9151950E-01
   7163.67  3.8698568E-01
   7164.00  3.8263546E-01
   7164.33  3.7850396E-01
   7164.67  3.7456835E-01
   7165.00  3.7082605E-01
   7165.33  3.6729800E-01
   7165.67  3.6396294E-01
   7166.00  3.6083043E-01
   7166.33  3.5794904E-01
   7166.67  3.5532196E-01
   7167.00  3.5298445E-01
   7167.33  3.5102861E-01
   7167.67  3.4946803E-01
   7168.00  3.4835208E-01
   7168.33  3.4779642E-01
   7168.67  3.4778169E-01
   7169.00  3.4833227E-01
   7169.33  3.4953194E-01
   7169.67  3.5129740E-01
   7170.00  3.5359798E-01
   7170.33  3.5643017E-01
   7170.67  3.5963975E-01
   7171.00  3.6311242E-01
   7171.33  3.6666637E-01
   7171.67  3.7000054E-01
   7172.00  3.7277132E-01
