    FDMNES
    energy     <xanes>
   7097.00  4.8343595E-03
   7097.33  4.9436296E-03
   7097.67  5.0576621E-03
   7098.00  5.1767661E-03
   7098.33  5.3020217E-03
   7098.67  5.4331850E-03
   7099.00  5.5706717E-03
   7099.33  5.7158766E-03
   7099.67  5.8685429E-03
   7100.00  6.0292436E-03
   7100.33  6.1998230E-03
   7100.67  6.3800270E-03
   7101.00  6.5706680E-03
   7101.33  6.7742544E-03
   7101.67  6.9905708E-03
   7102.00  7.2208091E-03
   7102.33  7.4684978E-03
   7102.67  7.7335415E-03
   7103.00  8.0177625E-03
   7103.33  8.3263348E-03
   7103.67  8.6594673E-03
   7104.00  9.0200927E-03
   7104.33  9.4162062E-03
   7104.67  9.8487593E-03
   7105.00  1.0322793E-02
   7105.33  1.0851531E-02
   7105.67  1.1437797E-02
   7106.00  1.2091044E-02
   7106.33  1.2835272E-02
   7106.67  1.3678423E-02
   7107.00  1.4640543E-02
   7107.33  1.5771405E-02
   7107.67  1.7095233E-02
   7108.00  1.8663098E-02
   7108.33  2.0602069E-02
   7108.67  2.3002828E-02
   7109.00  2.6040808E-02
   7109.33  3.0177643E-02
   7109.67  3.5913529E-02
   7110.00  4.4235038E-02
   7110.33  5.7956996E-02
   7110.67  7.9823330E-02
   7111.00  1.0956897E-01
   7111.33  1.3561752E-01
   7111.67  1.5084887E-01
   7112.00  1.6990332E-01
   7112.33  1.9375656E-01
   7112.67  2.1748586E-01
   7113.00  2.5588885E-01
   7113.33  2.9912743E-01
   7113.67  3.1552894E-01
   7114.00  3.1830951E-01
   7114.33  3.5267704E-01
   7114.67  4.1820262E-01
   7115.00  4.7686451E-01
   7115.33  4.4497112E-01
   7115.67  3.4935401E-01
   7116.00  2.5637575E-01
   7116.33  2.0469115E-01
   7116.67  1.8401435E-01
   7117.00  1.8793748E-01
   7117.33  2.1518574E-01
   7117.67  2.5456071E-01
   7118.00  2.9426865E-01
   7118.33  3.2464602E-01
   7118.67  3.3466280E-01
   7119.00  3.2075413E-01
   7119.33  2.9126283E-01
   7119.67  2.6091362E-01
   7120.00  2.3480739E-01
   7120.33  2.1276382E-01
   7120.67  1.9327733E-01
   7121.00  1.7631881E-01
   7121.33  1.6181205E-01
   7121.67  1.4978803E-01
   7122.00  1.4086423E-01
   7122.33  1.3545702E-01
   7122.67  1.3258762E-01
   7123.00  1.3157349E-01
   7123.33  1.3192289E-01
   7123.67  1.3319457E-01
   7124.00  1.3522527E-01
   7124.33  1.3776948E-01
   7124.67  1.4085635E-01
   7125.00  1.4512462E-01
   7125.33  1.5199190E-01
   7125.67  1.6200587E-01
   7126.00  1.7527620E-01
   7126.33  1.9171599E-01
   7126.67  2.0974768E-01
   7127.00  2.2766568E-01
   7127.33  2.4394466E-01
   7127.67  2.5901134E-01
   7128.00  2.7351710E-01
   7128.33  2.8829061E-01
   7128.67  3.0484740E-01
   7129.00  3.2375445E-01
   7129.33  3.4295445E-01
   7129.67  3.6019167E-01
   7130.00  3.7572816E-01
   7130.33  3.9124523E-01
   7130.67  4.0757158E-01
   7131.00  4.2452188E-01
   7131.33  4.4250974E-01
   7131.67  4.6309853E-01
   7132.00  4.8830758E-01
   7132.33  5.2050424E-01
   7132.67  5.5920194E-01
   7133.00  6.0381511E-01
   7133.33  6.5345223E-01
   7133.67  7.0522875E-01
   7134.00  7.5639461E-01
   7134.33  8.0256719E-01
   7134.67  8.4059944E-01
   7135.00  8.6829412E-01
   7135.33  8.8377155E-01
   7135.67  8.9031697E-01
   7136.00  8.9096929E-01
   7136.33  8.8802377E-01
   7136.67  8.8193843E-01
   7137.00  8.7303666E-01
   7137.33  8.6306367E-01
   7137.67  8.5358571E-01
   7138.00  8.4470590E-01
   7138.33  8.3530264E-01
   7138.67  8.2363491E-01
   7139.00  8.0814692E-01
   7139.33  7.8718830E-01
   7139.67  7.6175915E-01
   7140.00  7.3339943E-01
   7140.33  7.0465959E-01
   7140.67  6.7807730E-01
   7141.00  6.5511015E-01
   7141.33  6.3693111E-01
   7141.67  6.2270692E-01
   7142.00  6.1176174E-01
   7142.33  6.0354747E-01
   7142.67  5.9711252E-01
   7143.00  5.9212246E-01
   7143.33  5.8854333E-01
   7143.67  5.8613093E-01
   7144.00  5.8480304E-01
   7144.33  5.8448224E-01
   7144.67  5.8471974E-01
   7145.00  5.8510711E-01
   7145.33  5.8502383E-01
   7145.67  5.8394614E-01
   7146.00  5.8146018E-01
   7146.33  5.7705583E-01
   7146.67  5.7090258E-01
   7147.00  5.6316799E-01
   7147.33  5.5409290E-01
   7147.67  5.4434873E-01
   7148.00  5.3442067E-01
   7148.33  5.2488639E-01
   7148.67  5.1614192E-01
   7149.00  5.0842657E-01
   7149.33  5.0196656E-01
   7149.67  4.9655024E-01
   7150.00  4.9204175E-01
   7150.33  4.8835620E-01
   7150.67  4.8526385E-01
   7151.00  4.8270683E-01
   7151.33  4.8076301E-01
   7151.67  4.7943522E-01
   7152.00  4.7880585E-01
   7152.33  4.7906478E-01
   7152.67  4.8017814E-01
   7153.00  4.8217352E-01
   7153.33  4.8516255E-01
   7153.67  4.8900770E-01
   7154.00  4.9366284E-01
   7154.33  4.9914193E-01
   7154.67  5.0525731E-01
   7155.00  5.1191609E-01
   7155.33  5.1905821E-01
   7155.67  5.2651758E-01
   7156.00  5.3420273E-01
   7156.33  5.4202887E-01
   7156.67  5.4988787E-01
   7157.00  5.5770995E-01
   7157.33  5.6541107E-01
   7157.67  5.7294096E-01
   7158.00  5.8024586E-01
   7158.33  5.8722416E-01
   7158.67  5.9384176E-01
   7159.00  6.0003470E-01
   7159.33  6.0566504E-01
   7159.67  6.1072250E-01
   7160.00  6.1514988E-01
   7160.33  6.1880493E-01
   7160.67  6.2173039E-01
   7161.00  6.2390023E-01
   7161.33  6.2519976E-01
   7161.67  6.2572016E-01
   7162.00  6.2546591E-01
   7162.33  6.2435751E-01
   7162.67  6.2251719E-01
   7163.00  6.1997836E-01
   7163.33  6.1670240E-01
   7163.67  6.1281420E-01
   7164.00  6.0835026E-01
   7164.33  6.0328417E-01
   7164.67  5.9772092E-01
   7165.00  5.9169347E-01
   7165.33  5.8519288E-01
   7165.67  5.7832458E-01
   7166.00  5.7114298E-01
   7166.33  5.6369149E-01
   7166.67  5.5608165E-01
   7167.00  5.4838580E-01
   7167.33  5.4068346E-01
   7167.67  5.3304723E-01
   7168.00  5.2553156E-01
   7168.33  5.1821268E-01
   7168.67  5.1111377E-01
   7169.00  5.0426750E-01
   7169.33  4.9774048E-01
   7169.67  4.9152031E-01
   7170.00  4.8562184E-01
   7170.33  4.8010483E-01
   7170.67  4.7495231E-01
   7171.00  4.7019282E-01
   7171.33  4.6593889E-01
   7171.67  4.6224906E-01
   7172.00  4.5927940E-01
