    FDMNES
    energy     <xanes>
   7097.00  4.6140445E-03
   7097.33  4.7064239E-03
   7097.67  4.8023083E-03
   7098.00  4.9019008E-03
   7098.33  5.0059558E-03
   7098.67  5.1142626E-03
   7099.00  5.2270893E-03
   7099.33  5.3453887E-03
   7099.67  5.4689361E-03
   7100.00  5.5980955E-03
   7100.33  5.7340998E-03
   7100.67  5.8767201E-03
   7101.00  6.0264666E-03
   7101.33  6.1849844E-03
   7101.67  6.3520636E-03
   7102.00  6.5284487E-03
   7102.33  6.7164197E-03
   7102.67  6.9158417E-03
   7103.00  7.1278557E-03
   7103.33  7.3557802E-03
   7103.67  7.5996869E-03
   7104.00  7.8614382E-03
   7104.33  8.1461809E-03
   7104.67  8.4545240E-03
   7105.00  8.7897621E-03
   7105.33  9.1605835E-03
   7105.67  9.5690317E-03
   7106.00  1.0021593E-02
   7106.33  1.0534728E-02
   7106.67  1.1114676E-02
   7107.00  1.1776212E-02
   7107.33  1.2556031E-02
   7107.67  1.3474740E-02
   7108.00  1.4573812E-02
   7108.33  1.5957155E-02
   7108.67  1.7708924E-02
   7109.00  1.9988868E-02
   7109.33  2.3224351E-02
   7109.67  2.7920369E-02
   7110.00  3.5076176E-02
   7110.33  4.7616991E-02
   7110.67  6.8779186E-02
   7111.00  9.8751483E-02
   7111.33  1.2084428E-01
   7111.67  1.2573470E-01
   7112.00  1.2151553E-01
   7112.33  1.1183846E-01
   7112.67  1.0024565E-01
   7113.00  8.8566608E-02
   7113.33  7.8110478E-02
   7113.67  7.0478577E-02
   7114.00  6.6083899E-02
   7114.33  6.5009486E-02
   7114.67  6.6700812E-02
   7115.00  7.1307948E-02
   7115.33  7.9843359E-02
   7115.67  9.2832319E-02
   7116.00  1.1121732E-01
   7116.33  1.3625994E-01
   7116.67  1.6579031E-01
   7117.00  1.9626365E-01
   7117.33  2.2173589E-01
   7117.67  2.3958393E-01
   7118.00  2.5028256E-01
   7118.33  2.5598610E-01
   7118.67  2.6001243E-01
   7119.00  2.6395425E-01
   7119.33  2.6890170E-01
   7119.67  2.7509844E-01
   7120.00  2.8258669E-01
   7120.33  2.9145848E-01
   7120.67  3.0146667E-01
   7121.00  3.1253557E-01
   7121.33  3.2472836E-01
   7121.67  3.3789623E-01
   7122.00  3.5204997E-01
   7122.33  3.6736077E-01
   7122.67  3.8375247E-01
   7123.00  4.0124808E-01
   7123.33  4.1994617E-01
   7123.67  4.3961358E-01
   7124.00  4.6018224E-01
   7124.33  4.8185333E-01
   7124.67  5.0471675E-01
   7125.00  5.2875343E-01
   7125.33  5.5336807E-01
   7125.67  5.7718894E-01
   7126.00  5.9894403E-01
   7126.33  6.1715233E-01
   7126.67  6.3185724E-01
   7127.00  6.4327261E-01
   7127.33  6.5151706E-01
   7127.67  6.5728849E-01
   7128.00  6.6067294E-01
   7128.33  6.6124425E-01
   7128.67  6.5908695E-01
   7129.00  6.5402302E-01
   7129.33  6.4560677E-01
   7129.67  6.3436910E-01
   7130.00  6.2067132E-01
   7130.33  6.0496213E-01
   7130.67  5.8834699E-01
   7131.00  5.7167211E-01
   7131.33  5.5600917E-01
   7131.67  5.4203087E-01
   7132.00  5.3018077E-01
   7132.33  5.2095502E-01
   7132.67  5.1396480E-01
   7133.00  5.0895618E-01
   7133.33  5.0573673E-01
   7133.67  5.0370580E-01
   7134.00  5.0255716E-01
   7134.33  5.0207394E-01
   7134.67  5.0196146E-01
   7135.00  5.0207750E-01
   7135.33  5.0231188E-01
   7135.67  5.0256423E-01
   7136.00  5.0278317E-01
   7136.33  5.0292272E-01
   7136.67  5.0297507E-01
   7137.00  5.0293901E-01
   7137.33  5.0281434E-01
   7137.67  5.0262919E-01
   7138.00  5.0240430E-01
   7138.33  5.0216732E-01
   7138.67  5.0195352E-01
   7139.00  5.0179631E-01
   7139.33  5.0175307E-01
   7139.67  5.0186222E-01
   7140.00  5.0217174E-01
   7140.33  5.0277262E-01
   7140.67  5.0369098E-01
   7141.00  5.0497363E-01
   7141.33  5.0671716E-01
   7141.67  5.0889952E-01
   7142.00  5.1152731E-01
   7142.33  5.1463191E-01
   7142.67  5.1809269E-01
   7143.00  5.2179463E-01
   7143.33  5.2553788E-01
   7143.67  5.2904231E-01
   7144.00  5.3200484E-01
   7144.33  5.3388462E-01
   7144.67  5.3434179E-01
   7145.00  5.3300408E-01
   7145.33  5.2931155E-01
   7145.67  5.2349658E-01
   7146.00  5.1581117E-01
   7146.33  5.0668926E-01
   7146.67  4.9706875E-01
   7147.00  4.8761320E-01
   7147.33  4.7904846E-01
   7147.67  4.7168512E-01
   7148.00  4.6570931E-01
   7148.33  4.6137680E-01
   7148.67  4.5848003E-01
   7149.00  4.5695357E-01
   7149.33  4.5684988E-01
   7149.67  4.5788141E-01
   7150.00  4.5991808E-01
   7150.33  4.6288821E-01
   7150.67  4.6648991E-01
   7151.00  4.7054233E-01
   7151.33  4.7486718E-01
   7151.67  4.7924581E-01
   7152.00  4.8354488E-01
   7152.33  4.8762651E-01
   7152.67  4.9144819E-01
   7153.00  4.9498876E-01
   7153.33  4.9822149E-01
   7153.67  5.0120716E-01
   7154.00  5.0397549E-01
   7154.33  5.0654102E-01
   7154.67  5.0896159E-01
   7155.00  5.1126354E-01
   7155.33  5.1346029E-01
   7155.67  5.1558370E-01
   7156.00  5.1764809E-01
   7156.33  5.1966162E-01
   7156.67  5.2164165E-01
   7157.00  5.2359814E-01
   7157.33  5.2554209E-01
   7157.67  5.2748764E-01
   7158.00  5.2944445E-01
   7158.33  5.3141741E-01
   7158.67  5.3340496E-01
   7159.00  5.3541492E-01
   7159.33  5.3746164E-01
   7159.67  5.3954745E-01
   7160.00  5.4167453E-01
   7160.33  5.4384597E-01
   7160.67  5.4604923E-01
   7161.00  5.4827349E-01
   7161.33  5.5050274E-01
   7161.67  5.5271639E-01
   7162.00  5.5489470E-01
   7162.33  5.5700299E-01
   7162.67  5.5901673E-01
   7163.00  5.6090607E-01
   7163.33  5.6261774E-01
   7163.67  5.6414084E-01
   7164.00  5.6545208E-01
   7164.33  5.6649907E-01
   7164.67  5.6729343E-01
   7165.00  5.6782492E-01
   7165.33  5.6805434E-01
   7165.67  5.6801620E-01
   7166.00  5.6771605E-01
   7166.33  5.6713322E-01
   7166.67  5.6631340E-01
   7167.00  5.6527127E-01
   7167.33  5.6400084E-01
   7167.67  5.6254869E-01
   7168.00  5.6093385E-01
   7168.33  5.5916091E-01
   7168.67  5.5726908E-01
   7169.00  5.5527674E-01
   7169.33  5.5319547E-01
   7169.67  5.5105660E-01
   7170.00  5.4887879E-01
   7170.33  5.4668365E-01
   7170.67  5.4450172E-01
   7171.00  5.4236568E-01
   7171.33  5.4034603E-01
   7171.67  5.3852936E-01
   7172.00  5.3704447E-01
