    FDMNES
    energy     <xanes>
   7097.00  4.9866177E-03
   7097.33  5.0997801E-03
   7097.67  5.2177774E-03
   7098.00  5.3409185E-03
   7098.33  5.4702921E-03
   7098.67  5.6056450E-03
   7099.00  5.7473933E-03
   7099.33  5.8969417E-03
   7099.67  6.0540262E-03
   7100.00  6.2192227E-03
   7100.33  6.3943914E-03
   7100.67  6.5792763E-03
   7101.00  6.7747008E-03
   7101.33  6.9832070E-03
   7101.67  7.2045911E-03
   7102.00  7.4400777E-03
   7102.33  7.6932768E-03
   7102.67  7.9641386E-03
   7103.00  8.2545730E-03
   7103.33  8.5699624E-03
   7103.67  8.9106464E-03
   7104.00  9.2797906E-03
   7104.33  9.6859320E-03
   7104.67  1.0130384E-02
   7105.00  1.0618816E-02
   7105.33  1.1165919E-02
   7105.67  1.1775556E-02
   7106.00  1.2458977E-02
   7106.33  1.3244432E-02
   7106.67  1.4143155E-02
   7107.00  1.5180895E-02
   7107.33  1.6421248E-02
   7107.67  1.7900659E-02
   7108.00  1.9691697E-02
   7108.33  2.1976087E-02
   7108.67  2.4903062E-02
   7109.00  2.8756063E-02
   7109.33  3.4298211E-02
   7109.67  4.2450538E-02
   7110.00  5.5041114E-02
   7110.33  7.7297288E-02
   7110.67  1.1335739E-01
   7111.00  1.5696076E-01
   7111.33  1.8114015E-01
   7111.67  1.8921485E-01
   7112.00  1.9098359E-01
   7112.33  1.8705165E-01
   7112.67  1.8887751E-01
   7113.00  2.0511960E-01
   7113.33  2.3402217E-01
   7113.67  2.5468664E-01
   7114.00  2.4249272E-01
   7114.33  2.0231648E-01
   7114.67  1.6603478E-01
   7115.00  1.4149552E-01
   7115.33  1.2847975E-01
   7115.67  1.2305860E-01
   7116.00  1.2404147E-01
   7116.33  1.3191692E-01
   7116.67  1.4606212E-01
   7117.00  1.6548711E-01
   7117.33  1.8673470E-01
   7117.67  2.0753383E-01
   7118.00  2.3034852E-01
   7118.33  2.6130067E-01
   7118.67  3.0070493E-01
   7119.00  3.4329752E-01
   7119.33  3.7836302E-01
   7119.67  4.0084785E-01
   7120.00  4.1240909E-01
   7120.33  4.1779838E-01
   7120.67  4.2153246E-01
   7121.00  4.2492459E-01
   7121.33  4.2840068E-01
   7121.67  4.3189089E-01
   7122.00  4.3519360E-01
   7122.33  4.3800660E-01
   7122.67  4.4069596E-01
   7123.00  4.4447028E-01
   7123.33  4.5125289E-01
   7123.67  4.6093892E-01
   7124.00  4.7267012E-01
   7124.33  4.8542678E-01
   7124.67  4.9833251E-01
   7125.00  5.1090219E-01
   7125.33  5.2239954E-01
   7125.67  5.3240409E-01
   7126.00  5.4077943E-01
   7126.33  5.4741938E-01
   7126.67  5.5236446E-01
   7127.00  5.5536859E-01
   7127.33  5.5638181E-01
   7127.67  5.5632622E-01
   7128.00  5.5573455E-01
   7128.33  5.5469448E-01
   7128.67  5.5334342E-01
   7129.00  5.5238880E-01
   7129.33  5.5341768E-01
   7129.67  5.5681644E-01
   7130.00  5.6206178E-01
   7130.33  5.6832358E-01
   7130.67  5.7500361E-01
   7131.00  5.8197054E-01
   7131.33  5.8894838E-01
   7131.67  5.9538747E-01
   7132.00  6.0071801E-01
   7132.33  6.0417048E-01
   7132.67  6.0569857E-01
   7133.00  6.0540800E-01
   7133.33  6.0352810E-01
   7133.67  6.0063681E-01
   7134.00  5.9684116E-01
   7134.33  5.9192966E-01
   7134.67  5.8606011E-01
   7135.00  5.7946045E-01
   7135.33  5.7246538E-01
   7135.67  5.6549172E-01
   7136.00  5.5879839E-01
   7136.33  5.5266659E-01
   7136.67  5.4713580E-01
   7137.00  5.4218900E-01
   7137.33  5.3777507E-01
   7137.67  5.3370358E-01
   7138.00  5.2990741E-01
   7138.33  5.2642182E-01
   7138.67  5.2326865E-01
   7139.00  5.2050024E-01
   7139.33  5.1819486E-01
   7139.67  5.1627372E-01
   7140.00  5.1466960E-01
   7140.33  5.1328701E-01
   7140.67  5.1195538E-01
   7141.00  5.1055087E-01
   7141.33  5.0893896E-01
   7141.67  5.0709449E-01
   7142.00  5.0503720E-01
   7142.33  5.0283627E-01
   7142.67  5.0063088E-01
   7143.00  4.9852815E-01
   7143.33  4.9664964E-01
   7143.67  4.9502415E-01
   7144.00  4.9366740E-01
   7144.33  4.9260541E-01
   7144.67  4.9178265E-01
   7145.00  4.9117451E-01
   7145.33  4.9077650E-01
   7145.67  4.9054173E-01
   7146.00  4.9045345E-01
   7146.33  4.9051055E-01
   7146.67  4.9067922E-01
   7147.00  4.9094166E-01
   7147.33  4.9127991E-01
   7147.67  4.9165118E-01
   7148.00  4.9201923E-01
   7148.33  4.9232915E-01
   7148.67  4.9253392E-01
   7149.00  4.9258512E-01
   7149.33  4.9239942E-01
   7149.67  4.9195065E-01
   7150.00  4.9120316E-01
   7150.33  4.9008924E-01
   7150.67  4.8863931E-01
   7151.00  4.8685589E-01
   7151.33  4.8472495E-01
   7151.67  4.8233985E-01
   7152.00  4.7976301E-01
   7152.33  4.7706180E-01
   7152.67  4.7433289E-01
   7153.00  4.7164345E-01
   7153.33  4.6907514E-01
   7153.67  4.6666918E-01
   7154.00  4.6446320E-01
   7154.33  4.6252186E-01
   7154.67  4.6083797E-01
   7155.00  4.5942188E-01
   7155.33  4.5831334E-01
   7155.67  4.5747899E-01
   7156.00  4.5691614E-01
   7156.33  4.5664833E-01
   7156.67  4.5662530E-01
   7157.00  4.5682487E-01
   7157.33  4.5723464E-01
   7157.67  4.5778431E-01
   7158.00  4.5842568E-01
   7158.33  4.5909792E-01
   7158.67  4.5972927E-01
   7159.00  4.6026391E-01
   7159.33  4.6062722E-01
   7159.67  4.6079813E-01
   7160.00  4.6075676E-01
   7160.33  4.6046983E-01
   7160.67  4.5997576E-01
   7161.00  4.5929683E-01
   7161.33  4.5845242E-01
   7161.67  4.5750623E-01
   7162.00  4.5650010E-01
   7162.33  4.5548186E-01
   7162.67  4.5450205E-01
   7163.00  4.5360033E-01
   7163.33  4.5282483E-01
   7163.67  4.5218361E-01
   7164.00  4.5168852E-01
   7164.33  4.5136446E-01
   7164.67  4.5119077E-01
   7165.00  4.5116096E-01
   7165.33  4.5127939E-01
   7165.67  4.5151348E-01
   7166.00  4.5184694E-01
   7166.33  4.5226837E-01
   7166.67  4.5274497E-01
   7167.00  4.5325634E-01
   7167.33  4.5378100E-01
   7167.67  4.5429672E-01
   7168.00  4.5478793E-01
   7168.33  4.5523402E-01
   7168.67  4.5562712E-01
   7169.00  4.5595875E-01
   7169.33  4.5621408E-01
   7169.67  4.5639874E-01
   7170.00  4.5651284E-01
   7170.33  4.5655114E-01
   7170.67  4.5652880E-01
   7171.00  4.5645473E-01
   7171.33  4.5633917E-01
   7171.67  4.5620878E-01
   7172.00  4.5608981E-01
