    FDMNES
    energy     <xanes>
   7097.00  4.7966779E-03
   7097.33  4.9057374E-03
   7097.67  5.0194268E-03
   7098.00  5.1380388E-03
   7098.33  5.2626103E-03
   7098.67  5.3928947E-03
   7099.00  5.5292846E-03
   7099.33  5.6731139E-03
   7099.67  5.8241231E-03
   7100.00  5.9828535E-03
   7100.33  6.1510641E-03
   7100.67  6.3284996E-03
   7101.00  6.5159295E-03
   7101.33  6.7157454E-03
   7101.67  6.9277346E-03
   7102.00  7.1530339E-03
   7102.33  7.3950187E-03
   7102.67  7.6536070E-03
   7103.00  7.9305587E-03
   7103.33  8.2308658E-03
   7103.67  8.5547829E-03
   7104.00  8.9051981E-03
   7104.33  9.2899502E-03
   7104.67  9.7101338E-03
   7105.00  1.0170858E-02
   7105.33  1.0685438E-02
   7105.67  1.1257150E-02
   7106.00  1.1895972E-02
   7106.33  1.2627062E-02
   7106.67  1.3459906E-02
   7107.00  1.4416846E-02
   7107.33  1.5553119E-02
   7107.67  1.6898898E-02
   7108.00  1.8515106E-02
   7108.33  2.0553634E-02
   7108.67  2.3133215E-02
   7109.00  2.6479438E-02
   7109.33  3.1190903E-02
   7109.67  3.7953060E-02
   7110.00  4.8116025E-02
   7110.33  6.5589459E-02
   7110.67  9.4578381E-02
   7111.00  1.3581757E-01
   7111.33  1.7378915E-01
   7111.67  1.9206290E-01
   7112.00  1.8991042E-01
   7112.33  1.8343840E-01
   7112.67  1.8514187E-01
   7113.00  1.9391768E-01
   7113.33  2.0465376E-01
   7113.67  2.0983821E-01
   7114.00  1.9671652E-01
   7114.33  1.6773962E-01
   7114.67  1.4342277E-01
   7115.00  1.2975296E-01
   7115.33  1.2752691E-01
   7115.67  1.3452085E-01
   7116.00  1.5119960E-01
   7116.33  1.8005881E-01
   7116.67  2.1624024E-01
   7117.00  2.4666809E-01
   7117.33  2.5690428E-01
   7117.67  2.6385389E-01
   7118.00  2.8293523E-01
   7118.33  3.2017233E-01
   7118.67  3.6456238E-01
   7119.00  4.0115830E-01
   7119.33  4.1626117E-01
   7119.67  4.1637185E-01
   7120.00  4.0858592E-01
   7120.33  3.9689536E-01
   7120.67  3.8403627E-01
   7121.00  3.7194812E-01
   7121.33  3.6308203E-01
   7121.67  3.5845189E-01
   7122.00  3.5847050E-01
   7122.33  3.6331760E-01
   7122.67  3.7144147E-01
   7123.00  3.8166481E-01
   7123.33  3.9264706E-01
   7123.67  4.0315859E-01
   7124.00  4.1260260E-01
   7124.33  4.2072937E-01
   7124.67  4.2818015E-01
   7125.00  4.3585203E-01
   7125.33  4.4552307E-01
   7125.67  4.5845734E-01
   7126.00  4.7505453E-01
   7126.33  4.9439370E-01
   7126.67  5.1340823E-01
   7127.00  5.2948658E-01
   7127.33  5.3988196E-01
   7127.67  5.4456540E-01
   7128.00  5.4402276E-01
   7128.33  5.3896037E-01
   7128.67  5.3137674E-01
   7129.00  5.2290022E-01
   7129.33  5.1570378E-01
   7129.67  5.1086010E-01
   7130.00  5.0850882E-01
   7130.33  5.0862276E-01
   7130.67  5.1067398E-01
   7131.00  5.1460005E-01
   7131.33  5.2064640E-01
   7131.67  5.2849928E-01
   7132.00  5.3789274E-01
   7132.33  5.4835101E-01
   7132.67  5.5896148E-01
   7133.00  5.6904524E-01
   7133.33  5.7783537E-01
   7133.67  5.8505321E-01
   7134.00  5.9046245E-01
   7134.33  5.9380801E-01
   7134.67  5.9567749E-01
   7135.00  5.9654513E-01
   7135.33  5.9679570E-01
   7135.67  5.9671584E-01
   7136.00  5.9630498E-01
   7136.33  5.9530671E-01
   7136.67  5.9342809E-01
   7137.00  5.9028457E-01
   7137.33  5.8524244E-01
   7137.67  5.7826459E-01
   7138.00  5.6937120E-01
   7138.33  5.5868199E-01
   7138.67  5.4696876E-01
   7139.00  5.3482232E-01
   7139.33  5.2292003E-01
   7139.67  5.1178204E-01
   7140.00  5.0180007E-01
   7140.33  4.9352918E-01
   7140.67  4.8703918E-01
   7141.00  4.8246206E-01
   7141.33  4.8008017E-01
   7141.67  4.7956207E-01
   7142.00  4.8074126E-01
   7142.33  4.8352076E-01
   7142.67  4.8739836E-01
   7143.00  4.9208558E-01
   7143.33  4.9732386E-01
   7143.67  5.0276810E-01
   7144.00  5.0820899E-01
   7144.33  5.1341283E-01
   7144.67  5.1822906E-01
   7145.00  5.2252378E-01
   7145.33  5.2607706E-01
   7145.67  5.2885833E-01
   7146.00  5.3080116E-01
   7146.33  5.3177389E-01
   7146.67  5.3191622E-01
   7147.00  5.3129171E-01
   7147.33  5.2993044E-01
   7147.67  5.2806073E-01
   7148.00  5.2582873E-01
   7148.33  5.2338823E-01
   7148.67  5.2093277E-01
   7149.00  5.1859791E-01
   7149.33  5.1655644E-01
   7149.67  5.1488461E-01
   7150.00  5.1364307E-01
   7150.33  5.1293295E-01
   7150.67  5.1270451E-01
   7151.00  5.1293645E-01
   7151.33  5.1362400E-01
   7151.67  5.1463521E-01
   7152.00  5.1588619E-01
   7152.33  5.1728775E-01
   7152.67  5.1871674E-01
   7153.00  5.2008959E-01
   7153.33  5.2130797E-01
   7153.67  5.2231433E-01
   7154.00  5.2304471E-01
   7154.33  5.2338668E-01
   7154.67  5.2332638E-01
   7155.00  5.2282786E-01
   7155.33  5.2180833E-01
   7155.67  5.2031915E-01
   7156.00  5.1836791E-01
   7156.33  5.1591986E-01
   7156.67  5.1305904E-01
   7157.00  5.0981390E-01
   7157.33  5.0617644E-01
   7157.67  5.0222744E-01
   7158.00  4.9800089E-01
   7158.33  4.9351186E-01
   7158.67  4.8883966E-01
   7159.00  4.8403245E-01
   7159.33  4.7914213E-01
   7159.67  4.7424051E-01
   7160.00  4.6937860E-01
   7160.33  4.6462336E-01
   7160.67  4.6001335E-01
   7161.00  4.5558301E-01
   7161.33  4.5138580E-01
   7161.67  4.4741252E-01
   7162.00  4.4367061E-01
   7162.33  4.4019020E-01
   7162.67  4.3693631E-01
   7163.00  4.3390020E-01
   7163.33  4.3109534E-01
   7163.67  4.2848287E-01
   7164.00  4.2605137E-01
   7164.33  4.2380897E-01
   7164.67  4.2172369E-01
   7165.00  4.1978817E-01
   7165.33  4.1801335E-01
   7165.67  4.1637507E-01
   7166.00  4.1486694E-01
   7166.33  4.1349445E-01
   7166.67  4.1223064E-01
   7167.00  4.1106360E-01
   7167.33  4.0998794E-01
   7167.67  4.0897733E-01
   7168.00  4.0801838E-01
   7168.33  4.0710225E-01
   7168.67  4.0621427E-01
   7169.00  4.0534972E-01
   7169.33  4.0451028E-01
   7169.67  4.0369648E-01
   7170.00  4.0291432E-01
   7170.33  4.0217833E-01
   7170.67  4.0149454E-01
   7171.00  4.0087362E-01
   7171.33  4.0033787E-01
   7171.67  3.9988940E-01
   7172.00  3.9953468E-01
