    FDMNES
    energy     <xanes>
   7097.00  4.0777022E-03
   7097.33  4.1609465E-03
   7097.67  4.2474601E-03
   7098.00  4.3374462E-03
   7098.33  4.4316325E-03
   7098.67  4.5298423E-03
   7099.00  4.6323508E-03
   7099.33  4.7400966E-03
   7099.67  4.8528987E-03
   7100.00  4.9711411E-03
   7100.33  5.0960702E-03
   7100.67  5.2275157E-03
   7101.00  5.3660333E-03
   7101.33  5.5133371E-03
   7101.67  5.6693027E-03
   7102.00  5.8347688E-03
   7102.33  6.0121958E-03
   7102.67  6.2015849E-03
   7103.00  6.4042691E-03
   7103.33  6.6239729E-03
   7103.67  6.8610091E-03
   7104.00  7.1176353E-03
   7104.33  7.3998795E-03
   7104.67  7.7088276E-03
   7105.00  8.0486222E-03
   7105.33  8.4298945E-03
   7105.67  8.8557546E-03
   7106.00  9.3346376E-03
   7106.33  9.8875531E-03
   7106.67  1.0523485E-02
   7107.00  1.1262212E-02
   7107.33  1.2152339E-02
   7107.67  1.3222964E-02
   7108.00  1.4530896E-02
   7108.33  1.6218015E-02
   7108.67  1.8402959E-02
   7109.00  2.1309143E-02
   7109.33  2.5536074E-02
   7109.67  3.1805871E-02
   7110.00  4.1545165E-02
   7110.33  5.8838386E-02
   7110.67  8.7160170E-02
   7111.00  1.2293694E-01
   7111.33  1.4845123E-01
   7111.67  1.6534587E-01
   7112.00  1.7525428E-01
   7112.33  1.6389545E-01
   7112.67  1.3806005E-01
   7113.00  1.1568653E-01
   7113.33  1.0374972E-01
   7113.67  9.9541646E-02
   7114.00  1.0108304E-01
   7114.33  1.0206665E-01
   7114.67  9.4095295E-02
   7115.00  7.9677317E-02
   7115.33  6.7194638E-02
   7115.67  5.9058018E-02
   7116.00  5.4499577E-02
   7116.33  5.2398708E-02
   7116.67  5.1600723E-02
   7117.00  5.1845976E-02
   7117.33  5.3179550E-02
   7117.67  5.5308655E-02
   7118.00  5.7925843E-02
   7118.33  6.0629216E-02
   7118.67  6.3255831E-02
   7119.00  6.6011295E-02
   7119.33  6.9400916E-02
   7119.67  7.3769639E-02
   7120.00  7.9416192E-02
   7120.33  8.6864171E-02
   7120.67  9.6256166E-02
   7121.00  1.0791722E-01
   7121.33  1.2257624E-01
   7121.67  1.4027124E-01
   7122.00  1.6130056E-01
   7122.33  1.8644208E-01
   7122.67  2.1524804E-01
   7123.00  2.4710550E-01
   7123.33  2.8065464E-01
   7123.67  3.1373959E-01
   7124.00  3.4473475E-01
   7124.33  3.7130534E-01
   7124.67  3.9281295E-01
   7125.00  4.1027733E-01
   7125.33  4.2675518E-01
   7125.67  4.4450303E-01
   7126.00  4.6374607E-01
   7126.33  4.8387640E-01
   7126.67  5.0280727E-01
   7127.00  5.1817128E-01
   7127.33  5.2721289E-01
   7127.67  5.3043697E-01
   7128.00  5.2918449E-01
   7128.33  5.2600397E-01
   7128.67  5.2440837E-01
   7129.00  5.2673692E-01
   7129.33  5.3483357E-01
   7129.67  5.4788387E-01
   7130.00  5.6552847E-01
   7130.33  5.8811116E-01
   7130.67  6.1433883E-01
   7131.00  6.4254745E-01
   7131.33  6.6974899E-01
   7131.67  6.9339741E-01
   7132.00  7.1253889E-01
   7132.33  7.2751563E-01
   7132.67  7.4048752E-01
   7133.00  7.5259018E-01
   7133.33  7.6485454E-01
   7133.67  7.7867096E-01
   7134.00  7.9538790E-01
   7134.33  8.1597094E-01
   7134.67  8.3859578E-01
   7135.00  8.6045585E-01
   7135.33  8.7648179E-01
   7135.67  8.8369400E-01
   7136.00  8.8122825E-01
   7136.33  8.6986493E-01
   7136.67  8.5380460E-01
   7137.00  8.3564141E-01
   7137.33  8.1746569E-01
   7137.67  8.0037188E-01
   7138.00  7.8472340E-01
   7138.33  7.7075915E-01
   7138.67  7.5818940E-01
   7139.00  7.4690057E-01
   7139.33  7.3689654E-01
   7139.67  7.2787724E-01
   7140.00  7.1967637E-01
   7140.33  7.1211589E-01
   7140.67  7.0480932E-01
   7141.00  6.9744158E-01
   7141.33  6.8957485E-01
   7141.67  6.8094375E-01
   7142.00  6.7140361E-01
   7142.33  6.6091408E-01
   7142.67  6.4991211E-01
   7143.00  6.3883910E-01
   7143.33  6.2832815E-01
   7143.67  6.1882014E-01
   7144.00  6.1063368E-01
   7144.33  6.0417858E-01
   7144.67  5.9929300E-01
   7145.00  5.9588780E-01
   7145.33  5.9394414E-01
   7145.67  5.9306269E-01
   7146.00  5.9301272E-01
   7146.33  5.9358209E-01
   7146.67  5.9442724E-01
   7147.00  5.9532973E-01
   7147.33  5.9604398E-01
   7147.67  5.9640369E-01
   7148.00  5.9627913E-01
   7148.33  5.9547724E-01
   7148.67  5.9398932E-01
   7149.00  5.9176950E-01
   7149.33  5.8869496E-01
   7149.67  5.8485597E-01
   7150.00  5.8026506E-01
   7150.33  5.7486280E-01
   7150.67  5.6878577E-01
   7151.00  5.6208900E-01
   7151.33  5.5477528E-01
   7151.67  5.4697864E-01
   7152.00  5.3875222E-01
   7152.33  5.3010780E-01
   7152.67  5.2114439E-01
   7153.00  5.1190182E-01
   7153.33  5.0239069E-01
   7153.67  4.9267628E-01
   7154.00  4.8278662E-01
   7154.33  4.7273571E-01
   7154.67  4.6257263E-01
   7155.00  4.5232427E-01
   7155.33  4.4201691E-01
   7155.67  4.3169352E-01
   7156.00  4.2138890E-01
   7156.33  4.1115316E-01
   7156.67  4.0101993E-01
   7157.00  3.9102656E-01
   7157.33  3.8124756E-01
   7157.67  3.7171395E-01
   7158.00  3.6247243E-01
   7158.33  3.5361677E-01
   7158.67  3.4514993E-01
   7159.00  3.3710623E-01
   7159.33  3.2957616E-01
   7159.67  3.2253142E-01
   7160.00  3.1599626E-01
   7160.33  3.1007065E-01
   7160.67  3.0472761E-01
   7161.00  3.0000790E-01
   7161.33  2.9604098E-01
   7161.67  2.9277376E-01
   7162.00  2.9020999E-01
   7162.33  2.8840425E-01
   7162.67  2.8720152E-01
   7163.00  2.8651338E-01
   7163.33  2.8627623E-01
   7163.67  2.8633016E-01
   7164.00  2.8659746E-01
   7164.33  2.8702889E-01
   7164.67  2.8756355E-01
   7165.00  2.8818426E-01
   7165.33  2.8890168E-01
   7165.67  2.8972255E-01
   7166.00  2.9067221E-01
   7166.33  2.9180810E-01
   7166.67  2.9314933E-01
   7167.00  2.9472873E-01
   7167.33  2.9661303E-01
   7167.67  2.9879249E-01
   7168.00  3.0127948E-01
   7168.33  3.0411710E-01
   7168.67  3.0725883E-01
   7169.00  3.1068941E-01
   7169.33  3.1441523E-01
   7169.67  3.1836823E-01
   7170.00  3.2251043E-01
   7170.33  3.2680394E-01
   7170.67  3.3116164E-01
   7171.00  3.3550261E-01
   7171.33  3.3966710E-01
   7171.67  3.4344211E-01
   7172.00  3.4653737E-01
