    FDMNES
    energy     <xanes>
   7097.00  4.3475341E-03
   7097.33  4.4349714E-03
   7097.67  4.5258020E-03
   7098.00  4.6202353E-03
   7098.33  4.7190248E-03
   7098.67  4.8219863E-03
   7099.00  4.9294047E-03
   7099.33  5.0422527E-03
   7099.67  5.1603433E-03
   7100.00  5.2840759E-03
   7100.33  5.4147465E-03
   7100.67  5.5521829E-03
   7101.00  5.6969681E-03
   7101.33  5.8508944E-03
   7101.67  6.0138469E-03
   7102.00  6.1867163E-03
   7102.33  6.3721014E-03
   7102.67  6.5700403E-03
   7103.00  6.7819744E-03
   7103.33  7.0118995E-03
   7103.67  7.2602377E-03
   7104.00  7.5294910E-03
   7104.33  7.8262808E-03
   7104.67  8.1520018E-03
   7105.00  8.5114035E-03
   7105.33  8.9165707E-03
   7105.67  9.3715343E-03
   7106.00  9.8864205E-03
   7106.33  1.0486309E-02
   7106.67  1.1183268E-02
   7107.00  1.2002581E-02
   7107.33  1.3006437E-02
   7107.67  1.4236415E-02
   7108.00  1.5771731E-02
   7108.33  1.7812772E-02
   7108.67  2.0545877E-02
   7109.00  2.4322724E-02
   7109.33  3.0115664E-02
   7109.67  3.9213909E-02
   7110.00  5.4202059E-02
   7110.33  8.2381362E-02
   7110.67  1.2699585E-01
   7111.00  1.6669071E-01
   7111.33  1.5305664E-01
   7111.67  1.2555146E-01
   7112.00  1.1168053E-01
   7112.33  1.1545592E-01
   7112.67  1.1859047E-01
   7113.00  1.0789954E-01
   7113.33  8.8752159E-02
   7113.67  7.0540733E-02
   7114.00  5.7938480E-02
   7114.33  5.0249744E-02
   7114.67  4.4686313E-02
   7115.00  4.1220013E-02
   7115.33  3.9486676E-02
   7115.67  3.8644463E-02
   7116.00  3.8582260E-02
   7116.33  3.9412009E-02
   7116.67  4.0885420E-02
   7117.00  4.2742925E-02
   7117.33  4.4728820E-02
   7117.67  4.6811183E-02
   7118.00  4.9185052E-02
   7118.33  5.2235091E-02
   7118.67  5.6182044E-02
   7119.00  6.1279192E-02
   7119.33  6.8070256E-02
   7119.67  7.6839949E-02
   7120.00  8.8090217E-02
   7120.33  1.0274363E-01
   7120.67  1.2053520E-01
   7121.00  1.4105778E-01
   7121.33  1.6413221E-01
   7121.67  1.8963903E-01
   7122.00  2.1793214E-01
   7122.33  2.4936248E-01
   7122.67  2.8318115E-01
   7123.00  3.1919534E-01
   7123.33  3.5792884E-01
   7123.67  3.9951567E-01
   7124.00  4.4434931E-01
   7124.33  4.9338897E-01
   7124.67  5.4632533E-01
   7125.00  6.0216610E-01
   7125.33  6.5716140E-01
   7125.67  7.0518944E-01
   7126.00  7.4079875E-01
   7126.33  7.5916362E-01
   7126.67  7.6367059E-01
   7127.00  7.5690103E-01
   7127.33  7.4123000E-01
   7127.67  7.2288518E-01
   7128.00  7.0745750E-01
   7128.33  6.9986441E-01
   7128.67  6.9858323E-01
   7129.00  7.0063965E-01
   7129.33  7.0303375E-01
   7129.67  7.0566838E-01
   7130.00  7.1138260E-01
   7130.33  7.2625163E-01
   7130.67  7.5232840E-01
   7131.00  7.8743451E-01
   7131.33  8.2333927E-01
   7131.67  8.5007088E-01
   7132.00  8.6213006E-01
   7132.33  8.5692651E-01
   7132.67  8.4090193E-01
   7133.00  8.1977032E-01
   7133.33  7.9943321E-01
   7133.67  7.8312142E-01
   7134.00  7.7157856E-01
   7134.33  7.6406043E-01
   7134.67  7.5701288E-01
   7135.00  7.4693472E-01
   7135.33  7.3085818E-01
   7135.67  7.1140665E-01
   7136.00  6.9192745E-01
   7136.33  6.7499417E-01
   7136.67  6.6049865E-01
   7137.00  6.4787666E-01
   7137.33  6.3660328E-01
   7137.67  6.2608625E-01
   7138.00  6.1613041E-01
   7138.33  6.0670400E-01
   7138.67  5.9773487E-01
   7139.00  5.8923657E-01
   7139.33  5.8129094E-01
   7139.67  5.7385238E-01
   7140.00  5.6692881E-01
   7140.33  5.6058774E-01
   7140.67  5.5476313E-01
   7141.00  5.4945284E-01
   7141.33  5.4472054E-01
   7141.67  5.4051700E-01
   7142.00  5.3687162E-01
   7142.33  5.3388325E-01
   7142.67  5.3149267E-01
   7143.00  5.2970466E-01
   7143.33  5.2859309E-01
   7143.67  5.2807049E-01
   7144.00  5.2810326E-01
   7144.33  5.2867101E-01
   7144.67  5.2958527E-01
   7145.00  5.3069566E-01
   7145.33  5.3178386E-01
   7145.67  5.3260811E-01
   7146.00  5.3295269E-01
   7146.33  5.3249118E-01
   7146.67  5.3111419E-01
   7147.00  5.2869587E-01
   7147.33  5.2501156E-01
   7147.67  5.2018794E-01
   7148.00  5.1426510E-01
   7148.33  5.0721527E-01
   7148.67  4.9930525E-01
   7149.00  4.9068038E-01
   7149.33  4.8145370E-01
   7149.67  4.7187318E-01
   7150.00  4.6208945E-01
   7150.33  4.5226189E-01
   7150.67  4.4254188E-01
   7151.00  4.3304128E-01
   7151.33  4.2391933E-01
   7151.67  4.1521922E-01
   7152.00  4.0698855E-01
   7152.33  3.9932870E-01
   7152.67  3.9220105E-01
   7153.00  3.8561946E-01
   7153.33  3.7966313E-01
   7153.67  3.7426730E-01
   7154.00  3.6943251E-01
   7154.33  3.6522390E-01
   7154.67  3.6156106E-01
   7155.00  3.5842970E-01
   7155.33  3.5587071E-01
   7155.67  3.5379038E-01
   7156.00  3.5215195E-01
   7156.33  3.5094148E-01
   7156.67  3.5004934E-01
   7157.00  3.4942525E-01
   7157.33  3.4903311E-01
   7157.67  3.4878334E-01
   7158.00  3.4862340E-01
   7158.33  3.4850570E-01
   7158.67  3.4838787E-01
   7159.00  3.4825251E-01
   7159.33  3.4809702E-01
   7159.67  3.4794464E-01
   7160.00  3.4782933E-01
   7160.33  3.4781641E-01
   7160.67  3.4795648E-01
   7161.00  3.4830300E-01
   7161.33  3.4894326E-01
   7161.67  3.4988272E-01
   7162.00  3.5113632E-01
   7162.33  3.5273826E-01
   7162.67  3.5462388E-01
   7163.00  3.5675522E-01
   7163.33  3.5909224E-01
   7163.67  3.6154061E-01
   7164.00  3.6404513E-01
   7164.33  3.6654635E-01
   7164.67  3.6900771E-01
   7165.00  3.7142059E-01
   7165.33  3.7379059E-01
   7165.67  3.7615098E-01
   7166.00  3.7853709E-01
   7166.33  3.8100737E-01
   7166.67  3.8360474E-01
   7167.00  3.8637246E-01
   7167.33  3.8938126E-01
   7167.67  3.9263273E-01
   7168.00  3.9613520E-01
   7168.33  3.9992346E-01
   7168.67  4.0396055E-01
   7169.00  4.0823215E-01
   7169.33  4.1273751E-01
   7169.67  4.1741442E-01
   7170.00  4.2222431E-01
   7170.33  4.2712216E-01
   7170.67  4.3202793E-01
   7171.00  4.3686022E-01
   7171.33  4.4144991E-01
   7171.67  4.4558983E-01
   7172.00  4.4898877E-01
