    FDMNES
    energy     <xanes>
   7097.00  4.4984638E-03
   7097.33  4.5928426E-03
   7097.67  4.6911034E-03
   7098.00  4.7934998E-03
   7098.33  4.9009172E-03
   7098.67  5.0131633E-03
   7099.00  5.1305872E-03
   7099.33  5.2543475E-03
   7099.67  5.3842544E-03
   7100.00  5.5208035E-03
   7100.33  5.6655609E-03
   7100.67  5.8183641E-03
   7101.00  5.9799454E-03
   7101.33  6.1525050E-03
   7101.67  6.3359649E-03
   7102.00  6.5314587E-03
   7102.33  6.7422277E-03
   7102.67  6.9684088E-03
   7103.00  7.2118593E-03
   7103.33  7.4776438E-03
   7103.67  7.7664252E-03
   7104.00  8.0814653E-03
   7104.33  8.4312875E-03
   7104.67  8.8178745E-03
   7105.00  9.2474801E-03
   7105.33  9.7358806E-03
   7105.67  1.0288615E-02
   7106.00  1.0919125E-02
   7106.33  1.1660523E-02
   7106.67  1.2529148E-02
   7107.00  1.3558718E-02
   7107.33  1.4831919E-02
   7107.67  1.6404496E-02
   7108.00  1.8382023E-02
   7108.33  2.1030870E-02
   7108.67  2.4597930E-02
   7109.00  2.9547400E-02
   7109.33  3.7156890E-02
   7109.67  4.9103015E-02
   7110.00  6.8737557E-02
   7110.33  1.0559071E-01
   7110.67  1.6502456E-01
   7111.00  2.2482091E-01
   7111.33  2.2772698E-01
   7111.67  1.9687493E-01
   7112.00  1.5327524E-01
   7112.33  1.2153105E-01
   7112.67  1.0668661E-01
   7113.00  1.0146870E-01
   7113.33  9.0259821E-02
   7113.67  7.3788690E-02
   7114.00  6.1126397E-02
   7114.33  5.2858604E-02
   7114.67  4.6247013E-02
   7115.00  4.1937576E-02
   7115.33  3.9957634E-02
   7115.67  3.9400438E-02
   7116.00  3.9945116E-02
   7116.33  4.1474520E-02
   7116.67  4.3555088E-02
   7117.00  4.5812178E-02
   7117.33  4.8076939E-02
   7117.67  5.0597283E-02
   7118.00  5.3621669E-02
   7118.33  5.7358214E-02
   7118.67  6.1783903E-02
   7119.00  6.6990151E-02
   7119.33  7.3306247E-02
   7119.67  8.0926130E-02
   7120.00  9.0211004E-02
   7120.33  1.0193799E-01
   7120.67  1.1635917E-01
   7121.00  1.3383397E-01
   7121.33  1.5498902E-01
   7121.67  1.7962427E-01
   7122.00  2.0820406E-01
   7122.33  2.4200228E-01
   7122.67  2.8077963E-01
   7123.00  3.2449538E-01
   7123.33  3.7371940E-01
   7123.67  4.2793929E-01
   7124.00  4.8701431E-01
   7124.33  5.5030211E-01
   7124.67  6.1471805E-01
   7125.00  6.7686084E-01
   7125.33  7.3095064E-01
   7125.67  7.7248293E-01
   7126.00  7.9662321E-01
   7126.33  7.9691175E-01
   7126.67  7.7970479E-01
   7127.00  7.5451962E-01
   7127.33  7.3158558E-01
   7127.67  7.1460982E-01
   7128.00  7.0377985E-01
   7128.33  6.9806081E-01
   7128.67  6.9401267E-01
   7129.00  6.8955409E-01
   7129.33  6.8466036E-01
   7129.67  6.8180077E-01
   7130.00  6.8337261E-01
   7130.33  6.9179092E-01
   7130.67  7.0680579E-01
   7131.00  7.2862256E-01
   7131.33  7.5694802E-01
   7131.67  7.8711143E-01
   7132.00  8.1418018E-01
   7132.33  8.3181714E-01
   7132.67  8.3771171E-01
   7133.00  8.3101606E-01
   7133.33  8.1211224E-01
   7133.67  7.8694887E-01
   7134.00  7.6082048E-01
   7134.33  7.3975192E-01
   7134.67  7.2546376E-01
   7135.00  7.1640689E-01
   7135.33  7.0773106E-01
   7135.67  6.9531754E-01
   7136.00  6.7962733E-01
   7136.33  6.6395823E-01
   7136.67  6.5034404E-01
   7137.00  6.3888631E-01
   7137.33  6.2911766E-01
   7137.67  6.2013920E-01
   7138.00  6.1150339E-01
   7138.33  6.0289998E-01
   7138.67  5.9419316E-01
   7139.00  5.8537593E-01
   7139.33  5.7651634E-01
   7139.67  5.6774395E-01
   7140.00  5.5918593E-01
   7140.33  5.5104044E-01
   7140.67  5.4340563E-01
   7141.00  5.3639177E-01
   7141.33  5.3020547E-01
   7141.67  5.2486545E-01
   7142.00  5.2044262E-01
   7142.33  5.1709254E-01
   7142.67  5.1469468E-01
   7143.00  5.1321673E-01
   7143.33  5.1268479E-01
   7143.67  5.1288385E-01
   7144.00  5.1370921E-01
   7144.33  5.1507592E-01
   7144.67  5.1674221E-01
   7145.00  5.1852465E-01
   7145.33  5.2017299E-01
   7145.67  5.2145887E-01
   7146.00  5.2218089E-01
   7146.33  5.2203365E-01
   7146.67  5.2094991E-01
   7147.00  5.1883591E-01
   7147.33  5.1550943E-01
   7147.67  5.1112522E-01
   7148.00  5.0574995E-01
   7148.33  4.9940042E-01
   7148.67  4.9234718E-01
   7149.00  4.8474710E-01
   7149.33  4.7674458E-01
   7149.67  4.6856814E-01
   7150.00  4.6036455E-01
   7150.33  4.5229810E-01
   7150.67  4.4447302E-01
   7151.00  4.3696829E-01
   7151.33  4.2989649E-01
   7151.67  4.2324720E-01
   7152.00  4.1703452E-01
   7152.33  4.1131355E-01
   7152.67  4.0602180E-01
   7153.00  4.0114206E-01
   7153.33  3.9668659E-01
   7153.67  3.9256645E-01
   7154.00  3.8874395E-01
   7154.33  3.8520728E-01
   7154.67  3.8188487E-01
   7155.00  3.7874621E-01
   7155.33  3.7577230E-01
   7155.67  3.7291133E-01
   7156.00  3.7015006E-01
   7156.33  3.6749303E-01
   7156.67  3.6492291E-01
   7157.00  3.6243599E-01
   7157.33  3.6003931E-01
   7157.67  3.5772047E-01
   7158.00  3.5547729E-01
   7158.33  3.5331605E-01
   7158.67  3.5122576E-01
   7159.00  3.4920648E-01
   7159.33  3.4727136E-01
   7159.67  3.4542205E-01
   7160.00  3.4367601E-01
   7160.33  3.4208174E-01
   7160.67  3.4066852E-01
   7161.00  3.3948811E-01
   7161.33  3.3865055E-01
   7161.67  3.3819690E-01
   7162.00  3.3819493E-01
   7162.33  3.3877932E-01
   7162.67  3.3993439E-01
   7163.00  3.4168118E-01
   7163.33  3.4409054E-01
   7163.67  3.4705219E-01
   7164.00  3.5050835E-01
   7164.33  3.5442643E-01
   7164.67  3.5864827E-01
   7165.00  3.6307967E-01
   7165.33  3.6764219E-01
   7165.67  3.7224323E-01
   7166.00  3.7683061E-01
   7166.33  3.8135908E-01
   7166.67  3.8582144E-01
   7167.00  3.9022434E-01
   7167.33  3.9458840E-01
   7167.67  3.9895423E-01
   7168.00  4.0335256E-01
   7168.33  4.0781549E-01
   7168.67  4.1235609E-01
   7169.00  4.1698727E-01
   7169.33  4.2172325E-01
   7169.67  4.2653935E-01
   7170.00  4.3141171E-01
   7170.33  4.3630196E-01
   7170.67  4.4115648E-01
   7171.00  4.4590860E-01
   7171.33  4.5039949E-01
   7171.67  4.5443746E-01
   7172.00  4.5774716E-01
