    FDMNES
    energy     <xanes>
   7097.00  4.2649705E-03
   7097.33  4.3547281E-03
   7097.67  4.4481455E-03
   7098.00  4.5454555E-03
   7098.33  4.6474812E-03
   7098.67  4.7540312E-03
   7099.00  4.8654213E-03
   7099.33  4.9827169E-03
   7099.67  5.1057218E-03
   7100.00  5.2348767E-03
   7100.33  5.3716001E-03
   7100.67  5.5157079E-03
   7101.00  5.6678369E-03
   7101.33  5.8299407E-03
   7101.67  6.0018859E-03
   7102.00  6.1846315E-03
   7102.33  6.3809813E-03
   7102.67  6.5909404E-03
   7103.00  6.8160264E-03
   7103.33  7.0604744E-03
   7103.67  7.3246319E-03
   7104.00  7.6110531E-03
   7104.33  7.9265601E-03
   7104.67  8.2723448E-03
   7105.00  8.6530537E-03
   7105.33  9.0806248E-03
   7105.67  9.5584434E-03
   7106.00  1.0095861E-02
   7106.33  1.0716200E-02
   7106.67  1.1429138E-02
   7107.00  1.2256274E-02
   7107.33  1.3250689E-02
   7107.67  1.4443287E-02
   7108.00  1.5894863E-02
   7108.33  1.7756897E-02
   7108.67  2.0152790E-02
   7109.00  2.3315151E-02
   7109.33  2.7864188E-02
   7109.67  3.4529575E-02
   7110.00  4.4749462E-02
   7110.33  6.2668521E-02
   7110.67  9.2313720E-02
   7111.00  1.3216568E-01
   7111.33  1.6338192E-01
   7111.67  1.8178533E-01
   7112.00  1.9190923E-01
   7112.33  1.9454400E-01
   7112.67  1.9009248E-01
   7113.00  1.7440347E-01
   7113.33  1.4990863E-01
   7113.67  1.2748620E-01
   7114.00  1.1164329E-01
   7114.33  1.0176293E-01
   7114.67  9.2696320E-02
   7115.00  8.4015376E-02
   7115.33  7.7430752E-02
   7115.67  7.2699536E-02
   7116.00  7.0134101E-02
   7116.33  7.0439658E-02
   7116.67  7.3263337E-02
   7117.00  7.8235243E-02
   7117.33  8.4511693E-02
   7117.67  9.1207415E-02
   7118.00  9.8346501E-02
   7118.33  1.0582556E-01
   7118.67  1.1325104E-01
   7119.00  1.2076352E-01
   7119.33  1.2926789E-01
   7119.67  1.3940683E-01
   7120.00  1.5131394E-01
   7120.33  1.6467684E-01
   7120.67  1.7861661E-01
   7121.00  1.9282049E-01
   7121.33  2.0772832E-01
   7121.67  2.2408748E-01
   7122.00  2.4237760E-01
   7122.33  2.6274566E-01
   7122.67  2.8421059E-01
   7123.00  3.0565847E-01
   7123.33  3.2524420E-01
   7123.67  3.4228666E-01
   7124.00  3.5764927E-01
   7124.33  3.7338023E-01
   7124.67  3.9017326E-01
   7125.00  4.0682560E-01
   7125.33  4.2102615E-01
   7125.67  4.3244479E-01
   7126.00  4.4141196E-01
   7126.33  4.4756467E-01
   7126.67  4.5146638E-01
   7127.00  4.5428261E-01
   7127.33  4.5790754E-01
   7127.67  4.6362413E-01
   7128.00  4.7196715E-01
   7128.33  4.8323974E-01
   7128.67  4.9634379E-01
   7129.00  5.0965524E-01
   7129.33  5.2017294E-01
   7129.67  5.2646429E-01
   7130.00  5.2881826E-01
   7130.33  5.2884060E-01
   7130.67  5.2913693E-01
   7131.00  5.3152370E-01
   7131.33  5.3814989E-01
   7131.67  5.4969288E-01
   7132.00  5.6660730E-01
   7132.33  5.8934179E-01
   7132.67  6.1633836E-01
   7133.00  6.4642709E-01
   7133.33  6.7841175E-01
   7133.67  7.1095167E-01
   7134.00  7.4288930E-01
   7134.33  7.7077308E-01
   7134.67  7.9012266E-01
   7135.00  7.9751225E-01
   7135.33  7.9139623E-01
   7135.67  7.7667526E-01
   7136.00  7.5676523E-01
   7136.33  7.3431333E-01
   7136.67  7.1137556E-01
   7137.00  6.8899821E-01
   7137.33  6.6845152E-01
   7137.67  6.5049176E-01
   7138.00  6.3575100E-01
   7138.33  6.2507021E-01
   7138.67  6.1799702E-01
   7139.00  6.1426963E-01
   7139.33  6.1372588E-01
   7139.67  6.1536482E-01
   7140.00  6.1859717E-01
   7140.33  6.2290175E-01
   7140.67  6.2765080E-01
   7141.00  6.3254216E-01
   7141.33  6.3732968E-01
   7141.67  6.4182638E-01
   7142.00  6.4583152E-01
   7142.33  6.4898615E-01
   7142.67  6.5116259E-01
   7143.00  6.5227755E-01
   7143.33  6.5230279E-01
   7143.67  6.5167125E-01
   7144.00  6.5079220E-01
   7144.33  6.5024824E-01
   7144.67  6.5047799E-01
   7145.00  6.5171732E-01
   7145.33  6.5407203E-01
   7145.67  6.5708393E-01
   7146.00  6.6027922E-01
   7146.33  6.6298913E-01
   7146.67  6.6476397E-01
   7147.00  6.6535459E-01
   7147.33  6.6454980E-01
   7147.67  6.6263981E-01
   7148.00  6.5982681E-01
   7148.33  6.5627785E-01
   7148.67  6.5224623E-01
   7149.00  6.4777968E-01
   7149.33  6.4276926E-01
   7149.67  6.3716084E-01
   7150.00  6.3084028E-01
   7150.33  6.2358403E-01
   7150.67  6.1541441E-01
   7151.00  6.0630525E-01
   7151.33  5.9617493E-01
   7151.67  5.8524467E-01
   7152.00  5.7366724E-01
   7152.33  5.6162164E-01
   7152.67  5.4942004E-01
   7153.00  5.3728771E-01
   7153.33  5.2550229E-01
   7153.67  5.1420701E-01
   7154.00  5.0350112E-01
   7154.33  4.9352808E-01
   7154.67  4.8422456E-01
   7155.00  4.7557966E-01
   7155.33  4.6763630E-01
   7155.67  4.6026454E-01
   7156.00  4.5340971E-01
   7156.33  4.4705381E-01
   7156.67  4.4106232E-01
   7157.00  4.3536727E-01
   7157.33  4.2992017E-01
   7157.67  4.2462413E-01
   7158.00  4.1942978E-01
   7158.33  4.1430385E-01
   7158.67  4.0921791E-01
   7159.00  4.0417042E-01
   7159.33  3.9918364E-01
   7159.67  3.9428153E-01
   7160.00  3.8949969E-01
   7160.33  3.8490611E-01
   7160.67  3.8052808E-01
   7161.00  3.7640619E-01
   7161.33  3.7261994E-01
   7161.67  3.6916598E-01
   7162.00  3.6606899E-01
   7162.33  3.6340048E-01
   7162.67  3.6113231E-01
   7163.00  3.5927901E-01
   7163.33  3.5790971E-01
   7163.67  3.5698446E-01
   7164.00  3.5651211E-01
   7164.33  3.5655206E-01
   7164.67  3.5703608E-01
   7165.00  3.5793856E-01
   7165.33  3.5925347E-01
   7165.67  3.6086074E-01
   7166.00  3.6268286E-01
   7166.33  3.6463538E-01
   7166.67  3.6660442E-01
   7167.00  3.6851234E-01
   7167.33  3.7027212E-01
   7167.67  3.7185759E-01
   7168.00  3.7325540E-01
   7168.33  3.7445210E-01
   7168.67  3.7549873E-01
   7169.00  3.7642867E-01
   7169.33  3.7727274E-01
   7169.67  3.7807522E-01
   7170.00  3.7885782E-01
   7170.33  3.7963370E-01
   7170.67  3.8040520E-01
   7171.00  3.8116424E-01
   7171.33  3.8188533E-01
   7171.67  3.8253429E-01
   7172.00  3.8306279E-01
