    FDMNES
    energy     <xanes>
   7097.00  4.5094083E-03
   7097.33  4.6048240E-03
   7097.67  4.7042246E-03
   7098.00  4.8078720E-03
   7098.33  4.9166765E-03
   7098.67  5.0304417E-03
   7099.00  5.1495263E-03
   7099.33  5.2751203E-03
   7099.67  5.4070271E-03
   7100.00  5.5457536E-03
   7100.33  5.6929026E-03
   7100.67  5.8483006E-03
   7101.00  6.0126905E-03
   7101.33  6.1883108E-03
   7101.67  6.3750635E-03
   7102.00  6.5740855E-03
   7102.33  6.7886446E-03
   7102.67  7.0188361E-03
   7103.00  7.2664948E-03
   7103.33  7.5366582E-03
   7103.67  7.8298929E-03
   7104.00  8.1493583E-03
   7104.33  8.5033720E-03
   7104.67  8.8936665E-03
   7105.00  9.3261484E-03
   7105.33  9.8158162E-03
   7105.67  1.0367478E-02
   7106.00  1.0993422E-02
   7106.33  1.1724050E-02
   7106.67  1.2573229E-02
   7107.00  1.3570524E-02
   7107.33  1.4788423E-02
   7107.67  1.6272514E-02
   7108.00  1.8110493E-02
   7108.33  2.0522012E-02
   7108.67  2.3698332E-02
   7109.00  2.7998848E-02
   7109.33  3.4396565E-02
   7109.67  4.4102831E-02
   7110.00  5.9521541E-02
   7110.33  8.7545201E-02
   7110.67  1.3358397E-01
   7111.00  1.8888566E-01
   7111.33  2.1757106E-01
   7111.67  2.2061673E-01
   7112.00  2.0803708E-01
   7112.33  1.9039995E-01
   7112.67  1.6792800E-01
   7113.00  1.4664391E-01
   7113.33  1.3398018E-01
   7113.67  1.1950221E-01
   7114.00  9.7436185E-02
   7114.33  7.9071461E-02
   7114.67  6.7821706E-02
   7115.00  6.0642581E-02
   7115.33  5.7463255E-02
   7115.67  5.7688947E-02
   7116.00  6.0595230E-02
   7116.33  6.5651546E-02
   7116.67  7.1887780E-02
   7117.00  7.8633437E-02
   7117.33  8.5329042E-02
   7117.67  9.1900640E-02
   7118.00  9.8425912E-02
   7118.33  1.0491836E-01
   7118.67  1.1140032E-01
   7119.00  1.1794215E-01
   7119.33  1.2466493E-01
   7119.67  1.3161803E-01
   7120.00  1.3884419E-01
   7120.33  1.4647745E-01
   7120.67  1.5464424E-01
   7121.00  1.6356479E-01
   7121.33  1.7374615E-01
   7121.67  1.8558355E-01
   7122.00  1.9962572E-01
   7122.33  2.1648636E-01
   7122.67  2.3496445E-01
   7123.00  2.5354564E-01
   7123.33  2.7136407E-01
   7123.67  2.8843214E-01
   7124.00  3.0488024E-01
   7124.33  3.2144637E-01
   7124.67  3.3705252E-01
   7125.00  3.4992526E-01
   7125.33  3.6150355E-01
   7125.67  3.7716037E-01
   7126.00  4.0051614E-01
   7126.33  4.3348876E-01
   7126.67  4.7276622E-01
   7127.00  5.1536027E-01
   7127.33  5.6064607E-01
   7127.67  6.1023971E-01
   7128.00  6.6418441E-01
   7128.33  7.1991598E-01
   7128.67  7.7392929E-01
   7129.00  8.2408147E-01
   7129.33  8.6710442E-01
   7129.67  9.0033577E-01
   7130.00  9.2046005E-01
   7130.33  9.2306991E-01
   7130.67  9.1084889E-01
   7131.00  8.8723357E-01
   7131.33  8.5740599E-01
   7131.67  8.2778471E-01
   7132.00  8.0187334E-01
   7132.33  7.8226450E-01
   7132.67  7.6811243E-01
   7133.00  7.5826408E-01
   7133.33  7.5124846E-01
   7133.67  7.4500859E-01
   7134.00  7.3826314E-01
   7134.33  7.2967452E-01
   7134.67  7.1885991E-01
   7135.00  7.0574295E-01
   7135.33  6.9029609E-01
   7135.67  6.7329336E-01
   7136.00  6.5543729E-01
   7136.33  6.3788869E-01
   7136.67  6.2196233E-01
   7137.00  6.0880830E-01
   7137.33  5.9992631E-01
   7137.67  5.9526526E-01
   7138.00  5.9464533E-01
   7138.33  5.9779962E-01
   7138.67  6.0338785E-01
   7139.00  6.1061864E-01
   7139.33  6.1880238E-01
   7139.67  6.2721685E-01
   7140.00  6.3546787E-01
   7140.33  6.4316623E-01
   7140.67  6.5016382E-01
   7141.00  6.5633955E-01
   7141.33  6.6145811E-01
   7141.67  6.6551966E-01
   7142.00  6.6841246E-01
   7142.33  6.6982020E-01
   7142.67  6.6973123E-01
   7143.00  6.6797652E-01
   7143.33  6.6411512E-01
   7143.67  6.5818429E-01
   7144.00  6.5004697E-01
   7144.33  6.3932972E-01
   7144.67  6.2635148E-01
   7145.00  6.1126024E-01
   7145.33  5.9415457E-01
   7145.67  5.7572753E-01
   7146.00  5.5646435E-01
   7146.33  5.3693078E-01
   7146.67  5.1771414E-01
   7147.00  4.9921594E-01
   7147.33  4.8191243E-01
   7147.67  4.6585898E-01
   7148.00  4.5109715E-01
   7148.33  4.3774845E-01
   7148.67  4.2558321E-01
   7149.00  4.1453218E-01
   7149.33  4.0464964E-01
   7149.67  3.9574397E-01
   7150.00  3.8777449E-01
   7150.33  3.8081508E-01
   7150.67  3.7471853E-01
   7151.00  3.6945102E-01
   7151.33  3.6506065E-01
   7151.67  3.6138974E-01
   7152.00  3.5837910E-01
   7152.33  3.5602497E-01
   7152.67  3.5417022E-01
   7153.00  3.5273819E-01
   7153.33  3.5167860E-01
   7153.67  3.5085901E-01
   7154.00  3.5020103E-01
   7154.33  3.4962468E-01
   7154.67  3.4903916E-01
   7155.00  3.4838185E-01
   7155.33  3.4757289E-01
   7155.67  3.4657944E-01
   7156.00  3.4537183E-01
   7156.33  3.4390576E-01
   7156.67  3.4221487E-01
   7157.00  3.4031769E-01
   7157.33  3.3822887E-01
   7157.67  3.3601654E-01
   7158.00  3.3372473E-01
   7158.33  3.3140066E-01
   7158.67  3.2909573E-01
   7159.00  3.2684763E-01
   7159.33  3.2470903E-01
   7159.67  3.2270541E-01
   7160.00  3.2086773E-01
   7160.33  3.1925684E-01
   7160.67  3.1788249E-01
   7161.00  3.1677381E-01
   7161.33  3.1600124E-01
   7161.67  3.1555909E-01
   7162.00  3.1547197E-01
   7162.33  3.1581303E-01
   7162.67  3.1656152E-01
   7163.00  3.1774232E-01
   7163.33  3.1944291E-01
   7163.67  3.2163681E-01
   7164.00  3.2435178E-01
   7164.33  3.2768822E-01
   7164.67  3.3160402E-01
   7165.00  3.3611651E-01
   7165.33  3.4131377E-01
   7165.67  3.4711884E-01
   7166.00  3.5351695E-01
   7166.33  3.6054162E-01
   7166.67  3.6806496E-01
   7167.00  3.7601933E-01
   7167.33  3.8435013E-01
   7167.67  3.9290497E-01
   7168.00  4.0158338E-01
   7168.33  4.1027087E-01
   7168.67  4.1885917E-01
   7169.00  4.2726710E-01
   7169.33  4.3538446E-01
   7169.67  4.4318395E-01
   7170.00  4.5062690E-01
   7170.33  4.5762910E-01
   7170.67  4.6420588E-01
   7171.00  4.7031832E-01
   7171.33  4.7581752E-01
   7171.67  4.8060921E-01
   7172.00  4.8447242E-01
