    FDMNES
    energy     <xanes>
   7097.00  4.4121293E-03
   7097.33  4.5070985E-03
   7097.67  4.6060482E-03
   7098.00  4.7092366E-03
   7098.33  4.8175671E-03
   7098.67  4.9308380E-03
   7099.00  5.0494001E-03
   7099.33  5.1744269E-03
   7099.67  5.3057118E-03
   7100.00  5.4437452E-03
   7100.33  5.5900938E-03
   7100.67  5.7445645E-03
   7101.00  5.9078661E-03
   7101.33  6.0821599E-03
   7101.67  6.2673083E-03
   7102.00  6.4643766E-03
   7102.33  6.6764677E-03
   7102.67  6.9035932E-03
   7103.00  7.1474325E-03
   7103.33  7.4126637E-03
   7103.67  7.6996639E-03
   7104.00  8.0112407E-03
   7104.33  8.3548937E-03
   7104.67  8.7318910E-03
   7105.00  9.1472892E-03
   7105.33  9.6140951E-03
   7105.67  1.0135861E-02
   7106.00  1.0722618E-02
   7106.33  1.1399415E-02
   7106.67  1.2176248E-02
   7107.00  1.3075822E-02
   7107.33  1.4153944E-02
   7107.67  1.5441880E-02
   7108.00  1.7001814E-02
   7108.33  1.8988225E-02
   7108.67  2.1522506E-02
   7109.00  2.4834022E-02
   7109.33  2.9529652E-02
   7109.67  3.6301365E-02
   7110.00  4.6508514E-02
   7110.33  6.4071187E-02
   7110.67  9.3114613E-02
   7111.00  1.3404212E-01
   7111.33  1.7117995E-01
   7111.67  1.9317211E-01
   7112.00  2.0275144E-01
   7112.33  2.0763650E-01
   7112.67  2.2513196E-01
   7113.00  2.5254575E-01
   7113.33  2.5398561E-01
   7113.67  2.2444191E-01
   7114.00  1.8636212E-01
   7114.33  1.5100427E-01
   7114.67  1.2205047E-01
   7115.00  1.0012209E-01
   7115.33  8.5862486E-02
   7115.67  7.6614563E-02
   7116.00  7.1061991E-02
   7116.33  6.9054503E-02
   7116.67  6.9839390E-02
   7117.00  7.3123573E-02
   7117.33  7.8745635E-02
   7117.67  8.5739721E-02
   7118.00  9.3456113E-02
   7118.33  1.0178153E-01
   7118.67  1.1120488E-01
   7119.00  1.2247464E-01
   7119.33  1.3641322E-01
   7119.67  1.5215243E-01
   7120.00  1.6814704E-01
   7120.33  1.8174122E-01
   7120.67  1.9157295E-01
   7121.00  1.9771543E-01
   7121.33  2.0147246E-01
   7121.67  2.0521307E-01
   7122.00  2.1047407E-01
   7122.33  2.1868204E-01
   7122.67  2.2967291E-01
   7123.00  2.4284668E-01
   7123.33  2.5708778E-01
   7123.67  2.7127193E-01
   7124.00  2.8552651E-01
   7124.33  3.0073392E-01
   7124.67  3.1706431E-01
   7125.00  3.3408813E-01
   7125.33  3.5104974E-01
   7125.67  3.6794091E-01
   7126.00  3.8536819E-01
   7126.33  4.0404747E-01
   7126.67  4.2372764E-01
   7127.00  4.4369177E-01
   7127.33  4.6255130E-01
   7127.67  4.7921250E-01
   7128.00  4.9272805E-01
   7128.33  5.0148199E-01
   7128.67  5.0579530E-01
   7129.00  5.0702530E-01
   7129.33  5.0796460E-01
   7129.67  5.1115864E-01
   7130.00  5.1765500E-01
   7130.33  5.2774561E-01
   7130.67  5.4005800E-01
   7131.00  5.5357120E-01
   7131.33  5.6736335E-01
   7131.67  5.8107595E-01
   7132.00  5.9511259E-01
   7132.33  6.1073303E-01
   7132.67  6.2885569E-01
   7133.00  6.4988514E-01
   7133.33  6.7379267E-01
   7133.67  6.9948023E-01
   7134.00  7.2642417E-01
   7134.33  7.5419440E-01
   7134.67  7.8171641E-01
   7135.00  8.0781924E-01
   7135.33  8.3088958E-01
   7135.67  8.5022225E-01
   7136.00  8.6516396E-01
   7136.33  8.7467043E-01
   7136.67  8.7902129E-01
   7137.00  8.7790715E-01
   7137.33  8.7045999E-01
   7137.67  8.5773829E-01
   7138.00  8.4049585E-01
   7138.33  8.1952479E-01
   7138.67  7.9654425E-01
   7139.00  7.7259434E-01
   7139.33  7.4869244E-01
   7139.67  7.2559368E-01
   7140.00  7.0375908E-01
   7140.33  6.8374418E-01
   7140.67  6.6555637E-01
   7141.00  6.4929882E-01
   7141.33  6.3527008E-01
   7141.67  6.2322457E-01
   7142.00  6.1315590E-01
   7142.33  6.0528743E-01
   7142.67  5.9929933E-01
   7143.00  5.9505212E-01
   7143.33  5.9247154E-01
   7143.67  5.9102714E-01
   7144.00  5.9038777E-01
   7144.33  5.9023276E-01
   7144.67  5.9019345E-01
   7145.00  5.9007133E-01
   7145.33  5.8970006E-01
   7145.67  5.8906448E-01
   7146.00  5.8819035E-01
   7146.33  5.8712755E-01
   7146.67  5.8599175E-01
   7147.00  5.8487302E-01
   7147.33  5.8389204E-01
   7147.67  5.8313181E-01
   7148.00  5.8265764E-01
   7148.33  5.8254777E-01
   7148.67  5.8275528E-01
   7149.00  5.8323512E-01
   7149.33  5.8390591E-01
   7149.67  5.8459248E-01
   7150.00  5.8513514E-01
   7150.33  5.8528580E-01
   7150.67  5.8487808E-01
   7151.00  5.8374048E-01
   7151.33  5.8158013E-01
   7151.67  5.7836931E-01
   7152.00  5.7403229E-01
   7152.33  5.6840611E-01
   7152.67  5.6169747E-01
   7153.00  5.5402067E-01
   7153.33  5.4544798E-01
   7153.67  5.3627060E-01
   7154.00  5.2665165E-01
   7154.33  5.1672243E-01
   7154.67  5.0665407E-01
   7155.00  4.9654333E-01
   7155.33  4.8648873E-01
   7155.67  4.7655976E-01
   7156.00  4.6681169E-01
   7156.33  4.5733070E-01
   7156.67  4.4813965E-01
   7157.00  4.3928220E-01
   7157.33  4.3085522E-01
   7157.67  4.2285577E-01
   7158.00  4.1531596E-01
   7158.33  4.0832273E-01
   7158.67  4.0182728E-01
   7159.00  3.9582737E-01
   7159.33  3.9036416E-01
   7159.67  3.8534340E-01
   7160.00  3.8072592E-01
   7160.33  3.7650540E-01
   7160.67  3.7258527E-01
   7161.00  3.6892304E-01
   7161.33  3.6550555E-01
   7161.67  3.6227867E-01
   7162.00  3.5923124E-01
   7162.33  3.5639203E-01
   7162.67  3.5375948E-01
   7163.00  3.5135738E-01
   7163.33  3.4924346E-01
   7163.67  3.4740353E-01
   7164.00  3.4584421E-01
   7164.33  3.4459971E-01
   7164.67  3.4362992E-01
   7165.00  3.4293125E-01
   7165.33  3.4254033E-01
   7165.67  3.4243621E-01
   7166.00  3.4263887E-01
   7166.33  3.4322057E-01
   7166.67  3.4417183E-01
   7167.00  3.4551863E-01
   7167.33  3.4733615E-01
   7167.67  3.4958200E-01
   7168.00  3.5225197E-01
   7168.33  3.5537596E-01
   7168.67  3.5886648E-01
   7169.00  3.6267976E-01
   7169.33  3.6678585E-01
   7169.67  3.7108035E-01
   7170.00  3.7549616E-01
   7170.33  3.7995517E-01
   7170.67  3.8436316E-01
   7171.00  3.8863320E-01
   7171.33  3.9260339E-01
   7171.67  3.9611690E-01
   7172.00  3.9895053E-01
