    FDMNES
    energy     <xanes>
   7097.00  3.9856884E-03
   7097.33  4.0652474E-03
   7097.67  4.1479150E-03
   7098.00  4.2338869E-03
   7098.33  4.3238595E-03
   7098.67  4.4176690E-03
   7099.00  4.5155821E-03
   7099.33  4.6185020E-03
   7099.67  4.7262627E-03
   7100.00  4.8392397E-03
   7100.33  4.9586398E-03
   7100.67  5.0843120E-03
   7101.00  5.2168040E-03
   7101.33  5.3577889E-03
   7101.67  5.5071679E-03
   7102.00  5.6657757E-03
   7102.33  5.8360370E-03
   7102.67  6.0179901E-03
   7103.00  6.2129759E-03
   7103.33  6.4247059E-03
   7103.67  6.6535534E-03
   7104.00  6.9018154E-03
   7104.33  7.1755746E-03
   7104.67  7.4760309E-03
   7105.00  7.8074496E-03
   7105.33  8.1807037E-03
   7105.67  8.5991552E-03
   7106.00  9.0715905E-03
   7106.33  9.6197920E-03
   7106.67  1.0253397E-02
   7107.00  1.0993220E-02
   7107.33  1.1890269E-02
   7107.67  1.2975639E-02
   7108.00  1.4309498E-02
   7108.33  1.6041798E-02
   7108.67  1.8298422E-02
   7109.00  2.1315231E-02
   7109.33  2.5722392E-02
   7109.67  3.2272002E-02
   7110.00  4.2444319E-02
   7110.33  6.0514062E-02
   7110.67  9.0759652E-02
   7111.00  1.3265346E-01
   7111.33  1.7133782E-01
   7111.67  1.9225137E-01
   7112.00  1.8372036E-01
   7112.33  1.5112659E-01
   7112.67  1.1823404E-01
   7113.00  9.3387277E-02
   7113.33  7.9375814E-02
   7113.67  7.3487768E-02
   7114.00  7.4857235E-02
   7114.33  8.2027341E-02
   7114.67  8.4032802E-02
   7115.00  7.3577679E-02
   7115.33  5.9500486E-02
   7115.67  4.9505006E-02
   7116.00  4.3595641E-02
   7116.33  4.0704119E-02
   7116.67  3.9490937E-02
   7117.00  3.9452428E-02
   7117.33  4.0313365E-02
   7117.67  4.1673857E-02
   7118.00  4.3278521E-02
   7118.33  4.4874682E-02
   7118.67  4.6353133E-02
   7119.00  4.7747416E-02
   7119.33  4.9209292E-02
   7119.67  5.0959706E-02
   7120.00  5.3205076E-02
   7120.33  5.6157689E-02
   7120.67  5.9696970E-02
   7121.00  6.3685229E-02
   7121.33  6.8102928E-02
   7121.67  7.3141581E-02
   7122.00  7.9202738E-02
   7122.33  8.7011247E-02
   7122.67  9.6926402E-02
   7123.00  1.0944473E-01
   7123.33  1.2559585E-01
   7123.67  1.4575461E-01
   7124.00  1.7081389E-01
   7124.33  2.0256263E-01
   7124.67  2.4026658E-01
   7125.00  2.8187459E-01
   7125.33  3.2200239E-01
   7125.67  3.5482766E-01
   7126.00  3.7642483E-01
   7126.33  3.8685615E-01
   7126.67  3.9646722E-01
   7127.00  4.1235626E-01
   7127.33  4.3869050E-01
   7127.67  4.7420248E-01
   7128.00  5.1744717E-01
   7128.33  5.6529923E-01
   7128.67  6.1187221E-01
   7129.00  6.5339069E-01
   7129.33  6.8901824E-01
   7129.67  7.2356576E-01
   7130.00  7.6143637E-01
   7130.33  8.0579622E-01
   7130.67  8.5354582E-01
   7131.00  8.9983701E-01
   7131.33  9.3858313E-01
   7131.67  9.6809620E-01
   7132.00  9.8795117E-01
   7132.33  9.9713561E-01
   7132.67  9.9735306E-01
   7133.00  9.8959526E-01
   7133.33  9.7498653E-01
   7133.67  9.5633580E-01
   7134.00  9.3484018E-01
   7134.33  9.1077804E-01
   7134.67  8.8490819E-01
   7135.00  8.5820124E-01
   7135.33  8.3249294E-01
   7135.67  8.0940863E-01
   7136.00  7.8993659E-01
   7136.33  7.7483929E-01
   7136.67  7.6313686E-01
   7137.00  7.5408077E-01
   7137.33  7.4690710E-01
   7137.67  7.4049531E-01
   7138.00  7.3419888E-01
   7138.33  7.2742680E-01
   7138.67  7.1994098E-01
   7139.00  7.1167170E-01
   7139.33  7.0260933E-01
   7139.67  6.9303086E-01
   7140.00  6.8314112E-01
   7140.33  6.7317633E-01
   7140.67  6.6336079E-01
   7141.00  6.5383507E-01
   7141.33  6.4475374E-01
   7141.67  6.3612028E-01
   7142.00  6.2794839E-01
   7142.33  6.2028756E-01
   7142.67  6.1307070E-01
   7143.00  6.0630906E-01
   7143.33  6.0008477E-01
   7143.67  5.9434293E-01
   7144.00  5.8907840E-01
   7144.33  5.8432642E-01
   7144.67  5.7998006E-01
   7145.00  5.7596948E-01
   7145.33  5.7221209E-01
   7145.67  5.6854336E-01
   7146.00  5.6482958E-01
   7146.33  5.6089064E-01
   7146.67  5.5662297E-01
   7147.00  5.5194465E-01
   7147.33  5.4674805E-01
   7147.67  5.4110550E-01
   7148.00  5.3508948E-01
   7148.33  5.2883234E-01
   7148.67  5.2259837E-01
   7149.00  5.1662948E-01
   7149.33  5.1128064E-01
   7149.67  5.0673359E-01
   7150.00  5.0313605E-01
   7150.33  5.0067095E-01
   7150.67  4.9914782E-01
   7151.00  4.9842970E-01
   7151.33  4.9836544E-01
   7151.67  4.9863115E-01
   7152.00  4.9901697E-01
   7152.33  4.9928677E-01
   7152.67  4.9924195E-01
   7153.00  4.9870414E-01
   7153.33  4.9741440E-01
   7153.67  4.9531730E-01
   7154.00  4.9231963E-01
   7154.33  4.8822920E-01
   7154.67  4.8314543E-01
   7155.00  4.7708913E-01
   7155.33  4.7000703E-01
   7155.67  4.6209789E-01
   7156.00  4.5344267E-01
   7156.33  4.4405433E-01
   7156.67  4.3410321E-01
   7157.00  4.2366201E-01
   7157.33  4.1276629E-01
   7157.67  4.0155648E-01
   7158.00  3.9011829E-01
   7158.33  3.7855250E-01
   7158.67  3.6700559E-01
   7159.00  3.5560350E-01
   7159.33  3.4453863E-01
   7159.67  3.3392924E-01
   7160.00  3.2390212E-01
   7160.33  3.1467590E-01
   7160.67  3.0626468E-01
   7161.00  2.9873254E-01
   7161.33  2.9223872E-01
   7161.67  2.8667798E-01
   7162.00  2.8203508E-01
   7162.33  2.7838019E-01
   7162.67  2.7554828E-01
   7163.00  2.7348499E-01
   7163.33  2.7220996E-01
   7163.67  2.7156731E-01
   7164.00  2.7150387E-01
   7164.33  2.7203059E-01
   7164.67  2.7303244E-01
   7165.00  2.7447227E-01
   7165.33  2.7636382E-01
   7165.67  2.7862812E-01
   7166.00  2.8124572E-01
   7166.33  2.8424002E-01
   7166.67  2.8755356E-01
   7167.00  2.9117452E-01
   7167.33  2.9512734E-01
   7167.67  2.9936302E-01
   7168.00  3.0387058E-01
   7168.33  3.0866962E-01
   7168.67  3.1371522E-01
   7169.00  3.1899527E-01
   7169.33  3.2452011E-01
   7169.67  3.3023980E-01
   7170.00  3.3612648E-01
   7170.33  3.4214791E-01
   7170.67  3.4821611E-01
   7171.00  3.5423474E-01
   7171.33  3.5999315E-01
   7171.67  3.6520717E-01
   7172.00  3.6948432E-01
