    FDMNES
    energy     <xanes>
   7097.00  3.9482585E-03
   7097.33  4.0261831E-03
   7097.67  4.1071452E-03
   7098.00  4.1913376E-03
   7098.33  4.2794436E-03
   7098.67  4.3713055E-03
   7099.00  4.4671874E-03
   7099.33  4.5679783E-03
   7099.67  4.6735207E-03
   7100.00  4.7841881E-03
   7100.33  4.9011745E-03
   7100.67  5.0243406E-03
   7101.00  5.1542354E-03
   7101.33  5.2925251E-03
   7101.67  5.4391291E-03
   7102.00  5.5948921E-03
   7102.33  5.7622500E-03
   7102.67  5.9412739E-03
   7103.00  6.1333369E-03
   7103.33  6.3422110E-03
   7103.67  6.5683382E-03
   7104.00  6.8141066E-03
   7104.33  7.0857944E-03
   7104.67  7.3847680E-03
   7105.00  7.7155493E-03
   7105.33  8.0895967E-03
   7105.67  8.5107398E-03
   7106.00  8.9885403E-03
   7106.33  9.5466149E-03
   7106.67  1.0196151E-02
   7107.00  1.0960629E-02
   7107.33  1.1897614E-02
   7107.67  1.3044549E-02
   7108.00  1.4472880E-02
   7108.33  1.6362103E-02
   7108.67  1.8873139E-02
   7109.00  2.2308160E-02
   7109.33  2.7490754E-02
   7109.67  3.5470256E-02
   7110.00  4.8337193E-02
   7110.33  7.2120588E-02
   7110.67  1.1154399E-01
   7111.00  1.5796088E-01
   7111.33  1.7252992E-01
   7111.67  1.5570556E-01
   7112.00  1.2847750E-01
   7112.33  1.1265629E-01
   7112.67  1.0595954E-01
   7113.00  9.6774639E-02
   7113.33  8.3648923E-02
   7113.67  7.4666251E-02
   7114.00  6.8279962E-02
   7114.33  6.2409049E-02
   7114.67  6.0686051E-02
   7115.00  6.0334301E-02
   7115.33  5.2991883E-02
   7115.67  4.5368746E-02
   7116.00  4.1334176E-02
   7116.33  4.0194192E-02
   7116.67  3.9767808E-02
   7117.00  3.8999827E-02
   7117.33  3.7706788E-02
   7117.67  3.6507751E-02
   7118.00  3.5785202E-02
   7118.33  3.5737686E-02
   7118.67  3.6241578E-02
   7119.00  3.7259346E-02
   7119.33  3.8877411E-02
   7119.67  4.1080076E-02
   7120.00  4.3913052E-02
   7120.33  4.7546571E-02
   7120.67  5.2033148E-02
   7121.00  5.7540682E-02
   7121.33  6.4438792E-02
   7121.67  7.2732589E-02
   7122.00  8.2427368E-02
   7122.33  9.3418569E-02
   7122.67  1.0510907E-01
   7123.00  1.1743876E-01
   7123.33  1.3193837E-01
   7123.67  1.5037135E-01
   7124.00  1.7357596E-01
   7124.33  2.0204949E-01
   7124.67  2.3486267E-01
   7125.00  2.7190221E-01
   7125.33  3.1330387E-01
   7125.67  3.5729254E-01
   7126.00  4.0148175E-01
   7126.33  4.4116043E-01
   7126.67  4.7371751E-01
   7127.00  4.9933724E-01
   7127.33  5.1999747E-01
   7127.67  5.3912942E-01
   7128.00  5.5832912E-01
   7128.33  5.7820218E-01
   7128.67  5.9851969E-01
   7129.00  6.1924903E-01
   7129.33  6.4094852E-01
   7129.67  6.6449915E-01
   7130.00  6.9086758E-01
   7130.33  7.2075963E-01
   7130.67  7.5239842E-01
   7131.00  7.8360891E-01
   7131.33  8.1169503E-01
   7131.67  8.3560368E-01
   7132.00  8.5481166E-01
   7132.33  8.6860944E-01
   7132.67  8.7793046E-01
   7133.00  8.8334742E-01
   7133.33  8.8517059E-01
   7133.67  8.8408023E-01
   7134.00  8.7985786E-01
   7134.33  8.7198134E-01
   7134.67  8.6177395E-01
   7135.00  8.5078417E-01
   7135.33  8.4076470E-01
   7135.67  8.3227023E-01
   7136.00  8.2510422E-01
   7136.33  8.1858394E-01
   7136.67  8.1161717E-01
   7137.00  8.0336083E-01
   7137.33  7.9287855E-01
   7137.67  7.8016178E-01
   7138.00  7.6533237E-01
   7138.33  7.4863043E-01
   7138.67  7.3090473E-01
   7139.00  7.1274868E-01
   7139.33  6.9482554E-01
   7139.67  6.7762577E-01
   7140.00  6.6147652E-01
   7140.33  6.4679077E-01
   7140.67  6.3353773E-01
   7141.00  6.2175795E-01
   7141.33  6.1161969E-01
   7141.67  6.0287819E-01
   7142.00  5.9545345E-01
   7142.33  5.8939302E-01
   7142.67  5.8444420E-01
   7143.00  5.8052656E-01
   7143.33  5.7767392E-01
   7143.67  5.7569458E-01
   7144.00  5.7453349E-01
   7144.33  5.7423127E-01
   7144.67  5.7465095E-01
   7145.00  5.7574770E-01
   7145.33  5.7752054E-01
   7145.67  5.7981103E-01
   7146.00  5.8255233E-01
   7146.33  5.8572482E-01
   7146.67  5.8921799E-01
   7147.00  5.9296745E-01
   7147.33  5.9687889E-01
   7147.67  6.0076675E-01
   7148.00  6.0445079E-01
   7148.33  6.0766087E-01
   7148.67  6.1027525E-01
   7149.00  6.1220889E-01
   7149.33  6.1336084E-01
   7149.67  6.1386188E-01
   7150.00  6.1374467E-01
   7150.33  6.1292769E-01
   7150.67  6.1143503E-01
   7151.00  6.0917896E-01
   7151.33  6.0590326E-01
   7151.67  6.0155563E-01
   7152.00  5.9599244E-01
   7152.33  5.8888227E-01
   7152.67  5.8025630E-01
   7153.00  5.7003737E-01
   7153.33  5.5800797E-01
   7153.67  5.4443073E-01
   7154.00  5.2941872E-01
   7154.33  5.1301364E-01
   7154.67  4.9562590E-01
   7155.00  4.7751032E-01
   7155.33  4.5893625E-01
   7155.67  4.4028478E-01
   7156.00  4.2183767E-01
   7156.33  4.0397609E-01
   7156.67  3.8692669E-01
   7157.00  3.7090676E-01
   7157.33  3.5627641E-01
   7157.67  3.4303577E-01
   7158.00  3.3127365E-01
   7158.33  3.2122159E-01
   7158.67  3.1266384E-01
   7159.00  3.0553229E-01
   7159.33  2.9986947E-01
   7159.67  2.9536379E-01
   7160.00  2.9187957E-01
   7160.33  2.8937260E-01
   7160.67  2.8759816E-01
   7161.00  2.8645636E-01
   7161.33  2.8592036E-01
   7161.67  2.8585078E-01
   7162.00  2.8619706E-01
   7162.33  2.8695172E-01
   7162.67  2.8802641E-01
   7163.00  2.8938972E-01
   7163.33  2.9103823E-01
   7163.67  2.9290622E-01
   7164.00  2.9496581E-01
   7164.33  2.9720849E-01
   7164.67  2.9959080E-01
   7165.00  3.0209884E-01
   7165.33  3.0473909E-01
   7165.67  3.0749737E-01
   7166.00  3.1038027E-01
   7166.33  3.1341530E-01
   7166.67  3.1659130E-01
   7167.00  3.1991128E-01
   7167.33  3.2339823E-01
   7167.67  3.2703509E-01
   7168.00  3.3082022E-01
   7168.33  3.3476673E-01
   7168.67  3.3884857E-01
   7169.00  3.4305583E-01
   7169.33  3.4738758E-01
   7169.67  3.5181059E-01
   7170.00  3.5630292E-01
   7170.33  3.6083452E-01
   7170.67  3.6535167E-01
   7171.00  3.6979171E-01
   7171.33  3.7401142E-01
   7171.67  3.7782322E-01
   7172.00  3.8095199E-01
