    FDMNES
    energy     <xanes>
   7097.00  5.0903212E-03
   7097.33  5.2098511E-03
   7097.67  5.3346688E-03
   7098.00  5.4651169E-03
   7098.33  5.6023931E-03
   7098.67  5.7462245E-03
   7099.00  5.8970699E-03
   7099.33  6.0564716E-03
   7099.67  6.2241390E-03
   7100.00  6.4007003E-03
   7100.33  6.5881857E-03
   7100.67  6.7863005E-03
   7101.00  6.9959274E-03
   7101.33  7.2198077E-03
   7101.67  7.4576752E-03
   7102.00  7.7108077E-03
   7102.33  7.9830202E-03
   7102.67  8.2741458E-03
   7103.00  8.5861025E-03
   7103.33  8.9243945E-03
   7103.67  9.2891118E-03
   7104.00  9.6832607E-03
   7104.33  1.0115142E-02
   7104.67  1.0585460E-02
   7105.00  1.1099190E-02
   7105.33  1.1669565E-02
   7105.67  1.2298771E-02
   7106.00  1.2995633E-02
   7106.33  1.3782853E-02
   7106.67  1.4666381E-02
   7107.00  1.5663444E-02
   7107.33  1.6817179E-02
   7107.67  1.8144305E-02
   7108.00  1.9683585E-02
   7108.33  2.1531026E-02
   7108.67  2.3741443E-02
   7109.00  2.6425901E-02
   7109.33  2.9868506E-02
   7109.67  3.4323405E-02
   7110.00  4.0291226E-02
   7110.33  4.9143443E-02
   7110.67  6.2013161E-02
   7111.00  7.8572013E-02
   7111.33  9.6346076E-02
   7111.67  1.1790358E-01
   7112.00  1.4408162E-01
   7112.33  1.8079215E-01
   7112.67  2.3808348E-01
   7113.00  3.2561411E-01
   7113.33  4.5208297E-01
   7113.67  5.7308267E-01
   7114.00  6.6876561E-01
   7114.33  7.2334867E-01
   7114.67  6.7706344E-01
   7115.00  5.4325827E-01
   7115.33  4.1345379E-01
   7115.67  3.2464172E-01
   7116.00  2.7203635E-01
   7116.33  2.4824706E-01
   7116.67  2.4010378E-01
   7117.00  2.3677209E-01
   7117.33  2.2745223E-01
   7117.67  2.1341155E-01
   7118.00  1.9789023E-01
   7118.33  1.8135464E-01
   7118.67  1.6501177E-01
   7119.00  1.5124111E-01
   7119.33  1.4199545E-01
   7119.67  1.3608502E-01
   7120.00  1.3183655E-01
   7120.33  1.2729755E-01
   7120.67  1.2224664E-01
   7121.00  1.1777428E-01
   7121.33  1.1506821E-01
   7121.67  1.1404740E-01
   7122.00  1.1454683E-01
   7122.33  1.1643221E-01
   7122.67  1.1928312E-01
   7123.00  1.2290065E-01
   7123.33  1.2705623E-01
   7123.67  1.3128614E-01
   7124.00  1.3536478E-01
   7124.33  1.3947239E-01
   7124.67  1.4415162E-01
   7125.00  1.4996967E-01
   7125.33  1.5760431E-01
   7125.67  1.6705024E-01
   7126.00  1.7836491E-01
   7126.33  1.9183644E-01
   7126.67  2.0741222E-01
   7127.00  2.2549115E-01
   7127.33  2.4707388E-01
   7127.67  2.7213360E-01
   7128.00  3.0044209E-01
   7128.33  3.3107878E-01
   7128.67  3.6179227E-01
   7129.00  3.9101090E-01
   7129.33  4.1831235E-01
   7129.67  4.4615473E-01
   7130.00  4.7779020E-01
   7130.33  5.1778504E-01
   7130.67  5.6709473E-01
   7131.00  6.2573818E-01
   7131.33  6.9388299E-01
   7131.67  7.6928204E-01
   7132.00  8.5028838E-01
   7132.33  9.3354281E-01
   7132.67  1.0132965E+00
   7133.00  1.0842027E+00
   7133.33  1.1392197E+00
   7133.67  1.1771891E+00
   7134.00  1.1975290E+00
   7134.33  1.1983547E+00
   7134.67  1.1819733E+00
   7135.00  1.1485695E+00
   7135.33  1.0976936E+00
   7135.67  1.0349587E+00
   7136.00  9.6486283E-01
   7136.33  8.9248419E-01
   7136.67  8.2224797E-01
   7137.00  7.5648788E-01
   7137.33  6.9748477E-01
   7137.67  6.4519953E-01
   7138.00  5.9989174E-01
   7138.33  5.6253917E-01
   7138.67  5.3220220E-01
   7139.00  5.0870895E-01
   7139.33  4.9247983E-01
   7139.67  4.8210951E-01
   7140.00  4.7694467E-01
   7140.33  4.7667826E-01
   7140.67  4.7991567E-01
   7141.00  4.8599497E-01
   7141.33  4.9453405E-01
   7141.67  5.0472682E-01
   7142.00  5.1619587E-01
   7142.33  5.2867725E-01
   7142.67  5.4172200E-01
   7143.00  5.5505724E-01
   7143.33  5.6837196E-01
   7143.67  5.8136629E-01
   7144.00  5.9378777E-01
   7144.33  6.0525169E-01
   7144.67  6.1561430E-01
   7145.00  6.2469347E-01
   7145.33  6.3214589E-01
   7145.67  6.3804983E-01
   7146.00  6.4236592E-01
   7146.33  6.4490292E-01
   7146.67  6.4591270E-01
   7147.00  6.4547205E-01
   7147.33  6.4352941E-01
   7147.67  6.4039045E-01
   7148.00  6.3618913E-01
   7148.33  6.3096939E-01
   7148.67  6.2499938E-01
   7149.00  6.1841188E-01
   7149.33  6.1129939E-01
   7149.67  6.0386373E-01
   7150.00  5.9622351E-01
   7150.33  5.8850028E-01
   7150.67  5.8082429E-01
   7151.00  5.7329118E-01
   7151.33  5.6603367E-01
   7151.67  5.5912025E-01
   7152.00  5.5263603E-01
   7152.33  5.4672953E-01
   7152.67  5.4140938E-01
   7153.00  5.3673565E-01
   7153.33  5.3286507E-01
   7153.67  5.2977242E-01
   7154.00  5.2750731E-01
   7154.33  5.2622431E-01
   7154.67  5.2583914E-01
   7155.00  5.2635163E-01
   7155.33  5.2783881E-01
   7155.67  5.3012201E-01
   7156.00  5.3310755E-01
   7156.33  5.3671946E-01
   7156.67  5.4071057E-01
   7157.00  5.4491186E-01
   7157.33  5.4912166E-01
   7157.67  5.5314491E-01
   7158.00  5.5683207E-01
   7158.33  5.5997765E-01
   7158.67  5.6253231E-01
   7159.00  5.6443183E-01
   7159.33  5.6554789E-01
   7159.67  5.6595863E-01
   7160.00  5.6567832E-01
   7160.33  5.6466186E-01
   7160.67  5.6304333E-01
   7161.00  5.6087536E-01
   7161.33  5.5816282E-01
   7161.67  5.5503150E-01
   7162.00  5.5153406E-01
   7162.33  5.4768549E-01
   7162.67  5.4356890E-01
   7163.00  5.3921261E-01
   7163.33  5.3461068E-01
   7163.67  5.2980777E-01
   7164.00  5.2481805E-01
   7164.33  5.1962818E-01
   7164.67  5.1426555E-01
   7165.00  5.0874060E-01
   7165.33  5.0305272E-01
   7165.67  4.9724134E-01
   7166.00  4.9132701E-01
   7166.33  4.8532605E-01
   7166.67  4.7927525E-01
   7167.00  4.7319737E-01
   7167.33  4.6711796E-01
   7167.67  4.6106403E-01
   7168.00  4.5505958E-01
   7168.33  4.4914294E-01
   7168.67  4.4333569E-01
   7169.00  4.3766754E-01
   7169.33  4.3219623E-01
   7169.67  4.2693630E-01
   7170.00  4.2192077E-01
   7170.33  4.1722652E-01
   7170.67  4.1286106E-01
   7171.00  4.0886287E-01
   7171.33  4.0533829E-01
   7171.67  4.0231831E-01
   7172.00  3.9990747E-01
