    FDMNES
    energy     <xanes>
   7097.00  5.3942046E-03
   7097.33  5.5339772E-03
   7097.67  5.6806122E-03
   7098.00  5.8345969E-03
   7098.33  5.9975565E-03
   7098.67  6.1691946E-03
   7099.00  6.3501781E-03
   7099.33  6.5426500E-03
   7099.67  6.7463092E-03
   7100.00  6.9620913E-03
   7100.33  7.1928920E-03
   7100.67  7.4384370E-03
   7101.00  7.7000776E-03
   7101.33  7.9818391E-03
   7101.67  8.2835443E-03
   7102.00  8.6072105E-03
   7102.33  8.9586257E-03
   7102.67  9.3378613E-03
   7103.00  9.7480507E-03
   7103.33  1.0197860E-02
   7103.67  1.0687945E-02
   7104.00  1.1223412E-02
   7104.33  1.1817895E-02
   7104.67  1.2473406E-02
   7105.00  1.3198777E-02
   7105.33  1.4016830E-02
   7105.67  1.4932835E-02
   7106.00  1.5963271E-02
   7106.33  1.7149521E-02
   7106.67  1.8505258E-02
   7107.00  2.0064475E-02
   7107.33  2.1910790E-02
   7107.67  2.4082218E-02
   7108.00  2.6659475E-02
   7108.33  2.9840039E-02
   7108.67  3.3746915E-02
   7109.00  3.8617802E-02
   7109.33  4.5050833E-02
   7109.67  5.3575327E-02
   7110.00  6.5199474E-02
   7110.33  8.2658575E-02
   7110.67  1.0885828E-01
   7111.00  1.4713317E-01
   7111.33  2.0271062E-01
   7111.67  2.8606866E-01
   7112.00  4.1500226E-01
   7112.33  5.7329348E-01
   7112.67  6.7636347E-01
   7113.00  7.2730569E-01
   7113.33  7.5589924E-01
   7113.67  7.1761548E-01
   7114.00  6.0724128E-01
   7114.33  4.8422654E-01
   7114.67  3.8711154E-01
   7115.00  3.1725618E-01
   7115.33  2.6970008E-01
   7115.67  2.3567430E-01
   7116.00  2.1179581E-01
   7116.33  1.9690514E-01
   7116.67  1.8880231E-01
   7117.00  1.8587307E-01
   7117.33  1.8464454E-01
   7117.67  1.8120728E-01
   7118.00  1.7471394E-01
   7118.33  1.6665162E-01
   7118.67  1.5912156E-01
   7119.00  1.5277649E-01
   7119.33  1.4777370E-01
   7119.67  1.4362993E-01
   7120.00  1.3984414E-01
   7120.33  1.3604954E-01
   7120.67  1.3244268E-01
   7121.00  1.2925886E-01
   7121.33  1.2628646E-01
   7121.67  1.2316400E-01
   7122.00  1.2030009E-01
   7122.33  1.1862081E-01
   7122.67  1.1811427E-01
   7123.00  1.1854039E-01
   7123.33  1.1981357E-01
   7123.67  1.2185964E-01
   7124.00  1.2480923E-01
   7124.33  1.2898463E-01
   7124.67  1.3430761E-01
   7125.00  1.4064901E-01
   7125.33  1.4792234E-01
   7125.67  1.5613357E-01
   7126.00  1.6574085E-01
   7126.33  1.7785624E-01
   7126.67  1.9317881E-01
   7127.00  2.1253110E-01
   7127.33  2.3723878E-01
   7127.67  2.6692173E-01
   7128.00  3.0110028E-01
   7128.33  3.3876680E-01
   7128.67  3.7790871E-01
   7129.00  4.1755576E-01
   7129.33  4.5727544E-01
   7129.67  4.9694245E-01
   7130.00  5.3620224E-01
   7130.33  5.7401470E-01
   7130.67  6.0952785E-01
   7131.00  6.4217217E-01
   7131.33  6.7153449E-01
   7131.67  6.9852401E-01
   7132.00  7.2388401E-01
   7132.33  7.4842650E-01
   7132.67  7.7279580E-01
   7133.00  7.9683114E-01
   7133.33  8.1911556E-01
   7133.67  8.3749993E-01
   7134.00  8.4929470E-01
   7134.33  8.5008586E-01
   7134.67  8.3923861E-01
   7135.00  8.1705099E-01
   7135.33  7.8466181E-01
   7135.67  7.4648582E-01
   7136.00  7.0537013E-01
   7136.33  6.6415534E-01
   7136.67  6.2506872E-01
   7137.00  5.8954174E-01
   7137.33  5.5936681E-01
   7137.67  5.3467486E-01
   7138.00  5.1569926E-01
   7138.33  5.0291641E-01
   7138.67  4.9492229E-01
   7139.00  4.9077345E-01
   7139.33  4.8948677E-01
   7139.67  4.8951345E-01
   7140.00  4.9010933E-01
   7140.33  4.9101533E-01
   7140.67  4.9249347E-01
   7141.00  4.9506208E-01
   7141.33  4.9949962E-01
   7141.67  5.0588561E-01
   7142.00  5.1418941E-01
   7142.33  5.2432616E-01
   7142.67  5.3563231E-01
   7143.00  5.4764579E-01
   7143.33  5.5983119E-01
   7143.67  5.7164629E-01
   7144.00  5.8269825E-01
   7144.33  5.9248197E-01
   7144.67  6.0089376E-01
   7145.00  6.0782560E-01
   7145.33  6.1308004E-01
   7145.67  6.1694067E-01
   7146.00  6.1956123E-01
   7146.33  6.2105682E-01
   7146.67  6.2183454E-01
   7147.00  6.2215241E-01
   7147.33  6.2229261E-01
   7147.67  6.2256466E-01
   7148.00  6.2320123E-01
   7148.33  6.2451583E-01
   7148.67  6.2661684E-01
   7149.00  6.2960680E-01
   7149.33  6.3366107E-01
   7149.67  6.3866918E-01
   7150.00  6.4460365E-01
   7150.33  6.5150479E-01
   7150.67  6.5916278E-01
   7151.00  6.6746753E-01
   7151.33  6.7633891E-01
   7151.67  6.8556289E-01
   7152.00  6.9500705E-01
   7152.33  7.0452306E-01
   7152.67  7.1394177E-01
   7153.00  7.2311615E-01
   7153.33  7.3180537E-01
   7153.67  7.3986649E-01
   7154.00  7.4712758E-01
   7154.33  7.5326256E-01
   7154.67  7.5820221E-01
   7155.00  7.6179400E-01
   7155.33  7.6370042E-01
   7155.67  7.6399760E-01
   7156.00  7.6262698E-01
   7156.33  7.5935375E-01
   7156.67  7.5441137E-01
   7157.00  7.4785182E-01
   7157.33  7.3958216E-01
   7157.67  7.2992543E-01
   7158.00  7.1901737E-01
   7158.33  7.0689832E-01
   7158.67  6.9389082E-01
   7159.00  6.8016294E-01
   7159.33  6.6584648E-01
   7159.67  6.5119974E-01
   7160.00  6.3638189E-01
   7160.33  6.2156922E-01
   7160.67  6.0692176E-01
   7161.00  5.9255858E-01
   7161.33  5.7864268E-01
   7161.67  5.6521068E-01
   7162.00  5.5231653E-01
   7162.33  5.4007130E-01
   7162.67  5.2842000E-01
   7163.00  5.1736397E-01
   7163.33  5.0696447E-01
   7163.67  4.9712804E-01
   7164.00  4.8783511E-01
   7164.33  4.7912700E-01
   7164.67  4.7091508E-01
   7165.00  4.6318015E-01
   7165.33  4.5595701E-01
   7165.67  4.4916625E-01
   7166.00  4.4278789E-01
   7166.33  4.3684612E-01
   7166.67  4.3126842E-01
   7167.00  4.2603299E-01
   7167.33  4.2114848E-01
   7167.67  4.1654619E-01
   7168.00  4.1220349E-01
   7168.33  4.0812312E-01
   7168.67  4.0425431E-01
   7169.00  4.0058294E-01
   7169.33  3.9711740E-01
   7169.67  3.9382294E-01
   7170.00  3.9069247E-01
   7170.33  3.8774149E-01
   7170.67  3.8495092E-01
   7171.00  3.8232973E-01
   7171.33  3.7993355E-01
   7171.67  3.7780882E-01
   7172.00  3.7605659E-01
