    FDMNES
    energy     <xanes>
   7097.00  4.8167025E-03
   7097.33  4.9246373E-03
   7097.67  5.0371414E-03
   7098.00  5.1545035E-03
   7098.33  5.2777466E-03
   7098.67  5.4066265E-03
   7099.00  5.5415296E-03
   7099.33  5.6837699E-03
   7099.67  5.8330889E-03
   7100.00  5.9900169E-03
   7100.33  6.1562817E-03
   7100.67  6.3316245E-03
   7101.00  6.5167947E-03
   7101.33  6.7141291E-03
   7101.67  6.9234012E-03
   7102.00  7.1457063E-03
   7102.33  7.3843148E-03
   7102.67  7.6391052E-03
   7103.00  7.9117466E-03
   7103.33  8.2070104E-03
   7103.67  8.5250460E-03
   7104.00  8.8685297E-03
   7104.33  9.2447969E-03
   7104.67  9.6546585E-03
   7105.00  1.0102693E-02
   7105.33  1.0600961E-02
   7105.67  1.1151928E-02
   7106.00  1.1764118E-02
   7106.33  1.2459219E-02
   7106.67  1.3244156E-02
   7107.00  1.4136744E-02
   7107.33  1.5181237E-02
   7107.67  1.6398302E-02
   7108.00  1.7832050E-02
   7108.33  1.9591740E-02
   7108.67  2.1751179E-02
   7109.00  2.4453420E-02
   7109.33  2.8068879E-02
   7109.67  3.2971785E-02
   7110.00  3.9892157E-02
   7110.33  5.0896676E-02
   7110.67  6.8245434E-02
   7111.00  9.3384703E-02
   7111.33  1.2310163E-01
   7111.67  1.5290518E-01
   7112.00  1.8107355E-01
   7112.33  2.0872765E-01
   7112.67  2.3750009E-01
   7113.00  2.6331575E-01
   7113.33  2.8721908E-01
   7113.67  3.1205332E-01
   7114.00  3.3546389E-01
   7114.33  3.3253997E-01
   7114.67  3.0236361E-01
   7115.00  2.7410825E-01
   7115.33  2.6488666E-01
   7115.67  2.5393948E-01
   7116.00  2.2886012E-01
   7116.33  2.0179819E-01
   7116.67  1.8492291E-01
   7117.00  1.7724716E-01
   7117.33  1.7239797E-01
   7117.67  1.6650691E-01
   7118.00  1.6098444E-01
   7118.33  1.5837802E-01
   7118.67  1.5838237E-01
   7119.00  1.5988295E-01
   7119.33  1.6237201E-01
   7119.67  1.6621301E-01
   7120.00  1.7246408E-01
   7120.33  1.8316992E-01
   7120.67  1.9854629E-01
   7121.00  2.1763713E-01
   7121.33  2.3764618E-01
   7121.67  2.5570761E-01
   7122.00  2.7139204E-01
   7122.33  2.8523521E-01
   7122.67  2.9655302E-01
   7123.00  3.0323341E-01
   7123.33  3.0358488E-01
   7123.67  3.0034219E-01
   7124.00  2.9656658E-01
   7124.33  2.9565896E-01
   7124.67  2.9884667E-01
   7125.00  3.0639919E-01
   7125.33  3.1855681E-01
   7125.67  3.3423608E-01
   7126.00  3.5281801E-01
   7126.33  3.7389244E-01
   7126.67  3.9672337E-01
   7127.00  4.2096935E-01
   7127.33  4.4602704E-01
   7127.67  4.7143020E-01
   7128.00  4.9812719E-01
   7128.33  5.2883818E-01
   7128.67  5.6448254E-01
   7129.00  6.0411282E-01
   7129.33  6.4472594E-01
   7129.67  6.8325566E-01
   7130.00  7.1865559E-01
   7130.33  7.5064743E-01
   7130.67  7.7977630E-01
   7131.00  8.0559794E-01
   7131.33  8.2654266E-01
   7131.67  8.4228512E-01
   7132.00  8.5264222E-01
   7132.33  8.5747441E-01
   7132.67  8.5824353E-01
   7133.00  8.5552758E-01
   7133.33  8.4894666E-01
   7133.67  8.3834377E-01
   7134.00  8.2320245E-01
   7134.33  8.0337412E-01
   7134.67  7.8140509E-01
   7135.00  7.5969791E-01
   7135.33  7.4032758E-01
   7135.67  7.2318220E-01
   7136.00  7.0765663E-01
   7136.33  6.9310649E-01
   7136.67  6.7895412E-01
   7137.00  6.6508572E-01
   7137.33  6.5175378E-01
   7137.67  6.3933206E-01
   7138.00  6.2819333E-01
   7138.33  6.1870848E-01
   7138.67  6.1054253E-01
   7139.00  6.0338909E-01
   7139.33  5.9692707E-01
   7139.67  5.9074520E-01
   7140.00  5.8463832E-01
   7140.33  5.7845006E-01
   7140.67  5.7213105E-01
   7141.00  5.6570097E-01
   7141.33  5.5923724E-01
   7141.67  5.5285488E-01
   7142.00  5.4666386E-01
   7142.33  5.4082946E-01
   7142.67  5.3541530E-01
   7143.00  5.3048402E-01
   7143.33  5.2614387E-01
   7143.67  5.2234410E-01
   7144.00  5.1907823E-01
   7144.33  5.1637638E-01
   7144.67  5.1411069E-01
   7145.00  5.1220148E-01
   7145.33  5.1057972E-01
   7145.67  5.0911333E-01
   7146.00  5.0771770E-01
   7146.33  5.0630318E-01
   7146.67  5.0480692E-01
   7147.00  5.0319488E-01
   7147.33  5.0143294E-01
   7147.67  4.9953579E-01
   7148.00  4.9750612E-01
   7148.33  4.9532711E-01
   7148.67  4.9300594E-01
   7149.00  4.9052611E-01
   7149.33  4.8783878E-01
   7149.67  4.8493409E-01
   7150.00  4.8177309E-01
   7150.33  4.7827143E-01
   7150.67  4.7443261E-01
   7151.00  4.7023710E-01
   7151.33  4.6563219E-01
   7151.67  4.6067815E-01
   7152.00  4.5541001E-01
   7152.33  4.4986047E-01
   7152.67  4.4414068E-01
   7153.00  4.3832634E-01
   7153.33  4.3250211E-01
   7153.67  4.2674168E-01
   7154.00  4.2109223E-01
   7154.33  4.1561237E-01
   7154.67  4.1030870E-01
   7155.00  4.0519626E-01
   7155.33  4.0031792E-01
   7155.67  3.9566768E-01
   7156.00  3.9126896E-01
   7156.33  3.8719265E-01
   7156.67  3.8344430E-01
   7157.00  3.8006091E-01
   7157.33  3.7713156E-01
   7157.67  3.7463336E-01
   7158.00  3.7257772E-01
   7158.33  3.7101647E-01
   7158.67  3.6987523E-01
   7159.00  3.6912711E-01
   7159.33  3.6877826E-01
   7159.67  3.6874461E-01
   7160.00  3.6899442E-01
   7160.33  3.6952715E-01
   7160.67  3.7028594E-01
   7161.00  3.7125370E-01
   7161.33  3.7244264E-01
   7161.67  3.7382518E-01
   7162.00  3.7539998E-01
   7162.33  3.7718583E-01
   7162.67  3.7915314E-01
   7163.00  3.8129345E-01
   7163.33  3.8360472E-01
   7163.67  3.8603403E-01
   7164.00  3.8854569E-01
   7164.33  3.9109709E-01
   7164.67  3.9364082E-01
   7165.00  3.9614577E-01
   7165.33  3.9857126E-01
   7165.67  4.0090140E-01
   7166.00  4.0312334E-01
   7166.33  4.0521832E-01
   7166.67  4.0720583E-01
   7167.00  4.0909714E-01
   7167.33  4.1090175E-01
   7167.67  4.1265329E-01
   7168.00  4.1437490E-01
   7168.33  4.1609547E-01
   7168.67  4.1784486E-01
   7169.00  4.1964725E-01
   7169.33  4.2153736E-01
   7169.67  4.2352559E-01
   7170.00  4.2562354E-01
   7170.33  4.2784912E-01
   7170.67  4.3017605E-01
   7171.00  4.3257406E-01
   7171.33  4.3496725E-01
   7171.67  4.3720617E-01
   7172.00  4.3908849E-01
