    FDMNES
    energy     <xanes>
   7097.00  4.0913342E-03
   7097.33  4.1772091E-03
   7097.67  4.2665881E-03
   7098.00  4.3596906E-03
   7098.33  4.4572983E-03
   7098.67  4.5592219E-03
   7099.00  4.6657555E-03
   7099.33  4.7779025E-03
   7099.67  4.8954634E-03
   7100.00  5.0188427E-03
   7100.33  5.1493601E-03
   7100.67  5.2868170E-03
   7101.00  5.4317860E-03
   7101.33  5.5860537E-03
   7101.67  5.7494482E-03
   7102.00  5.9228085E-03
   7102.33  6.1086390E-03
   7102.67  6.3068516E-03
   7103.00  6.5187286E-03
   7103.33  6.7479322E-03
   7103.67  6.9945881E-03
   7104.00  7.2607597E-03
   7104.33  7.5520929E-03
   7104.67  7.8692341E-03
   7105.00  8.2157260E-03
   7105.33  8.6008839E-03
   7105.67  9.0266540E-03
   7106.00  9.4996576E-03
   7106.33  1.0036717E-02
   7106.67  1.0643284E-02
   7107.00  1.1333261E-02
   7107.33  1.2141139E-02
   7107.67  1.3083214E-02
   7108.00  1.4194081E-02
   7108.33  1.5559400E-02
   7108.67  1.7237476E-02
   7109.00  1.9340979E-02
   7109.33  2.2161303E-02
   7109.67  2.5992661E-02
   7110.00  3.1408671E-02
   7110.33  4.0067208E-02
   7110.67  5.4199301E-02
   7111.00  7.7015162E-02
   7111.33  1.0793736E-01
   7111.67  1.2426735E-01
   7112.00  1.1506713E-01
   7112.33  1.1078144E-01
   7112.67  1.2687063E-01
   7113.00  1.6909202E-01
   7113.33  2.5394958E-01
   7113.67  3.7030694E-01
   7114.00  4.4658604E-01
   7114.33  3.7808333E-01
   7114.67  2.6584119E-01
   7115.00  1.8395910E-01
   7115.33  1.3880027E-01
   7115.67  1.0882438E-01
   7116.00  8.7691517E-02
   7116.33  7.5211770E-02
   7116.67  6.8562126E-02
   7117.00  6.5428240E-02
   7117.33  6.5560834E-02
   7117.67  6.9970175E-02
   7118.00  7.8813077E-02
   7118.33  8.9059455E-02
   7118.67  9.7563719E-02
   7119.00  1.0400656E-01
   7119.33  1.0430823E-01
   7119.67  9.8356003E-02
   7120.00  9.1071004E-02
   7120.33  8.7608549E-02
   7120.67  8.8411844E-02
   7121.00  9.3219732E-02
   7121.33  1.0237757E-01
   7121.67  1.1523519E-01
   7122.00  1.3085927E-01
   7122.33  1.4728826E-01
   7122.67  1.6370217E-01
   7123.00  1.8121364E-01
   7123.33  2.0129844E-01
   7123.67  2.2418366E-01
   7124.00  2.4999762E-01
   7124.33  2.7844052E-01
   7124.67  3.0752004E-01
   7125.00  3.3529147E-01
   7125.33  3.6002145E-01
   7125.67  3.8249311E-01
   7126.00  4.0458990E-01
   7126.33  4.2951572E-01
   7126.67  4.5762581E-01
   7127.00  4.8585593E-01
   7127.33  5.0842959E-01
   7127.67  5.2471502E-01
   7128.00  5.3636865E-01
   7128.33  5.4291606E-01
   7128.67  5.4324636E-01
   7129.00  5.3725660E-01
   7129.33  5.2611453E-01
   7129.67  5.1216565E-01
   7130.00  4.9629233E-01
   7130.33  4.7924319E-01
   7130.67  4.6256541E-01
   7131.00  4.4787403E-01
   7131.33  4.3712688E-01
   7131.67  4.3056349E-01
   7132.00  4.2866057E-01
   7132.33  4.3241222E-01
   7132.67  4.4036097E-01
   7133.00  4.5084412E-01
   7133.33  4.6146219E-01
   7133.67  4.7004833E-01
   7134.00  4.7566274E-01
   7134.33  4.7831160E-01
   7134.67  4.7955953E-01
   7135.00  4.8032510E-01
   7135.33  4.8092470E-01
   7135.67  4.8100750E-01
   7136.00  4.7996799E-01
   7136.33  4.7690712E-01
   7136.67  4.7179190E-01
   7137.00  4.6493834E-01
   7137.33  4.5719612E-01
   7137.67  4.4989138E-01
   7138.00  4.4391167E-01
   7138.33  4.4000715E-01
   7138.67  4.3807157E-01
   7139.00  4.3813083E-01
   7139.33  4.4054307E-01
   7139.67  4.4524361E-01
   7140.00  4.5243154E-01
   7140.33  4.6258404E-01
   7140.67  4.7527636E-01
   7141.00  4.9012605E-01
   7141.33  5.0651933E-01
   7141.67  5.2330530E-01
   7142.00  5.3966406E-01
   7142.33  5.5472513E-01
   7142.67  5.6828342E-01
   7143.00  5.8037221E-01
   7143.33  5.9123031E-01
   7143.67  6.0161019E-01
   7144.00  6.1211205E-01
   7144.33  6.2347772E-01
   7144.67  6.3609119E-01
   7145.00  6.5019018E-01
   7145.33  6.6605266E-01
   7145.67  6.8337522E-01
   7146.00  7.0193760E-01
   7146.33  7.2147970E-01
   7146.67  7.4143577E-01
   7147.00  7.6136360E-01
   7147.33  7.8063529E-01
   7147.67  7.9874528E-01
   7148.00  8.1519981E-01
   7148.33  8.2919254E-01
   7148.67  8.4056322E-01
   7149.00  8.4906216E-01
   7149.33  8.5419150E-01
   7149.67  8.5637358E-01
   7150.00  8.5577717E-01
   7150.33  8.5241193E-01
   7150.67  8.4697995E-01
   7151.00  8.3983625E-01
   7151.33  8.3120618E-01
   7151.67  8.2159535E-01
   7152.00  8.1124859E-01
   7152.33  8.0033367E-01
   7152.67  7.8909313E-01
   7153.00  7.7764560E-01
   7153.33  7.6607698E-01
   7153.67  7.5446052E-01
   7154.00  7.4281923E-01
   7154.33  7.3114958E-01
   7154.67  7.1943722E-01
   7155.00  7.0766753E-01
   7155.33  6.9583442E-01
   7155.67  6.8397948E-01
   7156.00  6.7216206E-01
   7156.33  6.6049308E-01
   7156.67  6.4906250E-01
   7157.00  6.3796065E-01
   7157.33  6.2732393E-01
   7157.67  6.1714912E-01
   7158.00  6.0745139E-01
   7158.33  5.9828260E-01
   7158.67  5.8956033E-01
   7159.00  5.8125762E-01
   7159.33  5.7338659E-01
   7159.67  5.6586021E-01
   7160.00  5.5864089E-01
   7160.33  5.5170686E-01
   7160.67  5.4495987E-01
   7161.00  5.3833196E-01
   7161.33  5.3173781E-01
   7161.67  5.2508286E-01
   7162.00  5.1829648E-01
   7162.33  5.1128947E-01
   7162.67  5.0404957E-01
   7163.00  4.9657185E-01
   7163.33  4.8885505E-01
   7163.67  4.8098186E-01
   7164.00  4.7302023E-01
   7164.33  4.6506323E-01
   7164.67  4.5720747E-01
   7165.00  4.4953234E-01
   7165.33  4.4214936E-01
   7165.67  4.3508463E-01
   7166.00  4.2837031E-01
   7166.33  4.2206913E-01
   7166.67  4.1613328E-01
   7167.00  4.1054986E-01
   7167.33  4.0533789E-01
   7167.67  4.0043441E-01
   7168.00  3.9582684E-01
   7168.33  3.9154649E-01
   7168.67  3.8756139E-01
   7169.00  3.8387962E-01
   7169.33  3.8055032E-01
   7169.67  3.7754121E-01
   7170.00  3.7485348E-01
   7170.33  3.7252089E-01
   7170.67  3.7049044E-01
   7171.00  3.6874592E-01
   7171.33  3.6730049E-01
   7171.67  3.6610481E-01
   7172.00  3.6514976E-01
