    FDMNES
    energy     <xanes>
   7097.00  5.3937080E-03
   7097.33  5.5331697E-03
   7097.67  5.6795892E-03
   7098.00  5.8334788E-03
   7098.33  5.9965189E-03
   7098.67  6.1684378E-03
   7099.00  6.3499484E-03
   7099.33  6.5432984E-03
   7099.67  6.7482288E-03
   7100.00  6.9657605E-03
   7100.33  7.1989862E-03
   7100.67  7.4477088E-03
   7101.00  7.7134400E-03
   7101.33  8.0005803E-03
   7101.67  8.3091015E-03
   7102.00  8.6413326E-03
   7102.33  9.0037925E-03
   7102.67  9.3968591E-03
   7103.00  9.8242955E-03
   7103.33  1.0296247E-02
   7103.67  1.0814041E-02
   7104.00  1.1384127E-02
   7104.33  1.2023293E-02
   7104.67  1.2735147E-02
   7105.00  1.3531593E-02
   7105.33  1.4442681E-02
   7105.67  1.5477850E-02
   7106.00  1.6661306E-02
   7106.33  1.8052757E-02
   7106.67  1.9678185E-02
   7107.00  2.1593759E-02
   7107.33  2.3936690E-02
   7107.67  2.6788113E-02
   7108.00  3.0305779E-02
   7108.33  3.4881165E-02
   7108.67  4.0832269E-02
   7109.00  4.8755571E-02
   7109.33  6.0233782E-02
   7109.67  7.7106141E-02
   7110.00  1.0298125E-01
   7110.33  1.4819901E-01
   7110.67  2.2276914E-01
   7111.00  3.2434059E-01
   7111.33  4.1822640E-01
   7111.67  4.9607622E-01
   7112.00  5.5507915E-01
   7112.33  5.5222441E-01
   7112.67  4.8599672E-01
   7113.00  3.9994203E-01
   7113.33  3.3560355E-01
   7113.67  2.9404628E-01
   7114.00  2.6614462E-01
   7114.33  2.4166913E-01
   7114.67  2.1844736E-01
   7115.00  2.0065355E-01
   7115.33  1.9039501E-01
   7115.67  1.8224725E-01
   7116.00  1.7269939E-01
   7116.33  1.6341405E-01
   7116.67  1.5798517E-01
   7117.00  1.5572082E-01
   7117.33  1.5434999E-01
   7117.67  1.5485170E-01
   7118.00  1.5835961E-01
   7118.33  1.6298939E-01
   7118.67  1.6481532E-01
   7119.00  1.6280807E-01
   7119.33  1.5772235E-01
   7119.67  1.5195197E-01
   7120.00  1.4779752E-01
   7120.33  1.4721972E-01
   7120.67  1.4964477E-01
   7121.00  1.5405849E-01
   7121.33  1.5956162E-01
   7121.67  1.6566318E-01
   7122.00  1.7236355E-01
   7122.33  1.7978561E-01
   7122.67  1.8781884E-01
   7123.00  1.9644454E-01
   7123.33  2.0583164E-01
   7123.67  2.1612228E-01
   7124.00  2.2758016E-01
   7124.33  2.4064197E-01
   7124.67  2.5533030E-01
   7125.00  2.7184324E-01
   7125.33  2.9068832E-01
   7125.67  3.1180362E-01
   7126.00  3.3527594E-01
   7126.33  3.6129493E-01
   7126.67  3.8903312E-01
   7127.00  4.1736910E-01
   7127.33  4.4397756E-01
   7127.67  4.6702163E-01
   7128.00  4.8598064E-01
   7128.33  5.0106075E-01
   7128.67  5.1390481E-01
   7129.00  5.2616031E-01
   7129.33  5.4069215E-01
   7129.67  5.5989246E-01
   7130.00  5.8553046E-01
   7130.33  6.1968937E-01
   7130.67  6.6131181E-01
   7131.00  7.0907653E-01
   7131.33  7.6007256E-01
   7131.67  8.0868137E-01
   7132.00  8.4919659E-01
   7132.33  8.7350703E-01
   7132.67  8.8007366E-01
   7133.00  8.6956050E-01
   7133.33  8.4411308E-01
   7133.67  8.1024309E-01
   7134.00  7.7175570E-01
   7134.33  7.3197230E-01
   7134.67  6.9334826E-01
   7135.00  6.5705879E-01
   7135.33  6.2419209E-01
   7135.67  5.9467509E-01
   7136.00  5.6866755E-01
   7136.33  5.4686132E-01
   7136.67  5.2903275E-01
   7137.00  5.1524527E-01
   7137.33  5.0564556E-01
   7137.67  4.9897589E-01
   7138.00  4.9432698E-01
   7138.33  4.9089034E-01
   7138.67  4.8813915E-01
   7139.00  4.8633715E-01
   7139.33  4.8656974E-01
   7139.67  4.8972702E-01
   7140.00  4.9675782E-01
   7140.33  5.0927325E-01
   7140.67  5.2753077E-01
   7141.00  5.5210807E-01
   7141.33  5.8408697E-01
   7141.67  6.2201225E-01
   7142.00  6.6416324E-01
   7142.33  7.0680880E-01
   7142.67  7.4450689E-01
   7143.00  7.7246853E-01
   7143.33  7.8534681E-01
   7143.67  7.8471118E-01
   7144.00  7.7312179E-01
   7144.33  7.5413343E-01
   7144.67  7.3264254E-01
   7145.00  7.1110327E-01
   7145.33  6.9130663E-01
   7145.67  6.7372437E-01
   7146.00  6.5849402E-01
   7146.33  6.4579412E-01
   7146.67  6.3511342E-01
   7147.00  6.2623312E-01
   7147.33  6.1912684E-01
   7147.67  6.1341881E-01
   7148.00  6.0898875E-01
   7148.33  6.0588358E-01
   7148.67  6.0389333E-01
   7149.00  6.0296040E-01
   7149.33  6.0309917E-01
   7149.67  6.0404468E-01
   7150.00  6.0564630E-01
   7150.33  6.0776140E-01
   7150.67  6.1011423E-01
   7151.00  6.1251003E-01
   7151.33  6.1470378E-01
   7151.67  6.1651316E-01
   7152.00  6.1778550E-01
   7152.33  6.1829137E-01
   7152.67  6.1800859E-01
   7153.00  6.1687493E-01
   7153.33  6.1475218E-01
   7153.67  6.1177828E-01
   7154.00  6.0801550E-01
   7154.33  6.0348224E-01
   7154.67  5.9839153E-01
   7155.00  5.9286362E-01
   7155.33  5.8700636E-01
   7155.67  5.8099922E-01
   7156.00  5.7496098E-01
   7156.33  5.6903609E-01
   7156.67  5.6333304E-01
   7157.00  5.5794175E-01
   7157.33  5.5299012E-01
   7157.67  5.4847178E-01
   7158.00  5.4438972E-01
   7158.33  5.4075800E-01
   7158.67  5.3745518E-01
   7159.00  5.3440135E-01
   7159.33  5.3152010E-01
   7159.67  5.2871521E-01
   7160.00  5.2594393E-01
   7160.33  5.2319025E-01
   7160.67  5.2046672E-01
   7161.00  5.1780122E-01
   7161.33  5.1523733E-01
   7161.67  5.1277999E-01
   7162.00  5.1042036E-01
   7162.33  5.0812281E-01
   7162.67  5.0580715E-01
   7163.00  5.0339475E-01
   7163.33  5.0076568E-01
   7163.67  4.9786071E-01
   7164.00  4.9462855E-01
   7164.33  4.9099269E-01
   7164.67  4.8699542E-01
   7165.00  4.8265232E-01
   7165.33  4.7795361E-01
   7165.67  4.7297429E-01
   7166.00  4.6774622E-01
   7166.33  4.6227944E-01
   7166.67  4.5663719E-01
   7167.00  4.5085317E-01
   7167.33  4.4495807E-01
   7167.67  4.3901192E-01
   7168.00  4.3306244E-01
   7168.33  4.2718138E-01
   7168.67  4.2142583E-01
   7169.00  4.1584969E-01
   7169.33  4.1054371E-01
   7169.67  4.0553415E-01
   7170.00  4.0086425E-01
   7170.33  3.9662408E-01
   7170.67  3.9279862E-01
   7171.00  3.8940928E-01
   7171.33  3.8653466E-01
   7171.67  3.8414531E-01
   7172.00  3.8227219E-01
