    FDMNES
    energy     <xanes>
   7097.00  4.0097258E-03
   7097.33  4.0856732E-03
   7097.67  4.1645491E-03
   7098.00  4.2465337E-03
   7098.33  4.3322753E-03
   7098.67  4.4216124E-03
   7099.00  4.5147872E-03
   7099.33  4.6126316E-03
   7099.67  4.7149772E-03
   7100.00  4.8221587E-03
   7100.33  4.9352718E-03
   7100.67  5.0541521E-03
   7101.00  5.1792770E-03
   7101.33  5.3121367E-03
   7101.67  5.4525952E-03
   7102.00  5.6013606E-03
   7102.33  5.7605382E-03
   7102.67  5.9300772E-03
   7103.00  6.1110771E-03
   7103.33  6.3066568E-03
   7103.67  6.5169797E-03
   7104.00  6.7438538E-03
   7104.33  6.9921827E-03
   7104.67  7.2626561E-03
   7105.00  7.5584704E-03
   7105.33  7.8879463E-03
   7105.67  8.2531181E-03
   7106.00  8.6601936E-03
   7106.33  9.1248031E-03
   7106.67  9.6527311E-03
   7107.00  1.0257683E-02
   7107.33  1.0973491E-02
   7107.67  1.1818088E-02
   7108.00  1.2827909E-02
   7108.33  1.4093412E-02
   7108.67  1.5682739E-02
   7109.00  1.7725506E-02
   7109.33  2.0562617E-02
   7109.67  2.4570827E-02
   7110.00  3.0489192E-02
   7110.33  4.0445761E-02
   7110.67  5.6736933E-02
   7111.00  7.9686705E-02
   7111.33  9.9991117E-02
   7111.67  1.1702994E-01
   7112.00  1.3652018E-01
   7112.33  1.5633794E-01
   7112.67  1.7107556E-01
   7113.00  1.7038280E-01
   7113.33  1.5543795E-01
   7113.67  1.4068515E-01
   7114.00  1.2567054E-01
   7114.33  1.1292311E-01
   7114.67  1.0780495E-01
   7115.00  1.0690747E-01
   7115.33  1.0400456E-01
   7115.67  9.8993963E-02
   7116.00  9.3664757E-02
   7116.33  8.8304097E-02
   7116.67  8.2618388E-02
   7117.00  7.7263322E-02
   7117.33  7.3364677E-02
   7117.67  7.1411373E-02
   7118.00  7.1464956E-02
   7118.33  7.3566585E-02
   7118.67  7.7049254E-02
   7119.00  8.1300000E-02
   7119.33  8.5845388E-02
   7119.67  9.0969379E-02
   7120.00  9.7867414E-02
   7120.33  1.0831903E-01
   7120.67  1.2249049E-01
   7121.00  1.4043869E-01
   7121.33  1.6214445E-01
   7121.67  1.8544480E-01
   7122.00  2.0720854E-01
   7122.33  2.2310429E-01
   7122.67  2.3324169E-01
   7123.00  2.3912639E-01
   7123.33  2.4282846E-01
   7123.67  2.4752094E-01
   7124.00  2.5523909E-01
   7124.33  2.6684462E-01
   7124.67  2.8056443E-01
   7125.00  2.9435897E-01
   7125.33  3.0510217E-01
   7125.67  3.1096604E-01
   7126.00  3.1195519E-01
   7126.33  3.1038431E-01
   7126.67  3.1000942E-01
   7127.00  3.1270065E-01
   7127.33  3.1923192E-01
   7127.67  3.2827425E-01
   7128.00  3.3868301E-01
   7128.33  3.4924548E-01
   7128.67  3.5920681E-01
   7129.00  3.6846774E-01
   7129.33  3.7737531E-01
   7129.67  3.8649698E-01
   7130.00  3.9612793E-01
   7130.33  4.0656219E-01
   7130.67  4.1792167E-01
   7131.00  4.3025011E-01
   7131.33  4.4309524E-01
   7131.67  4.5532119E-01
   7132.00  4.6612060E-01
   7132.33  4.7523451E-01
   7132.67  4.8367615E-01
   7133.00  4.9233686E-01
   7133.33  5.0192557E-01
   7133.67  5.1238433E-01
   7134.00  5.2349836E-01
   7134.33  5.3489771E-01
   7134.67  5.4605372E-01
   7135.00  5.5660881E-01
   7135.33  5.6634069E-01
   7135.67  5.7549592E-01
   7136.00  5.8424409E-01
   7136.33  5.9254596E-01
   7136.67  6.0015149E-01
   7137.00  6.0658162E-01
   7137.33  6.1092337E-01
   7137.67  6.1279010E-01
   7138.00  6.1186594E-01
   7138.33  6.0783573E-01
   7138.67  6.0150496E-01
   7139.00  5.9351765E-01
   7139.33  5.8468459E-01
   7139.67  5.7608395E-01
   7140.00  5.6842258E-01
   7140.33  5.6224498E-01
   7140.67  5.5718989E-01
   7141.00  5.5270232E-01
   7141.33  5.4792362E-01
   7141.67  5.4221574E-01
   7142.00  5.3536210E-01
   7142.33  5.2748824E-01
   7142.67  5.1928713E-01
   7143.00  5.1128409E-01
   7143.33  5.0397743E-01
   7143.67  4.9744809E-01
   7144.00  4.9167788E-01
   7144.33  4.8665478E-01
   7144.67  4.8219809E-01
   7145.00  4.7825111E-01
   7145.33  4.7487213E-01
   7145.67  4.7206399E-01
   7146.00  4.6991757E-01
   7146.33  4.6864244E-01
   7146.67  4.6823524E-01
   7147.00  4.6874794E-01
   7147.33  4.7032228E-01
   7147.67  4.7283189E-01
   7148.00  4.7625654E-01
   7148.33  4.8068873E-01
   7148.67  4.8601680E-01
   7149.00  4.9226033E-01
   7149.33  4.9957453E-01
   7149.67  5.0787010E-01
   7150.00  5.1714808E-01
   7150.33  5.2748104E-01
   7150.67  5.3864699E-01
   7151.00  5.5050532E-01
   7151.33  5.6289673E-01
   7151.67  5.7549211E-01
   7152.00  5.8802747E-01
   7152.33  6.0012479E-01
   7152.67  6.1150098E-01
   7153.00  6.2189163E-01
   7153.33  6.3088856E-01
   7153.67  6.3846001E-01
   7154.00  6.4449365E-01
   7154.33  6.4871617E-01
   7154.67  6.5132339E-01
   7155.00  6.5236218E-01
   7155.33  6.5175943E-01
   7155.67  6.4985773E-01
   7156.00  6.4682836E-01
   7156.33  6.4279019E-01
   7156.67  6.3811026E-01
   7157.00  6.3301722E-01
   7157.33  6.2775653E-01
   7157.67  6.2259266E-01
   7158.00  6.1771033E-01
   7158.33  6.1333961E-01
   7158.67  6.0954454E-01
   7159.00  6.0638537E-01
   7159.33  6.0396671E-01
   7159.67  6.0218533E-01
   7160.00  6.0099735E-01
   7160.33  6.0039736E-01
   7160.67  6.0023804E-01
   7161.00  6.0044585E-01
   7161.33  6.0097094E-01
   7161.67  6.0169693E-01
   7162.00  6.0255943E-01
   7162.33  6.0350104E-01
   7162.67  6.0445888E-01
   7163.00  6.0539573E-01
   7163.33  6.0626885E-01
   7163.67  6.0705499E-01
   7164.00  6.0772998E-01
   7164.33  6.0824650E-01
   7164.67  6.0859000E-01
   7165.00  6.0873218E-01
   7165.33  6.0861293E-01
   7165.67  6.0823534E-01
   7166.00  6.0758345E-01
   7166.33  6.0661298E-01
   7166.67  6.0536224E-01
   7167.00  6.0384288E-01
   7167.33  6.0204693E-01
   7167.67  6.0003512E-01
   7168.00  5.9783608E-01
   7168.33  5.9546370E-01
   7168.67  5.9296720E-01
   7169.00  5.9036781E-01
   7169.33  5.8767280E-01
   7169.67  5.8490401E-01
   7170.00  5.8206804E-01
   7170.33  5.7916619E-01
   7170.67  5.7622328E-01
   7171.00  5.7327138E-01
   7171.33  5.7039748E-01
   7171.67  5.6775244E-01
   7172.00  5.6555373E-01
