    FDMNES
    energy     <xanes>
   7097.00  5.1864473E-03
   7097.33  5.3157633E-03
   7097.67  5.4512752E-03
   7098.00  5.5934194E-03
   7098.33  5.7436583E-03
   7098.67  5.9017212E-03
   7099.00  6.0682063E-03
   7099.33  6.2450419E-03
   7099.67  6.4319545E-03
   7100.00  6.6297859E-03
   7100.33  6.8411440E-03
   7100.67  7.0657832E-03
   7101.00  7.3049238E-03
   7101.33  7.5621995E-03
   7101.67  7.8374604E-03
   7102.00  8.1325379E-03
   7102.33  8.4526777E-03
   7102.67  8.7979726E-03
   7103.00  9.1712884E-03
   7103.33  9.5805281E-03
   7103.67  1.0026355E-02
   7104.00  1.0513486E-02
   7104.33  1.1054468E-02
   7104.67  1.1651299E-02
   7105.00  1.2312247E-02
   7105.33  1.3058582E-02
   7105.67  1.3895552E-02
   7106.00  1.4838854E-02
   7106.33  1.5927747E-02
   7106.67  1.7176009E-02
   7107.00  1.8616766E-02
   7107.33  2.0331290E-02
   7107.67  2.2358630E-02
   7108.00  2.4779804E-02
   7108.33  2.7793016E-02
   7108.67  3.1527839E-02
   7109.00  3.6231489E-02
   7109.33  4.2527735E-02
   7109.67  5.0987818E-02
   7110.00  6.2694842E-02
   7110.33  8.0614030E-02
   7110.67  1.0818117E-01
   7111.00  1.5034708E-01
   7111.33  2.1650429E-01
   7111.67  3.1580729E-01
   7112.00  4.5979141E-01
   7112.33  6.0559699E-01
   7112.67  6.3086231E-01
   7113.00  5.4558776E-01
   7113.33  4.6377039E-01
   7113.67  4.1384102E-01
   7114.00  3.7593399E-01
   7114.33  3.3405306E-01
   7114.67  2.9421501E-01
   7115.00  2.6393653E-01
   7115.33  2.4074549E-01
   7115.67  2.1881590E-01
   7116.00  2.0235213E-01
   7116.33  1.9535038E-01
   7116.67  1.9052255E-01
   7117.00  1.8186396E-01
   7117.33  1.6932720E-01
   7117.67  1.5743352E-01
   7118.00  1.4807263E-01
   7118.33  1.4187682E-01
   7118.67  1.3803361E-01
   7119.00  1.3569633E-01
   7119.33  1.3360599E-01
   7119.67  1.3124858E-01
   7120.00  1.2910891E-01
   7120.33  1.2798846E-01
   7120.67  1.2788220E-01
   7121.00  1.2856374E-01
   7121.33  1.3015096E-01
   7121.67  1.3295678E-01
   7122.00  1.3724972E-01
   7122.33  1.4320390E-01
   7122.67  1.5042570E-01
   7123.00  1.5871337E-01
   7123.33  1.6800404E-01
   7123.67  1.7805741E-01
   7124.00  1.8873282E-01
   7124.33  1.9980891E-01
   7124.67  2.1091036E-01
   7125.00  2.2188374E-01
   7125.33  2.3306929E-01
   7125.67  2.4545541E-01
   7126.00  2.6018969E-01
   7126.33  2.7834668E-01
   7126.67  2.9826126E-01
   7127.00  3.1705209E-01
   7127.33  3.3161041E-01
   7127.67  3.4361325E-01
   7128.00  3.5601709E-01
   7128.33  3.7177785E-01
   7128.67  3.9123038E-01
   7129.00  4.1382815E-01
   7129.33  4.3853693E-01
   7129.67  4.6391980E-01
   7130.00  4.8957126E-01
   7130.33  5.1610567E-01
   7130.67  5.4444280E-01
   7131.00  5.7511854E-01
   7131.33  6.0800736E-01
   7131.67  6.4147860E-01
   7132.00  6.7403711E-01
   7132.33  7.0407420E-01
   7132.67  7.3138809E-01
   7133.00  7.5615574E-01
   7133.33  7.7864457E-01
   7133.67  7.9950436E-01
   7134.00  8.1854269E-01
   7134.33  8.3410788E-01
   7134.67  8.4448485E-01
   7135.00  8.4803434E-01
   7135.33  8.4291058E-01
   7135.67  8.3035431E-01
   7136.00  8.1129094E-01
   7136.33  7.8671928E-01
   7136.67  7.5917914E-01
   7137.00  7.3036256E-01
   7137.33  7.0211852E-01
   7137.67  6.7580897E-01
   7138.00  6.5230874E-01
   7138.33  6.3265573E-01
   7138.67  6.1664522E-01
   7139.00  6.0422019E-01
   7139.33  5.9551145E-01
   7139.67  5.8969502E-01
   7140.00  5.8639327E-01
   7140.33  5.8544318E-01
   7140.67  5.8619207E-01
   7141.00  5.8833088E-01
   7141.33  5.9165296E-01
   7141.67  5.9570241E-01
   7142.00  6.0020787E-01
   7142.33  6.0488320E-01
   7142.67  6.0942738E-01
   7143.00  6.1362862E-01
   7143.33  6.1722322E-01
   7143.67  6.2014848E-01
   7144.00  6.2235044E-01
   7144.33  6.2374191E-01
   7144.67  6.2447763E-01
   7145.00  6.2465168E-01
   7145.33  6.2435153E-01
   7145.67  6.2378484E-01
   7146.00  6.2307519E-01
   7146.33  6.2233214E-01
   7146.67  6.2165034E-01
   7147.00  6.2109763E-01
   7147.33  6.2076272E-01
   7147.67  6.2066710E-01
   7148.00  6.2083423E-01
   7148.33  6.2130765E-01
   7148.67  6.2204411E-01
   7149.00  6.2302145E-01
   7149.33  6.2422400E-01
   7149.67  6.2556936E-01
   7150.00  6.2699587E-01
   7150.33  6.2841923E-01
   7150.67  6.2974166E-01
   7151.00  6.3086937E-01
   7151.33  6.3164837E-01
   7151.67  6.3200227E-01
   7152.00  6.3183845E-01
   7152.33  6.3098848E-01
   7152.67  6.2946251E-01
   7153.00  6.2723068E-01
   7153.33  6.2420098E-01
   7153.67  6.2048910E-01
   7154.00  6.1614185E-01
   7154.33  6.1116330E-01
   7154.67  6.0570855E-01
   7155.00  5.9985372E-01
   7155.33  5.9364594E-01
   7155.67  5.8720516E-01
   7156.00  5.8059537E-01
   7156.33  5.7387164E-01
   7156.67  5.6710784E-01
   7157.00  5.6035290E-01
   7157.33  5.5367002E-01
   7157.67  5.4710700E-01
   7158.00  5.4071346E-01
   7158.33  5.3457718E-01
   7158.67  5.2872983E-01
   7159.00  5.2322296E-01
   7159.33  5.1816207E-01
   7159.67  5.1354476E-01
   7160.00  5.0940131E-01
   7160.33  5.0581166E-01
   7160.67  5.0271210E-01
   7161.00  5.0008413E-01
   7161.33  4.9794336E-01
   7161.67  4.9618069E-01
   7162.00  4.9473487E-01
   7162.33  4.9355164E-01
   7162.67  4.9251371E-01
   7163.00  4.9154683E-01
   7163.33  4.9056563E-01
   7163.67  4.8949376E-01
   7164.00  4.8827119E-01
   7164.33  4.8681023E-01
   7164.67  4.8508637E-01
   7165.00  4.8306556E-01
   7165.33  4.8068022E-01
   7165.67  4.7795599E-01
   7166.00  4.7488616E-01
   7166.33  4.7142967E-01
   7166.67  4.6764679E-01
   7167.00  4.6356082E-01
   7167.33  4.5917115E-01
   7167.67  4.5455112E-01
   7168.00  4.4974275E-01
   7168.33  4.4479183E-01
   7168.67  4.3977638E-01
   7169.00  4.3474441E-01
   7169.33  4.2975587E-01
   7169.67  4.2486106E-01
   7170.00  4.2010633E-01
   7170.33  4.1556792E-01
   7170.67  4.1127436E-01
   7171.00  4.0727576E-01
   7171.33  4.0369339E-01
   7171.67  4.0059469E-01
   7172.00  3.9811288E-01
