    FDMNES
    energy     <xanes>
   7097.00  5.3835329E-03
   7097.33  5.5246636E-03
   7097.67  5.6727703E-03
   7098.00  5.8283502E-03
   7098.33  5.9930590E-03
   7098.67  6.1665983E-03
   7099.00  6.3496497E-03
   7099.33  6.5443988E-03
   7099.67  6.7505436E-03
   7100.00  6.9690418E-03
   7100.33  7.2028507E-03
   7100.67  7.4516980E-03
   7101.00  7.7169688E-03
   7101.33  8.0027818E-03
   7101.67  8.3089679E-03
   7102.00  8.6375999E-03
   7102.33  8.9946131E-03
   7102.67  9.3801018E-03
   7103.00  9.7972957E-03
   7103.33  1.0255109E-02
   7103.67  1.0754254E-02
   7104.00  1.1300017E-02
   7104.33  1.1906483E-02
   7104.67  1.2575810E-02
   7105.00  1.3317198E-02
   7105.33  1.4154370E-02
   7105.67  1.5092993E-02
   7106.00  1.6150396E-02
   7106.33  1.7370020E-02
   7106.67  1.8766733E-02
   7107.00  2.0376828E-02
   7107.33  2.2289542E-02
   7107.67  2.4547126E-02
   7108.00  2.7238071E-02
   7108.33  3.0579550E-02
   7108.67  3.4714022E-02
   7109.00  3.9915351E-02
   7109.33  4.6881318E-02
   7109.67  5.6274169E-02
   7110.00  6.9367411E-02
   7110.33  8.9685226E-02
   7110.67  1.2099800E-01
   7111.00  1.6672570E-01
   7111.33  2.2936393E-01
   7111.67  3.1058866E-01
   7112.00  4.0985994E-01
   7112.33  5.1335303E-01
   7112.67  6.1526898E-01
   7113.00  7.1909023E-01
   7113.33  7.7411142E-01
   7113.67  7.3961176E-01
   7114.00  6.3587832E-01
   7114.33  5.1526023E-01
   7114.67  4.1266491E-01
   7115.00  3.3453279E-01
   7115.33  2.8015452E-01
   7115.67  2.4118560E-01
   7116.00  2.1362776E-01
   7116.33  1.9542972E-01
   7116.67  1.8365393E-01
   7117.00  1.7698607E-01
   7117.33  1.7343652E-01
   7117.67  1.6978104E-01
   7118.00  1.6531834E-01
   7118.33  1.6133986E-01
   7118.67  1.5836287E-01
   7119.00  1.5624458E-01
   7119.33  1.5482403E-01
   7119.67  1.5323842E-01
   7120.00  1.5021608E-01
   7120.33  1.4449408E-01
   7120.67  1.3780511E-01
   7121.00  1.3246637E-01
   7121.33  1.3012206E-01
   7121.67  1.3004169E-01
   7122.00  1.3151107E-01
   7122.33  1.3420468E-01
   7122.67  1.3792359E-01
   7123.00  1.4262076E-01
   7123.33  1.4817032E-01
   7123.67  1.5440121E-01
   7124.00  1.6164416E-01
   7124.33  1.7056294E-01
   7124.67  1.8116815E-01
   7125.00  1.9338329E-01
   7125.33  2.0709811E-01
   7125.67  2.2157210E-01
   7126.00  2.3593526E-01
   7126.33  2.4891044E-01
   7126.67  2.6020178E-01
   7127.00  2.7033382E-01
   7127.33  2.8074294E-01
   7127.67  2.9304007E-01
   7128.00  3.0845343E-01
   7128.33  3.2858580E-01
   7128.67  3.5363577E-01
   7129.00  3.8387743E-01
   7129.33  4.1972197E-01
   7129.67  4.5961778E-01
   7130.00  5.0200929E-01
   7130.33  5.4389379E-01
   7130.67  5.8159246E-01
   7131.00  6.1241997E-01
   7131.33  6.3451900E-01
   7131.67  6.5063720E-01
   7132.00  6.6329917E-01
   7132.33  6.7488342E-01
   7132.67  6.8682548E-01
   7133.00  6.9922846E-01
   7133.33  7.1108458E-01
   7133.67  7.2081410E-01
   7134.00  7.2699931E-01
   7134.33  7.2782190E-01
   7134.67  7.2309950E-01
   7135.00  7.1245332E-01
   7135.33  6.9532751E-01
   7135.67  6.7341268E-01
   7136.00  6.4786864E-01
   7136.33  6.1965511E-01
   7136.67  5.9011196E-01
   7137.00  5.6007517E-01
   7137.33  5.3065982E-01
   7137.67  5.0291702E-01
   7138.00  4.7776118E-01
   7138.33  4.5649282E-01
   7138.67  4.3928453E-01
   7139.00  4.2646033E-01
   7139.33  4.1875449E-01
   7139.67  4.1551314E-01
   7140.00  4.1644641E-01
   7140.33  4.2144629E-01
   7140.67  4.2935338E-01
   7141.00  4.3953104E-01
   7141.33  4.5149279E-01
   7141.67  4.6448062E-01
   7142.00  4.7813978E-01
   7142.33  4.9225727E-01
   7142.67  5.0665758E-01
   7143.00  5.2131475E-01
   7143.33  5.3628421E-01
   7143.67  5.5156277E-01
   7144.00  5.6715020E-01
   7144.33  5.8300302E-01
   7144.67  5.9891273E-01
   7145.00  6.1464442E-01
   7145.33  6.2981348E-01
   7145.67  6.4418456E-01
   7146.00  6.5758360E-01
   7146.33  6.6982178E-01
   7146.67  6.8112188E-01
   7147.00  6.9165468E-01
   7147.33  7.0160214E-01
   7147.67  7.1127211E-01
   7148.00  7.2083177E-01
   7148.33  7.3041066E-01
   7148.67  7.4005157E-01
   7149.00  7.4972233E-01
   7149.33  7.5929397E-01
   7149.67  7.6858434E-01
   7150.00  7.7738178E-01
   7150.33  7.8530434E-01
   7150.67  7.9215866E-01
   7151.00  7.9773023E-01
   7151.33  8.0165753E-01
   7151.67  8.0402177E-01
   7152.00  8.0479948E-01
   7152.33  8.0384625E-01
   7152.67  8.0147196E-01
   7153.00  7.9781941E-01
   7153.33  7.9295482E-01
   7153.67  7.8722843E-01
   7154.00  7.8081910E-01
   7154.33  7.7385089E-01
   7154.67  7.6653734E-01
   7155.00  7.5897536E-01
   7155.33  7.5121605E-01
   7155.67  7.4331417E-01
   7156.00  7.3527022E-01
   7156.33  7.2703989E-01
   7156.67  7.1860492E-01
   7157.00  7.0992693E-01
   7157.33  7.0092672E-01
   7157.67  6.9160642E-01
   7158.00  6.8194934E-01
   7158.33  6.7190815E-01
   7158.67  6.6153688E-01
   7159.00  6.5085809E-01
   7159.33  6.3987696E-01
   7159.67  6.2867905E-01
   7160.00  6.1731977E-01
   7160.33  6.0585871E-01
   7160.67  5.9437946E-01
   7161.00  5.8294224E-01
   7161.33  5.7162266E-01
   7161.67  5.6046113E-01
   7162.00  5.4949686E-01
   7162.33  5.3879581E-01
   7162.67  5.2835835E-01
   7163.00  5.1820745E-01
   7163.33  5.0840618E-01
   7163.67  4.9893791E-01
   7164.00  4.8982068E-01
   7164.33  4.8112021E-01
   7164.67  4.7280724E-01
   7165.00  4.6489310E-01
   7165.33  4.5743452E-01
   7165.67  4.5037735E-01
   7166.00  4.4370940E-01
   7166.33  4.3745058E-01
   7166.67  4.3151804E-01
   7167.00  4.2586780E-01
   7167.33  4.2046522E-01
   7167.67  4.1521940E-01
   7168.00  4.1007851E-01
   7168.33  4.0499878E-01
   7168.67  3.9993450E-01
   7169.00  3.9486341E-01
   7169.33  3.8977340E-01
   7169.67  3.8467458E-01
   7170.00  3.7958783E-01
   7170.33  3.7456024E-01
   7170.67  3.6964500E-01
   7171.00  3.6491229E-01
   7171.33  3.6051634E-01
   7171.67  3.5660621E-01
   7172.00  3.5340761E-01
