    FDMNES
    energy     <xanes>
   7097.00  4.3532485E-03
   7097.33  4.4448692E-03
   7097.67  4.5402441E-03
   7098.00  4.6396140E-03
   7098.33  4.7438262E-03
   7098.67  4.8526871E-03
   7099.00  4.9665238E-03
   7099.33  5.0864359E-03
   7099.67  5.2122258E-03
   7100.00  5.3443513E-03
   7100.33  5.4842806E-03
   7100.67  5.6318304E-03
   7101.00  5.7876647E-03
   7101.33  5.9538118E-03
   7101.67  6.1301448E-03
   7102.00  6.3176673E-03
   7102.33  6.5193012E-03
   7102.67  6.7350704E-03
   7103.00  6.9665699E-03
   7103.33  7.2182329E-03
   7103.67  7.4904533E-03
   7104.00  7.7859279E-03
   7104.33  8.1118343E-03
   7104.67  8.4694773E-03
   7105.00  8.8637863E-03
   7105.33  9.3073920E-03
   7105.67  9.8039633E-03
   7106.00  1.0363471E-02
   7106.33  1.1010730E-02
   7106.67  1.1756195E-02
   7107.00  1.2622992E-02
   7107.33  1.3667888E-02
   7107.67  1.4924189E-02
   7108.00  1.6457142E-02
   7108.33  1.8429124E-02
   7108.67  2.0972489E-02
   7109.00  2.4336031E-02
   7109.33  2.9181230E-02
   7109.67  3.6280895E-02
   7110.00  4.7154747E-02
   7110.33  6.6211198E-02
   7110.67  9.8209700E-02
   7111.00  1.4391475E-01
   7111.33  1.8491329E-01
   7111.67  2.0309038E-01
   7112.00  2.0234773E-01
   7112.33  1.9705501E-01
   7112.67  1.8884938E-01
   7113.00  1.7107459E-01
   7113.33  1.4752803E-01
   7113.67  1.2826323E-01
   7114.00  1.1472535E-01
   7114.33  1.0116338E-01
   7114.67  8.6949326E-02
   7115.00  7.6147363E-02
   7115.33  6.9625126E-02
   7115.67  6.5153222E-02
   7116.00  6.2210020E-02
   7116.33  6.1184741E-02
   7116.67  6.1843459E-02
   7117.00  6.4033709E-02
   7117.33  6.7735830E-02
   7117.67  7.2446458E-02
   7118.00  7.7726213E-02
   7118.33  8.3443726E-02
   7118.67  9.0007674E-02
   7119.00  9.7910907E-02
   7119.33  1.0772812E-01
   7119.67  1.1944244E-01
   7120.00  1.3315322E-01
   7120.33  1.4917026E-01
   7120.67  1.6724195E-01
   7121.00  1.8735678E-01
   7121.33  2.0973560E-01
   7121.67  2.3398984E-01
   7122.00  2.5978139E-01
   7122.33  2.8645282E-01
   7122.67  3.1298377E-01
   7123.00  3.3883619E-01
   7123.33  3.6365112E-01
   7123.67  3.8742205E-01
   7124.00  4.1030570E-01
   7124.33  4.3252393E-01
   7124.67  4.5329680E-01
   7125.00  4.7062494E-01
   7125.33  4.8132232E-01
   7125.67  4.8559633E-01
   7126.00  4.8522285E-01
   7126.33  4.8310732E-01
   7126.67  4.8153046E-01
   7127.00  4.8117273E-01
   7127.33  4.8245013E-01
   7127.67  4.8512957E-01
   7128.00  4.8896165E-01
   7128.33  4.9382222E-01
   7128.67  4.9947718E-01
   7129.00  5.0576983E-01
   7129.33  5.1259443E-01
   7129.67  5.1986846E-01
   7130.00  5.2752770E-01
   7130.33  5.3542471E-01
   7130.67  5.4364066E-01
   7131.00  5.5278331E-01
   7131.33  5.6436931E-01
   7131.67  5.7943849E-01
   7132.00  5.9864167E-01
   7132.33  6.2221917E-01
   7132.67  6.4830808E-01
   7133.00  6.7512321E-01
   7133.33  7.0038586E-01
   7133.67  7.2281826E-01
   7134.00  7.4187502E-01
   7134.33  7.5671118E-01
   7134.67  7.6692033E-01
   7135.00  7.7135512E-01
   7135.33  7.6845782E-01
   7135.67  7.5987892E-01
   7136.00  7.4742645E-01
   7136.33  7.3331953E-01
   7136.67  7.1964130E-01
   7137.00  7.0736460E-01
   7137.33  6.9716172E-01
   7137.67  6.8872508E-01
   7138.00  6.8175622E-01
   7138.33  6.7592845E-01
   7138.67  6.7064858E-01
   7139.00  6.6554759E-01
   7139.33  6.6024583E-01
   7139.67  6.5452067E-01
   7140.00  6.4827221E-01
   7140.33  6.4145669E-01
   7140.67  6.3428242E-01
   7141.00  6.2693963E-01
   7141.33  6.1968266E-01
   7141.67  6.1272489E-01
   7142.00  6.0621747E-01
   7142.33  6.0035456E-01
   7142.67  5.9513946E-01
   7143.00  5.9061276E-01
   7143.33  5.8690187E-01
   7143.67  5.8395431E-01
   7144.00  5.8180755E-01
   7144.33  5.8061175E-01
   7144.67  5.8029578E-01
   7145.00  5.8087088E-01
   7145.33  5.8242847E-01
   7145.67  5.8481042E-01
   7146.00  5.8795654E-01
   7146.33  5.9186130E-01
   7146.67  5.9632981E-01
   7147.00  6.0124984E-01
   7147.33  6.0650389E-01
   7147.67  6.1187034E-01
   7148.00  6.1716442E-01
   7148.33  6.2209932E-01
   7148.67  6.2643984E-01
   7149.00  6.2994272E-01
   7149.33  6.3220213E-01
   7149.67  6.3312888E-01
   7150.00  6.3258667E-01
   7150.33  6.3032586E-01
   7150.67  6.2659065E-01
   7151.00  6.2149915E-01
   7151.33  6.1510441E-01
   7151.67  6.0778700E-01
   7152.00  5.9975404E-01
   7152.33  5.9116357E-01
   7152.67  5.8225793E-01
   7153.00  5.7315568E-01
   7153.33  5.6393937E-01
   7153.67  5.5467442E-01
   7154.00  5.4537697E-01
   7154.33  5.3603672E-01
   7154.67  5.2663249E-01
   7155.00  5.1713005E-01
   7155.33  5.0747294E-01
   7155.67  4.9765179E-01
   7156.00  4.8766042E-01
   7156.33  4.7749639E-01
   7156.67  4.6722434E-01
   7157.00  4.5690540E-01
   7157.33  4.4663579E-01
   7157.67  4.3651364E-01
   7158.00  4.2663169E-01
   7158.33  4.1713731E-01
   7158.67  4.0808281E-01
   7159.00  3.9954098E-01
   7159.33  3.9165758E-01
   7159.67  3.8442001E-01
   7160.00  3.7787166E-01
   7160.33  3.7214314E-01
   7160.67  3.6717277E-01
   7161.00  3.6297935E-01
   7161.33  3.5967229E-01
   7161.67  3.5714996E-01
   7162.00  3.5539849E-01
   7162.33  3.5447541E-01
   7162.67  3.5423557E-01
   7163.00  3.5462692E-01
   7163.33  3.5564874E-01
   7163.67  3.5714587E-01
   7164.00  3.5903592E-01
   7164.33  3.6125430E-01
   7164.67  3.6366441E-01
   7165.00  3.6618620E-01
   7165.33  3.6874306E-01
   7165.67  3.7126757E-01
   7166.00  3.7371920E-01
   7166.33  3.7605320E-01
   7166.67  3.7826613E-01
   7167.00  3.8035419E-01
   7167.33  3.8230783E-01
   7167.67  3.8415580E-01
   7168.00  3.8591551E-01
   7168.33  3.8760444E-01
   7168.67  3.8925849E-01
   7169.00  3.9090110E-01
   7169.33  3.9255783E-01
   7169.67  3.9424530E-01
   7170.00  3.9597271E-01
   7170.33  3.9774589E-01
   7170.67  3.9954650E-01
   7171.00  4.0134877E-01
   7171.33  4.0309110E-01
   7171.67  4.0468115E-01
   7172.00  4.0599233E-01
