    FDMNES
    energy     <xanes>
   7097.00  5.2316228E-03
   7097.33  5.3670723E-03
   7097.67  5.5090828E-03
   7098.00  5.6581124E-03
   7098.33  5.8157024E-03
   7098.67  5.9815589E-03
   7099.00  6.1563067E-03
   7099.33  6.3419685E-03
   7099.67  6.5382422E-03
   7100.00  6.7459997E-03
   7100.33  6.9679603E-03
   7100.67  7.2038410E-03
   7101.00  7.4548938E-03
   7101.33  7.7248776E-03
   7101.67  8.0135892E-03
   7102.00  8.3228866E-03
   7102.33  8.6581404E-03
   7102.67  9.0193595E-03
   7103.00  9.4094115E-03
   7103.33  9.8362803E-03
   7103.67  1.0300481E-02
   7104.00  1.0806653E-02
   7104.33  1.1367261E-02
   7104.67  1.1984002E-02
   7105.00  1.2664845E-02
   7105.33  1.3430478E-02
   7105.67  1.4285456E-02
   7106.00  1.5244545E-02
   7106.33  1.6344971E-02
   7106.67  1.7598701E-02
   7107.00  1.9036062E-02
   7107.33  2.0731922E-02
   7107.67  2.2720026E-02
   7108.00  2.5072692E-02
   7108.33  2.7967706E-02
   7108.67  3.1517652E-02
   7109.00  3.5941598E-02
   7109.33  4.1798032E-02
   7109.67  4.9608927E-02
   7110.00  6.0383970E-02
   7110.33  7.6906872E-02
   7110.67  1.0194261E-01
   7111.00  1.3711388E-01
   7111.33  1.8182292E-01
   7111.67  2.3883465E-01
   7112.00  3.1286925E-01
   7112.33  4.0444664E-01
   7112.67  4.9330994E-01
   7113.00  5.7760731E-01
   7113.33  6.9464237E-01
   7113.67  8.2293273E-01
   7114.00  8.6454510E-01
   7114.33  7.2583604E-01
   7114.67  5.3563501E-01
   7115.00  3.8320763E-01
   7115.33  2.8835335E-01
   7115.67  2.2783446E-01
   7116.00  1.8932576E-01
   7116.33  1.6558533E-01
   7116.67  1.4997086E-01
   7117.00  1.3985823E-01
   7117.33  1.3355856E-01
   7117.67  1.2923442E-01
   7118.00  1.2622214E-01
   7118.33  1.2416358E-01
   7118.67  1.2247104E-01
   7119.00  1.2090035E-01
   7119.33  1.2000424E-01
   7119.67  1.2081673E-01
   7120.00  1.2387121E-01
   7120.33  1.2868323E-01
   7120.67  1.3296360E-01
   7121.00  1.3461376E-01
   7121.33  1.3353308E-01
   7121.67  1.3325836E-01
   7122.00  1.3572752E-01
   7122.33  1.4108092E-01
   7122.67  1.4756554E-01
   7123.00  1.5502246E-01
   7123.33  1.6542498E-01
   7123.67  1.8007338E-01
   7124.00  1.9955006E-01
   7124.33  2.2455997E-01
   7124.67  2.5411917E-01
   7125.00  2.8700746E-01
   7125.33  3.2026841E-01
   7125.67  3.4989156E-01
   7126.00  3.7288151E-01
   7126.33  3.8591972E-01
   7126.67  3.9025314E-01
   7127.00  3.8867986E-01
   7127.33  3.8526092E-01
   7127.67  3.8262616E-01
   7128.00  3.8126459E-01
   7128.33  3.8141402E-01
   7128.67  3.8343800E-01
   7129.00  3.8834257E-01
   7129.33  3.9800047E-01
   7129.67  4.1259574E-01
   7130.00  4.3194713E-01
   7130.33  4.5588518E-01
   7130.67  4.8323045E-01
   7131.00  5.1333889E-01
   7131.33  5.4509962E-01
   7131.67  5.7615540E-01
   7132.00  6.0416778E-01
   7132.33  6.2658824E-01
   7132.67  6.4461441E-01
   7133.00  6.6055641E-01
   7133.33  6.7655612E-01
   7133.67  6.9150157E-01
   7134.00  7.0191860E-01
   7134.33  7.0274777E-01
   7134.67  6.9411804E-01
   7135.00  6.7777077E-01
   7135.33  6.5596613E-01
   7135.67  6.3158998E-01
   7136.00  6.0600110E-01
   7136.33  5.8020838E-01
   7136.67  5.5482974E-01
   7137.00  5.3035568E-01
   7137.33  5.0793890E-01
   7137.67  4.8856306E-01
   7138.00  4.7314722E-01
   7138.33  4.6285322E-01
   7138.67  4.5718479E-01
   7139.00  4.5594039E-01
   7139.33  4.5924970E-01
   7139.67  4.6612537E-01
   7140.00  4.7603372E-01
   7140.33  4.8842222E-01
   7140.67  5.0196406E-01
   7141.00  5.1566073E-01
   7141.33  5.2830360E-01
   7141.67  5.3919338E-01
   7142.00  5.4794655E-01
   7142.33  5.5420625E-01
   7142.67  5.5844942E-01
   7143.00  5.6093948E-01
   7143.33  5.6181968E-01
   7143.67  5.6159353E-01
   7144.00  5.6054087E-01
   7144.33  5.5893169E-01
   7144.67  5.5716998E-01
   7145.00  5.5555502E-01
   7145.33  5.5448540E-01
   7145.67  5.5419570E-01
   7146.00  5.5488380E-01
   7146.33  5.5685657E-01
   7146.67  5.6008890E-01
   7147.00  5.6467485E-01
   7147.33  5.7093731E-01
   7147.67  5.7887819E-01
   7148.00  5.8870522E-01
   7148.33  6.0097389E-01
   7148.67  6.1570630E-01
   7149.00  6.3311993E-01
   7149.33  6.5372710E-01
   7149.67  6.7714674E-01
   7150.00  7.0312930E-01
   7150.33  7.3128994E-01
   7150.67  7.6043842E-01
   7151.00  7.8958040E-01
   7151.33  8.1722236E-01
   7151.67  8.4218405E-01
   7152.00  8.6350581E-01
   7152.33  8.7996573E-01
   7152.67  8.9198006E-01
   7153.00  8.9983136E-01
   7153.33  9.0365971E-01
   7153.67  9.0453579E-01
   7154.00  9.0287222E-01
   7154.33  8.9863255E-01
   7154.67  8.9210398E-01
   7155.00  8.8314151E-01
   7155.33  8.7118032E-01
   7155.67  8.5638179E-01
   7156.00  8.3873499E-01
   7156.33  8.1811304E-01
   7156.67  7.9527639E-01
   7157.00  7.7072676E-01
   7157.33  7.4498645E-01
   7157.67  7.1883665E-01
   7158.00  6.9278165E-01
   7158.33  6.6738762E-01
   7158.67  6.4296305E-01
   7159.00  6.1975303E-01
   7159.33  5.9814128E-01
   7159.67  5.7808432E-01
   7160.00  5.5963825E-01
   7160.33  5.4300577E-01
   7160.67  5.2793263E-01
   7161.00  5.1434125E-01
   7161.33  5.0228151E-01
   7161.67  4.9143724E-01
   7162.00  4.8166858E-01
   7162.33  4.7292173E-01
   7162.67  4.6492775E-01
   7163.00  4.5756810E-01
   7163.33  4.5078908E-01
   7163.67  4.4443073E-01
   7164.00  4.3842760E-01
   7164.33  4.3275266E-01
   7164.67  4.2731171E-01
   7165.00  4.2205414E-01
   7165.33  4.1693019E-01
   7165.67  4.1185643E-01
   7166.00  4.0677607E-01
   7166.33  4.0162655E-01
   7166.67  3.9638095E-01
   7167.00  3.9102341E-01
   7167.33  3.8554294E-01
   7167.67  3.7998990E-01
   7168.00  3.7441130E-01
   7168.33  3.6886856E-01
   7168.67  3.6341043E-01
   7169.00  3.5807489E-01
   7169.33  3.5291577E-01
   7169.67  3.4794082E-01
   7170.00  3.4317351E-01
   7170.33  3.3867671E-01
   7170.67  3.3446241E-01
   7171.00  3.3057549E-01
   7171.33  3.2713207E-01
   7171.67  3.2417658E-01
   7172.00  3.2180948E-01
