    FDMNES
    energy     <xanes>
   7097.00  5.2593645E-03
   7097.33  5.3921871E-03
   7097.67  5.5314552E-03
   7098.00  5.6776288E-03
   7098.33  5.8322397E-03
   7098.67  5.9950149E-03
   7099.00  6.1665880E-03
   7099.33  6.3489870E-03
   7099.67  6.5419406E-03
   7100.00  6.7463448E-03
   7100.33  6.9649568E-03
   7100.67  7.1975427E-03
   7101.00  7.4454100E-03
   7101.33  7.7124254E-03
   7101.67  7.9984713E-03
   7102.00  8.3055270E-03
   7102.33  8.6392211E-03
   7102.67  8.9997259E-03
   7103.00  9.3901732E-03
   7103.33  9.8191353E-03
   7103.67  1.0287468E-02
   7104.00  1.0800402E-02
   7104.33  1.1371751E-02
   7104.67  1.2003993E-02
   7105.00  1.2706486E-02
   7105.33  1.3503146E-02
   7105.67  1.4400508E-02
   7106.00  1.5416877E-02
   7106.33  1.6597803E-02
   7106.67  1.7960948E-02
   7107.00  1.9546743E-02
   7107.33  2.1454283E-02
   7107.67  2.3736606E-02
   7108.00  2.6500189E-02
   7108.33  3.0007919E-02
   7108.67  3.4455085E-02
   7109.00  4.0211088E-02
   7109.33  4.8238750E-02
   7109.67  5.9571329E-02
   7110.00  7.6219436E-02
   7110.33  1.0393383E-01
   7110.67  1.4925824E-01
   7111.00  2.1676006E-01
   7111.33  2.9613456E-01
   7111.67  3.6369515E-01
   7112.00  4.1212039E-01
   7112.33  4.4906408E-01
   7112.67  4.8469236E-01
   7113.00  5.1515276E-01
   7113.33  5.0753957E-01
   7113.67  4.6538843E-01
   7114.00  4.1496122E-01
   7114.33  3.6715402E-01
   7114.67  3.2005117E-01
   7115.00  2.8121262E-01
   7115.33  2.5901817E-01
   7115.67  2.4865556E-01
   7116.00  2.4218956E-01
   7116.33  2.3012254E-01
   7116.67  2.1255137E-01
   7117.00  1.9363365E-01
   7117.33  1.7716009E-01
   7117.67  1.6386650E-01
   7118.00  1.5354674E-01
   7118.33  1.4573077E-01
   7118.67  1.3931587E-01
   7119.00  1.3384789E-01
   7119.33  1.2927831E-01
   7119.67  1.2553413E-01
   7120.00  1.2259098E-01
   7120.33  1.2032114E-01
   7120.67  1.1825534E-01
   7121.00  1.1613919E-01
   7121.33  1.1424972E-01
   7121.67  1.1323316E-01
   7122.00  1.1339984E-01
   7122.33  1.1470553E-01
   7122.67  1.1671168E-01
   7123.00  1.1927663E-01
   7123.33  1.2244385E-01
   7123.67  1.2621966E-01
   7124.00  1.3074355E-01
   7124.33  1.3642727E-01
   7124.67  1.4352246E-01
   7125.00  1.5236162E-01
   7125.33  1.6357241E-01
   7125.67  1.7727300E-01
   7126.00  1.9389569E-01
   7126.33  2.1469824E-01
   7126.67  2.4037926E-01
   7127.00  2.7191002E-01
   7127.33  3.1001426E-01
   7127.67  3.5168207E-01
   7128.00  3.9353462E-01
   7128.33  4.3214161E-01
   7128.67  4.6791890E-01
   7129.00  5.0284440E-01
   7129.33  5.3918998E-01
   7129.67  5.7723635E-01
   7130.00  6.1629629E-01
   7130.33  6.5555078E-01
   7130.67  6.9456104E-01
   7131.00  7.3299654E-01
   7131.33  7.6991844E-01
   7131.67  8.0415514E-01
   7132.00  8.3422333E-01
   7132.33  8.5775999E-01
   7132.67  8.7448316E-01
   7133.00  8.8422089E-01
   7133.33  8.8660356E-01
   7133.67  8.8321556E-01
   7134.00  8.7469015E-01
   7134.33  8.6102536E-01
   7134.67  8.4326350E-01
   7135.00  8.2179439E-01
   7135.33  7.9661580E-01
   7135.67  7.6858215E-01
   7136.00  7.3827165E-01
   7136.33  7.0658835E-01
   7136.67  6.7512692E-01
   7137.00  6.4530554E-01
   7137.33  6.1918852E-01
   7137.67  5.9779389E-01
   7138.00  5.8199623E-01
   7138.33  5.7296124E-01
   7138.67  5.6956562E-01
   7139.00  5.7085796E-01
   7139.33  5.7556279E-01
   7139.67  5.8145365E-01
   7140.00  5.8715396E-01
   7140.33  5.9145767E-01
   7140.67  5.9414067E-01
   7141.00  5.9531797E-01
   7141.33  5.9527562E-01
   7141.67  5.9464692E-01
   7142.00  5.9379103E-01
   7142.33  5.9299208E-01
   7142.67  5.9237951E-01
   7143.00  5.9199164E-01
   7143.33  5.9185926E-01
   7143.67  5.9194826E-01
   7144.00  5.9226324E-01
   7144.33  5.9285544E-01
   7144.67  5.9372468E-01
   7145.00  5.9489798E-01
   7145.33  5.9644101E-01
   7145.67  5.9832461E-01
   7146.00  6.0054684E-01
   7146.33  6.0313097E-01
   7146.67  6.0600450E-01
   7147.00  6.0912783E-01
   7147.33  6.1246651E-01
   7147.67  6.1593040E-01
   7148.00  6.1945930E-01
   7148.33  6.2297634E-01
   7148.67  6.2640633E-01
   7149.00  6.2968377E-01
   7149.33  6.3270174E-01
   7149.67  6.3541010E-01
   7150.00  6.3774242E-01
   7150.33  6.3957038E-01
   7150.67  6.4088496E-01
   7151.00  6.4163768E-01
   7151.33  6.4170716E-01
   7151.67  6.4113829E-01
   7152.00  6.3991800E-01
   7152.33  6.3796843E-01
   7152.67  6.3539525E-01
   7153.00  6.3223748E-01
   7153.33  6.2849542E-01
   7153.67  6.2431708E-01
   7154.00  6.1978500E-01
   7154.33  6.1497178E-01
   7154.67  6.1001384E-01
   7155.00  6.0499791E-01
   7155.33  6.0002071E-01
   7155.67  5.9515586E-01
   7156.00  5.9045615E-01
   7156.33  5.8599151E-01
   7156.67  5.8175968E-01
   7157.00  5.7776572E-01
   7157.33  5.7402717E-01
   7157.67  5.7049012E-01
   7158.00  5.6712395E-01
   7158.33  5.6390131E-01
   7158.67  5.6075692E-01
   7159.00  5.5764527E-01
   7159.33  5.5450834E-01
   7159.67  5.5129338E-01
   7160.00  5.4795335E-01
   7160.33  5.4441073E-01
   7160.67  5.4063338E-01
   7161.00  5.3657710E-01
   7161.33  5.3215984E-01
   7161.67  5.2739342E-01
   7162.00  5.2226763E-01
   7162.33  5.1674091E-01
   7162.67  5.1087745E-01
   7163.00  5.0471091E-01
   7163.33  4.9826353E-01
   7163.67  4.9162890E-01
   7164.00  4.8486453E-01
   7164.33  4.7803163E-01
   7164.67  4.7120541E-01
   7165.00  4.6444033E-01
   7165.33  4.5780861E-01
   7165.67  4.5134679E-01
   7166.00  4.4509475E-01
   7166.33  4.3912398E-01
   7166.67  4.3343732E-01
   7167.00  4.2805923E-01
   7167.33  4.2305136E-01
   7167.67  4.1838362E-01
   7168.00  4.1405912E-01
   7168.33  4.1011687E-01
   7168.67  4.0650478E-01
   7169.00  4.0321096E-01
   7169.33  4.0025560E-01
   7169.67  3.9758019E-01
   7170.00  3.9516479E-01
   7170.33  3.9301569E-01
   7170.67  3.9108283E-01
   7171.00  3.8935330E-01
   7171.33  3.8784619E-01
   7171.67  3.8654986E-01
   7172.00  3.8549405E-01
