    FDMNES
    energy     <xanes>
   7097.00  5.2209010E-03
   7097.33  5.3515938E-03
   7097.67  5.4885652E-03
   7098.00  5.6322590E-03
   7098.33  5.7841593E-03
   7098.67  5.9439939E-03
   7099.00  6.1123717E-03
   7099.33  6.2912521E-03
   7099.67  6.4803612E-03
   7100.00  6.6805575E-03
   7100.33  6.8944950E-03
   7100.67  7.1219314E-03
   7101.00  7.3641137E-03
   7101.33  7.6247487E-03
   7101.67  7.9036970E-03
   7102.00  8.2028374E-03
   7102.33  8.5275384E-03
   7102.67  8.8779217E-03
   7103.00  9.2569427E-03
   7103.33  9.6727292E-03
   7103.67  1.0126020E-02
   7104.00  1.0621718E-02
   7104.33  1.1172825E-02
   7104.67  1.1781542E-02
   7105.00  1.2456569E-02
   7105.33  1.3220215E-02
   7105.67  1.4078323E-02
   7106.00  1.5047734E-02
   7106.33  1.6170465E-02
   7106.67  1.7462271E-02
   7107.00  1.8959874E-02
   7107.33  2.0753409E-02
   7107.67  2.2889806E-02
   7108.00  2.5464268E-02
   7108.33  2.8711773E-02
   7108.67  3.2803068E-02
   7109.00  3.8062542E-02
   7109.33  4.5333855E-02
   7109.67  5.5509075E-02
   7110.00  7.0323552E-02
   7110.33  9.4703340E-02
   7110.67  1.3395191E-01
   7111.00  1.9090259E-01
   7111.33  2.5836219E-01
   7111.67  3.2411404E-01
   7112.00  3.7834810E-01
   7112.33  4.2753217E-01
   7112.67  4.7650944E-01
   7113.00  5.1365649E-01
   7113.33  5.1936646E-01
   7113.67  4.8917997E-01
   7114.00  4.4556147E-01
   7114.33  4.0414521E-01
   7114.67  3.5654983E-01
   7115.00  3.0773034E-01
   7115.33  2.7285517E-01
   7115.67  2.5266688E-01
   7116.00  2.4172714E-01
   7116.33  2.3154015E-01
   7116.67  2.1773393E-01
   7117.00  2.0156576E-01
   7117.33  1.8591602E-01
   7117.67  1.7221379E-01
   7118.00  1.6069618E-01
   7118.33  1.5125970E-01
   7118.67  1.4319193E-01
   7119.00  1.3625172E-01
   7119.33  1.3053011E-01
   7119.67  1.2589296E-01
   7120.00  1.2224334E-01
   7120.33  1.1939520E-01
   7120.67  1.1685177E-01
   7121.00  1.1440025E-01
   7121.33  1.1238032E-01
   7121.67  1.1132835E-01
   7122.00  1.1139695E-01
   7122.33  1.1240161E-01
   7122.67  1.1391860E-01
   7123.00  1.1584472E-01
   7123.33  1.1826306E-01
   7123.67  1.2120808E-01
   7124.00  1.2478017E-01
   7124.33  1.2928093E-01
   7124.67  1.3493473E-01
   7125.00  1.4207157E-01
   7125.33  1.5127712E-01
   7125.67  1.6263352E-01
   7126.00  1.7642561E-01
   7126.33  1.9354021E-01
   7126.67  2.1453466E-01
   7127.00  2.4053361E-01
   7127.33  2.7331007E-01
   7127.67  3.1145355E-01
   7128.00  3.5251942E-01
   7128.33  3.9308901E-01
   7128.67  4.3226322E-01
   7129.00  4.7172198E-01
   7129.33  5.1458488E-01
   7129.67  5.6165982E-01
   7130.00  6.1201769E-01
   7130.33  6.6299947E-01
   7130.67  7.1139575E-01
   7131.00  7.5528843E-01
   7131.33  7.9334846E-01
   7131.67  8.2665367E-01
   7132.00  8.5547029E-01
   7132.33  8.7868355E-01
   7132.67  8.9599564E-01
   7133.00  9.0693357E-01
   7133.33  9.1087584E-01
   7133.67  9.0929500E-01
   7134.00  9.0286397E-01
   7134.33  8.9145419E-01
   7134.67  8.7549728E-01
   7135.00  8.5472506E-01
   7135.33  8.2853259E-01
   7135.67  7.9807526E-01
   7136.00  7.6425269E-01
   7136.33  7.2823260E-01
   7136.67  6.9188311E-01
   7137.00  6.5662318E-01
   7137.33  6.2431509E-01
   7137.67  5.9591204E-01
   7138.00  5.7222560E-01
   7138.33  5.5444056E-01
   7138.67  5.4195067E-01
   7139.00  5.3444427E-01
   7139.33  5.3178583E-01
   7139.67  5.3257769E-01
   7140.00  5.3605255E-01
   7140.33  5.4161352E-01
   7140.67  5.4832401E-01
   7141.00  5.5568995E-01
   7141.33  5.6328115E-01
   7141.67  5.7073149E-01
   7142.00  5.7782871E-01
   7142.33  5.8434494E-01
   7142.67  5.9026173E-01
   7143.00  5.9556353E-01
   7143.33  6.0021318E-01
   7143.67  6.0436045E-01
   7144.00  6.0809188E-01
   7144.33  6.1147920E-01
   7144.67  6.1466652E-01
   7145.00  6.1773239E-01
   7145.33  6.2074133E-01
   7145.67  6.2374473E-01
   7146.00  6.2676004E-01
   7146.33  6.2978562E-01
   7146.67  6.3279552E-01
   7147.00  6.3575380E-01
   7147.33  6.3859204E-01
   7147.67  6.4125969E-01
   7148.00  6.4370015E-01
   7148.33  6.4580922E-01
   7148.67  6.4755666E-01
   7149.00  6.4889045E-01
   7149.33  6.4969738E-01
   7149.67  6.4998738E-01
   7150.00  6.4972502E-01
   7150.33  6.4880648E-01
   7150.67  6.4728743E-01
   7151.00  6.4516487E-01
   7151.33  6.4237633E-01
   7151.67  6.3902425E-01
   7152.00  6.3514630E-01
   7152.33  6.3074232E-01
   7152.67  6.2594253E-01
   7153.00  6.2081698E-01
   7153.33  6.1542401E-01
   7153.67  6.0988386E-01
   7154.00  6.0427311E-01
   7154.33  5.9867829E-01
   7154.67  5.9317432E-01
   7155.00  5.8781891E-01
   7155.33  5.8269588E-01
   7155.67  5.7782773E-01
   7156.00  5.7324597E-01
   7156.33  5.6901309E-01
   7156.67  5.6510126E-01
   7157.00  5.6151018E-01
   7157.33  5.5826650E-01
   7157.67  5.5530805E-01
   7158.00  5.5260659E-01
   7158.33  5.5014769E-01
   7158.67  5.4785478E-01
   7159.00  5.4567935E-01
   7159.33  5.4356604E-01
   7159.67  5.4144117E-01
   7160.00  5.3924467E-01
   7160.33  5.3688726E-01
   7160.67  5.3431645E-01
   7161.00  5.3147354E-01
   7161.33  5.2825485E-01
   7161.67  5.2465444E-01
   7162.00  5.2064637E-01
   7162.33  5.1616977E-01
   7162.67  5.1129026E-01
   7163.00  5.0603821E-01
   7163.33  5.0043103E-01
   7163.67  4.9458071E-01
   7164.00  4.8855638E-01
   7164.33  4.8242965E-01
   7164.67  4.7629143E-01
   7165.00  4.7020274E-01
   7165.33  4.6423625E-01
   7165.67  4.5842399E-01
   7166.00  4.5279560E-01
   7166.33  4.4740068E-01
   7166.67  4.4222712E-01
   7167.00  4.3728120E-01
   7167.33  4.3259232E-01
   7167.67  4.2812714E-01
   7168.00  4.2388019E-01
   7168.33  4.1987019E-01
   7168.67  4.1606022E-01
   7169.00  4.1244189E-01
   7169.33  4.0903082E-01
   7169.67  4.0579912E-01
   7170.00  4.0274443E-01
   7170.33  3.9988945E-01
   7170.67  3.9721883E-01
   7171.00  3.9474618E-01
   7171.33  3.9253083E-01
   7171.67  3.9060313E-01
   7172.00  3.8903984E-01
