    FDMNES
    energy     <xanes>
   7097.00  5.1739684E-03
   7097.33  5.2980096E-03
   7097.67  5.4277201E-03
   7098.00  5.5634823E-03
   7098.33  5.7066054E-03
   7098.67  5.8568180E-03
   7099.00  6.0146386E-03
   7099.33  6.1817737E-03
   7099.67  6.3579420E-03
   7100.00  6.5438643E-03
   7100.33  6.7418200E-03
   7100.67  6.9515401E-03
   7101.00  7.1740565E-03
   7101.33  7.4125022E-03
   7101.67  7.6666710E-03
   7102.00  7.9380913E-03
   7102.33  8.2312199E-03
   7102.67  8.5460237E-03
   7103.00  8.8848616E-03
   7103.33  9.2543424E-03
   7103.67  9.6548550E-03
   7104.00  1.0090227E-02
   7104.33  1.0570776E-02
   7104.67  1.1097896E-02
   7105.00  1.1678199E-02
   7105.33  1.2328890E-02
   7105.67  1.3053830E-02
   7106.00  1.3865419E-02
   7106.33  1.4794939E-02
   7106.67  1.5852818E-02
   7107.00  1.7065046E-02
   7107.33  1.8495822E-02
   7107.67  2.0175530E-02
   7108.00  2.2168259E-02
   7108.33  2.4632118E-02
   7108.67  2.7673327E-02
   7109.00  3.1496994E-02
   7109.33  3.6632086E-02
   7109.67  4.3606056E-02
   7110.00  5.3444332E-02
   7110.33  6.9008092E-02
   7110.67  9.3081113E-02
   7111.00  1.2632127E-01
   7111.33  1.6440727E-01
   7111.67  2.1175569E-01
   7112.00  2.7688024E-01
   7112.33  3.5253858E-01
   7112.67  4.1232433E-01
   7113.00  4.4556751E-01
   7113.33  4.6417398E-01
   7113.67  4.7763565E-01
   7114.00  4.7076162E-01
   7114.33  4.2574158E-01
   7114.67  3.6986339E-01
   7115.00  3.2567163E-01
   7115.33  3.0201007E-01
   7115.67  2.8909849E-01
   7116.00  2.7615091E-01
   7116.33  2.5661196E-01
   7116.67  2.3524996E-01
   7117.00  2.1587961E-01
   7117.33  2.0022064E-01
   7117.67  1.8766253E-01
   7118.00  1.7750687E-01
   7118.33  1.6867267E-01
   7118.67  1.6022454E-01
   7119.00  1.5223459E-01
   7119.33  1.4522187E-01
   7119.67  1.3928683E-01
   7120.00  1.3445772E-01
   7120.33  1.3095977E-01
   7120.67  1.2879532E-01
   7121.00  1.2801732E-01
   7121.33  1.2869958E-01
   7121.67  1.3069562E-01
   7122.00  1.3411159E-01
   7122.33  1.3907979E-01
   7122.67  1.4538091E-01
   7123.00  1.5314143E-01
   7123.33  1.6291634E-01
   7123.67  1.7494558E-01
   7124.00  1.8968755E-01
   7124.33  2.0803005E-01
   7124.67  2.2977248E-01
   7125.00  2.5457198E-01
   7125.33  2.8129948E-01
   7125.67  3.0764920E-01
   7126.00  3.3210960E-01
   7126.33  3.5406993E-01
   7126.67  3.7482065E-01
   7127.00  3.9534853E-01
   7127.33  4.1625953E-01
   7127.67  4.3786757E-01
   7128.00  4.6085962E-01
   7128.33  4.8661225E-01
   7128.67  5.1545561E-01
   7129.00  5.4739453E-01
   7129.33  5.8211159E-01
   7129.67  6.1795203E-01
   7130.00  6.5347986E-01
   7130.33  6.8709801E-01
   7130.67  7.1830547E-01
   7131.00  7.4704318E-01
   7131.33  7.7357840E-01
   7131.67  7.9912728E-01
   7132.00  8.2458906E-01
   7132.33  8.5077689E-01
   7132.67  8.7769931E-01
   7133.00  9.0459295E-01
   7133.33  9.2874860E-01
   7133.67  9.4638079E-01
   7134.00  9.5343645E-01
   7134.33  9.4457179E-01
   7134.67  9.2077668E-01
   7135.00  8.8394381E-01
   7135.33  8.3711225E-01
   7135.67  7.8590707E-01
   7136.00  7.3353946E-01
   7136.33  6.8291631E-01
   7136.67  6.3567581E-01
   7137.00  5.9292312E-01
   7137.33  5.5627841E-01
   7137.67  5.2571920E-01
   7138.00  5.0156668E-01
   7138.33  4.8460523E-01
   7138.67  4.7347715E-01
   7139.00  4.6724061E-01
   7139.33  4.6484975E-01
   7139.67  4.6437010E-01
   7140.00  4.6478979E-01
   7140.33  4.6547786E-01
   7140.67  4.6624985E-01
   7141.00  4.6722249E-01
   7141.33  4.6867125E-01
   7141.67  4.7071483E-01
   7142.00  4.7340456E-01
   7142.33  4.7675546E-01
   7142.67  4.8053727E-01
   7143.00  4.8457287E-01
   7143.33  4.8865955E-01
   7143.67  4.9262254E-01
   7144.00  4.9636902E-01
   7144.33  4.9982589E-01
   7144.67  5.0304590E-01
   7145.00  5.0607977E-01
   7145.33  5.0898934E-01
   7145.67  5.1186111E-01
   7146.00  5.1474297E-01
   7146.33  5.1767290E-01
   7146.67  5.2065658E-01
   7147.00  5.2369334E-01
   7147.33  5.2678210E-01
   7147.67  5.2990679E-01
   7148.00  5.3305889E-01
   7148.33  5.3623610E-01
   7148.67  5.3943883E-01
   7149.00  5.4267759E-01
   7149.33  5.4598372E-01
   7149.67  5.4938782E-01
   7150.00  5.5293262E-01
   7150.33  5.5670183E-01
   7150.67  5.6073370E-01
   7151.00  5.6507990E-01
   7151.33  5.6983461E-01
   7151.67  5.7497836E-01
   7152.00  5.8050718E-01
   7152.33  5.8642224E-01
   7152.67  5.9259544E-01
   7153.00  5.9892028E-01
   7153.33  6.0524117E-01
   7153.67  6.1138292E-01
   7154.00  6.1719113E-01
   7154.33  6.2243227E-01
   7154.67  6.2702010E-01
   7155.00  6.3085387E-01
   7155.33  6.3375912E-01
   7155.67  6.3581499E-01
   7156.00  6.3703153E-01
   7156.33  6.3734865E-01
   7156.67  6.3692775E-01
   7157.00  6.3583207E-01
   7157.33  6.3406721E-01
   7157.67  6.3178746E-01
   7158.00  6.2905534E-01
   7158.33  6.2588541E-01
   7158.67  6.2237870E-01
   7159.00  6.1857159E-01
   7159.33  6.1446325E-01
   7159.67  6.1011042E-01
   7160.00  6.0552678E-01
   7160.33  6.0069512E-01
   7160.67  5.9564860E-01
   7161.00  5.9038981E-01
   7161.33  5.8489891E-01
   7161.67  5.7921274E-01
   7162.00  5.7334245E-01
   7162.33  5.6728271E-01
   7162.67  5.6108250E-01
   7163.00  5.5477319E-01
   7163.33  5.4838506E-01
   7163.67  5.4196675E-01
   7164.00  5.3555135E-01
   7164.33  5.2917761E-01
   7164.67  5.2286779E-01
   7165.00  5.1663931E-01
   7165.33  5.1051814E-01
   7165.67  5.0450009E-01
   7166.00  4.9858839E-01
   7166.33  4.9279910E-01
   7166.67  4.8712101E-01
   7167.00  4.8155682E-01
   7167.33  4.7612725E-01
   7167.67  4.7082805E-01
   7168.00  4.6567207E-01
   7168.33  4.6069481E-01
   7168.67  4.5589200E-01
   7169.00  4.5127687E-01
   7169.33  4.4688892E-01
   7169.67  4.4271780E-01
   7170.00  4.3877595E-01
   7170.33  4.3510784E-01
   7170.67  4.3169943E-01
   7171.00  4.2857026E-01
   7171.33  4.2579699E-01
   7171.67  4.2340746E-01
   7172.00  4.2148704E-01
