    FDMNES
    energy     <xanes>
   7097.00  4.7017494E-03
   7097.33  4.8112008E-03
   7097.67  4.9257391E-03
   7098.00  5.0457254E-03
   7098.33  5.1723664E-03
   7098.67  5.3054464E-03
   7099.00  5.4454655E-03
   7099.33  5.5940260E-03
   7099.67  5.7509183E-03
   7100.00  5.9168556E-03
   7100.33  6.0940277E-03
   7100.67  6.2822642E-03
   7101.00  6.4826176E-03
   7101.33  6.6981839E-03
   7101.67  6.9289057E-03
   7102.00  7.1763988E-03
   7102.33  7.4452247E-03
   7102.67  7.7356010E-03
   7103.00  8.0501323E-03
   7103.33  8.3958831E-03
   7103.67  8.7737212E-03
   7104.00  9.1881013E-03
   7104.33  9.6506685E-03
   7104.67  1.0163857E-02
   7105.00  1.0735879E-02
   7105.33  1.1387522E-02
   7105.67  1.2125233E-02
   7106.00  1.2965703E-02
   7106.33  1.3950165E-02
   7106.67  1.5096469E-02
   7107.00  1.6443345E-02
   7107.33  1.8085468E-02
   7107.67  2.0078714E-02
   7108.00  2.2531831E-02
   7108.33  2.5714662E-02
   7108.67  2.9845904E-02
   7109.00  3.5335464E-02
   7109.33  4.3268848E-02
   7109.67  5.4900050E-02
   7110.00  7.2688602E-02
   7110.33  1.0378049E-01
   7110.67  1.5628777E-01
   7111.00  2.3354922E-01
   7111.33  3.0780510E-01
   7111.67  3.4193479E-01
   7112.00  3.4453047E-01
   7112.33  3.3801001E-01
   7112.67  3.1595428E-01
   7113.00  2.8723012E-01
   7113.33  2.6765743E-01
   7113.67  2.4770416E-01
   7114.00  2.1679698E-01
   7114.33  1.8051917E-01
   7114.67  1.5369254E-01
   7115.00  1.3902716E-01
   7115.33  1.2822856E-01
   7115.67  1.1366028E-01
   7116.00  9.8557990E-02
   7116.33  8.8518001E-02
   7116.67  8.3820247E-02
   7117.00  8.3725872E-02
   7117.33  8.7447156E-02
   7117.67  9.2741610E-02
   7118.00  9.7782611E-02
   7118.33  1.0122735E-01
   7118.67  1.0336099E-01
   7119.00  1.0457823E-01
   7119.33  1.0509170E-01
   7119.67  1.0530571E-01
   7120.00  1.0586198E-01
   7120.33  1.0771618E-01
   7120.67  1.1110047E-01
   7121.00  1.1641499E-01
   7121.33  1.2499535E-01
   7121.67  1.3750952E-01
   7122.00  1.5438605E-01
   7122.33  1.7530709E-01
   7122.67  1.9750789E-01
   7123.00  2.1875438E-01
   7123.33  2.3758787E-01
   7123.67  2.5408484E-01
   7124.00  2.6707314E-01
   7124.33  2.7455176E-01
   7124.67  2.8022434E-01
   7125.00  2.8913970E-01
   7125.33  3.0464844E-01
   7125.67  3.2402451E-01
   7126.00  3.4400430E-01
   7126.33  3.6123954E-01
   7126.67  3.7490251E-01
   7127.00  3.8526565E-01
   7127.33  3.9279922E-01
   7127.67  3.9849952E-01
   7128.00  4.0287185E-01
   7128.33  4.0648081E-01
   7128.67  4.1008844E-01
   7129.00  4.1419244E-01
   7129.33  4.1954081E-01
   7129.67  4.2692536E-01
   7130.00  4.3726597E-01
   7130.33  4.5152118E-01
   7130.67  4.6860711E-01
   7131.00  4.8701383E-01
   7131.33  5.0459250E-01
   7131.67  5.2033581E-01
   7132.00  5.3455137E-01
   7132.33  5.4863675E-01
   7132.67  5.6450881E-01
   7133.00  5.8383371E-01
   7133.33  6.0859097E-01
   7133.67  6.3801654E-01
   7134.00  6.7044396E-01
   7134.33  7.0299069E-01
   7134.67  7.3294569E-01
   7135.00  7.5852672E-01
   7135.33  7.7719481E-01
   7135.67  7.8808734E-01
   7136.00  7.9031087E-01
   7136.33  7.8316297E-01
   7136.67  7.6971338E-01
   7137.00  7.5257089E-01
   7137.33  7.3479336E-01
   7137.67  7.1893244E-01
   7138.00  7.0631868E-01
   7138.33  6.9808236E-01
   7138.67  6.9364722E-01
   7139.00  6.9257759E-01
   7139.33  6.9447949E-01
   7139.67  6.9816554E-01
   7140.00  7.0282782E-01
   7140.33  7.0747030E-01
   7140.67  7.1109175E-01
   7141.00  7.1288574E-01
   7141.33  7.1176273E-01
   7141.67  7.0760579E-01
   7142.00  7.0039344E-01
   7142.33  6.9023775E-01
   7142.67  6.7832280E-01
   7143.00  6.6555458E-01
   7143.33  6.5296419E-01
   7143.67  6.4131404E-01
   7144.00  6.3103945E-01
   7144.33  6.2260733E-01
   7144.67  6.1588117E-01
   7145.00  6.1082019E-01
   7145.33  6.0750783E-01
   7145.67  6.0560970E-01
   7146.00  6.0500127E-01
   7146.33  6.0568310E-01
   7146.67  6.0737059E-01
   7147.00  6.0994376E-01
   7147.33  6.1335653E-01
   7147.67  6.1737426E-01
   7148.00  6.2187489E-01
   7148.33  6.2675169E-01
   7148.67  6.3180887E-01
   7149.00  6.3692046E-01
   7149.33  6.4194709E-01
   7149.67  6.4678895E-01
   7150.00  6.5136706E-01
   7150.33  6.5555671E-01
   7150.67  6.5932150E-01
   7151.00  6.6258587E-01
   7151.33  6.6516069E-01
   7151.67  6.6698459E-01
   7152.00  6.6792943E-01
   7152.33  6.6770581E-01
   7152.67  6.6628750E-01
   7153.00  6.6355948E-01
   7153.33  6.5925372E-01
   7153.67  6.5351659E-01
   7154.00  6.4638431E-01
   7154.33  6.3781148E-01
   7154.67  6.2814544E-01
   7155.00  6.1759207E-01
   7155.33  6.0633611E-01
   7155.67  5.9471531E-01
   7156.00  5.8293523E-01
   7156.33  5.7121038E-01
   7156.67  5.5970556E-01
   7157.00  5.4853825E-01
   7157.33  5.3787055E-01
   7157.67  5.2772674E-01
   7158.00  5.1815739E-01
   7158.33  5.0927878E-01
   7158.67  5.0103583E-01
   7159.00  4.9343645E-01
   7159.33  4.8656125E-01
   7159.67  4.8032188E-01
   7160.00  4.7470712E-01
   7160.33  4.6977791E-01
   7160.67  4.6544081E-01
   7161.00  4.6167855E-01
   7161.33  4.5853511E-01
   7161.67  4.5590664E-01
   7162.00  4.5375318E-01
   7162.33  4.5206942E-01
   7162.67  4.5073317E-01
   7163.00  4.4967514E-01
   7163.33  4.4882970E-01
   7163.67  4.4807987E-01
   7164.00  4.4734846E-01
   7164.33  4.4654827E-01
   7164.67  4.4562482E-01
   7165.00  4.4454287E-01
   7165.33  4.4326212E-01
   7165.67  4.4180972E-01
   7166.00  4.4020632E-01
   7166.33  4.3847569E-01
   7166.67  4.3668164E-01
   7167.00  4.3487213E-01
   7167.33  4.3309733E-01
   7167.67  4.3138592E-01
   7168.00  4.2975627E-01
   7168.33  4.2823137E-01
   7168.67  4.2680234E-01
   7169.00  4.2546663E-01
   7169.33  4.2422947E-01
   7169.67  4.2307472E-01
   7170.00  4.2200040E-01
   7170.33  4.2101807E-01
   7170.67  4.2012208E-01
   7171.00  4.1931836E-01
   7171.33  4.1862825E-01
   7171.67  4.1804909E-01
   7172.00  4.1758826E-01
