    FDMNES
    energy     <xanes>
   7097.00  5.0124029E-03
   7097.33  5.1296171E-03
   7097.67  5.2521543E-03
   7098.00  5.3803768E-03
   7098.33  5.5155200E-03
   7098.67  5.6573346E-03
   7099.00  5.8063149E-03
   7099.33  5.9640782E-03
   7099.67  6.1303702E-03
   7100.00  6.3058831E-03
   7100.33  6.4927902E-03
   7100.67  6.6908570E-03
   7101.00  6.9010837E-03
   7101.33  7.1264816E-03
   7101.67  7.3668919E-03
   7102.00  7.6238137E-03
   7102.33  7.9015769E-03
   7102.67  8.2002221E-03
   7103.00  8.5220978E-03
   7103.33  8.8737183E-03
   7103.67  9.2556049E-03
   7104.00  9.6716445E-03
   7104.33  1.0132208E-02
   7104.67  1.0638972E-02
   7105.00  1.1198833E-02
   7105.33  1.1829548E-02
   7105.67  1.2535708E-02
   7106.00  1.3330711E-02
   7106.33  1.4248080E-02
   7106.67  1.5300462E-02
   7107.00  1.6517368E-02
   7107.33  1.7971405E-02
   7107.67  1.9701169E-02
   7108.00  2.1784759E-02
   7108.33  2.4415766E-02
   7108.67  2.7739580E-02
   7109.00  3.2032579E-02
   7109.33  3.8020910E-02
   7109.67  4.6504222E-02
   7110.00  5.9049986E-02
   7110.33  8.0161859E-02
   7110.67  1.1470705E-01
   7111.00  1.6424991E-01
   7111.33  2.1399409E-01
   7111.67  2.4889268E-01
   7112.00  2.7142687E-01
   7112.33  2.8701609E-01
   7112.67  2.9972146E-01
   7113.00  3.1824347E-01
   7113.33  3.4891362E-01
   7113.67  3.8671455E-01
   7114.00  4.2045773E-01
   7114.33  4.2246258E-01
   7114.67  3.8680014E-01
   7115.00  3.2959374E-01
   7115.33  2.7657053E-01
   7115.67  2.3753326E-01
   7116.00  2.1094709E-01
   7116.33  1.9187117E-01
   7116.67  1.7364957E-01
   7117.00  1.5439372E-01
   7117.33  1.3673850E-01
   7117.67  1.2340814E-01
   7118.00  1.1488681E-01
   7118.33  1.1070424E-01
   7118.67  1.0917869E-01
   7119.00  1.0941254E-01
   7119.33  1.0992581E-01
   7119.67  1.0945908E-01
   7120.00  1.0868089E-01
   7120.33  1.0902233E-01
   7120.67  1.1075458E-01
   7121.00  1.1393031E-01
   7121.33  1.1861894E-01
   7121.67  1.2475911E-01
   7122.00  1.3280150E-01
   7122.33  1.4348306E-01
   7122.67  1.5653911E-01
   7123.00  1.7170791E-01
   7123.33  1.8895116E-01
   7123.67  2.0804066E-01
   7124.00  2.2884608E-01
   7124.33  2.5030504E-01
   7124.67  2.6978706E-01
   7125.00  2.8492010E-01
   7125.33  2.9451736E-01
   7125.67  3.0157886E-01
   7126.00  3.0897576E-01
   7126.33  3.1968802E-01
   7126.67  3.3485573E-01
   7127.00  3.5494315E-01
   7127.33  3.8014598E-01
   7127.67  4.0871017E-01
   7128.00  4.3917651E-01
   7128.33  4.6907585E-01
   7128.67  4.9529422E-01
   7129.00  5.1619624E-01
   7129.33  5.3328262E-01
   7129.67  5.5152561E-01
   7130.00  5.7396787E-01
   7130.33  6.0237697E-01
   7130.67  6.3513487E-01
   7131.00  6.7029844E-01
   7131.33  7.0464003E-01
   7131.67  7.3532316E-01
   7132.00  7.6136970E-01
   7132.33  7.8347971E-01
   7132.67  8.0425085E-01
   7133.00  8.2477294E-01
   7133.33  8.4415261E-01
   7133.67  8.6009161E-01
   7134.00  8.7074446E-01
   7134.33  8.7484892E-01
   7134.67  8.7344315E-01
   7135.00  8.6626983E-01
   7135.33  8.5203817E-01
   7135.67  8.3242412E-01
   7136.00  8.0967495E-01
   7136.33  7.8699255E-01
   7136.67  7.6670430E-01
   7137.00  7.4954341E-01
   7137.33  7.3543239E-01
   7137.67  7.2295397E-01
   7138.00  7.1122425E-01
   7138.33  6.9971908E-01
   7138.67  6.8848570E-01
   7139.00  6.7795563E-01
   7139.33  6.6894736E-01
   7139.67  6.6182891E-01
   7140.00  6.5683312E-01
   7140.33  6.5416258E-01
   7140.67  6.5318798E-01
   7141.00  6.5341420E-01
   7141.33  6.5422890E-01
   7141.67  6.5490197E-01
   7142.00  6.5496008E-01
   7142.33  6.5388511E-01
   7142.67  6.5155402E-01
   7143.00  6.4781651E-01
   7143.33  6.4233816E-01
   7143.67  6.3522178E-01
   7144.00  6.2646602E-01
   7144.33  6.1600765E-01
   7144.67  6.0430729E-01
   7145.00  5.9169307E-01
   7145.33  5.7854793E-01
   7145.67  5.6537615E-01
   7146.00  5.5252011E-01
   7146.33  5.4037785E-01
   7146.67  5.2908993E-01
   7147.00  5.1876877E-01
   7147.33  5.0958709E-01
   7147.67  5.0137827E-01
   7148.00  4.9407065E-01
   7148.33  4.8768096E-01
   7148.67  4.8202797E-01
   7149.00  4.7704983E-01
   7149.33  4.7275679E-01
   7149.67  4.6901424E-01
   7150.00  4.6578263E-01
   7150.33  4.6308545E-01
   7150.67  4.6083920E-01
   7151.00  4.5903427E-01
   7151.33  4.5772770E-01
   7151.67  4.5687635E-01
   7152.00  4.5649319E-01
   7152.33  4.5664670E-01
   7152.67  4.5727061E-01
   7153.00  4.5834198E-01
   7153.33  4.5986264E-01
   7153.67  4.6171465E-01
   7154.00  4.6382942E-01
   7154.33  4.6614786E-01
   7154.67  4.6857369E-01
   7155.00  4.7105718E-01
   7155.33  4.7356036E-01
   7155.67  4.7605330E-01
   7156.00  4.7851603E-01
   7156.33  4.8091649E-01
   7156.67  4.8322834E-01
   7157.00  4.8541487E-01
   7157.33  4.8740449E-01
   7157.67  4.8916763E-01
   7158.00  4.9066403E-01
   7158.33  4.9181946E-01
   7158.67  4.9265117E-01
   7159.00  4.9315599E-01
   7159.33  4.9330811E-01
   7159.67  4.9317594E-01
   7160.00  4.9279128E-01
   7160.33  4.9216365E-01
   7160.67  4.9135966E-01
   7161.00  4.9041368E-01
   7161.33  4.8934396E-01
   7161.67  4.8818322E-01
   7162.00  4.8693644E-01
   7162.33  4.8558949E-01
   7162.67  4.8414195E-01
   7163.00  4.8258357E-01
   7163.33  4.8090300E-01
   7163.67  4.7913133E-01
   7164.00  4.7729362E-01
   7164.33  4.7542312E-01
   7164.67  4.7356176E-01
   7165.00  4.7173944E-01
   7165.33  4.6999262E-01
   7165.67  4.6833197E-01
   7166.00  4.6676754E-01
   7166.33  4.6531928E-01
   7166.67  4.6397808E-01
   7167.00  4.6274547E-01
   7167.33  4.6164105E-01
   7167.67  4.6065826E-01
   7168.00  4.5979640E-01
   7168.33  4.5906125E-01
   7168.67  4.5842635E-01
   7169.00  4.5787979E-01
   7169.33  4.5741704E-01
   7169.67  4.5701639E-01
   7170.00  4.5666910E-01
   7170.33  4.5637370E-01
   7170.67  4.5612118E-01
   7171.00  4.5591148E-01
   7171.33  4.5575092E-01
   7171.67  4.5563160E-01
   7172.00  4.5554440E-01
