    FDMNES
    energy     <xanes>
   7097.00  5.1261405E-03
   7097.33  5.2515269E-03
   7097.67  5.3828841E-03
   7098.00  5.5206394E-03
   7098.33  5.6662148E-03
   7098.67  5.8193613E-03
   7099.00  5.9806713E-03
   7099.33  6.1520357E-03
   7099.67  6.3332136E-03
   7100.00  6.5250506E-03
   7100.33  6.7301349E-03
   7100.67  6.9482735E-03
   7101.00  7.1807156E-03
   7101.33  7.4311271E-03
   7101.67  7.6994513E-03
   7102.00  7.9876093E-03
   7102.33  8.3010124E-03
   7102.67  8.6399362E-03
   7103.00  9.0074833E-03
   7103.33  9.4120543E-03
   7103.67  9.8547102E-03
   7104.00  1.0340772E-02
   7104.33  1.0884128E-02
   7104.67  1.1487735E-02
   7105.00  1.2161439E-02
   7105.33  1.2930126E-02
   7105.67  1.3801629E-02
   7106.00  1.4796049E-02
   7106.33  1.5963001E-02
   7106.67  1.7324237E-02
   7107.00  1.8926683E-02
   7107.33  2.0885022E-02
   7107.67  2.3267715E-02
   7108.00  2.6207573E-02
   7108.33  3.0034427E-02
   7108.67  3.5018401E-02
   7109.00  4.1665536E-02
   7109.33  5.1319248E-02
   7109.67  6.5546632E-02
   7110.00  8.7425249E-02
   7110.33  1.2588882E-01
   7110.67  1.9074202E-01
   7111.00  2.8409580E-01
   7111.33  3.6847957E-01
   7111.67  4.0979849E-01
   7112.00  4.1833301E-01
   7112.33  4.1123220E-01
   7112.67  3.8450501E-01
   7113.00  3.3613226E-01
   7113.33  2.7627183E-01
   7113.67  2.2125986E-01
   7114.00  1.7981290E-01
   7114.33  1.5534971E-01
   7114.67  1.4355416E-01
   7115.00  1.4130684E-01
   7115.33  1.4256116E-01
   7115.67  1.4024883E-01
   7116.00  1.3399105E-01
   7116.33  1.2717270E-01
   7116.67  1.2188959E-01
   7117.00  1.1838488E-01
   7117.33  1.1674342E-01
   7117.67  1.1688219E-01
   7118.00  1.1915359E-01
   7118.33  1.2417935E-01
   7118.67  1.3147907E-01
   7119.00  1.4071491E-01
   7119.33  1.5213323E-01
   7119.67  1.6482968E-01
   7120.00  1.7609697E-01
   7120.33  1.8223748E-01
   7120.67  1.8541556E-01
   7121.00  1.8928985E-01
   7121.33  1.9723336E-01
   7121.67  2.0985733E-01
   7122.00  2.2719819E-01
   7122.33  2.4904490E-01
   7122.67  2.7325540E-01
   7123.00  2.9756519E-01
   7123.33  3.1836090E-01
   7123.67  3.3358456E-01
   7124.00  3.4300319E-01
   7124.33  3.4826644E-01
   7124.67  3.5317682E-01
   7125.00  3.6039994E-01
   7125.33  3.7269969E-01
   7125.67  3.9070739E-01
   7126.00  4.1482391E-01
   7126.33  4.4566238E-01
   7126.67  4.8157206E-01
   7127.00  5.2097413E-01
   7127.33  5.6106072E-01
   7127.67  5.9809717E-01
   7128.00  6.2848171E-01
   7128.33  6.4594430E-01
   7128.67  6.4812879E-01
   7129.00  6.3555834E-01
   7129.33  6.1326399E-01
   7129.67  5.9013048E-01
   7130.00  5.7064868E-01
   7130.33  5.5752222E-01
   7130.67  5.5001884E-01
   7131.00  5.4760493E-01
   7131.33  5.5033946E-01
   7131.67  5.5749752E-01
   7132.00  5.6917611E-01
   7132.33  5.8587353E-01
   7132.67  6.0599322E-01
   7133.00  6.2743903E-01
   7133.33  6.4704622E-01
   7133.67  6.6344978E-01
   7134.00  6.7689997E-01
   7134.33  6.8798167E-01
   7134.67  6.9721166E-01
   7135.00  7.0421189E-01
   7135.33  7.0790154E-01
   7135.67  7.0810630E-01
   7136.00  7.0475312E-01
   7136.33  6.9794107E-01
   7136.67  6.8905448E-01
   7137.00  6.7917785E-01
   7137.33  6.6961298E-01
   7137.67  6.6138622E-01
   7138.00  6.5514247E-01
   7138.33  6.5158979E-01
   7138.67  6.5053017E-01
   7139.00  6.5186692E-01
   7139.33  6.5559316E-01
   7139.67  6.6104787E-01
   7140.00  6.6783046E-01
   7140.33  6.7554859E-01
   7140.67  6.8360728E-01
   7141.00  6.9161144E-01
   7141.33  6.9908942E-01
   7141.67  7.0574494E-01
   7142.00  7.1132174E-01
   7142.33  7.1541322E-01
   7142.67  7.1800778E-01
   7143.00  7.1901000E-01
   7143.33  7.1817416E-01
   7143.67  7.1573709E-01
   7144.00  7.1177964E-01
   7144.33  7.0627266E-01
   7144.67  6.9956301E-01
   7145.00  6.9179845E-01
   7145.33  6.8302378E-01
   7145.67  6.7351086E-01
   7146.00  6.6340195E-01
   7146.33  6.5280621E-01
   7146.67  6.4193115E-01
   7147.00  6.3089671E-01
   7147.33  6.1982179E-01
   7147.67  6.0881855E-01
   7148.00  5.9796761E-01
   7148.33  5.8737237E-01
   7148.67  5.7706236E-01
   7149.00  5.6707585E-01
   7149.33  5.5748716E-01
   7149.67  5.4827027E-01
   7150.00  5.3943358E-01
   7150.33  5.3102828E-01
   7150.67  5.2300619E-01
   7151.00  5.1536645E-01
   7151.33  5.0815695E-01
   7151.67  5.0133421E-01
   7152.00  4.9490707E-01
   7152.33  4.8894472E-01
   7152.67  4.8342345E-01
   7153.00  4.7837496E-01
   7153.33  4.7390588E-01
   7153.67  4.6999604E-01
   7154.00  4.6668121E-01
   7154.33  4.6407165E-01
   7154.67  4.6210113E-01
   7155.00  4.6075663E-01
   7155.33  4.6006031E-01
   7155.67  4.5985075E-01
   7156.00  4.6002245E-01
   7156.33  4.6045823E-01
   7156.67  4.6097310E-01
   7157.00  4.6144073E-01
   7157.33  4.6171598E-01
   7157.67  4.6173100E-01
   7158.00  4.6143822E-01
   7158.33  4.6076894E-01
   7158.67  4.5976240E-01
   7159.00  4.5842974E-01
   7159.33  4.5675321E-01
   7159.67  4.5479348E-01
   7160.00  4.5256724E-01
   7160.33  4.5005650E-01
   7160.67  4.4729777E-01
   7161.00  4.4429417E-01
   7161.33  4.4102471E-01
   7161.67  4.3753383E-01
   7162.00  4.3384201E-01
   7162.33  4.2995692E-01
   7162.67  4.2593838E-01
   7163.00  4.2183030E-01
   7163.33  4.1769271E-01
   7163.67  4.1360252E-01
   7164.00  4.0962936E-01
   7164.33  4.0588391E-01
   7164.67  4.0242554E-01
   7165.00  3.9932180E-01
   7165.33  3.9669377E-01
   7165.67  3.9454146E-01
   7166.00  3.9289520E-01
   7166.33  3.9183564E-01
   7166.67  3.9129075E-01
   7167.00  3.9123718E-01
   7167.33  3.9168463E-01
   7167.67  3.9251426E-01
   7168.00  3.9366186E-01
   7168.33  3.9507729E-01
   7168.67  3.9664771E-01
   7169.00  3.9830202E-01
   7169.33  3.9996821E-01
   7169.67  4.0158427E-01
   7170.00  4.0310872E-01
   7170.33  4.0449082E-01
   7170.67  4.0572570E-01
   7171.00  4.0680517E-01
   7171.33  4.0770629E-01
   7171.67  4.0844396E-01
   7172.00  4.0900679E-01
