    FDMNES
    energy     <xanes>
   7097.00  4.3629865E-03
   7097.33  4.4537365E-03
   7097.67  4.5481897E-03
   7098.00  4.6465848E-03
   7098.33  4.7497607E-03
   7098.67  4.8575291E-03
   7099.00  4.9702162E-03
   7099.33  5.0889137E-03
   7099.67  5.2134313E-03
   7100.00  5.3442282E-03
   7100.33  5.4827677E-03
   7100.67  5.6288778E-03
   7101.00  5.7832280E-03
   7101.33  5.9478510E-03
   7101.67  6.1226378E-03
   7102.00  6.3086071E-03
   7102.33  6.5087075E-03
   7102.67  6.7229936E-03
   7103.00  6.9530981E-03
   7103.33  7.2035309E-03
   7103.67  7.4747467E-03
   7104.00  7.7695316E-03
   7104.33  8.0952600E-03
   7104.67  8.4533703E-03
   7105.00  8.8490118E-03
   7105.33  9.2953154E-03
   7105.67  9.7962881E-03
   7106.00  1.0362482E-02
   7106.33  1.1020074E-02
   7106.67  1.1780522E-02
   7107.00  1.2668709E-02
   7107.33  1.3745669E-02
   7107.67  1.5048408E-02
   7108.00  1.6648787E-02
   7108.33  1.8726213E-02
   7108.67  2.1431815E-02
   7109.00  2.5049798E-02
   7109.33  3.0343442E-02
   7109.67  3.8236531E-02
   7110.00  5.0556295E-02
   7110.33  7.2566040E-02
   7110.67  1.0900008E-01
   7111.00  1.5600514E-01
   7111.33  1.8640259E-01
   7111.67  1.9223126E-01
   7112.00  1.8781614E-01
   7112.33  1.9457297E-01
   7112.67  2.0319472E-01
   7113.00  1.9202429E-01
   7113.33  1.5862363E-01
   7113.67  1.2781382E-01
   7114.00  1.0860712E-01
   7114.33  1.0043972E-01
   7114.67  9.4282589E-02
   7115.00  8.1621068E-02
   7115.33  6.4489590E-02
   7115.67  5.2080333E-02
   7116.00  4.4692139E-02
   7116.33  4.0850027E-02
   7116.67  3.8900942E-02
   7117.00  3.8249644E-02
   7117.33  3.8553888E-02
   7117.67  3.9356556E-02
   7118.00  4.0435213E-02
   7118.33  4.1749086E-02
   7118.67  4.3425658E-02
   7119.00  4.5668040E-02
   7119.33  4.8778389E-02
   7119.67  5.2849973E-02
   7120.00  5.8103927E-02
   7120.33  6.5159048E-02
   7120.67  7.4482249E-02
   7121.00  8.6872131E-02
   7121.33  1.0395689E-01
   7121.67  1.2611762E-01
   7122.00  1.5341427E-01
   7122.33  1.8498403E-01
   7122.67  2.1746301E-01
   7123.00  2.4760016E-01
   7123.33  2.7203744E-01
   7123.67  2.9246820E-01
   7124.00  3.1265612E-01
   7124.33  3.3788116E-01
   7124.67  3.7019863E-01
   7125.00  4.0933647E-01
   7125.33  4.5214395E-01
   7125.67  4.9161428E-01
   7126.00  5.2127825E-01
   7126.33  5.3512376E-01
   7126.67  5.3782439E-01
   7127.00  5.3585925E-01
   7127.33  5.3650752E-01
   7127.67  5.4401358E-01
   7128.00  5.6071195E-01
   7128.33  5.8877553E-01
   7128.67  6.2605697E-01
   7129.00  6.7082632E-01
   7129.33  7.2043826E-01
   7129.67  7.7018095E-01
   7130.00  8.1694305E-01
   7130.33  8.5804613E-01
   7130.67  8.9316348E-01
   7131.00  9.2178514E-01
   7131.33  9.4262994E-01
   7131.67  9.5636875E-01
   7132.00  9.6302736E-01
   7132.33  9.6191575E-01
   7132.67  9.5437509E-01
   7133.00  9.4120862E-01
   7133.33  9.2306039E-01
   7133.67  9.0174073E-01
   7134.00  8.7869239E-01
   7134.33  8.5658915E-01
   7134.67  8.3754125E-01
   7135.00  8.2136599E-01
   7135.33  8.0581922E-01
   7135.67  7.8883171E-01
   7136.00  7.6999681E-01
   7136.33  7.4968987E-01
   7136.67  7.2890173E-01
   7137.00  7.0824425E-01
   7137.33  6.8830940E-01
   7137.67  6.6934103E-01
   7138.00  6.5150666E-01
   7138.33  6.3506558E-01
   7138.67  6.1990099E-01
   7139.00  6.0601199E-01
   7139.33  5.9352762E-01
   7139.67  5.8225271E-01
   7140.00  5.7216642E-01
   7140.33  5.6342014E-01
   7140.67  5.5589198E-01
   7141.00  5.4961565E-01
   7141.33  5.4478816E-01
   7141.67  5.4126652E-01
   7142.00  5.3904675E-01
   7142.33  5.3826022E-01
   7142.67  5.3867982E-01
   7143.00  5.4021757E-01
   7143.33  5.4287646E-01
   7143.67  5.4639766E-01
   7144.00  5.5065736E-01
   7144.33  5.5556910E-01
   7144.67  5.6087393E-01
   7145.00  5.6637692E-01
   7145.33  5.7178542E-01
   7145.67  5.7676573E-01
   7146.00  5.8099601E-01
   7146.33  5.8400483E-01
   7146.67  5.8566105E-01
   7147.00  5.8579031E-01
   7147.33  5.8407280E-01
   7147.67  5.8069587E-01
   7148.00  5.7571601E-01
   7148.33  5.6908720E-01
   7148.67  5.6118633E-01
   7149.00  5.5220583E-01
   7149.33  5.4227095E-01
   7149.67  5.3170534E-01
   7150.00  5.2067207E-01
   7150.33  5.0928778E-01
   7150.67  4.9770904E-01
   7151.00  4.8600922E-01
   7151.33  4.7424165E-01
   7151.67  4.6245957E-01
   7152.00  4.5069683E-01
   7152.33  4.3899587E-01
   7152.67  4.2737969E-01
   7153.00  4.1587185E-01
   7153.33  4.0451731E-01
   7153.67  3.9333053E-01
   7154.00  3.8234459E-01
   7154.33  3.7162982E-01
   7154.67  3.6119125E-01
   7155.00  3.5105592E-01
   7155.33  3.4129533E-01
   7155.67  3.3189662E-01
   7156.00  3.2288472E-01
   7156.33  3.1434223E-01
   7156.67  3.0625088E-01
   7157.00  2.9864328E-01
   7157.33  2.9162683E-01
   7157.67  2.8518217E-01
   7158.00  2.7935315E-01
   7158.33  2.7427821E-01
   7158.67  2.6993110E-01
   7159.00  2.6636224E-01
   7159.33  2.6373344E-01
   7159.67  2.6199241E-01
   7160.00  2.6117579E-01
   7160.33  2.6143425E-01
   7160.67  2.6266694E-01
   7161.00  2.6487940E-01
   7161.33  2.6818655E-01
   7161.67  2.7243802E-01
   7162.00  2.7758675E-01
   7162.33  2.8367254E-01
   7162.67  2.9051443E-01
   7163.00  2.9802388E-01
   7163.33  3.0614063E-01
   7163.67  3.1465843E-01
   7164.00  3.2344270E-01
   7164.33  3.3234430E-01
   7164.67  3.4120368E-01
   7165.00  3.4990670E-01
   7165.33  3.5830211E-01
   7165.67  3.6632991E-01
   7166.00  3.7393141E-01
   7166.33  3.8100510E-01
   7166.67  3.8759047E-01
   7167.00  3.9368697E-01
   7167.33  3.9925036E-01
   7167.67  4.0436749E-01
   7168.00  4.0906880E-01
   7168.33  4.1334805E-01
   7168.67  4.1729546E-01
   7169.00  4.2094853E-01
   7169.33  4.2431821E-01
   7169.67  4.2747457E-01
   7170.00  4.3044586E-01
   7170.33  4.3323759E-01
   7170.67  4.3588403E-01
   7171.00  4.3838406E-01
   7171.33  4.4068828E-01
   7171.67  4.4274234E-01
   7172.00  4.4443453E-01
