    FDMNES
    energy     <xanes>
   7097.00  4.7437901E-03
   7097.33  4.8555852E-03
   7097.67  4.9724494E-03
   7098.00  5.0947275E-03
   7098.33  5.2235959E-03
   7098.67  5.3588176E-03
   7099.00  5.5008632E-03
   7099.33  5.6512740E-03
   7099.67  5.8098086E-03
   7100.00  5.9771278E-03
   7100.33  6.1553042E-03
   7100.67  6.3441175E-03
   7101.00  6.5445242E-03
   7101.33  6.7594012E-03
   7101.67  6.9886043E-03
   7102.00  7.2335713E-03
   7102.33  7.4984498E-03
   7102.67  7.7832941E-03
   7103.00  8.0903669E-03
   7103.33  8.4259313E-03
   7103.67  8.7905213E-03
   7104.00  9.1879032E-03
   7104.33  9.6281012E-03
   7104.67  1.0112808E-02
   7105.00  1.0648757E-02
   7105.33  1.1253242E-02
   7105.67  1.1930900E-02
   7106.00  1.2694945E-02
   7106.33  1.3578383E-02
   7106.67  1.4594075E-02
   7107.00  1.5771550E-02
   7107.33  1.7183416E-02
   7107.67  1.8869480E-02
   7108.00  2.0909524E-02
   7108.33  2.3501780E-02
   7108.67  2.6799895E-02
   7109.00  3.1095487E-02
   7109.33  3.7161031E-02
   7109.67  4.5876034E-02
   7110.00  5.8972301E-02
   7110.33  8.1408359E-02
   7110.67  1.1789512E-01
   7111.00  1.6666795E-01
   7111.33  2.0656761E-01
   7111.67  2.3132355E-01
   7112.00  2.5219233E-01
   7112.33  2.7995964E-01
   7112.67  3.0937504E-01
   7113.00  3.3820958E-01
   7113.33  3.6484048E-01
   7113.67  3.7677970E-01
   7114.00  3.6001130E-01
   7114.33  3.1289342E-01
   7114.67  2.5976095E-01
   7115.00  2.1518123E-01
   7115.33  1.8498532E-01
   7115.67  1.6501859E-01
   7116.00  1.5231873E-01
   7116.33  1.4466372E-01
   7116.67  1.3967261E-01
   7117.00  1.3656008E-01
   7117.33  1.3507958E-01
   7117.67  1.3460818E-01
   7118.00  1.3470080E-01
   7118.33  1.3506348E-01
   7118.67  1.3564715E-01
   7119.00  1.3652663E-01
   7119.33  1.3805960E-01
   7119.67  1.4047465E-01
   7120.00  1.4356143E-01
   7120.33  1.4685580E-01
   7120.67  1.5033882E-01
   7121.00  1.5457285E-01
   7121.33  1.6087411E-01
   7121.67  1.7003306E-01
   7122.00  1.8246913E-01
   7122.33  1.9851713E-01
   7122.67  2.1715228E-01
   7123.00  2.3764609E-01
   7123.33  2.5973609E-01
   7123.67  2.8324899E-01
   7124.00  3.0797282E-01
   7124.33  3.3294109E-01
   7124.67  3.5656105E-01
   7125.00  3.7758051E-01
   7125.33  3.9507695E-01
   7125.67  4.1014839E-01
   7126.00  4.2354574E-01
   7126.33  4.3467018E-01
   7126.67  4.4247980E-01
   7127.00  4.4685309E-01
   7127.33  4.4956471E-01
   7127.67  4.5289504E-01
   7128.00  4.5708558E-01
   7128.33  4.6086356E-01
   7128.67  4.6323071E-01
   7129.00  4.6474408E-01
   7129.33  4.6790695E-01
   7129.67  4.7493172E-01
   7130.00  4.8669413E-01
   7130.33  5.0300247E-01
   7130.67  5.2096950E-01
   7131.00  5.3759898E-01
   7131.33  5.4923358E-01
   7131.67  5.5575241E-01
   7132.00  5.5886649E-01
   7132.33  5.6153033E-01
   7132.67  5.6613418E-01
   7133.00  5.7384305E-01
   7133.33  5.8588044E-01
   7133.67  6.0153294E-01
   7134.00  6.1905470E-01
   7134.33  6.3430746E-01
   7134.67  6.4370802E-01
   7135.00  6.4581075E-01
   7135.33  6.4050493E-01
   7135.67  6.3073111E-01
   7136.00  6.1848967E-01
   7136.33  6.0569697E-01
   7136.67  5.9388310E-01
   7137.00  5.8387858E-01
   7137.33  5.7638674E-01
   7137.67  5.7101872E-01
   7138.00  5.6741070E-01
   7138.33  5.6524254E-01
   7138.67  5.6402474E-01
   7139.00  5.6366980E-01
   7139.33  5.6439467E-01
   7139.67  5.6628434E-01
   7140.00  5.6950330E-01
   7140.33  5.7432164E-01
   7140.67  5.8051688E-01
   7141.00  5.8794914E-01
   7141.33  5.9649831E-01
   7141.67  6.0576191E-01
   7142.00  6.1549785E-01
   7142.33  6.2544289E-01
   7142.67  6.3526763E-01
   7143.00  6.4468973E-01
   7143.33  6.5329045E-01
   7143.67  6.6088665E-01
   7144.00  6.6732570E-01
   7144.33  6.7239528E-01
   7144.67  6.7630044E-01
   7145.00  6.7915315E-01
   7145.33  6.8102379E-01
   7145.67  6.8222686E-01
   7146.00  6.8293872E-01
   7146.33  6.8330511E-01
   7146.67  6.8351187E-01
   7147.00  6.8365596E-01
   7147.33  6.8383166E-01
   7147.67  6.8411839E-01
   7148.00  6.8458428E-01
   7148.33  6.8531545E-01
   7148.67  6.8629997E-01
   7149.00  6.8752799E-01
   7149.33  6.8899758E-01
   7149.67  6.9061306E-01
   7150.00  6.9228849E-01
   7150.33  6.9390484E-01
   7150.67  6.9534256E-01
   7151.00  6.9648182E-01
   7151.33  6.9712126E-01
   7151.67  6.9718107E-01
   7152.00  6.9657110E-01
   7152.33  6.9514195E-01
   7152.67  6.9298009E-01
   7153.00  6.9011814E-01
   7153.33  6.8653805E-01
   7153.67  6.8238465E-01
   7154.00  6.7770470E-01
   7154.33  6.7247461E-01
   7154.67  6.6677524E-01
   7155.00  6.6061281E-01
   7155.33  6.5393020E-01
   7155.67  6.4678636E-01
   7156.00  6.3918723E-01
   7156.33  6.3109188E-01
   7156.67  6.2257872E-01
   7157.00  6.1367654E-01
   7157.33  6.0438315E-01
   7157.67  5.9478884E-01
   7158.00  5.8493679E-01
   7158.33  5.7485446E-01
   7158.67  5.6462684E-01
   7159.00  5.5430859E-01
   7159.33  5.4395866E-01
   7159.67  5.3363943E-01
   7160.00  5.2339854E-01
   7160.33  5.1330791E-01
   7160.67  5.0340602E-01
   7161.00  4.9373800E-01
   7161.33  4.8438689E-01
   7161.67  4.7536192E-01
   7162.00  4.6669740E-01
   7162.33  4.5847476E-01
   7162.67  4.5066720E-01
   7163.00  4.4328381E-01
   7163.33  4.3637415E-01
   7163.67  4.2986801E-01
   7164.00  4.2373930E-01
   7164.33  4.1798917E-01
   7164.67  4.1252925E-01
   7165.00  4.0731975E-01
   7165.33  4.0234473E-01
   7165.67  3.9754518E-01
   7166.00  3.9290153E-01
   7166.33  3.8842083E-01
   7166.67  3.8408744E-01
   7167.00  3.7991266E-01
   7167.33  3.7593774E-01
   7167.67  3.7216450E-01
   7168.00  3.6861802E-01
   7168.33  3.6535956E-01
   7168.67  3.6238213E-01
   7169.00  3.5970284E-01
   7169.33  3.5737537E-01
   7169.67  3.5536903E-01
   7170.00  3.5368566E-01
   7170.33  3.5236026E-01
   7170.67  3.5134010E-01
   7171.00  3.5060575E-01
   7171.33  3.5015023E-01
   7171.67  3.4987693E-01
   7172.00  3.4970034E-01
