    FDMNES
    energy     <xanes>
   7097.00  4.1893665E-03
   7097.33  4.2755914E-03
   7097.67  4.3652452E-03
   7098.00  4.4585413E-03
   7098.33  4.5562430E-03
   7098.67  4.6581645E-03
   7099.00  4.7645939E-03
   7099.33  4.8765137E-03
   7099.67  4.9937316E-03
   7100.00  5.1166471E-03
   7100.33  5.2465601E-03
   7100.67  5.3832857E-03
   7101.00  5.5273973E-03
   7101.33  5.6806717E-03
   7101.67  5.8429638E-03
   7102.00  6.0151295E-03
   7102.33  6.1996967E-03
   7102.67  6.3966325E-03
   7103.00  6.6072780E-03
   7103.33  6.8354102E-03
   7103.67  7.0812762E-03
   7104.00  7.3471046E-03
   7104.33  7.6388977E-03
   7104.67  7.9575897E-03
   7105.00  8.3071693E-03
   7105.33  8.6979572E-03
   7105.67  9.1326494E-03
   7106.00  9.6191052E-03
   7106.33  1.0177021E-02
   7106.67  1.0814042E-02
   7107.00  1.1547811E-02
   7107.33  1.2421757E-02
   7107.67  1.3459732E-02
   7108.00  1.4709517E-02
   7108.33  1.6289760E-02
   7108.67  1.8292206E-02
   7109.00  2.0890582E-02
   7109.33  2.4543469E-02
   7109.67  2.9767582E-02
   7110.00  3.7576149E-02
   7110.33  5.0858938E-02
   7110.67  7.2397194E-02
   7111.00  1.0165486E-01
   7111.33  1.2887181E-01
   7111.67  1.5041360E-01
   7112.00  1.7127489E-01
   7112.33  2.0184480E-01
   7112.67  2.3174933E-01
   7113.00  2.2762640E-01
   7113.33  1.8494033E-01
   7113.67  1.4408059E-01
   7114.00  1.1332495E-01
   7114.33  9.0955315E-02
   7114.67  7.5743670E-02
   7115.00  6.6483309E-02
   7115.33  6.1253713E-02
   7115.67  5.7878519E-02
   7116.00  5.5639639E-02
   7116.33  5.4660180E-02
   7116.67  5.5028706E-02
   7117.00  5.6756460E-02
   7117.33  5.9888840E-02
   7117.67  6.4162700E-02
   7118.00  6.9509478E-02
   7118.33  7.6038460E-02
   7118.67  8.3706545E-02
   7119.00  9.2617580E-02
   7119.33  1.0294993E-01
   7119.67  1.1445184E-01
   7120.00  1.2699051E-01
   7120.33  1.4049356E-01
   7120.67  1.5467557E-01
   7121.00  1.6940289E-01
   7121.33  1.8460617E-01
   7121.67  2.0013231E-01
   7122.00  2.1591373E-01
   7122.33  2.3208234E-01
   7122.67  2.4909107E-01
   7123.00  2.6759934E-01
   7123.33  2.8846525E-01
   7123.67  3.1145713E-01
   7124.00  3.3577827E-01
   7124.33  3.5882634E-01
   7124.67  3.7825473E-01
   7125.00  3.9455226E-01
   7125.33  4.1133078E-01
   7125.67  4.3128499E-01
   7126.00  4.5402327E-01
   7126.33  4.7809067E-01
   7126.67  5.0169734E-01
   7127.00  5.2297716E-01
   7127.33  5.3912635E-01
   7127.67  5.4926661E-01
   7128.00  5.5287445E-01
   7128.33  5.4926389E-01
   7128.67  5.4060537E-01
   7129.00  5.2929140E-01
   7129.33  5.1833503E-01
   7129.67  5.0929698E-01
   7130.00  5.0236094E-01
   7130.33  4.9750518E-01
   7130.67  4.9460011E-01
   7131.00  4.9430045E-01
   7131.33  4.9823578E-01
   7131.67  5.0690730E-01
   7132.00  5.2065409E-01
   7132.33  5.3990683E-01
   7132.67  5.6341159E-01
   7133.00  5.9026845E-01
   7133.33  6.1915823E-01
   7133.67  6.4794144E-01
   7134.00  6.7532065E-01
   7134.33  7.0097835E-01
   7134.67  7.2661360E-01
   7135.00  7.5404614E-01
   7135.33  7.8410260E-01
   7135.67  8.1387198E-01
   7136.00  8.3962973E-01
   7136.33  8.5667436E-01
   7136.67  8.6414391E-01
   7137.00  8.6205076E-01
   7137.33  8.5068948E-01
   7137.67  8.3314167E-01
   7138.00  8.1129523E-01
   7138.33  7.8686688E-01
   7138.67  7.6174703E-01
   7139.00  7.3693751E-01
   7139.33  7.1338983E-01
   7139.67  6.9150409E-01
   7140.00  6.7158614E-01
   7140.33  6.5413149E-01
   7140.67  6.3898330E-01
   7141.00  6.2618016E-01
   7141.33  6.1599956E-01
   7141.67  6.0807978E-01
   7142.00  6.0231771E-01
   7142.33  5.9879157E-01
   7142.67  5.9703053E-01
   7143.00  5.9680560E-01
   7143.33  5.9796603E-01
   7143.67  6.0002559E-01
   7144.00  6.0269165E-01
   7144.33  6.0567060E-01
   7144.67  6.0863686E-01
   7145.00  6.1138804E-01
   7145.33  6.1370950E-01
   7145.67  6.1556003E-01
   7146.00  6.1691456E-01
   7146.33  6.1772299E-01
   7146.67  6.1808417E-01
   7147.00  6.1804666E-01
   7147.33  6.1765182E-01
   7147.67  6.1704201E-01
   7148.00  6.1631644E-01
   7148.33  6.1560074E-01
   7148.67  6.1501919E-01
   7149.00  6.1466747E-01
   7149.33  6.1467427E-01
   7149.67  6.1505415E-01
   7150.00  6.1581048E-01
   7150.33  6.1692234E-01
   7150.67  6.1821576E-01
   7151.00  6.1952368E-01
   7151.33  6.2057478E-01
   7151.67  6.2112053E-01
   7152.00  6.2093603E-01
   7152.33  6.1969507E-01
   7152.67  6.1737182E-01
   7153.00  6.1389217E-01
   7153.33  6.0906848E-01
   7153.67  6.0306026E-01
   7154.00  5.9590820E-01
   7154.33  5.8755160E-01
   7154.67  5.7821520E-01
   7155.00  5.6798522E-01
   7155.33  5.5686874E-01
   7155.67  5.4507300E-01
   7156.00  5.3269164E-01
   7156.33  5.1977029E-01
   7156.67  5.0647058E-01
   7157.00  4.9287727E-01
   7157.33  4.7906096E-01
   7157.67  4.6513972E-01
   7158.00  4.5119411E-01
   7158.33  4.3733173E-01
   7158.67  4.2365401E-01
   7159.00  4.1027052E-01
   7159.33  3.9738174E-01
   7159.67  3.8509421E-01
   7160.00  3.7355260E-01
   7160.33  3.6303213E-01
   7160.67  3.5355889E-01
   7161.00  3.4522406E-01
   7161.33  3.3824051E-01
   7161.67  3.3247184E-01
   7162.00  3.2789515E-01
   7162.33  3.2458808E-01
   7162.67  3.2230606E-01
   7163.00  3.2094891E-01
   7163.33  3.2050625E-01
   7163.67  3.2076317E-01
   7164.00  3.2162186E-01
   7164.33  3.2303322E-01
   7164.67  3.2483282E-01
   7165.00  3.2694089E-01
   7165.33  3.2930494E-01
   7165.67  3.3182798E-01
   7166.00  3.3446037E-01
   7166.33  3.3716134E-01
   7166.67  3.3988317E-01
   7167.00  3.4259745E-01
   7167.33  3.4527511E-01
   7167.67  3.4790423E-01
   7168.00  3.5047753E-01
   7168.33  3.5298581E-01
   7168.67  3.5543987E-01
   7169.00  3.5784604E-01
   7169.33  3.6020998E-01
   7169.67  3.6254870E-01
   7170.00  3.6487318E-01
   7170.33  3.6719379E-01
   7170.67  3.6951398E-01
   7171.00  3.7182263E-01
   7171.33  3.7406544E-01
   7171.67  3.7613337E-01
   7172.00  3.7785518E-01
