    FDMNES
    energy     <xanes>
   7097.00  4.3863807E-03
   7097.33  4.4803655E-03
   7097.67  4.5782446E-03
   7098.00  4.6802687E-03
   7098.33  4.7873187E-03
   7098.67  4.8991953E-03
   7099.00  5.0162393E-03
   7099.33  5.1395944E-03
   7099.67  5.2690568E-03
   7100.00  5.4051038E-03
   7100.33  5.5492626E-03
   7100.67  5.7013439E-03
   7101.00  5.8620391E-03
   7101.33  6.0334574E-03
   7101.67  6.2154671E-03
   7102.00  6.4091110E-03
   7102.33  6.6174251E-03
   7102.67  6.8404306E-03
   7103.00  7.0797801E-03
   7103.33  7.3400702E-03
   7103.67  7.6216964E-03
   7104.00  7.9274411E-03
   7104.33  8.2647177E-03
   7104.67  8.6348379E-03
   7105.00  9.0428549E-03
   7105.33  9.5017326E-03
   7105.67  1.0015139E-02
   7106.00  1.0593197E-02
   7106.33  1.1261128E-02
   7106.67  1.2029277E-02
   7107.00  1.2920802E-02
   7107.33  1.3992543E-02
   7107.67  1.5276979E-02
   7108.00  1.6838197E-02
   7108.33  1.8835378E-02
   7108.67  2.1395201E-02
   7109.00  2.4756393E-02
   7109.33  2.9551502E-02
   7109.67  3.6507526E-02
   7110.00  4.7049235E-02
   7110.33  6.5205028E-02
   7110.67  9.4385194E-02
   7111.00  1.3201084E-01
   7111.33  1.6782999E-01
   7111.67  2.0959613E-01
   7112.00  2.5648943E-01
   7112.33  2.7700650E-01
   7112.67  2.4940879E-01
   7113.00  1.9667469E-01
   7113.33  1.5180741E-01
   7113.67  1.1974876E-01
   7114.00  9.7398164E-02
   7114.33  8.2933382E-02
   7114.67  7.3398433E-02
   7115.00  6.7268450E-02
   7115.33  6.3551655E-02
   7115.67  6.1127665E-02
   7116.00  5.9583848E-02
   7116.33  5.9016681E-02
   7116.67  5.9467778E-02
   7117.00  6.0927277E-02
   7117.33  6.3420893E-02
   7117.67  6.6756128E-02
   7118.00  7.0886649E-02
   7118.33  7.5923297E-02
   7118.67  8.1895830E-02
   7119.00  8.8988711E-02
   7119.33  9.7687197E-02
   7119.67  1.0824648E-01
   7120.00  1.2107072E-01
   7120.33  1.3690195E-01
   7120.67  1.5567593E-01
   7121.00  1.7745906E-01
   7121.33  2.0242612E-01
   7121.67  2.2977785E-01
   7122.00  2.5905496E-01
   7122.33  2.9006635E-01
   7122.67  3.2250541E-01
   7123.00  3.5649013E-01
   7123.33  3.9249089E-01
   7123.67  4.2953305E-01
   7124.00  4.6462936E-01
   7124.33  4.9126652E-01
   7124.67  5.0746688E-01
   7125.00  5.1565387E-01
   7125.33  5.2079270E-01
   7125.67  5.2578091E-01
   7126.00  5.2990201E-01
   7126.33  5.3165141E-01
   7126.67  5.3210034E-01
   7127.00  5.3329770E-01
   7127.33  5.3697043E-01
   7127.67  5.4243449E-01
   7128.00  5.4865977E-01
   7128.33  5.5450526E-01
   7128.67  5.5933315E-01
   7129.00  5.6283530E-01
   7129.33  5.6452571E-01
   7129.67  5.6443708E-01
   7130.00  5.6288982E-01
   7130.33  5.6097067E-01
   7130.67  5.6021668E-01
   7131.00  5.6181718E-01
   7131.33  5.6726222E-01
   7131.67  5.7665387E-01
   7132.00  5.8993588E-01
   7132.33  6.0692776E-01
   7132.67  6.2611993E-01
   7133.00  6.4614742E-01
   7133.33  6.6505512E-01
   7133.67  6.8174606E-01
   7134.00  6.9632607E-01
   7134.33  7.1042286E-01
   7134.67  7.2676504E-01
   7135.00  7.4681684E-01
   7135.33  7.6945953E-01
   7135.67  7.8990538E-01
   7136.00  8.0388513E-01
   7136.33  8.0717095E-01
   7136.67  8.0068138E-01
   7137.00  7.8587170E-01
   7137.33  7.6459875E-01
   7137.67  7.4019870E-01
   7138.00  7.1454843E-01
   7138.33  6.8930881E-01
   7138.67  6.6547543E-01
   7139.00  6.4356096E-01
   7139.33  6.2412448E-01
   7139.67  6.0697320E-01
   7140.00  5.9208454E-01
   7140.33  5.7963649E-01
   7140.67  5.6922264E-01
   7141.00  5.6071020E-01
   7141.33  5.5415358E-01
   7141.67  5.4917265E-01
   7142.00  5.4563278E-01
   7142.33  5.4354649E-01
   7142.67  5.4261167E-01
   7143.00  5.4271193E-01
   7143.33  5.4382243E-01
   7143.67  5.4568439E-01
   7144.00  5.4815752E-01
   7144.33  5.5111167E-01
   7144.67  5.5429957E-01
   7145.00  5.5755942E-01
   7145.33  5.6071227E-01
   7145.67  5.6364674E-01
   7146.00  5.6630602E-01
   7146.33  5.6863803E-01
   7146.67  5.7070264E-01
   7147.00  5.7254274E-01
   7147.33  5.7420393E-01
   7147.67  5.7577642E-01
   7148.00  5.7731703E-01
   7148.33  5.7888543E-01
   7148.67  5.8051982E-01
   7149.00  5.8223971E-01
   7149.33  5.8405790E-01
   7149.67  5.8594002E-01
   7150.00  5.8783586E-01
   7150.33  5.8963120E-01
   7150.67  5.9121861E-01
   7151.00  5.9248620E-01
   7151.33  5.9322142E-01
   7151.67  5.9332165E-01
   7152.00  5.9265348E-01
   7152.33  5.9096851E-01
   7152.67  5.8827533E-01
   7153.00  5.8451394E-01
   7153.33  5.7951437E-01
   7153.67  5.7342386E-01
   7154.00  5.6628837E-01
   7154.33  5.5808885E-01
   7154.67  5.4906483E-01
   7155.00  5.3932725E-01
   7155.33  5.2894172E-01
   7155.67  5.1811993E-01
   7156.00  5.0697652E-01
   7156.33  4.9560602E-01
   7156.67  4.8413584E-01
   7157.00  4.7264074E-01
   7157.33  4.6120219E-01
   7157.67  4.4988215E-01
   7158.00  4.3873884E-01
   7158.33  4.2787594E-01
   7158.67  4.1734393E-01
   7159.00  4.0722093E-01
   7159.33  3.9766645E-01
   7159.67  3.8871266E-01
   7160.00  3.8043463E-01
   7160.33  3.7299857E-01
   7160.67  3.6636351E-01
   7161.00  3.6055781E-01
   7161.33  3.5570103E-01
   7161.67  3.5168209E-01
   7162.00  3.4847873E-01
   7162.33  3.4613372E-01
   7162.67  3.4447857E-01
   7163.00  3.4344847E-01
   7163.33  3.4303073E-01
   7163.67  3.4306957E-01
   7164.00  3.4348722E-01
   7164.33  3.4423164E-01
   7164.67  3.4518554E-01
   7165.00  3.4628845E-01
   7165.33  3.4749517E-01
   7165.67  3.4875309E-01
   7166.00  3.5003935E-01
   7166.33  3.5134265E-01
   7166.67  3.5265944E-01
   7167.00  3.5399481E-01
   7167.33  3.5536382E-01
   7167.67  3.5677786E-01
   7168.00  3.5825156E-01
   7168.33  3.5981259E-01
   7168.67  3.6146960E-01
   7169.00  3.6323810E-01
   7169.33  3.6515112E-01
   7169.67  3.6720643E-01
   7170.00  3.6941132E-01
   7170.33  3.7178452E-01
   7170.67  3.7429104E-01
   7171.00  3.7689398E-01
   7171.33  3.7950468E-01
   7171.67  3.8194778E-01
   7172.00  3.8399166E-01
