    FDMNES
    energy     <xanes>
   7097.00  5.2274988E-03
   7097.33  5.3547453E-03
   7097.67  5.4878947E-03
   7098.00  5.6273497E-03
   7098.33  5.7744815E-03
   7098.67  5.9290139E-03
   7099.00  6.0914943E-03
   7099.33  6.2637150E-03
   7099.67  6.4453907E-03
   7100.00  6.6372845E-03
   7100.33  6.8417968E-03
   7100.67  7.0586577E-03
   7101.00  7.2889619E-03
   7101.33  7.5360180E-03
   7101.67  7.7996256E-03
   7102.00  8.0814096E-03
   7102.33  8.3860891E-03
   7102.67  8.7136523E-03
   7103.00  9.0666114E-03
   7103.33  9.4519819E-03
   7103.67  9.8702078E-03
   7104.00  1.0325372E-02
   7104.33  1.0828453E-02
   7104.67  1.1380976E-02
   7105.00  1.1990007E-02
   7105.33  1.2673891E-02
   7105.67  1.3436811E-02
   7106.00  1.4292039E-02
   7106.33  1.5273026E-02
   7106.67  1.6391044E-02
   7107.00  1.7674023E-02
   7107.33  1.9190947E-02
   7107.67  2.0974913E-02
   7108.00  2.3095514E-02
   7108.33  2.5724920E-02
   7108.67  2.8981795E-02
   7109.00  3.3095792E-02
   7109.33  3.8666199E-02
   7109.67  4.6319784E-02
   7110.00  5.7287460E-02
   7110.33  7.4992217E-02
   7110.67  1.0202430E-01
   7111.00  1.3513683E-01
   7111.33  1.6236246E-01
   7111.67  1.9477908E-01
   7112.00  2.4861249E-01
   7112.33  3.3363746E-01
   7112.67  4.4090365E-01
   7113.00  5.5981050E-01
   7113.33  6.4969830E-01
   7113.67  6.5375686E-01
   7114.00  5.6416458E-01
   7114.33  4.4368586E-01
   7114.67  3.4790195E-01
   7115.00  2.8378079E-01
   7115.33  2.4797667E-01
   7115.67  2.3061778E-01
   7116.00  2.2648970E-01
   7116.33  2.2791101E-01
   7116.67  2.2590194E-01
   7117.00  2.1776925E-01
   7117.33  2.0390366E-01
   7117.67  1.8780021E-01
   7118.00  1.7242536E-01
   7118.33  1.6011141E-01
   7118.67  1.5053397E-01
   7119.00  1.4299892E-01
   7119.33  1.3697722E-01
   7119.67  1.3206288E-01
   7120.00  1.2828225E-01
   7120.33  1.2580029E-01
   7120.67  1.2449682E-01
   7121.00  1.2432841E-01
   7121.33  1.2499549E-01
   7121.67  1.2599644E-01
   7122.00  1.2744295E-01
   7122.33  1.2978964E-01
   7122.67  1.3301318E-01
   7123.00  1.3693065E-01
   7123.33  1.4128498E-01
   7123.67  1.4599761E-01
   7124.00  1.5143209E-01
   7124.33  1.5833522E-01
   7124.67  1.6702471E-01
   7125.00  1.7780271E-01
   7125.33  1.9117419E-01
   7125.67  2.0686709E-01
   7126.00  2.2476890E-01
   7126.33  2.4510800E-01
   7126.67  2.6777630E-01
   7127.00  2.9283612E-01
   7127.33  3.2012657E-01
   7127.67  3.4845564E-01
   7128.00  3.7708340E-01
   7128.33  4.0632510E-01
   7128.67  4.3781968E-01
   7129.00  4.7322584E-01
   7129.33  5.1370834E-01
   7129.67  5.5772985E-01
   7130.00  6.0426406E-01
   7130.33  6.5396404E-01
   7130.67  7.0833725E-01
   7131.00  7.6844656E-01
   7131.33  8.3358702E-01
   7131.67  8.9934888E-01
   7132.00  9.6146852E-01
   7132.33  1.0142832E+00
   7132.67  1.0552727E+00
   7133.00  1.0822057E+00
   7133.33  1.0914091E+00
   7133.67  1.0846140E+00
   7134.00  1.0631496E+00
   7134.33  1.0284529E+00
   7134.67  9.8532847E-01
   7135.00  9.3641884E-01
   7135.33  8.8404306E-01
   7135.67  8.3089077E-01
   7136.00  7.7855518E-01
   7136.33  7.2866628E-01
   7136.67  6.8185615E-01
   7137.00  6.3866126E-01
   7137.33  6.0007229E-01
   7137.67  5.6597691E-01
   7138.00  5.3666385E-01
   7138.33  5.1298295E-01
   7138.67  4.9433586E-01
   7139.00  4.8054946E-01
   7139.33  4.7176307E-01
   7139.67  4.6683586E-01
   7140.00  4.6519922E-01
   7140.33  4.6653061E-01
   7140.67  4.6993192E-01
   7141.00  4.7501475E-01
   7141.33  4.8161283E-01
   7141.67  4.8932421E-01
   7142.00  4.9799644E-01
   7142.33  5.0756549E-01
   7142.67  5.1774906E-01
   7143.00  5.2836263E-01
   7143.33  5.3919031E-01
   7143.67  5.4996529E-01
   7144.00  5.6049726E-01
   7144.33  5.7054892E-01
   7144.67  5.8002980E-01
   7145.00  5.8883707E-01
   7145.33  5.9676011E-01
   7145.67  6.0378039E-01
   7146.00  6.0978649E-01
   7146.33  6.1449029E-01
   7146.67  6.1789170E-01
   7147.00  6.1988436E-01
   7147.33  6.2020192E-01
   7147.67  6.1901509E-01
   7148.00  6.1637396E-01
   7148.33  6.1225164E-01
   7148.67  6.0703115E-01
   7149.00  6.0094146E-01
   7149.33  5.9419375E-01
   7149.67  5.8714872E-01
   7150.00  5.8004776E-01
   7150.33  5.7317049E-01
   7150.67  5.6670090E-01
   7151.00  5.6078410E-01
   7151.33  5.5563846E-01
   7151.67  5.5127593E-01
   7152.00  5.4775481E-01
   7152.33  5.4522555E-01
   7152.67  5.4359035E-01
   7153.00  5.4283779E-01
   7153.33  5.4303302E-01
   7153.67  5.4400210E-01
   7154.00  5.4566540E-01
   7154.33  5.4798281E-01
   7154.67  5.5075362E-01
   7155.00  5.5386184E-01
   7155.33  5.5719793E-01
   7155.67  5.6060909E-01
   7156.00  5.6399655E-01
   7156.33  5.6724664E-01
   7156.67  5.7029591E-01
   7157.00  5.7309219E-01
   7157.33  5.7555381E-01
   7157.67  5.7768754E-01
   7158.00  5.7947538E-01
   7158.33  5.8085674E-01
   7158.67  5.8186364E-01
   7159.00  5.8248431E-01
   7159.33  5.8265109E-01
   7159.67  5.8239252E-01
   7160.00  5.8168750E-01
   7160.33  5.8044960E-01
   7160.67  5.7870983E-01
   7161.00  5.7644646E-01
   7161.33  5.7356935E-01
   7161.67  5.7012822E-01
   7162.00  5.6611761E-01
   7162.33  5.6147754E-01
   7162.67  5.5630223E-01
   7163.00  5.5062737E-01
   7163.33  5.4445791E-01
   7163.67  5.3792284E-01
   7164.00  5.3109344E-01
   7164.33  5.2403049E-01
   7164.67  5.1684590E-01
   7165.00  5.0961066E-01
   7165.33  5.0240325E-01
   7165.67  4.9528567E-01
   7166.00  4.8830526E-01
   7166.33  4.8152786E-01
   7166.67  4.7496119E-01
   7167.00  4.6862276E-01
   7167.33  4.6255526E-01
   7167.67  4.5673481E-01
   7168.00  4.5116400E-01
   7168.33  4.4587684E-01
   7168.67  4.4084604E-01
   7169.00  4.3607648E-01
   7169.33  4.3160736E-01
   7169.67  4.2741190E-01
   7170.00  4.2349640E-01
   7170.33  4.1990280E-01
   7170.67  4.1660563E-01
   7171.00  4.1362001E-01
   7171.33  4.1101604E-01
   7171.67  4.0879995E-01
   7172.00  4.0703161E-01
