    FDMNES
    energy     <xanes>
   7097.00  5.3193800E-03
   7097.33  5.4515495E-03
   7097.67  5.5900069E-03
   7098.00  5.7351919E-03
   7098.33  5.8885832E-03
   7098.67  6.0499018E-03
   7099.00  6.2197497E-03
   7099.33  6.4000731E-03
   7099.67  6.5905889E-03
   7100.00  6.7921427E-03
   7100.33  7.0073617E-03
   7100.67  7.2359894E-03
   7101.00  7.4792490E-03
   7101.33  7.7407946E-03
   7101.67  8.0204626E-03
   7102.00  8.3200862E-03
   7102.33  8.6449302E-03
   7102.67  8.9950698E-03
   7103.00  9.3733698E-03
   7103.33  9.7877466E-03
   7103.67  1.0238840E-02
   7104.00  1.0731360E-02
   7104.33  1.1277852E-02
   7104.67  1.1880283E-02
   7105.00  1.2546899E-02
   7105.33  1.3298945E-02
   7105.67  1.4141626E-02
   7106.00  1.5090602E-02
   7106.33  1.6185076E-02
   7106.67  1.7438801E-02
   7107.00  1.8884900E-02
   7107.33  2.0604716E-02
   7107.67  2.2637577E-02
   7108.00  2.5065072E-02
   7108.33  2.8087229E-02
   7108.67  3.1836882E-02
   7109.00  3.6567801E-02
   7109.33  4.2924655E-02
   7109.67  5.1516563E-02
   7110.00  6.3507658E-02
   7110.33  8.2122463E-02
   7110.67  1.1108041E-01
   7111.00  1.5503304E-01
   7111.33  2.1968341E-01
   7111.67  3.0507500E-01
   7112.00  4.1003208E-01
   7112.33  5.2361629E-01
   7112.67  6.0936327E-01
   7113.00  6.2646575E-01
   7113.33  5.6104890E-01
   7113.67  4.6524277E-01
   7114.00  3.7606374E-01
   7114.33  3.1205139E-01
   7114.67  2.6877298E-01
   7115.00  2.4231498E-01
   7115.33  2.3060714E-01
   7115.67  2.2758665E-01
   7116.00  2.2711419E-01
   7116.33  2.2201199E-01
   7116.67  2.1182481E-01
   7117.00  1.9867766E-01
   7117.33  1.8481704E-01
   7117.67  1.7205033E-01
   7118.00  1.6119367E-01
   7118.33  1.5255614E-01
   7118.67  1.4547927E-01
   7119.00  1.3963591E-01
   7119.33  1.3503057E-01
   7119.67  1.3157236E-01
   7120.00  1.2930503E-01
   7120.33  1.2829919E-01
   7120.67  1.2808248E-01
   7121.00  1.2831880E-01
   7121.33  1.2905577E-01
   7121.67  1.3052443E-01
   7122.00  1.3286550E-01
   7122.33  1.3615590E-01
   7122.67  1.4017940E-01
   7123.00  1.4484050E-01
   7123.33  1.5021757E-01
   7123.67  1.5649078E-01
   7124.00  1.6406637E-01
   7124.33  1.7368869E-01
   7124.67  1.8559935E-01
   7125.00  2.0014802E-01
   7125.33  2.1802549E-01
   7125.67  2.3902703E-01
   7126.00  2.6309391E-01
   7126.33  2.9017586E-01
   7126.67  3.1911106E-01
   7127.00  3.4883390E-01
   7127.33  3.7810610E-01
   7127.67  4.0671746E-01
   7128.00  4.3562609E-01
   7128.33  4.6720767E-01
   7128.67  5.0297369E-01
   7129.00  5.4318927E-01
   7129.33  5.8701706E-01
   7129.67  6.3239426E-01
   7130.00  6.7861896E-01
   7130.33  7.2629825E-01
   7130.67  7.7619736E-01
   7131.00  8.2823408E-01
   7131.33  8.8038778E-01
   7131.67  9.2897836E-01
   7132.00  9.7048333E-01
   7132.33  9.9998804E-01
   7132.67  1.0163905E+00
   7133.00  1.0188431E+00
   7133.33  1.0062964E+00
   7133.67  9.8239625E-01
   7134.00  9.4935703E-01
   7134.33  9.0898792E-01
   7134.67  8.6454029E-01
   7135.00  8.1788873E-01
   7135.33  7.7084513E-01
   7135.67  7.2488302E-01
   7136.00  6.8089409E-01
   7136.33  6.3995415E-01
   7136.67  6.0225953E-01
   7137.00  5.6818288E-01
   7137.33  5.3858538E-01
   7137.67  5.1324027E-01
   7138.00  4.9227173E-01
   7138.33  4.7619908E-01
   7138.67  4.6426169E-01
   7139.00  4.5614387E-01
   7139.33  4.5180273E-01
   7139.67  4.5032463E-01
   7140.00  4.5130827E-01
   7140.33  4.5460401E-01
   7140.67  4.5962839E-01
   7141.00  4.6616078E-01
   7141.33  4.7415761E-01
   7141.67  4.8328079E-01
   7142.00  4.9338345E-01
   7142.33  5.0437692E-01
   7142.67  5.1594686E-01
   7143.00  5.2788856E-01
   7143.33  5.3996876E-01
   7143.67  5.5192656E-01
   7144.00  5.6356054E-01
   7144.33  5.7457895E-01
   7144.67  5.8483258E-01
   7145.00  5.9413373E-01
   7145.33  6.0211520E-01
   7145.67  6.0870915E-01
   7146.00  6.1375135E-01
   7146.33  6.1688831E-01
   7146.67  6.1826456E-01
   7147.00  6.1789606E-01
   7147.33  6.1569227E-01
   7147.67  6.1206626E-01
   7148.00  6.0725985E-01
   7148.33  6.0149107E-01
   7148.67  5.9519241E-01
   7149.00  5.8861417E-01
   7149.33  5.8201026E-01
   7149.67  5.7560753E-01
   7150.00  5.6956943E-01
   7150.33  5.6411553E-01
   7150.67  5.5929824E-01
   7151.00  5.5519051E-01
   7151.33  5.5194253E-01
   7151.67  5.4948334E-01
   7152.00  5.4781154E-01
   7152.33  5.4699635E-01
   7152.67  5.4689297E-01
   7153.00  5.4744207E-01
   7153.33  5.4862977E-01
   7153.67  5.5028865E-01
   7154.00  5.5233147E-01
   7154.33  5.5469249E-01
   7154.67  5.5724147E-01
   7155.00  5.5990547E-01
   7155.33  5.6261723E-01
   7155.67  5.6531278E-01
   7156.00  5.6795231E-01
   7156.33  5.7048870E-01
   7156.67  5.7290545E-01
   7157.00  5.7518036E-01
   7157.33  5.7726588E-01
   7157.67  5.7915380E-01
   7158.00  5.8081475E-01
   7158.33  5.8217600E-01
   7158.67  5.8322503E-01
   7159.00  5.8391770E-01
   7159.33  5.8414811E-01
   7159.67  5.8391429E-01
   7160.00  5.8317219E-01
   7160.33  5.8180263E-01
   7160.67  5.7983564E-01
   7161.00  5.7725312E-01
   7161.33  5.7396949E-01
   7161.67  5.7007215E-01
   7162.00  5.6559251E-01
   7162.33  5.6052175E-01
   7162.67  5.5499749E-01
   7163.00  5.4909035E-01
   7163.33  5.4285089E-01
   7163.67  5.3640406E-01
   7164.00  5.2982247E-01
   7164.33  5.2317476E-01
   7164.67  5.1653328E-01
   7165.00  5.0994514E-01
   7165.33  5.0346590E-01
   7165.67  4.9711612E-01
   7166.00  4.9091699E-01
   7166.33  4.8490584E-01
   7166.67  4.7907063E-01
   7167.00  4.7341550E-01
   7167.33  4.6796547E-01
   7167.67  4.6270041E-01
   7168.00  4.5762573E-01
   7168.33  4.5277175E-01
   7168.67  4.4811853E-01
   7169.00  4.4367027E-01
   7169.33  4.3946257E-01
   7169.67  4.3548165E-01
   7170.00  4.3174063E-01
   7170.33  4.2828803E-01
   7170.67  4.2510953E-01
   7171.00  4.2222359E-01
   7171.33  4.1970120E-01
   7171.67  4.1755273E-01
   7172.00  4.1583923E-01
