    FDMNES
    energy     <xanes>
   7097.00  4.1023133E-03
   7097.33  4.1806564E-03
   7097.67  4.2618768E-03
   7098.00  4.3461436E-03
   7098.33  4.4340816E-03
   7098.67  4.5255229E-03
   7099.00  4.6206948E-03
   7099.33  4.7203940E-03
   7099.67  4.8244464E-03
   7100.00  4.9331664E-03
   7100.33  5.0475999E-03
   7100.67  5.1675785E-03
   7101.00  5.2935536E-03
   7101.33  5.4269474E-03
   7101.67  5.5676247E-03
   7102.00  5.7162623E-03
   7102.33  5.8748808E-03
   7102.67  6.0434409E-03
   7103.00  6.2230129E-03
   7103.33  6.4166275E-03
   7103.67  6.6244893E-03
   7104.00  6.8484046E-03
   7104.33  7.0932417E-03
   7104.67  7.3598168E-03
   7105.00  7.6514376E-03
   7105.33  7.9766411E-03
   7105.67  8.3378525E-03
   7106.00  8.7417971E-03
   7106.33  9.2052772E-03
   7106.67  9.7353826E-03
   7107.00  1.0347850E-02
   7107.33  1.1081386E-02
   7107.67  1.1958944E-02
   7108.00  1.3025441E-02
   7108.33  1.4392847E-02
   7108.67  1.6153519E-02
   7109.00  1.8480943E-02
   7109.33  2.1837315E-02
   7109.67  2.6767135E-02
   7110.00  3.4340941E-02
   7110.33  4.7656780E-02
   7110.67  6.9964623E-02
   7111.00  1.0150660E-01
   7111.33  1.3126510E-01
   7111.67  1.4911761E-01
   7112.00  1.4900496E-01
   7112.33  1.2807090E-01
   7112.67  1.0328406E-01
   7113.00  8.3222998E-02
   7113.33  7.1231399E-02
   7113.67  6.5425892E-02
   7114.00  6.2176870E-02
   7114.33  5.5595773E-02
   7114.67  4.7878617E-02
   7115.00  4.2206610E-02
   7115.33  3.9394187E-02
   7115.67  3.8399749E-02
   7116.00  3.8665503E-02
   7116.33  3.9829116E-02
   7116.67  4.1526512E-02
   7117.00  4.3650757E-02
   7117.33  4.6196722E-02
   7117.67  4.9205576E-02
   7118.00  5.2854591E-02
   7118.33  5.7369017E-02
   7118.67  6.2548128E-02
   7119.00  6.8067689E-02
   7119.33  7.3296879E-02
   7119.67  7.7747026E-02
   7120.00  8.1356772E-02
   7120.33  8.4523981E-02
   7120.67  8.7999916E-02
   7121.00  9.2334950E-02
   7121.33  9.8191508E-02
   7121.67  1.0588547E-01
   7122.00  1.1602185E-01
   7122.33  1.3007059E-01
   7122.67  1.4889667E-01
   7123.00  1.7372538E-01
   7123.33  2.0688514E-01
   7123.67  2.4831223E-01
   7124.00  2.9722445E-01
   7124.33  3.4937560E-01
   7124.67  3.9610141E-01
   7125.00  4.3169075E-01
   7125.33  4.5609250E-01
   7125.67  4.7744915E-01
   7126.00  5.0066857E-01
   7126.33  5.2888695E-01
   7126.67  5.6081701E-01
   7127.00  5.9295572E-01
   7127.33  6.1853801E-01
   7127.67  6.3427311E-01
   7128.00  6.4132057E-01
   7128.33  6.4443069E-01
   7128.67  6.4832284E-01
   7129.00  6.5406616E-01
   7129.33  6.6160504E-01
   7129.67  6.7103636E-01
   7130.00  6.8373333E-01
   7130.33  7.0282235E-01
   7130.67  7.2978306E-01
   7131.00  7.6540038E-01
   7131.33  8.0933811E-01
   7131.67  8.5653472E-01
   7132.00  9.0122597E-01
   7132.33  9.3384825E-01
   7132.67  9.4841038E-01
   7133.00  9.4233838E-01
   7133.33  9.1800329E-01
   7133.67  8.8818887E-01
   7134.00  8.6176191E-01
   7134.33  8.4371062E-01
   7134.67  8.3100277E-01
   7135.00  8.2053489E-01
   7135.33  8.1025447E-01
   7135.67  7.9985013E-01
   7136.00  7.8972601E-01
   7136.33  7.8051474E-01
   7136.67  7.7243764E-01
   7137.00  7.6556560E-01
   7137.33  7.5991600E-01
   7137.67  7.5507981E-01
   7138.00  7.5074574E-01
   7138.33  7.4652287E-01
   7138.67  7.4200052E-01
   7139.00  7.3687703E-01
   7139.33  7.3077385E-01
   7139.67  7.2364193E-01
   7140.00  7.1544084E-01
   7140.33  7.0609921E-01
   7140.67  6.9588002E-01
   7141.00  6.8493070E-01
   7141.33  6.7336704E-01
   7141.67  6.6144624E-01
   7142.00  6.4933335E-01
   7142.33  6.3722166E-01
   7142.67  6.2529816E-01
   7143.00  6.1370742E-01
   7143.33  6.0263645E-01
   7143.67  5.9209631E-01
   7144.00  5.8209105E-01
   7144.33  5.7262814E-01
   7144.67  5.6355685E-01
   7145.00  5.5479482E-01
   7145.33  5.4629527E-01
   7145.67  5.3798913E-01
   7146.00  5.2987097E-01
   7146.33  5.2198202E-01
   7146.67  5.1432151E-01
   7147.00  5.0690677E-01
   7147.33  4.9977385E-01
   7147.67  4.9287201E-01
   7148.00  4.8616208E-01
   7148.33  4.7958993E-01
   7148.67  4.7305308E-01
   7149.00  4.6647093E-01
   7149.33  4.5973914E-01
   7149.67  4.5280613E-01
   7150.00  4.4563566E-01
   7150.33  4.3819065E-01
   7150.67  4.3054195E-01
   7151.00  4.2274797E-01
   7151.33  4.1488162E-01
   7151.67  4.0704513E-01
   7152.00  3.9931953E-01
   7152.33  3.9180321E-01
   7152.67  3.8452150E-01
   7153.00  3.7749535E-01
   7153.33  3.7075934E-01
   7153.67  3.6426592E-01
   7154.00  3.5799349E-01
   7154.33  3.5193671E-01
   7154.67  3.4604394E-01
   7155.00  3.4029606E-01
   7155.33  3.3469280E-01
   7155.67  3.2920767E-01
   7156.00  3.2383566E-01
   7156.33  3.1858822E-01
   7156.67  3.1345363E-01
   7157.00  3.0843915E-01
   7157.33  3.0358055E-01
   7157.67  2.9889638E-01
   7158.00  2.9443603E-01
   7158.33  2.9031914E-01
   7158.67  2.8661323E-01
   7159.00  2.8342377E-01
   7159.33  2.8096247E-01
   7159.67  2.7927653E-01
   7160.00  2.7846386E-01
   7160.33  2.7873408E-01
   7160.67  2.8001994E-01
   7161.00  2.8233487E-01
   7161.33  2.8578428E-01
   7161.67  2.9018188E-01
   7162.00  2.9545542E-01
   7162.33  3.0160473E-01
   7162.67  3.0842020E-01
   7163.00  3.1579951E-01
   7163.33  3.2366443E-01
   7163.67  3.3182312E-01
   7164.00  3.4015683E-01
   7164.33  3.4853065E-01
   7164.67  3.5680503E-01
   7165.00  3.6487384E-01
   7165.33  3.7259363E-01
   7165.67  3.7992352E-01
   7166.00  3.8681594E-01
   7166.33  3.9318094E-01
   7166.67  3.9906991E-01
   7167.00  4.0449155E-01
   7167.33  4.0941440E-01
   7167.67  4.1392779E-01
   7168.00  4.1806659E-01
   7168.33  4.2183642E-01
   7168.67  4.2532924E-01
   7169.00  4.2859131E-01
   7169.33  4.3165671E-01
   7169.67  4.3460308E-01
   7170.00  4.3747521E-01
   7170.33  4.4031271E-01
   7170.67  4.4314508E-01
   7171.00  4.4597023E-01
   7171.33  4.4872999E-01
   7171.67  4.5129320E-01
   7172.00  4.5345527E-01
