    FDMNES
    energy     <xanes>
   7097.00  4.0453554E-03
   7097.33  4.1213354E-03
   7097.67  4.2000643E-03
   7098.00  4.2817028E-03
   7098.33  4.3668456E-03
   7098.67  4.4553312E-03
   7099.00  4.5473750E-03
   7099.33  4.6437353E-03
   7099.67  4.7442447E-03
   7100.00  4.8492018E-03
   7100.33  4.9596020E-03
   7100.67  5.0752838E-03
   7101.00  5.1966770E-03
   7101.33  5.3251360E-03
   7101.67  5.4605329E-03
   7102.00  5.6035139E-03
   7102.33  5.7560075E-03
   7102.67  5.9179813E-03
   7103.00  6.0904624E-03
   7103.33  6.2763548E-03
   7103.67  6.4758696E-03
   7104.00  6.6907529E-03
   7104.33  6.9256995E-03
   7104.67  7.1815362E-03
   7105.00  7.4614925E-03
   7105.33  7.7738856E-03
   7105.67  8.1211797E-03
   7106.00  8.5100391E-03
   7106.33  8.9570859E-03
   7106.67  9.4696203E-03
   7107.00  1.0063571E-02
   7107.33  1.0778137E-02
   7107.67  1.1637520E-02
   7108.00  1.2688659E-02
   7108.33  1.4049158E-02
   7108.67  1.5820283E-02
   7109.00  1.8192481E-02
   7109.33  2.1679861E-02
   7109.67  2.6915870E-02
   7110.00  3.5156776E-02
   7110.33  5.0044173E-02
   7110.67  7.4941005E-02
   7111.00  1.0714053E-01
   7111.33  1.2538877E-01
   7111.67  1.2433085E-01
   7112.00  1.1479144E-01
   7112.33  1.0465698E-01
   7112.67  9.3766923E-02
   7113.00  8.1654548E-02
   7113.33  7.0147617E-02
   7113.67  6.1556405E-02
   7114.00  5.5919750E-02
   7114.33  5.0290975E-02
   7114.67  4.4068713E-02
   7115.00  3.9290682E-02
   7115.33  3.6889911E-02
   7115.67  3.6067618E-02
   7116.00  3.6338820E-02
   7116.33  3.7382153E-02
   7116.67  3.8886323E-02
   7117.00  4.0785060E-02
   7117.33  4.3165482E-02
   7117.67  4.6098169E-02
   7118.00  4.9696181E-02
   7118.33  5.4042274E-02
   7118.67  5.8809800E-02
   7119.00  6.3604202E-02
   7119.33  6.7852086E-02
   7119.67  7.1336160E-02
   7120.00  7.4181023E-02
   7120.33  7.6878369E-02
   7120.67  8.0070544E-02
   7121.00  8.4201467E-02
   7121.33  8.9793086E-02
   7121.67  9.7011359E-02
   7122.00  1.0629890E-01
   7122.33  1.1885097E-01
   7122.67  1.3542199E-01
   7123.00  1.5714138E-01
   7123.33  1.8639753E-01
   7123.67  2.2399923E-01
   7124.00  2.7077818E-01
   7124.33  3.2577507E-01
   7124.67  3.7986337E-01
   7125.00  4.2151116E-01
   7125.33  4.4137750E-01
   7125.67  4.5032782E-01
   7126.00  4.5841292E-01
   7126.33  4.7113776E-01
   7126.67  4.8866998E-01
   7127.00  5.1026474E-01
   7127.33  5.3364300E-01
   7127.67  5.5583508E-01
   7128.00  5.7610222E-01
   7128.33  5.9573362E-01
   7128.67  6.1663638E-01
   7129.00  6.3937084E-01
   7129.33  6.6367999E-01
   7129.67  6.8930845E-01
   7130.00  7.1733410E-01
   7130.33  7.5043953E-01
   7130.67  7.8963135E-01
   7131.00  8.3463377E-01
   7131.33  8.8275389E-01
   7131.67  9.2790934E-01
   7132.00  9.6397621E-01
   7132.33  9.8214629E-01
   7132.67  9.8022945E-01
   7133.00  9.5889469E-01
   7133.33  9.2346554E-01
   7133.67  8.8598743E-01
   7134.00  8.5378227E-01
   7134.33  8.3091915E-01
   7134.67  8.1450729E-01
   7135.00  8.0180414E-01
   7135.33  7.9084367E-01
   7135.67  7.8072264E-01
   7136.00  7.7151779E-01
   7136.33  7.6369595E-01
   7136.67  7.5734090E-01
   7137.00  7.5249606E-01
   7137.33  7.4918296E-01
   7137.67  7.4690634E-01
   7138.00  7.4528982E-01
   7138.33  7.4385911E-01
   7138.67  7.4210024E-01
   7139.00  7.3963802E-01
   7139.33  7.3600579E-01
   7139.67  7.3113290E-01
   7140.00  7.2496024E-01
   7140.33  7.1737765E-01
   7140.67  7.0868392E-01
   7141.00  6.9905344E-01
   7141.33  6.8863877E-01
   7141.67  6.7778438E-01
   7142.00  6.6670588E-01
   7142.33  6.5563076E-01
   7142.67  6.4474896E-01
   7143.00  6.3418204E-01
   7143.33  6.2405730E-01
   7143.67  6.1433163E-01
   7144.00  6.0496052E-01
   7144.33  5.9588904E-01
   7144.67  5.8698872E-01
   7145.00  5.7819768E-01
   7145.33  5.6949569E-01
   7145.67  5.6089056E-01
   7146.00  5.5242448E-01
   7146.33  5.4417764E-01
   7146.67  5.3616435E-01
   7147.00  5.2839053E-01
   7147.33  5.2085055E-01
   7147.67  5.1344907E-01
   7148.00  5.0610361E-01
   7148.33  4.9869909E-01
   7148.67  4.9114258E-01
   7149.00  4.8337137E-01
   7149.33  4.7530950E-01
   7149.67  4.6697503E-01
   7150.00  4.5838654E-01
   7150.33  4.4958888E-01
   7150.67  4.4069928E-01
   7151.00  4.3180650E-01
   7151.33  4.2303498E-01
   7151.67  4.1448059E-01
   7152.00  4.0621719E-01
   7152.33  3.9833664E-01
   7152.67  3.9081128E-01
   7153.00  3.8363055E-01
   7153.33  3.7680061E-01
   7153.67  3.7023834E-01
   7154.00  3.6390531E-01
   7154.33  3.5778723E-01
   7154.67  3.5183524E-01
   7155.00  3.4604073E-01
   7155.33  3.4042693E-01
   7155.67  3.3498691E-01
   7156.00  3.2973603E-01
   7156.33  3.2471832E-01
   7156.67  3.1992440E-01
   7157.00  3.1536786E-01
   7157.33  3.1109910E-01
   7157.67  3.0711323E-01
   7158.00  3.0344453E-01
   7158.33  3.0019350E-01
   7158.67  2.9738262E-01
   7159.00  2.9507983E-01
   7159.33  2.9344129E-01
   7159.67  2.9247097E-01
   7160.00  2.9222603E-01
   7160.33  2.9285312E-01
   7160.67  2.9428178E-01
   7161.00  2.9650938E-01
   7161.33  2.9959163E-01
   7161.67  3.0336912E-01
   7162.00  3.0777362E-01
   7162.33  3.1278093E-01
   7162.67  3.1822711E-01
   7163.00  3.2401919E-01
   7163.33  3.3007366E-01
   7163.67  3.3625679E-01
   7164.00  3.4248581E-01
   7164.33  3.4867043E-01
   7164.67  3.5474673E-01
   7165.00  3.6067233E-01
   7165.33  3.6639733E-01
   7165.67  3.7193812E-01
   7166.00  3.7730488E-01
   7166.33  3.8250273E-01
   7166.67  3.8757641E-01
   7167.00  3.9254516E-01
   7167.33  3.9741278E-01
   7167.67  4.0219535E-01
   7168.00  4.0689220E-01
   7168.33  4.1148970E-01
   7168.67  4.1599691E-01
   7169.00  4.2041448E-01
   7169.33  4.2473642E-01
   7169.67  4.2898104E-01
   7170.00  4.3315489E-01
   7170.33  4.3725243E-01
   7170.67  4.4127172E-01
   7171.00  4.4518306E-01
   7171.33  4.4888271E-01
   7171.67  4.5222703E-01
   7172.00  4.5498836E-01
