    FDMNES
    energy     <xanes>
   7097.00  4.4781561E-03
   7097.33  4.5689758E-03
   7097.67  4.6632801E-03
   7098.00  4.7612763E-03
   7098.33  4.8637239E-03
   7098.67  4.9704213E-03
   7099.00  5.0816452E-03
   7099.33  5.1983630E-03
   7099.67  5.3203631E-03
   7100.00  5.4480253E-03
   7100.33  5.5826149E-03
   7100.67  5.7239218E-03
   7101.00  5.8724860E-03
   7101.33  6.0300159E-03
   7101.67  6.1963317E-03
   7102.00  6.3722314E-03
   7102.33  6.5601154E-03
   7102.67  6.7598979E-03
   7103.00  6.9728176E-03
   7103.33  7.2024165E-03
   7103.67  7.4488515E-03
   7104.00  7.7141625E-03
   7104.33  8.0039094E-03
   7104.67  8.3188518E-03
   7105.00  8.6626079E-03
   7105.33  9.0446211E-03
   7105.67  9.4671963E-03
   7106.00  9.9373908E-03
   7106.33  1.0472985E-02
   7106.67  1.1080580E-02
   7107.00  1.1775787E-02
   7107.33  1.2597091E-02
   7107.67  1.3564797E-02
   7108.00  1.4720044E-02
   7108.33  1.6164452E-02
   7108.67  1.7972613E-02
   7109.00  2.0285354E-02
   7109.33  2.3466790E-02
   7109.67  2.7895932E-02
   7110.00  3.4302335E-02
   7110.33  4.4766757E-02
   7110.67  6.1948969E-02
   7111.00  8.9597308E-02
   7111.33  1.3240193E-01
   7111.67  1.7848083E-01
   7112.00  1.9869744E-01
   7112.33  1.8971292E-01
   7112.67  1.6514243E-01
   7113.00  1.3946410E-01
   7113.33  1.2877637E-01
   7113.67  1.2377653E-01
   7114.00  1.1677824E-01
   7114.33  1.0070825E-01
   7114.67  8.2760989E-02
   7115.00  6.8597125E-02
   7115.33  5.8239413E-02
   7115.67  5.0344620E-02
   7116.00  4.5025729E-02
   7116.33  4.1989975E-02
   7116.67  4.0358260E-02
   7117.00  3.9809540E-02
   7117.33  4.0246471E-02
   7117.67  4.1473630E-02
   7118.00  4.3497818E-02
   7118.33  4.6523804E-02
   7118.67  5.0634789E-02
   7119.00  5.6099972E-02
   7119.33  6.3629345E-02
   7119.67  7.3720116E-02
   7120.00  8.7240639E-02
   7120.33  1.0603267E-01
   7120.67  1.3063176E-01
   7121.00  1.6122019E-01
   7121.33  1.9727973E-01
   7121.67  2.3696441E-01
   7122.00  2.8003459E-01
   7122.33  3.2572250E-01
   7122.67  3.7060695E-01
   7123.00  4.1207565E-01
   7123.33  4.4892853E-01
   7123.67  4.8266900E-01
   7124.00  5.1395717E-01
   7124.33  5.4318793E-01
   7124.67  5.7218797E-01
   7125.00  6.0099574E-01
   7125.33  6.2621808E-01
   7125.67  6.4681117E-01
   7126.00  6.6474179E-01
   7126.33  6.8384884E-01
   7126.67  7.0647182E-01
   7127.00  7.3307701E-01
   7127.33  7.6276586E-01
   7127.67  7.9208150E-01
   7128.00  8.1774483E-01
   7128.33  8.3746403E-01
   7128.67  8.5302855E-01
   7129.00  8.6565184E-01
   7129.33  8.7548657E-01
   7129.67  8.8289234E-01
   7130.00  8.8807972E-01
   7130.33  8.9117284E-01
   7130.67  8.9256706E-01
   7131.00  8.9212521E-01
   7131.33  8.8910457E-01
   7131.67  8.8311642E-01
   7132.00  8.7354164E-01
   7132.33  8.5935538E-01
   7132.67  8.4104098E-01
   7133.00  8.1904806E-01
   7133.33  7.9400991E-01
   7133.67  7.6746419E-01
   7134.00  7.4040845E-01
   7134.33  7.1384777E-01
   7134.67  6.8837891E-01
   7135.00  6.6433287E-01
   7135.33  6.4208380E-01
   7135.67  6.2145427E-01
   7136.00  6.0240674E-01
   7136.33  5.8506797E-01
   7136.67  5.6918758E-01
   7137.00  5.5472613E-01
   7137.33  5.4183013E-01
   7137.67  5.3031829E-01
   7138.00  5.2019622E-01
   7138.33  5.1164864E-01
   7138.67  5.0450542E-01
   7139.00  4.9876360E-01
   7139.33  4.9458367E-01
   7139.67  4.9176492E-01
   7140.00  4.9026124E-01
   7140.33  4.9011813E-01
   7140.67  4.9101693E-01
   7141.00  4.9278805E-01
   7141.33  4.9528500E-01
   7141.67  4.9816683E-01
   7142.00  5.0120544E-01
   7142.33  5.0414994E-01
   7142.67  5.0682093E-01
   7143.00  5.0910648E-01
   7143.33  5.1088002E-01
   7143.67  5.1218199E-01
   7144.00  5.1302235E-01
   7144.33  5.1335854E-01
   7144.67  5.1324098E-01
   7145.00  5.1264008E-01
   7145.33  5.1142156E-01
   7145.67  5.0956121E-01
   7146.00  5.0696688E-01
   7146.33  5.0342766E-01
   7146.67  4.9896930E-01
   7147.00  4.9356246E-01
   7147.33  4.8711795E-01
   7147.67  4.7985179E-01
   7148.00  4.7190778E-01
   7148.33  4.6344505E-01
   7148.67  4.5475676E-01
   7149.00  4.4603430E-01
   7149.33  4.3749955E-01
   7149.67  4.2928694E-01
   7150.00  4.2147714E-01
   7150.33  4.1415423E-01
   7150.67  4.0723655E-01
   7151.00  4.0066653E-01
   7151.33  3.9437984E-01
   7151.67  3.8823784E-01
   7152.00  3.8215888E-01
   7152.33  3.7607877E-01
   7152.67  3.6998425E-01
   7153.00  3.6391231E-01
   7153.33  3.5796712E-01
   7153.67  3.5225565E-01
   7154.00  3.4688819E-01
   7154.33  3.4203725E-01
   7154.67  3.3773261E-01
   7155.00  3.3402174E-01
   7155.33  3.3100340E-01
   7155.67  3.2859186E-01
   7156.00  3.2676372E-01
   7156.33  3.2555022E-01
   7156.67  3.2484176E-01
   7157.00  3.2460299E-01
   7157.33  3.2484852E-01
   7157.67  3.2548811E-01
   7158.00  3.2649200E-01
   7158.33  3.2786743E-01
   7158.67  3.2953861E-01
   7159.00  3.3147455E-01
   7159.33  3.3366640E-01
   7159.67  3.3604820E-01
   7160.00  3.3858907E-01
   7160.33  3.4127358E-01
   7160.67  3.4406128E-01
   7161.00  3.4693738E-01
   7161.33  3.4990307E-01
   7161.67  3.5294920E-01
   7162.00  3.5608333E-01
   7162.33  3.5933381E-01
   7162.67  3.6270745E-01
   7163.00  3.6622260E-01
   7163.33  3.6991927E-01
   7163.67  3.7378420E-01
   7164.00  3.7780485E-01
   7164.33  3.8197880E-01
   7164.67  3.8627242E-01
   7165.00  3.9066528E-01
   7165.33  3.9513360E-01
   7165.67  3.9963135E-01
   7166.00  4.0412506E-01
   7166.33  4.0857330E-01
   7166.67  4.1295059E-01
   7167.00  4.1723699E-01
   7167.33  4.2140432E-01
   7167.67  4.2545913E-01
   7168.00  4.2940135E-01
   7168.33  4.3322260E-01
   7168.67  4.3694435E-01
   7169.00  4.4057414E-01
   7169.33  4.4411066E-01
   7169.67  4.4757189E-01
   7170.00  4.5096121E-01
   7170.33  4.5426711E-01
   7170.67  4.5748533E-01
   7171.00  4.6058970E-01
   7171.33  4.6349681E-01
   7171.67  4.6610598E-01
   7172.00  4.6825224E-01
