    FDMNES
    energy     <xanes>
   7097.00  5.4648856E-03
   7097.33  5.6055650E-03
   7097.67  5.7530886E-03
   7098.00  5.9079467E-03
   7098.33  6.0717694E-03
   7098.67  6.2442705E-03
   7099.00  6.4261284E-03
   7099.33  6.6195082E-03
   7099.67  6.8241308E-03
   7100.00  7.0409616E-03
   7100.33  7.2729589E-03
   7100.67  7.5198948E-03
   7101.00  7.7831909E-03
   7101.33  8.0670271E-03
   7101.67  8.3713242E-03
   7102.00  8.6982609E-03
   7102.33  9.0539886E-03
   7102.67  9.4387935E-03
   7103.00  9.8561811E-03
   7103.33  1.0315666E-02
   7103.67  1.0818402E-02
   7104.00  1.1370377E-02
   7104.33  1.1987257E-02
   7104.67  1.2672294E-02
   7105.00  1.3436524E-02
   7105.33  1.4307897E-02
   7105.67  1.5295073E-02
   7106.00  1.6420506E-02
   7106.33  1.7739711E-02
   7106.67  1.9276815E-02
   7107.00  2.1084155E-02
   7107.33  2.3289812E-02
   7107.67  2.5970113E-02
   7108.00  2.9273552E-02
   7108.33  3.3569658E-02
   7108.67  3.9163039E-02
   7109.00  4.6626089E-02
   7109.33  5.7486239E-02
   7109.67  7.3552125E-02
   7110.00  9.8389578E-02
   7110.33  1.4229341E-01
   7110.67  2.1536419E-01
   7111.00  3.1428614E-01
   7111.33  3.8944484E-01
   7111.67  4.1652637E-01
   7112.00  4.2420384E-01
   7112.33  4.4198924E-01
   7112.67  4.5144330E-01
   7113.00  4.2885911E-01
   7113.33  3.8086586E-01
   7113.67  3.2644250E-01
   7114.00  2.7215553E-01
   7114.33  2.2763375E-01
   7114.67  1.9587589E-01
   7115.00  1.7560739E-01
   7115.33  1.6386513E-01
   7115.67  1.5537013E-01
   7116.00  1.4766778E-01
   7116.33  1.4081091E-01
   7116.67  1.3630968E-01
   7117.00  1.3511250E-01
   7117.33  1.3759220E-01
   7117.67  1.4217652E-01
   7118.00  1.4717148E-01
   7118.33  1.5091082E-01
   7118.67  1.5427255E-01
   7119.00  1.5905492E-01
   7119.33  1.6630522E-01
   7119.67  1.7514722E-01
   7120.00  1.8564256E-01
   7120.33  1.9907147E-01
   7120.67  2.1565462E-01
   7121.00  2.3562010E-01
   7121.33  2.5985413E-01
   7121.67  2.8815395E-01
   7122.00  3.2094250E-01
   7122.33  3.5925389E-01
   7122.67  4.0110847E-01
   7123.00  4.4339409E-01
   7123.33  4.8099614E-01
   7123.67  5.1085517E-01
   7124.00  5.3212550E-01
   7124.33  5.4595969E-01
   7124.67  5.5700833E-01
   7125.00  5.6855478E-01
   7125.33  5.8364866E-01
   7125.67  6.0232435E-01
   7126.00  6.2233174E-01
   7126.33  6.3825575E-01
   7126.67  6.4695991E-01
   7127.00  6.4917782E-01
   7127.33  6.4893421E-01
   7127.67  6.5102010E-01
   7128.00  6.5743820E-01
   7128.33  6.6845327E-01
   7128.67  6.8175169E-01
   7129.00  6.9550481E-01
   7129.33  7.0770978E-01
   7129.67  7.1738062E-01
   7130.00  7.2378614E-01
   7130.33  7.2539055E-01
   7130.67  7.2218120E-01
   7131.00  7.1463688E-01
   7131.33  7.0362920E-01
   7131.67  6.9061729E-01
   7132.00  6.7603562E-01
   7132.33  6.6009979E-01
   7132.67  6.4401692E-01
   7133.00  6.2951656E-01
   7133.33  6.1919105E-01
   7133.67  6.1333144E-01
   7134.00  6.1104583E-01
   7134.33  6.1078130E-01
   7134.67  6.1084197E-01
   7135.00  6.1068610E-01
   7135.33  6.1073503E-01
   7135.67  6.1150474E-01
   7136.00  6.1279224E-01
   7136.33  6.1354835E-01
   7136.67  6.1261558E-01
   7137.00  6.0921183E-01
   7137.33  6.0268939E-01
   7137.67  5.9394105E-01
   7138.00  5.8394967E-01
   7138.33  5.7400513E-01
   7138.67  5.6514280E-01
   7139.00  5.5788792E-01
   7139.33  5.5266888E-01
   7139.67  5.4917532E-01
   7140.00  5.4720228E-01
   7140.33  5.4649097E-01
   7140.67  5.4626624E-01
   7141.00  5.4579919E-01
   7141.33  5.4402367E-01
   7141.67  5.4031467E-01
   7142.00  5.3427338E-01
   7142.33  5.2553604E-01
   7142.67  5.1478662E-01
   7143.00  5.0264126E-01
   7143.33  4.8992288E-01
   7143.67  4.7757007E-01
   7144.00  4.6619710E-01
   7144.33  4.5646406E-01
   7144.67  4.4840716E-01
   7145.00  4.4204134E-01
   7145.33  4.3744043E-01
   7145.67  4.3419569E-01
   7146.00  4.3209021E-01
   7146.33  4.3097433E-01
   7146.67  4.3049927E-01
   7147.00  4.3049418E-01
   7147.33  4.3085020E-01
   7147.67  4.3143088E-01
   7148.00  4.3218644E-01
   7148.33  4.3309536E-01
   7148.67  4.3410030E-01
   7149.00  4.3515320E-01
   7149.33  4.3617681E-01
   7149.67  4.3708705E-01
   7150.00  4.3780267E-01
   7150.33  4.3819150E-01
   7150.67  4.3820855E-01
   7151.00  4.3780626E-01
   7151.33  4.3690520E-01
   7151.67  4.3556953E-01
   7152.00  4.3382864E-01
   7152.33  4.3169139E-01
   7152.67  4.2926801E-01
   7153.00  4.2662099E-01
   7153.33  4.2380511E-01
   7153.67  4.2090769E-01
   7154.00  4.1797824E-01
   7154.33  4.1505720E-01
   7154.67  4.1215746E-01
   7155.00  4.0926773E-01
   7155.33  4.0634579E-01
   7155.67  4.0333456E-01
   7156.00  4.0017015E-01
   7156.33  3.9674685E-01
   7156.67  3.9302775E-01
   7157.00  3.8897496E-01
   7157.33  3.8453105E-01
   7157.67  3.7976367E-01
   7158.00  3.7472476E-01
   7158.33  3.6948387E-01
   7158.67  3.6418061E-01
   7159.00  3.5892703E-01
   7159.33  3.5387783E-01
   7159.67  3.4913272E-01
   7160.00  3.4478141E-01
   7160.33  3.4096418E-01
   7160.67  3.3767498E-01
   7161.00  3.3493753E-01
   7161.33  3.3282682E-01
   7161.67  3.3126008E-01
   7162.00  3.3021570E-01
   7162.33  3.2972326E-01
   7162.67  3.2968627E-01
   7163.00  3.3007161E-01
   7163.33  3.3088662E-01
   7163.67  3.3204140E-01
   7164.00  3.3349634E-01
   7164.33  3.3524353E-01
   7164.67  3.3721532E-01
   7165.00  3.3938332E-01
   7165.33  3.4173950E-01
   7165.67  3.4424025E-01
   7166.00  3.4687154E-01
   7166.33  3.4963875E-01
   7166.67  3.5252329E-01
   7167.00  3.5552549E-01
   7167.33  3.5866294E-01
   7167.67  3.6192338E-01
   7168.00  3.6530842E-01
   7168.33  3.6883437E-01
   7168.67  3.7248393E-01
   7169.00  3.7625316E-01
   7169.33  3.8014821E-01
   7169.67  3.8414254E-01
   7170.00  3.8822031E-01
   7170.33  3.9236252E-01
   7170.67  3.9652137E-01
   7171.00  4.0064116E-01
   7171.33  4.0459166E-01
   7171.67  4.0818632E-01
   7172.00  4.1115439E-01
