    FDMNES
    energy     <xanes>
   7097.00  5.1914056E-03
   7097.33  5.3173649E-03
   7097.67  5.4490971E-03
   7098.00  5.5869941E-03
   7098.33  5.7323946E-03
   7098.67  5.8850273E-03
   7099.00  6.0454273E-03
   7099.33  6.2153471E-03
   7099.67  6.3945108E-03
   7100.00  6.5836688E-03
   7100.33  6.7851775E-03
   7100.67  6.9987848E-03
   7101.00  7.2255776E-03
   7101.33  7.4688270E-03
   7101.67  7.7283684E-03
   7102.00  8.0058378E-03
   7102.33  8.3059542E-03
   7102.67  8.6287834E-03
   7103.00  8.9769051E-03
   7103.33  9.3574575E-03
   7103.67  9.7710649E-03
   7104.00  1.0222036E-02
   7104.33  1.0721832E-02
   7104.67  1.1272431E-02
   7105.00  1.1881574E-02
   7105.33  1.2569131E-02
   7105.67  1.3340539E-02
   7106.00  1.4211100E-02
   7106.33  1.5218986E-02
   7106.67  1.6379357E-02
   7107.00  1.7726688E-02
   7107.33  1.9345690E-02
   7107.67  2.1283517E-02
   7108.00  2.3634134E-02
   7108.33  2.6630950E-02
   7108.67  3.0456592E-02
   7109.00  3.5456638E-02
   7109.33  4.2546030E-02
   7109.67  5.2768279E-02
   7110.00  6.8174464E-02
   7110.33  9.4641076E-02
   7110.67  1.3789581E-01
   7111.00  1.9673987E-01
   7111.33  2.4825015E-01
   7111.67  2.8183651E-01
   7112.00  3.1075881E-01
   7112.33  3.4577165E-01
   7112.67  3.6988852E-01
   7113.00  3.7211700E-01
   7113.33  3.5866721E-01
   7113.67  3.3540393E-01
   7114.00  2.9434846E-01
   7114.33  2.4676500E-01
   7114.67  2.0749628E-01
   7115.00  1.7990294E-01
   7115.33  1.6344961E-01
   7115.67  1.5392730E-01
   7116.00  1.5056614E-01
   7116.33  1.5609892E-01
   7116.67  1.7138945E-01
   7117.00  1.9473872E-01
   7117.33  2.1413606E-01
   7117.67  2.1412933E-01
   7118.00  1.9559601E-01
   7118.33  1.7393838E-01
   7118.67  1.5987397E-01
   7119.00  1.5488919E-01
   7119.33  1.5864103E-01
   7119.67  1.6823796E-01
   7120.00  1.8166908E-01
   7120.33  1.9694757E-01
   7120.67  2.1373122E-01
   7121.00  2.3292446E-01
   7121.33  2.5447437E-01
   7121.67  2.7667647E-01
   7122.00  2.9866408E-01
   7122.33  3.2017419E-01
   7122.67  3.4174320E-01
   7123.00  3.6450545E-01
   7123.33  3.9105295E-01
   7123.67  4.2339946E-01
   7124.00  4.6326493E-01
   7124.33  5.1161360E-01
   7124.67  5.6285968E-01
   7125.00  6.0973540E-01
   7125.33  6.4410327E-01
   7125.67  6.6727221E-01
   7126.00  6.8346581E-01
   7126.33  6.9733792E-01
   7126.67  7.1078627E-01
   7127.00  7.2282666E-01
   7127.33  7.3203634E-01
   7127.67  7.4021138E-01
   7128.00  7.5024597E-01
   7128.33  7.6423791E-01
   7128.67  7.7854395E-01
   7129.00  7.8676266E-01
   7129.33  7.8008753E-01
   7129.67  7.5904924E-01
   7130.00  7.2821938E-01
   7130.33  6.9473500E-01
   7130.67  6.6442262E-01
   7131.00  6.3952144E-01
   7131.33  6.2121824E-01
   7131.67  6.0810932E-01
   7132.00  5.9943687E-01
   7132.33  5.9494593E-01
   7132.67  5.9361183E-01
   7133.00  5.9491917E-01
   7133.33  5.9824533E-01
   7133.67  6.0218459E-01
   7134.00  6.0556566E-01
   7134.33  6.0698236E-01
   7134.67  6.0613543E-01
   7135.00  6.0332455E-01
   7135.33  5.9937022E-01
   7135.67  5.9533577E-01
   7136.00  5.9165032E-01
   7136.33  5.8833431E-01
   7136.67  5.8492055E-01
   7137.00  5.8095738E-01
   7137.33  5.7594083E-01
   7137.67  5.6983074E-01
   7138.00  5.6262337E-01
   7138.33  5.5422467E-01
   7138.67  5.4477761E-01
   7139.00  5.3426167E-01
   7139.33  5.2254841E-01
   7139.67  5.0991155E-01
   7140.00  4.9664102E-01
   7140.33  4.8323932E-01
   7140.67  4.7031747E-01
   7141.00  4.5833368E-01
   7141.33  4.4781738E-01
   7141.67  4.3876116E-01
   7142.00  4.3115529E-01
   7142.33  4.2504768E-01
   7142.67  4.2009965E-01
   7143.00  4.1615566E-01
   7143.33  4.1314790E-01
   7143.67  4.1081198E-01
   7144.00  4.0901657E-01
   7144.33  4.0768063E-01
   7144.67  4.0665547E-01
   7145.00  4.0586981E-01
   7145.33  4.0526728E-01
   7145.67  4.0476530E-01
   7146.00  4.0432723E-01
   7146.33  4.0393636E-01
   7146.67  4.0358464E-01
   7147.00  4.0328066E-01
   7147.33  4.0305060E-01
   7147.67  4.0290899E-01
   7148.00  4.0287815E-01
   7148.33  4.0300564E-01
   7148.67  4.0330977E-01
   7149.00  4.0382745E-01
   7149.33  4.0464074E-01
   7149.67  4.0576953E-01
   7150.00  4.0725869E-01
   7150.33  4.0920460E-01
   7150.67  4.1158693E-01
   7151.00  4.1441351E-01
   7151.33  4.1771758E-01
   7151.67  4.2138648E-01
   7152.00  4.2533598E-01
   7152.33  4.2945403E-01
   7152.67  4.3356289E-01
   7153.00  4.3751085E-01
   7153.33  4.4107349E-01
   7153.67  4.4412344E-01
   7154.00  4.4653749E-01
   7154.33  4.4812038E-01
   7154.67  4.4891277E-01
   7155.00  4.4891038E-01
   7155.33  4.4805123E-01
   7155.67  4.4649250E-01
   7156.00  4.4430123E-01
   7156.33  4.4149435E-01
   7156.67  4.3822690E-01
   7157.00  4.3457119E-01
   7157.33  4.3056827E-01
   7157.67  4.2633022E-01
   7158.00  4.2191448E-01
   7158.33  4.1736535E-01
   7158.67  4.1274923E-01
   7159.00  4.0810495E-01
   7159.33  4.0347345E-01
   7159.67  3.9888858E-01
   7160.00  3.9437932E-01
   7160.33  3.8999721E-01
   7160.67  3.8577353E-01
   7161.00  3.8175257E-01
   7161.33  3.7802281E-01
   7161.67  3.7461080E-01
   7162.00  3.7156881E-01
   7162.33  3.6900701E-01
   7162.67  3.6691507E-01
   7163.00  3.6531737E-01
   7163.33  3.6429209E-01
   7163.67  3.6377135E-01
   7164.00  3.6373708E-01
   7164.33  3.6421248E-01
   7164.67  3.6509924E-01
   7165.00  3.6635858E-01
   7165.33  3.6798602E-01
   7165.67  3.6989800E-01
   7166.00  3.7206213E-01
   7166.33  3.7447459E-01
   7166.67  3.7708363E-01
   7167.00  3.7987408E-01
   7167.33  3.8285516E-01
   7167.67  3.8599886E-01
   7168.00  3.8930281E-01
   7168.33  3.9278829E-01
   7168.67  3.9643824E-01
   7169.00  4.0025465E-01
   7169.33  4.0425800E-01
   7169.67  4.0842225E-01
   7170.00  4.1273666E-01
   7170.33  4.1719352E-01
   7170.67  4.2173375E-01
   7171.00  4.2629313E-01
   7171.33  4.3072393E-01
   7171.67  4.3479165E-01
   7172.00  4.3816725E-01
