    FDMNES
    energy     <xanes>
   7097.00  4.8803550E-03
   7097.33  4.9893911E-03
   7097.67  5.1030794E-03
   7098.00  5.2217191E-03
   7098.33  5.3463609E-03
   7098.67  5.4767636E-03
   7099.00  5.6133304E-03
   7099.33  5.7574183E-03
   7099.67  5.9087756E-03
   7100.00  6.0679601E-03
   7100.33  6.2367692E-03
   7100.67  6.4149577E-03
   7101.00  6.6033213E-03
   7101.33  6.8043133E-03
   7101.67  7.0177346E-03
   7102.00  7.2447620E-03
   7102.33  7.4888675E-03
   7102.67  7.7499861E-03
   7103.00  8.0299364E-03
   7103.33  8.3338546E-03
   7103.67  8.6620110E-03
   7104.00  9.0173708E-03
   7104.33  9.4079649E-03
   7104.67  9.8348768E-03
   7105.00  1.0303280E-02
   7105.33  1.0826653E-02
   7105.67  1.1408118E-02
   7106.00  1.2057528E-02
   7106.33  1.2799732E-02
   7106.67  1.3643392E-02
   7107.00  1.4609638E-02
   7107.33  1.5750646E-02
   7107.67  1.7092368E-02
   7108.00  1.8688588E-02
   7108.33  2.0672229E-02
   7108.67  2.3136909E-02
   7109.00  2.6261769E-02
   7109.33  3.0511166E-02
   7109.67  3.6364711E-02
   7110.00  4.4754969E-02
   7110.33  5.8326649E-02
   7110.67  7.9996100E-02
   7111.00  1.1156472E-01
   7111.33  1.4802278E-01
   7111.67  1.8516401E-01
   7112.00  2.2727406E-01
   7112.33  2.7216732E-01
   7112.67  3.0917323E-01
   7113.00  3.3269008E-01
   7113.33  3.3769726E-01
   7113.67  3.2050686E-01
   7114.00  2.7298847E-01
   7114.33  2.1276260E-01
   7114.67  1.6592461E-01
   7115.00  1.3546011E-01
   7115.33  1.1900648E-01
   7115.67  1.1159981E-01
   7116.00  1.1156542E-01
   7116.33  1.1792747E-01
   7116.67  1.2785565E-01
   7117.00  1.4064861E-01
   7117.33  1.5607216E-01
   7117.67  1.7022154E-01
   7118.00  1.8054117E-01
   7118.33  1.8630199E-01
   7118.67  1.8919244E-01
   7119.00  1.9152709E-01
   7119.33  1.9644284E-01
   7119.67  2.0474040E-01
   7120.00  2.1618675E-01
   7120.33  2.3027323E-01
   7120.67  2.4425785E-01
   7121.00  2.5533399E-01
   7121.33  2.6276437E-01
   7121.67  2.6968919E-01
   7122.00  2.7808904E-01
   7122.33  2.8873915E-01
   7122.67  3.0117688E-01
   7123.00  3.1557645E-01
   7123.33  3.3272006E-01
   7123.67  3.5254170E-01
   7124.00  3.7507547E-01
   7124.33  4.0035592E-01
   7124.67  4.2678516E-01
   7125.00  4.5210365E-01
   7125.33  4.7254927E-01
   7125.67  4.8670401E-01
   7126.00  4.9496707E-01
   7126.33  4.9910767E-01
   7126.67  5.0202733E-01
   7127.00  5.0526789E-01
   7127.33  5.1060792E-01
   7127.67  5.1918135E-01
   7128.00  5.3149542E-01
   7128.33  5.4746252E-01
   7128.67  5.6520306E-01
   7129.00  5.8292298E-01
   7129.33  5.9834487E-01
   7129.67  6.1081836E-01
   7130.00  6.2077086E-01
   7130.33  6.2929820E-01
   7130.67  6.3775507E-01
   7131.00  6.4671382E-01
   7131.33  6.5620976E-01
   7131.67  6.6558104E-01
   7132.00  6.7420044E-01
   7132.33  6.8140020E-01
   7132.67  6.8707728E-01
   7133.00  6.9109124E-01
   7133.33  6.9309423E-01
   7133.67  6.9327426E-01
   7134.00  6.9171343E-01
   7134.33  6.8846427E-01
   7134.67  6.8408296E-01
   7135.00  6.7893302E-01
   7135.33  6.7335559E-01
   7135.67  6.6768452E-01
   7136.00  6.6207380E-01
   7136.33  6.5664625E-01
   7136.67  6.5144737E-01
   7137.00  6.4653382E-01
   7137.33  6.4202756E-01
   7137.67  6.3795757E-01
   7138.00  6.3436713E-01
   7138.33  6.3132841E-01
   7138.67  6.2874219E-01
   7139.00  6.2652878E-01
   7139.33  6.2458511E-01
   7139.67  6.2276056E-01
   7140.00  6.2097560E-01
   7140.33  6.1912947E-01
   7140.67  6.1712293E-01
   7141.00  6.1487182E-01
   7141.33  6.1228817E-01
   7141.67  6.0944139E-01
   7142.00  6.0642820E-01
   7142.33  6.0341349E-01
   7142.67  6.0057806E-01
   7143.00  5.9806035E-01
   7143.33  5.9603341E-01
   7143.67  5.9450271E-01
   7144.00  5.9346992E-01
   7144.33  5.9293709E-01
   7144.67  5.9274316E-01
   7145.00  5.9276494E-01
   7145.33  5.9284206E-01
   7145.67  5.9280109E-01
   7146.00  5.9252297E-01
   7146.33  5.9187148E-01
   7146.67  5.9083492E-01
   7147.00  5.8939662E-01
   7147.33  5.8751508E-01
   7147.67  5.8526183E-01
   7148.00  5.8265844E-01
   7148.33  5.7968653E-01
   7148.67  5.7640397E-01
   7149.00  5.7282054E-01
   7149.33  5.6890727E-01
   7149.67  5.6470724E-01
   7150.00  5.6022608E-01
   7150.33  5.5543634E-01
   7150.67  5.5037975E-01
   7151.00  5.4506260E-01
   7151.33  5.3945851E-01
   7151.67  5.3360309E-01
   7152.00  5.2749983E-01
   7152.33  5.2112612E-01
   7152.67  5.1452859E-01
   7153.00  5.0773373E-01
   7153.33  5.0077316E-01
   7153.67  4.9373959E-01
   7154.00  4.8671349E-01
   7154.33  4.7980802E-01
   7154.67  4.7310179E-01
   7155.00  4.6665842E-01
   7155.33  4.6056581E-01
   7155.67  4.5480502E-01
   7156.00  4.4937176E-01
   7156.33  4.4427846E-01
   7156.67  4.3944794E-01
   7157.00  4.3484088E-01
   7157.33  4.3043120E-01
   7157.67  4.2615183E-01
   7158.00  4.2197003E-01
   7158.33  4.1786623E-01
   7158.67  4.1381891E-01
   7159.00  4.0983195E-01
   7159.33  4.0593838E-01
   7159.67  4.0216716E-01
   7160.00  3.9855424E-01
   7160.33  3.9516415E-01
   7160.67  3.9202067E-01
   7161.00  3.8916379E-01
   7161.33  3.8666986E-01
   7161.67  3.8452353E-01
   7162.00  3.8273653E-01
   7162.33  3.8135685E-01
   7162.67  3.8033293E-01
   7163.00  3.7965454E-01
   7163.33  3.7934733E-01
   7163.67  3.7935352E-01
   7164.00  3.7966062E-01
   7164.33  3.8029255E-01
   7164.67  3.8120250E-01
   7165.00  3.8238145E-01
   7165.33  3.8385100E-01
   7165.67  3.8556756E-01
   7166.00  3.8752084E-01
   7166.33  3.8972634E-01
   7166.67  3.9214309E-01
   7167.00  3.9475995E-01
   7167.33  3.9758831E-01
   7167.67  4.0059360E-01
   7168.00  4.0376696E-01
   7168.33  4.0711816E-01
   7168.67  4.1061620E-01
   7169.00  4.1424937E-01
   7169.33  4.1801562E-01
   7169.67  4.2187837E-01
   7170.00  4.2581332E-01
   7170.33  4.2978801E-01
   7170.67  4.3374729E-01
   7171.00  4.3762951E-01
   7171.33  4.4130040E-01
   7171.67  4.4459765E-01
   7172.00  4.4729109E-01
