    FDMNES
    energy     <xanes>
   7097.00  4.6142316E-03
   7097.33  4.7123942E-03
   7097.67  4.8146133E-03
   7098.00  4.9211456E-03
   7098.33  5.0329001E-03
   7098.67  5.1496614E-03
   7099.00  5.2717750E-03
   7099.33  5.4004123E-03
   7099.67  5.5353487E-03
   7100.00  5.6770621E-03
   7100.33  5.8271017E-03
   7100.67  5.9852492E-03
   7101.00  6.1521874E-03
   7101.33  6.3300302E-03
   7101.67  6.5186016E-03
   7102.00  6.7189157E-03
   7102.33  6.9339689E-03
   7102.67  7.1637095E-03
   7103.00  7.4097150E-03
   7103.33  7.6764399E-03
   7103.67  7.9641452E-03
   7104.00  8.2754325E-03
   7104.33  8.6173328E-03
   7104.67  8.9908793E-03
   7105.00  9.4006914E-03
   7105.33  9.8587637E-03
   7105.67  1.0368115E-02
   7106.00  1.0937777E-02
   7106.33  1.1590454E-02
   7106.67  1.2334753E-02
   7107.00  1.3190816E-02
   7107.33  1.4208332E-02
   7107.67  1.5414222E-02
   7108.00  1.6862780E-02
   7108.33  1.8688937E-02
   7108.67  2.0996313E-02
   7109.00  2.3981521E-02
   7109.33  2.8163235E-02
   7109.67  3.4123178E-02
   7110.00  4.3001919E-02
   7110.33  5.8061975E-02
   7110.67  8.2571174E-02
   7111.00  1.1634204E-01
   7111.33  1.4813801E-01
   7111.67  1.7746307E-01
   7112.00  2.1064629E-01
   7112.33  2.3589646E-01
   7112.67  2.3707474E-01
   7113.00  2.0689681E-01
   7113.33  1.6197672E-01
   7113.67  1.2874545E-01
   7114.00  1.0987107E-01
   7114.33  1.0159483E-01
   7114.67  9.8246314E-02
   7115.00  9.8718925E-02
   7115.33  1.0364362E-01
   7115.67  1.1349076E-01
   7116.00  1.2936697E-01
   7116.33  1.5239920E-01
   7116.67  1.8017487E-01
   7117.00  2.0848745E-01
   7117.33  2.2803680E-01
   7117.67  2.3427983E-01
   7118.00  2.3034533E-01
   7118.33  2.2505946E-01
   7118.67  2.2498824E-01
   7119.00  2.3138254E-01
   7119.33  2.4340073E-01
   7119.67  2.5865075E-01
   7120.00  2.7604114E-01
   7120.33  2.9418474E-01
   7120.67  3.1142443E-01
   7121.00  3.2593624E-01
   7121.33  3.3335487E-01
   7121.67  3.3243051E-01
   7122.00  3.2454549E-01
   7122.33  3.1277559E-01
   7122.67  3.0156632E-01
   7123.00  2.9356032E-01
   7123.33  2.9049817E-01
   7123.67  2.9100571E-01
   7124.00  2.9330016E-01
   7124.33  2.9535985E-01
   7124.67  2.9657285E-01
   7125.00  2.9832468E-01
   7125.33  3.0360945E-01
   7125.67  3.1285437E-01
   7126.00  3.2497989E-01
   7126.33  3.3853074E-01
   7126.67  3.5331816E-01
   7127.00  3.7041247E-01
   7127.33  3.9050444E-01
   7127.67  4.1173840E-01
   7128.00  4.3199544E-01
   7128.33  4.4877371E-01
   7128.67  4.6175113E-01
   7129.00  4.7136696E-01
   7129.33  4.7821216E-01
   7129.67  4.8362674E-01
   7130.00  4.8858451E-01
   7130.33  4.9412321E-01
   7130.67  5.0074793E-01
   7131.00  5.0875533E-01
   7131.33  5.1901809E-01
   7131.67  5.3226556E-01
   7132.00  5.4906803E-01
   7132.33  5.6952023E-01
   7132.67  5.9190137E-01
   7133.00  6.1472053E-01
   7133.33  6.3630116E-01
   7133.67  6.5591124E-01
   7134.00  6.7344505E-01
   7134.33  6.8885189E-01
   7134.67  7.0214663E-01
   7135.00  7.1259824E-01
   7135.33  7.1878394E-01
   7135.67  7.2099079E-01
   7136.00  7.1995609E-01
   7136.33  7.1681414E-01
   7136.67  7.1280689E-01
   7137.00  7.0813678E-01
   7137.33  7.0236075E-01
   7137.67  6.9521755E-01
   7138.00  6.8664903E-01
   7138.33  6.7679275E-01
   7138.67  6.6620155E-01
   7139.00  6.5512859E-01
   7139.33  6.4364346E-01
   7139.67  6.3182309E-01
   7140.00  6.1974093E-01
   7140.33  6.0758726E-01
   7140.67  5.9565084E-01
   7141.00  5.8417843E-01
   7141.33  5.7349028E-01
   7141.67  5.6363200E-01
   7142.00  5.5461779E-01
   7142.33  5.4645403E-01
   7142.67  5.3891169E-01
   7143.00  5.3191040E-01
   7143.33  5.2552488E-01
   7143.67  5.1980405E-01
   7144.00  5.1490809E-01
   7144.33  5.1117057E-01
   7144.67  5.0863199E-01
   7145.00  5.0737639E-01
   7145.33  5.0759445E-01
   7145.67  5.0908803E-01
   7146.00  5.1178421E-01
   7146.33  5.1568836E-01
   7146.67  5.2048164E-01
   7147.00  5.2594637E-01
   7147.33  5.3182354E-01
   7147.67  5.3773308E-01
   7148.00  5.4338628E-01
   7148.33  5.4842081E-01
   7148.67  5.5269473E-01
   7149.00  5.5610475E-01
   7149.33  5.5850144E-01
   7149.67  5.6004211E-01
   7150.00  5.6081007E-01
   7150.33  5.6084103E-01
   7150.67  5.6033655E-01
   7151.00  5.5939196E-01
   7151.33  5.5806080E-01
   7151.67  5.5646278E-01
   7152.00  5.5464707E-01
   7152.33  5.5263180E-01
   7152.67  5.5046662E-01
   7153.00  5.4816897E-01
   7153.33  5.4573675E-01
   7153.67  5.4318533E-01
   7154.00  5.4050667E-01
   7154.33  5.3766672E-01
   7154.67  5.3465930E-01
   7155.00  5.3145776E-01
   7155.33  5.2799863E-01
   7155.67  5.2427763E-01
   7156.00  5.2027406E-01
   7156.33  5.1594387E-01
   7156.67  5.1134138E-01
   7157.00  5.0650776E-01
   7157.33  5.0150181E-01
   7157.67  4.9644796E-01
   7158.00  4.9145154E-01
   7158.33  4.8666486E-01
   7158.67  4.8218583E-01
   7159.00  4.7810412E-01
   7159.33  4.7456290E-01
   7159.67  4.7155611E-01
   7160.00  4.6910441E-01
   7160.33  4.6726985E-01
   7160.67  4.6594576E-01
   7161.00  4.6507936E-01
   7161.33  4.6464246E-01
   7161.67  4.6450543E-01
   7162.00  4.6459922E-01
   7162.33  4.6487136E-01
   7162.67  4.6525145E-01
   7163.00  4.6571594E-01
   7163.33  4.6626450E-01
   7163.67  4.6689342E-01
   7164.00  4.6761527E-01
   7164.33  4.6845865E-01
   7164.67  4.6941678E-01
   7165.00  4.7048378E-01
   7165.33  4.7164961E-01
   7165.67  4.7287103E-01
   7166.00  4.7411639E-01
   7166.33  4.7534982E-01
   7166.67  4.7654636E-01
   7167.00  4.7769299E-01
   7167.33  4.7878035E-01
   7167.67  4.7982362E-01
   7168.00  4.8083641E-01
   7168.33  4.8183626E-01
   7168.67  4.8284228E-01
   7169.00  4.8386579E-01
   7169.33  4.8491695E-01
   7169.67  4.8599179E-01
   7170.00  4.8708270E-01
   7170.33  4.8817290E-01
   7170.67  4.8923773E-01
   7171.00  4.9024975E-01
   7171.33  4.9115940E-01
   7171.67  4.9193499E-01
   7172.00  4.9254147E-01
