    FDMNES
    energy     <xanes>
   7097.00  3.5823586E-03
   7097.33  3.6459781E-03
   7097.67  3.7119308E-03
   7098.00  3.7803577E-03
   7098.33  3.8517713E-03
   7098.67  3.9260402E-03
   7099.00  4.0033540E-03
   7099.33  4.0843693E-03
   7099.67  4.1689493E-03
   7100.00  4.2573563E-03
   7100.33  4.3504539E-03
   7100.67  4.4481090E-03
   7101.00  4.5506961E-03
   7101.33  4.6593890E-03
   7101.67  4.7740778E-03
   7102.00  4.8953188E-03
   7102.33  5.0247703E-03
   7102.67  5.1623906E-03
   7103.00  5.3090455E-03
   7103.33  5.4671931E-03
   7103.67  5.6369626E-03
   7104.00  5.8197808E-03
   7104.33  6.0195171E-03
   7104.67  6.2367209E-03
   7105.00  6.4739205E-03
   7105.33  6.7376958E-03
   7105.67  7.0296719E-03
   7106.00  7.3547769E-03
   7106.33  7.7254168E-03
   7106.67  8.1462387E-03
   7107.00  8.6281976E-03
   7107.33  9.1983512E-03
   7107.67  9.8712906E-03
   7108.00  1.0676569E-02
   7108.33  1.1687816E-02
   7108.67  1.2962014E-02
   7109.00  1.4607814E-02
   7109.33  1.6914149E-02
   7109.67  2.0213080E-02
   7110.00  2.5161148E-02
   7110.33  3.3639958E-02
   7110.67  4.7339275E-02
   7111.00  6.4760772E-02
   7111.33  7.4840364E-02
   7111.67  8.0314812E-02
   7112.00  9.2388490E-02
   7112.33  1.1782711E-01
   7112.67  1.4445448E-01
   7113.00  1.4608118E-01
   7113.33  1.2038080E-01
   7113.67  1.0001329E-01
   7114.00  9.6109992E-02
   7114.33  1.1197670E-01
   7114.67  1.3710905E-01
   7115.00  1.4914655E-01
   7115.33  1.3239846E-01
   7115.67  1.0700248E-01
   7116.00  8.6854513E-02
   7116.33  7.6299103E-02
   7116.67  6.8562494E-02
   7117.00  6.0293268E-02
   7117.33  5.2698871E-02
   7117.67  4.6839512E-02
   7118.00  4.2502337E-02
   7118.33  3.9537912E-02
   7118.67  3.7678735E-02
   7119.00  3.6810642E-02
   7119.33  3.6813349E-02
   7119.67  3.7204674E-02
   7120.00  3.7526061E-02
   7120.33  3.7686021E-02
   7120.67  3.8305937E-02
   7121.00  3.9725608E-02
   7121.33  4.2126776E-02
   7121.67  4.5428546E-02
   7122.00  4.9725909E-02
   7122.33  5.5398114E-02
   7122.67  6.2524777E-02
   7123.00  7.1142715E-02
   7123.33  8.1116758E-02
   7123.67  9.1379673E-02
   7124.00  1.0075820E-01
   7124.33  1.0882969E-01
   7124.67  1.1674555E-01
   7125.00  1.2514547E-01
   7125.33  1.3415019E-01
   7125.67  1.4343185E-01
   7126.00  1.5307575E-01
   7126.33  1.6380366E-01
   7126.67  1.7613386E-01
   7127.00  1.9039850E-01
   7127.33  2.0695200E-01
   7127.67  2.2546077E-01
   7128.00  2.4596884E-01
   7128.33  2.6927939E-01
   7128.67  2.9608697E-01
   7129.00  3.2742213E-01
   7129.33  3.6430194E-01
   7129.67  4.0343025E-01
   7130.00  4.3859125E-01
   7130.33  4.5975954E-01
   7130.67  4.6626947E-01
   7131.00  4.6220828E-01
   7131.33  4.5296786E-01
   7131.67  4.4288977E-01
   7132.00  4.3363413E-01
   7132.33  4.2657295E-01
   7132.67  4.2223263E-01
   7133.00  4.2114389E-01
   7133.33  4.2430313E-01
   7133.67  4.3159228E-01
   7134.00  4.4307073E-01
   7134.33  4.5893145E-01
   7134.67  4.7803437E-01
   7135.00  4.9962159E-01
   7135.33  5.2292038E-01
   7135.67  5.4684588E-01
   7136.00  5.7078623E-01
   7136.33  5.9424202E-01
   7136.67  6.1712391E-01
   7137.00  6.3952218E-01
   7137.33  6.6169327E-01
   7137.67  6.8401127E-01
   7138.00  7.0670354E-01
   7138.33  7.2983033E-01
   7138.67  7.5291229E-01
   7139.00  7.7513299E-01
   7139.33  7.9475177E-01
   7139.67  8.1028634E-01
   7140.00  8.2027746E-01
   7140.33  8.2272741E-01
   7140.67  8.1818721E-01
   7141.00  8.0713196E-01
   7141.33  7.9014566E-01
   7141.67  7.6948660E-01
   7142.00  7.4651056E-01
   7142.33  7.2247637E-01
   7142.67  6.9859015E-01
   7143.00  6.7555005E-01
   7143.33  6.5410372E-01
   7143.67  6.3443246E-01
   7144.00  6.1671282E-01
   7144.33  6.0130016E-01
   7144.67  5.8796321E-01
   7145.00  5.7668338E-01
   7145.33  5.6764672E-01
   7145.67  5.6048826E-01
   7146.00  5.5509826E-01
   7146.33  5.5155901E-01
   7146.67  5.4951930E-01
   7147.00  5.4883915E-01
   7147.33  5.4949558E-01
   7147.67  5.5116172E-01
   7148.00  5.5368118E-01
   7148.33  5.5695681E-01
   7148.67  5.6073143E-01
   7149.00  5.6486788E-01
   7149.33  5.6925099E-01
   7149.67  5.7373046E-01
   7150.00  5.7821506E-01
   7150.33  5.8259948E-01
   7150.67  5.8680676E-01
   7151.00  5.9076125E-01
   7151.33  5.9432987E-01
   7151.67  5.9746604E-01
   7152.00  6.0010069E-01
   7152.33  6.0210732E-01
   7152.67  6.0354278E-01
   7153.00  6.0444205E-01
   7153.33  6.0485199E-01
   7153.67  6.0500084E-01
   7154.00  6.0508391E-01
   7154.33  6.0536982E-01
   7154.67  6.0605516E-01
   7155.00  6.0726123E-01
   7155.33  6.0907618E-01
   7155.67  6.1131039E-01
   7156.00  6.1374680E-01
   7156.33  6.1600520E-01
   7156.67  6.1768966E-01
   7157.00  6.1846717E-01
   7157.33  6.1791108E-01
   7157.67  6.1606308E-01
   7158.00  6.1297523E-01
   7158.33  6.0870331E-01
   7158.67  6.0363238E-01
   7159.00  5.9797736E-01
   7159.33  5.9189427E-01
   7159.67  5.8557152E-01
   7160.00  5.7909000E-01
   7160.33  5.7251080E-01
   7160.67  5.6591638E-01
   7161.00  5.5937911E-01
   7161.33  5.5301518E-01
   7161.67  5.4690678E-01
   7162.00  5.4113503E-01
   7162.33  5.3583096E-01
   7162.67  5.3100372E-01
   7163.00  5.2668697E-01
   7163.33  5.2296206E-01
   7163.67  5.1976069E-01
   7164.00  5.1707073E-01
   7164.33  5.1493252E-01
   7164.67  5.1326139E-01
   7165.00  5.1203617E-01
   7165.33  5.1128107E-01
   7165.67  5.1091110E-01
   7166.00  5.1089366E-01
   7166.33  5.1122268E-01
   7166.67  5.1180643E-01
   7167.00  5.1259130E-01
   7167.33  5.1352144E-01
   7167.67  5.1449991E-01
   7168.00  5.1545351E-01
   7168.33  5.1628476E-01
   7168.67  5.1693223E-01
   7169.00  5.1734466E-01
   7169.33  5.1744959E-01
   7169.67  5.1726973E-01
   7170.00  5.1681726E-01
   7170.33  5.1610048E-01
   7170.67  5.1520734E-01
   7171.00  5.1420134E-01
   7171.33  5.1316619E-01
   7171.67  5.1220694E-01
   7172.00  5.1141850E-01
