    FDMNES
    energy     <xanes>
   7097.00  5.1123638E-03
   7097.33  5.2389418E-03
   7097.67  5.3715522E-03
   7098.00  5.5106242E-03
   7098.33  5.6575894E-03
   7098.67  5.8121918E-03
   7099.00  5.9750244E-03
   7099.33  6.1479857E-03
   7099.67  6.3308247E-03
   7100.00  6.5243841E-03
   7100.33  6.7312533E-03
   7100.67  6.9512234E-03
   7101.00  7.1855327E-03
   7101.33  7.4378314E-03
   7101.67  7.7080354E-03
   7102.00  7.9980366E-03
   7102.33  8.3131899E-03
   7102.67  8.6537187E-03
   7103.00  9.0226539E-03
   7103.33  9.4282434E-03
   7103.67  9.8714375E-03
   7104.00  1.0357384E-02
   7104.33  1.0899582E-02
   7104.67  1.1500734E-02
   7105.00  1.2170249E-02
   7105.33  1.2932023E-02
   7105.67  1.3793226E-02
   7106.00  1.4772813E-02
   7106.33  1.5917724E-02
   7106.67  1.7247792E-02
   7107.00  1.8806613E-02
   7107.33  2.0700933E-02
   7107.67  2.2992839E-02
   7108.00  2.5804043E-02
   7108.33  2.9437119E-02
   7108.67  3.4136841E-02
   7109.00  4.0364455E-02
   7109.33  4.9348305E-02
   7109.67  6.2527208E-02
   7110.00  8.2736846E-02
   7110.33  1.1811052E-01
   7110.67  1.7615295E-01
   7111.00  2.5247315E-01
   7111.33  3.1005281E-01
   7111.67  3.4098666E-01
   7112.00  3.6248932E-01
   7112.33  3.9155978E-01
   7112.67  4.2258372E-01
   7113.00  4.4221758E-01
   7113.33  4.4048022E-01
   7113.67  4.0626233E-01
   7114.00  3.3870864E-01
   7114.33  2.6747369E-01
   7114.67  2.1209688E-01
   7115.00  1.7297170E-01
   7115.33  1.4686021E-01
   7115.67  1.2775499E-01
   7116.00  1.1319525E-01
   7116.33  1.0272442E-01
   7116.67  9.5820455E-02
   7117.00  9.2033281E-02
   7117.33  9.0703911E-02
   7117.67  9.0700870E-02
   7118.00  9.1515114E-02
   7118.33  9.2806282E-02
   7118.67  9.4300323E-02
   7119.00  9.6031220E-02
   7119.33  9.8397720E-02
   7119.67  1.0169291E-01
   7120.00  1.0607597E-01
   7120.33  1.1177354E-01
   7120.67  1.1889292E-01
   7121.00  1.2802156E-01
   7121.33  1.4054977E-01
   7121.67  1.5707554E-01
   7122.00  1.7810491E-01
   7122.33  2.0378290E-01
   7122.67  2.3116734E-01
   7123.00  2.5672596E-01
   7123.33  2.7738240E-01
   7123.67  2.9434128E-01
   7124.00  3.0943017E-01
   7124.33  3.2508671E-01
   7124.67  3.4296869E-01
   7125.00  3.6335738E-01
   7125.33  3.8564233E-01
   7125.67  4.0865907E-01
   7126.00  4.3206299E-01
   7126.33  4.5588117E-01
   7126.67  4.7993896E-01
   7127.00  5.0398439E-01
   7127.33  5.2798166E-01
   7127.67  5.5214743E-01
   7128.00  5.7612524E-01
   7128.33  5.9866845E-01
   7128.67  6.2007220E-01
   7129.00  6.4217644E-01
   7129.33  6.6749451E-01
   7129.67  6.9558721E-01
   7130.00  7.2410514E-01
   7130.33  7.4800121E-01
   7130.67  7.6335581E-01
   7131.00  7.6819025E-01
   7131.33  7.6191382E-01
   7131.67  7.4893308E-01
   7132.00  7.3313406E-01
   7132.33  7.1937600E-01
   7132.67  7.1069602E-01
   7133.00  7.0816695E-01
   7133.33  7.1205877E-01
   7133.67  7.2009578E-01
   7134.00  7.3050060E-01
   7134.33  7.4121339E-01
   7134.67  7.5032293E-01
   7135.00  7.5650174E-01
   7135.33  7.5847798E-01
   7135.67  7.5689407E-01
   7136.00  7.5234627E-01
   7136.33  7.4521978E-01
   7136.67  7.3628520E-01
   7137.00  7.2593305E-01
   7137.33  7.1467213E-01
   7137.67  7.0339716E-01
   7138.00  6.9282029E-01
   7138.33  6.8377066E-01
   7138.67  6.7639574E-01
   7139.00  6.7065912E-01
   7139.33  6.6641418E-01
   7139.67  6.6308927E-01
   7140.00  6.6042368E-01
   7140.33  6.5838237E-01
   7140.67  6.5697281E-01
   7141.00  6.5628000E-01
   7141.33  6.5630198E-01
   7141.67  6.5655353E-01
   7142.00  6.5643623E-01
   7142.33  6.5497487E-01
   7142.67  6.5161660E-01
   7143.00  6.4604604E-01
   7143.33  6.3805436E-01
   7143.67  6.2836294E-01
   7144.00  6.1754321E-01
   7144.33  6.0624935E-01
   7144.67  5.9514669E-01
   7145.00  5.8461812E-01
   7145.33  5.7502493E-01
   7145.67  5.6634441E-01
   7146.00  5.5851955E-01
   7146.33  5.5146301E-01
   7146.67  5.4489143E-01
   7147.00  5.3867725E-01
   7147.33  5.3280116E-01
   7147.67  5.2726706E-01
   7148.00  5.2215707E-01
   7148.33  5.1762363E-01
   7148.67  5.1363656E-01
   7149.00  5.1016546E-01
   7149.33  5.0716002E-01
   7149.67  5.0441327E-01
   7150.00  5.0177097E-01
   7150.33  4.9905083E-01
   7150.67  4.9612798E-01
   7151.00  4.9294199E-01
   7151.33  4.8946443E-01
   7151.67  4.8580568E-01
   7152.00  4.8207698E-01
   7152.33  4.7844963E-01
   7152.67  4.7508876E-01
   7153.00  4.7214969E-01
   7153.33  4.6988175E-01
   7153.67  4.6836354E-01
   7154.00  4.6769380E-01
   7154.33  4.6804107E-01
   7154.67  4.6926433E-01
   7155.00  4.7126425E-01
   7155.33  4.7390967E-01
   7155.67  4.7684691E-01
   7156.00  4.7979751E-01
   7156.33  4.8239479E-01
   7156.67  4.8438260E-01
   7157.00  4.8555285E-01
   7157.33  4.8560284E-01
   7157.67  4.8454958E-01
   7158.00  4.8235445E-01
   7158.33  4.7888834E-01
   7158.67  4.7435786E-01
   7159.00  4.6885665E-01
   7159.33  4.6242743E-01
   7159.67  4.5534849E-01
   7160.00  4.4778529E-01
   7160.33  4.3990063E-01
   7160.67  4.3192224E-01
   7161.00  4.2400115E-01
   7161.33  4.1631746E-01
   7161.67  4.0896504E-01
   7162.00  4.0201411E-01
   7162.33  3.9556600E-01
   7162.67  3.8959025E-01
   7163.00  3.8410466E-01
   7163.33  3.7918267E-01
   7163.67  3.7476244E-01
   7164.00  3.7083821E-01
   7164.33  3.6745604E-01
   7164.67  3.6453543E-01
   7165.00  3.6205558E-01
   7165.33  3.6004048E-01
   7165.67  3.5840956E-01
   7166.00  3.5713867E-01
   7166.33  3.5624252E-01
   7166.67  3.5565423E-01
   7167.00  3.5535460E-01
   7167.33  3.5535823E-01
   7167.67  3.5561500E-01
   7168.00  3.5611197E-01
   7168.33  3.5686338E-01
   7168.67  3.5782781E-01
   7169.00  3.5899406E-01
   7169.33  3.6037170E-01
   7169.67  3.6192119E-01
   7170.00  3.6362624E-01
   7170.33  3.6548021E-01
   7170.67  3.6743524E-01
   7171.00  3.6945225E-01
   7171.33  3.7145516E-01
   7171.67  3.7331288E-01
   7172.00  3.7485268E-01
