    FDMNES
    energy     <xanes>
   7097.00  5.2183584E-03
   7097.33  5.3457376E-03
   7097.67  5.4790128E-03
   7098.00  5.6185838E-03
   7098.33  5.7658158E-03
   7098.67  5.9204292E-03
   7099.00  6.0829664E-03
   7099.33  6.2552079E-03
   7099.67  6.4368633E-03
   7100.00  6.6286859E-03
   7100.33  6.8330544E-03
   7100.67  7.0496901E-03
   7101.00  7.2796698E-03
   7101.33  7.5262613E-03
   7101.67  7.7892483E-03
   7102.00  8.0702225E-03
   7102.33  8.3738253E-03
   7102.67  8.7000146E-03
   7103.00  9.0512384E-03
   7103.33  9.4343619E-03
   7103.67  9.8497663E-03
   7104.00  1.0301405E-02
   7104.33  1.0799953E-02
   7104.67  1.1346797E-02
   7105.00  1.1948725E-02
   7105.33  1.2623432E-02
   7105.67  1.3374763E-02
   7106.00  1.4215347E-02
   7106.33  1.5177111E-02
   7106.67  1.6270409E-02
   7107.00  1.7521477E-02
   7107.33  1.8995226E-02
   7107.67  2.0721778E-02
   7108.00  2.2765321E-02
   7108.33  2.5284500E-02
   7108.67  2.8385129E-02
   7109.00  3.2272889E-02
   7109.33  3.7480795E-02
   7109.67  4.4547027E-02
   7110.00  5.4526845E-02
   7110.33  7.0396880E-02
   7110.67  9.5060195E-02
   7111.00  1.2816559E-01
   7111.33  1.5689213E-01
   7111.67  1.8718976E-01
   7112.00  2.3768137E-01
   7112.33  3.1250943E-01
   7112.67  3.9641168E-01
   7113.00  4.7862076E-01
   7113.33  5.7629721E-01
   7113.67  6.5996828E-01
   7114.00  6.5395897E-01
   7114.33  5.5155895E-01
   7114.67  4.4065947E-01
   7115.00  3.5376039E-01
   7115.33  2.9692909E-01
   7115.67  2.6043089E-01
   7116.00  2.3976042E-01
   7116.33  2.3301569E-01
   7116.67  2.3470513E-01
   7117.00  2.3855237E-01
   7117.33  2.3474739E-01
   7117.67  2.2120475E-01
   7118.00  2.0180504E-01
   7118.33  1.8241423E-01
   7118.67  1.6610208E-01
   7119.00  1.5337238E-01
   7119.33  1.4407163E-01
   7119.67  1.3697460E-01
   7120.00  1.3146709E-01
   7120.33  1.2724149E-01
   7120.67  1.2399789E-01
   7121.00  1.2184475E-01
   7121.33  1.2117099E-01
   7121.67  1.2179004E-01
   7122.00  1.2350295E-01
   7122.33  1.2614357E-01
   7122.67  1.2934758E-01
   7123.00  1.3298091E-01
   7123.33  1.3708111E-01
   7123.67  1.4167562E-01
   7124.00  1.4686658E-01
   7124.33  1.5287905E-01
   7124.67  1.5977479E-01
   7125.00  1.6771262E-01
   7125.33  1.7706553E-01
   7125.67  1.8790951E-01
   7126.00  2.0045940E-01
   7126.33  2.1525687E-01
   7126.67  2.3234956E-01
   7127.00  2.5185081E-01
   7127.33  2.7386836E-01
   7127.67  2.9784205E-01
   7128.00  3.2370486E-01
   7128.33  3.5172348E-01
   7128.67  3.8148194E-01
   7129.00  4.1273193E-01
   7129.33  4.4590813E-01
   7129.67  4.8206361E-01
   7130.00  5.2295239E-01
   7130.33  5.7120786E-01
   7130.67  6.2654287E-01
   7131.00  6.8827739E-01
   7131.33  7.5539748E-01
   7131.67  8.2515546E-01
   7132.00  8.9528153E-01
   7132.33  9.6231002E-01
   7132.67  1.0232540E+00
   7133.00  1.0752945E+00
   7133.33  1.1136225E+00
   7133.67  1.1364641E+00
   7134.00  1.1413922E+00
   7134.33  1.1247461E+00
   7134.67  1.0902845E+00
   7135.00  1.0412218E+00
   7135.33  9.8138508E-01
   7135.67  9.1697514E-01
   7136.00  8.5152183E-01
   7136.33  7.8823421E-01
   7136.67  7.2877995E-01
   7137.00  6.7419709E-01
   7137.33  6.2596952E-01
   7137.67  5.8387157E-01
   7138.00  5.4812423E-01
   7138.33  5.1958559E-01
   7138.67  4.9730547E-01
   7139.00  4.8097140E-01
   7139.33  4.7066918E-01
   7139.67  4.6496199E-01
   7140.00  4.6312219E-01
   7140.33  4.6469809E-01
   7140.67  4.6857871E-01
   7141.00  4.7425268E-01
   7141.33  4.8143193E-01
   7141.67  4.8962213E-01
   7142.00  4.9861603E-01
   7142.33  5.0829617E-01
   7142.67  5.1840859E-01
   7143.00  5.2879243E-01
   7143.33  5.3924592E-01
   7143.67  5.4952677E-01
   7144.00  5.5942059E-01
   7144.33  5.6859686E-01
   7144.67  5.7690210E-01
   7145.00  5.8416741E-01
   7145.33  5.9010034E-01
   7145.67  5.9476831E-01
   7146.00  5.9815331E-01
   7146.33  6.0013245E-01
   7146.67  6.0094300E-01
   7147.00  6.0068276E-01
   7147.33  5.9936994E-01
   7147.67  5.9726845E-01
   7148.00  5.9450643E-01
   7148.33  5.9116475E-01
   7148.67  5.8744493E-01
   7149.00  5.8345940E-01
   7149.33  5.7931869E-01
   7149.67  5.7515191E-01
   7150.00  5.7104016E-01
   7150.33  5.6708413E-01
   7150.67  5.6334368E-01
   7151.00  5.5988159E-01
   7151.33  5.5680155E-01
   7151.67  5.5411291E-01
   7152.00  5.5185590E-01
   7152.33  5.5013233E-01
   7152.67  5.4892060E-01
   7153.00  5.4824942E-01
   7153.33  5.4821998E-01
   7153.67  5.4878457E-01
   7154.00  5.4995562E-01
   7154.33  5.5181084E-01
   7154.67  5.5425721E-01
   7155.00  5.5726182E-01
   7155.33  5.6082429E-01
   7155.67  5.6479343E-01
   7156.00  5.6907260E-01
   7156.33  5.7355385E-01
   7156.67  5.7807364E-01
   7157.00  5.8251002E-01
   7157.33  5.8670179E-01
   7157.67  5.9055809E-01
   7158.00  5.9399421E-01
   7158.33  5.9687051E-01
   7158.67  5.9919341E-01
   7159.00  6.0092948E-01
   7159.33  6.0197612E-01
   7159.67  6.0239528E-01
   7160.00  6.0218207E-01
   7160.33  6.0125851E-01
   7160.67  5.9970957E-01
   7161.00  5.9754365E-01
   7161.33  5.9469744E-01
   7161.67  5.9126169E-01
   7162.00  5.8725439E-01
   7162.33  5.8263445E-01
   7162.67  5.7750157E-01
   7163.00  5.7188504E-01
   7163.33  5.6576790E-01
   7163.67  5.5925257E-01
   7164.00  5.5238346E-01
   7164.33  5.4517662E-01
   7164.67  5.3772404E-01
   7165.00  5.3007211E-01
   7165.33  5.2225506E-01
   7165.67  5.1434294E-01
   7166.00  5.0637875E-01
   7166.33  4.9840920E-01
   7166.67  4.9047949E-01
   7167.00  4.8262465E-01
   7167.33  4.7489443E-01
   7167.67  4.6730809E-01
   7168.00  4.5989287E-01
   7168.33  4.5270302E-01
   7168.67  4.4574093E-01
   7169.00  4.3903030E-01
   7169.33  4.3263457E-01
   7169.67  4.2654776E-01
   7170.00  4.2079271E-01
   7170.33  4.1543838E-01
   7170.67  4.1047038E-01
   7171.00  4.0592358E-01
   7171.33  4.0191616E-01
   7171.67  3.9848425E-01
   7172.00  3.9574376E-01
