    FDMNES
    energy     <xanes>
   7097.00  4.7605278E-03
   7097.33  4.8696486E-03
   7097.67  4.9836265E-03
   7098.00  5.1027900E-03
   7098.33  5.2282631E-03
   7098.67  5.3598167E-03
   7099.00  5.4978996E-03
   7099.33  5.6439840E-03
   7099.67  5.7978376E-03
   7100.00  5.9600909E-03
   7100.33  6.1327249E-03
   7100.67  6.3155283E-03
   7101.00  6.5094159E-03
   7101.33  6.7171396E-03
   7101.67  6.9385635E-03
   7102.00  7.1750656E-03
   7102.33  7.4306187E-03
   7102.67  7.7052817E-03
   7103.00  8.0012281E-03
   7103.33  8.3244677E-03
   7103.67  8.6755270E-03
   7104.00  9.0580309E-03
   7104.33  9.4816156E-03
   7104.67  9.9479300E-03
   7105.00  1.0463459E-02
   7105.33  1.1044844E-02
   7105.67  1.1696558E-02
   7106.00  1.2431310E-02
   7106.33  1.3280794E-02
   7106.67  1.4257273E-02
   7107.00  1.5388918E-02
   7107.33  1.6744853E-02
   7107.67  1.8362217E-02
   7108.00  2.0315556E-02
   7108.33  2.2789019E-02
   7108.67  2.5919988E-02
   7109.00  2.9968036E-02
   7109.33  3.5609389E-02
   7109.67  4.3569487E-02
   7110.00  5.5257943E-02
   7110.33  7.4720414E-02
   7110.67  1.0682301E-01
   7111.00  1.5648006E-01
   7111.33  2.2040141E-01
   7111.67  2.6609509E-01
   7112.00  2.7967619E-01
   7112.33  2.8526230E-01
   7112.67  3.0486772E-01
   7113.00  3.4535469E-01
   7113.33  3.6870824E-01
   7113.67  3.5443579E-01
   7114.00  3.1483822E-01
   7114.33  2.4856197E-01
   7114.67  1.9185041E-01
   7115.00  1.5695083E-01
   7115.33  1.3378887E-01
   7115.67  1.1951977E-01
   7116.00  1.1379312E-01
   7116.33  1.0339068E-01
   7116.67  8.7793660E-02
   7117.00  7.5795421E-02
   7117.33  7.0106977E-02
   7117.67  6.8342664E-02
   7118.00  6.9180462E-02
   7118.33  7.1290518E-02
   7118.67  7.3649677E-02
   7119.00  7.6576544E-02
   7119.33  8.0689035E-02
   7119.67  8.6095177E-02
   7120.00  9.3433626E-02
   7120.33  1.0429759E-01
   7120.67  1.1934906E-01
   7121.00  1.3906085E-01
   7121.33  1.6379475E-01
   7121.67  1.9177662E-01
   7122.00  2.2129086E-01
   7122.33  2.4997529E-01
   7122.67  2.7549129E-01
   7123.00  2.9589546E-01
   7123.33  3.1011617E-01
   7123.67  3.2076661E-01
   7124.00  3.2964088E-01
   7124.33  3.3758473E-01
   7124.67  3.4482692E-01
   7125.00  3.5130088E-01
   7125.33  3.5652412E-01
   7125.67  3.6002372E-01
   7126.00  3.6187127E-01
   7126.33  3.6341703E-01
   7126.67  3.6645550E-01
   7127.00  3.7201199E-01
   7127.33  3.8086668E-01
   7127.67  3.9209726E-01
   7128.00  4.0480433E-01
   7128.33  4.1843407E-01
   7128.67  4.3299777E-01
   7129.00  4.4905290E-01
   7129.33  4.6793856E-01
   7129.67  4.9066535E-01
   7130.00  5.1833675E-01
   7130.33  5.5223076E-01
   7130.67  5.9101632E-01
   7131.00  6.3321205E-01
   7131.33  6.7648757E-01
   7131.67  7.1804023E-01
   7132.00  7.5609294E-01
   7132.33  7.8958081E-01
   7132.67  8.2004919E-01
   7133.00  8.4884222E-01
   7133.33  8.7690718E-01
   7133.67  9.0414662E-01
   7134.00  9.2912002E-01
   7134.33  9.4809144E-01
   7134.67  9.5888000E-01
   7135.00  9.6127315E-01
   7135.33  9.5688317E-01
   7135.67  9.4900189E-01
   7136.00  9.3873571E-01
   7136.33  9.2632861E-01
   7136.67  9.1244232E-01
   7137.00  8.9765224E-01
   7137.33  8.8273362E-01
   7137.67  8.6837345E-01
   7138.00  8.5492944E-01
   7138.33  8.4266934E-01
   7138.67  8.3135030E-01
   7139.00  8.2074892E-01
   7139.33  8.1059106E-01
   7139.67  8.0048058E-01
   7140.00  7.9011271E-01
   7140.33  7.7906545E-01
   7140.67  7.6712053E-01
   7141.00  7.5411366E-01
   7141.33  7.3985406E-01
   7141.67  7.2457530E-01
   7142.00  7.0843699E-01
   7142.33  6.9156767E-01
   7142.67  6.7423057E-01
   7143.00  6.5654190E-01
   7143.33  6.3856314E-01
   7143.67  6.2039776E-01
   7144.00  6.0210903E-01
   7144.33  5.8378764E-01
   7144.67  5.6556951E-01
   7145.00  5.4759979E-01
   7145.33  5.3010267E-01
   7145.67  5.1320093E-01
   7146.00  4.9707084E-01
   7146.33  4.8206388E-01
   7146.67  4.6827815E-01
   7147.00  4.5587710E-01
   7147.33  4.4517730E-01
   7147.67  4.3602788E-01
   7148.00  4.2838483E-01
   7148.33  4.2229647E-01
   7148.67  4.1741203E-01
   7149.00  4.1354454E-01
   7149.33  4.1056443E-01
   7149.67  4.0817017E-01
   7150.00  4.0622282E-01
   7150.33  4.0464125E-01
   7150.67  4.0329635E-01
   7151.00  4.0212969E-01
   7151.33  4.0109942E-01
   7151.67  4.0014602E-01
   7152.00  3.9924185E-01
   7152.33  3.9836467E-01
   7152.67  3.9749347E-01
   7153.00  3.9662026E-01
   7153.33  3.9574137E-01
   7153.67  3.9485373E-01
   7154.00  3.9395081E-01
   7154.33  3.9301894E-01
   7154.67  3.9205096E-01
   7155.00  3.9104226E-01
   7155.33  3.8999312E-01
   7155.67  3.8892867E-01
   7156.00  3.8788275E-01
   7156.33  3.8691966E-01
   7156.67  3.8609341E-01
   7157.00  3.8545935E-01
   7157.33  3.8510622E-01
   7157.67  3.8504405E-01
   7158.00  3.8528951E-01
   7158.33  3.8587356E-01
   7158.67  3.8672307E-01
   7159.00  3.8778669E-01
   7159.33  3.8900362E-01
   7159.67  3.9026897E-01
   7160.00  3.9150731E-01
   7160.33  3.9262825E-01
   7160.67  3.9359234E-01
   7161.00  3.9438314E-01
   7161.33  3.9499945E-01
   7161.67  3.9551532E-01
   7162.00  3.9599977E-01
   7162.33  3.9655799E-01
   7162.67  3.9727048E-01
   7163.00  3.9818609E-01
   7163.33  3.9935443E-01
   7163.67  4.0073048E-01
   7164.00  4.0227253E-01
   7164.33  4.0391666E-01
   7164.67  4.0555626E-01
   7165.00  4.0710494E-01
   7165.33  4.0845547E-01
   7165.67  4.0956805E-01
   7166.00  4.1040878E-01
   7166.33  4.1092687E-01
   7166.67  4.1117050E-01
   7167.00  4.1116972E-01
   7167.33  4.1095247E-01
   7167.67  4.1060587E-01
   7168.00  4.1018751E-01
   7168.33  4.0976203E-01
   7168.67  4.0938833E-01
   7169.00  4.0910723E-01
   7169.33  4.0897099E-01
   7169.67  4.0898820E-01
   7170.00  4.0917145E-01
   7170.33  4.0954704E-01
   7170.67  4.1008685E-01
   7171.00  4.1077335E-01
   7171.33  4.1157715E-01
   7171.67  4.1240079E-01
   7172.00  4.1312798E-01
