    FDMNES
    energy     <xanes>
   7097.00  4.8708865E-03
   7097.33  4.9822665E-03
   7097.67  5.0986276E-03
   7098.00  5.2203059E-03
   7098.33  5.3484530E-03
   7098.67  5.4828323E-03
   7099.00  5.6239017E-03
   7099.33  5.7731664E-03
   7099.67  5.9303841E-03
   7100.00  6.0961956E-03
   7100.33  6.2726195E-03
   7100.67  6.4594307E-03
   7101.00  6.6575535E-03
   7101.33  6.8697794E-03
   7101.67  7.0959508E-03
   7102.00  7.3374503E-03
   7102.33  7.5982824E-03
   7102.67  7.8784685E-03
   7103.00  8.1801688E-03
   7103.33  8.5093897E-03
   7103.67  8.8665838E-03
   7104.00  9.2553119E-03
   7104.33  9.6850959E-03
   7104.67  1.0157419E-02
   7105.00  1.0678559E-02
   7105.33  1.1264714E-02
   7105.67  1.1919937E-02
   7106.00  1.2656302E-02
   7106.33  1.3504059E-02
   7106.67  1.4474234E-02
   7107.00  1.5592968E-02
   7107.33  1.6924553E-02
   7107.67  1.8501803E-02
   7108.00  2.0391832E-02
   7108.33  2.2760227E-02
   7108.67  2.5725222E-02
   7109.00  2.9511874E-02
   7109.33  3.4703221E-02
   7109.67  4.1904097E-02
   7110.00  5.2287864E-02
   7110.33  6.9179005E-02
   7110.67  9.6259637E-02
   7111.00  1.3599777E-01
   7111.33  1.8522140E-01
   7111.67  2.4210241E-01
   7112.00  2.9251062E-01
   7112.33  3.1382394E-01
   7112.67  3.4134721E-01
   7113.00  3.8812024E-01
   7113.33  4.0707018E-01
   7113.67  3.6556790E-01
   7114.00  2.9368292E-01
   7114.33  2.2698249E-01
   7114.67  1.8169225E-01
   7115.00  1.6113512E-01
   7115.33  1.6502789E-01
   7115.67  1.8655072E-01
   7116.00  2.1689972E-01
   7116.33  2.3895796E-01
   7116.67  2.4757477E-01
   7117.00  2.4072297E-01
   7117.33  2.1790854E-01
   7117.67  1.9216601E-01
   7118.00  1.6890363E-01
   7118.33  1.4975243E-01
   7118.67  1.3495400E-01
   7119.00  1.2422573E-01
   7119.33  1.1709035E-01
   7119.67  1.1243627E-01
   7120.00  1.0948675E-01
   7120.33  1.0737821E-01
   7120.67  1.0581358E-01
   7121.00  1.0514030E-01
   7121.33  1.0589986E-01
   7121.67  1.0810446E-01
   7122.00  1.1184839E-01
   7122.33  1.1756561E-01
   7122.67  1.2538504E-01
   7123.00  1.3561718E-01
   7123.33  1.4882048E-01
   7123.67  1.6471153E-01
   7124.00  1.8316872E-01
   7124.33  2.0386578E-01
   7124.67  2.2480880E-01
   7125.00  2.4371005E-01
   7125.33  2.5896108E-01
   7125.67  2.7224950E-01
   7126.00  2.8467015E-01
   7126.33  2.9605468E-01
   7126.67  3.0640984E-01
   7127.00  3.1619011E-01
   7127.33  3.2604342E-01
   7127.67  3.3652933E-01
   7128.00  3.4819763E-01
   7128.33  3.6208628E-01
   7128.67  3.7885183E-01
   7129.00  3.9921647E-01
   7129.33  4.2416980E-01
   7129.67  4.5315316E-01
   7130.00  4.8581575E-01
   7130.33  5.2189425E-01
   7130.67  5.6001414E-01
   7131.00  5.9900069E-01
   7131.33  6.3739091E-01
   7131.67  6.7433892E-01
   7132.00  7.0966861E-01
   7132.33  7.4358695E-01
   7132.67  7.7697136E-01
   7133.00  8.1059515E-01
   7133.33  8.4538443E-01
   7133.67  8.8133104E-01
   7134.00  9.1756218E-01
   7134.33  9.5200973E-01
   7134.67  9.8301406E-01
   7135.00  1.0085562E+00
   7135.33  1.0234605E+00
   7135.67  1.0246914E+00
   7136.00  1.0109551E+00
   7136.33  9.8310911E-01
   7136.67  9.4770037E-01
   7137.00  9.0905880E-01
   7137.33  8.7097563E-01
   7137.67  8.3553156E-01
   7138.00  8.0361332E-01
   7138.33  7.7609157E-01
   7138.67  7.5249665E-01
   7139.00  7.3270734E-01
   7139.33  7.1693752E-01
   7139.67  7.0441809E-01
   7140.00  6.9478547E-01
   7140.33  6.8777909E-01
   7140.67  6.8241061E-01
   7141.00  6.7799947E-01
   7141.33  6.7375220E-01
   7141.67  6.6892102E-01
   7142.00  6.6302140E-01
   7142.33  6.5552634E-01
   7142.67  6.4649132E-01
   7143.00  6.3595826E-01
   7143.33  6.2391924E-01
   7143.67  6.1076914E-01
   7144.00  5.9673242E-01
   7144.33  5.8201451E-01
   7144.67  5.6698952E-01
   7145.00  5.5192599E-01
   7145.33  5.3717954E-01
   7145.67  5.2302950E-01
   7146.00  5.0972475E-01
   7146.33  4.9764132E-01
   7146.67  4.8681107E-01
   7147.00  4.7732136E-01
   7147.33  4.6938212E-01
   7147.67  4.6274946E-01
   7148.00  4.5728302E-01
   7148.33  4.5292697E-01
   7148.67  4.4940366E-01
   7149.00  4.4660951E-01
   7149.33  4.4453740E-01
   7149.67  4.4305115E-01
   7150.00  4.4212186E-01
   7150.33  4.4179390E-01
   7150.67  4.4198252E-01
   7151.00  4.4267244E-01
   7151.33  4.4390252E-01
   7151.67  4.4559030E-01
   7152.00  4.4772155E-01
   7152.33  4.5033804E-01
   7152.67  4.5337421E-01
   7153.00  4.5681643E-01
   7153.33  4.6068555E-01
   7153.67  4.6488873E-01
   7154.00  4.6936922E-01
   7154.33  4.7406642E-01
   7154.67  4.7885652E-01
   7155.00  4.8364809E-01
   7155.33  4.8832448E-01
   7155.67  4.9280373E-01
   7156.00  4.9701736E-01
   7156.33  5.0086699E-01
   7156.67  5.0435876E-01
   7157.00  5.0747939E-01
   7157.33  5.1018144E-01
   7157.67  5.1252116E-01
   7158.00  5.1451185E-01
   7158.33  5.1613056E-01
   7158.67  5.1743779E-01
   7159.00  5.1844975E-01
   7159.33  5.1915076E-01
   7159.67  5.1959483E-01
   7160.00  5.1979975E-01
   7160.33  5.1976074E-01
   7160.67  5.1952851E-01
   7161.00  5.1912383E-01
   7161.33  5.1854567E-01
   7161.67  5.1782381E-01
   7162.00  5.1696150E-01
   7162.33  5.1593714E-01
   7162.67  5.1475697E-01
   7163.00  5.1340527E-01
   7163.33  5.1183589E-01
   7163.67  5.1005053E-01
   7164.00  5.0803237E-01
   7164.33  5.0573696E-01
   7164.67  5.0319109E-01
   7165.00  5.0040182E-01
   7165.33  4.9736349E-01
   7165.67  4.9414113E-01
   7166.00  4.9077865E-01
   7166.33  4.8732745E-01
   7166.67  4.8386487E-01
   7167.00  4.8044993E-01
   7167.33  4.7716373E-01
   7167.67  4.7405597E-01
   7168.00  4.7116936E-01
   7168.33  4.6856557E-01
   7168.67  4.6622929E-01
   7169.00  4.6416517E-01
   7169.33  4.6240337E-01
   7169.67  4.6090070E-01
   7170.00  4.5964606E-01
   7170.33  4.5865341E-01
   7170.67  4.5787625E-01
   7171.00  4.5729716E-01
   7171.33  4.5691172E-01
   7171.67  4.5665979E-01
   7172.00  4.5649271E-01
