    FDMNES
    energy     <xanes>
   7097.00  4.9306001E-03
   7097.33  5.0516077E-03
   7097.67  5.1783437E-03
   7098.00  5.3112146E-03
   7098.33  5.4515784E-03
   7098.67  5.5991913E-03
   7099.00  5.7546153E-03
   7099.33  5.9196519E-03
   7099.67  6.0940627E-03
   7100.00  6.2786479E-03
   7100.33  6.4758661E-03
   7100.67  6.6855215E-03
   7101.00  6.9087921E-03
   7101.33  7.1491494E-03
   7101.67  7.4065208E-03
   7102.00  7.6827123E-03
   7102.33  7.9828296E-03
   7102.67  8.3071036E-03
   7103.00  8.6584402E-03
   7103.33  9.0447335E-03
   7103.67  9.4669333E-03
   7104.00  9.9300028E-03
   7104.33  1.0446933E-02
   7104.67  1.1020409E-02
   7105.00  1.1659571E-02
   7105.33  1.2387573E-02
   7105.67  1.3211555E-02
   7106.00  1.4150075E-02
   7106.33  1.5249015E-02
   7106.67  1.6528178E-02
   7107.00  1.8030619E-02
   7107.33  1.9861632E-02
   7107.67  2.2083327E-02
   7108.00  2.4816686E-02
   7108.33  2.8362091E-02
   7108.67  3.2963471E-02
   7109.00  3.9078498E-02
   7109.33  4.7921401E-02
   7109.67  6.0902220E-02
   7110.00  8.0787401E-02
   7110.33  1.1552842E-01
   7110.67  1.7313318E-01
   7111.00  2.5328972E-01
   7111.33  3.3021769E-01
   7111.67  3.8508150E-01
   7112.00  4.1014687E-01
   7112.33  3.9540659E-01
   7112.67  3.5612414E-01
   7113.00  3.1822301E-01
   7113.33  2.8672330E-01
   7113.67  2.5196062E-01
   7114.00  2.1406363E-01
   7114.33  1.7956223E-01
   7114.67  1.5318940E-01
   7115.00  1.3486809E-01
   7115.33  1.2081817E-01
   7115.67  1.0826537E-01
   7116.00  9.8599533E-02
   7116.33  9.3768456E-02
   7116.67  9.3548872E-02
   7117.00  9.7977165E-02
   7117.33  1.0738123E-01
   7117.67  1.1985014E-01
   7118.00  1.3285810E-01
   7118.33  1.4329309E-01
   7118.67  1.5069812E-01
   7119.00  1.5497512E-01
   7119.33  1.5521690E-01
   7119.67  1.5328148E-01
   7120.00  1.5176897E-01
   7120.33  1.5367537E-01
   7120.67  1.6022625E-01
   7121.00  1.7181510E-01
   7121.33  1.8822559E-01
   7121.67  2.0807437E-01
   7122.00  2.3159731E-01
   7122.33  2.5947789E-01
   7122.67  2.8957109E-01
   7123.00  3.1962310E-01
   7123.33  3.4823677E-01
   7123.67  3.7603983E-01
   7124.00  4.0348490E-01
   7124.33  4.3054635E-01
   7124.67  4.5753578E-01
   7125.00  4.8484936E-01
   7125.33  5.1182400E-01
   7125.67  5.3641249E-01
   7126.00  5.5600517E-01
   7126.33  5.6632100E-01
   7126.67  5.6677760E-01
   7127.00  5.5879160E-01
   7127.33  5.4666179E-01
   7127.67  5.3628992E-01
   7128.00  5.3072566E-01
   7128.33  5.3153546E-01
   7128.67  5.3640110E-01
   7129.00  5.4266016E-01
   7129.33  5.4719683E-01
   7129.67  5.4965789E-01
   7130.00  5.5173804E-01
   7130.33  5.5591421E-01
   7130.67  5.6243206E-01
   7131.00  5.7013472E-01
   7131.33  5.7729569E-01
   7131.67  5.8388895E-01
   7132.00  5.9103009E-01
   7132.33  5.9935748E-01
   7132.67  6.0710453E-01
   7133.00  6.1215067E-01
   7133.33  6.1321850E-01
   7133.67  6.1212088E-01
   7134.00  6.1004304E-01
   7134.33  6.0643144E-01
   7134.67  6.0017747E-01
   7135.00  5.9120823E-01
   7135.33  5.8094849E-01
   7135.67  5.7152193E-01
   7136.00  5.6400385E-01
   7136.33  5.5906197E-01
   7136.67  5.5627236E-01
   7137.00  5.5544116E-01
   7137.33  5.5668353E-01
   7137.67  5.5977107E-01
   7138.00  5.6472847E-01
   7138.33  5.7176896E-01
   7138.67  5.8055692E-01
   7139.00  5.9091885E-01
   7139.33  6.0269301E-01
   7139.67  6.1526794E-01
   7140.00  6.2815617E-01
   7140.33  6.4066873E-01
   7140.67  6.5215064E-01
   7141.00  6.6197956E-01
   7141.33  6.6914262E-01
   7141.67  6.7338449E-01
   7142.00  6.7449395E-01
   7142.33  6.7226420E-01
   7142.67  6.6767731E-01
   7143.00  6.6150554E-01
   7143.33  6.5462863E-01
   7143.67  6.4791609E-01
   7144.00  6.4180899E-01
   7144.33  6.3665070E-01
   7144.67  6.3236253E-01
   7145.00  6.2888229E-01
   7145.33  6.2620825E-01
   7145.67  6.2418828E-01
   7146.00  6.2280543E-01
   7146.33  6.2215001E-01
   7146.67  6.2214675E-01
   7147.00  6.2276067E-01
   7147.33  6.2392050E-01
   7147.67  6.2530967E-01
   7148.00  6.2662486E-01
   7148.33  6.2742004E-01
   7148.67  6.2738994E-01
   7149.00  6.2626743E-01
   7149.33  6.2366257E-01
   7149.67  6.1963943E-01
   7150.00  6.1421746E-01
   7150.33  6.0736307E-01
   7150.67  5.9943051E-01
   7151.00  5.9060715E-01
   7151.33  5.8101775E-01
   7151.67  5.7092916E-01
   7152.00  5.6046708E-01
   7152.33  5.4971301E-01
   7152.67  5.3878675E-01
   7153.00  5.2774723E-01
   7153.33  5.1664041E-01
   7153.67  5.0551651E-01
   7154.00  4.9440910E-01
   7154.33  4.8336746E-01
   7154.67  4.7243868E-01
   7155.00  4.6168524E-01
   7155.33  4.5123313E-01
   7155.67  4.4116023E-01
   7156.00  4.3157287E-01
   7156.33  4.2267352E-01
   7156.67  4.1450121E-01
   7157.00  4.0713544E-01
   7157.33  4.0074193E-01
   7157.67  3.9522763E-01
   7158.00  3.9057183E-01
   7158.33  3.8681522E-01
   7158.67  3.8376946E-01
   7159.00  3.8134402E-01
   7159.33  3.7948820E-01
   7159.67  3.7802375E-01
   7160.00  3.7685786E-01
   7160.33  3.7591823E-01
   7160.67  3.7509628E-01
   7161.00  3.7433038E-01
   7161.33  3.7355105E-01
   7161.67  3.7269381E-01
   7162.00  3.7171955E-01
   7162.33  3.7059786E-01
   7162.67  3.6935440E-01
   7163.00  3.6800894E-01
   7163.33  3.6658553E-01
   7163.67  3.6513191E-01
   7164.00  3.6368289E-01
   7164.33  3.6228313E-01
   7164.67  3.6096456E-01
   7165.00  3.5975769E-01
   7165.33  3.5871226E-01
   7165.67  3.5783450E-01
   7166.00  3.5713715E-01
   7166.33  3.5664934E-01
   7166.67  3.5634509E-01
   7167.00  3.5621634E-01
   7167.33  3.5627035E-01
   7167.67  3.5647376E-01
   7168.00  3.5681804E-01
   7168.33  3.5731527E-01
   7168.67  3.5794917E-01
   7169.00  3.5872409E-01
   7169.33  3.5966662E-01
   7169.67  3.6076620E-01
   7170.00  3.6202696E-01
   7170.33  3.6346631E-01
   7170.67  3.6504855E-01
   7171.00  3.6674325E-01
   7171.33  3.6848688E-01
   7171.67  3.7014284E-01
   7172.00  3.7153714E-01
