    FDMNES
    energy     <xanes>
   7097.00  5.5426973E-03
   7097.33  5.6897718E-03
   7097.67  5.8441267E-03
   7098.00  6.0062791E-03
   7098.33  6.1779538E-03
   7098.67  6.3588363E-03
   7099.00  6.5496342E-03
   7099.33  6.7526207E-03
   7099.67  6.9674755E-03
   7100.00  7.1951903E-03
   7100.33  7.4388345E-03
   7100.67  7.6981149E-03
   7101.00  7.9744612E-03
   7101.33  8.2721363E-03
   7101.67  8.5909464E-03
   7102.00  8.9330221E-03
   7102.33  9.3044839E-03
   7102.67  9.7053939E-03
   7103.00  1.0139054E-02
   7103.33  1.0614610E-02
   7103.67  1.1132725E-02
   7104.00  1.1698764E-02
   7104.33  1.2327074E-02
   7104.67  1.3019713E-02
   7105.00  1.3785926E-02
   7105.33  1.4649628E-02
   7105.67  1.5616221E-02
   7106.00  1.6702860E-02
   7106.33  1.7952674E-02
   7106.67  1.9379631E-02
   7107.00  2.1018857E-02
   7107.33  2.2956818E-02
   7107.67  2.5232076E-02
   7108.00  2.7927145E-02
   7108.33  3.1243813E-02
   7108.67  3.5305202E-02
   7109.00  4.0350090E-02
   7109.33  4.6976996E-02
   7109.67  5.5701930E-02
   7110.00  6.7505769E-02
   7110.33  8.5051294E-02
   7110.67  1.1139082E-01
   7111.00  1.5119872E-01
   7111.33  2.1272606E-01
   7111.67  2.9657853E-01
   7112.00  4.0036378E-01
   7112.33  5.3377295E-01
   7112.67  7.0167012E-01
   7113.00  8.5271510E-01
   7113.33  8.7312310E-01
   7113.67  7.9838581E-01
   7114.00  6.8424938E-01
   7114.33  5.5667269E-01
   7114.67  4.4534236E-01
   7115.00  3.6130075E-01
   7115.33  3.0354801E-01
   7115.67  2.6182569E-01
   7116.00  2.3137015E-01
   7116.33  2.0959727E-01
   7116.67  1.9362983E-01
   7117.00  1.8259751E-01
   7117.33  1.7617577E-01
   7117.67  1.7226006E-01
   7118.00  1.6851814E-01
   7118.33  1.6278809E-01
   7118.67  1.5592115E-01
   7119.00  1.4922695E-01
   7119.33  1.4349327E-01
   7119.67  1.3854070E-01
   7120.00  1.3420982E-01
   7120.33  1.3065912E-01
   7120.67  1.2818296E-01
   7121.00  1.2712712E-01
   7121.33  1.2775227E-01
   7121.67  1.2947280E-01
   7122.00  1.3175726E-01
   7122.33  1.3419417E-01
   7122.67  1.3672669E-01
   7123.00  1.3955441E-01
   7123.33  1.4308100E-01
   7123.67  1.4749179E-01
   7124.00  1.5287996E-01
   7124.33  1.5934472E-01
   7124.67  1.6672049E-01
   7125.00  1.7502678E-01
   7125.33  1.8454012E-01
   7125.67  1.9539838E-01
   7126.00  2.0789690E-01
   7126.33  2.2259874E-01
   7126.67  2.3943919E-01
   7127.00  2.5843009E-01
   7127.33  2.7975004E-01
   7127.67  3.0309375E-01
   7128.00  3.2853289E-01
   7128.33  3.5651859E-01
   7128.67  3.8681937E-01
   7129.00  4.1941076E-01
   7129.33  4.5451208E-01
   7129.67  4.9159724E-01
   7130.00  5.3025604E-01
   7130.33  5.6996561E-01
   7130.67  6.0988843E-01
   7131.00  6.4937646E-01
   7131.33  6.8755008E-01
   7131.67  7.2388532E-01
   7132.00  7.5785958E-01
   7132.33  7.8851743E-01
   7132.67  8.1554270E-01
   7133.00  8.3812197E-01
   7133.33  8.5415426E-01
   7133.67  8.6253515E-01
   7134.00  8.6156722E-01
   7134.33  8.4840610E-01
   7134.67  8.2418814E-01
   7135.00  7.9005381E-01
   7135.33  7.4768933E-01
   7135.67  7.0118533E-01
   7136.00  6.5312763E-01
   7136.33  6.0611872E-01
   7136.67  5.6191929E-01
   7137.00  5.2173508E-01
   7137.33  4.8721030E-01
   7137.67  4.5833106E-01
   7138.00  4.3533191E-01
   7138.33  4.1896268E-01
   7138.67  4.0828329E-01
   7139.00  4.0297544E-01
   7139.33  4.0313800E-01
   7139.67  4.0754763E-01
   7140.00  4.1563080E-01
   7140.33  4.2708855E-01
   7140.67  4.4090802E-01
   7141.00  4.5659440E-01
   7141.33  4.7381780E-01
   7141.67  4.9199108E-01
   7142.00  5.1082035E-01
   7142.33  5.3007435E-01
   7142.67  5.4948079E-01
   7143.00  5.6887639E-01
   7143.33  5.8807012E-01
   7143.67  6.0692549E-01
   7144.00  6.2530790E-01
   7144.33  6.4298502E-01
   7144.67  6.5988553E-01
   7145.00  6.7588794E-01
   7145.33  6.9074132E-01
   7145.67  7.0447809E-01
   7146.00  7.1704293E-01
   7146.33  7.2825471E-01
   7146.67  7.3826750E-01
   7147.00  7.4710840E-01
   7147.33  7.5469133E-01
   7147.67  7.6122502E-01
   7148.00  7.6677452E-01
   7148.33  7.7130482E-01
   7148.67  7.7500555E-01
   7149.00  7.7793800E-01
   7149.33  7.8007920E-01
   7149.67  7.8157349E-01
   7150.00  7.8246162E-01
   7150.33  7.8271132E-01
   7150.67  7.8242753E-01
   7151.00  7.8164901E-01
   7151.33  7.8036216E-01
   7151.67  7.7864180E-01
   7152.00  7.7649567E-01
   7152.33  7.7387829E-01
   7152.67  7.7084648E-01
   7153.00  7.6740386E-01
   7153.33  7.6350681E-01
   7153.67  7.5920776E-01
   7154.00  7.5450413E-01
   7154.33  7.4934256E-01
   7154.67  7.4377326E-01
   7155.00  7.3779759E-01
   7155.33  7.3137002E-01
   7155.67  7.2454973E-01
   7156.00  7.1734776E-01
   7156.33  7.0973516E-01
   7156.67  7.0177960E-01
   7157.00  6.9350416E-01
   7157.33  6.8490190E-01
   7157.67  6.7604039E-01
   7158.00  6.6694813E-01
   7158.33  6.5763411E-01
   7158.67  6.4815558E-01
   7159.00  6.3853853E-01
   7159.33  6.2879743E-01
   7159.67  6.1897338E-01
   7160.00  6.0908805E-01
   7160.33  5.9915781E-01
   7160.67  5.8920461E-01
   7161.00  5.7924017E-01
   7161.33  5.6927632E-01
   7161.67  5.5932412E-01
   7162.00  5.4939314E-01
   7162.33  5.3949816E-01
   7162.67  5.2964578E-01
   7163.00  5.1984547E-01
   7163.33  5.1011709E-01
   7163.67  5.0046620E-01
   7164.00  4.9090604E-01
   7164.33  4.8146642E-01
   7164.67  4.7215126E-01
   7165.00  4.6297567E-01
   7165.33  4.5397633E-01
   7165.67  4.4514992E-01
   7166.00  4.3650974E-01
   7166.33  4.2809493E-01
   7166.67  4.1989303E-01
   7167.00  4.1191470E-01
   7167.33  4.0420082E-01
   7167.67  3.9673109E-01
   7168.00  3.8950757E-01
   7168.33  3.8255693E-01
   7168.67  3.7584738E-01
   7169.00  3.6938161E-01
   7169.33  3.6319708E-01
   7169.67  3.5726993E-01
   7170.00  3.5160736E-01
   7170.33  3.4625466E-01
   7170.67  3.4119715E-01
   7171.00  3.3646599E-01
   7171.33  3.3217834E-01
   7171.67  3.2841598E-01
   7172.00  3.2535165E-01
