    FDMNES
    energy     <xanes>
   7097.00  4.7345728E-03
   7097.33  4.8455067E-03
   7097.67  4.9617278E-03
   7098.00  5.0836206E-03
   7098.33  5.2124544E-03
   7098.67  5.3480173E-03
   7099.00  5.4908446E-03
   7099.33  5.6426321E-03
   7099.67  5.8031783E-03
   7100.00  5.9732508E-03
   7100.33  6.1551819E-03
   7100.67  6.3488186E-03
   7101.00  6.5552998E-03
   7101.33  6.7779461E-03
   7101.67  7.0167355E-03
   7102.00  7.2734276E-03
   7102.33  7.5529493E-03
   7102.67  7.8555937E-03
   7103.00  8.1842140E-03
   7103.33  8.5464982E-03
   7103.67  8.9434768E-03
   7104.00  9.3800611E-03
   7104.33  9.8690204E-03
   7104.67  1.0413158E-02
   7105.00  1.1021584E-02
   7105.33  1.1717267E-02
   7105.67  1.2507548E-02
   7106.00  1.3411053E-02
   7106.33  1.4473674E-02
   7106.67  1.5715644E-02
   7107.00  1.7180409E-02
   7107.33  1.8974015E-02
   7107.67  2.1159684E-02
   7108.00  2.3859881E-02
   7108.33  2.7378285E-02
   7108.67  3.1962151E-02
   7109.00  3.8074178E-02
   7109.33  4.6939766E-02
   7109.67  5.9977134E-02
   7110.00  7.9963448E-02
   7110.33  1.1488070E-01
   7110.67  1.7292455E-01
   7111.00  2.5454501E-01
   7111.33  3.3589221E-01
   7111.67  4.0289965E-01
   7112.00  4.4095499E-01
   7112.33  4.2208874E-01
   7112.67  3.6840880E-01
   7113.00  2.9979469E-01
   7113.33  2.3570380E-01
   7113.67  1.8627277E-01
   7114.00  1.5113735E-01
   7114.33  1.2769135E-01
   7114.67  1.1122718E-01
   7115.00  9.9653469E-02
   7115.33  9.1474668E-02
   7115.67  8.5153749E-02
   7116.00  8.0477257E-02
   7116.33  7.7964448E-02
   7116.67  7.7387597E-02
   7117.00  7.8467248E-02
   7117.33  8.1175422E-02
   7117.67  8.5347172E-02
   7118.00  9.0843806E-02
   7118.33  9.7128669E-02
   7118.67  1.0319310E-01
   7119.00  1.0816528E-01
   7119.33  1.1091514E-01
   7119.67  1.1205249E-01
   7120.00  1.1302933E-01
   7120.33  1.1573674E-01
   7120.67  1.2103104E-01
   7121.00  1.2928539E-01
   7121.33  1.4132623E-01
   7121.67  1.5727655E-01
   7122.00  1.7739223E-01
   7122.33  2.0226513E-01
   7122.67  2.3054560E-01
   7123.00  2.5996528E-01
   7123.33  2.8710658E-01
   7123.67  3.1131710E-01
   7124.00  3.3369253E-01
   7124.33  3.5426545E-01
   7124.67  3.7077518E-01
   7125.00  3.8055708E-01
   7125.33  3.8181086E-01
   7125.67  3.7792348E-01
   7126.00  3.7207050E-01
   7126.33  3.6667547E-01
   7126.67  3.6210930E-01
   7127.00  3.5793062E-01
   7127.33  3.5351040E-01
   7127.67  3.4854250E-01
   7128.00  3.4309602E-01
   7128.33  3.3775543E-01
   7128.67  3.3350749E-01
   7129.00  3.3125559E-01
   7129.33  3.3188557E-01
   7129.67  3.3479174E-01
   7130.00  3.3924643E-01
   7130.33  3.4456618E-01
   7130.67  3.5040266E-01
   7131.00  3.5694386E-01
   7131.33  3.6472031E-01
   7131.67  3.7398575E-01
   7132.00  3.8504504E-01
   7132.33  3.9845709E-01
   7132.67  4.1412866E-01
   7133.00  4.3203254E-01
   7133.33  4.5216830E-01
   7133.67  4.7387175E-01
   7134.00  4.9665705E-01
   7134.33  5.1965001E-01
   7134.67  5.4120167E-01
   7135.00  5.5917235E-01
   7135.33  5.7020837E-01
   7135.67  5.7415963E-01
   7136.00  5.7222394E-01
   7136.33  5.6655459E-01
   7136.67  5.5990316E-01
   7137.00  5.5368824E-01
   7137.33  5.4925625E-01
   7137.67  5.4717322E-01
   7138.00  5.4780105E-01
   7138.33  5.5156432E-01
   7138.67  5.5787027E-01
   7139.00  5.6631850E-01
   7139.33  5.7649880E-01
   7139.67  5.8757183E-01
   7140.00  5.9903954E-01
   7140.33  6.1048835E-01
   7140.67  6.2173839E-01
   7141.00  6.3278917E-01
   7141.33  6.4370575E-01
   7141.67  6.5455000E-01
   7142.00  6.6528753E-01
   7142.33  6.7577047E-01
   7142.67  6.8583665E-01
   7143.00  6.9527963E-01
   7143.33  7.0372736E-01
   7143.67  7.1104808E-01
   7144.00  7.1708370E-01
   7144.33  7.2157189E-01
   7144.67  7.2471880E-01
   7145.00  7.2665339E-01
   7145.33  7.2748208E-01
   7145.67  7.2757006E-01
   7146.00  7.2708134E-01
   7146.33  7.2607482E-01
   7146.67  7.2467345E-01
   7147.00  7.2293324E-01
   7147.33  7.2091523E-01
   7147.67  7.1876869E-01
   7148.00  7.1660084E-01
   7148.33  7.1453200E-01
   7148.67  7.1263081E-01
   7149.00  7.1094116E-01
   7149.33  7.0951697E-01
   7149.67  7.0832799E-01
   7150.00  7.0736909E-01
   7150.33  7.0667125E-01
   7150.67  7.0621264E-01
   7151.00  7.0599721E-01
   7151.33  7.0604783E-01
   7151.67  7.0630783E-01
   7152.00  7.0673279E-01
   7152.33  7.0725428E-01
   7152.67  7.0775410E-01
   7153.00  7.0812133E-01
   7153.33  7.0817837E-01
   7153.67  7.0781263E-01
   7154.00  7.0690425E-01
   7154.33  7.0524769E-01
   7154.67  7.0283061E-01
   7155.00  6.9959650E-01
   7155.33  6.9540308E-01
   7155.67  6.9035214E-01
   7156.00  6.8446008E-01
   7156.33  6.7765975E-01
   7156.67  6.7009195E-01
   7157.00  6.6179131E-01
   7157.33  6.5271516E-01
   7157.67  6.4299808E-01
   7158.00  6.3268268E-01
   7158.33  6.2176435E-01
   7158.67  6.1039510E-01
   7159.00  5.9866654E-01
   7159.33  5.8668336E-01
   7159.67  5.7462854E-01
   7160.00  5.6263785E-01
   7160.33  5.5089560E-01
   7160.67  5.3952152E-01
   7161.00  5.2862940E-01
   7161.33  5.1840865E-01
   7161.67  5.0887917E-01
   7162.00  5.0010658E-01
   7162.33  4.9225367E-01
   7162.67  4.8526610E-01
   7163.00  4.7917682E-01
   7163.33  4.7412947E-01
   7163.67  4.7002280E-01
   7164.00  4.6685708E-01
   7164.33  4.6473158E-01
   7164.67  4.6349536E-01
   7165.00  4.6310315E-01
   7165.33  4.6357863E-01
   7165.67  4.6472986E-01
   7166.00  4.6645778E-01
   7166.33  4.6867792E-01
   7166.67  4.7117604E-01
   7167.00  4.7380684E-01
   7167.33  4.7639723E-01
   7167.67  4.7879498E-01
   7168.00  4.8088418E-01
   7168.33  4.8251094E-01
   7168.67  4.8366449E-01
   7169.00  4.8432264E-01
   7169.33  4.8442826E-01
   7169.67  4.8407078E-01
   7170.00  4.8328686E-01
   7170.33  4.8208249E-01
   7170.67  4.8056757E-01
   7171.00  4.7880956E-01
   7171.33  4.7690207E-01
   7171.67  4.7503838E-01
   7172.00  4.7343824E-01
