    FDMNES
    energy     <xanes>
   7097.00  4.7854242E-03
   7097.33  4.8987544E-03
   7097.67  5.0175350E-03
   7098.00  5.1421643E-03
   7098.33  5.2739541E-03
   7098.67  5.4126885E-03
   7099.00  5.5589225E-03
   7099.33  5.7144101E-03
   7099.67  5.8789464E-03
   7100.00  6.0533275E-03
   7100.33  6.2399677E-03
   7100.67  6.4387125E-03
   7101.00  6.6507431E-03
   7101.33  6.8794983E-03
   7101.67  7.1249595E-03
   7102.00  7.3889509E-03
   7102.33  7.6765759E-03
   7102.67  7.9881406E-03
   7103.00  8.3266011E-03
   7103.33  8.6999176E-03
   7103.67  9.1091557E-03
   7104.00  9.5593958E-03
   7104.33  1.0063846E-02
   7104.67  1.0625391E-02
   7105.00  1.1253434E-02
   7105.33  1.1971684E-02
   7105.67  1.2787663E-02
   7106.00  1.3720529E-02
   7106.33  1.4817488E-02
   7106.67  1.6099171E-02
   7107.00  1.7610028E-02
   7107.33  1.9458519E-02
   7107.67  2.1708673E-02
   7108.00  2.4484773E-02
   7108.33  2.8094628E-02
   7108.67  3.2786136E-02
   7109.00  3.9023220E-02
   7109.33  4.8030908E-02
   7109.67  6.1211370E-02
   7110.00  8.1304875E-02
   7110.33  1.1616663E-01
   7110.67  1.7389243E-01
   7111.00  2.5549580E-01
   7111.33  3.4046748E-01
   7111.67  4.1855134E-01
   7112.00  4.7615355E-01
   7112.33  4.6689716E-01
   7112.67  4.0742260E-01
   7113.00  3.2973059E-01
   7113.33  2.5557086E-01
   7113.67  1.9743870E-01
   7114.00  1.5619559E-01
   7114.33  1.2895152E-01
   7114.67  1.0984646E-01
   7115.00  9.6497579E-02
   7115.33  8.7683571E-02
   7115.67  8.1642747E-02
   7116.00  7.7533717E-02
   7116.33  7.5237437E-02
   7116.67  7.4559189E-02
   7117.00  7.5294548E-02
   7117.33  7.7290676E-02
   7117.67  8.0354657E-02
   7118.00  8.4556687E-02
   7118.33  8.9899132E-02
   7118.67  9.5742722E-02
   7119.00  1.0138470E-01
   7119.33  1.0565442E-01
   7119.67  1.0838690E-01
   7120.00  1.1054632E-01
   7120.33  1.1380882E-01
   7120.67  1.1895806E-01
   7121.00  1.2633369E-01
   7121.33  1.3692032E-01
   7121.67  1.5150650E-01
   7122.00  1.7109217E-01
   7122.33  1.9691902E-01
   7122.67  2.2687921E-01
   7123.00  2.5709977E-01
   7123.33  2.8263827E-01
   7123.67  3.0472522E-01
   7124.00  3.2691444E-01
   7124.33  3.5122474E-01
   7124.67  3.7389138E-01
   7125.00  3.8964882E-01
   7125.33  3.9408288E-01
   7125.67  3.9080193E-01
   7126.00  3.8364094E-01
   7126.33  3.7543819E-01
   7126.67  3.6735329E-01
   7127.00  3.5980374E-01
   7127.33  3.5340569E-01
   7127.67  3.4821099E-01
   7128.00  3.4390728E-01
   7128.33  3.3988453E-01
   7128.67  3.3577430E-01
   7129.00  3.3179011E-01
   7129.33  3.2864656E-01
   7129.67  3.2695001E-01
   7130.00  3.2725914E-01
   7130.33  3.3037015E-01
   7130.67  3.3615458E-01
   7131.00  3.4458650E-01
   7131.33  3.5593216E-01
   7131.67  3.6981769E-01
   7132.00  3.8606987E-01
   7132.33  4.0436247E-01
   7132.67  4.2352808E-01
   7133.00  4.4267381E-01
   7133.33  4.6107987E-01
   7133.67  4.7898540E-01
   7134.00  4.9698906E-01
   7134.33  5.1562701E-01
   7134.67  5.3405735E-01
   7135.00  5.5022510E-01
   7135.33  5.6037045E-01
   7135.67  5.6363441E-01
   7136.00  5.6119275E-01
   7136.33  5.5597345E-01
   7136.67  5.5127628E-01
   7137.00  5.4851516E-01
   7137.33  5.4851213E-01
   7137.67  5.5088530E-01
   7138.00  5.5541500E-01
   7138.33  5.6197589E-01
   7138.67  5.6986526E-01
   7139.00  5.7858407E-01
   7139.33  5.8756638E-01
   7139.67  5.9631211E-01
   7140.00  6.0461116E-01
   7140.33  6.1243623E-01
   7140.67  6.2010728E-01
   7141.00  6.2794347E-01
   7141.33  6.3632629E-01
   7141.67  6.4537463E-01
   7142.00  6.5511319E-01
   7142.33  6.6549441E-01
   7142.67  6.7619749E-01
   7143.00  6.8693847E-01
   7143.33  6.9730559E-01
   7143.67  7.0696584E-01
   7144.00  7.1562260E-01
   7144.33  7.2283261E-01
   7144.67  7.2857232E-01
   7145.00  7.3277594E-01
   7145.33  7.3528544E-01
   7145.67  7.3641624E-01
   7146.00  7.3633247E-01
   7146.33  7.3513547E-01
   7146.67  7.3318206E-01
   7147.00  7.3066183E-01
   7147.33  7.2772758E-01
   7147.67  7.2460156E-01
   7148.00  7.2142239E-01
   7148.33  7.1835473E-01
   7148.67  7.1552115E-01
   7149.00  7.1300409E-01
   7149.33  7.1090612E-01
   7149.67  7.0921644E-01
   7150.00  7.0795261E-01
   7150.33  7.0716591E-01
   7150.67  7.0677451E-01
   7151.00  7.0673253E-01
   7151.33  7.0699881E-01
   7151.67  7.0744508E-01
   7152.00  7.0798107E-01
   7152.33  7.0849501E-01
   7152.67  7.0888282E-01
   7153.00  7.0905993E-01
   7153.33  7.0890192E-01
   7153.67  7.0837188E-01
   7154.00  7.0741512E-01
   7154.33  7.0591311E-01
   7154.67  7.0386967E-01
   7155.00  7.0123353E-01
   7155.33  6.9785801E-01
   7155.67  6.9375927E-01
   7156.00  6.8888505E-01
   7156.33  6.8308428E-01
   7156.67  6.7643367E-01
   7157.00  6.6893406E-01
   7157.33  6.6052105E-01
   7157.67  6.5138260E-01
   7158.00  6.4161957E-01
   7158.33  6.3129082E-01
   7158.67  6.2057635E-01
   7159.00  6.0957256E-01
   7159.33  5.9836036E-01
   7159.67  5.8706175E-01
   7160.00  5.7575369E-01
   7160.33  5.6452334E-01
   7160.67  5.5343803E-01
   7161.00  5.4256385E-01
   7161.33  5.3201560E-01
   7161.67  5.2183576E-01
   7162.00  5.1209120E-01
   7162.33  5.0292463E-01
   7162.67  4.9435654E-01
   7163.00  4.8646797E-01
   7163.33  4.7945867E-01
   7163.67  4.7333307E-01
   7164.00  4.6816834E-01
   7164.33  4.6415651E-01
   7164.67  4.6119607E-01
   7165.00  4.5927633E-01
   7165.33  4.5847076E-01
   7165.67  4.5857002E-01
   7166.00  4.5947927E-01
   7166.33  4.6115203E-01
   7166.67  4.6335115E-01
   7167.00  4.6593381E-01
   7167.33  4.6875202E-01
   7167.67  4.7160506E-01
   7168.00  4.7434959E-01
   7168.33  4.7680169E-01
   7168.67  4.7886705E-01
   7169.00  4.8046131E-01
   7169.33  4.8145073E-01
   7169.67  4.8187056E-01
   7170.00  4.8172024E-01
   7170.33  4.8096158E-01
   7170.67  4.7972414E-01
   7171.00  4.7809044E-01
   7171.33  4.7617314E-01
   7171.67  4.7423001E-01
   7172.00  4.7253263E-01
