    FDMNES
    energy     <xanes>
   7097.00  4.6823164E-03
   7097.33  4.7829453E-03
   7097.67  4.8877237E-03
   7098.00  4.9969102E-03
   7098.33  5.1114281E-03
   7098.67  5.2310510E-03
   7099.00  5.3561240E-03
   7099.33  5.4878290E-03
   7099.67  5.6259251E-03
   7100.00  5.7708842E-03
   7100.33  5.9242543E-03
   7100.67  6.0857914E-03
   7101.00  6.2561587E-03
   7101.33  6.4374393E-03
   7101.67  6.6294123E-03
   7102.00  6.8330405E-03
   7102.33  7.0512200E-03
   7102.67  7.2838112E-03
   7103.00  7.5322677E-03
   7103.33  7.8007775E-03
   7103.67  8.0894133E-03
   7104.00  8.4004771E-03
   7104.33  8.7403277E-03
   7104.67  9.1095549E-03
   7105.00  9.5120296E-03
   7105.33  9.9580260E-03
   7105.67  1.0449408E-02
   7106.00  1.0993214E-02
   7106.33  1.1607474E-02
   7106.67  1.2297411E-02
   7107.00  1.3077275E-02
   7107.33  1.3982642E-02
   7107.67  1.5028824E-02
   7108.00  1.6249757E-02
   7108.33  1.7729663E-02
   7108.67  1.9522240E-02
   7109.00  2.1733749E-02
   7109.33  2.4640251E-02
   7109.67  2.8516675E-02
   7110.00  3.3905034E-02
   7110.33  4.2302442E-02
   7110.67  5.4802264E-02
   7111.00  7.0048434E-02
   7111.33  8.3594236E-02
   7111.67  9.8620862E-02
   7112.00  1.1967538E-01
   7112.33  1.5479926E-01
   7112.67  2.0796229E-01
   7113.00  2.8753123E-01
   7113.33  3.9974647E-01
   7113.67  4.6839816E-01
   7114.00  4.2728873E-01
   7114.33  3.3420884E-01
   7114.67  2.5146553E-01
   7115.00  1.9541972E-01
   7115.33  1.7207723E-01
   7115.67  1.7173915E-01
   7116.00  1.8697181E-01
   7116.33  2.0185426E-01
   7116.67  2.0220145E-01
   7117.00  1.8650500E-01
   7117.33  1.6265964E-01
   7117.67  1.4403397E-01
   7118.00  1.3523592E-01
   7118.33  1.3782109E-01
   7118.67  1.4777224E-01
   7119.00  1.5932682E-01
   7119.33  1.6728129E-01
   7119.67  1.7347431E-01
   7120.00  1.7805982E-01
   7120.33  1.7608993E-01
   7120.67  1.6900224E-01
   7121.00  1.6262893E-01
   7121.33  1.6147732E-01
   7121.67  1.6430936E-01
   7122.00  1.6849241E-01
   7122.33  1.7070508E-01
   7122.67  1.7103119E-01
   7123.00  1.7161483E-01
   7123.33  1.7393115E-01
   7123.67  1.7688596E-01
   7124.00  1.8011921E-01
   7124.33  1.8475909E-01
   7124.67  1.9170944E-01
   7125.00  2.0127682E-01
   7125.33  2.1344248E-01
   7125.67  2.2713220E-01
   7126.00  2.4149327E-01
   7126.33  2.5553833E-01
   7126.67  2.6859808E-01
   7127.00  2.8045112E-01
   7127.33  2.9141767E-01
   7127.67  3.0266432E-01
   7128.00  3.1531147E-01
   7128.33  3.3087821E-01
   7128.67  3.4996738E-01
   7129.00  3.7313195E-01
   7129.33  4.0131067E-01
   7129.67  4.3412526E-01
   7130.00  4.7162436E-01
   7130.33  5.1432418E-01
   7130.67  5.6148176E-01
   7131.00  6.1275218E-01
   7131.33  6.6730193E-01
   7131.67  7.2216310E-01
   7132.00  7.7426976E-01
   7132.33  8.1964019E-01
   7132.67  8.5737515E-01
   7133.00  8.8751705E-01
   7133.33  9.1047186E-01
   7133.67  9.2883680E-01
   7134.00  9.4414231E-01
   7134.33  9.5729453E-01
   7134.67  9.6854310E-01
   7135.00  9.7700534E-01
   7135.33  9.8060629E-01
   7135.67  9.7860679E-01
   7136.00  9.7062387E-01
   7136.33  9.5652797E-01
   7136.67  9.3828544E-01
   7137.00  9.1712958E-01
   7137.33  8.9403727E-01
   7137.67  8.7015159E-01
   7138.00  8.4624777E-01
   7138.33  8.2350092E-01
   7138.67  8.0291656E-01
   7139.00  7.8536708E-01
   7139.33  7.7204289E-01
   7139.67  7.6283676E-01
   7140.00  7.5781730E-01
   7140.33  7.5732193E-01
   7140.67  7.6034801E-01
   7141.00  7.6606404E-01
   7141.33  7.7300516E-01
   7141.67  7.7878240E-01
   7142.00  7.8121794E-01
   7142.33  7.7746396E-01
   7142.67  7.6719878E-01
   7143.00  7.5076347E-01
   7143.33  7.2910639E-01
   7143.67  7.0486397E-01
   7144.00  6.7969739E-01
   7144.33  6.5514109E-01
   7144.67  6.3202227E-01
   7145.00  6.1072372E-01
   7145.33  5.9162410E-01
   7145.67  5.7441260E-01
   7146.00  5.5895795E-01
   7146.33  5.4529226E-01
   7146.67  5.3308669E-01
   7147.00  5.2227870E-01
   7147.33  5.1301563E-01
   7147.67  5.0511853E-01
   7148.00  4.9855521E-01
   7148.33  4.9336784E-01
   7148.67  4.8919888E-01
   7149.00  4.8580806E-01
   7149.33  4.8295704E-01
   7149.67  4.8033573E-01
   7150.00  4.7779052E-01
   7150.33  4.7523253E-01
   7150.67  4.7267263E-01
   7151.00  4.7017504E-01
   7151.33  4.6786896E-01
   7151.67  4.6584790E-01
   7152.00  4.6419900E-01
   7152.33  4.6305514E-01
   7152.67  4.6240507E-01
   7153.00  4.6226101E-01
   7153.33  4.6267002E-01
   7153.67  4.6353030E-01
   7154.00  4.6479054E-01
   7154.33  4.6641634E-01
   7154.67  4.6827989E-01
   7155.00  4.7030019E-01
   7155.33  4.7238845E-01
   7155.67  4.7444607E-01
   7156.00  4.7640449E-01
   7156.33  4.7817911E-01
   7156.67  4.7974566E-01
   7157.00  4.8108182E-01
   7157.33  4.8214827E-01
   7157.67  4.8297948E-01
   7158.00  4.8358660E-01
   7158.33  4.8396075E-01
   7158.67  4.8414534E-01
   7159.00  4.8415366E-01
   7159.33  4.8397763E-01
   7159.67  4.8364817E-01
   7160.00  4.8317362E-01
   7160.33  4.8254426E-01
   7160.67  4.8178344E-01
   7161.00  4.8089686E-01
   7161.33  4.7987871E-01
   7161.67  4.7875452E-01
   7162.00  4.7753589E-01
   7162.33  4.7623606E-01
   7162.67  4.7489451E-01
   7163.00  4.7353395E-01
   7163.33  4.7217540E-01
   7163.67  4.7083724E-01
   7164.00  4.6953222E-01
   7164.33  4.6827379E-01
   7164.67  4.6705820E-01
   7165.00  4.6588079E-01
   7165.33  4.6473269E-01
   7165.67  4.6359362E-01
   7166.00  4.6244689E-01
   7166.33  4.6126902E-01
   7166.67  4.6004604E-01
   7167.00  4.5876660E-01
   7167.33  4.5741429E-01
   7167.67  4.5599575E-01
   7168.00  4.5451584E-01
   7168.33  4.5297961E-01
   7168.67  4.5140961E-01
   7169.00  4.4982389E-01
   7169.33  4.4825117E-01
   7169.67  4.4671987E-01
   7170.00  4.4525097E-01
   7170.33  4.4387715E-01
   7170.67  4.4261102E-01
   7171.00  4.4147200E-01
   7171.33  4.4049917E-01
   7171.67  4.3969317E-01
   7172.00  4.3906733E-01
