    FDMNES
    energy     <xanes>
   7097.00  4.5337902E-03
   7097.33  4.6161608E-03
   7097.67  4.7013520E-03
   7098.00  4.7895125E-03
   7098.33  4.8812254E-03
   7098.67  4.9763024E-03
   7099.00  5.0749367E-03
   7099.33  5.1778506E-03
   7099.67  5.2848416E-03
   7100.00  5.3961676E-03
   7100.33  5.5127452E-03
   7100.67  5.6343636E-03
   7101.00  5.7613789E-03
   7101.33  5.8949899E-03
   7101.67  6.0349928E-03
   7102.00  6.1819009E-03
   7102.33  6.3373447E-03
   7102.67  6.5011649E-03
   7103.00  6.6741418E-03
   7103.33  6.8586102E-03
   7103.67  7.0545475E-03
   7104.00  7.2632231E-03
   7104.33  7.4882187E-03
   7104.67  7.7298826E-03
   7105.00  7.9904720E-03
   7105.33  8.2760153E-03
   7105.67  8.5878848E-03
   7106.00  8.9305901E-03
   7106.33  9.3156527E-03
   7106.67  9.7475325E-03
   7107.00  1.0236776E-02
   7107.33  1.0809681E-02
   7107.67  1.1481659E-02
   7108.00  1.2283497E-02
   7108.33  1.3292831E-02
   7108.67  1.4575646E-02
   7109.00  1.6257218E-02
   7109.33  1.8677028E-02
   7109.67  2.2254672E-02
   7110.00  2.7825455E-02
   7110.33  3.7823288E-02
   7110.67  5.4556974E-02
   7111.00  7.6312104E-02
   7111.33  8.7423355E-02
   7111.67  8.2543453E-02
   7112.00  7.0967955E-02
   7112.33  6.1851626E-02
   7112.67  5.5994884E-02
   7113.00  5.2367533E-02
   7113.33  5.0357207E-02
   7113.67  4.7148957E-02
   7114.00  4.1910359E-02
   7114.33  3.7771674E-02
   7114.67  3.5656872E-02
   7115.00  3.5229845E-02
   7115.33  3.6339936E-02
   7115.67  3.8695081E-02
   7116.00  4.2211408E-02
   7116.33  4.6716792E-02
   7116.67  5.1556223E-02
   7117.00  5.6226371E-02
   7117.33  6.0476242E-02
   7117.67  6.4774310E-02
   7118.00  6.9753945E-02
   7118.33  7.6359787E-02
   7118.67  8.5274833E-02
   7119.00  9.7452486E-02
   7119.33  1.1509345E-01
   7119.67  1.4022260E-01
   7120.00  1.7662019E-01
   7120.33  2.3375365E-01
   7120.67  3.1762867E-01
   7121.00  4.2434979E-01
   7121.33  5.1310609E-01
   7121.67  5.6360459E-01
   7122.00  5.7688174E-01
   7122.33  5.3301013E-01
   7122.67  4.7331827E-01
   7123.00  4.3521684E-01
   7123.33  4.3401259E-01
   7123.67  4.5955953E-01
   7124.00  5.0151722E-01
   7124.33  5.4341419E-01
   7124.67  5.7074103E-01
   7125.00  5.8106284E-01
   7125.33  5.8119631E-01
   7125.67  5.7993147E-01
   7126.00  5.8198300E-01
   7126.33  5.9767419E-01
   7126.67  6.3337709E-01
   7127.00  6.9012929E-01
   7127.33  7.6292618E-01
   7127.67  8.3517342E-01
   7128.00  8.9080724E-01
   7128.33  9.1214418E-01
   7128.67  9.0307062E-01
   7129.00  8.7359712E-01
   7129.33  8.3655633E-01
   7129.67  8.0275334E-01
   7130.00  7.7671359E-01
   7130.33  7.6023459E-01
   7130.67  7.4862055E-01
   7131.00  7.3578665E-01
   7131.33  7.1305002E-01
   7131.67  6.7908658E-01
   7132.00  6.3818030E-01
   7132.33  5.9911419E-01
   7132.67  5.6755337E-01
   7133.00  5.4349269E-01
   7133.33  5.2281843E-01
   7133.67  5.0072124E-01
   7134.00  4.7677187E-01
   7134.33  4.5445134E-01
   7134.67  4.3767247E-01
   7135.00  4.2824835E-01
   7135.33  4.2653118E-01
   7135.67  4.2934684E-01
   7136.00  4.3437038E-01
   7136.33  4.3957710E-01
   7136.67  4.4411135E-01
   7137.00  4.4821969E-01
   7137.33  4.5312434E-01
   7137.67  4.6038608E-01
   7138.00  4.7140023E-01
   7138.33  4.8748409E-01
   7138.67  5.0674771E-01
   7139.00  5.2595754E-01
   7139.33  5.3983771E-01
   7139.67  5.4648409E-01
   7140.00  5.4663788E-01
   7140.33  5.4219943E-01
   7140.67  5.3549952E-01
   7141.00  5.2714272E-01
   7141.33  5.1715072E-01
   7141.67  5.0609606E-01
   7142.00  4.9473047E-01
   7142.33  4.8442908E-01
   7142.67  4.7640183E-01
   7143.00  4.7157746E-01
   7143.33  4.7106964E-01
   7143.67  4.7445867E-01
   7144.00  4.8131068E-01
   7144.33  4.9085787E-01
   7144.67  5.0118555E-01
   7145.00  5.1056214E-01
   7145.33  5.1634253E-01
   7145.67  5.1673873E-01
   7146.00  5.1031654E-01
   7146.33  4.9562471E-01
   7146.67  4.7468463E-01
   7147.00  4.4958963E-01
   7147.33  4.2316823E-01
   7147.67  3.9820155E-01
   7148.00  3.7628457E-01
   7148.33  3.5898599E-01
   7148.67  3.4613074E-01
   7149.00  3.3757198E-01
   7149.33  3.3324605E-01
   7149.67  3.3185960E-01
   7150.00  3.3261836E-01
   7150.33  3.3486411E-01
   7150.67  3.3783806E-01
   7151.00  3.4123471E-01
   7151.33  3.4492682E-01
   7151.67  3.4882661E-01
   7152.00  3.5288964E-01
   7152.33  3.5702046E-01
   7152.67  3.6103733E-01
   7153.00  3.6474376E-01
   7153.33  3.6781751E-01
   7153.67  3.7009415E-01
   7154.00  3.7142216E-01
   7154.33  3.7158412E-01
   7154.67  3.7072458E-01
   7155.00  3.6892351E-01
   7155.33  3.6622144E-01
   7155.67  3.6289685E-01
   7156.00  3.5912632E-01
   7156.33  3.5510533E-01
   7156.67  3.5109433E-01
   7157.00  3.4729261E-01
   7157.33  3.4397522E-01
   7157.67  3.4128685E-01
   7158.00  3.3937234E-01
   7158.33  3.3847823E-01
   7158.67  3.3858404E-01
   7159.00  3.3973889E-01
   7159.33  3.4210498E-01
   7159.67  3.4554859E-01
   7160.00  3.5004786E-01
   7160.33  3.5568996E-01
   7160.67  3.6230754E-01
   7161.00  3.6986142E-01
   7161.33  3.7840365E-01
   7161.67  3.8774789E-01
   7162.00  3.9781257E-01
   7162.33  4.0856118E-01
   7162.67  4.1978899E-01
   7163.00  4.3137734E-01
   7163.33  4.4321644E-01
   7163.67  4.5515194E-01
   7164.00  4.6709167E-01
   7164.33  4.7894635E-01
   7164.67  4.9067545E-01
   7165.00  5.0225181E-01
   7165.33  5.1363514E-01
   7165.67  5.2483704E-01
   7166.00  5.3584876E-01
   7166.33  5.4662702E-01
   7166.67  5.5717039E-01
   7167.00  5.6745046E-01
   7167.33  5.7739995E-01
   7167.67  5.8703351E-01
   7168.00  5.9634133E-01
   7168.33  6.0528408E-01
   7168.67  6.1391396E-01
   7169.00  6.2224416E-01
   7169.33  6.3025181E-01
   7169.67  6.3797581E-01
   7170.00  6.4540601E-01
   7170.33  6.5247188E-01
   7170.67  6.5915998E-01
   7171.00  6.6539938E-01
   7171.33  6.7099567E-01
   7171.67  6.7583520E-01
   7172.00  6.7971692E-01
