    FDMNES
    energy     <xanes>
   7097.00  5.2393102E-03
   7097.33  5.3661020E-03
   7097.67  5.4987343E-03
   7098.00  5.6376027E-03
   7098.33  5.7840588E-03
   7098.67  5.9378253E-03
   7099.00  6.0994388E-03
   7099.33  6.2706624E-03
   7099.67  6.4512083E-03
   7100.00  6.6418230E-03
   7100.33  6.8448624E-03
   7100.67  7.0600514E-03
   7101.00  7.2884580E-03
   7101.33  7.5333209E-03
   7101.67  7.7944290E-03
   7102.00  8.0733627E-03
   7102.33  8.3747273E-03
   7102.67  8.6984879E-03
   7103.00  9.0470788E-03
   7103.33  9.4273213E-03
   7103.67  9.8396068E-03
   7104.00  1.0287873E-02
   7104.33  1.0782743E-02
   7104.67  1.1325617E-02
   7105.00  1.1923264E-02
   7105.33  1.2593310E-02
   7105.67  1.3339609E-02
   7106.00  1.4174747E-02
   7106.33  1.5130502E-02
   7106.67  1.6217144E-02
   7107.00  1.7460673E-02
   7107.33  1.8925313E-02
   7107.67  2.0640327E-02
   7108.00  2.2668205E-02
   7108.33  2.5162615E-02
   7108.67  2.8221887E-02
   7109.00  3.2036705E-02
   7109.33  3.7092901E-02
   7109.67  4.3845602E-02
   7110.00  5.3172781E-02
   7110.33  6.7505469E-02
   7110.67  8.9433548E-02
   7111.00  1.2112033E-01
   7111.33  1.6274649E-01
   7111.67  2.1651682E-01
   7112.00  2.8366370E-01
   7112.33  3.5763799E-01
   7112.67  4.4258759E-01
   7113.00  5.4020236E-01
   7113.33  6.0160428E-01
   7113.67  5.7363325E-01
   7114.00  4.8806000E-01
   7114.33  4.0351413E-01
   7114.67  3.3692553E-01
   7115.00  2.8929829E-01
   7115.33  2.6184811E-01
   7115.67  2.4902057E-01
   7116.00  2.4487645E-01
   7116.33  2.3902102E-01
   7116.67  2.2616112E-01
   7117.00  2.0965427E-01
   7117.33  1.9551014E-01
   7117.67  1.8552450E-01
   7118.00  1.7927195E-01
   7118.33  1.7608453E-01
   7118.67  1.7448799E-01
   7119.00  1.7307865E-01
   7119.33  1.6998434E-01
   7119.67  1.6461076E-01
   7120.00  1.5721472E-01
   7120.33  1.4896112E-01
   7120.67  1.4176613E-01
   7121.00  1.3677790E-01
   7121.33  1.3462169E-01
   7121.67  1.3472559E-01
   7122.00  1.3681540E-01
   7122.33  1.4084375E-01
   7122.67  1.4648473E-01
   7123.00  1.5380925E-01
   7123.33  1.6334233E-01
   7123.67  1.7532220E-01
   7124.00  1.9030686E-01
   7124.33  2.0949554E-01
   7124.67  2.3299847E-01
   7125.00  2.6078906E-01
   7125.33  2.9179012E-01
   7125.67  3.2241249E-01
   7126.00  3.4946170E-01
   7126.33  3.7000876E-01
   7126.67  3.8508366E-01
   7127.00  3.9648256E-01
   7127.33  4.0677145E-01
   7127.67  4.1848849E-01
   7128.00  4.3317290E-01
   7128.33  4.5234036E-01
   7128.67  4.7546744E-01
   7129.00  5.0181709E-01
   7129.33  5.3044613E-01
   7129.67  5.6010767E-01
   7130.00  5.9052692E-01
   7130.33  6.2227110E-01
   7130.67  6.5586239E-01
   7131.00  6.9154122E-01
   7131.33  7.2953964E-01
   7131.67  7.6972757E-01
   7132.00  8.1213654E-01
   7132.33  8.5621149E-01
   7132.67  9.0004473E-01
   7133.00  9.4135752E-01
   7133.33  9.7491356E-01
   7133.67  9.9508966E-01
   7134.00  9.9660098E-01
   7134.33  9.7499568E-01
   7134.67  9.3660563E-01
   7135.00  8.8705447E-01
   7135.33  8.3196477E-01
   7135.67  7.7644300E-01
   7136.00  7.2290968E-01
   7136.33  6.7342980E-01
   7136.67  6.2835644E-01
   7137.00  5.8802639E-01
   7137.33  5.5326406E-01
   7137.67  5.2357594E-01
   7138.00  4.9902577E-01
   7138.33  4.8022909E-01
   7138.67  4.6635336E-01
   7139.00  4.5706436E-01
   7139.33  4.5229753E-01
   7139.67  4.5086037E-01
   7140.00  4.5212057E-01
   7140.33  4.5561166E-01
   7140.67  4.6046255E-01
   7141.00  4.6624797E-01
   7141.33  4.7268396E-01
   7141.67  4.7947305E-01
   7142.00  4.8649829E-01
   7142.33  4.9369461E-01
   7142.67  5.0098147E-01
   7143.00  5.0830502E-01
   7143.33  5.1558612E-01
   7143.67  5.2274006E-01
   7144.00  5.2967994E-01
   7144.33  5.3625791E-01
   7144.67  5.4240575E-01
   7145.00  5.4803500E-01
   7145.33  5.5297862E-01
   7145.67  5.5724028E-01
   7146.00  5.6077544E-01
   7146.33  5.6346616E-01
   7146.67  5.6541696E-01
   7147.00  5.6666561E-01
   7147.33  5.6721277E-01
   7147.67  5.6724435E-01
   7148.00  5.6686385E-01
   7148.33  5.6616254E-01
   7148.67  5.6530224E-01
   7149.00  5.6438383E-01
   7149.33  5.6351837E-01
   7149.67  5.6278744E-01
   7150.00  5.6224707E-01
   7150.33  5.6197329E-01
   7150.67  5.6196761E-01
   7151.00  5.6224836E-01
   7151.33  5.6286768E-01
   7151.67  5.6379721E-01
   7152.00  5.6504387E-01
   7152.33  5.6665842E-01
   7152.67  5.6861267E-01
   7153.00  5.7091963E-01
   7153.33  5.7364069E-01
   7153.67  5.7674108E-01
   7154.00  5.8022507E-01
   7154.33  5.8413671E-01
   7154.67  5.8841137E-01
   7155.00  5.9301979E-01
   7155.33  5.9794274E-01
   7155.67  6.0306667E-01
   7156.00  6.0830373E-01
   7156.33  6.1352819E-01
   7156.67  6.1859744E-01
   7157.00  6.2337690E-01
   7157.33  6.2764840E-01
   7157.67  6.3131017E-01
   7158.00  6.3423644E-01
   7158.33  6.3619291E-01
   7158.67  6.3718980E-01
   7159.00  6.3717120E-01
   7159.33  6.3597691E-01
   7159.67  6.3374676E-01
   7160.00  6.3051834E-01
   7160.33  6.2625302E-01
   7160.67  6.2116764E-01
   7161.00  6.1535706E-01
   7161.33  6.0886908E-01
   7161.67  6.0191369E-01
   7162.00  5.9460658E-01
   7162.33  5.8704163E-01
   7162.67  5.7935422E-01
   7163.00  5.7162253E-01
   7163.33  5.6392546E-01
   7163.67  5.5631752E-01
   7164.00  5.4883643E-01
   7164.33  5.4153303E-01
   7164.67  5.3440706E-01
   7165.00  5.2746843E-01
   7165.33  5.2074708E-01
   7165.67  5.1421940E-01
   7166.00  5.0788234E-01
   7166.33  5.0175205E-01
   7166.67  4.9579547E-01
   7167.00  4.9000120E-01
   7167.33  4.8437218E-01
   7167.67  4.7887486E-01
   7168.00  4.7349793E-01
   7168.33  4.6824295E-01
   7168.67  4.6308628E-01
   7169.00  4.5802454E-01
   7169.33  4.5307294E-01
   7169.67  4.4822951E-01
   7170.00  4.4351023E-01
   7170.33  4.3896160E-01
   7170.67  4.3460427E-01
   7171.00  4.3048601E-01
   7171.33  4.2673014E-01
   7171.67  4.2343275E-01
   7172.00  4.2075980E-01
