    FDMNES
    energy     <xanes>
   7097.00  4.8522363E-03
   7097.33  4.9626773E-03
   7097.67  5.0779453E-03
   7098.00  5.1983603E-03
   7098.33  5.3250288E-03
   7098.67  5.4577142E-03
   7099.00  5.5968520E-03
   7099.33  5.7438844E-03
   7099.67  5.8985696E-03
   7100.00  6.0615166E-03
   7100.33  6.2346566E-03
   7100.67  6.4177650E-03
   7101.00  6.6117223E-03
   7101.33  6.8191982E-03
   7101.67  7.0400368E-03
   7102.00  7.2755605E-03
   7102.33  7.5296068E-03
   7102.67  7.8022020E-03
   7103.00  8.0954275E-03
   7103.33  8.4150678E-03
   7103.67  8.7615937E-03
   7104.00  9.1384736E-03
   7104.33  9.5549624E-03
   7104.67  1.0012608E-02
   7105.00  1.0517623E-02
   7105.33  1.1085988E-02
   7105.67  1.1721986E-02
   7106.00  1.2437838E-02
   7106.33  1.3264067E-02
   7106.67  1.4212570E-02
   7107.00  1.5310633E-02
   7107.33  1.6625277E-02
   7107.67  1.8192983E-02
   7108.00  2.0086774E-02
   7108.33  2.2487329E-02
   7108.67  2.5531540E-02
   7109.00  2.9477836E-02
   7109.33  3.5001864E-02
   7109.67  4.2839694E-02
   7110.00  5.4423390E-02
   7110.33  7.3852012E-02
   7110.67  1.0578234E-01
   7111.00  1.5366194E-01
   7111.33  2.1319305E-01
   7111.67  2.6324552E-01
   7112.00  2.8984884E-01
   7112.33  3.0658279E-01
   7112.67  3.0811217E-01
   7113.00  2.7785016E-01
   7113.33  2.3488875E-01
   7113.67  1.9992477E-01
   7114.00  1.7527722E-01
   7114.33  1.6172973E-01
   7114.67  1.5956845E-01
   7115.00  1.7093993E-01
   7115.33  1.9365464E-01
   7115.67  2.0390143E-01
   7116.00  1.8551096E-01
   7116.33  1.5463105E-01
   7116.67  1.3069209E-01
   7117.00  1.1578493E-01
   7117.33  1.0868840E-01
   7117.67  1.0674074E-01
   7118.00  1.0917677E-01
   7118.33  1.1617500E-01
   7118.67  1.2698979E-01
   7119.00  1.4079771E-01
   7119.33  1.5582869E-01
   7119.67  1.7081668E-01
   7120.00  1.8599807E-01
   7120.33  1.9912403E-01
   7120.67  2.0461775E-01
   7121.00  2.0365800E-01
   7121.33  2.0527253E-01
   7121.67  2.1355100E-01
   7122.00  2.2848088E-01
   7122.33  2.4934065E-01
   7122.67  2.7386915E-01
   7123.00  3.0099665E-01
   7123.33  3.2984423E-01
   7123.67  3.5907691E-01
   7124.00  3.8797248E-01
   7124.33  4.1633551E-01
   7124.67  4.4455091E-01
   7125.00  4.7283542E-01
   7125.33  5.0114616E-01
   7125.67  5.2897851E-01
   7126.00  5.5515204E-01
   7126.33  5.7683735E-01
   7126.67  5.9307181E-01
   7127.00  6.0429278E-01
   7127.33  6.1036624E-01
   7127.67  6.1142194E-01
   7128.00  6.0761086E-01
   7128.33  5.9999170E-01
   7128.67  5.9124097E-01
   7129.00  5.8324525E-01
   7129.33  5.7770223E-01
   7129.67  5.7467332E-01
   7130.00  5.7384545E-01
   7130.33  5.7487430E-01
   7130.67  5.7724204E-01
   7131.00  5.8095072E-01
   7131.33  5.8631542E-01
   7131.67  5.9319170E-01
   7132.00  6.0146386E-01
   7132.33  6.1093443E-01
   7132.67  6.2097438E-01
   7133.00  6.3117243E-01
   7133.33  6.4113235E-01
   7133.67  6.5046378E-01
   7134.00  6.5869172E-01
   7134.33  6.6505586E-01
   7134.67  6.6934517E-01
   7135.00  6.7134133E-01
   7135.33  6.7066099E-01
   7135.67  6.6770090E-01
   7136.00  6.6269089E-01
   7136.33  6.5584033E-01
   7136.67  6.4788138E-01
   7137.00  6.3931251E-01
   7137.33  6.3070508E-01
   7137.67  6.2258208E-01
   7138.00  6.1531630E-01
   7138.33  6.0939505E-01
   7138.67  6.0490562E-01
   7139.00  6.0196432E-01
   7139.33  6.0076242E-01
   7139.67  6.0098157E-01
   7140.00  6.0247445E-01
   7140.33  6.0518713E-01
   7140.67  6.0878490E-01
   7141.00  6.1309710E-01
   7141.33  6.1799890E-01
   7141.67  6.2325012E-01
   7142.00  6.2871799E-01
   7142.33  6.3428317E-01
   7142.67  6.3983306E-01
   7143.00  6.4530240E-01
   7143.33  6.5062022E-01
   7143.67  6.5576360E-01
   7144.00  6.6070043E-01
   7144.33  6.6535215E-01
   7144.67  6.6968203E-01
   7145.00  6.7360689E-01
   7145.33  6.7692826E-01
   7145.67  6.7954455E-01
   7146.00  6.8128837E-01
   7146.33  6.8182064E-01
   7146.67  6.8108558E-01
   7147.00  6.7895261E-01
   7147.33  6.7514371E-01
   7147.67  6.6983208E-01
   7148.00  6.6307134E-01
   7148.33  6.5482570E-01
   7148.67  6.4544489E-01
   7149.00  6.3511652E-01
   7149.33  6.2398413E-01
   7149.67  6.1236929E-01
   7150.00  6.0046392E-01
   7150.33  5.8846770E-01
   7150.67  5.7657647E-01
   7151.00  5.6492777E-01
   7151.33  5.5370508E-01
   7151.67  5.4297291E-01
   7152.00  5.3281146E-01
   7152.33  5.2337970E-01
   7152.67  5.1466063E-01
   7153.00  5.0670258E-01
   7153.33  4.9964914E-01
   7153.67  4.9342159E-01
   7154.00  4.8802597E-01
   7154.33  4.8356607E-01
   7154.67  4.7993179E-01
   7155.00  4.7711380E-01
   7155.33  4.7519622E-01
   7155.67  4.7405701E-01
   7156.00  4.7367146E-01
   7156.33  4.7409121E-01
   7156.67  4.7517659E-01
   7157.00  4.7687244E-01
   7157.33  4.7916379E-01
   7157.67  4.8188300E-01
   7158.00  4.8492597E-01
   7158.33  4.8817544E-01
   7158.67  4.9145165E-01
   7159.00  4.9461166E-01
   7159.33  4.9745220E-01
   7159.67  4.9985085E-01
   7160.00  5.0168953E-01
   7160.33  5.0277845E-01
   7160.67  5.0313477E-01
   7161.00  5.0273328E-01
   7161.33  5.0148942E-01
   7161.67  4.9954587E-01
   7162.00  4.9696496E-01
   7162.33  4.9376448E-01
   7162.67  4.9010793E-01
   7163.00  4.8607612E-01
   7163.33  4.8172151E-01
   7163.67  4.7715948E-01
   7164.00  4.7244888E-01
   7164.33  4.6763363E-01
   7164.67  4.6276780E-01
   7165.00  4.5787973E-01
   7165.33  4.5299597E-01
   7165.67  4.4813735E-01
   7166.00  4.4332002E-01
   7166.33  4.3857046E-01
   7166.67  4.3390330E-01
   7167.00  4.2934155E-01
   7167.33  4.2493344E-01
   7167.67  4.2069655E-01
   7168.00  4.1666286E-01
   7168.33  4.1290202E-01
   7168.67  4.0942380E-01
   7169.00  4.0626153E-01
   7169.33  4.0349367E-01
   7169.67  4.0110243E-01
   7170.00  3.9910103E-01
   7170.33  3.9754251E-01
   7170.67  3.9636713E-01
   7171.00  3.9555185E-01
   7171.33  3.9508656E-01
   7171.67  3.9484751E-01
   7172.00  3.9472643E-01
