    FDMNES
    energy     <xanes>
   7097.00  4.5622402E-03
   7097.33  4.6709899E-03
   7097.67  4.7849868E-03
   7098.00  4.9046227E-03
   7098.33  5.0311755E-03
   7098.67  5.1644510E-03
   7099.00  5.3050011E-03
   7099.33  5.4545509E-03
   7099.67  5.6129268E-03
   7100.00  5.7809315E-03
   7100.33  5.9609687E-03
   7100.67  6.1529327E-03
   7101.00  6.3580349E-03
   7101.33  6.5797525E-03
   7101.67  6.8181513E-03
   7102.00  7.0751404E-03
   7102.33  7.3559826E-03
   7102.67  7.6611462E-03
   7103.00  7.9938017E-03
   7103.33  8.3623637E-03
   7103.67  8.7682448E-03
   7104.00  9.2170607E-03
   7104.33  9.7232148E-03
   7104.67  1.0290424E-02
   7105.00  1.0929476E-02
   7105.33  1.1667267E-02
   7105.67  1.2513577E-02
   7106.00  1.3491438E-02
   7106.33  1.4657200E-02
   7106.67  1.6038581E-02
   7107.00  1.7692354E-02
   7107.33  1.9756992E-02
   7107.67  2.2323488E-02
   7108.00  2.5563901E-02
   7108.33  2.9908723E-02
   7108.67  3.5741366E-02
   7109.00  4.3778059E-02
   7109.33  5.5958162E-02
   7109.67  7.4713677E-02
   7110.00  1.0487165E-01
   7110.33  1.6048723E-01
   7110.67  2.5483550E-01
   7111.00  3.7811899E-01
   7111.33  4.3977506E-01
   7111.67  4.0240187E-01
   7112.00  3.3632454E-01
   7112.33  2.8969856E-01
   7112.67  2.4619780E-01
   7113.00  1.9888440E-01
   7113.33  1.5399065E-01
   7113.67  1.1816561E-01
   7114.00  9.3940218E-02
   7114.33  8.0601874E-02
   7114.67  7.3744183E-02
   7115.00  6.9196300E-02
   7115.33  6.2270211E-02
   7115.67  5.6122044E-02
   7116.00  5.2861030E-02
   7116.33  5.0934718E-02
   7116.67  4.7804574E-02
   7117.00  4.3997544E-02
   7117.33  4.1262099E-02
   7117.67  3.9919418E-02
   7118.00  3.9820398E-02
   7118.33  4.0880398E-02
   7118.67  4.2834034E-02
   7119.00  4.5612768E-02
   7119.33  4.9239176E-02
   7119.67  5.3617094E-02
   7120.00  5.9024684E-02
   7120.33  6.6415897E-02
   7120.67  7.6498968E-02
   7121.00  9.0149249E-02
   7121.33  1.0814961E-01
   7121.67  1.2629684E-01
   7122.00  1.3730601E-01
   7122.33  1.3609367E-01
   7122.67  1.2948511E-01
   7123.00  1.2334487E-01
   7123.33  1.2227229E-01
   7123.67  1.2683508E-01
   7124.00  1.3701507E-01
   7124.33  1.5340574E-01
   7124.67  1.7554572E-01
   7125.00  2.0389129E-01
   7125.33  2.3969495E-01
   7125.67  2.8129505E-01
   7126.00  3.2519005E-01
   7126.33  3.6178876E-01
   7126.67  3.8385791E-01
   7127.00  3.9161697E-01
   7127.33  3.8860993E-01
   7127.67  3.8038198E-01
   7128.00  3.7200541E-01
   7128.33  3.6985397E-01
   7128.67  3.7552060E-01
   7129.00  3.8924077E-01
   7129.33  4.1163839E-01
   7129.67  4.4090964E-01
   7130.00  4.7633164E-01
   7130.33  5.1823297E-01
   7130.67  5.6609610E-01
   7131.00  6.2051542E-01
   7131.33  6.8317388E-01
   7131.67  7.5208142E-01
   7132.00  8.2093107E-01
   7132.33  8.6954453E-01
   7132.67  8.8422810E-01
   7133.00  8.7263659E-01
   7133.33  8.5959349E-01
   7133.67  8.6116214E-01
   7134.00  8.8091311E-01
   7134.33  9.2222522E-01
   7134.67  9.8480681E-01
   7135.00  1.0707747E+00
   7135.33  1.1786659E+00
   7135.67  1.2812227E+00
   7136.00  1.3355008E+00
   7136.33  1.2924906E+00
   7136.67  1.1846888E+00
   7137.00  1.0577091E+00
   7137.33  9.4757700E-01
   7137.67  8.6062442E-01
   7138.00  7.9437854E-01
   7138.33  7.4582010E-01
   7138.67  7.0873169E-01
   7139.00  6.8048630E-01
   7139.33  6.5982889E-01
   7139.67  6.4455390E-01
   7140.00  6.3389365E-01
   7140.33  6.2776726E-01
   7140.67  6.2530921E-01
   7141.00  6.2632056E-01
   7141.33  6.3105637E-01
   7141.67  6.3897154E-01
   7142.00  6.4991298E-01
   7142.33  6.6390133E-01
   7142.67  6.8002890E-01
   7143.00  6.9752262E-01
   7143.33  7.1510068E-01
   7143.67  7.3109458E-01
   7144.00  7.4394124E-01
   7144.33  7.5139026E-01
   7144.67  7.5297667E-01
   7145.00  7.4848990E-01
   7145.33  7.3785465E-01
   7145.67  7.2304295E-01
   7146.00  7.0540750E-01
   7146.33  6.8631051E-01
   7146.67  6.6715796E-01
   7147.00  6.4871799E-01
   7147.33  6.3170593E-01
   7147.67  6.1622187E-01
   7148.00  6.0231831E-01
   7148.33  5.9010264E-01
   7148.67  5.7920308E-01
   7149.00  5.6942378E-01
   7149.33  5.6062446E-01
   7149.67  5.5244728E-01
   7150.00  5.4469024E-01
   7150.33  5.3714842E-01
   7150.67  5.2957892E-01
   7151.00  5.2180669E-01
   7151.33  5.1359333E-01
   7151.67  5.0481812E-01
   7152.00  4.9535518E-01
   7152.33  4.8498188E-01
   7152.67  4.7371318E-01
   7153.00  4.6151733E-01
   7153.33  4.4829108E-01
   7153.67  4.3420409E-01
   7154.00  4.1934914E-01
   7154.33  4.0381743E-01
   7154.67  3.8791457E-01
   7155.00  3.7189849E-01
   7155.33  3.5613515E-01
   7155.67  3.4091611E-01
   7156.00  3.2648805E-01
   7156.33  3.1322048E-01
   7156.67  3.0116677E-01
   7157.00  2.9043501E-01
   7157.33  2.8126954E-01
   7157.67  2.7350905E-01
   7158.00  2.6712503E-01
   7158.33  2.6221340E-01
   7158.67  2.5851808E-01
   7159.00  2.5594825E-01
   7159.33  2.5451872E-01
   7159.67  2.5399097E-01
   7160.00  2.5427293E-01
   7160.33  2.5535342E-01
   7160.67  2.5705410E-01
   7161.00  2.5930790E-01
   7161.33  2.6211137E-01
   7161.67  2.6535448E-01
   7162.00  2.6900669E-01
   7162.33  2.7309150E-01
   7162.67  2.7754601E-01
   7163.00  2.8235687E-01
   7163.33  2.8753209E-01
   7163.67  2.9296398E-01
   7164.00  2.9855779E-01
   7164.33  3.0416256E-01
   7164.67  3.0959791E-01
   7165.00  3.1471295E-01
   7165.33  3.1931013E-01
   7165.67  3.2336943E-01
   7166.00  3.2688077E-01
   7166.33  3.2982725E-01
   7166.67  3.3236291E-01
   7167.00  3.3458645E-01
   7167.33  3.3659540E-01
   7167.67  3.3852829E-01
   7168.00  3.4047196E-01
   7168.33  3.4252365E-01
   7168.67  3.4473800E-01
   7169.00  3.4715736E-01
   7169.33  3.4984432E-01
   7169.67  3.5278371E-01
   7170.00  3.5597227E-01
   7170.33  3.5941402E-01
   7170.67  3.6303021E-01
   7171.00  3.6674858E-01
   7171.33  3.7042654E-01
   7171.67  3.7383180E-01
   7172.00  3.7666700E-01
