    FDMNES
    energy     <xanes>
   7097.00  5.2164002E-03
   7097.33  5.3401723E-03
   7097.67  5.4696443E-03
   7098.00  5.6052066E-03
   7098.33  5.7481863E-03
   7098.67  5.8983196E-03
   7099.00  6.0561393E-03
   7099.33  6.2233841E-03
   7099.67  6.3997844E-03
   7100.00  6.5860861E-03
   7100.33  6.7846259E-03
   7100.67  6.9951548E-03
   7101.00  7.2187486E-03
   7101.33  7.4586442E-03
   7101.67  7.7146706E-03
   7102.00  7.9884368E-03
   7102.33  8.2845899E-03
   7102.67  8.6031655E-03
   7103.00  8.9466749E-03
   7103.33  9.3220888E-03
   7103.67  9.7299382E-03
   7104.00  1.0174355E-02
   7104.33  1.0666379E-02
   7104.67  1.1207724E-02
   7105.00  1.1805653E-02
   7105.33  1.2478912E-02
   7105.67  1.3232149E-02
   7106.00  1.4079289E-02
   7106.33  1.5055233E-02
   7106.67  1.6172587E-02
   7107.00  1.7461382E-02
   7107.33  1.8995516E-02
   7107.67  2.0812442E-02
   7108.00  2.2989005E-02
   7108.33  2.5714886E-02
   7108.67  2.9125044E-02
   7109.00  3.3476830E-02
   7109.33  3.9437342E-02
   7109.67  4.7698845E-02
   7110.00  5.9606604E-02
   7110.33  7.8992728E-02
   7110.67  1.1028838E-01
   7111.00  1.5721845E-01
   7111.33  2.1491727E-01
   7111.67  2.6895814E-01
   7112.00  3.1155132E-01
   7112.33  3.3742188E-01
   7112.67  3.6529221E-01
   7113.00  4.1168016E-01
   7113.33  4.5667402E-01
   7113.67  4.7122165E-01
   7114.00  4.5457305E-01
   7114.33  4.0634464E-01
   7114.67  3.4865750E-01
   7115.00  2.9893873E-01
   7115.33  2.6509101E-01
   7115.67  2.4317258E-01
   7116.00  2.2970699E-01
   7116.33  2.2125570E-01
   7116.67  2.1335111E-01
   7117.00  2.0200373E-01
   7117.33  1.8427864E-01
   7117.67  1.6480726E-01
   7118.00  1.4801050E-01
   7118.33  1.3651215E-01
   7118.67  1.2949474E-01
   7119.00  1.2621970E-01
   7119.33  1.2580247E-01
   7119.67  1.2648322E-01
   7120.00  1.2728094E-01
   7120.33  1.2762983E-01
   7120.67  1.2744535E-01
   7121.00  1.2667253E-01
   7121.33  1.2538091E-01
   7121.67  1.2423349E-01
   7122.00  1.2406700E-01
   7122.33  1.2597815E-01
   7122.67  1.3012617E-01
   7123.00  1.3651903E-01
   7123.33  1.4528427E-01
   7123.67  1.5600615E-01
   7124.00  1.6862071E-01
   7124.33  1.8345481E-01
   7124.67  2.0039159E-01
   7125.00  2.1935897E-01
   7125.33  2.4024636E-01
   7125.67  2.6255688E-01
   7126.00  2.8625423E-01
   7126.33  3.1145830E-01
   7126.67  3.3712189E-01
   7127.00  3.6151185E-01
   7127.33  3.8259423E-01
   7127.67  4.0137519E-01
   7128.00  4.2016011E-01
   7128.33  4.4192660E-01
   7128.67  4.6739576E-01
   7129.00  4.9631522E-01
   7129.33  5.2844683E-01
   7129.67  5.6297759E-01
   7130.00  5.9950959E-01
   7130.33  6.3738669E-01
   7130.67  6.7523966E-01
   7131.00  7.1205455E-01
   7131.33  7.4718645E-01
   7131.67  7.8131632E-01
   7132.00  8.1510357E-01
   7132.33  8.4876335E-01
   7132.67  8.8176585E-01
   7133.00  9.1324339E-01
   7133.33  9.4153905E-01
   7133.67  9.6529680E-01
   7134.00  9.8268368E-01
   7134.33  9.9042536E-01
   7134.67  9.8811965E-01
   7135.00  9.7565622E-01
   7135.33  9.5320171E-01
   7135.67  9.2406088E-01
   7136.00  8.9026072E-01
   7136.33  8.5355575E-01
   7136.67  8.1591330E-01
   7137.00  7.7844538E-01
   7137.33  7.4235669E-01
   7137.67  7.0835981E-01
   7138.00  6.7707192E-01
   7138.33  6.4945359E-01
   7138.67  6.2543136E-01
   7139.00  6.0509158E-01
   7139.33  5.8874344E-01
   7139.67  5.7560377E-01
   7140.00  5.6527793E-01
   7140.33  5.5754373E-01
   7140.67  5.5161522E-01
   7141.00  5.4711619E-01
   7141.33  5.4381414E-01
   7141.67  5.4127947E-01
   7142.00  5.3929886E-01
   7142.33  5.3769691E-01
   7142.67  5.3623726E-01
   7143.00  5.3476918E-01
   7143.33  5.3311809E-01
   7143.67  5.3118075E-01
   7144.00  5.2888264E-01
   7144.33  5.2612917E-01
   7144.67  5.2297469E-01
   7145.00  5.1945800E-01
   7145.33  5.1562223E-01
   7145.67  5.1160531E-01
   7146.00  5.0750325E-01
   7146.33  5.0342779E-01
   7146.67  4.9947153E-01
   7147.00  4.9570033E-01
   7147.33  4.9219409E-01
   7147.67  4.8894008E-01
   7148.00  4.8593450E-01
   7148.33  4.8319596E-01
   7148.67  4.8068157E-01
   7149.00  4.7837936E-01
   7149.33  4.7630677E-01
   7149.67  4.7444192E-01
   7150.00  4.7279509E-01
   7150.33  4.7141809E-01
   7150.67  4.7031511E-01
   7151.00  4.6952535E-01
   7151.33  4.6915055E-01
   7151.67  4.6920779E-01
   7152.00  4.6975353E-01
   7152.33  4.7091848E-01
   7152.67  4.7268354E-01
   7153.00  4.7507481E-01
   7153.33  4.7817508E-01
   7153.67  4.8187652E-01
   7154.00  4.8612667E-01
   7154.33  4.9089384E-01
   7154.67  4.9600973E-01
   7155.00  5.0136885E-01
   7155.33  5.0685596E-01
   7155.67  5.1232282E-01
   7156.00  5.1765618E-01
   7156.33  5.2270072E-01
   7156.67  5.2737761E-01
   7157.00  5.3160326E-01
   7157.33  5.3522970E-01
   7157.67  5.3826183E-01
   7158.00  5.4066421E-01
   7158.33  5.4233670E-01
   7158.67  5.4336571E-01
   7159.00  5.4377452E-01
   7159.33  5.4353851E-01
   7159.67  5.4279400E-01
   7160.00  5.4160694E-01
   7160.33  5.4001934E-01
   7160.67  5.3816574E-01
   7161.00  5.3611813E-01
   7161.33  5.3393913E-01
   7161.67  5.3171053E-01
   7162.00  5.2948099E-01
   7162.33  5.2730213E-01
   7162.67  5.2519645E-01
   7163.00  5.2317324E-01
   7163.33  5.2125477E-01
   7163.67  5.1943832E-01
   7164.00  5.1772549E-01
   7164.33  5.1612269E-01
   7164.67  5.1460729E-01
   7165.00  5.1316861E-01
   7165.33  5.1180010E-01
   7165.67  5.1047927E-01
   7166.00  5.0919441E-01
   7166.33  5.0793549E-01
   7166.67  5.0668814E-01
   7167.00  5.0544442E-01
   7167.33  5.0419623E-01
   7167.67  5.0293770E-01
   7168.00  5.0166483E-01
   7168.33  5.0037279E-01
   7168.67  4.9906313E-01
   7169.00  4.9773812E-01
   7169.33  4.9640380E-01
   7169.67  4.9506714E-01
   7170.00  4.9373262E-01
   7170.33  4.9240965E-01
   7170.67  4.9110919E-01
   7171.00  4.8984704E-01
   7171.33  4.8866217E-01
   7171.67  4.8759996E-01
   7172.00  4.8672938E-01
