    FDMNES
    energy     <xanes>
   7097.00  5.0753836E-03
   7097.33  5.1961930E-03
   7097.67  5.3226377E-03
   7098.00  5.4551104E-03
   7098.33  5.5949347E-03
   7098.67  5.7418594E-03
   7099.00  5.8964231E-03
   7099.33  6.0603689E-03
   7099.67  6.2334438E-03
   7100.00  6.4164063E-03
   7100.33  6.6116130E-03
   7100.67  6.8188382E-03
   7101.00  7.0391837E-03
   7101.33  7.2759358E-03
   7101.67  7.5289600E-03
   7102.00  7.7999167E-03
   7102.33  8.0935620E-03
   7102.67  8.4099939E-03
   7103.00  8.7518272E-03
   7103.33  9.1262629E-03
   7103.67  9.5339522E-03
   7104.00  9.9792425E-03
   7104.33  1.0473668E-02
   7104.67  1.1019198E-02
   7105.00  1.1623576E-02
   7105.33  1.2306656E-02
   7105.67  1.3073715E-02
   7106.00  1.3939834E-02
   7106.33  1.4942643E-02
   7106.67  1.6096518E-02
   7107.00  1.7434701E-02
   7107.33  1.9038836E-02
   7107.67  2.0952458E-02
   7108.00  2.3263381E-02
   7108.33  2.6189027E-02
   7108.67  2.9892403E-02
   7109.00  3.4683178E-02
   7109.33  4.1374593E-02
   7109.67  5.0860927E-02
   7110.00  6.4892715E-02
   7110.33  8.8431417E-02
   7110.67  1.2617018E-01
   7111.00  1.7756342E-01
   7111.33  2.3166492E-01
   7111.67  2.8278901E-01
   7112.00  3.1868027E-01
   7112.33  3.3536695E-01
   7112.67  3.5844667E-01
   7113.00  4.0987638E-01
   7113.33  4.8455952E-01
   7113.67  5.1763910E-01
   7114.00  4.7256549E-01
   7114.33  3.8731792E-01
   7114.67  3.1337694E-01
   7115.00  2.5992215E-01
   7115.33  2.2548551E-01
   7115.67  2.0249527E-01
   7116.00  1.8690940E-01
   7116.33  1.7443856E-01
   7116.67  1.6031112E-01
   7117.00  1.4316193E-01
   7117.33  1.2610444E-01
   7117.67  1.1272980E-01
   7118.00  1.0364509E-01
   7118.33  9.8658618E-02
   7118.67  9.6839587E-02
   7119.00  9.8036730E-02
   7119.33  1.0198259E-01
   7119.67  1.0663484E-01
   7120.00  1.1006507E-01
   7120.33  1.1101998E-01
   7120.67  1.1038832E-01
   7121.00  1.0909834E-01
   7121.33  1.0798829E-01
   7121.67  1.0748711E-01
   7122.00  1.0787181E-01
   7122.33  1.0972785E-01
   7122.67  1.1345255E-01
   7123.00  1.1952552E-01
   7123.33  1.2857409E-01
   7123.67  1.4013310E-01
   7124.00  1.5389421E-01
   7124.33  1.6962129E-01
   7124.67  1.8634379E-01
   7125.00  2.0323884E-01
   7125.33  2.1948282E-01
   7125.67  2.3484296E-01
   7126.00  2.4935482E-01
   7126.33  2.6321922E-01
   7126.67  2.7678107E-01
   7127.00  2.9017810E-01
   7127.33  3.0368731E-01
   7127.67  3.1781722E-01
   7128.00  3.3326722E-01
   7128.33  3.5157623E-01
   7128.67  3.7411353E-01
   7129.00  4.0244451E-01
   7129.33  4.3872728E-01
   7129.67  4.8201605E-01
   7130.00  5.3088191E-01
   7130.33  5.8273217E-01
   7130.67  6.3398634E-01
   7131.00  6.8261724E-01
   7131.33  7.2734458E-01
   7131.67  7.6864621E-01
   7132.00  8.0618703E-01
   7132.33  8.3807966E-01
   7132.67  8.6362922E-01
   7133.00  8.8256041E-01
   7133.33  8.9519024E-01
   7133.67  9.0422961E-01
   7134.00  9.1156351E-01
   7134.33  9.1843818E-01
   7134.67  9.2462018E-01
   7135.00  9.2915058E-01
   7135.33  9.3052613E-01
   7135.67  9.2804675E-01
   7136.00  9.2105226E-01
   7136.33  9.0884551E-01
   7136.67  8.9270772E-01
   7137.00  8.7370968E-01
   7137.33  8.5309604E-01
   7137.67  8.3236736E-01
   7138.00  8.1245647E-01
   7138.33  7.9438268E-01
   7138.67  7.7845860E-01
   7139.00  7.6487477E-01
   7139.33  7.5380161E-01
   7139.67  7.4447912E-01
   7140.00  7.3623672E-01
   7140.33  7.2816823E-01
   7140.67  7.1944554E-01
   7141.00  7.0969249E-01
   7141.33  6.9884512E-01
   7141.67  6.8748275E-01
   7142.00  6.7605370E-01
   7142.33  6.6483527E-01
   7142.67  6.5362509E-01
   7143.00  6.4201820E-01
   7143.33  6.2939958E-01
   7143.67  6.1557441E-01
   7144.00  6.0052240E-01
   7144.33  5.8435678E-01
   7144.67  5.6761813E-01
   7145.00  5.5071605E-01
   7145.33  5.3413684E-01
   7145.67  5.1821650E-01
   7146.00  5.0319711E-01
   7146.33  4.8941104E-01
   7146.67  4.7683828E-01
   7147.00  4.6553016E-01
   7147.33  4.5566139E-01
   7147.67  4.4704946E-01
   7148.00  4.3965243E-01
   7148.33  4.3354631E-01
   7148.67  4.2850278E-01
   7149.00  4.2443312E-01
   7149.33  4.2133526E-01
   7149.67  4.1899957E-01
   7150.00  4.1734907E-01
   7150.33  4.1638547E-01
   7150.67  4.1597948E-01
   7151.00  4.1610199E-01
   7151.33  4.1679590E-01
   7151.67  4.1798498E-01
   7152.00  4.1965935E-01
   7152.33  4.2186147E-01
   7152.67  4.2450633E-01
   7153.00  4.2755861E-01
   7153.33  4.3100105E-01
   7153.67  4.3470650E-01
   7154.00  4.3858863E-01
   7154.33  4.4254652E-01
   7154.67  4.4646233E-01
   7155.00  4.5025354E-01
   7155.33  4.5382813E-01
   7155.67  4.5718260E-01
   7156.00  4.6032680E-01
   7156.33  4.6328123E-01
   7156.67  4.6612271E-01
   7157.00  4.6889474E-01
   7157.33  4.7162518E-01
   7157.67  4.7432514E-01
   7158.00  4.7697941E-01
   7158.33  4.7954016E-01
   7158.67  4.8196458E-01
   7159.00  4.8419773E-01
   7159.33  4.8613896E-01
   7159.67  4.8775886E-01
   7160.00  4.8901683E-01
   7160.33  4.8983685E-01
   7160.67  4.9026305E-01
   7161.00  4.9030766E-01
   7161.33  4.8995327E-01
   7161.67  4.8927740E-01
   7162.00  4.8830839E-01
   7162.33  4.8703444E-01
   7162.67  4.8550156E-01
   7163.00  4.8372192E-01
   7163.33  4.8168580E-01
   7163.67  4.7944650E-01
   7164.00  4.7703169E-01
   7164.33  4.7446934E-01
   7164.67  4.7183463E-01
   7165.00  4.6918712E-01
   7165.33  4.6661072E-01
   7165.67  4.6417705E-01
   7166.00  4.6195264E-01
   7166.33  4.6004160E-01
   7166.67  4.5846535E-01
   7167.00  4.5725943E-01
   7167.33  4.5649763E-01
   7167.67  4.5613655E-01
   7168.00  4.5616785E-01
   7168.33  4.5661783E-01
   7168.67  4.5741445E-01
   7169.00  4.5852747E-01
   7169.33  4.5995000E-01
   7169.67  4.6160482E-01
   7170.00  4.6345449E-01
   7170.33  4.6547195E-01
   7170.67  4.6758718E-01
   7171.00  4.6974679E-01
   7171.33  4.7186029E-01
   7171.67  4.7379805E-01
   7172.00  4.7539494E-01
