    FDMNES
    energy     <xanes>
   7097.00  5.3900197E-03
   7097.33  5.5251611E-03
   7097.67  5.6667597E-03
   7098.00  5.8152678E-03
   7098.33  5.9722047E-03
   7098.67  6.1372840E-03
   7099.00  6.3111244E-03
   7099.33  6.4957252E-03
   7099.67  6.6907957E-03
   7100.00  6.8972042E-03
   7100.33  7.1176488E-03
   7100.67  7.3518648E-03
   7101.00  7.6011076E-03
   7101.33  7.8691272E-03
   7101.67  8.1557527E-03
   7102.00  8.4628627E-03
   7102.33  8.7958554E-03
   7102.67  9.1548007E-03
   7103.00  9.5426295E-03
   7103.33  9.9674474E-03
   7103.67  1.0429894E-02
   7104.00  1.0934779E-02
   7104.33  1.1494922E-02
   7104.67  1.2112303E-02
   7105.00  1.2795321E-02
   7105.33  1.3565636E-02
   7105.67  1.4428492E-02
   7106.00  1.5399800E-02
   7106.33  1.6519431E-02
   7106.67  1.7801263E-02
   7107.00  1.9278896E-02
   7107.33  2.1034935E-02
   7107.67  2.3109263E-02
   7108.00  2.5584868E-02
   7108.33  2.8665702E-02
   7108.67  3.2488729E-02
   7109.00  3.7316710E-02
   7109.33  4.3823247E-02
   7109.67  5.2667946E-02
   7110.00  6.5124096E-02
   7110.33  8.4702750E-02
   7110.67  1.1469173E-01
   7111.00  1.5601428E-01
   7111.33  2.0804006E-01
   7111.67  2.7980905E-01
   7112.00  3.7749468E-01
   7112.33  4.9914941E-01
   7112.67  6.2497607E-01
   7113.00  7.0813052E-01
   7113.33  6.7287828E-01
   7113.67  5.6205366E-01
   7114.00  4.4274432E-01
   7114.33  3.5372388E-01
   7114.67  2.9235169E-01
   7115.00  2.5243458E-01
   7115.33  2.2960464E-01
   7115.67  2.1757654E-01
   7116.00  2.1268491E-01
   7116.33  2.0928549E-01
   7116.67  2.0201796E-01
   7117.00  1.9000054E-01
   7117.33  1.7554547E-01
   7117.67  1.6217836E-01
   7118.00  1.5140992E-01
   7118.33  1.4381502E-01
   7118.67  1.3850068E-01
   7119.00  1.3484664E-01
   7119.33  1.3223812E-01
   7119.67  1.2993408E-01
   7120.00  1.2770723E-01
   7120.33  1.2590596E-01
   7120.67  1.2498477E-01
   7121.00  1.2494830E-01
   7121.33  1.2552404E-01
   7121.67  1.2668667E-01
   7122.00  1.2872969E-01
   7122.33  1.3194331E-01
   7122.67  1.3609843E-01
   7123.00  1.4105064E-01
   7123.33  1.4680560E-01
   7123.67  1.5336377E-01
   7124.00  1.6095628E-01
   7124.33  1.7016486E-01
   7124.67  1.8127683E-01
   7125.00  1.9468730E-01
   7125.33  2.1110402E-01
   7125.67  2.3032403E-01
   7126.00  2.5209511E-01
   7126.33  2.7587687E-01
   7126.67  3.0062939E-01
   7127.00  3.2602563E-01
   7127.33  3.5226188E-01
   7127.67  3.7951024E-01
   7128.00  4.0794002E-01
   7128.33  4.3825693E-01
   7128.67  4.7174611E-01
   7129.00  5.1023249E-01
   7129.33  5.5567368E-01
   7129.67  6.0619929E-01
   7130.00  6.5933744E-01
   7130.33  7.1200803E-01
   7130.67  7.6269009E-01
   7131.00  8.1164011E-01
   7131.33  8.6033626E-01
   7131.67  9.1039954E-01
   7132.00  9.6234083E-01
   7132.33  1.0148555E+00
   7132.67  1.0636727E+00
   7133.00  1.1029676E+00
   7133.33  1.1227961E+00
   7133.67  1.1196105E+00
   7134.00  1.0925059E+00
   7134.33  1.0431000E+00
   7134.67  9.8121967E-01
   7135.00  9.1327962E-01
   7135.33  8.4496666E-01
   7135.67  7.7986664E-01
   7136.00  7.1967505E-01
   7136.33  6.6615017E-01
   7136.67  6.1900208E-01
   7137.00  5.7838755E-01
   7137.33  5.4515236E-01
   7137.67  5.1835231E-01
   7138.00  4.9773459E-01
   7138.33  4.8349600E-01
   7138.67  4.7418258E-01
   7139.00  4.6903408E-01
   7139.33  4.6756266E-01
   7139.67  4.6857506E-01
   7140.00  4.7154373E-01
   7140.33  4.7621575E-01
   7140.67  4.8210487E-01
   7141.00  4.8903087E-01
   7141.33  4.9693754E-01
   7141.67  5.0556782E-01
   7142.00  5.1479064E-01
   7142.33  5.2448724E-01
   7142.67  5.3440300E-01
   7143.00  5.4433654E-01
   7143.33  5.5399432E-01
   7143.67  5.6312651E-01
   7144.00  5.7149476E-01
   7144.33  5.7872335E-01
   7144.67  5.8474760E-01
   7145.00  5.8946657E-01
   7145.33  5.9267397E-01
   7145.67  5.9457311E-01
   7146.00  5.9524495E-01
   7146.33  5.9469561E-01
   7146.67  5.9323529E-01
   7147.00  5.9102498E-01
   7147.33  5.8818031E-01
   7147.67  5.8494538E-01
   7148.00  5.8145374E-01
   7148.33  5.7782448E-01
   7148.67  5.7418384E-01
   7149.00  5.7060967E-01
   7149.33  5.6719517E-01
   7149.67  5.6398323E-01
   7150.00  5.6101154E-01
   7150.33  5.5834764E-01
   7150.67  5.5598698E-01
   7151.00  5.5395402E-01
   7151.33  5.5232151E-01
   7151.67  5.5107424E-01
   7152.00  5.5023881E-01
   7152.33  5.4990315E-01
   7152.67  5.5004288E-01
   7153.00  5.5067985E-01
   7153.33  5.5189205E-01
   7153.67  5.5361193E-01
   7154.00  5.5581811E-01
   7154.33  5.5851545E-01
   7154.67  5.6157159E-01
   7155.00  5.6489849E-01
   7155.33  5.6839247E-01
   7155.67  5.7190026E-01
   7156.00  5.7530460E-01
   7156.33  5.7844811E-01
   7156.67  5.8124889E-01
   7157.00  5.8363072E-01
   7157.33  5.8546906E-01
   7157.67  5.8678629E-01
   7158.00  5.8756816E-01
   7158.33  5.8774772E-01
   7158.67  5.8740502E-01
   7159.00  5.8655842E-01
   7159.33  5.8517397E-01
   7159.67  5.8333903E-01
   7160.00  5.8107688E-01
   7160.33  5.7836133E-01
   7160.67  5.7526294E-01
   7161.00  5.7179802E-01
   7161.33  5.6794252E-01
   7161.67  5.6375568E-01
   7162.00  5.5924983E-01
   7162.33  5.5440712E-01
   7162.67  5.4928798E-01
   7163.00  5.4391331E-01
   7163.33  5.3827941E-01
   7163.67  5.3244119E-01
   7164.00  5.2642161E-01
   7164.33  5.2022787E-01
   7164.67  5.1390740E-01
   7165.00  5.0748581E-01
   7165.33  5.0098494E-01
   7165.67  4.9444626E-01
   7166.00  4.8789878E-01
   7166.33  4.8137852E-01
   7166.67  4.7491590E-01
   7167.00  4.6854034E-01
   7167.33  4.6229999E-01
   7167.67  4.5621182E-01
   7168.00  4.5030382E-01
   7168.33  4.4463711E-01
   7168.67  4.3921711E-01
   7169.00  4.3406439E-01
   7169.33  4.2923345E-01
   7169.67  4.2470499E-01
   7170.00  4.2049176E-01
   7170.33  4.1664696E-01
   7170.67  4.1314080E-01
   7171.00  4.0998513E-01
   7171.33  4.0724941E-01
   7171.67  4.0493120E-01
   7172.00  4.0308693E-01
