    FDMNES
    energy     <xanes>
   7097.00  4.3019148E-03
   7097.33  4.3877466E-03
   7097.67  4.4767592E-03
   7098.00  4.5691320E-03
   7098.33  4.6655419E-03
   7098.67  4.7657912E-03
   7099.00  4.8701158E-03
   7099.33  4.9793649E-03
   7099.67  5.0933269E-03
   7100.00  5.2123196E-03
   7100.33  5.3374348E-03
   7100.67  5.4684541E-03
   7101.00  5.6058200E-03
   7101.33  5.7509779E-03
   7101.67  5.9037218E-03
   7102.00  6.0646920E-03
   7102.33  6.2358748E-03
   7102.67  6.4171210E-03
   7103.00  6.6094035E-03
   7103.33  6.8155851E-03
   7103.67  7.0356796E-03
   7104.00  7.2712595E-03
   7104.33  7.5267140E-03
   7104.67  7.8024858E-03
   7105.00  8.1013246E-03
   7105.33  8.4305411E-03
   7105.67  8.7917202E-03
   7106.00  9.1902017E-03
   7106.33  9.6396133E-03
   7106.67  1.0144853E-02
   7107.00  1.0717879E-02
   7107.33  1.1388463E-02
   7107.67  1.2172695E-02
   7108.00  1.3103420E-02
   7108.33  1.4262865E-02
   7108.67  1.5715730E-02
   7109.00  1.7585375E-02
   7109.33  2.0200612E-02
   7109.67  2.3942591E-02
   7110.00  2.9562462E-02
   7110.33  3.9202261E-02
   7110.67  5.4767216E-02
   7111.00  7.5095445E-02
   7111.33  9.3812975E-02
   7111.67  1.1298627E-01
   7112.00  1.2583057E-01
   7112.33  1.1461975E-01
   7112.67  9.7531283E-02
   7113.00  8.2705637E-02
   7113.33  7.0873413E-02
   7113.67  6.3123965E-02
   7114.00  5.9077909E-02
   7114.33  5.8093937E-02
   7114.67  5.9188368E-02
   7115.00  6.2082398E-02
   7115.33  6.6846493E-02
   7115.67  7.3249213E-02
   7116.00  8.1316930E-02
   7116.33  9.1312849E-02
   7116.67  1.0306190E-01
   7117.00  1.1657629E-01
   7117.33  1.3206292E-01
   7117.67  1.4924655E-01
   7118.00  1.6804906E-01
   7118.33  1.8856617E-01
   7118.67  2.1054060E-01
   7119.00  2.3396094E-01
   7119.33  2.5907367E-01
   7119.67  2.8579499E-01
   7120.00  3.1415154E-01
   7120.33  3.4399730E-01
   7120.67  3.7407794E-01
   7121.00  4.0260813E-01
   7121.33  4.2625990E-01
   7121.67  4.4306929E-01
   7122.00  4.5204346E-01
   7122.33  4.5303146E-01
   7122.67  4.4944141E-01
   7123.00  4.4399793E-01
   7123.33  4.3915835E-01
   7123.67  4.3585135E-01
   7124.00  4.3428266E-01
   7124.33  4.3494598E-01
   7124.67  4.3803689E-01
   7125.00  4.4383557E-01
   7125.33  4.5267603E-01
   7125.67  4.6398481E-01
   7126.00  4.7743557E-01
   7126.33  4.9261005E-01
   7126.67  5.0839300E-01
   7127.00  5.2377564E-01
   7127.33  5.3728838E-01
   7127.67  5.4803841E-01
   7128.00  5.5541308E-01
   7128.33  5.5883932E-01
   7128.67  5.5924188E-01
   7129.00  5.5733673E-01
   7129.33  5.5385559E-01
   7129.67  5.4974964E-01
   7130.00  5.4549688E-01
   7130.33  5.4146722E-01
   7130.67  5.3782648E-01
   7131.00  5.3465015E-01
   7131.33  5.3201872E-01
   7131.67  5.2985933E-01
   7132.00  5.2813975E-01
   7132.33  5.2683051E-01
   7132.67  5.2576726E-01
   7133.00  5.2482539E-01
   7133.33  5.2386240E-01
   7133.67  5.2278402E-01
   7134.00  5.2156430E-01
   7134.33  5.2022955E-01
   7134.67  5.1888276E-01
   7135.00  5.1761232E-01
   7135.33  5.1651989E-01
   7135.67  5.1562257E-01
   7136.00  5.1491196E-01
   7136.33  5.1436883E-01
   7136.67  5.1392987E-01
   7137.00  5.1356343E-01
   7137.33  5.1325506E-01
   7137.67  5.1299756E-01
   7138.00  5.1280507E-01
   7138.33  5.1271835E-01
   7138.67  5.1276223E-01
   7139.00  5.1296956E-01
   7139.33  5.1340065E-01
   7139.67  5.1406036E-01
   7140.00  5.1496890E-01
   7140.33  5.1617887E-01
   7140.67  5.1767545E-01
   7141.00  5.1947866E-01
   7141.33  5.2165813E-01
   7141.67  5.2418540E-01
   7142.00  5.2705031E-01
   7142.33  5.3027449E-01
   7142.67  5.3380133E-01
   7143.00  5.3761381E-01
   7143.33  5.4171661E-01
   7143.67  5.4603842E-01
   7144.00  5.5053397E-01
   7144.33  5.5515466E-01
   7144.67  5.5982169E-01
   7145.00  5.6448051E-01
   7145.33  5.6906556E-01
   7145.67  5.7353918E-01
   7146.00  5.7787363E-01
   7146.33  5.8203196E-01
   7146.67  5.8603134E-01
   7147.00  5.8987944E-01
   7147.33  5.9357933E-01
   7147.67  5.9718081E-01
   7148.00  6.0071503E-01
   7148.33  6.0420195E-01
   7148.67  6.0766234E-01
   7149.00  6.1110172E-01
   7149.33  6.1451246E-01
   7149.67  6.1788071E-01
   7150.00  6.2118172E-01
   7150.33  6.2436295E-01
   7150.67  6.2739015E-01
   7151.00  6.3021854E-01
   7151.33  6.3276348E-01
   7151.67  6.3500477E-01
   7152.00  6.3690126E-01
   7152.33  6.3836402E-01
   7152.67  6.3941031E-01
   7153.00  6.4002216E-01
   7153.33  6.4013285E-01
   7153.67  6.3979711E-01
   7154.00  6.3902162E-01
   7154.33  6.3776854E-01
   7154.67  6.3611245E-01
   7155.00  6.3407527E-01
   7155.33  6.3164140E-01
   7155.67  6.2888611E-01
   7156.00  6.2583733E-01
   7156.33  6.2249502E-01
   7156.67  6.1892377E-01
   7157.00  6.1515006E-01
   7157.33  6.1117985E-01
   7157.67  6.0705816E-01
   7158.00  6.0280263E-01
   7158.33  5.9841775E-01
   7158.67  5.9393388E-01
   7159.00  5.8936228E-01
   7159.33  5.8470434E-01
   7159.67  5.7997887E-01
   7160.00  5.7519202E-01
   7160.33  5.7034110E-01
   7160.67  5.6543617E-01
   7161.00  5.6047930E-01
   7161.33  5.5546363E-01
   7161.67  5.5038913E-01
   7162.00  5.4525270E-01
   7162.33  5.4006218E-01
   7162.67  5.3483891E-01
   7163.00  5.2958426E-01
   7163.33  5.2429211E-01
   7163.67  5.1896718E-01
   7164.00  5.1361262E-01
   7164.33  5.0823095E-01
   7164.67  5.0283260E-01
   7165.00  4.9742488E-01
   7165.33  4.9201629E-01
   7165.67  4.8661680E-01
   7166.00  4.8123644E-01
   7166.33  4.7589216E-01
   7166.67  4.7059416E-01
   7167.00  4.6535479E-01
   7167.33  4.6019579E-01
   7167.67  4.5512043E-01
   7168.00  4.5013980E-01
   7168.33  4.4528071E-01
   7168.67  4.4054361E-01
   7169.00  4.3594125E-01
   7169.33  4.3150717E-01
   7169.67  4.2723760E-01
   7170.00  4.2314678E-01
   7170.33  4.1927876E-01
   7170.67  4.1563353E-01
   7171.00  4.1224058E-01
   7171.33  4.0919116E-01
   7171.67  4.0653843E-01
   7172.00  4.0439638E-01
