    FDMNES
    energy     <xanes>
   7097.00  4.3496826E-03
   7097.33  4.4414240E-03
   7097.67  4.5369246E-03
   7098.00  4.6364243E-03
   7098.33  4.7407704E-03
   7098.67  4.8497674E-03
   7099.00  4.9637412E-03
   7099.33  5.0837890E-03
   7099.67  5.2097107E-03
   7100.00  5.3419609E-03
   7100.33  5.4820013E-03
   7100.67  5.6296439E-03
   7101.00  5.7855457E-03
   7101.33  5.9517197E-03
   7101.67  6.1280296E-03
   7102.00  6.3154635E-03
   7102.33  6.5169088E-03
   7102.67  6.7323695E-03
   7103.00  6.9634058E-03
   7103.33  7.2143720E-03
   7103.67  7.4856166E-03
   7104.00  7.7797556E-03
   7104.33  8.1037800E-03
   7104.67  8.4588819E-03
   7105.00  8.8497898E-03
   7105.33  9.2886647E-03
   7105.67  9.7788660E-03
   7106.00  1.0329816E-02
   7106.33  1.0965028E-02
   7106.67  1.1693984E-02
   7107.00  1.2538099E-02
   7107.33  1.3549973E-02
   7107.67  1.4759247E-02
   7108.00  1.6224665E-02
   7108.33  1.8091968E-02
   7108.67  2.0475473E-02
   7109.00  2.3590506E-02
   7109.33  2.8004501E-02
   7109.67  3.4357116E-02
   7110.00  4.3899895E-02
   7110.33  6.0249540E-02
   7110.67  8.7497776E-02
   7111.00  1.2759222E-01
   7111.33  1.6894850E-01
   7111.67  1.9593481E-01
   7112.00  2.1043484E-01
   7112.33  2.2150105E-01
   7112.67  2.2110564E-01
   7113.00  2.0241784E-01
   7113.33  1.7274481E-01
   7113.67  1.4735036E-01
   7114.00  1.2894248E-01
   7114.33  1.1061481E-01
   7114.67  9.2276956E-02
   7115.00  7.8745136E-02
   7115.33  7.0888634E-02
   7115.67  6.5798120E-02
   7116.00  6.2355492E-02
   7116.33  6.0674493E-02
   7116.67  6.0597266E-02
   7117.00  6.2022788E-02
   7117.33  6.5025064E-02
   7117.67  6.9247280E-02
   7118.00  7.4302150E-02
   7118.33  7.9840266E-02
   7118.67  8.6078061E-02
   7119.00  9.3535679E-02
   7119.33  1.0283397E-01
   7119.67  1.1397516E-01
   7120.00  1.2707507E-01
   7120.33  1.4252310E-01
   7120.67  1.6017554E-01
   7121.00  1.8010084E-01
   7121.33  2.0259359E-01
   7121.67  2.2726165E-01
   7122.00  2.5385434E-01
   7122.33  2.8189835E-01
   7122.67  3.1015841E-01
   7123.00  3.3752200E-01
   7123.33  3.6253114E-01
   7123.67  3.8474699E-01
   7124.00  4.0437675E-01
   7124.33  4.2180992E-01
   7124.67  4.3709154E-01
   7125.00  4.4936180E-01
   7125.33  4.5757023E-01
   7125.67  4.6279952E-01
   7126.00  4.6597646E-01
   7126.33  4.6758501E-01
   7126.67  4.6831201E-01
   7127.00  4.6880180E-01
   7127.33  4.6993361E-01
   7127.67  4.7216327E-01
   7128.00  4.7563116E-01
   7128.33  4.8052177E-01
   7128.67  4.8675820E-01
   7129.00  4.9435414E-01
   7129.33  5.0322080E-01
   7129.67  5.1285424E-01
   7130.00  5.2304474E-01
   7130.33  5.3374862E-01
   7130.67  5.4482394E-01
   7131.00  5.5627744E-01
   7131.33  5.6869747E-01
   7131.67  5.8319474E-01
   7132.00  6.0116939E-01
   7132.33  6.2449352E-01
   7132.67  6.5254044E-01
   7133.00  6.8377691E-01
   7133.33  7.1501429E-01
   7133.67  7.4293011E-01
   7134.00  7.6563137E-01
   7134.33  7.8111438E-01
   7134.67  7.8910454E-01
   7135.00  7.8898391E-01
   7135.33  7.8058547E-01
   7135.67  7.6709241E-01
   7136.00  7.5081093E-01
   7136.33  7.3392617E-01
   7136.67  7.1798506E-01
   7137.00  7.0368571E-01
   7137.33  6.9160380E-01
   7137.67  6.8147075E-01
   7138.00  6.7309576E-01
   7138.33  6.6633719E-01
   7138.67  6.6064846E-01
   7139.00  6.5571107E-01
   7139.33  6.5123681E-01
   7139.67  6.4690413E-01
   7140.00  6.4255775E-01
   7140.33  6.3810116E-01
   7140.67  6.3355522E-01
   7141.00  6.2898107E-01
   7141.33  6.2448921E-01
   7141.67  6.2017296E-01
   7142.00  6.1610325E-01
   7142.33  6.1237167E-01
   7142.67  6.0896817E-01
   7143.00  6.0590567E-01
   7143.33  6.0324807E-01
   7143.67  6.0098630E-01
   7144.00  5.9916132E-01
   7144.33  5.9787639E-01
   7144.67  5.9711554E-01
   7145.00  5.9692163E-01
   7145.33  5.9741639E-01
   7145.67  5.9855088E-01
   7146.00  6.0032873E-01
   7146.33  6.0280662E-01
   7146.67  6.0585931E-01
   7147.00  6.0942528E-01
   7147.33  6.1345514E-01
   7147.67  6.1776385E-01
   7148.00  6.2221566E-01
   7148.33  6.2661422E-01
   7148.67  6.3073350E-01
   7149.00  6.3434157E-01
   7149.33  6.3703984E-01
   7149.67  6.3863296E-01
   7150.00  6.3889530E-01
   7150.33  6.3744893E-01
   7150.67  6.3441001E-01
   7151.00  6.2981796E-01
   7151.33  6.2365231E-01
   7151.67  6.1632633E-01
   7152.00  6.0808011E-01
   7152.33  5.9911287E-01
   7152.67  5.8975005E-01
   7153.00  5.8015901E-01
   7153.33  5.7046595E-01
   7153.67  5.6076280E-01
   7154.00  5.5108214E-01
   7154.33  5.4143613E-01
   7154.67  5.3181502E-01
   7155.00  5.2220887E-01
   7155.33  5.1260094E-01
   7155.67  5.0298086E-01
   7156.00  4.9334980E-01
   7156.33  4.8372171E-01
   7156.67  4.7412487E-01
   7157.00  4.6459527E-01
   7157.33  4.5519348E-01
   7157.67  4.4595395E-01
   7158.00  4.3692017E-01
   7158.33  4.2817453E-01
   7158.67  4.1973472E-01
   7159.00  4.1164360E-01
   7159.33  4.0400071E-01
   7159.67  3.9680628E-01
   7160.00  3.9010401E-01
   7160.33  3.8401168E-01
   7160.67  3.7850651E-01
   7161.00  3.7361996E-01
   7161.33  3.6946224E-01
   7161.67  3.6597056E-01
   7162.00  3.6314870E-01
   7162.33  3.6106814E-01
   7162.67  3.5961634E-01
   7163.00  3.5875208E-01
   7163.33  3.5848782E-01
   7163.67  3.5869908E-01
   7164.00  3.5933174E-01
   7164.33  3.6036293E-01
   7164.67  3.6167975E-01
   7165.00  3.6322424E-01
   7165.33  3.6495287E-01
   7165.67  3.6678829E-01
   7166.00  3.6868923E-01
   7166.33  3.7062057E-01
   7166.67  3.7255134E-01
   7167.00  3.7446664E-01
   7167.33  3.7635472E-01
   7167.67  3.7821562E-01
   7168.00  3.8004896E-01
   7168.33  3.8185296E-01
   7168.67  3.8363309E-01
   7169.00  3.8539039E-01
   7169.33  3.8712092E-01
   7169.67  3.8882390E-01
   7170.00  3.9049389E-01
   7170.33  3.9211659E-01
   7170.67  3.9368423E-01
   7171.00  3.9518006E-01
   7171.33  3.9655913E-01
   7171.67  3.9777721E-01
   7172.00  3.9876048E-01
