    FDMNES
    energy     <xanes>
   7097.00  4.3741215E-03
   7097.33  4.4704045E-03
   7097.67  4.5708864E-03
   7098.00  4.6758499E-03
   7098.33  4.7862656E-03
   7098.67  4.9019347E-03
   7099.00  5.0232445E-03
   7099.33  5.1514671E-03
   7099.67  5.2864023E-03
   7100.00  5.4285961E-03
   7100.33  5.5797628E-03
   7100.67  5.7397238E-03
   7101.00  5.9092743E-03
   7101.33  6.0908036E-03
   7101.67  6.2842042E-03
   7102.00  6.4906821E-03
   7102.33  6.7137032E-03
   7102.67  6.9533437E-03
   7103.00  7.2115215E-03
   7103.33  7.4935194E-03
   7103.67  7.7998550E-03
   7104.00  8.1337644E-03
   7104.33  8.5038126E-03
   7104.67  8.9115890E-03
   7105.00  9.3629774E-03
   7105.33  9.8730099E-03
   7105.67  1.0446025E-02
   7106.00  1.1093818E-02
   7106.33  1.1845706E-02
   7106.67  1.2713825E-02
   7107.00  1.3725183E-02
   7107.33  1.4946024E-02
   7107.67  1.6414411E-02
   7108.00  1.8205299E-02
   7108.33  2.0504903E-02
   7108.67  2.3462047E-02
   7109.00  2.7356887E-02
   7109.33  3.2931360E-02
   7109.67  4.1038289E-02
   7110.00  5.3353257E-02
   7110.33  7.4762452E-02
   7110.67  1.1099709E-01
   7111.00  1.6527492E-01
   7111.33  2.1599133E-01
   7111.67  2.2686814E-01
   7112.00  2.1778668E-01
   7112.33  2.1784265E-01
   7112.67  2.2474617E-01
   7113.00  2.3095590E-01
   7113.33  2.3267703E-01
   7113.67  2.2972422E-01
   7114.00  2.2371240E-01
   7114.33  2.1606410E-01
   7114.67  1.9853424E-01
   7115.00  1.7102433E-01
   7115.33  1.4432298E-01
   7115.67  1.2425917E-01
   7116.00  1.0961724E-01
   7116.33  9.7260141E-02
   7116.67  8.6655043E-02
   7117.00  7.8580672E-02
   7117.33  7.3030415E-02
   7117.67  6.9649081E-02
   7118.00  6.8474993E-02
   7118.33  6.9596131E-02
   7118.67  7.2459982E-02
   7119.00  7.6610220E-02
   7119.33  8.1230849E-02
   7119.67  8.5686524E-02
   7120.00  9.0327572E-02
   7120.33  9.6220526E-02
   7120.67  1.0386971E-01
   7121.00  1.1351357E-01
   7121.33  1.2560321E-01
   7121.67  1.4004640E-01
   7122.00  1.5696151E-01
   7122.33  1.7661426E-01
   7122.67  1.9823342E-01
   7123.00  2.2091447E-01
   7123.33  2.4305281E-01
   7123.67  2.6322232E-01
   7124.00  2.8085575E-01
   7124.33  2.9626454E-01
   7124.67  3.1088004E-01
   7125.00  3.2533433E-01
   7125.33  3.4050777E-01
   7125.67  3.5799880E-01
   7126.00  3.7849579E-01
   7126.33  4.0029210E-01
   7126.67  4.1981425E-01
   7127.00  4.3529234E-01
   7127.33  4.4622815E-01
   7127.67  4.5380285E-01
   7128.00  4.5849442E-01
   7128.33  4.6061606E-01
   7128.67  4.6137328E-01
   7129.00  4.6172452E-01
   7129.33  4.6265509E-01
   7129.67  4.6455027E-01
   7130.00  4.6743785E-01
   7130.33  4.7138164E-01
   7130.67  4.7646845E-01
   7131.00  4.8302740E-01
   7131.33  4.9151439E-01
   7131.67  5.0158221E-01
   7132.00  5.1281472E-01
   7132.33  5.2485593E-01
   7132.67  5.3787314E-01
   7133.00  5.5298218E-01
   7133.33  5.7267116E-01
   7133.67  5.9781381E-01
   7134.00  6.2799379E-01
   7134.33  6.6105824E-01
   7134.67  6.9334846E-01
   7135.00  7.2244249E-01
   7135.33  7.4623180E-01
   7135.67  7.6516991E-01
   7136.00  7.7928599E-01
   7136.33  7.8680982E-01
   7136.67  7.8712414E-01
   7137.00  7.8000330E-01
   7137.33  7.6576547E-01
   7137.67  7.4730462E-01
   7138.00  7.2669363E-01
   7138.33  7.0610286E-01
   7138.67  6.8710061E-01
   7139.00  6.7048518E-01
   7139.33  6.5695836E-01
   7139.67  6.4605400E-01
   7140.00  6.3740861E-01
   7140.33  6.3069294E-01
   7140.67  6.2521828E-01
   7141.00  6.2074841E-01
   7141.33  6.1734948E-01
   7141.67  6.1500509E-01
   7142.00  6.1382799E-01
   7142.33  6.1402989E-01
   7142.67  6.1538732E-01
   7143.00  6.1773363E-01
   7143.33  6.2086124E-01
   7143.67  6.2432817E-01
   7144.00  6.2783006E-01
   7144.33  6.3104081E-01
   7144.67  6.3381323E-01
   7145.00  6.3610369E-01
   7145.33  6.3793210E-01
   7145.67  6.3951767E-01
   7146.00  6.4104182E-01
   7146.33  6.4272800E-01
   7146.67  6.4471613E-01
   7147.00  6.4708373E-01
   7147.33  6.4989336E-01
   7147.67  6.5302686E-01
   7148.00  6.5637151E-01
   7148.33  6.5975277E-01
   7148.67  6.6293722E-01
   7149.00  6.6567975E-01
   7149.33  6.6753662E-01
   7149.67  6.6822170E-01
   7150.00  6.6740027E-01
   7150.33  6.6447299E-01
   7150.67  6.5940629E-01
   7151.00  6.5212349E-01
   7151.33  6.4251364E-01
   7151.67  6.3122612E-01
   7152.00  6.1872257E-01
   7152.33  6.0550424E-01
   7152.67  5.9217695E-01
   7153.00  5.7909433E-01
   7153.33  5.6659630E-01
   7153.67  5.5475910E-01
   7154.00  5.4362131E-01
   7154.33  5.3325255E-01
   7154.67  5.2352598E-01
   7155.00  5.1439771E-01
   7155.33  5.0587064E-01
   7155.67  4.9781570E-01
   7156.00  4.9018748E-01
   7156.33  4.8298747E-01
   7156.67  4.7612692E-01
   7157.00  4.6957373E-01
   7157.33  4.6332660E-01
   7157.67  4.5731712E-01
   7158.00  4.5151546E-01
   7158.33  4.4590657E-01
   7158.67  4.4043236E-01
   7159.00  4.3506353E-01
   7159.33  4.2977988E-01
   7159.67  4.2455005E-01
   7160.00  4.1936344E-01
   7160.33  4.1422222E-01
   7160.67  4.0912840E-01
   7161.00  4.0409529E-01
   7161.33  3.9915508E-01
   7161.67  3.9432555E-01
   7162.00  3.8963915E-01
   7162.33  3.8516850E-01
   7162.67  3.8094817E-01
   7163.00  3.7703277E-01
   7163.33  3.7352938E-01
   7163.67  3.7044932E-01
   7164.00  3.6783483E-01
   7164.33  3.6578440E-01
   7164.67  3.6425519E-01
   7165.00  3.6325144E-01
   7165.33  3.6282824E-01
   7165.67  3.6289770E-01
   7166.00  3.6343016E-01
   7166.33  3.6443580E-01
   7166.67  3.6581504E-01
   7167.00  3.6752541E-01
   7167.33  3.6955176E-01
   7167.67  3.7181278E-01
   7168.00  3.7427464E-01
   7168.33  3.7692609E-01
   7168.67  3.7972052E-01
   7169.00  3.8263982E-01
   7169.33  3.8567750E-01
   7169.67  3.8879859E-01
   7170.00  3.9198042E-01
   7170.33  3.9519263E-01
   7170.67  3.9838578E-01
   7171.00  4.0150482E-01
   7171.33  4.0443407E-01
   7171.67  4.0704441E-01
   7172.00  4.0915714E-01
