    FDMNES
    energy     <xanes>
   7097.00  4.1832953E-03
   7097.33  4.2717014E-03
   7097.67  4.3637586E-03
   7098.00  4.4597000E-03
   7098.33  4.5603481E-03
   7098.67  4.6655125E-03
   7099.00  4.7755084E-03
   7099.33  4.8913989E-03
   7099.67  5.0129864E-03
   7100.00  5.1407087E-03
   7100.33  5.2759760E-03
   7100.67  5.4185987E-03
   7101.00  5.5692040E-03
   7101.33  5.7297229E-03
   7101.67  5.9000069E-03
   7102.00  6.0809899E-03
   7102.33  6.2754182E-03
   7102.67  6.4832605E-03
   7103.00  6.7059724E-03
   7103.33  6.9476482E-03
   7103.67  7.2085481E-03
   7104.00  7.4910758E-03
   7104.33  7.8017084E-03
   7104.67  8.1414226E-03
   7105.00  8.5144897E-03
   7105.33  8.9319806E-03
   7105.67  9.3967158E-03
   7106.00  9.9170612E-03
   7106.33  1.0514032E-02
   7106.67  1.1195682E-02
   7107.00  1.1980780E-02
   7107.33  1.2915670E-02
   7107.67  1.4025932E-02
   7108.00  1.5363062E-02
   7108.33  1.7055708E-02
   7108.67  1.9206118E-02
   7109.00  2.2009201E-02
   7109.33  2.5987060E-02
   7109.67  3.1755910E-02
   7110.00  4.0537210E-02
   7110.33  5.5810646E-02
   7110.67  8.0338005E-02
   7111.00  1.1041147E-01
   7111.33  1.3049883E-01
   7111.67  1.3815489E-01
   7112.00  1.3534088E-01
   7112.33  1.3775278E-01
   7112.67  1.5642784E-01
   7113.00  1.8640135E-01
   7113.33  2.1094193E-01
   7113.67  2.2698202E-01
   7114.00  2.4061417E-01
   7114.33  2.6677573E-01
   7114.67  2.9635081E-01
   7115.00  2.8421818E-01
   7115.33  2.2541434E-01
   7115.67  1.7259987E-01
   7116.00  1.3584840E-01
   7116.33  1.1000941E-01
   7116.67  9.1215669E-02
   7117.00  7.8980783E-02
   7117.33  7.1550754E-02
   7117.67  6.6518883E-02
   7118.00  6.3481549E-02
   7118.33  6.2619457E-02
   7118.67  6.3379756E-02
   7119.00  6.5392499E-02
   7119.33  6.8310231E-02
   7119.67  7.1784382E-02
   7120.00  7.6003303E-02
   7120.33  8.1600032E-02
   7120.67  8.8747684E-02
   7121.00  9.7547634E-02
   7121.33  1.0823714E-01
   7121.67  1.2058010E-01
   7122.00  1.3448676E-01
   7122.33  1.4987545E-01
   7122.67  1.6613012E-01
   7123.00  1.8275377E-01
   7123.33  1.9937787E-01
   7123.67  2.1621863E-01
   7124.00  2.3381172E-01
   7124.33  2.5294952E-01
   7124.67  2.7390866E-01
   7125.00  2.9677442E-01
   7125.33  3.2085950E-01
   7125.67  3.4399401E-01
   7126.00  3.6472285E-01
   7126.33  3.8256765E-01
   7126.67  3.9760279E-01
   7127.00  4.0947275E-01
   7127.33  4.1871923E-01
   7127.67  4.2744589E-01
   7128.00  4.3698916E-01
   7128.33  4.4803654E-01
   7128.67  4.5974656E-01
   7129.00  4.7099883E-01
   7129.33  4.8063221E-01
   7129.67  4.8875450E-01
   7130.00  4.9567397E-01
   7130.33  5.0127754E-01
   7130.67  5.0519797E-01
   7131.00  5.0689554E-01
   7131.33  5.0599079E-01
   7131.67  5.0360603E-01
   7132.00  5.0104148E-01
   7132.33  5.0014807E-01
   7132.67  5.0204582E-01
   7133.00  5.0739535E-01
   7133.33  5.1706529E-01
   7133.67  5.3085407E-01
   7134.00  5.4904001E-01
   7134.33  5.7245108E-01
   7134.67  6.0034802E-01
   7135.00  6.3204624E-01
   7135.33  6.6639824E-01
   7135.67  7.0134673E-01
   7136.00  7.3533851E-01
   7136.33  7.6580611E-01
   7136.67  7.9093104E-01
   7137.00  8.0960633E-01
   7137.33  8.2074570E-01
   7137.67  8.2558396E-01
   7138.00  8.2475962E-01
   7138.33  8.1867756E-01
   7138.67  8.0904730E-01
   7139.00  7.9682926E-01
   7139.33  7.8282728E-01
   7139.67  7.6803370E-01
   7140.00  7.5295770E-01
   7140.33  7.3806575E-01
   7140.67  7.2366059E-01
   7141.00  7.0993973E-01
   7141.33  6.9716369E-01
   7141.67  6.8532070E-01
   7142.00  6.7445257E-01
   7142.33  6.6469600E-01
   7142.67  6.5591098E-01
   7143.00  6.4806592E-01
   7143.33  6.4121981E-01
   7143.67  6.3519997E-01
   7144.00  6.2995070E-01
   7144.33  6.2549634E-01
   7144.67  6.2168937E-01
   7145.00  6.1848544E-01
   7145.33  6.1591261E-01
   7145.67  6.1387110E-01
   7146.00  6.1234144E-01
   7146.33  6.1136197E-01
   7146.67  6.1085737E-01
   7147.00  6.1082597E-01
   7147.33  6.1132534E-01
   7147.67  6.1227612E-01
   7148.00  6.1362936E-01
   7148.33  6.1531319E-01
   7148.67  6.1712368E-01
   7149.00  6.1888092E-01
   7149.33  6.2032549E-01
   7149.67  6.2128461E-01
   7150.00  6.2161981E-01
   7150.33  6.2115508E-01
   7150.67  6.1997445E-01
   7151.00  6.1812879E-01
   7151.33  6.1565324E-01
   7151.67  6.1274607E-01
   7152.00  6.0952069E-01
   7152.33  6.0608814E-01
   7152.67  6.0258825E-01
   7153.00  5.9909665E-01
   7153.33  5.9567649E-01
   7153.67  5.9233931E-01
   7154.00  5.8907429E-01
   7154.33  5.8584312E-01
   7154.67  5.8257403E-01
   7155.00  5.7919340E-01
   7155.33  5.7557704E-01
   7155.67  5.7164650E-01
   7156.00  5.6731155E-01
   7156.33  5.6240990E-01
   7156.67  5.5692058E-01
   7157.00  5.5077885E-01
   7157.33  5.4382338E-01
   7157.67  5.3608972E-01
   7158.00  5.2754867E-01
   7158.33  5.1808826E-01
   7158.67  5.0783304E-01
   7159.00  4.9683274E-01
   7159.33  4.8510157E-01
   7159.67  4.7285593E-01
   7160.00  4.6024092E-01
   7160.33  4.4742980E-01
   7160.67  4.3465744E-01
   7161.00  4.2211200E-01
   7161.33  4.1006081E-01
   7161.67  3.9864140E-01
   7162.00  3.8799459E-01
   7162.33  3.7836113E-01
   7162.67  3.6971519E-01
   7163.00  3.6209923E-01
   7163.33  3.5565809E-01
   7163.67  3.5024113E-01
   7164.00  3.4580972E-01
   7164.33  3.4241573E-01
   7164.67  3.3986336E-01
   7165.00  3.3807368E-01
   7165.33  3.3704663E-01
   7165.67  3.3662330E-01
   7166.00  3.3674618E-01
   7166.33  3.3741627E-01
   7166.67  3.3852082E-01
   7167.00  3.4002082E-01
   7167.33  3.4191938E-01
   7167.67  3.4413374E-01
   7168.00  3.4663183E-01
   7168.33  3.4940666E-01
   7168.67  3.5238814E-01
   7169.00  3.5554123E-01
   7169.33  3.5883998E-01
   7169.67  3.6222320E-01
   7170.00  3.6564869E-01
   7170.33  3.6906228E-01
   7170.67  3.7240700E-01
   7171.00  3.7562419E-01
   7171.33  3.7859597E-01
   7171.67  3.8121154E-01
   7172.00  3.8330774E-01
