    FDMNES
    energy     <xanes>
   7097.00  4.1776892E-03
   7097.33  4.2549301E-03
   7097.67  4.3350096E-03
   7098.00  4.4180997E-03
   7098.33  4.5048249E-03
   7098.67  4.5950271E-03
   7099.00  4.6889399E-03
   7099.33  4.7873681E-03
   7099.67  4.8901515E-03
   7100.00  4.9976182E-03
   7100.33  5.1108391E-03
   7100.67  5.2296672E-03
   7101.00  5.3545826E-03
   7101.33  5.4870661E-03
   7101.67  5.6270199E-03
   7102.00  5.7751799E-03
   7102.33  5.9336957E-03
   7102.67  6.1026002E-03
   7103.00  6.2830883E-03
   7103.33  6.4784738E-03
   7103.67  6.6891148E-03
   7104.00  6.9170952E-03
   7104.33  7.1679246E-03
   7104.67  7.4427845E-03
   7105.00  7.7456476E-03
   7105.33  8.0866081E-03
   7105.67  8.4690761E-03
   7106.00  8.9015494E-03
   7106.33  9.4050507E-03
   7106.67  9.9897663E-03
   7107.00  1.0676946E-02
   7107.33  1.1518805E-02
   7107.67  1.2550288E-02
   7108.00  1.3837835E-02
   7108.33  1.5549236E-02
   7108.67  1.7839779E-02
   7109.00  2.1001853E-02
   7109.33  2.5840930E-02
   7109.67  3.3415638E-02
   7110.00  4.5845013E-02
   7110.33  6.9169912E-02
   7110.67  1.0684617E-01
   7111.00  1.4434706E-01
   7111.33  1.4071991E-01
   7111.67  1.1845173E-01
   7112.00  9.8999749E-02
   7112.33  8.5686448E-02
   7112.67  7.6509478E-02
   7113.00  7.0593575E-02
   7113.33  6.6064361E-02
   7113.67  6.0776655E-02
   7114.00  5.4752192E-02
   7114.33  4.9536169E-02
   7114.67  4.4286585E-02
   7115.00  3.8237287E-02
   7115.33  3.3440823E-02
   7115.67  3.0418405E-02
   7116.00  2.8715210E-02
   7116.33  2.7933529E-02
   7116.67  2.7667949E-02
   7117.00  2.7767511E-02
   7117.33  2.8174041E-02
   7117.67  2.8833109E-02
   7118.00  2.9772829E-02
   7118.33  3.1108350E-02
   7118.67  3.2903154E-02
   7119.00  3.5288236E-02
   7119.33  3.8592918E-02
   7119.67  4.3044362E-02
   7120.00  4.8949464E-02
   7120.33  5.6461872E-02
   7120.67  6.4360022E-02
   7121.00  7.1655335E-02
   7121.33  7.9036720E-02
   7121.67  8.8263753E-02
   7122.00  1.0060512E-01
   7122.33  1.1795778E-01
   7122.67  1.4134463E-01
   7123.00  1.7213007E-01
   7123.33  2.1136555E-01
   7123.67  2.5364847E-01
   7124.00  2.9088023E-01
   7124.33  3.1503370E-01
   7124.67  3.3098184E-01
   7125.00  3.4498549E-01
   7125.33  3.6211768E-01
   7125.67  3.8464989E-01
   7126.00  4.1405149E-01
   7126.33  4.4637016E-01
   7126.67  4.7033909E-01
   7127.00  4.8594170E-01
   7127.33  5.0540757E-01
   7127.67  5.3593686E-01
   7128.00  5.8050787E-01
   7128.33  6.4226563E-01
   7128.67  7.1633871E-01
   7129.00  7.9680042E-01
   7129.33  8.7543472E-01
   7129.67  9.4526866E-01
   7130.00  1.0002497E+00
   7130.33  1.0301051E+00
   7130.67  1.0318330E+00
   7131.00  1.0049748E+00
   7131.33  9.5390047E-01
   7131.67  8.9380539E-01
   7132.00  8.3509506E-01
   7132.33  7.8661047E-01
   7132.67  7.4977069E-01
   7133.00  7.2399988E-01
   7133.33  7.0844070E-01
   7133.67  6.9990689E-01
   7134.00  6.9717751E-01
   7134.33  7.0012408E-01
   7134.67  7.0719047E-01
   7135.00  7.1675548E-01
   7135.33  7.2691598E-01
   7135.67  7.3713529E-01
   7136.00  7.4823768E-01
   7136.33  7.6172362E-01
   7136.67  7.7790737E-01
   7137.00  7.9640704E-01
   7137.33  8.1567948E-01
   7137.67  8.3277893E-01
   7138.00  8.4462364E-01
   7138.33  8.4688936E-01
   7138.67  8.3919159E-01
   7139.00  8.2243354E-01
   7139.33  7.9889879E-01
   7139.67  7.7299459E-01
   7140.00  7.4728072E-01
   7140.33  7.2382744E-01
   7140.67  7.0309641E-01
   7141.00  6.8510956E-01
   7141.33  6.6982870E-01
   7141.67  6.5645224E-01
   7142.00  6.4453780E-01
   7142.33  6.3376343E-01
   7142.67  6.2366519E-01
   7143.00  6.1403737E-01
   7143.33  6.0474979E-01
   7143.67  5.9564639E-01
   7144.00  5.8664393E-01
   7144.33  5.7764821E-01
   7144.67  5.6856244E-01
   7145.00  5.5931211E-01
   7145.33  5.4981067E-01
   7145.67  5.4007939E-01
   7146.00  5.3016404E-01
   7146.33  5.2016409E-01
   7146.67  5.1023982E-01
   7147.00  5.0053473E-01
   7147.33  4.9125566E-01
   7147.67  4.8248744E-01
   7148.00  4.7431068E-01
   7148.33  4.6685327E-01
   7148.67  4.6002832E-01
   7149.00  4.5377878E-01
   7149.33  4.4802903E-01
   7149.67  4.4254744E-01
   7150.00  4.3717451E-01
   7150.33  4.3173582E-01
   7150.67  4.2612031E-01
   7151.00  4.2028086E-01
   7151.33  4.1420185E-01
   7151.67  4.0797313E-01
   7152.00  4.0167081E-01
   7152.33  3.9538448E-01
   7152.67  3.8917116E-01
   7153.00  3.8304255E-01
   7153.33  3.7696843E-01
   7153.67  3.7086151E-01
   7154.00  3.6462945E-01
   7154.33  3.5813191E-01
   7154.67  3.5130652E-01
   7155.00  3.4409884E-01
   7155.33  3.3642441E-01
   7155.67  3.2833773E-01
   7156.00  3.1987103E-01
   7156.33  3.1106050E-01
   7156.67  3.0206055E-01
   7157.00  2.9300255E-01
   7157.33  2.8408124E-01
   7157.67  2.7547107E-01
   7158.00  2.6732497E-01
   7158.33  2.5986481E-01
   7158.67  2.5310979E-01
   7159.00  2.4709629E-01
   7159.33  2.4190864E-01
   7159.67  2.3740954E-01
   7160.00  2.3354713E-01
   7160.33  2.3034079E-01
   7160.67  2.2769007E-01
   7161.00  2.2560041E-01
   7161.33  2.2419071E-01
   7161.67  2.2346617E-01
   7162.00  2.2351809E-01
   7162.33  2.2456700E-01
   7162.67  2.2660916E-01
   7163.00  2.2975160E-01
   7163.33  2.3427053E-01
   7163.67  2.4011831E-01
   7164.00  2.4736861E-01
   7164.33  2.5627183E-01
   7164.67  2.6668850E-01
   7165.00  2.7863621E-01
   7165.33  2.9229973E-01
   7165.67  3.0744858E-01
   7166.00  3.2401624E-01
   7166.33  3.4204511E-01
   7166.67  3.6119960E-01
   7167.00  3.8128284E-01
   7167.33  4.0208766E-01
   7167.67  4.2318400E-01
   7168.00  4.4422221E-01
   7168.33  4.6467925E-01
   7168.67  4.8413428E-01
   7169.00  5.0218278E-01
   7169.33  5.1818002E-01
   7169.67  5.3203332E-01
   7170.00  5.4357099E-01
   7170.33  5.5243929E-01
   7170.67  5.5903681E-01
   7171.00  5.6357186E-01
   7171.33  5.6620717E-01
   7171.67  5.6766787E-01
   7172.00  5.6849481E-01
