    FDMNES
    energy     <xanes>
   7097.00  4.8731134E-03
   7097.33  4.9840713E-03
   7097.67  5.0997519E-03
   7098.00  5.2204550E-03
   7098.33  5.3472402E-03
   7098.67  5.4798575E-03
   7099.00  5.6187093E-03
   7099.33  5.7651600E-03
   7099.67  5.9189469E-03
   7100.00  6.0806250E-03
   7100.33  6.2519950E-03
   7100.67  6.4327987E-03
   7101.00  6.6238254E-03
   7101.33  6.8275244E-03
   7101.67  7.0436808E-03
   7102.00  7.2734597E-03
   7102.33  7.5203170E-03
   7102.67  7.7841688E-03
   7103.00  8.0668142E-03
   7103.33  8.3733557E-03
   7103.67  8.7040417E-03
   7104.00  9.0618093E-03
   7104.33  9.4546336E-03
   7104.67  9.8835802E-03
   7105.00  1.0353790E-02
   7105.33  1.0878678E-02
   7105.67  1.1461378E-02
   7106.00  1.2111742E-02
   7106.33  1.2854631E-02
   7106.67  1.3698848E-02
   7107.00  1.4665711E-02
   7107.33  1.5807850E-02
   7107.67  1.7151851E-02
   7108.00  1.8752454E-02
   7108.33  2.0744802E-02
   7108.67  2.3224678E-02
   7109.00  2.6374283E-02
   7109.33  3.0663400E-02
   7109.67  3.6570213E-02
   7110.00  4.5016568E-02
   7110.33  5.8617943E-02
   7110.67  8.0584151E-02
   7111.00  1.1479249E-01
   7111.33  1.6319389E-01
   7111.67  2.1828603E-01
   7112.00  2.6866411E-01
   7112.33  2.9235892E-01
   7112.67  2.8886263E-01
   7113.00  2.6552917E-01
   7113.33  2.3019885E-01
   7113.67  1.9044489E-01
   7114.00  1.5247754E-01
   7114.33  1.2426939E-01
   7114.67  1.0603422E-01
   7115.00  9.6060717E-02
   7115.33  9.2988494E-02
   7115.67  9.4837066E-02
   7116.00  1.0130388E-01
   7116.33  1.1334681E-01
   7116.67  1.3115958E-01
   7117.00  1.5543173E-01
   7117.33  1.8694768E-01
   7117.67  2.2314977E-01
   7118.00  2.6216832E-01
   7118.33  3.0352070E-01
   7118.67  3.4330905E-01
   7119.00  3.7380771E-01
   7119.33  3.8569201E-01
   7119.67  3.8184985E-01
   7120.00  3.6728160E-01
   7120.33  3.5196521E-01
   7120.67  3.4669064E-01
   7121.00  3.5544107E-01
   7121.33  3.7806349E-01
   7121.67  4.0699089E-01
   7122.00  4.3596184E-01
   7122.33  4.6061041E-01
   7122.67  4.8212581E-01
   7123.00  5.0169674E-01
   7123.33  5.1915468E-01
   7123.67  5.3421596E-01
   7124.00  5.4640170E-01
   7124.33  5.5383363E-01
   7124.67  5.5520658E-01
   7125.00  5.5086020E-01
   7125.33  5.4404665E-01
   7125.67  5.3916898E-01
   7126.00  5.3866078E-01
   7126.33  5.4479361E-01
   7126.67  5.5617327E-01
   7127.00  5.6926002E-01
   7127.33  5.7607614E-01
   7127.67  5.7125544E-01
   7128.00  5.5585550E-01
   7128.33  5.3740055E-01
   7128.67  5.2222789E-01
   7129.00  5.1055475E-01
   7129.33  5.0119616E-01
   7129.67  4.9416097E-01
   7130.00  4.9078448E-01
   7130.33  4.9284627E-01
   7130.67  4.9961575E-01
   7131.00  5.0991753E-01
   7131.33  5.2157077E-01
   7131.67  5.3170784E-01
   7132.00  5.3847042E-01
   7132.33  5.4046988E-01
   7132.67  5.3894085E-01
   7133.00  5.3544626E-01
   7133.33  5.3227252E-01
   7133.67  5.3115436E-01
   7134.00  5.3246120E-01
   7134.33  5.3530131E-01
   7134.67  5.3801398E-01
   7135.00  5.3986595E-01
   7135.33  5.4038824E-01
   7135.67  5.3953845E-01
   7136.00  5.3710580E-01
   7136.33  5.3254303E-01
   7136.67  5.2581760E-01
   7137.00  5.1690423E-01
   7137.33  5.0601951E-01
   7137.67  4.9437161E-01
   7138.00  4.8306817E-01
   7138.33  4.7347530E-01
   7138.67  4.6610399E-01
   7139.00  4.6112216E-01
   7139.33  4.5867211E-01
   7139.67  4.5817903E-01
   7140.00  4.5937921E-01
   7140.33  4.6217639E-01
   7140.67  4.6614876E-01
   7141.00  4.7109689E-01
   7141.33  4.7689708E-01
   7141.67  4.8327786E-01
   7142.00  4.9015005E-01
   7142.33  4.9756531E-01
   7142.67  5.0553358E-01
   7143.00  5.1411278E-01
   7143.33  5.2331532E-01
   7143.67  5.3277165E-01
   7144.00  5.4201616E-01
   7144.33  5.5028072E-01
   7144.67  5.5710304E-01
   7145.00  5.6221608E-01
   7145.33  5.6541192E-01
   7145.67  5.6716409E-01
   7146.00  5.6780510E-01
   7146.33  5.6767090E-01
   7146.67  5.6723717E-01
   7147.00  5.6677480E-01
   7147.33  5.6652414E-01
   7147.67  5.6656207E-01
   7148.00  5.6688578E-01
   7148.33  5.6743820E-01
   7148.67  5.6805753E-01
   7149.00  5.6860992E-01
   7149.33  5.6893145E-01
   7149.67  5.6895641E-01
   7150.00  5.6865858E-01
   7150.33  5.6802325E-01
   7150.67  5.6714095E-01
   7151.00  5.6606340E-01
   7151.33  5.6482328E-01
   7151.67  5.6346992E-01
   7152.00  5.6201343E-01
   7152.33  5.6043727E-01
   7152.67  5.5874510E-01
   7153.00  5.5693298E-01
   7153.33  5.5500066E-01
   7153.67  5.5300433E-01
   7154.00  5.5100850E-01
   7154.33  5.4913309E-01
   7154.67  5.4749612E-01
   7155.00  5.4621892E-01
   7155.33  5.4549883E-01
   7155.67  5.4538360E-01
   7156.00  5.4593229E-01
   7156.33  5.4724361E-01
   7156.67  5.4917598E-01
   7157.00  5.5161889E-01
   7157.33  5.5441254E-01
   7157.67  5.5725477E-01
   7158.00  5.5988412E-01
   7158.33  5.6191700E-01
   7158.67  5.6312634E-01
   7159.00  5.6330862E-01
   7159.33  5.6216128E-01
   7159.67  5.5977915E-01
   7160.00  5.5619806E-01
   7160.33  5.5140477E-01
   7160.67  5.4571479E-01
   7161.00  5.3930611E-01
   7161.33  5.3232435E-01
   7161.67  5.2502767E-01
   7162.00  5.1756155E-01
   7162.33  5.1006503E-01
   7162.67  5.0265754E-01
   7163.00  4.9541099E-01
   7163.33  4.8840767E-01
   7163.67  4.8165769E-01
   7164.00  4.7518207E-01
   7164.33  4.6902903E-01
   7164.67  4.6316357E-01
   7165.00  4.5757912E-01
   7165.33  4.5229474E-01
   7165.67  4.4725833E-01
   7166.00  4.4245234E-01
   7166.33  4.3788264E-01
   7166.67  4.3350562E-01
   7167.00  4.2931075E-01
   7167.33  4.2531387E-01
   7167.67  4.2149417E-01
   7168.00  4.1785860E-01
   7168.33  4.1444513E-01
   7168.67  4.1124566E-01
   7169.00  4.0827479E-01
   7169.33  4.0557772E-01
   7169.67  4.0313501E-01
   7170.00  4.0095206E-01
   7170.33  3.9906138E-01
   7170.67  3.9742353E-01
   7171.00  3.9602808E-01
   7171.33  3.9488806E-01
   7171.67  3.9395936E-01
   7172.00  3.9322887E-01
