    FDMNES
    energy     <xanes>
   7097.00  4.4881200E-03
   7097.33  4.5849983E-03
   7097.67  4.6857663E-03
   7098.00  4.7906589E-03
   7098.33  4.9005293E-03
   7098.67  5.0151561E-03
   7099.00  5.1348516E-03
   7099.33  5.2607023E-03
   7099.67  5.3924726E-03
   7100.00  5.5305891E-03
   7100.33  5.6764688E-03
   7100.67  5.8298735E-03
   7101.00  5.9914035E-03
   7101.33  6.1629622E-03
   7101.67  6.3443356E-03
   7102.00  6.5364002E-03
   7102.33  6.7418065E-03
   7102.67  6.9604263E-03
   7103.00  7.1935985E-03
   7103.33  7.4451838E-03
   7103.67  7.7152821E-03
   7104.00  8.0060566E-03
   7104.33  8.3234624E-03
   7104.67  8.6681719E-03
   7105.00  9.0439388E-03
   7105.33  9.4606594E-03
   7105.67  9.9204777E-03
   7106.00  1.0430546E-02
   7106.33  1.1009045E-02
   7106.67  1.1662218E-02
   7107.00  1.2405555E-02
   7107.33  1.3277503E-02
   7107.67  1.4297513E-02
   7108.00  1.5505971E-02
   7108.33  1.7003319E-02
   7108.67  1.8863116E-02
   7109.00  2.1226414E-02
   7109.33  2.4463805E-02
   7109.67  2.8978995E-02
   7110.00  3.5564070E-02
   7110.33  4.6475564E-02
   7110.67  6.3945600E-02
   7111.00  8.7792073E-02
   7111.33  1.0989754E-01
   7111.67  1.3053442E-01
   7112.00  1.5674035E-01
   7112.33  1.8764720E-01
   7112.67  2.1436179E-01
   7113.00  2.2532485E-01
   7113.33  2.0475939E-01
   7113.67  1.6661148E-01
   7114.00  1.3055546E-01
   7114.33  1.0806232E-01
   7114.67  9.5937981E-02
   7115.00  9.1503147E-02
   7115.33  9.3703554E-02
   7115.67  1.0131895E-01
   7116.00  1.1450832E-01
   7116.33  1.3359417E-01
   7116.67  1.5479911E-01
   7117.00  1.7315049E-01
   7117.33  1.8467405E-01
   7117.67  1.9138616E-01
   7118.00  1.9573474E-01
   7118.33  2.0033994E-01
   7118.67  2.0724865E-01
   7119.00  2.1768108E-01
   7119.33  2.3247193E-01
   7119.67  2.5040425E-01
   7120.00  2.7029263E-01
   7120.33  2.9037682E-01
   7120.67  3.0844920E-01
   7121.00  3.2273960E-01
   7121.33  3.3201826E-01
   7121.67  3.3813635E-01
   7122.00  3.4316784E-01
   7122.33  3.5046602E-01
   7122.67  3.6225206E-01
   7123.00  3.7875716E-01
   7123.33  3.9917797E-01
   7123.67  4.2265507E-01
   7124.00  4.4950909E-01
   7124.33  4.7951571E-01
   7124.67  5.1084691E-01
   7125.00  5.4186056E-01
   7125.33  5.6858260E-01
   7125.67  5.8628804E-01
   7126.00  5.9155695E-01
   7126.33  5.8342073E-01
   7126.67  5.6870211E-01
   7127.00  5.5301347E-01
   7127.33  5.4089319E-01
   7127.67  5.3287682E-01
   7128.00  5.2821016E-01
   7128.33  5.2596663E-01
   7128.67  5.2530674E-01
   7129.00  5.2610653E-01
   7129.33  5.2813292E-01
   7129.67  5.3052736E-01
   7130.00  5.3271731E-01
   7130.33  5.3444337E-01
   7130.67  5.3612931E-01
   7131.00  5.3832989E-01
   7131.33  5.4177915E-01
   7131.67  5.4703751E-01
   7132.00  5.5499488E-01
   7132.33  5.6702417E-01
   7132.67  5.8259331E-01
   7133.00  6.0079378E-01
   7133.33  6.2057135E-01
   7133.67  6.4056470E-01
   7134.00  6.5940922E-01
   7134.33  6.7478387E-01
   7134.67  6.8554363E-01
   7135.00  6.9109384E-01
   7135.33  6.9099075E-01
   7135.67  6.8687690E-01
   7136.00  6.8001853E-01
   7136.33  6.7168775E-01
   7136.67  6.6303057E-01
   7137.00  6.5441259E-01
   7137.33  6.4582045E-01
   7137.67  6.3701101E-01
   7138.00  6.2780224E-01
   7138.33  6.1811948E-01
   7138.67  6.0824564E-01
   7139.00  5.9853255E-01
   7139.33  5.8953768E-01
   7139.67  5.8162459E-01
   7140.00  5.7508496E-01
   7140.33  5.7033006E-01
   7140.67  5.6724978E-01
   7141.00  5.6581846E-01
   7141.33  5.6606012E-01
   7141.67  5.6748335E-01
   7142.00  5.6972990E-01
   7142.33  5.7236367E-01
   7142.67  5.7486494E-01
   7143.00  5.7687748E-01
   7143.33  5.7798725E-01
   7143.67  5.7810374E-01
   7144.00  5.7715459E-01
   7144.33  5.7500877E-01
   7144.67  5.7187261E-01
   7145.00  5.6785040E-01
   7145.33  5.6300345E-01
   7145.67  5.5759525E-01
   7146.00  5.5177768E-01
   7146.33  5.4569084E-01
   7146.67  5.3951717E-01
   7147.00  5.3336731E-01
   7147.33  5.2735064E-01
   7147.67  5.2150069E-01
   7148.00  5.1582302E-01
   7148.33  5.1030716E-01
   7148.67  5.0486783E-01
   7149.00  4.9942198E-01
   7149.33  4.9385900E-01
   7149.67  4.8812332E-01
   7150.00  4.8219582E-01
   7150.33  4.7608650E-01
   7150.67  4.6989536E-01
   7151.00  4.6371818E-01
   7151.33  4.5769842E-01
   7151.67  4.5194492E-01
   7152.00  4.4655734E-01
   7152.33  4.4169233E-01
   7152.67  4.3736821E-01
   7153.00  4.3363193E-01
   7153.33  4.3059363E-01
   7153.67  4.2818403E-01
   7154.00  4.2638964E-01
   7154.33  4.2524746E-01
   7154.67  4.2463647E-01
   7155.00  4.2450218E-01
   7155.33  4.2480819E-01
   7155.67  4.2539682E-01
   7156.00  4.2616293E-01
   7156.33  4.2698350E-01
   7156.67  4.2772082E-01
   7157.00  4.2826466E-01
   7157.33  4.2845925E-01
   7157.67  4.2825059E-01
   7158.00  4.2758840E-01
   7158.33  4.2640024E-01
   7158.67  4.2478217E-01
   7159.00  4.2280256E-01
   7159.33  4.2053642E-01
   7159.67  4.1813024E-01
   7160.00  4.1567445E-01
   7160.33  4.1326099E-01
   7160.67  4.1094383E-01
   7161.00  4.0875034E-01
   7161.33  4.0671034E-01
   7161.67  4.0480575E-01
   7162.00  4.0302703E-01
   7162.33  4.0137205E-01
   7162.67  3.9981060E-01
   7163.00  3.9833031E-01
   7163.33  3.9692837E-01
   7163.67  3.9558727E-01
   7164.00  3.9430030E-01
   7164.33  3.9306375E-01
   7164.67  3.9186114E-01
   7165.00  3.9068311E-01
   7165.33  3.8952140E-01
   7165.67  3.8836609E-01
   7166.00  3.8721279E-01
   7166.33  3.8606091E-01
   7166.67  3.8491558E-01
   7167.00  3.8378631E-01
   7167.33  3.8269331E-01
   7167.67  3.8165294E-01
   7168.00  3.8068448E-01
   7168.33  3.7982294E-01
   7168.67  3.7907937E-01
   7169.00  3.7847247E-01
   7169.33  3.7804106E-01
   7169.67  3.7778083E-01
   7170.00  3.7769992E-01
   7170.33  3.7782297E-01
   7170.67  3.7811890E-01
   7171.00  3.7856916E-01
   7171.33  3.7914578E-01
   7171.67  3.7975626E-01
   7172.00  3.8029674E-01
