    FDMNES
    energy     <xanes>
   7097.00  4.6883898E-03
   7097.33  4.7938958E-03
   7097.67  4.9039619E-03
   7098.00  5.0188881E-03
   7098.33  5.1397158E-03
   7098.67  5.2662189E-03
   7099.00  5.3988056E-03
   7099.33  5.5388321E-03
   7099.67  5.6860672E-03
   7100.00  5.8410822E-03
   7100.33  6.0056921E-03
   7100.67  6.1796830E-03
   7101.00  6.3638815E-03
   7101.33  6.5607985E-03
   7101.67  6.7702871E-03
   7102.00  6.9935931E-03
   7102.33  7.2343323E-03
   7102.67  7.4925378E-03
   7103.00  7.7701810E-03
   7103.33  8.0727353E-03
   7103.67  8.4006764E-03
   7104.00  8.7573184E-03
   7104.33  9.1514869E-03
   7104.67  9.5847457E-03
   7105.00  1.0063113E-02
   7105.33  1.0602030E-02
   7105.67  1.1205885E-02
   7106.00  1.1886767E-02
   7106.33  1.2674816E-02
   7106.67  1.3582527E-02
   7107.00  1.4637791E-02
   7107.33  1.5909173E-02
   7107.67  1.7436597E-02
   7108.00  1.9298664E-02
   7108.33  2.1691393E-02
   7108.67  2.4775060E-02
   7109.00  2.8852168E-02
   7109.33  3.4731276E-02
   7109.67  4.3370528E-02
   7110.00  5.6661770E-02
   7110.33  8.0048481E-02
   7110.67  1.1858654E-01
   7111.00  1.6917267E-01
   7111.33  2.0618796E-01
   7111.67  2.2662422E-01
   7112.00  2.3643936E-01
   7112.33  2.3108358E-01
   7112.67  2.2163832E-01
   7113.00  2.1741823E-01
   7113.33  2.1287685E-01
   7113.67  1.9841089E-01
   7114.00  1.7593001E-01
   7114.33  1.5312244E-01
   7114.67  1.3460915E-01
   7115.00  1.2171073E-01
   7115.33  1.1550786E-01
   7115.67  1.1530840E-01
   7116.00  1.2112346E-01
   7116.33  1.3281928E-01
   7116.67  1.4534570E-01
   7117.00  1.5134326E-01
   7117.33  1.4695424E-01
   7117.67  1.4124810E-01
   7118.00  1.3992059E-01
   7118.33  1.4508425E-01
   7118.67  1.5475789E-01
   7119.00  1.6733783E-01
   7119.33  1.8237274E-01
   7119.67  2.0012411E-01
   7120.00  2.2059252E-01
   7120.33  2.4292022E-01
   7120.67  2.6510082E-01
   7121.00  2.8542138E-01
   7121.33  3.0258030E-01
   7121.67  3.1816890E-01
   7122.00  3.3409042E-01
   7122.33  3.5209533E-01
   7122.67  3.7260202E-01
   7123.00  3.9585892E-01
   7123.33  4.2210574E-01
   7123.67  4.4991252E-01
   7124.00  4.7723713E-01
   7124.33  5.0035228E-01
   7124.67  5.1690827E-01
   7125.00  5.2634235E-01
   7125.33  5.3012194E-01
   7125.67  5.3221477E-01
   7126.00  5.3459101E-01
   7126.33  5.3764378E-01
   7126.67  5.4003801E-01
   7127.00  5.4023888E-01
   7127.33  5.3620903E-01
   7127.67  5.2775790E-01
   7128.00  5.1542594E-01
   7128.33  5.0053075E-01
   7128.67  4.8516402E-01
   7129.00  4.7057787E-01
   7129.33  4.5800126E-01
   7129.67  4.4780619E-01
   7130.00  4.4023824E-01
   7130.33  4.3573738E-01
   7130.67  4.3398141E-01
   7131.00  4.3495909E-01
   7131.33  4.3891306E-01
   7131.67  4.4527525E-01
   7132.00  4.5370902E-01
   7132.33  4.6390704E-01
   7132.67  4.7510023E-01
   7133.00  4.8675807E-01
   7133.33  4.9820891E-01
   7133.67  5.0885283E-01
   7134.00  5.1825969E-01
   7134.33  5.2596364E-01
   7134.67  5.3216012E-01
   7135.00  5.3704768E-01
   7135.33  5.4086841E-01
   7135.67  5.4413343E-01
   7136.00  5.4714454E-01
   7136.33  5.5018905E-01
   7136.67  5.5347541E-01
   7137.00  5.5713524E-01
   7137.33  5.6132067E-01
   7137.67  5.6598667E-01
   7138.00  5.7107554E-01
   7138.33  5.7650345E-01
   7138.67  5.8208570E-01
   7139.00  5.8769751E-01
   7139.33  5.9320588E-01
   7139.67  5.9854152E-01
   7140.00  6.0367085E-01
   7140.33  6.0856398E-01
   7140.67  6.1326790E-01
   7141.00  6.1780853E-01
   7141.33  6.2220334E-01
   7141.67  6.2650975E-01
   7142.00  6.3077591E-01
   7142.33  6.3508104E-01
   7142.67  6.3950572E-01
   7143.00  6.4411213E-01
   7143.33  6.4895730E-01
   7143.67  6.5397392E-01
   7144.00  6.5906318E-01
   7144.33  6.6403871E-01
   7144.67  6.6871294E-01
   7145.00  6.7293391E-01
   7145.33  6.7652073E-01
   7145.67  6.7951840E-01
   7146.00  6.8196154E-01
   7146.33  6.8386539E-01
   7146.67  6.8536682E-01
   7147.00  6.8651264E-01
   7147.33  6.8728344E-01
   7147.67  6.8770982E-01
   7148.00  6.8776237E-01
   7148.33  6.8734207E-01
   7148.67  6.8645292E-01
   7149.00  6.8505938E-01
   7149.33  6.8306680E-01
   7149.67  6.8053176E-01
   7150.00  6.7746196E-01
   7150.33  6.7382209E-01
   7150.67  6.6972182E-01
   7151.00  6.6521413E-01
   7151.33  6.6033252E-01
   7151.67  6.5519799E-01
   7152.00  6.4987645E-01
   7152.33  6.4442502E-01
   7152.67  6.3891824E-01
   7153.00  6.3339427E-01
   7153.33  6.2788112E-01
   7153.67  6.2238627E-01
   7154.00  6.1690511E-01
   7154.33  6.1142325E-01
   7154.67  6.0592267E-01
   7155.00  6.0038845E-01
   7155.33  5.9479993E-01
   7155.67  5.8915324E-01
   7156.00  5.8344487E-01
   7156.33  5.7766841E-01
   7156.67  5.7183676E-01
   7157.00  5.6595611E-01
   7157.33  5.6002684E-01
   7157.67  5.5405678E-01
   7158.00  5.4804496E-01
   7158.33  5.4198163E-01
   7158.67  5.3586540E-01
   7159.00  5.2968442E-01
   7159.33  5.2340410E-01
   7159.67  5.1700890E-01
   7160.00  5.1048108E-01
   7160.33  5.0378691E-01
   7160.67  4.9693957E-01
   7161.00  4.8994899E-01
   7161.33  4.8283454E-01
   7161.67  4.7566613E-01
   7162.00  4.6850737E-01
   7162.33  4.6145497E-01
   7162.67  4.5458287E-01
   7163.00  4.4795602E-01
   7163.33  4.4167011E-01
   7163.67  4.3572427E-01
   7164.00  4.3013461E-01
   7164.33  4.2494821E-01
   7164.67  4.2010899E-01
   7165.00  4.1560143E-01
   7165.33  4.1144433E-01
   7165.67  4.0757981E-01
   7166.00  4.0399397E-01
   7166.33  4.0070600E-01
   7166.67  3.9767170E-01
   7167.00  3.9488435E-01
   7167.33  3.9236898E-01
   7167.67  3.9009253E-01
   7168.00  3.8805390E-01
   7168.33  3.8628132E-01
   7168.67  3.8474321E-01
   7169.00  3.8343712E-01
   7169.33  3.8238738E-01
   7169.67  3.8155930E-01
   7170.00  3.8094550E-01
   7170.33  3.8055957E-01
   7170.67  3.8035974E-01
   7171.00  3.8032626E-01
   7171.33  3.8044035E-01
   7171.67  3.8062541E-01
   7172.00  3.8080248E-01
