    FDMNES
    energy     <xanes>
   7097.00  4.4618062E-03
   7097.33  4.5589755E-03
   7097.67  4.6601721E-03
   7098.00  4.7656503E-03
   7098.33  4.8763117E-03
   7098.67  4.9919418E-03
   7099.00  5.1128824E-03
   7099.33  5.2402945E-03
   7099.67  5.3739535E-03
   7100.00  5.5143317E-03
   7100.33  5.6629624E-03
   7100.67  5.8196258E-03
   7101.00  5.9849948E-03
   7101.33  6.1611567E-03
   7101.67  6.3479302E-03
   7102.00  6.5463103E-03
   7102.33  6.7592451E-03
   7102.67  6.9866670E-03
   7103.00  7.2301137E-03
   7103.33  7.4939418E-03
   7103.67  7.7783685E-03
   7104.00  8.0859039E-03
   7104.33  8.4233579E-03
   7104.67  8.7916415E-03
   7105.00  9.1951407E-03
   7105.33  9.6452932E-03
   7105.67  1.0144751E-02
   7106.00  1.0701884E-02
   7106.33  1.1337807E-02
   7106.67  1.2059904E-02
   7107.00  1.2886161E-02
   7107.33  1.3860979E-02
   7107.67  1.5006497E-02
   7108.00  1.6368536E-02
   7108.33  1.8060302E-02
   7108.67  2.0161580E-02
   7109.00  2.2824975E-02
   7109.33  2.6446113E-02
   7109.67  3.1433973E-02
   7110.00  3.8582339E-02
   7110.33  5.0102396E-02
   7110.67  6.8026086E-02
   7111.00  9.2337875E-02
   7111.33  1.2097650E-01
   7111.67  1.6092361E-01
   7112.00  2.1586405E-01
   7112.33  2.6598904E-01
   7112.67  2.8780126E-01
   7113.00  2.8534382E-01
   7113.33  2.7130790E-01
   7113.67  2.3680467E-01
   7114.00  1.8353993E-01
   7114.33  1.4032550E-01
   7114.67  1.1282239E-01
   7115.00  9.6619107E-02
   7115.33  8.8036276E-02
   7115.67  8.3721807E-02
   7116.00  8.2650243E-02
   7116.33  8.4595624E-02
   7116.67  8.8543371E-02
   7117.00  9.3200800E-02
   7117.33  9.6660737E-02
   7117.67  9.9358392E-02
   7118.00  1.0315286E-01
   7118.33  1.0988712E-01
   7118.67  1.1956977E-01
   7119.00  1.3211785E-01
   7119.33  1.4773665E-01
   7119.67  1.6596527E-01
   7120.00  1.8666905E-01
   7120.33  2.0982070E-01
   7120.67  2.3453935E-01
   7121.00  2.5990996E-01
   7121.33  2.8424270E-01
   7121.67  3.0603070E-01
   7122.00  3.2467352E-01
   7122.33  3.4075270E-01
   7122.67  3.5654181E-01
   7123.00  3.7350662E-01
   7123.33  3.9196236E-01
   7123.67  4.1019174E-01
   7124.00  4.2665022E-01
   7124.33  4.4011812E-01
   7124.67  4.5076149E-01
   7125.00  4.5855240E-01
   7125.33  4.6326506E-01
   7125.67  4.6588353E-01
   7126.00  4.6736688E-01
   7126.33  4.6878832E-01
   7126.67  4.7066155E-01
   7127.00  4.7290688E-01
   7127.33  4.7515252E-01
   7127.67  4.7712111E-01
   7128.00  4.7886888E-01
   7128.33  4.8078872E-01
   7128.67  4.8315836E-01
   7129.00  4.8596676E-01
   7129.33  4.8908891E-01
   7129.67  4.9244432E-01
   7130.00  4.9620425E-01
   7130.33  5.0093880E-01
   7130.67  5.0721299E-01
   7131.00  5.1566177E-01
   7131.33  5.2723921E-01
   7131.67  5.4180849E-01
   7132.00  5.5906845E-01
   7132.33  5.7830899E-01
   7132.67  5.9801061E-01
   7133.00  6.1708629E-01
   7133.33  6.3437521E-01
   7133.67  6.4944648E-01
   7134.00  6.6196549E-01
   7134.33  6.7145765E-01
   7134.67  6.7841261E-01
   7135.00  6.8312591E-01
   7135.33  6.8575635E-01
   7135.67  6.8687420E-01
   7136.00  6.8670333E-01
   7136.33  6.8529124E-01
   7136.67  6.8291472E-01
   7137.00  6.7969426E-01
   7137.33  6.7570339E-01
   7137.67  6.7120191E-01
   7138.00  6.6634137E-01
   7138.33  6.6126254E-01
   7138.67  6.5613055E-01
   7139.00  6.5104112E-01
   7139.33  6.4608859E-01
   7139.67  6.4130308E-01
   7140.00  6.3669914E-01
   7140.33  6.3229107E-01
   7140.67  6.2803014E-01
   7141.00  6.2388514E-01
   7141.33  6.1983200E-01
   7141.67  6.1584478E-01
   7142.00  6.1193614E-01
   7142.33  6.0816138E-01
   7142.67  6.0456443E-01
   7143.00  6.0122017E-01
   7143.33  5.9829156E-01
   7143.67  5.9586381E-01
   7144.00  5.9404410E-01
   7144.33  5.9301954E-01
   7144.67  5.9276001E-01
   7145.00  5.9328260E-01
   7145.33  5.9465729E-01
   7145.67  5.9671438E-01
   7146.00  5.9936372E-01
   7146.33  6.0254469E-01
   7146.67  6.0607323E-01
   7147.00  6.0984377E-01
   7147.33  6.1375482E-01
   7147.67  6.1768004E-01
   7148.00  6.2152728E-01
   7148.33  6.2516303E-01
   7148.67  6.2849856E-01
   7149.00  6.3144259E-01
   7149.33  6.3382940E-01
   7149.67  6.3562060E-01
   7150.00  6.3673759E-01
   7150.33  6.3701595E-01
   7150.67  6.3650471E-01
   7151.00  6.3517561E-01
   7151.33  6.3290228E-01
   7151.67  6.2978661E-01
   7152.00  6.2583915E-01
   7152.33  6.2098245E-01
   7152.67  6.1534935E-01
   7153.00  6.0897078E-01
   7153.33  6.0179690E-01
   7153.67  5.9395786E-01
   7154.00  5.8549285E-01
   7154.33  5.7638152E-01
   7154.67  5.6675327E-01
   7155.00  5.5665969E-01
   7155.33  5.4611438E-01
   7155.67  5.3523608E-01
   7156.00  5.2408709E-01
   7156.33  5.1271813E-01
   7156.67  5.0123145E-01
   7157.00  4.8969531E-01
   7157.33  4.7819183E-01
   7157.67  4.6679463E-01
   7158.00  4.5556904E-01
   7158.33  4.4461818E-01
   7158.67  4.3397967E-01
   7159.00  4.2370794E-01
   7159.33  4.1391296E-01
   7159.67  4.0459228E-01
   7160.00  3.9578421E-01
   7160.33  3.8759518E-01
   7160.67  3.7998591E-01
   7161.00  3.7297436E-01
   7161.33  3.6664827E-01
   7161.67  3.6093557E-01
   7162.00  3.5583619E-01
   7162.33  3.5142116E-01
   7162.67  3.4760477E-01
   7163.00  3.4437724E-01
   7163.33  3.4179491E-01
   7163.67  3.3976332E-01
   7164.00  3.3825736E-01
   7164.33  3.3729981E-01
   7164.67  3.3678823E-01
   7165.00  3.3668689E-01
   7165.33  3.3699787E-01
   7165.67  3.3762959E-01
   7166.00  3.3854222E-01
   7166.33  3.3972029E-01
   7166.67  3.4109257E-01
   7167.00  3.4262634E-01
   7167.33  3.4430350E-01
   7167.67  3.4607924E-01
   7168.00  3.4793316E-01
   7168.33  3.4985365E-01
   7168.67  3.5181818E-01
   7169.00  3.5381578E-01
   7169.33  3.5583835E-01
   7169.67  3.5787311E-01
   7170.00  3.5991079E-01
   7170.33  3.6193660E-01
   7170.67  3.6393196E-01
   7171.00  3.6587061E-01
   7171.33  3.6768897E-01
   7171.67  3.6931184E-01
   7172.00  3.7062642E-01
