    FDMNES
    energy     <xanes>
   7097.00  5.0804499E-03
   7097.33  5.1992867E-03
   7097.67  5.3234993E-03
   7098.00  5.4534522E-03
   7098.33  5.5903910E-03
   7098.67  5.7340623E-03
   7099.00  5.8849636E-03
   7099.33  6.0447248E-03
   7099.67  6.2130878E-03
   7100.00  6.3907495E-03
   7100.33  6.5799000E-03
   7100.67  6.7803021E-03
   7101.00  6.9929635E-03
   7101.33  7.2209206E-03
   7101.67  7.4640147E-03
   7102.00  7.7237591E-03
   7102.33  8.0045254E-03
   7102.67  8.3063615E-03
   7103.00  8.6316457E-03
   7103.33  8.9869704E-03
   7103.67  9.3728835E-03
   7104.00  9.7933384E-03
   7104.33  1.0258870E-02
   7104.67  1.0771235E-02
   7105.00  1.1337489E-02
   7105.33  1.1975774E-02
   7105.67  1.2690908E-02
   7106.00  1.3496710E-02
   7106.33  1.4427706E-02
   7106.67  1.5497234E-02
   7107.00  1.6736036E-02
   7107.33  1.8219691E-02
   7107.67  1.9989184E-02
   7108.00  2.2126843E-02
   7108.33  2.4836818E-02
   7108.67  2.8274866E-02
   7109.00  3.2736297E-02
   7109.33  3.8998711E-02
   7109.67  4.7928642E-02
   7110.00  6.1224399E-02
   7110.33  8.3737438E-02
   7110.67  1.2031236E-01
   7111.00  1.7079357E-01
   7111.33  2.1831039E-01
   7111.67  2.5710477E-01
   7112.00  2.9978961E-01
   7112.33  3.4785770E-01
   7112.67  3.8424989E-01
   7113.00  3.8086436E-01
   7113.33  3.1452558E-01
   7113.67  2.4716591E-01
   7114.00  2.0350754E-01
   7114.33  1.8396594E-01
   7114.67  1.8437176E-01
   7115.00  2.0502860E-01
   7115.33  2.4377584E-01
   7115.67  2.8178504E-01
   7116.00  2.9982690E-01
   7116.33  2.9111287E-01
   7116.67  2.7163750E-01
   7117.00  2.5084739E-01
   7117.33  2.3341359E-01
   7117.67  2.1931105E-01
   7118.00  2.0776487E-01
   7118.33  1.9797660E-01
   7118.67  1.8935570E-01
   7119.00  1.8178548E-01
   7119.33  1.7490661E-01
   7119.67  1.6817926E-01
   7120.00  1.6143440E-01
   7120.33  1.5506262E-01
   7120.67  1.5000663E-01
   7121.00  1.4693916E-01
   7121.33  1.4619131E-01
   7121.67  1.4723420E-01
   7122.00  1.4994291E-01
   7122.33  1.5470608E-01
   7122.67  1.6178878E-01
   7123.00  1.7177417E-01
   7123.33  1.8576735E-01
   7123.67  2.0383724E-01
   7124.00  2.2629349E-01
   7124.33  2.5351106E-01
   7124.67  2.8329026E-01
   7125.00  3.1264068E-01
   7125.33  3.3756611E-01
   7125.67  3.5762301E-01
   7126.00  3.7413089E-01
   7126.33  3.8884399E-01
   7126.67  4.0299322E-01
   7127.00  4.1694414E-01
   7127.33  4.3126661E-01
   7127.67  4.4657211E-01
   7128.00  4.6326779E-01
   7128.33  4.8200398E-01
   7128.67  5.0329975E-01
   7129.00  5.2787977E-01
   7129.33  5.5676819E-01
   7129.67  5.8981121E-01
   7130.00  6.2700895E-01
   7130.33  6.6797973E-01
   7130.67  7.1054853E-01
   7131.00  7.5278140E-01
   7131.33  7.9179223E-01
   7131.67  8.2524241E-01
   7132.00  8.5126506E-01
   7132.33  8.6811353E-01
   7132.67  8.7778093E-01
   7133.00  8.8167093E-01
   7133.33  8.8015241E-01
   7133.67  8.7379790E-01
   7134.00  8.6262905E-01
   7134.33  8.4690979E-01
   7134.67  8.2793901E-01
   7135.00  8.0588101E-01
   7135.33  7.8032732E-01
   7135.67  7.5198901E-01
   7136.00  7.2153335E-01
   7136.33  6.8986928E-01
   7136.67  6.5820325E-01
   7137.00  6.2735322E-01
   7137.33  5.9833748E-01
   7137.67  5.7167002E-01
   7138.00  5.4792507E-01
   7138.33  5.2815319E-01
   7138.67  5.1239425E-01
   7139.00  5.0089272E-01
   7139.33  4.9420202E-01
   7139.67  4.9148756E-01
   7140.00  4.9225203E-01
   7140.33  4.9605489E-01
   7140.67  5.0169508E-01
   7141.00  5.0846672E-01
   7141.33  5.1573045E-01
   7141.67  5.2290101E-01
   7142.00  5.2962643E-01
   7142.33  5.3545090E-01
   7142.67  5.4011776E-01
   7143.00  5.4330424E-01
   7143.33  5.4442429E-01
   7143.67  5.4346455E-01
   7144.00  5.4039152E-01
   7144.33  5.3519707E-01
   7144.67  5.2861170E-01
   7145.00  5.2119671E-01
   7145.33  5.1361734E-01
   7145.67  5.0648876E-01
   7146.00  5.0020028E-01
   7146.33  4.9520208E-01
   7146.67  4.9150514E-01
   7147.00  4.8910396E-01
   7147.33  4.8801744E-01
   7147.67  4.8792659E-01
   7148.00  4.8868051E-01
   7148.33  4.9020313E-01
   7148.67  4.9227704E-01
   7149.00  4.9482024E-01
   7149.33  4.9782558E-01
   7149.67  5.0121729E-01
   7150.00  5.0499224E-01
   7150.33  5.0920940E-01
   7150.67  5.1383675E-01
   7151.00  5.1888182E-01
   7151.33  5.2438493E-01
   7151.67  5.3025770E-01
   7152.00  5.3644505E-01
   7152.33  5.4288785E-01
   7152.67  5.4945195E-01
   7153.00  5.5603893E-01
   7153.33  5.6252313E-01
   7153.67  5.6880892E-01
   7154.00  5.7481326E-01
   7154.33  5.8040620E-01
   7154.67  5.8556223E-01
   7155.00  5.9022877E-01
   7155.33  5.9428816E-01
   7155.67  5.9777281E-01
   7156.00  6.0066544E-01
   7156.33  6.0288595E-01
   7156.67  6.0451925E-01
   7157.00  6.0558663E-01
   7157.33  6.0605636E-01
   7157.67  6.0603692E-01
   7158.00  6.0557245E-01
   7158.33  6.0467002E-01
   7158.67  6.0343245E-01
   7159.00  6.0190162E-01
   7159.33  6.0008618E-01
   7159.67  5.9804657E-01
   7160.00  5.9579774E-01
   7160.33  5.9332351E-01
   7160.67  5.9065195E-01
   7161.00  5.8777914E-01
   7161.33  5.8467029E-01
   7161.67  5.8134565E-01
   7162.00  5.7780395E-01
   7162.33  5.7402313E-01
   7162.67  5.7004402E-01
   7163.00  5.6588583E-01
   7163.33  5.6155795E-01
   7163.67  5.5711179E-01
   7164.00  5.5257666E-01
   7164.33  5.4797983E-01
   7164.67  5.4336097E-01
   7165.00  5.3874640E-01
   7165.33  5.3416866E-01
   7165.67  5.2964843E-01
   7166.00  5.2520184E-01
   7166.33  5.2084987E-01
   7166.67  5.1658208E-01
   7167.00  5.1238849E-01
   7167.33  5.0825148E-01
   7167.67  5.0413253E-01
   7168.00  5.0000418E-01
   7168.33  4.9583404E-01
   7168.67  4.9160356E-01
   7169.00  4.8730227E-01
   7169.33  4.8292619E-01
   7169.67  4.7850635E-01
   7170.00  4.7407560E-01
   7170.33  4.6968991E-01
   7170.67  4.6540861E-01
   7171.00  4.6130059E-01
   7171.33  4.5750847E-01
   7171.67  4.5415983E-01
   7172.00  4.5144560E-01
