    FDMNES
    energy     <xanes>
   7097.00  4.4703871E-03
   7097.33  4.5609034E-03
   7097.67  4.6548304E-03
   7098.00  4.7523629E-03
   7098.33  4.8542308E-03
   7098.67  4.9602253E-03
   7099.00  5.0706030E-03
   7099.33  5.1862820E-03
   7099.67  5.3070390E-03
   7100.00  5.4332207E-03
   7100.33  5.5660105E-03
   7100.67  5.7051786E-03
   7101.00  5.8512087E-03
   7101.33  6.0056718E-03
   7101.67  6.1683528E-03
   7102.00  6.3399529E-03
   7102.33  6.5226367E-03
   7102.67  6.7162530E-03
   7103.00  6.9218690E-03
   7103.33  7.1426120E-03
   7103.67  7.3785123E-03
   7104.00  7.6312969E-03
   7104.33  7.9057728E-03
   7104.67  8.2024448E-03
   7105.00  8.5243388E-03
   7105.33  8.8794827E-03
   7105.67  9.2696511E-03
   7106.00  9.7007390E-03
   7106.33  1.0187779E-02
   7106.67  1.0736264E-02
   7107.00  1.1359508E-02
   7107.33  1.2090683E-02
   7107.67  1.2948139E-02
   7108.00  1.3969206E-02
   7108.33  1.5247849E-02
   7108.67  1.6860817E-02
   7109.00  1.8955119E-02
   7109.33  2.1928939E-02
   7109.67  2.6268508E-02
   7110.00  3.2943662E-02
   7110.33  4.4717209E-02
   7110.67  6.3485307E-02
   7111.00  8.4360285E-02
   7111.33  9.0274322E-02
   7111.67  8.8259773E-02
   7112.00  9.0359095E-02
   7112.33  1.0368732E-01
   7112.67  1.2621738E-01
   7113.00  1.5110878E-01
   7113.33  1.5364207E-01
   7113.67  1.2953091E-01
   7114.00  1.0077071E-01
   7114.33  8.2042182E-02
   7114.67  7.1176492E-02
   7115.00  6.5793807E-02
   7115.33  6.4701281E-02
   7115.67  6.6739812E-02
   7116.00  7.1839137E-02
   7116.33  8.0768032E-02
   7116.67  9.4071334E-02
   7117.00  1.1347614E-01
   7117.33  1.4266720E-01
   7117.67  1.8123834E-01
   7118.00  2.2413353E-01
   7118.33  2.5461795E-01
   7118.67  2.6164477E-01
   7119.00  2.4991882E-01
   7119.33  2.3322893E-01
   7119.67  2.2103812E-01
   7120.00  2.1545801E-01
   7120.33  2.1773610E-01
   7120.67  2.2785496E-01
   7121.00  2.4705591E-01
   7121.33  2.7793063E-01
   7121.67  3.1968917E-01
   7122.00  3.7118855E-01
   7122.33  4.2766758E-01
   7122.67  4.7881231E-01
   7123.00  5.1728191E-01
   7123.33  5.4093834E-01
   7123.67  5.5732919E-01
   7124.00  5.7125830E-01
   7124.33  5.8500929E-01
   7124.67  5.9626235E-01
   7125.00  6.0239355E-01
   7125.33  6.0310815E-01
   7125.67  6.0072192E-01
   7126.00  5.9618523E-01
   7126.33  5.9055224E-01
   7126.67  5.8585391E-01
   7127.00  5.8367078E-01
   7127.33  5.8474350E-01
   7127.67  5.8761250E-01
   7128.00  5.9101092E-01
   7128.33  5.9368419E-01
   7128.67  5.9506709E-01
   7129.00  5.9499644E-01
   7129.33  5.9336460E-01
   7129.67  5.9047613E-01
   7130.00  5.8639532E-01
   7130.33  5.8115815E-01
   7130.67  5.7556463E-01
   7131.00  5.7069641E-01
   7131.33  5.6813980E-01
   7131.67  5.6834633E-01
   7132.00  5.7126792E-01
   7132.33  5.7666633E-01
   7132.67  5.8359130E-01
   7133.00  5.9148794E-01
   7133.33  5.9980816E-01
   7133.67  6.0778958E-01
   7134.00  6.1465599E-01
   7134.33  6.1928419E-01
   7134.67  6.2138389E-01
   7135.00  6.2087688E-01
   7135.33  6.1780829E-01
   7135.67  6.1314110E-01
   7136.00  6.0763801E-01
   7136.33  6.0227477E-01
   7136.67  5.9788966E-01
   7137.00  5.9497900E-01
   7137.33  5.9394799E-01
   7137.67  5.9441389E-01
   7138.00  5.9605658E-01
   7138.33  5.9856921E-01
   7138.67  6.0151968E-01
   7139.00  6.0469354E-01
   7139.33  6.0790160E-01
   7139.67  6.1094765E-01
   7140.00  6.1363498E-01
   7140.33  6.1560687E-01
   7140.67  6.1661831E-01
   7141.00  6.1636933E-01
   7141.33  6.1431876E-01
   7141.67  6.1038114E-01
   7142.00  6.0439608E-01
   7142.33  5.9606038E-01
   7142.67  5.8578762E-01
   7143.00  5.7387317E-01
   7143.33  5.6067415E-01
   7143.67  5.4693927E-01
   7144.00  5.3320915E-01
   7144.33  5.2010943E-01
   7144.67  5.0796162E-01
   7145.00  4.9696711E-01
   7145.33  4.8740057E-01
   7145.67  4.7912378E-01
   7146.00  4.7210108E-01
   7146.33  4.6639802E-01
   7146.67  4.6176098E-01
   7147.00  4.5808494E-01
   7147.33  4.5533826E-01
   7147.67  4.5327182E-01
   7148.00  4.5175415E-01
   7148.33  4.5067750E-01
   7148.67  4.4983779E-01
   7149.00  4.4910851E-01
   7149.33  4.4835998E-01
   7149.67  4.4749770E-01
   7150.00  4.4646770E-01
   7150.33  4.4521980E-01
   7150.67  4.4379451E-01
   7151.00  4.4223643E-01
   7151.33  4.4061548E-01
   7151.67  4.3902535E-01
   7152.00  4.3753523E-01
   7152.33  4.3622866E-01
   7152.67  4.3512110E-01
   7153.00  4.3422048E-01
   7153.33  4.3353969E-01
   7153.67  4.3301559E-01
   7154.00  4.3259326E-01
   7154.33  4.3220276E-01
   7154.67  4.3176947E-01
   7155.00  4.3124116E-01
   7155.33  4.3055565E-01
   7155.67  4.2970738E-01
   7156.00  4.2869509E-01
   7156.33  4.2751807E-01
   7156.67  4.2622698E-01
   7157.00  4.2485407E-01
   7157.33  4.2342688E-01
   7157.67  4.2197249E-01
   7158.00  4.2049408E-01
   7158.33  4.1897307E-01
   7158.67  4.1738677E-01
   7159.00  4.1570653E-01
   7159.33  4.1388475E-01
   7159.67  4.1191541E-01
   7160.00  4.0979531E-01
   7160.33  4.0752765E-01
   7160.67  4.0517424E-01
   7161.00  4.0279115E-01
   7161.33  4.0046280E-01
   7161.67  3.9827695E-01
   7162.00  3.9631989E-01
   7162.33  3.9472895E-01
   7162.67  3.9354913E-01
   7163.00  3.9284031E-01
   7163.33  3.9271778E-01
   7163.67  3.9314367E-01
   7164.00  3.9412217E-01
   7164.33  3.9570515E-01
   7164.67  3.9779222E-01
   7165.00  4.0034194E-01
   7165.33  4.0334364E-01
   7165.67  4.0667598E-01
   7166.00  4.1027287E-01
   7166.33  4.1407865E-01
   7166.67  4.1799314E-01
   7167.00  4.2195455E-01
   7167.33  4.2589676E-01
   7167.67  4.2976881E-01
   7168.00  4.3353429E-01
   7168.33  4.3714396E-01
   7168.67  4.4059449E-01
   7169.00  4.4387626E-01
   7169.33  4.4696367E-01
   7169.67  4.4987929E-01
   7170.00  4.5262546E-01
   7170.33  4.5518328E-01
   7170.67  4.5757160E-01
   7171.00  4.5978184E-01
   7171.33  4.6176327E-01
   7171.67  4.6348588E-01
   7172.00  4.6487390E-01
