    FDMNES
    energy     <xanes>
   7097.00  5.0515819E-03
   7097.33  5.1709370E-03
   7097.67  5.2957010E-03
   7098.00  5.4262384E-03
   7098.33  5.5637978E-03
   7098.67  5.7081205E-03
   7099.00  5.8597013E-03
   7099.33  6.0201695E-03
   7099.67  6.1892582E-03
   7100.00  6.3676574E-03
   7100.33  6.5575470E-03
   7100.67  6.7586751E-03
   7101.00  6.9720336E-03
   7101.33  7.2006275E-03
   7101.67  7.4442725E-03
   7102.00  7.7044464E-03
   7102.33  7.9854448E-03
   7102.67  8.2872670E-03
   7103.00  8.6122139E-03
   7103.33  8.9667053E-03
   7103.67  9.3511904E-03
   7104.00  9.7694520E-03
   7104.33  1.0231639E-02
   7104.67  1.0739290E-02
   7105.00  1.1299077E-02
   7105.33  1.1928257E-02
   7105.67  1.2631141E-02
   7106.00  1.3420637E-02
   7106.33  1.4329160E-02
   7106.67  1.5368765E-02
   7107.00  1.6567908E-02
   7107.33  1.7996830E-02
   7107.67  1.9693028E-02
   7108.00  2.1732719E-02
   7108.33  2.4305846E-02
   7108.67  2.7558629E-02
   7109.00  3.1770602E-02
   7109.33  3.7686046E-02
   7109.67  4.6161339E-02
   7110.00  5.8891832E-02
   7110.33  8.0724369E-02
   7110.67  1.1586794E-01
   7111.00  1.6038763E-01
   7111.33  1.8964602E-01
   7111.67  2.0468424E-01
   7112.00  2.1996117E-01
   7112.33  2.3973622E-01
   7112.67  2.6455863E-01
   7113.00  3.0175551E-01
   7113.33  3.5932122E-01
   7113.67  4.2103283E-01
   7114.00  4.5882631E-01
   7114.33  4.4269002E-01
   7114.67  4.0289805E-01
   7115.00  3.6816011E-01
   7115.33  3.4883251E-01
   7115.67  3.3480520E-01
   7116.00  3.1635120E-01
   7116.33  2.8948653E-01
   7116.67  2.6051896E-01
   7117.00  2.3389607E-01
   7117.33  2.1192787E-01
   7117.67  1.9391704E-01
   7118.00  1.7925826E-01
   7118.33  1.6745850E-01
   7118.67  1.5754949E-01
   7119.00  1.4923012E-01
   7119.33  1.4251104E-01
   7119.67  1.3697793E-01
   7120.00  1.3233686E-01
   7120.33  1.2848699E-01
   7120.67  1.2551183E-01
   7121.00  1.2371144E-01
   7121.33  1.2342029E-01
   7121.67  1.2432809E-01
   7122.00  1.2618653E-01
   7122.33  1.2882244E-01
   7122.67  1.3204210E-01
   7123.00  1.3589964E-01
   7123.33  1.4068099E-01
   7123.67  1.4655632E-01
   7124.00  1.5382408E-01
   7124.33  1.6313340E-01
   7124.67  1.7473171E-01
   7125.00  1.8897649E-01
   7125.33  2.0621846E-01
   7125.67  2.2521974E-01
   7126.00  2.4493288E-01
   7126.33  2.6615557E-01
   7126.67  2.9160384E-01
   7127.00  3.2354182E-01
   7127.33  3.6234866E-01
   7127.67  4.0226274E-01
   7128.00  4.3735920E-01
   7128.33  4.6386527E-01
   7128.67  4.8608448E-01
   7129.00  5.0849654E-01
   7129.33  5.3526170E-01
   7129.67  5.6745595E-01
   7130.00  6.0504935E-01
   7130.33  6.4734852E-01
   7130.67  6.9175302E-01
   7131.00  7.3614921E-01
   7131.33  7.7807986E-01
   7131.67  8.1664992E-01
   7132.00  8.5187285E-01
   7132.33  8.8419848E-01
   7132.67  9.1468221E-01
   7133.00  9.4324966E-01
   7133.33  9.6810725E-01
   7133.67  9.8701010E-01
   7134.00  9.9717994E-01
   7134.33  9.9418597E-01
   7134.67  9.7768728E-01
   7135.00  9.4773377E-01
   7135.33  9.0511446E-01
   7135.67  8.5497879E-01
   7136.00  8.0079226E-01
   7136.33  7.4595217E-01
   7136.67  6.9309447E-01
   7137.00  6.4375151E-01
   7137.33  5.9972222E-01
   7137.67  5.6119132E-01
   7138.00  5.2856891E-01
   7138.33  5.0282558E-01
   7138.67  4.8309058E-01
   7139.00  4.6900548E-01
   7139.33  4.6048027E-01
   7139.67  4.5597752E-01
   7140.00  4.5465977E-01
   7140.33  4.5592786E-01
   7140.67  4.5880476E-01
   7141.00  4.6288467E-01
   7141.33  4.6800506E-01
   7141.67  4.7392453E-01
   7142.00  4.8060316E-01
   7142.33  4.8810658E-01
   7142.67  4.9629258E-01
   7143.00  5.0507475E-01
   7143.33  5.1434799E-01
   7143.67  5.2384145E-01
   7144.00  5.3333941E-01
   7144.33  5.4254914E-01
   7144.67  5.5125858E-01
   7145.00  5.5928998E-01
   7145.33  5.6638470E-01
   7145.67  5.7255488E-01
   7146.00  5.7777001E-01
   7146.33  5.8192594E-01
   7146.67  5.8519287E-01
   7147.00  5.8763364E-01
   7147.33  5.8923989E-01
   7147.67  5.9019439E-01
   7148.00  5.9057371E-01
   7148.33  5.9040096E-01
   7148.67  5.8981361E-01
   7149.00  5.8886831E-01
   7149.33  5.8758927E-01
   7149.67  5.8607277E-01
   7150.00  5.8436937E-01
   7150.33  5.8252225E-01
   7150.67  5.8060484E-01
   7151.00  5.7866936E-01
   7151.33  5.7678850E-01
   7151.67  5.7502834E-01
   7152.00  5.7345363E-01
   7152.33  5.7217205E-01
   7152.67  5.7122124E-01
   7153.00  5.7065273E-01
   7153.33  5.7056256E-01
   7153.67  5.7091498E-01
   7154.00  5.7170035E-01
   7154.33  5.7292482E-01
   7154.67  5.7446264E-01
   7155.00  5.7622348E-01
   7155.33  5.7809583E-01
   7155.67  5.7993631E-01
   7156.00  5.8163782E-01
   7156.33  5.8306298E-01
   7156.67  5.8416427E-01
   7157.00  5.8490080E-01
   7157.33  5.8520672E-01
   7157.67  5.8513851E-01
   7158.00  5.8471867E-01
   7158.33  5.8394227E-01
   7158.67  5.8288320E-01
   7159.00  5.8156798E-01
   7159.33  5.7999363E-01
   7159.67  5.7820576E-01
   7160.00  5.7621105E-01
   7160.33  5.7398312E-01
   7160.67  5.7154060E-01
   7161.00  5.6887346E-01
   7161.33  5.6593928E-01
   7161.67  5.6275812E-01
   7162.00  5.5932413E-01
   7162.33  5.5559831E-01
   7162.67  5.5161486E-01
   7163.00  5.4738531E-01
   7163.33  5.4290107E-01
   7163.67  5.3821434E-01
   7164.00  5.3334789E-01
   7164.33  5.2830919E-01
   7164.67  5.2314167E-01
   7165.00  5.1786446E-01
   7165.33  5.1248640E-01
   7165.67  5.0703695E-01
   7166.00  5.0153185E-01
   7166.33  4.9598499E-01
   7166.67  4.9042003E-01
   7167.00  4.8485475E-01
   7167.33  4.7931462E-01
   7167.67  4.7382158E-01
   7168.00  4.6839872E-01
   7168.33  4.6308789E-01
   7168.67  4.5790995E-01
   7169.00  4.5289526E-01
   7169.33  4.4809929E-01
   7169.67  4.4352485E-01
   7170.00  4.3919338E-01
   7170.33  4.3516424E-01
   7170.67  4.3143119E-01
   7171.00  4.2802076E-01
   7171.33  4.2502098E-01
   7171.67  4.2245578E-01
   7172.00  4.2040917E-01
