    FDMNES
    energy     <xanes>
   7097.00  5.0562859E-03
   7097.33  5.1761050E-03
   7097.67  5.3013705E-03
   7098.00  5.4324501E-03
   7098.33  5.5706029E-03
   7098.67  5.7155696E-03
   7099.00  5.8678503E-03
   7099.33  6.0290889E-03
   7099.67  6.1990185E-03
   7100.00  6.3783370E-03
   7100.33  6.5692456E-03
   7100.67  6.7714938E-03
   7101.00  6.9860854E-03
   7101.33  7.2160584E-03
   7101.67  7.4612322E-03
   7102.00  7.7231043E-03
   7102.33  8.0060230E-03
   7102.67  8.3099968E-03
   7103.00  8.6373611E-03
   7103.33  8.9946247E-03
   7103.67  9.3822584E-03
   7104.00  9.8041102E-03
   7104.33  1.0270489E-02
   7104.67  1.0782989E-02
   7105.00  1.1348412E-02
   7105.33  1.1984337E-02
   7105.67  1.2695212E-02
   7106.00  1.3494244E-02
   7106.33  1.4414568E-02
   7106.67  1.5468641E-02
   7107.00  1.6685701E-02
   7107.33  1.8137887E-02
   7107.67  1.9864068E-02
   7108.00  2.1942984E-02
   7108.33  2.4570909E-02
   7108.67  2.7900028E-02
   7109.00  3.2220906E-02
   7109.33  3.8307715E-02
   7109.67  4.7055004E-02
   7110.00  6.0234343E-02
   7110.33  8.2933633E-02
   7110.67  1.1978249E-01
   7111.00  1.6736217E-01
   7111.33  1.9820258E-01
   7111.67  2.0797931E-01
   7112.00  2.1521013E-01
   7112.33  2.3773063E-01
   7112.67  2.6938526E-01
   7113.00  3.0685732E-01
   7113.33  3.5846790E-01
   7113.67  4.1146120E-01
   7114.00  4.4450664E-01
   7114.33  4.3735513E-01
   7114.67  4.0525442E-01
   7115.00  3.7123797E-01
   7115.33  3.5019050E-01
   7115.67  3.3589185E-01
   7116.00  3.1868000E-01
   7116.33  2.9276929E-01
   7116.67  2.6372580E-01
   7117.00  2.3663262E-01
   7117.33  2.1466664E-01
   7117.67  1.9721329E-01
   7118.00  1.8344441E-01
   7118.33  1.7255703E-01
   7118.67  1.6333507E-01
   7119.00  1.5536454E-01
   7119.33  1.4859977E-01
   7119.67  1.4275188E-01
   7120.00  1.3758004E-01
   7120.33  1.3293242E-01
   7120.67  1.2895753E-01
   7121.00  1.2611446E-01
   7121.33  1.2495584E-01
   7121.67  1.2524222E-01
   7122.00  1.2672248E-01
   7122.33  1.2922132E-01
   7122.67  1.3250030E-01
   7123.00  1.3659499E-01
   7123.33  1.4176560E-01
   7123.67  1.4809685E-01
   7124.00  1.5580975E-01
   7124.33  1.6541762E-01
   7124.67  1.7701051E-01
   7125.00  1.9071773E-01
   7125.33  2.0641743E-01
   7125.67  2.2295737E-01
   7126.00  2.4007303E-01
   7126.33  2.5966839E-01
   7126.67  2.8436156E-01
   7127.00  3.1598363E-01
   7127.33  3.5422148E-01
   7127.67  3.9297457E-01
   7128.00  4.2668522E-01
   7128.33  4.5231453E-01
   7128.67  4.7422137E-01
   7129.00  4.9664091E-01
   7129.33  5.2342782E-01
   7129.67  5.5550581E-01
   7130.00  5.9296931E-01
   7130.33  6.3544177E-01
   7130.67  6.8043090E-01
   7131.00  7.2572177E-01
   7131.33  7.6860416E-01
   7131.67  8.0809512E-01
   7132.00  8.4445146E-01
   7132.33  8.7870460E-01
   7132.67  9.1219591E-01
   7133.00  9.4490551E-01
   7133.33  9.7479836E-01
   7133.67  9.9866626E-01
   7134.00  1.0126799E+00
   7134.33  1.0111616E+00
   7134.67  9.9392597E-01
   7135.00  9.6155478E-01
   7135.33  9.1548982E-01
   7135.67  8.6159628E-01
   7136.00  8.0370839E-01
   7136.33  7.4556260E-01
   7136.67  6.8991487E-01
   7137.00  6.3834578E-01
   7137.33  5.9269719E-01
   7137.67  5.5300971E-01
   7138.00  5.1961146E-01
   7138.33  4.9342158E-01
   7138.67  4.7347486E-01
   7139.00  4.5939825E-01
   7139.33  4.5115307E-01
   7139.67  4.4721185E-01
   7140.00  4.4676086E-01
   7140.33  4.4922666E-01
   7140.67  4.5353528E-01
   7141.00  4.5920051E-01
   7141.33  4.6596485E-01
   7141.67  4.7349676E-01
   7142.00  4.8171191E-01
   7142.33  4.9064680E-01
   7142.67  5.0018126E-01
   7143.00  5.1024832E-01
   7143.33  5.2075819E-01
   7143.67  5.3145220E-01
   7144.00  5.4210396E-01
   7144.33  5.5237794E-01
   7144.67  5.6202022E-01
   7145.00  5.7079833E-01
   7145.33  5.7835495E-01
   7145.67  5.8467362E-01
   7146.00  5.8968573E-01
   7146.33  5.9322031E-01
   7146.67  5.9550584E-01
   7147.00  5.9663871E-01
   7147.33  5.9662871E-01
   7147.67  5.9575515E-01
   7148.00  5.9415568E-01
   7148.33  5.9191907E-01
   7148.67  5.8926606E-01
   7149.00  5.8631234E-01
   7149.33  5.8315530E-01
   7149.67  5.7991801E-01
   7150.00  5.7667353E-01
   7150.33  5.7350265E-01
   7150.67  5.7045449E-01
   7151.00  5.6757077E-01
   7151.33  5.6492230E-01
   7151.67  5.6252655E-01
   7152.00  5.6042209E-01
   7152.33  5.5869822E-01
   7152.67  5.5736164E-01
   7153.00  5.5645424E-01
   7153.33  5.5607854E-01
   7153.67  5.5620602E-01
   7154.00  5.5684752E-01
   7154.33  5.5805505E-01
   7154.67  5.5972361E-01
   7155.00  5.6178925E-01
   7155.33  5.6418366E-01
   7155.67  5.6674200E-01
   7156.00  5.6934560E-01
   7156.33  5.7184876E-01
   7156.67  5.7414578E-01
   7157.00  5.7615890E-01
   7157.33  5.7778548E-01
   7157.67  5.7904091E-01
   7158.00  5.7992281E-01
   7158.33  5.8040037E-01
   7158.67  5.8054060E-01
   7159.00  5.8036248E-01
   7159.33  5.7984978E-01
   7159.67  5.7905628E-01
   7160.00  5.7799086E-01
   7160.33  5.7662472E-01
   7160.67  5.7499096E-01
   7161.00  5.7308590E-01
   7161.33  5.7087024E-01
   7161.67  5.6837758E-01
   7162.00  5.6560839E-01
   7162.33  5.6252511E-01
   7162.67  5.5916340E-01
   7163.00  5.5553106E-01
   7163.33  5.5160756E-01
   7163.67  5.4743776E-01
   7164.00  5.4303308E-01
   7164.33  5.3837833E-01
   7164.67  5.3351141E-01
   7165.00  5.2844042E-01
   7165.33  5.2315133E-01
   7165.67  5.1768073E-01
   7166.00  5.1204274E-01
   7166.33  5.0623977E-01
   7166.67  5.0031538E-01
   7167.00  4.9429537E-01
   7167.33  4.8820667E-01
   7167.67  4.8209527E-01
   7168.00  4.7599659E-01
   7168.33  4.6996168E-01
   7168.67  4.6403144E-01
   7169.00  4.5824848E-01
   7169.33  4.5268038E-01
   7169.67  4.4734151E-01
   7170.00  4.4226206E-01
   7170.33  4.3751373E-01
   7170.67  4.3309575E-01
   7171.00  4.2904260E-01
   7171.33  4.2546141E-01
   7171.67  4.2238957E-01
   7172.00  4.1993674E-01
