    FDMNES
    energy     <xanes>
   7097.00  3.5651312E-03
   7097.33  3.6279876E-03
   7097.67  3.6931300E-03
   7098.00  3.7606959E-03
   7098.33  3.8311860E-03
   7098.67  3.9044705E-03
   7099.00  3.9807339E-03
   7099.33  4.0606169E-03
   7099.67  4.1439843E-03
   7100.00  4.2310910E-03
   7100.33  4.3227790E-03
   7100.67  4.4189162E-03
   7101.00  4.5198666E-03
   7101.33  4.6267731E-03
   7101.67  4.7395259E-03
   7102.00  4.8586655E-03
   7102.33  4.9858051E-03
   7102.67  5.1209009E-03
   7103.00  5.2647937E-03
   7103.33  5.4198732E-03
   7103.67  5.5862617E-03
   7104.00  5.7653450E-03
   7104.33  5.9608837E-03
   7104.67  6.1734094E-03
   7105.00  6.4053794E-03
   7105.33  6.6631913E-03
   7105.67  6.9484268E-03
   7106.00  7.2658829E-03
   7106.33  7.6276380E-03
   7106.67  8.0382342E-03
   7107.00  8.5083640E-03
   7107.33  9.0644445E-03
   7107.67  9.7208007E-03
   7108.00  1.0506411E-02
   7108.33  1.1493522E-02
   7108.67  1.2738412E-02
   7109.00  1.4348372E-02
   7109.33  1.6609185E-02
   7109.67  1.9851363E-02
   7110.00  2.4728875E-02
   7110.33  3.3116125E-02
   7110.67  4.6672190E-02
   7111.00  6.3780919E-02
   7111.33  7.3358601E-02
   7111.67  7.8233002E-02
   7112.00  8.9163938E-02
   7112.33  1.1204737E-01
   7112.67  1.3511913E-01
   7113.00  1.3617902E-01
   7113.33  1.1396010E-01
   7113.67  9.6218158E-02
   7114.00  9.3636268E-02
   7114.33  1.1001851E-01
   7114.67  1.3530010E-01
   7115.00  1.4725174E-01
   7115.33  1.3028788E-01
   7115.67  1.0524858E-01
   7116.00  8.5736764E-02
   7116.33  7.5590704E-02
   7116.67  6.8081186E-02
   7117.00  5.9915749E-02
   7117.33  5.2358146E-02
   7117.67  4.6528559E-02
   7118.00  4.2236035E-02
   7118.33  3.9325463E-02
   7118.67  3.7515007E-02
   7119.00  3.6685890E-02
   7119.33  3.6717595E-02
   7119.67  3.7136207E-02
   7120.00  3.7491681E-02
   7120.33  3.7692156E-02
   7120.67  3.8348280E-02
   7121.00  3.9796128E-02
   7121.33  4.2213562E-02
   7121.67  4.5516669E-02
   7122.00  4.9796199E-02
   7122.33  5.5429401E-02
   7122.67  6.2511147E-02
   7123.00  7.1095008E-02
   7123.33  8.1066074E-02
   7123.67  9.1369348E-02
   7124.00  1.0081264E-01
   7124.33  1.0888416E-01
   7124.67  1.1671963E-01
   7125.00  1.2498902E-01
   7125.33  1.3382191E-01
   7125.67  1.4290109E-01
   7126.00  1.5232532E-01
   7126.33  1.6280122E-01
   7126.67  1.7481908E-01
   7127.00  1.8869682E-01
   7127.33  2.0478304E-01
   7127.67  2.2275036E-01
   7128.00  2.4260671E-01
   7128.33  2.6504469E-01
   7128.67  2.9069962E-01
   7129.00  3.2063107E-01
   7129.33  3.5629258E-01
   7129.67  3.9544252E-01
   7130.00  4.3285606E-01
   7130.33  4.5819687E-01
   7130.67  4.6828549E-01
   7131.00  4.6597933E-01
   7131.33  4.5675598E-01
   7131.67  4.4595319E-01
   7132.00  4.3569717E-01
   7132.33  4.2762044E-01
   7132.67  4.2234824E-01
   7133.00  4.2043862E-01
   7133.33  4.2291288E-01
   7133.67  4.2964021E-01
   7134.00  4.4067907E-01
   7134.33  4.5623219E-01
   7134.67  4.7513525E-01
   7135.00  4.9661840E-01
   7135.33  5.1990260E-01
   7135.67  5.4387861E-01
   7136.00  5.6792711E-01
   7136.33  5.9155347E-01
   7136.67  6.1466589E-01
   7137.00  6.3736275E-01
   7137.33  6.5992402E-01
   7137.67  6.8272952E-01
   7138.00  7.0602010E-01
   7138.33  7.2988138E-01
   7138.67  7.5381447E-01
   7139.00  7.7697910E-01
   7139.33  7.9758065E-01
   7139.67  8.1404432E-01
   7140.00  8.2482509E-01
   7140.33  8.2780939E-01
   7140.67  8.2353329E-01
   7141.00  8.1248001E-01
   7141.33  7.9523831E-01
   7141.67  7.7416095E-01
   7142.00  7.5067734E-01
   7142.33  7.2610161E-01
   7142.67  7.0167893E-01
   7143.00  6.7812512E-01
   7143.33  6.5620197E-01
   7143.67  6.3608935E-01
   7144.00  6.1796274E-01
   7144.33  6.0217841E-01
   7144.67  5.8849770E-01
   7145.00  5.7689934E-01
   7145.33  5.6756976E-01
   7145.67  5.6013983E-01
   7146.00  5.5449963E-01
   7146.33  5.5073465E-01
   7146.67  5.4849175E-01
   7147.00  5.4763197E-01
   7147.33  5.4813733E-01
   7147.67  5.4968010E-01
   7148.00  5.5210593E-01
   7148.33  5.5532374E-01
   7148.67  5.5907380E-01
   7149.00  5.6321951E-01
   7149.33  5.6764987E-01
   7149.67  5.7220969E-01
   7150.00  5.7680706E-01
   7150.33  5.8134006E-01
   7150.67  5.8572771E-01
   7151.00  5.8989462E-01
   7151.33  5.9371155E-01
   7151.67  5.9712581E-01
   7152.00  6.0006335E-01
   7152.33  6.0238830E-01
   7152.67  6.0413816E-01
   7153.00  6.0532806E-01
   7153.33  6.0597293E-01
   7153.67  6.0628346E-01
   7154.00  6.0644088E-01
   7154.33  6.0669832E-01
   7154.67  6.0727627E-01
   7155.00  6.0831947E-01
   7155.33  6.0995088E-01
   7155.67  6.1202371E-01
   7156.00  6.1435187E-01
   7156.33  6.1658795E-01
   7156.67  6.1833004E-01
   7157.00  6.1923216E-01
   7157.33  6.1884444E-01
   7157.67  6.1717114E-01
   7158.00  6.1424013E-01
   7158.33  6.1008384E-01
   7158.67  6.0508405E-01
   7159.00  5.9945581E-01
   7159.33  5.9335511E-01
   7159.67  5.8698233E-01
   7160.00  5.8042449E-01
   7160.33  5.7374658E-01
   7160.67  5.6703877E-01
   7161.00  5.6037708E-01
   7161.33  5.5388058E-01
   7161.67  5.4763628E-01
   7162.00  5.4172901E-01
   7162.33  5.3629373E-01
   7162.67  5.3134115E-01
   7163.00  5.2691031E-01
   7163.33  5.2309117E-01
   7163.67  5.1981669E-01
   7164.00  5.1707665E-01
   7164.33  5.1491550E-01
   7164.67  5.1324553E-01
   7165.00  5.1204467E-01
   7165.33  5.1133784E-01
   7165.67  5.1103466E-01
   7166.00  5.1109967E-01
   7166.33  5.1152470E-01
   7166.67  5.1221273E-01
   7167.00  5.1310695E-01
   7167.33  5.1414804E-01
   7167.67  5.1523548E-01
   7168.00  5.1629326E-01
   7168.33  5.1721984E-01
   7168.67  5.1795191E-01
   7169.00  5.1843606E-01
   7169.33  5.1859607E-01
   7169.67  5.1845533E-01
   7170.00  5.1802580E-01
   7170.33  5.1731459E-01
   7170.67  5.1641332E-01
   7171.00  5.1538781E-01
   7171.33  5.1432464E-01
   7171.67  5.1333508E-01
   7172.00  5.1251983E-01
