    FDMNES
    energy     <xanes>
   7097.00  5.0575292E-03
   7097.33  5.1750455E-03
   7097.67  5.2978222E-03
   7098.00  5.4262108E-03
   7098.33  5.5614212E-03
   7098.67  5.7031983E-03
   7099.00  5.8520192E-03
   7099.33  6.0094600E-03
   7099.67  6.1752573E-03
   7100.00  6.3500757E-03
   7100.33  6.5360207E-03
   7100.67  6.7328428E-03
   7101.00  6.9414960E-03
   7101.33  7.1648794E-03
   7101.67  7.4028068E-03
   7102.00  7.6566987E-03
   7102.33  7.9306932E-03
   7102.67  8.2247787E-03
   7103.00  8.5411641E-03
   7103.33  8.8860244E-03
   7103.67  9.2597749E-03
   7104.00  9.6660418E-03
   7104.33  1.0114565E-02
   7104.67  1.0606793E-02
   7105.00  1.1149100E-02
   7105.33  1.1757993E-02
   7105.67  1.2437519E-02
   7106.00  1.3199939E-02
   7106.33  1.4076055E-02
   7106.67  1.5077071E-02
   7107.00  1.6229683E-02
   7107.33  1.7599729E-02
   7107.67  1.9221287E-02
   7108.00  2.1164075E-02
   7108.33  2.3600924E-02
   7108.67  2.6659102E-02
   7109.00  3.0581469E-02
   7109.33  3.6004657E-02
   7109.67  4.3619953E-02
   7110.00  5.4781200E-02
   7110.33  7.3358424E-02
   7110.67  1.0343303E-01
   7111.00  1.4620440E-01
   7111.33  1.9076831E-01
   7111.67  2.2671025E-01
   7112.00  2.5542099E-01
   7112.33  2.7840507E-01
   7112.67  2.9655505E-01
   7113.00  3.1259365E-01
   7113.33  3.2994849E-01
   7113.67  3.4909762E-01
   7114.00  3.6129904E-01
   7114.33  3.5434630E-01
   7114.67  3.3565724E-01
   7115.00  3.1022493E-01
   7115.33  2.8251759E-01
   7115.67  2.6022071E-01
   7116.00  2.4682086E-01
   7116.33  2.4391759E-01
   7116.67  2.4994867E-01
   7117.00  2.6206673E-01
   7117.33  2.6746048E-01
   7117.67  2.5340613E-01
   7118.00  2.2307067E-01
   7118.33  1.9113844E-01
   7118.67  1.6591299E-01
   7119.00  1.4802815E-01
   7119.33  1.3673525E-01
   7119.67  1.2948251E-01
   7120.00  1.2498772E-01
   7120.33  1.2281569E-01
   7120.67  1.2251616E-01
   7121.00  1.2372752E-01
   7121.33  1.2627630E-01
   7121.67  1.3052442E-01
   7122.00  1.3720232E-01
   7122.33  1.4699448E-01
   7122.67  1.5900330E-01
   7123.00  1.7245922E-01
   7123.33  1.8769521E-01
   7123.67  2.0559916E-01
   7124.00  2.2627802E-01
   7124.33  2.4793899E-01
   7124.67  2.6784518E-01
   7125.00  2.8540029E-01
   7125.33  3.0200732E-01
   7125.67  3.1961701E-01
   7126.00  3.3940285E-01
   7126.33  3.6309684E-01
   7126.67  3.9146177E-01
   7127.00  4.2481545E-01
   7127.33  4.6188061E-01
   7127.67  4.9775138E-01
   7128.00  5.2766937E-01
   7128.33  5.4726903E-01
   7128.67  5.5858326E-01
   7129.00  5.6461271E-01
   7129.33  5.6942251E-01
   7129.67  5.7676362E-01
   7130.00  5.8851907E-01
   7130.33  6.0557348E-01
   7130.67  6.2546354E-01
   7131.00  6.4530235E-01
   7131.33  6.6165482E-01
   7131.67  6.7407964E-01
   7132.00  6.8373077E-01
   7132.33  6.9258115E-01
   7132.67  7.0230350E-01
   7133.00  7.1375065E-01
   7133.33  7.2806033E-01
   7133.67  7.4548854E-01
   7134.00  7.6582524E-01
   7134.33  7.8736524E-01
   7134.67  8.0579107E-01
   7135.00  8.1613716E-01
   7135.33  8.1273850E-01
   7135.67  7.9798552E-01
   7136.00  7.7599045E-01
   7136.33  7.5188684E-01
   7136.67  7.2963297E-01
   7137.00  7.1069105E-01
   7137.33  6.9555141E-01
   7137.67  6.8278835E-01
   7138.00  6.7127844E-01
   7138.33  6.6001867E-01
   7138.67  6.4857096E-01
   7139.00  6.3710753E-01
   7139.33  6.2635003E-01
   7139.67  6.1709343E-01
   7140.00  6.1008040E-01
   7140.33  6.0632623E-01
   7140.67  6.0575185E-01
   7141.00  6.0825124E-01
   7141.33  6.1356642E-01
   7141.67  6.2035234E-01
   7142.00  6.2746131E-01
   7142.33  6.3337689E-01
   7142.67  6.3713151E-01
   7143.00  6.3821342E-01
   7143.33  6.3623857E-01
   7143.67  6.3193692E-01
   7144.00  6.2579272E-01
   7144.33  6.1817406E-01
   7144.67  6.0962942E-01
   7145.00  6.0035487E-01
   7145.33  5.9038900E-01
   7145.67  5.7987406E-01
   7146.00  5.6888171E-01
   7146.33  5.5751768E-01
   7146.67  5.4605604E-01
   7147.00  5.3475654E-01
   7147.33  5.2400935E-01
   7147.67  5.1403501E-01
   7148.00  5.0501494E-01
   7148.33  4.9725598E-01
   7148.67  4.9074040E-01
   7149.00  4.8553555E-01
   7149.33  4.8184746E-01
   7149.67  4.7950538E-01
   7150.00  4.7847658E-01
   7150.33  4.7884762E-01
   7150.67  4.8036812E-01
   7151.00  4.8293619E-01
   7151.33  4.8652392E-01
   7151.67  4.9085669E-01
   7152.00  4.9578430E-01
   7152.33  5.0117469E-01
   7152.67  5.0678847E-01
   7153.00  5.1246363E-01
   7153.33  5.1799709E-01
   7153.67  5.2322038E-01
   7154.00  5.2798083E-01
   7154.33  5.3203663E-01
   7154.67  5.3532905E-01
   7155.00  5.3777092E-01
   7155.33  5.3919268E-01
   7155.67  5.3970562E-01
   7156.00  5.3935078E-01
   7156.33  5.3812087E-01
   7156.67  5.3623265E-01
   7157.00  5.3379826E-01
   7157.33  5.3089226E-01
   7157.67  5.2767942E-01
   7158.00  5.2424011E-01
   7158.33  5.2063082E-01
   7158.67  5.1693129E-01
   7159.00  5.1318731E-01
   7159.33  5.0945036E-01
   7159.67  5.0577107E-01
   7160.00  5.0219590E-01
   7160.33  4.9879426E-01
   7160.67  4.9558436E-01
   7161.00  4.9258691E-01
   7161.33  4.8983928E-01
   7161.67  4.8730993E-01
   7162.00  4.8498999E-01
   7162.33  4.8288537E-01
   7162.67  4.8095209E-01
   7163.00  4.7918387E-01
   7163.33  4.7760214E-01
   7163.67  4.7619034E-01
   7164.00  4.7495528E-01
   7164.33  4.7392495E-01
   7164.67  4.7307395E-01
   7165.00  4.7239323E-01
   7165.33  4.7188256E-01
   7165.67  4.7149534E-01
   7166.00  4.7120290E-01
   7166.33  4.7097527E-01
   7166.67  4.7076521E-01
   7167.00  4.7053858E-01
   7167.33  4.7025726E-01
   7167.67  4.6990240E-01
   7168.00  4.6945339E-01
   7168.33  4.6887882E-01
   7168.67  4.6818546E-01
   7169.00  4.6737570E-01
   7169.33  4.6644844E-01
   7169.67  4.6543716E-01
   7170.00  4.6436495E-01
   7170.33  4.6326076E-01
   7170.67  4.6216539E-01
   7171.00  4.6111341E-01
   7171.33  4.6015822E-01
   7171.67  4.5933475E-01
   7172.00  4.5868231E-01
