    FDMNES
    energy     <xanes>
   7097.00  5.1832498E-03
   7097.33  5.3112921E-03
   7097.67  5.4453017E-03
   7098.00  5.5856842E-03
   7098.33  5.7338229E-03
   7098.67  5.8894360E-03
   7099.00  6.0530734E-03
   7099.33  6.2265395E-03
   7099.67  6.4095413E-03
   7100.00  6.6028426E-03
   7100.33  6.8088538E-03
   7100.67  7.0272929E-03
   7101.00  7.2592514E-03
   7101.33  7.5080393E-03
   7101.67  7.7734369E-03
   7102.00  8.0570551E-03
   7102.33  8.3635927E-03
   7102.67  8.6930029E-03
   7103.00  9.0477594E-03
   7103.33  9.4348036E-03
   7103.67  9.8545091E-03
   7104.00  1.0310862E-02
   7104.33  1.0814633E-02
   7104.67  1.1367192E-02
   7105.00  1.1975361E-02
   7105.33  1.2656936E-02
   7105.67  1.3415712E-02
   7106.00  1.4264318E-02
   7106.33  1.5234706E-02
   7106.67  1.6337056E-02
   7107.00  1.7597420E-02
   7107.33  1.9080296E-02
   7107.67  2.0815117E-02
   7108.00  2.2865049E-02
   7108.33  2.5386250E-02
   7108.67  2.8481573E-02
   7109.00  3.2351873E-02
   7109.33  3.7518293E-02
   7109.67  4.4506289E-02
   7110.00  5.4347714E-02
   7110.33  6.9901191E-02
   7110.67  9.3363265E-02
   7111.00  1.2234869E-01
   7111.33  1.4711748E-01
   7111.67  1.7627189E-01
   7112.00  2.2398996E-01
   7112.33  3.0842311E-01
   7112.67  4.2328634E-01
   7113.00  5.4566180E-01
   7113.33  6.6051421E-01
   7113.67  7.1965789E-01
   7114.00  6.8523149E-01
   7114.33  5.6622459E-01
   7114.67  4.3096875E-01
   7115.00  3.2269495E-01
   7115.33  2.5571978E-01
   7115.67  2.1766698E-01
   7116.00  2.0236318E-01
   7116.33  2.0627057E-01
   7116.67  2.1948520E-01
   7117.00  2.3457118E-01
   7117.33  2.4066488E-01
   7117.67  2.3104325E-01
   7118.00  2.1025612E-01
   7118.33  1.8838176E-01
   7118.67  1.7002920E-01
   7119.00  1.5569149E-01
   7119.33  1.4539743E-01
   7119.67  1.3791306E-01
   7120.00  1.3277594E-01
   7120.33  1.3012356E-01
   7120.67  1.2937955E-01
   7121.00  1.2995664E-01
   7121.33  1.3108956E-01
   7121.67  1.3234238E-01
   7122.00  1.3426868E-01
   7122.33  1.3823583E-01
   7122.67  1.4382802E-01
   7123.00  1.4969171E-01
   7123.33  1.5528163E-01
   7123.67  1.6171315E-01
   7124.00  1.6985222E-01
   7124.33  1.8047819E-01
   7124.67  1.9373905E-01
   7125.00  2.1033792E-01
   7125.33  2.3218886E-01
   7125.67  2.5981539E-01
   7126.00  2.9296387E-01
   7126.33  3.2875881E-01
   7126.67  3.5991535E-01
   7127.00  3.7989461E-01
   7127.33  3.8606954E-01
   7127.67  3.8674255E-01
   7128.00  3.8832998E-01
   7128.33  3.9560632E-01
   7128.67  4.0871884E-01
   7129.00  4.2621346E-01
   7129.33  4.4504283E-01
   7129.67  4.6274225E-01
   7130.00  4.7953526E-01
   7130.33  4.9733426E-01
   7130.67  5.1830936E-01
   7131.00  5.4478515E-01
   7131.33  5.8077073E-01
   7131.67  6.2705682E-01
   7132.00  6.8262500E-01
   7132.33  7.4248173E-01
   7132.67  7.9757870E-01
   7133.00  8.4113249E-01
   7133.33  8.6774824E-01
   7133.67  8.8147137E-01
   7134.00  8.8673252E-01
   7134.33  8.8769725E-01
   7134.67  8.8705953E-01
   7135.00  8.8492035E-01
   7135.33  8.8002835E-01
   7135.67  8.7137249E-01
   7136.00  8.5785238E-01
   7136.33  8.3783578E-01
   7136.67  8.1184420E-01
   7137.00  7.8039865E-01
   7137.33  7.4435243E-01
   7137.67  7.0616561E-01
   7138.00  6.6771999E-01
   7138.33  6.3136988E-01
   7138.67  5.9865543E-01
   7139.00  5.7064522E-01
   7139.33  5.4854707E-01
   7139.67  5.3142907E-01
   7140.00  5.1847317E-01
   7140.33  5.0873225E-01
   7140.67  5.0064451E-01
   7141.00  4.9353591E-01
   7141.33  4.8716700E-01
   7141.67  4.8148137E-01
   7142.00  4.7663602E-01
   7142.33  4.7298246E-01
   7142.67  4.7057470E-01
   7143.00  4.6951264E-01
   7143.33  4.6999141E-01
   7143.67  4.7175894E-01
   7144.00  4.7467168E-01
   7144.33  4.7861752E-01
   7144.67  4.8322744E-01
   7145.00  4.8829081E-01
   7145.33  4.9363001E-01
   7145.67  4.9906339E-01
   7146.00  5.0451116E-01
   7146.33  5.0993438E-01
   7146.67  5.1535529E-01
   7147.00  5.2081090E-01
   7147.33  5.2636127E-01
   7147.67  5.3205572E-01
   7148.00  5.3794894E-01
   7148.33  5.4413020E-01
   7148.67  5.5061163E-01
   7149.00  5.5742120E-01
   7149.33  5.6462546E-01
   7149.67  5.7217796E-01
   7150.00  5.8005279E-01
   7150.33  5.8823845E-01
   7150.67  5.9663449E-01
   7151.00  6.0516390E-01
   7151.33  6.1372388E-01
   7151.67  6.2219375E-01
   7152.00  6.3046668E-01
   7152.33  6.3838203E-01
   7152.67  6.4587283E-01
   7153.00  6.5286021E-01
   7153.33  6.5919402E-01
   7153.67  6.6487374E-01
   7154.00  6.6983530E-01
   7154.33  6.7392444E-01
   7154.67  6.7719386E-01
   7155.00  6.7960735E-01
   7155.33  6.8101428E-01
   7155.67  6.8149655E-01
   7156.00  6.8103977E-01
   7156.33  6.7952863E-01
   7156.67  6.7710434E-01
   7157.00  6.7380560E-01
   7157.33  6.6959628E-01
   7157.67  6.6466150E-01
   7158.00  6.5908573E-01
   7158.33  6.5291079E-01
   7158.67  6.4631697E-01
   7159.00  6.3940136E-01
   7159.33  6.3224370E-01
   7159.67  6.2496670E-01
   7160.00  6.1764150E-01
   7160.33  6.1033721E-01
   7160.67  6.0310053E-01
   7161.00  5.9596278E-01
   7161.33  5.8896328E-01
   7161.67  5.8209070E-01
   7162.00  5.7533659E-01
   7162.33  5.6869469E-01
   7162.67  5.6212538E-01
   7163.00  5.5560018E-01
   7163.33  5.4908469E-01
   7163.67  5.4254224E-01
   7164.00  5.3594218E-01
   7164.33  5.2923587E-01
   7164.67  5.2239947E-01
   7165.00  5.1540582E-01
   7165.33  5.0820617E-01
   7165.67  5.0080873E-01
   7166.00  4.9321247E-01
   7166.33  4.8540757E-01
   7166.67  4.7744771E-01
   7167.00  4.6937135E-01
   7167.33  4.6122564E-01
   7167.67  4.5308076E-01
   7168.00  4.4499370E-01
   7168.33  4.3704566E-01
   7168.67  4.2928417E-01
   7169.00  4.2176050E-01
   7169.33  4.1456482E-01
   7169.67  4.0770289E-01
   7170.00  4.0120207E-01
   7170.33  3.9514134E-01
   7170.67  3.8950392E-01
   7171.00  3.8432367E-01
   7171.33  3.7972648E-01
   7171.67  3.7576080E-01
   7172.00  3.7257480E-01
