    FDMNES
    energy     <xanes>
   7097.00  5.5355551E-03
   7097.33  5.6810904E-03
   7097.67  5.8337697E-03
   7098.00  5.9940962E-03
   7098.33  6.1637549E-03
   7098.67  6.3424314E-03
   7099.00  6.5308123E-03
   7099.33  6.7311130E-03
   7099.67  6.9430104E-03
   7100.00  7.1674639E-03
   7100.33  7.4074559E-03
   7100.67  7.6626849E-03
   7101.00  7.9345290E-03
   7101.33  8.2271150E-03
   7101.67  8.5402291E-03
   7102.00  8.8759160E-03
   7102.33  9.2400740E-03
   7102.67  9.6327204E-03
   7103.00  1.0057006E-02
   7103.33  1.0521695E-02
   7103.67  1.1027348E-02
   7104.00  1.1579051E-02
   7104.33  1.2190451E-02
   7104.67  1.2863371E-02
   7105.00  1.3606487E-02
   7105.33  1.4442341E-02
   7105.67  1.5375744E-02
   7106.00  1.6422599E-02
   7106.33  1.7623030E-02
   7106.67  1.8989405E-02
   7107.00  2.0553729E-02
   7107.33  2.2394967E-02
   7107.67  2.4546712E-02
   7108.00  2.7082319E-02
   7108.33  3.0181144E-02
   7108.67  3.3947636E-02
   7109.00  3.8586776E-02
   7109.33  4.4610322E-02
   7109.67  5.2441417E-02
   7110.00  6.2886345E-02
   7110.33  7.8097212E-02
   7110.67  1.0022149E-01
   7111.00  1.3165028E-01
   7111.33  1.7627409E-01
   7111.67  2.4173614E-01
   7112.00  3.4098721E-01
   7112.33  4.9265924E-01
   7112.67  6.9361763E-01
   7113.00  9.1040935E-01
   7113.33  1.0000239E+00
   7113.67  8.9625619E-01
   7114.00  7.0033264E-01
   7114.33  5.3246493E-01
   7114.67  4.1279412E-01
   7115.00  3.3151502E-01
   7115.33  2.7843769E-01
   7115.67  2.4135042E-01
   7116.00  2.1562634E-01
   7116.33  1.9943115E-01
   7116.67  1.9020373E-01
   7117.00  1.8617016E-01
   7117.33  1.8321737E-01
   7117.67  1.7820810E-01
   7118.00  1.7229889E-01
   7118.33  1.6749521E-01
   7118.67  1.6404399E-01
   7119.00  1.6162143E-01
   7119.33  1.5929519E-01
   7119.67  1.5543968E-01
   7120.00  1.4879561E-01
   7120.33  1.3982097E-01
   7120.67  1.3189836E-01
   7121.00  1.2717916E-01
   7121.33  1.2643485E-01
   7121.67  1.2842944E-01
   7122.00  1.3261850E-01
   7122.33  1.3909959E-01
   7122.67  1.4776793E-01
   7123.00  1.5850701E-01
   7123.33  1.6971881E-01
   7123.67  1.7845034E-01
   7124.00  1.8365197E-01
   7124.33  1.8666122E-01
   7124.67  1.9004818E-01
   7125.00  1.9498456E-01
   7125.33  2.0212846E-01
   7125.67  2.1110980E-01
   7126.00  2.2154454E-01
   7126.33  2.3275142E-01
   7126.67  2.4389297E-01
   7127.00  2.5498900E-01
   7127.33  2.6737375E-01
   7127.67  2.8263137E-01
   7128.00  3.0190999E-01
   7128.33  3.2643667E-01
   7128.67  3.5563778E-01
   7129.00  3.8920572E-01
   7129.33  4.2703706E-01
   7129.67  4.6784833E-01
   7130.00  5.1115953E-01
   7130.33  5.5768129E-01
   7130.67  6.0732756E-01
   7131.00  6.5870064E-01
   7131.33  7.0792028E-01
   7131.67  7.5098283E-01
   7132.00  7.8487211E-01
   7132.33  8.0585713E-01
   7132.67  8.1440410E-01
   7133.00  8.1080014E-01
   7133.33  7.9570951E-01
   7133.67  7.7411523E-01
   7134.00  7.4988958E-01
   7134.33  7.2679274E-01
   7134.67  7.0600607E-01
   7135.00  6.8660197E-01
   7135.33  6.6592293E-01
   7135.67  6.4175752E-01
   7136.00  6.1348860E-01
   7136.33  5.8215325E-01
   7136.67  5.5082218E-01
   7137.00  5.2181959E-01
   7137.33  4.9756348E-01
   7137.67  4.7843016E-01
   7138.00  4.6458957E-01
   7138.33  4.5645325E-01
   7138.67  4.5292569E-01
   7139.00  4.5351278E-01
   7139.33  4.5800500E-01
   7139.67  4.6528412E-01
   7140.00  4.7476385E-01
   7140.33  4.8601102E-01
   7140.67  4.9830951E-01
   7141.00  5.1132672E-01
   7141.33  5.2486751E-01
   7141.67  5.3873964E-01
   7142.00  5.5289111E-01
   7142.33  5.6732520E-01
   7142.67  5.8197881E-01
   7143.00  5.9679462E-01
   7143.33  6.1166756E-01
   7143.67  6.2645107E-01
   7144.00  6.4101546E-01
   7144.33  6.5516589E-01
   7144.67  6.6881386E-01
   7145.00  6.8186452E-01
   7145.33  6.9415606E-01
   7145.67  7.0573106E-01
   7146.00  7.1657673E-01
   7146.33  7.2660622E-01
   7146.67  7.3592513E-01
   7147.00  7.4454939E-01
   7147.33  7.5241357E-01
   7147.67  7.5961804E-01
   7148.00  7.6617184E-01
   7148.33  7.7199804E-01
   7148.67  7.7717112E-01
   7149.00  7.8167483E-01
   7149.33  7.8538887E-01
   7149.67  7.8835432E-01
   7150.00  7.9052248E-01
   7150.33  7.9172625E-01
   7150.67  7.9201506E-01
   7151.00  7.9134762E-01
   7151.33  7.8957522E-01
   7151.67  7.8683324E-01
   7152.00  7.8314968E-01
   7152.33  7.7845112E-01
   7152.67  7.7290742E-01
   7153.00  7.6658248E-01
   7153.33  7.5947564E-01
   7153.67  7.5176671E-01
   7154.00  7.4353738E-01
   7154.33  7.3482779E-01
   7154.67  7.2578653E-01
   7155.00  7.1649749E-01
   7155.33  7.0702203E-01
   7155.67  6.9744670E-01
   7156.00  6.8782052E-01
   7156.33  6.7819284E-01
   7156.67  6.6860569E-01
   7157.00  6.5908880E-01
   7157.33  6.4968209E-01
   7157.67  6.4039634E-01
   7158.00  6.3124738E-01
   7158.33  6.2226605E-01
   7158.67  6.1343975E-01
   7159.00  6.0476977E-01
   7159.33  5.9627387E-01
   7159.67  5.8792832E-01
   7160.00  5.7972426E-01
   7160.33  5.7166646E-01
   7160.67  5.6373455E-01
   7161.00  5.5592871E-01
   7161.33  5.4826784E-01
   7161.67  5.4074143E-01
   7162.00  5.3335524E-01
   7162.33  5.2613283E-01
   7162.67  5.1905746E-01
   7163.00  5.1212708E-01
   7163.33  5.0535112E-01
   7163.67  4.9869683E-01
   7164.00  4.9214374E-01
   7164.33  4.8566736E-01
   7164.67  4.7921708E-01
   7165.00  4.7275108E-01
   7165.33  4.6620828E-01
   7165.67  4.5954703E-01
   7166.00  4.5273180E-01
   7166.33  4.4571237E-01
   7166.67  4.3850594E-01
   7167.00  4.3112892E-01
   7167.33  4.2360734E-01
   7167.67  4.1601983E-01
   7168.00  4.0843029E-01
   7168.33  4.0092895E-01
   7168.67  3.9359392E-01
   7169.00  3.8649736E-01
   7169.33  3.7974712E-01
   7169.67  3.7335654E-01
   7170.00  3.6735605E-01
   7170.33  3.6181977E-01
   7170.67  3.5671204E-01
   7171.00  3.5204916E-01
   7171.33  3.4792869E-01
   7171.67  3.4437581E-01
   7172.00  3.4151335E-01
