    FDMNES
    energy     <xanes>
   7097.00  5.1590379E-03
   7097.33  5.2783640E-03
   7097.67  5.4029926E-03
   7098.00  5.5332742E-03
   7098.33  5.6704213E-03
   7098.67  5.8141710E-03
   7099.00  5.9649966E-03
   7099.33  6.1244721E-03
   7099.67  6.2923229E-03
   7100.00  6.4692053E-03
   7100.33  6.6572122E-03
   7100.67  6.8560776E-03
   7101.00  7.0667381E-03
   7101.33  7.2920586E-03
   7101.67  7.5318269E-03
   7102.00  7.7874268E-03
   7102.33  8.0629188E-03
   7102.67  8.3582447E-03
   7103.00  8.6755373E-03
   7103.33  9.0208017E-03
   7103.67  9.3943607E-03
   7104.00  9.7996764E-03
   7104.33  1.0246115E-02
   7104.67  1.0734917E-02
   7105.00  1.1272086E-02
   7105.33  1.1873261E-02
   7105.67  1.2541978E-02
   7106.00  1.3289572E-02
   7106.33  1.4144660E-02
   7106.67  1.5116988E-02
   7107.00  1.6230637E-02
   7107.33  1.7545143E-02
   7107.67  1.9089579E-02
   7108.00  2.0924705E-02
   7108.33  2.3200809E-02
   7108.67  2.6022593E-02
   7109.00  2.9591227E-02
   7109.33  3.4428394E-02
   7109.67  4.1070791E-02
   7110.00  5.0563089E-02
   7110.33  6.5866092E-02
   7110.67  9.0245815E-02
   7111.00  1.2602380E-01
   7111.33  1.7065581E-01
   7111.67  2.1742957E-01
   7112.00  2.5730535E-01
   7112.33  2.7540268E-01
   7112.67  2.8040434E-01
   7113.00  2.8952415E-01
   7113.33  3.1712900E-01
   7113.67  3.6035315E-01
   7114.00  4.0424764E-01
   7114.33  4.1784787E-01
   7114.67  3.9752766E-01
   7115.00  3.6136984E-01
   7115.33  3.3068032E-01
   7115.67  3.1194782E-01
   7116.00  3.0350303E-01
   7116.33  2.9900370E-01
   7116.67  2.8823466E-01
   7117.00  2.6534851E-01
   7117.33  2.3399169E-01
   7117.67  2.0515788E-01
   7118.00  1.8312117E-01
   7118.33  1.6872195E-01
   7118.67  1.5915965E-01
   7119.00  1.5264851E-01
   7119.33  1.4787586E-01
   7119.67  1.4399447E-01
   7120.00  1.4092097E-01
   7120.33  1.3888605E-01
   7120.67  1.3796012E-01
   7121.00  1.3835665E-01
   7121.33  1.4060648E-01
   7121.67  1.4484970E-01
   7122.00  1.5151522E-01
   7122.33  1.6191964E-01
   7122.67  1.7689341E-01
   7123.00  1.9741832E-01
   7123.33  2.2438078E-01
   7123.67  2.5485193E-01
   7124.00  2.8455104E-01
   7124.33  3.0725613E-01
   7124.67  3.2201188E-01
   7125.00  3.3118209E-01
   7125.33  3.3882704E-01
   7125.67  3.4797711E-01
   7126.00  3.5939951E-01
   7126.33  3.7305379E-01
   7126.67  3.8814027E-01
   7127.00  4.0435590E-01
   7127.33  4.2159565E-01
   7127.67  4.3948557E-01
   7128.00  4.5784237E-01
   7128.33  4.7712113E-01
   7128.67  4.9832286E-01
   7129.00  5.2244160E-01
   7129.33  5.5034552E-01
   7129.67  5.8082277E-01
   7130.00  6.1212712E-01
   7130.33  6.4116062E-01
   7130.67  6.6565560E-01
   7131.00  6.8482411E-01
   7131.33  6.9912873E-01
   7131.67  7.1117805E-01
   7132.00  7.2273713E-01
   7132.33  7.3569431E-01
   7132.67  7.5136366E-01
   7133.00  7.7076991E-01
   7133.33  7.9502900E-01
   7133.67  8.2291273E-01
   7134.00  8.5230757E-01
   7134.33  8.7794230E-01
   7134.67  8.9273462E-01
   7135.00  8.9013797E-01
   7135.33  8.6519909E-01
   7135.67  8.2554822E-01
   7136.00  7.7846864E-01
   7136.33  7.3078901E-01
   7136.67  6.8616692E-01
   7137.00  6.4569073E-01
   7137.33  6.1011521E-01
   7137.67  5.7881636E-01
   7138.00  5.5179205E-01
   7138.33  5.2969303E-01
   7138.67  5.1207161E-01
   7139.00  4.9889680E-01
   7139.33  4.9043556E-01
   7139.67  4.8568591E-01
   7140.00  4.8412092E-01
   7140.33  4.8538965E-01
   7140.67  4.8853254E-01
   7141.00  4.9305368E-01
   7141.33  4.9857042E-01
   7141.67  5.0456663E-01
   7142.00  5.1075375E-01
   7142.33  5.1683895E-01
   7142.67  5.2259854E-01
   7143.00  5.2786143E-01
   7143.33  5.3237797E-01
   7143.67  5.3610052E-01
   7144.00  5.3894852E-01
   7144.33  5.4075370E-01
   7144.67  5.4162948E-01
   7145.00  5.4161756E-01
   7145.33  5.4072228E-01
   7145.67  5.3919673E-01
   7146.00  5.3719456E-01
   7146.33  5.3485119E-01
   7146.67  5.3237442E-01
   7147.00  5.2990945E-01
   7147.33  5.2763720E-01
   7147.67  5.2567633E-01
   7148.00  5.2412700E-01
   7148.33  5.2314277E-01
   7148.67  5.2272263E-01
   7149.00  5.2289659E-01
   7149.33  5.2375002E-01
   7149.67  5.2519034E-01
   7150.00  5.2717870E-01
   7150.33  5.2970110E-01
   7150.67  5.3260001E-01
   7151.00  5.3577337E-01
   7151.33  5.3910156E-01
   7151.67  5.4241979E-01
   7152.00  5.4560152E-01
   7152.33  5.4847799E-01
   7152.67  5.5097573E-01
   7153.00  5.5303396E-01
   7153.33  5.5456604E-01
   7153.67  5.5564791E-01
   7154.00  5.5632719E-01
   7154.33  5.5664860E-01
   7154.67  5.5675348E-01
   7155.00  5.5673143E-01
   7155.33  5.5667586E-01
   7155.67  5.5667244E-01
   7156.00  5.5677576E-01
   7156.33  5.5704894E-01
   7156.67  5.5749780E-01
   7157.00  5.5812994E-01
   7157.33  5.5896307E-01
   7157.67  5.5995785E-01
   7158.00  5.6109197E-01
   7158.33  5.6234684E-01
   7158.67  5.6367295E-01
   7159.00  5.6503782E-01
   7159.33  5.6640392E-01
   7159.67  5.6773497E-01
   7160.00  5.6900216E-01
   7160.33  5.7016411E-01
   7160.67  5.7120773E-01
   7161.00  5.7211583E-01
   7161.33  5.7285412E-01
   7161.67  5.7342937E-01
   7162.00  5.7383080E-01
   7162.33  5.7402102E-01
   7162.67  5.7401118E-01
   7163.00  5.7379914E-01
   7163.33  5.7336345E-01
   7163.67  5.7272414E-01
   7164.00  5.7187239E-01
   7164.33  5.7076949E-01
   7164.67  5.6943342E-01
   7165.00  5.6785620E-01
   7165.33  5.6599748E-01
   7165.67  5.6388129E-01
   7166.00  5.6150345E-01
   7166.33  5.5882711E-01
   7166.67  5.5588251E-01
   7167.00  5.5266885E-01
   7167.33  5.4915478E-01
   7167.67  5.4537888E-01
   7168.00  5.4134783E-01
   7168.33  5.3704425E-01
   7168.67  5.3252207E-01
   7169.00  5.2780621E-01
   7169.33  5.2290555E-01
   7169.67  5.1787726E-01
   7170.00  5.1276090E-01
   7170.33  5.0760980E-01
   7170.67  5.0250120E-01
   7171.00  4.9751852E-01
   7171.33  4.9283571E-01
   7171.67  4.8864672E-01
   7172.00  4.8523007E-01
