    FDMNES
    energy     <xanes>
   7097.00  4.4091887E-03
   7097.33  4.4958743E-03
   7097.67  4.5856837E-03
   7098.00  4.6787873E-03
   7098.33  4.7758404E-03
   7098.67  4.8766419E-03
   7099.00  4.9814143E-03
   7099.33  5.0909744E-03
   7099.67  5.2051055E-03
   7100.00  5.3241058E-03
   7100.33  5.4490170E-03
   7100.67  5.5796135E-03
   7101.00  5.7163073E-03
   7101.33  5.8604663E-03
   7101.67  6.0118720E-03
   7102.00  6.1711161E-03
   7102.33  6.3400612E-03
   7102.67  6.5185346E-03
   7103.00  6.7074278E-03
   7103.33  6.9093975E-03
   7103.67  7.1244089E-03
   7104.00  7.3538878E-03
   7104.33  7.6018593E-03
   7104.67  7.8686527E-03
   7105.00  8.1567294E-03
   7105.33  8.4726924E-03
   7105.67  8.8178324E-03
   7106.00  9.1968426E-03
   7106.33  9.6217745E-03
   7106.67  1.0096641E-02
   7107.00  1.0631661E-02
   7107.33  1.1252317E-02
   7107.67  1.1971440E-02
   7108.00  1.2815805E-02
   7108.33  1.3852016E-02
   7108.67  1.5128542E-02
   7109.00  1.6737957E-02
   7109.33  1.8921402E-02
   7109.67  2.1933966E-02
   7110.00  2.6270874E-02
   7110.33  3.3353690E-02
   7110.67  4.4955367E-02
   7111.00  6.3181785E-02
   7111.33  8.8227677E-02
   7111.67  1.0939620E-01
   7112.00  1.2069262E-01
   7112.33  1.2803124E-01
   7112.67  1.2376431E-01
   7113.00  1.0284661E-01
   7113.33  8.0896516E-02
   7113.67  6.6226543E-02
   7114.00  5.7012783E-02
   7114.33  5.1536910E-02
   7114.67  4.8595786E-02
   7115.00  4.7587576E-02
   7115.33  4.8132539E-02
   7115.67  4.9786975E-02
   7116.00  5.2452544E-02
   7116.33  5.6157869E-02
   7116.67  6.0688497E-02
   7117.00  6.5959125E-02
   7117.33  7.2061166E-02
   7117.67  7.9215707E-02
   7118.00  8.8062263E-02
   7118.33  9.9997725E-02
   7118.67  1.1579610E-01
   7119.00  1.3631401E-01
   7119.33  1.6283615E-01
   7119.67  1.9435361E-01
   7120.00  2.2941545E-01
   7120.33  2.6540439E-01
   7120.67  2.9966791E-01
   7121.00  3.3094476E-01
   7121.33  3.5860592E-01
   7121.67  3.8435433E-01
   7122.00  4.1050562E-01
   7122.33  4.4066926E-01
   7122.67  4.7674222E-01
   7123.00  5.1942086E-01
   7123.33  5.6839756E-01
   7123.67  6.1992515E-01
   7124.00  6.6997920E-01
   7124.33  7.1211258E-01
   7124.67  7.4133966E-01
   7125.00  7.5318425E-01
   7125.33  7.4362358E-01
   7125.67  7.1922017E-01
   7126.00  6.8643895E-01
   7126.33  6.5233381E-01
   7126.67  6.2227229E-01
   7127.00  5.9903368E-01
   7127.33  5.8466327E-01
   7127.67  5.7674224E-01
   7128.00  5.7302628E-01
   7128.33  5.7239456E-01
   7128.67  5.7524641E-01
   7129.00  5.8283658E-01
   7129.33  5.9615323E-01
   7129.67  6.1330754E-01
   7130.00  6.3256446E-01
   7130.33  6.5232450E-01
   7130.67  6.7193111E-01
   7131.00  6.9143217E-01
   7131.33  7.1032966E-01
   7131.67  7.2686944E-01
   7132.00  7.3864299E-01
   7132.33  7.4227349E-01
   7132.67  7.3771546E-01
   7133.00  7.2566975E-01
   7133.33  7.0791453E-01
   7133.67  6.8853006E-01
   7134.00  6.7016570E-01
   7134.33  6.5459349E-01
   7134.67  6.4144226E-01
   7135.00  6.3025073E-01
   7135.33  6.2072747E-01
   7135.67  6.1236235E-01
   7136.00  6.0497499E-01
   7136.33  5.9852536E-01
   7136.67  5.9280014E-01
   7137.00  5.8771764E-01
   7137.33  5.8325718E-01
   7137.67  5.7926568E-01
   7138.00  5.7567917E-01
   7138.33  5.7248097E-01
   7138.67  5.6959014E-01
   7139.00  5.6699516E-01
   7139.33  5.6474533E-01
   7139.67  5.6283538E-01
   7140.00  5.6130323E-01
   7140.33  5.6023919E-01
   7140.67  5.5960596E-01
   7141.00  5.5940867E-01
   7141.33  5.5971897E-01
   7141.67  5.6043487E-01
   7142.00  5.6144494E-01
   7142.33  5.6256716E-01
   7142.67  5.6354127E-01
   7143.00  5.6413179E-01
   7143.33  5.6399121E-01
   7143.67  5.6298481E-01
   7144.00  5.6099580E-01
   7144.33  5.5785795E-01
   7144.67  5.5376698E-01
   7145.00  5.4885631E-01
   7145.33  5.4326720E-01
   7145.67  5.3732378E-01
   7146.00  5.3123798E-01
   7146.33  5.2523647E-01
   7146.67  5.1947634E-01
   7147.00  5.1405143E-01
   7147.33  5.0905940E-01
   7147.67  5.0444325E-01
   7148.00  5.0015942E-01
   7148.33  4.9616097E-01
   7148.67  4.9232073E-01
   7149.00  4.8855333E-01
   7149.33  4.8476108E-01
   7149.67  4.8086274E-01
   7150.00  4.7679820E-01
   7150.33  4.7248580E-01
   7150.67  4.6791815E-01
   7151.00  4.6308019E-01
   7151.33  4.5793168E-01
   7151.67  4.5251198E-01
   7152.00  4.4683245E-01
   7152.33  4.4088583E-01
   7152.67  4.3474052E-01
   7153.00  4.2843053E-01
   7153.33  4.2196816E-01
   7153.67  4.1539637E-01
   7154.00  4.0873656E-01
   7154.33  4.0200069E-01
   7154.67  3.9520860E-01
   7155.00  3.8837039E-01
   7155.33  3.8150037E-01
   7155.67  3.7462287E-01
   7156.00  3.6775816E-01
   7156.33  3.6093995E-01
   7156.67  3.5420178E-01
   7157.00  3.4758786E-01
   7157.33  3.4118588E-01
   7157.67  3.3504934E-01
   7158.00  3.2925409E-01
   7158.33  3.2395194E-01
   7158.67  3.1919195E-01
   7159.00  3.1506557E-01
   7159.33  3.1176845E-01
   7159.67  3.0930203E-01
   7160.00  3.0773161E-01
   7160.33  3.0722457E-01
   7160.67  3.0767548E-01
   7161.00  3.0906217E-01
   7161.33  3.1142945E-01
   7161.67  3.1457077E-01
   7162.00  3.1838507E-01
   7162.33  3.2281532E-01
   7162.67  3.2766830E-01
   7163.00  3.3284450E-01
   7163.33  3.3827934E-01
   7163.67  3.4386274E-01
   7164.00  3.4952547E-01
   7164.33  3.5518842E-01
   7164.67  3.6079155E-01
   7165.00  3.6630003E-01
   7165.33  3.7166662E-01
   7165.67  3.7688475E-01
   7166.00  3.8194398E-01
   7166.33  3.8682388E-01
   7166.67  3.9155550E-01
   7167.00  3.9615604E-01
   7167.33  4.0063947E-01
   7167.67  4.0504895E-01
   7168.00  4.0940919E-01
   7168.33  4.1374148E-01
   7168.67  4.1806552E-01
   7169.00  4.2238791E-01
   7169.33  4.2671071E-01
   7169.67  4.3102794E-01
   7170.00  4.3532132E-01
   7170.33  4.3954885E-01
   7170.67  4.4366944E-01
   7171.00  4.4762665E-01
   7171.33  4.5129138E-01
   7171.67  4.5453922E-01
   7172.00  4.5717933E-01
