    FDMNES
    energy     <xanes>
   7097.00  4.4444967E-03
   7097.33  4.5468434E-03
   7097.67  4.6539216E-03
   7098.00  4.7660691E-03
   7098.33  4.8844112E-03
   7098.67  5.0087503E-03
   7099.00  5.1395554E-03
   7099.33  5.2783245E-03
   7099.67  5.4248674E-03
   7100.00  5.5798554E-03
   7100.33  5.7453412E-03
   7100.67  5.9211750E-03
   7101.00  6.1083504E-03
   7101.33  6.3097800E-03
   7101.67  6.5254253E-03
   7102.00  6.7568179E-03
   7102.33  7.0082649E-03
   7102.67  7.2799974E-03
   7103.00  7.5744934E-03
   7103.33  7.8984521E-03
   7103.67  8.2527372E-03
   7104.00  8.6416046E-03
   7104.33  9.0761475E-03
   7104.67  9.5587524E-03
   7105.00  1.0097298E-02
   7105.33  1.0711685E-02
   7105.67  1.1408203E-02
   7106.00  1.2202943E-02
   7106.33  1.3135595E-02
   7106.67  1.4223591E-02
   7107.00  1.5504495E-02
   7107.33  1.7070114E-02
   7107.67  1.8975374E-02
   7108.00  2.1326858E-02
   7108.33  2.4389643E-02
   7108.67  2.8382455E-02
   7109.00  3.3716193E-02
   7109.33  4.1487983E-02
   7109.67  5.2999514E-02
   7110.00  7.0814802E-02
   7110.33  1.0223645E-01
   7110.67  1.5337739E-01
   7111.00  2.1813047E-01
   7111.33  2.6867356E-01
   7111.67  3.0694105E-01
   7112.00  3.3880595E-01
   7112.33  3.5203247E-01
   7112.67  3.2475633E-01
   7113.00  2.9414595E-01
   7113.33  2.9008463E-01
   7113.67  2.8052132E-01
   7114.00  2.3557387E-01
   7114.33  1.6837936E-01
   7114.67  1.1971254E-01
   7115.00  9.1500162E-02
   7115.33  7.7837762E-02
   7115.67  6.9962022E-02
   7116.00  6.3167559E-02
   7116.33  5.8242881E-02
   7116.67  5.5066715E-02
   7117.00  5.0866806E-02
   7117.33  4.5594888E-02
   7117.67  4.1520585E-02
   7118.00  3.9079542E-02
   7118.33  3.8138516E-02
   7118.67  3.8244884E-02
   7119.00  3.9284947E-02
   7119.33  4.1283052E-02
   7119.67  4.3878183E-02
   7120.00  4.6626754E-02
   7120.33  4.9350259E-02
   7120.67  5.2851909E-02
   7121.00  5.8157605E-02
   7121.33  6.6714305E-02
   7121.67  7.9081316E-02
   7122.00  9.5313359E-02
   7122.33  1.1275777E-01
   7122.67  1.2572826E-01
   7123.00  1.3204877E-01
   7123.33  1.3334625E-01
   7123.67  1.3273390E-01
   7124.00  1.3272312E-01
   7124.33  1.3707080E-01
   7124.67  1.4661262E-01
   7125.00  1.6127457E-01
   7125.33  1.8135640E-01
   7125.67  2.0496273E-01
   7126.00  2.2914355E-01
   7126.33  2.5029720E-01
   7126.67  2.6932711E-01
   7127.00  2.8797050E-01
   7127.33  3.0703178E-01
   7127.67  3.2675925E-01
   7128.00  3.4776528E-01
   7128.33  3.7154104E-01
   7128.67  3.9911135E-01
   7129.00  4.3077307E-01
   7129.33  4.6447904E-01
   7129.67  4.9546728E-01
   7130.00  5.2128220E-01
   7130.33  5.4380569E-01
   7130.67  5.6898168E-01
   7131.00  6.0046459E-01
   7131.33  6.3948122E-01
   7131.67  6.8081776E-01
   7132.00  7.1724953E-01
   7132.33  7.3886465E-01
   7132.67  7.4705544E-01
   7133.00  7.4854417E-01
   7133.33  7.5127836E-01
   7133.67  7.5865215E-01
   7134.00  7.7141147E-01
   7134.33  7.9055202E-01
   7134.67  8.1517846E-01
   7135.00  8.4454220E-01
   7135.33  8.7940406E-01
   7135.67  9.2111783E-01
   7136.00  9.7054044E-01
   7136.33  1.0244451E+00
   7136.67  1.0716094E+00
   7137.00  1.0996112E+00
   7137.33  1.0957982E+00
   7137.67  1.0672025E+00
   7138.00  1.0239989E+00
   7138.33  9.7754861E-01
   7138.67  9.3550806E-01
   7139.00  9.0080197E-01
   7139.33  8.7563738E-01
   7139.67  8.5883182E-01
   7140.00  8.4969147E-01
   7140.33  8.4757119E-01
   7140.67  8.4948701E-01
   7141.00  8.5287697E-01
   7141.33  8.5396267E-01
   7141.67  8.4970131E-01
   7142.00  8.3833575E-01
   7142.33  8.1894424E-01
   7142.67  7.9438171E-01
   7143.00  7.6712219E-01
   7143.33  7.3986393E-01
   7143.67  7.1446093E-01
   7144.00  6.9173146E-01
   7144.33  6.7229635E-01
   7144.67  6.5557923E-01
   7145.00  6.4120534E-01
   7145.33  6.2888555E-01
   7145.67  6.1791256E-01
   7146.00  6.0798553E-01
   7146.33  5.9904723E-01
   7146.67  5.9100122E-01
   7147.00  5.8393087E-01
   7147.33  5.7803992E-01
   7147.67  5.7318693E-01
   7148.00  5.6929296E-01
   7148.33  5.6630031E-01
   7148.67  5.6390463E-01
   7149.00  5.6190950E-01
   7149.33  5.6009645E-01
   7149.67  5.5821473E-01
   7150.00  5.5607964E-01
   7150.33  5.5343268E-01
   7150.67  5.5014758E-01
   7151.00  5.4608795E-01
   7151.33  5.4101002E-01
   7151.67  5.3491965E-01
   7152.00  5.2773692E-01
   7152.33  5.1923767E-01
   7152.67  5.0951052E-01
   7153.00  4.9852613E-01
   7153.33  4.8612557E-01
   7153.67  4.7251941E-01
   7154.00  4.5780699E-01
   7154.33  4.4204309E-01
   7154.67  4.2557651E-01
   7155.00  4.0865711E-01
   7155.33  3.9160390E-01
   7155.67  3.7479404E-01
   7156.00  3.5855020E-01
   7156.33  3.4332607E-01
   7156.67  3.2927401E-01
   7157.00  3.1656711E-01
   7157.33  3.0553195E-01
   7157.67  2.9606185E-01
   7158.00  2.8818184E-01
   7158.33  2.8207854E-01
   7158.67  2.7751354E-01
   7159.00  2.7443622E-01
   7159.33  2.7295294E-01
   7159.67  2.7280579E-01
   7160.00  2.7391614E-01
   7160.33  2.7631866E-01
   7160.67  2.7973197E-01
   7161.00  2.8400545E-01
   7161.33  2.8900023E-01
   7161.67  2.9438519E-01
   7162.00  2.9994058E-01
   7162.33  3.0542553E-01
   7162.67  3.1066726E-01
   7163.00  3.1556672E-01
   7163.33  3.2002416E-01
   7163.67  3.2408736E-01
   7164.00  3.2777379E-01
   7164.33  3.3106809E-01
   7164.67  3.3404457E-01
   7165.00  3.3672962E-01
   7165.33  3.3912238E-01
   7165.67  3.4128931E-01
   7166.00  3.4326145E-01
   7166.33  3.4505871E-01
   7166.67  3.4674453E-01
   7167.00  3.4835965E-01
   7167.33  3.4995025E-01
   7167.67  3.5156646E-01
   7168.00  3.5324584E-01
   7168.33  3.5503924E-01
   7168.67  3.5696480E-01
   7169.00  3.5904229E-01
   7169.33  3.6130642E-01
   7169.67  3.6373920E-01
   7170.00  3.6633250E-01
   7170.33  3.6907864E-01
   7170.67  3.7191503E-01
   7171.00  3.7478064E-01
   7171.33  3.7755748E-01
   7171.67  3.8008495E-01
   7172.00  3.8216206E-01
