    FDMNES
    energy     <xanes>
   7097.00  3.9094126E-03
   7097.33  3.9768611E-03
   7097.67  4.0465902E-03
   7098.00  4.1187211E-03
   7098.33  4.1937272E-03
   7098.67  4.2714574E-03
   7099.00  4.3520692E-03
   7099.33  4.4361487E-03
   7099.67  4.5235323E-03
   7100.00  4.6144291E-03
   7100.33  4.7095805E-03
   7100.67  4.8088134E-03
   7101.00  4.9124126E-03
   7101.33  5.0213408E-03
   7101.67  5.1354232E-03
   7102.00  5.2550614E-03
   7102.33  5.3815444E-03
   7102.67  5.5147155E-03
   7103.00  5.6551639E-03
   7103.33  5.8046842E-03
   7103.67  5.9631834E-03
   7104.00  6.1315691E-03
   7104.33  6.3124667E-03
   7104.67  6.5059540E-03
   7105.00  6.7135191E-03
   7105.33  6.9392556E-03
   7105.67  7.1836797E-03
   7106.00  7.4494351E-03
   7106.33  7.7434684E-03
   7106.67  8.0674640E-03
   7107.00  8.4266506E-03
   7107.33  8.8342711E-03
   7107.67  9.2954530E-03
   7108.00  9.8222177E-03
   7108.33  1.0444445E-02
   7108.67  1.1179404E-02
   7109.00  1.2061769E-02
   7109.33  1.3179291E-02
   7109.67  1.4607338E-02
   7110.00  1.6490844E-02
   7110.33  1.9224659E-02
   7110.67  2.3249633E-02
   7111.00  2.9191513E-02
   7111.33  3.8379921E-02
   7111.67  5.2679865E-02
   7112.00  7.3091212E-02
   7112.33  8.9747546E-02
   7112.67  9.4347178E-02
   7113.00  8.7202424E-02
   7113.33  8.0732035E-02
   7113.67  8.3265237E-02
   7114.00  8.4510059E-02
   7114.33  8.0808858E-02
   7114.67  8.4052739E-02
   7115.00  9.9753882E-02
   7115.33  1.3072167E-01
   7115.67  1.5904321E-01
   7116.00  1.5504137E-01
   7116.33  1.2221541E-01
   7116.67  9.4238578E-02
   7117.00  7.6948742E-02
   7117.33  6.8684649E-02
   7117.67  6.5849160E-02
   7118.00  6.7182527E-02
   7118.33  7.2353326E-02
   7118.67  8.0565360E-02
   7119.00  9.1354755E-02
   7119.33  1.0380637E-01
   7119.67  1.1636773E-01
   7120.00  1.2824975E-01
   7120.33  1.3936604E-01
   7120.67  1.5050491E-01
   7121.00  1.6206216E-01
   7121.33  1.7338190E-01
   7121.67  1.8338649E-01
   7122.00  1.9272071E-01
   7122.33  2.0291104E-01
   7122.67  2.1116783E-01
   7123.00  2.1527770E-01
   7123.33  2.1919924E-01
   7123.67  2.2663439E-01
   7124.00  2.3765964E-01
   7124.33  2.5162209E-01
   7124.67  2.6689380E-01
   7125.00  2.8195284E-01
   7125.33  2.9485664E-01
   7125.67  3.0567724E-01
   7126.00  3.1610660E-01
   7126.33  3.2908622E-01
   7126.67  3.4569359E-01
   7127.00  3.6563686E-01
   7127.33  3.8778608E-01
   7127.67  4.1032278E-01
   7128.00  4.3231921E-01
   7128.33  4.5324247E-01
   7128.67  4.7315362E-01
   7129.00  4.9197251E-01
   7129.33  5.0930588E-01
   7129.67  5.2485999E-01
   7130.00  5.3782678E-01
   7130.33  5.4614907E-01
   7130.67  5.4892206E-01
   7131.00  5.4615033E-01
   7131.33  5.3936714E-01
   7131.67  5.3201429E-01
   7132.00  5.2624337E-01
   7132.33  5.2376215E-01
   7132.67  5.2442888E-01
   7133.00  5.2780443E-01
   7133.33  5.3302913E-01
   7133.67  5.3834125E-01
   7134.00  5.4220546E-01
   7134.33  5.4271375E-01
   7134.67  5.3951537E-01
   7135.00  5.3278101E-01
   7135.33  5.2297896E-01
   7135.67  5.1143777E-01
   7136.00  4.9891722E-01
   7136.33  4.8614648E-01
   7136.67  4.7386281E-01
   7137.00  4.6267975E-01
   7137.33  4.5350467E-01
   7137.67  4.4662580E-01
   7138.00  4.4219159E-01
   7138.33  4.4022839E-01
   7138.67  4.3985963E-01
   7139.00  4.4046053E-01
   7139.33  4.4142860E-01
   7139.67  4.4230243E-01
   7140.00  4.4292854E-01
   7140.33  4.4328493E-01
   7140.67  4.4349990E-01
   7141.00  4.4366958E-01
   7141.33  4.4388739E-01
   7141.67  4.4419794E-01
   7142.00  4.4462023E-01
   7142.33  4.4517247E-01
   7142.67  4.4584223E-01
   7143.00  4.4665075E-01
   7143.33  4.4768503E-01
   7143.67  4.4902307E-01
   7144.00  4.5077930E-01
   7144.33  4.5317140E-01
   7144.67  4.5626793E-01
   7145.00  4.6015915E-01
   7145.33  4.6498993E-01
   7145.67  4.7063278E-01
   7146.00  4.7704675E-01
   7146.33  4.8425482E-01
   7146.67  4.9209812E-01
   7147.00  5.0052440E-01
   7147.33  5.0955616E-01
   7147.67  5.1909134E-01
   7148.00  5.2909391E-01
   7148.33  5.3954169E-01
   7148.67  5.5025751E-01
   7149.00  5.6107497E-01
   7149.33  5.7171637E-01
   7149.67  5.8189648E-01
   7150.00  5.9135234E-01
   7150.33  5.9969545E-01
   7150.67  6.0684420E-01
   7151.00  6.1267842E-01
   7151.33  6.1695956E-01
   7151.67  6.1986950E-01
   7152.00  6.2146437E-01
   7152.33  6.2169398E-01
   7152.67  6.2082836E-01
   7153.00  6.1896807E-01
   7153.33  6.1611054E-01
   7153.67  6.1246256E-01
   7154.00  6.0809618E-01
   7154.33  6.0301749E-01
   7154.67  5.9741114E-01
   7155.00  5.9139717E-01
   7155.33  5.8513131E-01
   7155.67  5.7887266E-01
   7156.00  5.7284901E-01
   7156.33  5.6740506E-01
   7156.67  5.6274804E-01
   7157.00  5.5908458E-01
   7157.33  5.5675271E-01
   7157.67  5.5572748E-01
   7158.00  5.5605806E-01
   7158.33  5.5791092E-01
   7158.67  5.6105991E-01
   7159.00  5.6541975E-01
   7159.33  5.7099474E-01
   7159.67  5.7749830E-01
   7160.00  5.8479260E-01
   7160.33  5.9279450E-01
   7160.67  6.0126584E-01
   7161.00  6.1007184E-01
   7161.33  6.1907984E-01
   7161.67  6.2811254E-01
   7162.00  6.3703630E-01
   7162.33  6.4566229E-01
   7162.67  6.5386975E-01
   7163.00  6.6153185E-01
   7163.33  6.6842939E-01
   7163.67  6.7453514E-01
   7164.00  6.7977573E-01
   7164.33  6.8398201E-01
   7164.67  6.8724885E-01
   7165.00  6.8958379E-01
   7165.33  6.9090675E-01
   7165.67  6.9138098E-01
   7166.00  6.9105952E-01
   7166.33  6.8992057E-01
   7166.67  6.8812893E-01
   7167.00  6.8574965E-01
   7167.33  6.8279351E-01
   7167.67  6.7939779E-01
   7168.00  6.7562260E-01
   7168.33  6.7149108E-01
   7168.67  6.6709619E-01
   7169.00  6.6247688E-01
   7169.33  6.5764892E-01
   7169.67  6.5267097E-01
   7170.00  6.4757427E-01
   7170.33  6.4239179E-01
   7170.67  6.3719182E-01
   7171.00  6.3204998E-01
   7171.33  6.2713704E-01
   7171.67  6.2268743E-01
   7172.00  6.1903682E-01
