    FDMNES
    energy     <xanes>
   7097.00  4.5849172E-03
   7097.33  4.6806712E-03
   7097.67  4.7802569E-03
   7098.00  4.8839111E-03
   7098.33  4.9924835E-03
   7098.67  5.1057640E-03
   7099.00  5.2240712E-03
   7099.33  5.3484966E-03
   7099.67  5.4788219E-03
   7100.00  5.6154881E-03
   7100.33  5.7599361E-03
   7100.67  5.9119549E-03
   7101.00  6.0721766E-03
   7101.33  6.2425679E-03
   7101.67  6.4229613E-03
   7102.00  6.6143011E-03
   7102.33  6.8193837E-03
   7102.67  7.0381684E-03
   7103.00  7.2721390E-03
   7103.33  7.5254810E-03
   7103.67  7.7984751E-03
   7104.00  8.0936038E-03
   7104.33  8.4175533E-03
   7104.67  8.7714075E-03
   7105.00  9.1596631E-03
   7105.33  9.5939417E-03
   7105.67  1.0077430E-02
   7106.00  1.0619157E-02
   7106.33  1.1241725E-02
   7106.67  1.1954385E-02
   7107.00  1.2777984E-02
   7107.33  1.3763859E-02
   7107.67  1.4941771E-02
   7108.00  1.6370441E-02
   7108.33  1.8196239E-02
   7108.67  2.0538153E-02
   7109.00  2.3620376E-02
   7109.33  2.8039629E-02
   7109.67  3.4493914E-02
   7110.00  4.4357176E-02
   7110.33  6.1619171E-02
   7110.67  9.0609860E-02
   7111.00  1.3216974E-01
   7111.33  1.6910916E-01
   7111.67  1.8173759E-01
   7112.00  1.7779988E-01
   7112.33  1.7571248E-01
   7112.67  1.7393478E-01
   7113.00  1.6166633E-01
   7113.33  1.3740620E-01
   7113.67  1.1045963E-01
   7114.00  8.6661161E-02
   7114.33  6.9988618E-02
   7114.67  5.9375581E-02
   7115.00  5.3365359E-02
   7115.33  5.0857888E-02
   7115.67  5.0618115E-02
   7116.00  5.2347315E-02
   7116.33  5.6287349E-02
   7116.67  6.2443695E-02
   7117.00  7.1128034E-02
   7117.33  8.3001522E-02
   7117.67  9.8198117E-02
   7118.00  1.1785767E-01
   7118.33  1.4449538E-01
   7118.67  1.7767967E-01
   7119.00  2.1507243E-01
   7119.33  2.5070728E-01
   7119.67  2.8022921E-01
   7120.00  3.0624107E-01
   7120.33  3.3330762E-01
   7120.67  3.5778242E-01
   7121.00  3.7521307E-01
   7121.33  3.8546354E-01
   7121.67  3.9449812E-01
   7122.00  4.0691457E-01
   7122.33  4.2692498E-01
   7122.67  4.5198505E-01
   7123.00  4.7349749E-01
   7123.33  4.7673396E-01
   7123.67  4.6379098E-01
   7124.00  4.4453169E-01
   7124.33  4.2804413E-01
   7124.67  4.1676445E-01
   7125.00  4.1150332E-01
   7125.33  4.1382587E-01
   7125.67  4.2211003E-01
   7126.00  4.3458122E-01
   7126.33  4.4993175E-01
   7126.67  4.6706780E-01
   7127.00  4.8536904E-01
   7127.33  5.0373641E-01
   7127.67  5.2091480E-01
   7128.00  5.3630527E-01
   7128.33  5.5062872E-01
   7128.67  5.6665170E-01
   7129.00  5.8685845E-01
   7129.33  6.1261691E-01
   7129.67  6.4022833E-01
   7130.00  6.6474943E-01
   7130.33  6.7992897E-01
   7130.67  6.8476058E-01
   7131.00  6.8058401E-01
   7131.33  6.7086408E-01
   7131.67  6.6045688E-01
   7132.00  6.5157142E-01
   7132.33  6.4528110E-01
   7132.67  6.4109555E-01
   7133.00  6.3894014E-01
   7133.33  6.3970899E-01
   7133.67  6.4382219E-01
   7134.00  6.5124112E-01
   7134.33  6.6101225E-01
   7134.67  6.7101841E-01
   7135.00  6.7996276E-01
   7135.33  6.8702703E-01
   7135.67  6.9261903E-01
   7136.00  6.9721165E-01
   7136.33  7.0132141E-01
   7136.67  7.0536069E-01
   7137.00  7.0936070E-01
   7137.33  7.1301719E-01
   7137.67  7.1592305E-01
   7138.00  7.1767809E-01
   7138.33  7.1768395E-01
   7138.67  7.1582434E-01
   7139.00  7.1191967E-01
   7139.33  7.0562535E-01
   7139.67  6.9730490E-01
   7140.00  6.8720086E-01
   7140.33  6.7559321E-01
   7140.67  6.6321566E-01
   7141.00  6.5056784E-01
   7141.33  6.3809447E-01
   7141.67  6.2589721E-01
   7142.00  6.1383239E-01
   7142.33  6.0154554E-01
   7142.67  5.8876145E-01
   7143.00  5.7538490E-01
   7143.33  5.6149107E-01
   7143.67  5.4746435E-01
   7144.00  5.3363318E-01
   7144.33  5.2037706E-01
   7144.67  5.0781376E-01
   7145.00  4.9599376E-01
   7145.33  4.8498423E-01
   7145.67  4.7463588E-01
   7146.00  4.6489993E-01
   7146.33  4.5580885E-01
   7146.67  4.4726998E-01
   7147.00  4.3927450E-01
   7147.33  4.3188216E-01
   7147.67  4.2501811E-01
   7148.00  4.1867446E-01
   7148.33  4.1290331E-01
   7148.67  4.0762826E-01
   7149.00  4.0284058E-01
   7149.33  3.9859238E-01
   7149.67  3.9481643E-01
   7150.00  3.9150686E-01
   7150.33  3.8871293E-01
   7150.67  3.8636553E-01
   7151.00  3.8444866E-01
   7151.33  3.8299350E-01
   7151.67  3.8192720E-01
   7152.00  3.8122910E-01
   7152.33  3.8091492E-01
   7152.67  3.8091208E-01
   7153.00  3.8119304E-01
   7153.33  3.8175398E-01
   7153.67  3.8252395E-01
   7154.00  3.8346280E-01
   7154.33  3.8452995E-01
   7154.67  3.8564845E-01
   7155.00  3.8676423E-01
   7155.33  3.8781433E-01
   7155.67  3.8876241E-01
   7156.00  3.8958506E-01
   7156.33  3.9026023E-01
   7156.67  3.9082440E-01
   7157.00  3.9131509E-01
   7157.33  3.9179205E-01
   7157.67  3.9232986E-01
   7158.00  3.9299335E-01
   7158.33  3.9387601E-01
   7158.67  3.9500870E-01
   7159.00  3.9642370E-01
   7159.33  3.9817589E-01
   7159.67  4.0022425E-01
   7160.00  4.0255043E-01
   7160.33  4.0514714E-01
   7160.67  4.0793343E-01
   7161.00  4.1085887E-01
   7161.33  4.1387251E-01
   7161.67  4.1690669E-01
   7162.00  4.1991484E-01
   7162.33  4.2284021E-01
   7162.67  4.2565546E-01
   7163.00  4.2833910E-01
   7163.33  4.3085934E-01
   7163.67  4.3323157E-01
   7164.00  4.3546108E-01
   7164.33  4.3754639E-01
   7164.67  4.3952557E-01
   7165.00  4.4142191E-01
   7165.33  4.4325905E-01
   7165.67  4.4507480E-01
   7166.00  4.4689483E-01
   7166.33  4.4874884E-01
   7166.67  4.5065290E-01
   7167.00  4.5261910E-01
   7167.33  4.5466411E-01
   7167.67  4.5677951E-01
   7168.00  4.5895965E-01
   7168.33  4.6119773E-01
   7168.67  4.6346773E-01
   7169.00  4.6574911E-01
   7169.33  4.6801340E-01
   7169.67  4.7023515E-01
   7170.00  4.7239195E-01
   7170.33  4.7444969E-01
   7170.67  4.7639929E-01
   7171.00  4.7822369E-01
   7171.33  4.7987678E-01
   7171.67  4.8132719E-01
   7172.00  4.8250478E-01
