    FDMNES
    energy     <xanes>
   7097.00  4.8583952E-03
   7097.33  4.9655595E-03
   7097.67  5.0771668E-03
   7098.00  5.1934950E-03
   7098.33  5.3155350E-03
   7098.67  5.4430469E-03
   7099.00  5.5764043E-03
   7099.33  5.7168809E-03
   7099.67  5.8642260E-03
   7100.00  6.0189557E-03
   7100.33  6.1827510E-03
   7100.67  6.3553675E-03
   7101.00  6.5375422E-03
   7101.33  6.7315655E-03
   7101.67  6.9372393E-03
   7102.00  7.1556587E-03
   7102.33  7.3900695E-03
   7102.67  7.6404107E-03
   7103.00  7.9083911E-03
   7103.33  8.1988422E-03
   7103.67  8.5120524E-03
   7104.00  8.8508545E-03
   7104.33  9.2229041E-03
   7104.67  9.6293608E-03
   7105.00  1.0075296E-02
   7105.33  1.0573866E-02
   7105.67  1.1128494E-02
   7106.00  1.1749215E-02
   7106.33  1.2461224E-02
   7106.67  1.3274396E-02
   7107.00  1.4211474E-02
   7107.33  1.5328520E-02
   7107.67  1.6656852E-02
   7108.00  1.8258986E-02
   7108.33  2.0290427E-02
   7108.67  2.2873514E-02
   7109.00  2.6239362E-02
   7109.33  3.0998970E-02
   7109.67  3.7846998E-02
   7110.00  4.8144554E-02
   7110.33  6.5804408E-02
   7110.67  9.4953716E-02
   7111.00  1.3652167E-01
   7111.33  1.7929441E-01
   7111.67  2.1313454E-01
   7112.00  2.3733059E-01
   7112.33  2.3928755E-01
   7112.67  2.0971469E-01
   7113.00  1.6720978E-01
   7113.33  1.3535200E-01
   7113.67  1.1450975E-01
   7114.00  1.0122023E-01
   7114.33  9.3136717E-02
   7114.67  8.8485565E-02
   7115.00  8.6874845E-02
   7115.33  8.8362006E-02
   7115.67  9.2437661E-02
   7116.00  9.9067237E-02
   7116.33  1.0860784E-01
   7116.67  1.2070906E-01
   7117.00  1.3518851E-01
   7117.33  1.5195262E-01
   7117.67  1.7056035E-01
   7118.00  1.9115533E-01
   7118.33  2.1447825E-01
   7118.67  2.4077713E-01
   7119.00  2.7024504E-01
   7119.33  3.0204274E-01
   7119.67  3.3312423E-01
   7120.00  3.6134805E-01
   7120.33  3.8656607E-01
   7120.67  4.1099216E-01
   7121.00  4.3533912E-01
   7121.33  4.5857015E-01
   7121.67  4.7914911E-01
   7122.00  4.9622081E-01
   7122.33  5.0976299E-01
   7122.67  5.2140445E-01
   7123.00  5.3197783E-01
   7123.33  5.4162680E-01
   7123.67  5.5041369E-01
   7124.00  5.5852368E-01
   7124.33  5.6630123E-01
   7124.67  5.7362048E-01
   7125.00  5.7974945E-01
   7125.33  5.8378803E-01
   7125.67  5.8604292E-01
   7126.00  5.8695582E-01
   7126.33  5.8702299E-01
   7126.67  5.8689644E-01
   7127.00  5.8705249E-01
   7127.33  5.8811601E-01
   7127.67  5.9024426E-01
   7128.00  5.9332547E-01
   7128.33  5.9710692E-01
   7128.67  6.0118752E-01
   7129.00  6.0534079E-01
   7129.33  6.0928973E-01
   7129.67  6.1275974E-01
   7130.00  6.1543978E-01
   7130.33  6.1675042E-01
   7130.67  6.1640342E-01
   7131.00  6.1416163E-01
   7131.33  6.0989456E-01
   7131.67  6.0437699E-01
   7132.00  5.9830263E-01
   7132.33  5.9236389E-01
   7132.67  5.8676072E-01
   7133.00  5.8134191E-01
   7133.33  5.7600653E-01
   7133.67  5.7117255E-01
   7134.00  5.6754135E-01
   7134.33  5.6594286E-01
   7134.67  5.6618887E-01
   7135.00  5.6790921E-01
   7135.33  5.7050112E-01
   7135.67  5.7310074E-01
   7136.00  5.7514963E-01
   7136.33  5.7611093E-01
   7136.67  5.7600819E-01
   7137.00  5.7496590E-01
   7137.33  5.7316051E-01
   7137.67  5.7096226E-01
   7138.00  5.6858551E-01
   7138.33  5.6622018E-01
   7138.67  5.6398380E-01
   7139.00  5.6192748E-01
   7139.33  5.6008496E-01
   7139.67  5.5840285E-01
   7140.00  5.5683375E-01
   7140.33  5.5530704E-01
   7140.67  5.5374068E-01
   7141.00  5.5207814E-01
   7141.33  5.5024212E-01
   7141.67  5.4820279E-01
   7142.00  5.4592884E-01
   7142.33  5.4336551E-01
   7142.67  5.4053549E-01
   7143.00  5.3743824E-01
   7143.33  5.3404493E-01
   7143.67  5.3039486E-01
   7144.00  5.2649467E-01
   7144.33  5.2232371E-01
   7144.67  5.1792518E-01
   7145.00  5.1331464E-01
   7145.33  5.0849216E-01
   7145.67  5.0351140E-01
   7146.00  4.9840302E-01
   7146.33  4.9319544E-01
   7146.67  4.8794144E-01
   7147.00  4.8267707E-01
   7147.33  4.7744540E-01
   7147.67  4.7227764E-01
   7148.00  4.6719916E-01
   7148.33  4.6224725E-01
   7148.67  4.5742551E-01
   7149.00  4.5274697E-01
   7149.33  4.4824642E-01
   7149.67  4.4392057E-01
   7150.00  4.3978612E-01
   7150.33  4.3588895E-01
   7150.67  4.3222304E-01
   7151.00  4.2880716E-01
   7151.33  4.2569713E-01
   7151.67  4.2287864E-01
   7152.00  4.2036444E-01
   7152.33  4.1820115E-01
   7152.67  4.1634960E-01
   7153.00  4.1480263E-01
   7153.33  4.1358515E-01
   7153.67  4.1265306E-01
   7154.00  4.1199908E-01
   7154.33  4.1164328E-01
   7154.67  4.1153772E-01
   7155.00  4.1167032E-01
   7155.33  4.1205642E-01
   7155.67  4.1265538E-01
   7156.00  4.1345620E-01
   7156.33  4.1446927E-01
   7156.67  4.1565620E-01
   7157.00  4.1700233E-01
   7157.33  4.1850669E-01
   7157.67  4.2013154E-01
   7158.00  4.2185780E-01
   7158.33  4.2367153E-01
   7158.67  4.2553871E-01
   7159.00  4.2743806E-01
   7159.33  4.2934488E-01
   7159.67  4.3123219E-01
   7160.00  4.3307763E-01
   7160.33  4.3484742E-01
   7160.67  4.3652519E-01
   7161.00  4.3809026E-01
   7161.33  4.3950299E-01
   7161.67  4.4076037E-01
   7162.00  4.4184882E-01
   7162.33  4.4273371E-01
   7162.67  4.4343128E-01
   7163.00  4.4394435E-01
   7163.33  4.4426336E-01
   7163.67  4.4442329E-01
   7164.00  4.4443948E-01
   7164.33  4.4432292E-01
   7164.67  4.4411784E-01
   7165.00  4.4385047E-01
   7165.33  4.4354684E-01
   7165.67  4.4323895E-01
   7166.00  4.4294801E-01
   7166.33  4.4269938E-01
   7166.67  4.4250486E-01
   7167.00  4.4237580E-01
   7167.33  4.4233254E-01
   7167.67  4.4237409E-01
   7168.00  4.4250590E-01
   7168.33  4.4274421E-01
   7168.67  4.4307934E-01
   7169.00  4.4351087E-01
   7169.33  4.4404724E-01
   7169.67  4.4467086E-01
   7170.00  4.4537406E-01
   7170.33  4.4615258E-01
   7170.67  4.4698052E-01
   7171.00  4.4783729E-01
   7171.33  4.4868704E-01
   7171.67  4.4947402E-01
   7172.00  4.5012860E-01
