    FDMNES
    energy     <xanes>
   7097.00  5.1881196E-03
   7097.33  5.3158380E-03
   7097.67  5.4495827E-03
   7098.00  5.5897755E-03
   7098.33  5.7378352E-03
   7098.67  5.8934963E-03
   7099.00  6.0573387E-03
   7099.33  6.2312347E-03
   7099.67  6.4149192E-03
   7100.00  6.6092119E-03
   7100.33  6.8166517E-03
   7100.67  7.0370082E-03
   7101.00  7.2714784E-03
   7101.33  7.5236189E-03
   7101.67  7.7933097E-03
   7102.00  8.0823682E-03
   7102.33  8.3959769E-03
   7102.67  8.7342951E-03
   7103.00  9.1002163E-03
   7103.33  9.5016667E-03
   7103.67  9.9394749E-03
   7104.00  1.0418527E-02
   7104.33  1.0951709E-02
   7104.67  1.1541474E-02
   7105.00  1.2196716E-02
   7105.33  1.2940106E-02
   7105.67  1.3778280E-02
   7106.00  1.4729102E-02
   7106.33  1.5836946E-02
   7106.67  1.7120379E-02
   7107.00  1.8620526E-02
   7107.33  2.0438295E-02
   7107.67  2.2632439E-02
   7108.00  2.5318421E-02
   7108.33  2.8783899E-02
   7108.67  3.3263389E-02
   7109.00  3.9199434E-02
   7109.33  4.7774190E-02
   7109.67  6.0385517E-02
   7110.00  7.9792433E-02
   7110.33  1.1391000E-01
   7110.67  1.6989568E-01
   7111.00  2.4285747E-01
   7111.33  2.9844703E-01
   7111.67  3.2983064E-01
   7112.00  3.4116977E-01
   7112.33  3.4048487E-01
   7112.67  3.3393841E-01
   7113.00  3.1628153E-01
   7113.33  2.9008290E-01
   7113.67  2.6845303E-01
   7114.00  2.5917278E-01
   7114.33  2.6758146E-01
   7114.67  2.9034358E-01
   7115.00  3.2086208E-01
   7115.33  3.4084971E-01
   7115.67  3.3502377E-01
   7116.00  3.0535174E-01
   7116.33  2.6732713E-01
   7116.67  2.3418972E-01
   7117.00  2.0897309E-01
   7117.33  1.9177651E-01
   7117.67  1.7989733E-01
   7118.00  1.7205893E-01
   7118.33  1.6776443E-01
   7118.67  1.6655444E-01
   7119.00  1.6883128E-01
   7119.33  1.7512089E-01
   7119.67  1.8410546E-01
   7120.00  1.9437934E-01
   7120.33  2.0392616E-01
   7120.67  2.1202747E-01
   7121.00  2.1978143E-01
   7121.33  2.2853145E-01
   7121.67  2.3760944E-01
   7122.00  2.4625610E-01
   7122.33  2.5417810E-01
   7122.67  2.6154119E-01
   7123.00  2.6842512E-01
   7123.33  2.7495578E-01
   7123.67  2.8141249E-01
   7124.00  2.8794708E-01
   7124.33  2.9460063E-01
   7124.67  3.0135215E-01
   7125.00  3.0833074E-01
   7125.33  3.1593782E-01
   7125.67  3.2441793E-01
   7126.00  3.3384068E-01
   7126.33  3.4407485E-01
   7126.67  3.5463026E-01
   7127.00  3.6522916E-01
   7127.33  3.7577264E-01
   7127.67  3.8645294E-01
   7128.00  3.9761718E-01
   7128.33  4.0984534E-01
   7128.67  4.2332655E-01
   7129.00  4.3816517E-01
   7129.33  4.5457001E-01
   7129.67  4.7242952E-01
   7130.00  4.9192567E-01
   7130.33  5.1377342E-01
   7130.67  5.3839843E-01
   7131.00  5.6647396E-01
   7131.33  5.9927916E-01
   7131.67  6.3690946E-01
   7132.00  6.7966460E-01
   7132.33  7.2778261E-01
   7132.67  7.7862091E-01
   7133.00  8.2824164E-01
   7133.33  8.6835797E-01
   7133.67  8.9176856E-01
   7134.00  8.9332149E-01
   7134.33  8.6963115E-01
   7134.67  8.2895551E-01
   7135.00  7.7844681E-01
   7135.33  7.2562032E-01
   7135.67  6.7610020E-01
   7136.00  6.3247004E-01
   7136.33  5.9693126E-01
   7136.67  5.6872780E-01
   7137.00  5.4743958E-01
   7137.33  5.3298980E-01
   7137.67  5.2361064E-01
   7138.00  5.1841691E-01
   7138.33  5.1684267E-01
   7138.67  5.1763600E-01
   7139.00  5.2017491E-01
   7139.33  5.2399169E-01
   7139.67  5.2846298E-01
   7140.00  5.3328617E-01
   7140.33  5.3824553E-01
   7140.67  5.4320465E-01
   7141.00  5.4812353E-01
   7141.33  5.5299591E-01
   7141.67  5.5785103E-01
   7142.00  5.6271990E-01
   7142.33  5.6765986E-01
   7142.67  5.7273342E-01
   7143.00  5.7802270E-01
   7143.33  5.8369200E-01
   7143.67  5.8983953E-01
   7144.00  5.9658541E-01
   7144.33  6.0413483E-01
   7144.67  6.1245990E-01
   7145.00  6.2154714E-01
   7145.33  6.3136155E-01
   7145.67  6.4158193E-01
   7146.00  6.5190450E-01
   7146.33  6.6186246E-01
   7146.67  6.7103211E-01
   7147.00  6.7899511E-01
   7147.33  6.8506223E-01
   7147.67  6.8902699E-01
   7148.00  6.9061845E-01
   7148.33  6.8935823E-01
   7148.67  6.8559707E-01
   7149.00  6.7950716E-01
   7149.33  6.7117750E-01
   7149.67  6.6130029E-01
   7150.00  6.5030080E-01
   7150.33  6.3860345E-01
   7150.67  6.2675591E-01
   7151.00  6.1511431E-01
   7151.33  6.0409164E-01
   7151.67  5.9388283E-01
   7152.00  5.8465197E-01
   7152.33  5.7666045E-01
   7152.67  5.6983120E-01
   7153.00  5.6417420E-01
   7153.33  5.5980294E-01
   7153.67  5.5651030E-01
   7154.00  5.5421984E-01
   7154.33  5.5293316E-01
   7154.67  5.5241264E-01
   7155.00  5.5254323E-01
   7155.33  5.5325188E-01
   7155.67  5.5433687E-01
   7156.00  5.5568160E-01
   7156.33  5.5716901E-01
   7156.67  5.5865541E-01
   7157.00  5.6003660E-01
   7157.33  5.6117245E-01
   7157.67  5.6198923E-01
   7158.00  5.6241196E-01
   7158.33  5.6231146E-01
   7158.67  5.6169478E-01
   7159.00  5.6053489E-01
   7159.33  5.5874979E-01
   7159.67  5.5641537E-01
   7160.00  5.5355066E-01
   7160.33  5.5012855E-01
   7160.67  5.4625604E-01
   7161.00  5.4197810E-01
   7161.33  5.3731214E-01
   7161.67  5.3236569E-01
   7162.00  5.2718873E-01
   7162.33  5.2181188E-01
   7162.67  5.1630604E-01
   7163.00  5.1071071E-01
   7163.33  5.0506175E-01
   7163.67  4.9939974E-01
   7164.00  4.9374902E-01
   7164.33  4.8813683E-01
   7164.67  4.8257729E-01
   7165.00  4.7708406E-01
   7165.33  4.7167979E-01
   7165.67  4.6636363E-01
   7166.00  4.6114595E-01
   7166.33  4.5606246E-01
   7166.67  4.5110693E-01
   7167.00  4.4627618E-01
   7167.33  4.4158193E-01
   7167.67  4.3700736E-01
   7168.00  4.3255216E-01
   7168.33  4.2823146E-01
   7168.67  4.2403271E-01
   7169.00  4.1996114E-01
   7169.33  4.1604386E-01
   7169.67  4.1227769E-01
   7170.00  4.0867747E-01
   7170.33  4.0528793E-01
   7170.67  4.0211286E-01
   7171.00  3.9918216E-01
   7171.33  3.9658001E-01
   7171.67  3.9434166E-01
   7172.00  3.9254829E-01
