    FDMNES
    energy     <xanes>
   7097.00  4.9074149E-03
   7097.33  5.0221392E-03
   7097.67  5.1420014E-03
   7098.00  5.2673428E-03
   7098.33  5.3993416E-03
   7098.67  5.5377454E-03
   7099.00  5.6830160E-03
   7099.33  5.8366844E-03
   7099.67  5.9984875E-03
   7100.00  6.1690659E-03
   7100.33  6.3504578E-03
   7100.67  6.5424094E-03
   7101.00  6.7458354E-03
   7101.33  6.9635289E-03
   7101.67  7.1952892E-03
   7102.00  7.4424690E-03
   7102.33  7.7090309E-03
   7102.67  7.9949253E-03
   7103.00  8.3022381E-03
   7103.33  8.6368339E-03
   7103.67  8.9990367E-03
   7104.00  9.3922324E-03
   7104.33  9.8255727E-03
   7104.67  1.0300280E-02
   7105.00  1.0822223E-02
   7105.33  1.1406687E-02
   7105.67  1.2057134E-02
   7106.00  1.2784641E-02
   7106.33  1.3617169E-02
   7106.67  1.4564232E-02
   7107.00  1.5649346E-02
   7107.33  1.6930633E-02
   7107.67  1.8436431E-02
   7108.00  2.0225990E-02
   7108.33  2.2445842E-02
   7108.67  2.5197880E-02
   7109.00  2.8677901E-02
   7109.33  3.3393369E-02
   7109.67  3.9865167E-02
   7110.00  4.9108280E-02
   7110.33  6.4030306E-02
   7110.67  8.8162452E-02
   7111.00  1.2505168E-01
   7111.33  1.6963301E-01
   7111.67  2.0331484E-01
   7112.00  2.2547246E-01
   7112.33  2.5247492E-01
   7112.67  2.8153694E-01
   7113.00  3.0369339E-01
   7113.33  3.4281676E-01
   7113.67  4.1687678E-01
   7114.00  4.9039857E-01
   7114.33  4.5799345E-01
   7114.67  3.5619543E-01
   7115.00  2.6468861E-01
   7115.33  2.1375808E-01
   7115.67  1.9176564E-01
   7116.00  1.9301873E-01
   7116.33  2.1639827E-01
   7116.67  2.5323792E-01
   7117.00  2.9132140E-01
   7117.33  3.1138676E-01
   7117.67  3.0943744E-01
   7118.00  2.9166546E-01
   7118.33  2.6735368E-01
   7118.67  2.4354505E-01
   7119.00  2.2258533E-01
   7119.33  2.0546779E-01
   7119.67  1.9082519E-01
   7120.00  1.7758759E-01
   7120.33  1.6557549E-01
   7120.67  1.5514515E-01
   7121.00  1.4665017E-01
   7121.33  1.4041300E-01
   7121.67  1.3617399E-01
   7122.00  1.3403175E-01
   7122.33  1.3438369E-01
   7122.67  1.3676379E-01
   7123.00  1.4068972E-01
   7123.33  1.4564093E-01
   7123.67  1.5111913E-01
   7124.00  1.5707484E-01
   7124.33  1.6377347E-01
   7124.67  1.7146759E-01
   7125.00  1.8052981E-01
   7125.33  1.9173669E-01
   7125.67  2.0548560E-01
   7126.00  2.2234597E-01
   7126.33  2.4339851E-01
   7126.67  2.6868436E-01
   7127.00  2.9840095E-01
   7127.33  3.3227562E-01
   7127.67  3.6693694E-01
   7128.00  3.9790113E-01
   7128.33  4.1878767E-01
   7128.67  4.2941675E-01
   7129.00  4.3295255E-01
   7129.33  4.3515527E-01
   7129.67  4.4117926E-01
   7130.00  4.5358416E-01
   7130.33  4.7457375E-01
   7130.67  5.0327556E-01
   7131.00  5.3915189E-01
   7131.33  5.8174054E-01
   7131.67  6.2856219E-01
   7132.00  6.7781213E-01
   7132.33  7.2713070E-01
   7132.67  7.7397007E-01
   7133.00  8.1619256E-01
   7133.33  8.5101548E-01
   7133.67  8.7864504E-01
   7134.00  9.0015989E-01
   7134.33  9.1823055E-01
   7134.67  9.3710351E-01
   7135.00  9.5927109E-01
   7135.33  9.8475786E-01
   7135.67  1.0071003E+00
   7136.00  1.0165672E+00
   7136.33  9.9928854E-01
   7136.67  9.5633251E-01
   7137.00  8.9478464E-01
   7137.33  8.2550426E-01
   7137.67  7.5809863E-01
   7138.00  6.9627008E-01
   7138.33  6.4214820E-01
   7138.67  5.9460176E-01
   7139.00  5.5303219E-01
   7139.33  5.1745025E-01
   7139.67  4.8673412E-01
   7140.00  4.6065137E-01
   7140.33  4.3959794E-01
   7140.67  4.2286810E-01
   7141.00  4.1027629E-01
   7141.33  4.0195808E-01
   7141.67  3.9696885E-01
   7142.00  3.9484065E-01
   7142.33  3.9531391E-01
   7142.67  3.9761973E-01
   7143.00  4.0143848E-01
   7143.33  4.0667077E-01
   7143.67  4.1300381E-01
   7144.00  4.2034812E-01
   7144.33  4.2870966E-01
   7144.67  4.3780576E-01
   7145.00  4.4739635E-01
   7145.33  4.5707278E-01
   7145.67  4.6628280E-01
   7146.00  4.7453384E-01
   7146.33  4.8119388E-01
   7146.67  4.8626844E-01
   7147.00  4.8991511E-01
   7147.33  4.9245758E-01
   7147.67  4.9453485E-01
   7148.00  4.9655047E-01
   7148.33  4.9888515E-01
   7148.67  5.0168119E-01
   7149.00  5.0496952E-01
   7149.33  5.0874116E-01
   7149.67  5.1282469E-01
   7150.00  5.1711000E-01
   7150.33  5.2149970E-01
   7150.67  5.2591204E-01
   7151.00  5.3032345E-01
   7151.33  5.3474740E-01
   7151.67  5.3922469E-01
   7152.00  5.4380392E-01
   7152.33  5.4856688E-01
   7152.67  5.5354815E-01
   7153.00  5.5877654E-01
   7153.33  5.6428805E-01
   7153.67  5.7002436E-01
   7154.00  5.7594052E-01
   7154.33  5.8197897E-01
   7154.67  5.8804248E-01
   7155.00  5.9405513E-01
   7155.33  5.9991292E-01
   7155.67  6.0555254E-01
   7156.00  6.1091195E-01
   7156.33  6.1588648E-01
   7156.67  6.2046916E-01
   7157.00  6.2462700E-01
   7157.33  6.2827535E-01
   7157.67  6.3145211E-01
   7158.00  6.3414698E-01
   7158.33  6.3629244E-01
   7158.67  6.3794752E-01
   7159.00  6.3911267E-01
   7159.33  6.3972909E-01
   7159.67  6.3986096E-01
   7160.00  6.3951120E-01
   7160.33  6.3862295E-01
   7160.67  6.3725791E-01
   7161.00  6.3541730E-01
   7161.33  6.3304408E-01
   7161.67  6.3019975E-01
   7162.00  6.2688654E-01
   7162.33  6.2304954E-01
   7162.67  6.1875180E-01
   7163.00  6.1399957E-01
   7163.33  6.0874730E-01
   7163.67  6.0306450E-01
   7164.00  5.9696710E-01
   7164.33  5.9042883E-01
   7164.67  5.8352664E-01
   7165.00  5.7628960E-01
   7165.33  5.6871985E-01
   7165.67  5.6089777E-01
   7166.00  5.5286306E-01
   7166.33  5.4464280E-01
   7166.67  5.3630495E-01
   7167.00  5.2788962E-01
   7167.33  5.1943750E-01
   7167.67  5.1099484E-01
   7168.00  5.0259675E-01
   7168.33  4.9429289E-01
   7168.67  4.8611021E-01
   7169.00  4.7808051E-01
   7169.33  4.7026508E-01
   7169.67  4.6267943E-01
   7170.00  4.5536007E-01
   7170.33  4.4839381E-01
   7170.67  4.4180116E-01
   7171.00  4.3565000E-01
   7171.33  4.3011617E-01
   7171.67  4.2530603E-01
   7172.00  4.2143670E-01
