    FDMNES
    energy     <xanes>
   7097.00  4.5116686E-03
   7097.33  4.6045768E-03
   7097.67  4.7011676E-03
   7098.00  4.8016682E-03
   7098.33  4.9068951E-03
   7098.67  5.0166463E-03
   7099.00  5.1312275E-03
   7099.33  5.2516877E-03
   7099.67  5.3778165E-03
   7100.00  5.5100377E-03
   7100.33  5.6497353E-03
   7100.67  5.7967059E-03
   7101.00  5.9515558E-03
   7101.33  6.1161723E-03
   7101.67  6.2903922E-03
   7102.00  6.4751189E-03
   7102.33  6.6730302E-03
   7102.67  6.8840786E-03
   7103.00  7.1096765E-03
   7103.33  7.3538142E-03
   7103.67  7.6167344E-03
   7104.00  7.9007789E-03
   7104.33  8.2122698E-03
   7104.67  8.5521631E-03
   7105.00  8.9246379E-03
   7105.33  9.3405263E-03
   7105.67  9.8026061E-03
   7106.00  1.0319076E-02
   7106.33  1.0910502E-02
   7106.67  1.1584739E-02
   7107.00  1.2360044E-02
   7107.33  1.3281354E-02
   7107.67  1.4372863E-02
   7108.00  1.5683241E-02
   7108.33  1.7332911E-02
   7108.67  1.9412339E-02
   7109.00  2.2092455E-02
   7109.33  2.5819268E-02
   7109.67  3.1074292E-02
   7110.00  3.8792110E-02
   7110.33  5.1626373E-02
   7110.67  7.2448995E-02
   7111.00  1.0306277E-01
   7111.33  1.4317566E-01
   7111.67  1.8820087E-01
   7112.00  2.1678692E-01
   7112.33  2.0719812E-01
   7112.67  2.0076270E-01
   7113.00  2.0925248E-01
   7113.33  1.9982263E-01
   7113.67  1.6051856E-01
   7114.00  1.1872798E-01
   7114.33  9.2013986E-02
   7114.67  7.3501157E-02
   7115.00  6.0723098E-02
   7115.33  5.3634299E-02
   7115.67  5.0214720E-02
   7116.00  4.9454384E-02
   7116.33  5.0901012E-02
   7116.67  5.3820450E-02
   7117.00  5.7624903E-02
   7117.33  6.1406213E-02
   7117.67  6.5093477E-02
   7118.00  6.9467657E-02
   7118.33  7.5345621E-02
   7118.67  8.2684687E-02
   7119.00  9.1399557E-02
   7119.33  1.0136984E-01
   7119.67  1.1192633E-01
   7120.00  1.2236762E-01
   7120.33  1.3189857E-01
   7120.67  1.4107452E-01
   7121.00  1.5140612E-01
   7121.33  1.6487111E-01
   7121.67  1.8178761E-01
   7122.00  2.0248357E-01
   7122.33  2.2819903E-01
   7122.67  2.5920658E-01
   7123.00  2.9587286E-01
   7123.33  3.3818547E-01
   7123.67  3.8334780E-01
   7124.00  4.2872408E-01
   7124.33  4.7169089E-01
   7124.67  5.1155419E-01
   7125.00  5.4708859E-01
   7125.33  5.7474461E-01
   7125.67  5.9472080E-01
   7126.00  6.0928492E-01
   7126.33  6.2176411E-01
   7126.67  6.3455052E-01
   7127.00  6.4820489E-01
   7127.33  6.6400969E-01
   7127.67  6.8346467E-01
   7128.00  7.0734701E-01
   7128.33  7.3526236E-01
   7128.67  7.6407592E-01
   7129.00  7.9033275E-01
   7129.33  8.0840152E-01
   7129.67  8.1532175E-01
   7130.00  8.1060355E-01
   7130.33  7.9654090E-01
   7130.67  7.7821244E-01
   7131.00  7.5745269E-01
   7131.33  7.3521775E-01
   7131.67  7.1312355E-01
   7132.00  6.9255329E-01
   7132.33  6.7469036E-01
   7132.67  6.5922878E-01
   7133.00  6.4601423E-01
   7133.33  6.3574565E-01
   7133.67  6.2940017E-01
   7134.00  6.2859562E-01
   7134.33  6.3493207E-01
   7134.67  6.4486505E-01
   7135.00  6.5364938E-01
   7135.33  6.5718382E-01
   7135.67  6.5699906E-01
   7136.00  6.5541114E-01
   7136.33  6.5449181E-01
   7136.67  6.5504548E-01
   7137.00  6.5725470E-01
   7137.33  6.6121393E-01
   7137.67  6.6647813E-01
   7138.00  6.7278655E-01
   7138.33  6.7991421E-01
   7138.67  6.8744681E-01
   7139.00  6.9510407E-01
   7139.33  7.0254167E-01
   7139.67  7.0948439E-01
   7140.00  7.1570299E-01
   7140.33  7.2085876E-01
   7140.67  7.2491014E-01
   7141.00  7.2777245E-01
   7141.33  7.2924852E-01
   7141.67  7.2949139E-01
   7142.00  7.2851316E-01
   7142.33  7.2615992E-01
   7142.67  7.2253913E-01
   7143.00  7.1756571E-01
   7143.33  7.1091164E-01
   7143.67  7.0262299E-01
   7144.00  6.9263474E-01
   7144.33  6.8078677E-01
   7144.67  6.6746746E-01
   7145.00  6.5291575E-01
   7145.33  6.3736085E-01
   7145.67  6.2127100E-01
   7146.00  6.0492342E-01
   7146.33  5.8857290E-01
   7146.67  5.7239115E-01
   7147.00  5.5646341E-01
   7147.33  5.4086840E-01
   7147.67  5.2556916E-01
   7148.00  5.1054754E-01
   7148.33  4.9580625E-01
   7148.67  4.8128536E-01
   7149.00  4.6696175E-01
   7149.33  4.5282996E-01
   7149.67  4.3883865E-01
   7150.00  4.2495701E-01
   7150.33  4.1115425E-01
   7150.67  3.9739433E-01
   7151.00  3.8368526E-01
   7151.33  3.7011864E-01
   7151.67  3.5685541E-01
   7152.00  3.4412532E-01
   7152.33  3.3232418E-01
   7152.67  3.2161449E-01
   7153.00  3.1217223E-01
   7153.33  3.0427991E-01
   7153.67  2.9777332E-01
   7154.00  2.9259212E-01
   7154.33  2.8875880E-01
   7154.67  2.8595718E-01
   7155.00  2.8402552E-01
   7155.33  2.8286216E-01
   7155.67  2.8221438E-01
   7156.00  2.8195430E-01
   7156.33  2.8200209E-01
   7156.67  2.8224647E-01
   7157.00  2.8264454E-01
   7157.33  2.8318739E-01
   7157.67  2.8385824E-01
   7158.00  2.8467181E-01
   7158.33  2.8568004E-01
   7158.67  2.8690103E-01
   7159.00  2.8837335E-01
   7159.33  2.9017946E-01
   7159.67  2.9232118E-01
   7160.00  2.9482555E-01
   7160.33  2.9776741E-01
   7160.67  3.0111833E-01
   7161.00  3.0489072E-01
   7161.33  3.0914393E-01
   7161.67  3.1382029E-01
   7162.00  3.1891507E-01
   7162.33  3.2447440E-01
   7162.67  3.3043384E-01
   7163.00  3.3677011E-01
   7163.33  3.4348845E-01
   7163.67  3.5050404E-01
   7164.00  3.5777198E-01
   7164.33  3.6525202E-01
   7164.67  3.7284587E-01
   7165.00  3.8048265E-01
   7165.33  3.8807022E-01
   7165.67  3.9552694E-01
   7166.00  4.0278136E-01
   7166.33  4.0972472E-01
   7166.67  4.1633137E-01
   7167.00  4.2256313E-01
   7167.33  4.2834365E-01
   7167.67  4.3371650E-01
   7168.00  4.3868950E-01
   7168.33  4.4323673E-01
   7168.67  4.4743570E-01
   7169.00  4.5131634E-01
   7169.33  4.5487946E-01
   7169.67  4.5819344E-01
   7170.00  4.6128146E-01
   7170.33  4.6413691E-01
   7170.67  4.6679459E-01
   7171.00  4.6925156E-01
   7171.33  4.7145793E-01
   7171.67  4.7338554E-01
   7172.00  4.7495468E-01
