    FDMNES
    energy     <xanes>
   7097.00  5.4013137E-03
   7097.33  5.5353792E-03
   7097.67  5.6757842E-03
   7098.00  5.8229685E-03
   7098.33  5.9784167E-03
   7098.67  6.1418423E-03
   7099.00  6.3138458E-03
   7099.33  6.4963766E-03
   7099.67  6.6891421E-03
   7100.00  6.8929834E-03
   7100.33  7.1105253E-03
   7100.67  7.3414981E-03
   7101.00  7.5871156E-03
   7101.33  7.8510171E-03
   7101.67  8.1330205E-03
   7102.00  8.4349393E-03
   7102.33  8.7620001E-03
   7102.67  9.1142497E-03
   7103.00  9.4945130E-03
   7103.33  9.9106228E-03
   7103.67  1.0363171E-02
   7104.00  1.0856789E-02
   7104.33  1.1403850E-02
   7104.67  1.2006234E-02
   7105.00  1.2672034E-02
   7105.33  1.3422147E-02
   7105.67  1.4261620E-02
   7106.00  1.5205819E-02
   7106.33  1.6293282E-02
   7106.67  1.7537510E-02
   7107.00  1.8971146E-02
   7107.33  2.0674521E-02
   7107.67  2.2686993E-02
   7108.00  2.5090229E-02
   7108.33  2.8085465E-02
   7108.67  3.1811144E-02
   7109.00  3.6532817E-02
   7109.33  4.2936393E-02
   7109.67  5.1716848E-02
   7110.00  6.4223591E-02
   7110.33  8.4207788E-02
   7110.67  1.1510917E-01
   7111.00  1.5694062E-01
   7111.33  2.0500168E-01
   7111.67  2.6713936E-01
   7112.00  3.5037598E-01
   7112.33  4.5128198E-01
   7112.67  5.5264389E-01
   7113.00  6.1868463E-01
   7113.33  6.0140854E-01
   7113.67  5.3832859E-01
   7114.00  4.6091595E-01
   7114.33  3.8608392E-01
   7114.67  3.2503516E-01
   7115.00  2.8174370E-01
   7115.33  2.5644408E-01
   7115.67  2.4249772E-01
   7116.00  2.3462909E-01
   7116.33  2.2641352E-01
   7116.67  2.1486908E-01
   7117.00  2.0112629E-01
   7117.33  1.8799947E-01
   7117.67  1.7690418E-01
   7118.00  1.6791126E-01
   7118.33  1.6099063E-01
   7118.67  1.5569474E-01
   7119.00  1.5181237E-01
   7119.33  1.4908190E-01
   7119.67  1.4673602E-01
   7120.00  1.4416788E-01
   7120.33  1.4104781E-01
   7120.67  1.3804523E-01
   7121.00  1.3608613E-01
   7121.33  1.3590401E-01
   7121.67  1.3703082E-01
   7122.00  1.3911489E-01
   7122.33  1.4210201E-01
   7122.67  1.4604182E-01
   7123.00  1.5125441E-01
   7123.33  1.5845436E-01
   7123.67  1.6798930E-01
   7124.00  1.8041911E-01
   7124.33  1.9697856E-01
   7124.67  2.1808662E-01
   7125.00  2.4441457E-01
   7125.33  2.7678595E-01
   7125.67  3.1307055E-01
   7126.00  3.5015996E-01
   7126.33  3.8261818E-01
   7126.67  4.0728160E-01
   7127.00  4.2347945E-01
   7127.33  4.3291486E-01
   7127.67  4.4169439E-01
   7128.00  4.5465918E-01
   7128.33  4.7615640E-01
   7128.67  5.0554837E-01
   7129.00  5.4092962E-01
   7129.33  5.7918687E-01
   7129.67  6.1729552E-01
   7130.00  6.5436008E-01
   7130.33  6.9060527E-01
   7130.67  7.2710410E-01
   7131.00  7.6477325E-01
   7131.33  8.0489962E-01
   7131.67  8.4799285E-01
   7132.00  8.9404909E-01
   7132.33  9.4136657E-01
   7132.67  9.8507359E-01
   7133.00  1.0190184E+00
   7133.33  1.0336694E+00
   7133.67  1.0269235E+00
   7134.00  9.9932798E-01
   7134.33  9.5369788E-01
   7134.67  8.9874771E-01
   7135.00  8.3972608E-01
   7135.33  7.8101519E-01
   7135.67  7.2509393E-01
   7136.00  6.7312233E-01
   7136.33  6.2642335E-01
   7136.67  5.8484307E-01
   7137.00  5.4864957E-01
   7137.33  5.1876735E-01
   7137.67  4.9457180E-01
   7138.00  4.7594252E-01
   7138.33  4.6308777E-01
   7138.67  4.5462760E-01
   7139.00  4.4978286E-01
   7139.33  4.4799769E-01
   7139.67  4.4823206E-01
   7140.00  4.5011803E-01
   7140.33  4.5364094E-01
   7140.67  4.5854506E-01
   7141.00  4.6476298E-01
   7141.33  4.7228579E-01
   7141.67  4.8071972E-01
   7142.00  4.8979217E-01
   7142.33  4.9918840E-01
   7142.67  5.0852431E-01
   7143.00  5.1753000E-01
   7143.33  5.2587445E-01
   7143.67  5.3344570E-01
   7144.00  5.4014221E-01
   7144.33  5.4578962E-01
   7144.67  5.5049992E-01
   7145.00  5.5429759E-01
   7145.33  5.5711606E-01
   7145.67  5.5911737E-01
   7146.00  5.6036043E-01
   7146.33  5.6084643E-01
   7146.67  5.6076217E-01
   7147.00  5.6020920E-01
   7147.33  5.5927869E-01
   7147.67  5.5815856E-01
   7148.00  5.5698033E-01
   7148.33  5.5590947E-01
   7148.67  5.5507963E-01
   7149.00  5.5460411E-01
   7149.33  5.5465211E-01
   7149.67  5.5524642E-01
   7150.00  5.5643117E-01
   7150.33  5.5830787E-01
   7150.67  5.6079904E-01
   7151.00  5.6388502E-01
   7151.33  5.6759194E-01
   7151.67  5.7178957E-01
   7152.00  5.7641301E-01
   7152.33  5.8141622E-01
   7152.67  5.8665290E-01
   7153.00  5.9201977E-01
   7153.33  5.9738812E-01
   7153.67  6.0262789E-01
   7154.00  6.0762908E-01
   7154.33  6.1222341E-01
   7154.67  6.1634271E-01
   7155.00  6.1990121E-01
   7155.33  6.2273648E-01
   7155.67  6.2486740E-01
   7156.00  6.2625864E-01
   7156.33  6.2679566E-01
   7156.67  6.2657649E-01
   7157.00  6.2562056E-01
   7157.33  6.2388000E-01
   7157.67  6.2149562E-01
   7158.00  6.1852184E-01
   7158.33  6.1496320E-01
   7158.67  6.1095784E-01
   7159.00  6.0656912E-01
   7159.33  6.0182940E-01
   7159.67  5.9684419E-01
   7160.00  5.9166606E-01
   7160.33  5.8633269E-01
   7160.67  5.8090699E-01
   7161.00  5.7541983E-01
   7161.33  5.6989894E-01
   7161.67  5.6437443E-01
   7162.00  5.5886285E-01
   7162.33  5.5338357E-01
   7162.67  5.4794511E-01
   7163.00  5.4255503E-01
   7163.33  5.3722535E-01
   7163.67  5.3195155E-01
   7164.00  5.2673377E-01
   7164.33  5.2157653E-01
   7164.67  5.1646970E-01
   7165.00  5.1141041E-01
   7165.33  5.0639941E-01
   7165.67  5.0142560E-01
   7166.00  4.9648398E-01
   7166.33  4.9157120E-01
   7166.67  4.8667748E-01
   7167.00  4.8179847E-01
   7167.33  4.7693369E-01
   7167.67  4.7208438E-01
   7168.00  4.6725711E-01
   7168.33  4.6246981E-01
   7168.67  4.5773700E-01
   7169.00  4.5307849E-01
   7169.33  4.4853485E-01
   7169.67  4.4412615E-01
   7170.00  4.3988271E-01
   7170.33  4.3586634E-01
   7170.67  4.3209077E-01
   7171.00  4.2859387E-01
   7171.33  4.2547479E-01
   7171.67  4.2278032E-01
   7172.00  4.2061728E-01
