    FDMNES
    energy     <xanes>
   7097.00  5.4043452E-03
   7097.33  5.5385290E-03
   7097.67  5.6790565E-03
   7098.00  5.8263674E-03
   7098.33  5.9819470E-03
   7098.67  6.1455084E-03
   7099.00  6.3176520E-03
   7099.33  6.5003277E-03
   7099.67  6.6932423E-03
   7100.00  6.8972367E-03
   7100.33  7.1149356E-03
   7100.67  7.3460686E-03
   7101.00  7.5918486E-03
   7101.33  7.8559141E-03
   7101.67  8.1380814E-03
   7102.00  8.4401621E-03
   7102.33  8.7673796E-03
   7102.67  9.1197777E-03
   7103.00  9.5001769E-03
   7103.33  9.9164013E-03
   7103.67  1.0369036E-02
   7104.00  1.0862703E-02
   7104.33  1.1409751E-02
   7104.67  1.2012046E-02
   7105.00  1.2677655E-02
   7105.33  1.3427415E-02
   7105.67  1.4266333E-02
   7106.00  1.5209706E-02
   7106.33  1.6295907E-02
   7106.67  1.7538317E-02
   7107.00  1.8969369E-02
   7107.33  2.0668892E-02
   7107.67  2.2675824E-02
   7108.00  2.5071102E-02
   7108.33  2.8054144E-02
   7108.67  3.1761629E-02
   7109.00  3.6455957E-02
   7109.33  4.2814804E-02
   7109.67  5.1523437E-02
   7110.00  6.3912712E-02
   7110.33  8.3672856E-02
   7110.67  1.1408049E-01
   7111.00  1.5468941E-01
   7111.33  2.0056439E-01
   7111.67  2.6131237E-01
   7112.00  3.4660816E-01
   7112.33  4.5720261E-01
   7112.67  5.6963824E-01
   7113.00  6.3671199E-01
   7113.33  6.0485040E-01
   7113.67  5.2936409E-01
   7114.00  4.5266799E-01
   7114.33  3.8590126E-01
   7114.67  3.2917425E-01
   7115.00  2.8598070E-01
   7115.33  2.5917421E-01
   7115.67  2.4388600E-01
   7116.00  2.3502437E-01
   7116.33  2.2581786E-01
   7116.67  2.1347424E-01
   7117.00  1.9954964E-01
   7117.33  1.8688309E-01
   7117.67  1.7639034E-01
   7118.00  1.6780989E-01
   7118.33  1.6095914E-01
   7118.67  1.5554045E-01
   7119.00  1.5146652E-01
   7119.33  1.4855248E-01
   7119.67  1.4604305E-01
   7120.00  1.4337379E-01
   7120.33  1.4032329E-01
   7120.67  1.3753591E-01
   7121.00  1.3578802E-01
   7121.33  1.3549878E-01
   7121.67  1.3610706E-01
   7122.00  1.3744173E-01
   7122.33  1.3980253E-01
   7122.67  1.4339005E-01
   7123.00  1.4847327E-01
   7123.33  1.5561486E-01
   7123.67  1.6500172E-01
   7124.00  1.7710179E-01
   7124.33  1.9305539E-01
   7124.67  2.1329541E-01
   7125.00  2.3853969E-01
   7125.33  2.6981013E-01
   7125.67  3.0541671E-01
   7126.00  3.4271769E-01
   7126.33  3.7652657E-01
   7126.67  4.0308285E-01
   7127.00  4.2134150E-01
   7127.33  4.3261484E-01
   7127.67  4.4249651E-01
   7128.00  4.5564496E-01
   7128.33  4.7680829E-01
   7128.67  5.0626346E-01
   7129.00  5.4287351E-01
   7129.33  5.8411558E-01
   7129.67  6.2603247E-01
   7130.00  6.6640104E-01
   7130.33  7.0389143E-01
   7130.67  7.3959416E-01
   7131.00  7.7518136E-01
   7131.33  8.1328272E-01
   7131.67  8.5552616E-01
   7132.00  9.0239177E-01
   7132.33  9.5228325E-01
   7132.67  9.9933145E-01
   7133.00  1.0361803E+00
   7133.33  1.0514922E+00
   7133.67  1.0426185E+00
   7134.00  1.0105443E+00
   7134.33  9.5936798E-01
   7134.67  8.9926520E-01
   7135.00  8.3609078E-01
   7135.33  7.7450473E-01
   7135.67  7.1668342E-01
   7136.00  6.6359499E-01
   7136.33  6.1643434E-01
   7136.67  5.7481545E-01
   7137.00  5.3890054E-01
   7137.33  5.0955363E-01
   7137.67  4.8606953E-01
   7138.00  4.6831299E-01
   7138.33  4.5655872E-01
   7138.67  4.4950103E-01
   7139.00  4.4644194E-01
   7139.33  4.4690352E-01
   7139.67  4.4970905E-01
   7140.00  4.5432460E-01
   7140.33  4.6046372E-01
   7140.67  4.6762833E-01
   7141.00  4.7559234E-01
   7141.33  4.8419572E-01
   7141.67  4.9315722E-01
   7142.00  5.0230812E-01
   7142.33  5.1146076E-01
   7142.67  5.2042979E-01
   7143.00  5.2905476E-01
   7143.33  5.3708168E-01
   7143.67  5.4439599E-01
   7144.00  5.5085834E-01
   7144.33  5.5621564E-01
   7144.67  5.6049801E-01
   7145.00  5.6366283E-01
   7145.33  5.6557930E-01
   7145.67  5.6645679E-01
   7146.00  5.6639944E-01
   7146.33  5.6547047E-01
   7146.67  5.6395415E-01
   7147.00  5.6202183E-01
   7147.33  5.5984701E-01
   7147.67  5.5764829E-01
   7148.00  5.5557719E-01
   7148.33  5.5382554E-01
   7148.67  5.5248866E-01
   7149.00  5.5165747E-01
   7149.33  5.5148628E-01
   7149.67  5.5195520E-01
   7150.00  5.5308850E-01
   7150.33  5.5497384E-01
   7150.67  5.5750910E-01
   7151.00  5.6066138E-01
   7151.33  5.6444223E-01
   7151.67  5.6870240E-01
   7152.00  5.7335584E-01
   7152.33  5.7831807E-01
   7152.67  5.8342308E-01
   7153.00  5.8855197E-01
   7153.33  5.9355071E-01
   7153.67  5.9830169E-01
   7154.00  6.0270268E-01
   7154.33  6.0659541E-01
   7154.67  6.0995691E-01
   7155.00  6.1273889E-01
   7155.33  6.1483357E-01
   7155.67  6.1631044E-01
   7156.00  6.1717852E-01
   7156.33  6.1738933E-01
   7156.67  6.1705159E-01
   7157.00  6.1620119E-01
   7157.33  6.1482344E-01
   7157.67  6.1302012E-01
   7158.00  6.1082641E-01
   7158.33  6.0823626E-01
   7158.67  6.0532830E-01
   7159.00  6.0213013E-01
   7159.33  5.9863899E-01
   7159.67  5.9491537E-01
   7160.00  5.9098294E-01
   7160.33  5.8684460E-01
   7160.67  5.8254557E-01
   7161.00  5.7810245E-01
   7161.33  5.7351519E-01
   7161.67  5.6881502E-01
   7162.00  5.6401415E-01
   7162.33  5.5911621E-01
   7162.67  5.5414534E-01
   7163.00  5.4911173E-01
   7163.33  5.4401833E-01
   7163.67  5.3887899E-01
   7164.00  5.3369849E-01
   7164.33  5.2847552E-01
   7164.67  5.2321700E-01
   7165.00  5.1792477E-01
   7165.33  5.1259543E-01
   7165.67  5.0723299E-01
   7166.00  5.0183775E-01
   7166.33  4.9640617E-01
   7166.67  4.9094429E-01
   7167.00  4.8545724E-01
   7167.33  4.7995433E-01
   7167.67  4.7445518E-01
   7168.00  4.6898041E-01
   7168.33  4.6356689E-01
   7168.67  4.5824418E-01
   7169.00  4.5304368E-01
   7169.33  4.4802223E-01
   7169.67  4.4319741E-01
   7170.00  4.3860001E-01
   7170.33  4.3429630E-01
   7170.67  4.3028658E-01
   7171.00  4.2660192E-01
   7171.33  4.2333780E-01
   7171.67  4.2052889E-01
   7172.00  4.1827763E-01
