    FDMNES
    energy     <xanes>
   7097.00  5.1161502E-03
   7097.33  5.2344084E-03
   7097.67  5.3579152E-03
   7098.00  5.4870173E-03
   7098.33  5.6229146E-03
   7098.67  5.7653465E-03
   7099.00  5.9147812E-03
   7099.33  6.0727761E-03
   7099.67  6.2390591E-03
   7100.00  6.4142795E-03
   7100.33  6.6005079E-03
   7100.67  6.7974808E-03
   7101.00  7.0061248E-03
   7101.33  7.2292744E-03
   7101.67  7.4667194E-03
   7102.00  7.7198289E-03
   7102.33  7.9926208E-03
   7102.67  8.2850373E-03
   7103.00  8.5991894E-03
   7103.33  8.9410196E-03
   7103.67  9.3108485E-03
   7104.00  9.7121033E-03
   7104.33  1.0154055E-02
   7104.67  1.0637936E-02
   7105.00  1.1169690E-02
   7105.33  1.1764804E-02
   7105.67  1.2426787E-02
   7106.00  1.3166870E-02
   7106.33  1.4013404E-02
   7106.67  1.4976059E-02
   7107.00  1.6078707E-02
   7107.33  1.7380359E-02
   7107.67  1.8909859E-02
   7108.00  2.0727467E-02
   7108.33  2.2982228E-02
   7108.67  2.5778084E-02
   7109.00  2.9314768E-02
   7109.33  3.4110561E-02
   7109.67  4.0700150E-02
   7110.00  5.0125660E-02
   7110.33  6.5345660E-02
   7110.67  8.9600435E-02
   7111.00  1.2472638E-01
   7111.33  1.6445643E-01
   7111.67  2.0452797E-01
   7112.00  2.4966996E-01
   7112.33  2.9454754E-01
   7112.67  3.2901029E-01
   7113.00  3.4146380E-01
   7113.33  3.3277875E-01
   7113.67  3.2752218E-01
   7114.00  3.2908886E-01
   7114.33  3.2612501E-01
   7114.67  3.1701810E-01
   7115.00  3.0633100E-01
   7115.33  2.9462614E-01
   7115.67  2.8492581E-01
   7116.00  2.8148727E-01
   7116.33  2.8587797E-01
   7116.67  2.9353969E-01
   7117.00  3.0220260E-01
   7117.33  3.1118206E-01
   7117.67  3.1452834E-01
   7118.00  3.0323053E-01
   7118.33  2.7489135E-01
   7118.67  2.4025009E-01
   7119.00  2.0594649E-01
   7119.33  1.7767931E-01
   7119.67  1.5632621E-01
   7120.00  1.4100775E-01
   7120.33  1.3066567E-01
   7120.67  1.2368583E-01
   7121.00  1.1977448E-01
   7121.33  1.1931499E-01
   7121.67  1.2192806E-01
   7122.00  1.2758694E-01
   7122.33  1.3661835E-01
   7122.67  1.4846883E-01
   7123.00  1.6283077E-01
   7123.33  1.7963753E-01
   7123.67  1.9863368E-01
   7124.00  2.2014945E-01
   7124.33  2.4487437E-01
   7124.67  2.7221392E-01
   7125.00  3.0135079E-01
   7125.33  3.3090811E-01
   7125.67  3.5927379E-01
   7126.00  3.8521318E-01
   7126.33  4.0718264E-01
   7126.67  4.2480321E-01
   7127.00  4.3745748E-01
   7127.33  4.4437790E-01
   7127.67  4.4732021E-01
   7128.00  4.4789832E-01
   7128.33  4.4791388E-01
   7128.67  4.4908701E-01
   7129.00  4.5277333E-01
   7129.33  4.6075641E-01
   7129.67  4.7315072E-01
   7130.00  4.8974263E-01
   7130.33  5.0995369E-01
   7130.67  5.3195814E-01
   7131.00  5.5446171E-01
   7131.33  5.7602531E-01
   7131.67  5.9579500E-01
   7132.00  6.1334610E-01
   7132.33  6.2843471E-01
   7132.67  6.4192984E-01
   7133.00  6.5472901E-01
   7133.33  6.6817718E-01
   7133.67  6.8329026E-01
   7134.00  7.0050172E-01
   7134.33  7.1994830E-01
   7134.67  7.4108756E-01
   7135.00  7.6386140E-01
   7135.33  7.8839185E-01
   7135.67  8.1358995E-01
   7136.00  8.3743437E-01
   7136.33  8.5559080E-01
   7136.67  8.6500999E-01
   7137.00  8.6419295E-01
   7137.33  8.5314486E-01
   7137.67  8.3633067E-01
   7138.00  8.1694814E-01
   7138.33  7.9795365E-01
   7138.67  7.8105642E-01
   7139.00  7.6698049E-01
   7139.33  7.5628195E-01
   7139.67  7.4822722E-01
   7140.00  7.4215587E-01
   7140.33  7.3706670E-01
   7140.67  7.3151799E-01
   7141.00  7.2438808E-01
   7141.33  7.1437751E-01
   7141.67  7.0142250E-01
   7142.00  6.8571242E-01
   7142.33  6.6765165E-01
   7142.67  6.4838060E-01
   7143.00  6.2863869E-01
   7143.33  6.0917514E-01
   7143.67  5.9049107E-01
   7144.00  5.7291173E-01
   7144.33  5.5686311E-01
   7144.67  5.4229608E-01
   7145.00  5.2921419E-01
   7145.33  5.1775371E-01
   7145.67  5.0768013E-01
   7146.00  4.9894164E-01
   7146.33  4.9162774E-01
   7146.67  4.8550426E-01
   7147.00  4.8050285E-01
   7147.33  4.7667120E-01
   7147.67  4.7379521E-01
   7148.00  4.7180126E-01
   7148.33  4.7069983E-01
   7148.67  4.7029937E-01
   7149.00  4.7051757E-01
   7149.33  4.7132159E-01
   7149.67  4.7255033E-01
   7150.00  4.7412581E-01
   7150.33  4.7599278E-01
   7150.67  4.7804096E-01
   7151.00  4.8022300E-01
   7151.33  4.8251357E-01
   7151.67  4.8487433E-01
   7152.00  4.8728459E-01
   7152.33  4.8972483E-01
   7152.67  4.9217446E-01
   7153.00  4.9461957E-01
   7153.33  4.9703918E-01
   7153.67  4.9941560E-01
   7154.00  5.0173050E-01
   7154.33  5.0395344E-01
   7154.67  5.0607641E-01
   7155.00  5.0808595E-01
   7155.33  5.0995463E-01
   7155.67  5.1169089E-01
   7156.00  5.1329230E-01
   7156.33  5.1474375E-01
   7156.67  5.1606744E-01
   7157.00  5.1727089E-01
   7157.33  5.1835207E-01
   7157.67  5.1933777E-01
   7158.00  5.2023963E-01
   7158.33  5.2106187E-01
   7158.67  5.2182526E-01
   7159.00  5.2253870E-01
   7159.33  5.2320577E-01
   7159.67  5.2383831E-01
   7160.00  5.2444000E-01
   7160.33  5.2500956E-01
   7160.67  5.2555179E-01
   7161.00  5.2606608E-01
   7161.33  5.2654412E-01
   7161.67  5.2698491E-01
   7162.00  5.2738414E-01
   7162.33  5.2773002E-01
   7162.67  5.2802073E-01
   7163.00  5.2824755E-01
   7163.33  5.2838796E-01
   7163.67  5.2843546E-01
   7164.00  5.2837340E-01
   7164.33  5.2816265E-01
   7164.67  5.2779561E-01
   7165.00  5.2725133E-01
   7165.33  5.2648124E-01
   7165.67  5.2548993E-01
   7166.00  5.2426254E-01
   7166.33  5.2275404E-01
   7166.67  5.2098636E-01
   7167.00  5.1895654E-01
   7167.33  5.1663571E-01
   7167.67  5.1406829E-01
   7168.00  5.1127347E-01
   7168.33  5.0825311E-01
   7168.67  5.0506251E-01
   7169.00  5.0173406E-01
   7169.33  4.9829922E-01
   7169.67  4.9481723E-01
   7170.00  4.9133194E-01
   7170.33  4.8790464E-01
   7170.67  4.8458850E-01
   7171.00  4.8144089E-01
   7171.33  4.7857485E-01
   7171.67  4.7607443E-01
   7172.00  4.7407027E-01
