    FDMNES
    energy     <xanes>
   7097.00  5.1316941E-03
   7097.33  5.2514181E-03
   7097.67  5.3765507E-03
   7098.00  5.5074600E-03
   7098.33  5.6454011E-03
   7098.67  5.7901216E-03
   7099.00  5.9421247E-03
   7099.33  6.1030565E-03
   7099.67  6.2726618E-03
   7100.00  6.4516485E-03
   7100.33  6.6422349E-03
   7100.67  6.8441917E-03
   7101.00  7.0585480E-03
   7101.33  7.2883931E-03
   7101.67  7.5335869E-03
   7102.00  7.7956864E-03
   7102.33  8.0791679E-03
   7102.67  8.3841240E-03
   7103.00  8.7130262E-03
   7103.33  9.0726880E-03
   7103.67  9.4637658E-03
   7104.00  9.8904250E-03
   7104.33  1.0363701E-02
   7104.67  1.0885628E-02
   7105.00  1.1463781E-02
   7105.33  1.2117530E-02
   7105.67  1.2852469E-02
   7106.00  1.3683820E-02
   7106.33  1.4649444E-02
   7106.67  1.5765111E-02
   7107.00  1.7065863E-02
   7107.33  1.8637703E-02
   7107.67  2.0530514E-02
   7108.00  2.2842332E-02
   7108.33  2.5816915E-02
   7108.67  2.9650748E-02
   7109.00  3.4713125E-02
   7109.33  4.1982111E-02
   7109.67  5.2584577E-02
   7110.00  6.8732538E-02
   7110.33  9.6921370E-02
   7110.67  1.4532936E-01
   7111.00  2.2075400E-01
   7111.33  2.9813702E-01
   7111.67  3.1826585E-01
   7112.00  2.8724436E-01
   7112.33  2.4201704E-01
   7112.67  2.0849165E-01
   7113.00  1.9850254E-01
   7113.33  2.0353707E-01
   7113.67  2.0164513E-01
   7114.00  1.8918781E-01
   7114.33  1.7960660E-01
   7114.67  1.8368575E-01
   7115.00  2.0727066E-01
   7115.33  2.5945876E-01
   7115.67  3.2768315E-01
   7116.00  3.7079518E-01
   7116.33  3.5459917E-01
   7116.67  3.3091093E-01
   7117.00  3.2371810E-01
   7117.33  3.1954712E-01
   7117.67  2.9719691E-01
   7118.00  2.5829558E-01
   7118.33  2.2133080E-01
   7118.67  1.9606987E-01
   7119.00  1.8074395E-01
   7119.33  1.6971505E-01
   7119.67  1.5966713E-01
   7120.00  1.5205279E-01
   7120.33  1.4914265E-01
   7120.67  1.5067510E-01
   7121.00  1.5633290E-01
   7121.33  1.6585851E-01
   7121.67  1.7792993E-01
   7122.00  1.9172836E-01
   7122.33  2.0654715E-01
   7122.67  2.2170957E-01
   7123.00  2.3651873E-01
   7123.33  2.4984542E-01
   7123.67  2.6156475E-01
   7124.00  2.7184363E-01
   7124.33  2.8106991E-01
   7124.67  2.9003413E-01
   7125.00  2.9899853E-01
   7125.33  3.0802216E-01
   7125.67  3.1742487E-01
   7126.00  3.2784289E-01
   7126.33  3.4035768E-01
   7126.67  3.5532139E-01
   7127.00  3.7295393E-01
   7127.33  3.9390617E-01
   7127.67  4.1848008E-01
   7128.00  4.4688331E-01
   7128.33  4.7784567E-01
   7128.67  5.0815250E-01
   7129.00  5.3620879E-01
   7129.33  5.6273273E-01
   7129.67  5.9026400E-01
   7130.00  6.2005454E-01
   7130.33  6.5182848E-01
   7130.67  6.8290476E-01
   7131.00  7.1052425E-01
   7131.33  7.3185834E-01
   7131.67  7.4781991E-01
   7132.00  7.6007500E-01
   7132.33  7.7026182E-01
   7132.67  7.7875193E-01
   7133.00  7.8429504E-01
   7133.33  7.8475612E-01
   7133.67  7.8025766E-01
   7134.00  7.7162013E-01
   7134.33  7.6038528E-01
   7134.67  7.4833774E-01
   7135.00  7.3591247E-01
   7135.33  7.2282712E-01
   7135.67  7.0873547E-01
   7136.00  6.9344433E-01
   7136.33  6.7701139E-01
   7136.67  6.6022519E-01
   7137.00  6.4394638E-01
   7137.33  6.2951685E-01
   7137.67  6.1780398E-01
   7138.00  6.0958776E-01
   7138.33  6.0609513E-01
   7138.67  6.0716250E-01
   7139.00  6.1261375E-01
   7139.33  6.2180040E-01
   7139.67  6.3235741E-01
   7140.00  6.4238361E-01
   7140.33  6.5004536E-01
   7140.67  6.5523453E-01
   7141.00  6.5840148E-01
   7141.33  6.6025605E-01
   7141.67  6.6170552E-01
   7142.00  6.6316355E-01
   7142.33  6.6485853E-01
   7142.67  6.6674095E-01
   7143.00  6.6867030E-01
   7143.33  6.7036070E-01
   7143.67  6.7150418E-01
   7144.00  6.7177785E-01
   7144.33  6.7065532E-01
   7144.67  6.6799372E-01
   7145.00  6.6365119E-01
   7145.33  6.5742842E-01
   7145.67  6.4972887E-01
   7146.00  6.4083009E-01
   7146.33  6.3101264E-01
   7146.67  6.2075556E-01
   7147.00  6.1033827E-01
   7147.33  6.0002268E-01
   7147.67  5.8996213E-01
   7148.00  5.8023735E-01
   7148.33  5.7093733E-01
   7148.67  5.6202121E-01
   7149.00  5.5347921E-01
   7149.33  5.4533421E-01
   7149.67  5.3751224E-01
   7150.00  5.2997935E-01
   7150.33  5.2271679E-01
   7150.67  5.1564376E-01
   7151.00  5.0871251E-01
   7151.33  5.0188239E-01
   7151.67  4.9512374E-01
   7152.00  4.8846479E-01
   7152.33  4.8202363E-01
   7152.67  4.7593504E-01
   7153.00  4.7037985E-01
   7153.33  4.6570253E-01
   7153.67  4.6207213E-01
   7154.00  4.5971113E-01
   7154.33  4.5902353E-01
   7154.67  4.5996915E-01
   7155.00  4.6260707E-01
   7155.33  4.6712791E-01
   7155.67  4.7320165E-01
   7156.00  4.8064600E-01
   7156.33  4.8930624E-01
   7156.67  4.9869652E-01
   7157.00  5.0848829E-01
   7157.33  5.1829408E-01
   7157.67  5.2773946E-01
   7158.00  5.3653182E-01
   7158.33  5.4425607E-01
   7158.67  5.5078997E-01
   7159.00  5.5597423E-01
   7159.33  5.5949573E-01
   7159.67  5.6147243E-01
   7160.00  5.6189534E-01
   7160.33  5.6061975E-01
   7160.67  5.5793371E-01
   7161.00  5.5396265E-01
   7161.33  5.4875548E-01
   7161.67  5.4267107E-01
   7162.00  5.3591845E-01
   7162.33  5.2869899E-01
   7162.67  5.2131505E-01
   7163.00  5.1396611E-01
   7163.33  5.0687943E-01
   7163.67  5.0018055E-01
   7164.00  4.9396653E-01
   7164.33  4.8837771E-01
   7164.67  4.8337310E-01
   7165.00  4.7895002E-01
   7165.33  4.7515353E-01
   7165.67  4.7187466E-01
   7166.00  4.6907248E-01
   7166.33  4.6674927E-01
   7166.67  4.6480092E-01
   7167.00  4.6318439E-01
   7167.33  4.6188504E-01
   7167.67  4.6081911E-01
   7168.00  4.5994695E-01
   7168.33  4.5924365E-01
   7168.67  4.5864986E-01
   7169.00  4.5813427E-01
   7169.33  4.5767237E-01
   7169.67  4.5723413E-01
   7170.00  4.5680156E-01
   7170.33  4.5635542E-01
   7170.67  4.5589131E-01
   7171.00  4.5541475E-01
   7171.33  4.5494225E-01
   7171.67  4.5450124E-01
   7172.00  4.5412464E-01
