    FDMNES
    energy     <xanes>
   7097.00  4.8664104E-03
   7097.33  4.9762659E-03
   7097.67  5.0909265E-03
   7098.00  5.2107099E-03
   7098.33  5.3367164E-03
   7098.67  5.4687093E-03
   7099.00  5.6071202E-03
   7099.33  5.7533810E-03
   7099.67  5.9072481E-03
   7100.00  6.0693239E-03
   7100.33  6.2415215E-03
   7100.67  6.4236119E-03
   7101.00  6.6164626E-03
   7101.33  6.8227113E-03
   7101.67  7.0421921E-03
   7102.00  7.2762028E-03
   7102.33  7.5285213E-03
   7102.67  7.7991530E-03
   7103.00  8.0901315E-03
   7103.33  8.4071278E-03
   7103.67  8.7505687E-03
   7104.00  9.1238282E-03
   7104.33  9.5359385E-03
   7104.67  9.9883542E-03
   7105.00  1.0487096E-02
   7105.33  1.1047696E-02
   7105.67  1.1674235E-02
   7106.00  1.2378537E-02
   7106.33  1.3190193E-02
   7106.67  1.4120670E-02
   7107.00  1.5196424E-02
   7107.33  1.6482576E-02
   7107.67  1.8014802E-02
   7108.00  1.9864645E-02
   7108.33  2.2209774E-02
   7108.67  2.5187365E-02
   7109.00  2.9057163E-02
   7109.33  3.4504088E-02
   7109.67  4.2297237E-02
   7110.00  5.3946797E-02
   7110.33  7.3849571E-02
   7110.67  1.0716152E-01
   7111.00  1.5603328E-01
   7111.33  1.9769291E-01
   7111.67  2.2020427E-01
   7112.00  2.5156618E-01
   7112.33  2.8533459E-01
   7112.67  2.9005345E-01
   7113.00  2.5415669E-01
   7113.33  2.0365239E-01
   7113.67  1.7431167E-01
   7114.00  1.6864533E-01
   7114.33  1.7758208E-01
   7114.67  1.8701191E-01
   7115.00  1.8682826E-01
   7115.33  1.7918928E-01
   7115.67  1.8400659E-01
   7116.00  2.1088260E-01
   7116.33  2.6342364E-01
   7116.67  3.1624166E-01
   7117.00  3.3417533E-01
   7117.33  3.1596300E-01
   7117.67  3.0041270E-01
   7118.00  2.9624061E-01
   7118.33  2.9849048E-01
   7118.67  2.9507156E-01
   7119.00  2.7289116E-01
   7119.33  2.3811906E-01
   7119.67  2.0812952E-01
   7120.00  1.8616189E-01
   7120.33  1.7092180E-01
   7120.67  1.5951965E-01
   7121.00  1.5093206E-01
   7121.33  1.4502266E-01
   7121.67  1.4153048E-01
   7122.00  1.4058507E-01
   7122.33  1.4274246E-01
   7122.67  1.4792346E-01
   7123.00  1.5628853E-01
   7123.33  1.6815218E-01
   7123.67  1.8273927E-01
   7124.00  1.9962204E-01
   7124.33  2.1885456E-01
   7124.67  2.3999572E-01
   7125.00  2.6209834E-01
   7125.33  2.8361989E-01
   7125.67  3.0384977E-01
   7126.00  3.2221800E-01
   7126.33  3.3711383E-01
   7126.67  3.4780222E-01
   7127.00  3.5413464E-01
   7127.33  3.5685923E-01
   7127.67  3.5870354E-01
   7128.00  3.6202506E-01
   7128.33  3.6966290E-01
   7128.67  3.8258193E-01
   7129.00  4.0121601E-01
   7129.33  4.2601473E-01
   7129.67  4.5542865E-01
   7130.00  4.8813609E-01
   7130.33  5.2201164E-01
   7130.67  5.5445483E-01
   7131.00  5.8430675E-01
   7131.33  6.1311090E-01
   7131.67  6.4580938E-01
   7132.00  6.8585199E-01
   7132.33  7.3282002E-01
   7132.67  7.7955686E-01
   7133.00  8.1930397E-01
   7133.33  8.4450797E-01
   7133.67  8.5507124E-01
   7134.00  8.5322415E-01
   7134.33  8.4354959E-01
   7134.67  8.3295155E-01
   7135.00  8.2528956E-01
   7135.33  8.2292792E-01
   7135.67  8.2406319E-01
   7136.00  8.2601179E-01
   7136.33  8.2493404E-01
   7136.67  8.1864804E-01
   7137.00  8.0626778E-01
   7137.33  7.8734729E-01
   7137.67  7.6381798E-01
   7138.00  7.3708764E-01
   7138.33  7.0874339E-01
   7138.67  6.8064473E-01
   7139.00  6.5402604E-01
   7139.33  6.3027711E-01
   7139.67  6.0969797E-01
   7140.00  5.9246989E-01
   7140.33  5.7885657E-01
   7140.67  5.6813333E-01
   7141.00  5.6002796E-01
   7141.33  5.5456764E-01
   7141.67  5.5122382E-01
   7142.00  5.4979092E-01
   7142.33  5.5019724E-01
   7142.67  5.5191024E-01
   7143.00  5.5461327E-01
   7143.33  5.5799862E-01
   7143.67  5.6163036E-01
   7144.00  5.6524775E-01
   7144.33  5.6859514E-01
   7144.67  5.7156491E-01
   7145.00  5.7410100E-01
   7145.33  5.7613659E-01
   7145.67  5.7775369E-01
   7146.00  5.7899157E-01
   7146.33  5.7986502E-01
   7146.67  5.8047419E-01
   7147.00  5.8087173E-01
   7147.33  5.8110259E-01
   7147.67  5.8125181E-01
   7148.00  5.8137957E-01
   7148.33  5.8156653E-01
   7148.67  5.8188315E-01
   7149.00  5.8239539E-01
   7149.33  5.8320873E-01
   7149.67  5.8434996E-01
   7150.00  5.8585567E-01
   7150.33  5.8779180E-01
   7150.67  5.9009602E-01
   7151.00  5.9272725E-01
   7151.33  5.9563640E-01
   7151.67  5.9868506E-01
   7152.00  6.0176874E-01
   7152.33  6.0474806E-01
   7152.67  6.0750496E-01
   7153.00  6.0993357E-01
   7153.33  6.1187053E-01
   7153.67  6.1328129E-01
   7154.00  6.1410522E-01
   7154.33  6.1421003E-01
   7154.67  6.1364284E-01
   7155.00  6.1239335E-01
   7155.33  6.1038789E-01
   7155.67  6.0772986E-01
   7156.00  6.0444742E-01
   7156.33  6.0051700E-01
   7156.67  5.9606062E-01
   7157.00  5.9112455E-01
   7157.33  5.8571692E-01
   7157.67  5.7995730E-01
   7158.00  5.7390761E-01
   7158.33  5.6761578E-01
   7158.67  5.6118498E-01
   7159.00  5.5468096E-01
   7159.33  5.4817898E-01
   7159.67  5.4175102E-01
   7160.00  5.3545552E-01
   7160.33  5.2937814E-01
   7160.67  5.2354815E-01
   7161.00  5.1800498E-01
   7161.33  5.1282631E-01
   7161.67  5.0799924E-01
   7162.00  5.0353961E-01
   7162.33  4.9950313E-01
   7162.67  4.9584155E-01
   7163.00  4.9254458E-01
   7163.33  4.8962875E-01
   7163.67  4.8701903E-01
   7164.00  4.8468368E-01
   7164.33  4.8260908E-01
   7164.67  4.8072274E-01
   7165.00  4.7898263E-01
   7165.33  4.7734198E-01
   7165.67  4.7573437E-01
   7166.00  4.7411795E-01
   7166.33  4.7244293E-01
   7166.67  4.7068060E-01
   7167.00  4.6880877E-01
   7167.33  4.6679636E-01
   7167.67  4.6465536E-01
   7168.00  4.6239212E-01
   7168.33  4.6001239E-01
   7168.67  4.5755825E-01
   7169.00  4.5506103E-01
   7169.33  4.5256231E-01
   7169.67  4.5010700E-01
   7170.00  4.4773367E-01
   7170.33  4.4550035E-01
   7170.67  4.4343001E-01
   7171.00  4.4155338E-01
   7171.33  4.3993304E-01
   7171.67  4.3857379E-01
   7172.00  4.3750521E-01
