    FDMNES
    energy     <xanes>
   7097.00  5.0429287E-03
   7097.33  5.1647224E-03
   7097.67  5.2921716E-03
   7098.00  5.4256657E-03
   7098.33  5.5665239E-03
   7098.67  5.7144867E-03
   7099.00  5.8700854E-03
   7099.33  6.0350502E-03
   7099.67  6.2091162E-03
   7100.00  6.3930274E-03
   7100.33  6.5891112E-03
   7100.67  6.7971235E-03
   7101.00  7.0181382E-03
   7101.33  7.2553813E-03
   7101.67  7.5086871E-03
   7102.00  7.7796620E-03
   7102.33  8.0729401E-03
   7102.67  8.3885622E-03
   7103.00  8.7290349E-03
   7103.33  9.1013117E-03
   7103.67  9.5059262E-03
   7104.00  9.9470006E-03
   7104.33  1.0435544E-02
   7104.67  1.0973263E-02
   7105.00  1.1567393E-02
   7105.33  1.2236603E-02
   7105.67  1.2985495E-02
   7106.00  1.3827895E-02
   7106.33  1.4798452E-02
   7106.67  1.5909549E-02
   7107.00  1.7190814E-02
   7107.33  1.8715103E-02
   7107.67  2.0518758E-02
   7108.00  2.2676625E-02
   7108.33  2.5373021E-02
   7108.67  2.8736149E-02
   7109.00  3.3010600E-02
   7109.33  3.8826279E-02
   7109.67  4.6818046E-02
   7110.00  5.8212037E-02
   7110.33  7.6444223E-02
   7110.67  1.0522181E-01
   7111.00  1.4746110E-01
   7111.33  2.0481702E-01
   7111.67  2.7624681E-01
   7112.00  3.4624099E-01
   7112.33  3.9316014E-01
   7112.67  4.2708262E-01
   7113.00  4.4629970E-01
   7113.33  4.3844638E-01
   7113.67  4.2343531E-01
   7114.00  3.9181137E-01
   7114.33  3.2433145E-01
   7114.67  2.5957888E-01
   7115.00  2.2020278E-01
   7115.33  2.1224490E-01
   7115.67  2.2746265E-01
   7116.00  2.5646488E-01
   7116.33  2.7655965E-01
   7116.67  2.7269831E-01
   7117.00  2.5071706E-01
   7117.33  2.2454741E-01
   7117.67  2.0177345E-01
   7118.00  1.8346750E-01
   7118.33  1.6955907E-01
   7118.67  1.5890989E-01
   7119.00  1.5131853E-01
   7119.33  1.4693936E-01
   7119.67  1.4437272E-01
   7120.00  1.4182285E-01
   7120.33  1.3751228E-01
   7120.67  1.3292678E-01
   7121.00  1.3023950E-01
   7121.33  1.3053963E-01
   7121.67  1.3262356E-01
   7122.00  1.3557213E-01
   7122.33  1.3880463E-01
   7122.67  1.4244625E-01
   7123.00  1.4703320E-01
   7123.33  1.5322052E-01
   7123.67  1.6089748E-01
   7124.00  1.6976842E-01
   7124.33  1.7909041E-01
   7124.67  1.8779399E-01
   7125.00  1.9536487E-01
   7125.33  2.0209669E-01
   7125.67  2.0953732E-01
   7126.00  2.1914210E-01
   7126.33  2.3232243E-01
   7126.67  2.4929079E-01
   7127.00  2.7046696E-01
   7127.33  2.9607028E-01
   7127.67  3.2377500E-01
   7128.00  3.5066391E-01
   7128.33  3.7292940E-01
   7128.67  3.9078548E-01
   7129.00  4.0682506E-01
   7129.33  4.2490046E-01
   7129.67  4.4664558E-01
   7130.00  4.7267726E-01
   7130.33  5.0432218E-01
   7130.67  5.4139418E-01
   7131.00  5.8388267E-01
   7131.33  6.3218697E-01
   7131.67  6.8527162E-01
   7132.00  7.4264224E-01
   7132.33  8.0406341E-01
   7132.67  8.6855805E-01
   7133.00  9.3588052E-01
   7133.33  1.0056914E+00
   7133.67  1.0751810E+00
   7134.00  1.1390536E+00
   7134.33  1.1846629E+00
   7134.67  1.2014405E+00
   7135.00  1.1827696E+00
   7135.33  1.1279507E+00
   7135.67  1.0534406E+00
   7136.00  9.7079607E-01
   7136.33  8.8961216E-01
   7136.67  8.1439315E-01
   7137.00  7.4660499E-01
   7137.33  6.8747164E-01
   7137.67  6.3568479E-01
   7138.00  5.9085108E-01
   7138.33  5.5338994E-01
   7138.67  5.2217816E-01
   7139.00  4.9699789E-01
   7139.33  4.7827006E-01
   7139.67  4.6482961E-01
   7140.00  4.5610315E-01
   7140.33  4.5166273E-01
   7140.67  4.4996593E-01
   7141.00  4.5010529E-01
   7141.33  4.5133381E-01
   7141.67  4.5299708E-01
   7142.00  4.5493345E-01
   7142.33  4.5727823E-01
   7142.67  4.6024873E-01
   7143.00  4.6409684E-01
   7143.33  4.6916876E-01
   7143.67  4.7538530E-01
   7144.00  4.8264868E-01
   7144.33  4.9074792E-01
   7144.67  4.9907348E-01
   7145.00  5.0702502E-01
   7145.33  5.1364878E-01
   7145.67  5.1834239E-01
   7146.00  5.2068602E-01
   7146.33  5.2034598E-01
   7146.67  5.1809690E-01
   7147.00  5.1463672E-01
   7147.33  5.1085324E-01
   7147.67  5.0758616E-01
   7148.00  5.0531124E-01
   7148.33  5.0447570E-01
   7148.67  5.0498513E-01
   7149.00  5.0678130E-01
   7149.33  5.0985908E-01
   7149.67  5.1388803E-01
   7150.00  5.1869706E-01
   7150.33  5.2416272E-01
   7150.67  5.3003114E-01
   7151.00  5.3616939E-01
   7151.33  5.4247739E-01
   7151.67  5.4886070E-01
   7152.00  5.5529309E-01
   7152.33  5.6180458E-01
   7152.67  5.6843520E-01
   7153.00  5.7521780E-01
   7153.33  5.8218822E-01
   7153.67  5.8931402E-01
   7154.00  5.9656517E-01
   7154.33  6.0389113E-01
   7154.67  6.1119103E-01
   7155.00  6.1834922E-01
   7155.33  6.2513932E-01
   7155.67  6.3136456E-01
   7156.00  6.3679503E-01
   7156.33  6.4103678E-01
   7156.67  6.4401239E-01
   7157.00  6.4561668E-01
   7157.33  6.4566319E-01
   7157.67  6.4442671E-01
   7158.00  6.4206677E-01
   7158.33  6.3870469E-01
   7158.67  6.3469452E-01
   7159.00  6.3022641E-01
   7159.33  6.2544702E-01
   7159.67  6.2052097E-01
   7160.00  6.1552000E-01
   7160.33  6.1048556E-01
   7160.67  6.0543680E-01
   7161.00  6.0037303E-01
   7161.33  5.9528673E-01
   7161.67  5.9017288E-01
   7162.00  5.8501787E-01
   7162.33  5.7979139E-01
   7162.67  5.7447556E-01
   7163.00  5.6904713E-01
   7163.33  5.6346145E-01
   7163.67  5.5771121E-01
   7164.00  5.5177980E-01
   7164.33  5.4563209E-01
   7164.67  5.3929219E-01
   7165.00  5.3276971E-01
   7165.33  5.2606500E-01
   7165.67  5.1922623E-01
   7166.00  5.1228062E-01
   7166.33  5.0525193E-01
   7166.67  4.9818234E-01
   7167.00  4.9109969E-01
   7167.33  4.8403643E-01
   7167.67  4.7701788E-01
   7168.00  4.7006554E-01
   7168.33  4.6321101E-01
   7168.67  4.5646096E-01
   7169.00  4.4983227E-01
   7169.33  4.4336845E-01
   7169.67  4.3707886E-01
   7170.00  4.3098965E-01
   7170.33  4.2516960E-01
   7170.67  4.1964162E-01
   7171.00  4.1446613E-01
   7171.33  4.0979988E-01
   7171.67  4.0574361E-01
   7172.00  4.0248173E-01
