    FDMNES
    energy     <xanes>
   7097.00  4.1816957E-03
   7097.33  4.2621595E-03
   7097.67  4.3456216E-03
   7098.00  4.4322595E-03
   7098.33  4.5227258E-03
   7098.67  4.6168466E-03
   7099.00  4.7148599E-03
   7099.33  4.8175976E-03
   7099.67  4.9248785E-03
   7100.00  5.0370307E-03
   7100.33  5.1551449E-03
   7100.67  5.2790438E-03
   7101.00  5.4091963E-03
   7101.33  5.5470814E-03
   7101.67  5.6925524E-03
   7102.00  5.8463078E-03
   7102.33  6.0104389E-03
   7102.67  6.1848906E-03
   7103.00  6.3707584E-03
   7103.33  6.5711569E-03
   7103.67  6.7862658E-03
   7104.00  7.0179149E-03
   7104.33  7.2710593E-03
   7104.67  7.5464672E-03
   7105.00  7.8474482E-03
   7105.33  8.1825856E-03
   7105.67  8.5541877E-03
   7106.00  8.9688912E-03
   7106.33  9.4433376E-03
   7106.67  9.9842741E-03
   7107.00  1.0606995E-02
   7107.33  1.1349190E-02
   7107.67  1.2232594E-02
   7108.00  1.3300191E-02
   7108.33  1.4659141E-02
   7108.67  1.6396303E-02
   7109.00  1.8675472E-02
   7109.33  2.1932629E-02
   7109.67  2.6677294E-02
   7110.00  3.3912465E-02
   7110.33  4.6543960E-02
   7110.67  6.7656504E-02
   7111.00  9.7650493E-02
   7111.33  1.2492736E-01
   7111.67  1.3525546E-01
   7112.00  1.2972950E-01
   7112.33  1.2396728E-01
   7112.67  1.2576417E-01
   7113.00  1.2966357E-01
   7113.33  1.2309874E-01
   7113.67  1.0325638E-01
   7114.00  8.0790299E-02
   7114.33  6.5424333E-02
   7114.67  5.4664153E-02
   7115.00  4.7153876E-02
   7115.33  4.3113597E-02
   7115.67  4.1518201E-02
   7116.00  4.1889614E-02
   7116.33  4.4225904E-02
   7116.67  4.8311996E-02
   7117.00  5.4159466E-02
   7117.33  6.1668246E-02
   7117.67  6.9953078E-02
   7118.00  7.8634028E-02
   7118.33  8.8070562E-02
   7118.67  9.8537186E-02
   7119.00  1.0994870E-01
   7119.33  1.2150514E-01
   7119.67  1.3171644E-01
   7120.00  1.3950330E-01
   7120.33  1.4455218E-01
   7120.67  1.4858076E-01
   7121.00  1.5327978E-01
   7121.33  1.6069072E-01
   7121.67  1.7172900E-01
   7122.00  1.8693089E-01
   7122.33  2.0650607E-01
   7122.67  2.2849075E-01
   7123.00  2.5099277E-01
   7123.33  2.7185111E-01
   7123.67  2.8926093E-01
   7124.00  3.0032504E-01
   7124.33  3.0207119E-01
   7124.67  3.0029334E-01
   7125.00  3.0123913E-01
   7125.33  3.0989318E-01
   7125.67  3.2683890E-01
   7126.00  3.5253757E-01
   7126.33  3.8785352E-01
   7126.67  4.3023273E-01
   7127.00  4.7706255E-01
   7127.33  5.2409477E-01
   7127.67  5.6748334E-01
   7128.00  6.0573390E-01
   7128.33  6.3868305E-01
   7128.67  6.6850364E-01
   7129.00  6.9638424E-01
   7129.33  7.2122895E-01
   7129.67  7.3898085E-01
   7130.00  7.4495782E-01
   7130.33  7.3660381E-01
   7130.67  7.2096657E-01
   7131.00  7.0433121E-01
   7131.33  6.9246641E-01
   7131.67  6.8733558E-01
   7132.00  6.8969069E-01
   7132.33  7.0030865E-01
   7132.67  7.1690725E-01
   7133.00  7.3739271E-01
   7133.33  7.5873000E-01
   7133.67  7.7734299E-01
   7134.00  7.9055621E-01
   7134.33  7.9611509E-01
   7134.67  7.9599658E-01
   7135.00  7.9224274E-01
   7135.33  7.8618156E-01
   7135.67  7.7805425E-01
   7136.00  7.6749533E-01
   7136.33  7.5476165E-01
   7136.67  7.4156523E-01
   7137.00  7.2935149E-01
   7137.33  7.1976037E-01
   7137.67  7.1327545E-01
   7138.00  7.1009342E-01
   7138.33  7.1039058E-01
   7138.67  7.1326336E-01
   7139.00  7.1813032E-01
   7139.33  7.2434520E-01
   7139.67  7.3083675E-01
   7140.00  7.3675559E-01
   7140.33  7.4099754E-01
   7140.67  7.4308371E-01
   7141.00  7.4272292E-01
   7141.33  7.3954539E-01
   7141.67  7.3397374E-01
   7142.00  7.2613436E-01
   7142.33  7.1590638E-01
   7142.67  7.0372501E-01
   7143.00  6.8977945E-01
   7143.33  6.7416203E-01
   7143.67  6.5738121E-01
   7144.00  6.3971733E-01
   7144.33  6.2139038E-01
   7144.67  6.0272027E-01
   7145.00  5.8389160E-01
   7145.33  5.6512630E-01
   7145.67  5.4667010E-01
   7146.00  5.2879097E-01
   7146.33  5.1198052E-01
   7146.67  4.9652333E-01
   7147.00  4.8274020E-01
   7147.33  4.7116790E-01
   7147.67  4.6172026E-01
   7148.00  4.5440750E-01
   7148.33  4.4933974E-01
   7148.67  4.4600191E-01
   7149.00  4.4411252E-01
   7149.33  4.4347580E-01
   7149.67  4.4366431E-01
   7150.00  4.4448917E-01
   7150.33  4.4584250E-01
   7150.67  4.4753773E-01
   7151.00  4.4948714E-01
   7151.33  4.5158577E-01
   7151.67  4.5364440E-01
   7152.00  4.5548008E-01
   7152.33  4.5680623E-01
   7152.67  4.5745599E-01
   7153.00  4.5725901E-01
   7153.33  4.5593620E-01
   7153.67  4.5352718E-01
   7154.00  4.5002136E-01
   7154.33  4.4534603E-01
   7154.67  4.3974993E-01
   7155.00  4.3337256E-01
   7155.33  4.2632663E-01
   7155.67  4.1887659E-01
   7156.00  4.1117429E-01
   7156.33  4.0335997E-01
   7156.67  3.9556822E-01
   7157.00  3.8787992E-01
   7157.33  3.8038682E-01
   7157.67  3.7311860E-01
   7158.00  3.6610673E-01
   7158.33  3.5940920E-01
   7158.67  3.5300411E-01
   7159.00  3.4689559E-01
   7159.33  3.4111663E-01
   7159.67  3.3562269E-01
   7160.00  3.3040913E-01
   7160.33  3.2551429E-01
   7160.67  3.2091820E-01
   7161.00  3.1664814E-01
   7161.33  3.1280183E-01
   7161.67  3.0940072E-01
   7162.00  3.0651128E-01
   7162.33  3.0428825E-01
   7162.67  3.0273728E-01
   7163.00  3.0192149E-01
   7163.33  3.0200116E-01
   7163.67  3.0292014E-01
   7164.00  3.0470063E-01
   7164.33  3.0745928E-01
   7164.67  3.1107669E-01
   7165.00  3.1553036E-01
   7165.33  3.2088065E-01
   7165.67  3.2697634E-01
   7166.00  3.3376437E-01
   7166.33  3.4125195E-01
   7166.67  3.4928245E-01
   7167.00  3.5778219E-01
   7167.33  3.6670752E-01
   7167.67  3.7591600E-01
   7168.00  3.8532358E-01
   7168.33  3.9484529E-01
   7168.67  4.0437335E-01
   7169.00  4.1382811E-01
   7169.33  4.2309626E-01
   7169.67  4.3210704E-01
   7170.00  4.4078554E-01
   7170.33  4.4899659E-01
   7170.67  4.5670791E-01
   7171.00  4.6383876E-01
   7171.33  4.7017886E-01
   7171.67  4.7562779E-01
   7172.00  4.7996437E-01
