    FDMNES
    energy     <xanes>
   7097.00  4.2897040E-03
   7097.33  4.3848980E-03
   7097.67  4.4842865E-03
   7098.00  4.5881586E-03
   7098.33  4.6974952E-03
   7098.67  4.8121077E-03
   7099.00  4.9323957E-03
   7099.33  5.0596554E-03
   7099.67  5.1937021E-03
   7100.00  5.3351048E-03
   7100.33  5.4856275E-03
   7100.67  5.6451161E-03
   7101.00  5.8144097E-03
   7101.33  5.9959945E-03
   7101.67  6.1898065E-03
   7102.00  6.3971339E-03
   7102.33  6.6216320E-03
   7102.67  6.8634575E-03
   7103.00  7.1246890E-03
   7103.33  7.4109818E-03
   7103.67  7.7230157E-03
   7104.00  8.0643511E-03
   7104.33  8.4443110E-03
   7104.67  8.8648365E-03
   7105.00  9.3325036E-03
   7105.33  9.8639687E-03
   7105.67  1.0464405E-02
   7106.00  1.1147201E-02
   7106.33  1.1945436E-02
   7106.67  1.2873460E-02
   7107.00  1.3962377E-02
   7107.33  1.5288208E-02
   7107.67  1.6895870E-02
   7108.00  1.8872721E-02
   7108.33  2.1435498E-02
   7108.67  2.4759921E-02
   7109.00  2.9175379E-02
   7109.33  3.5554642E-02
   7109.67  4.4907842E-02
   7110.00  5.9216768E-02
   7110.33  8.4207050E-02
   7110.67  1.2595443E-01
   7111.00  1.8499136E-01
   7111.33  2.3601352E-01
   7111.67  2.6577382E-01
   7112.00  2.9890122E-01
   7112.33  3.2846331E-01
   7112.67  3.1808509E-01
   7113.00  2.6339337E-01
   7113.33  1.9501731E-01
   7113.67  1.4375889E-01
   7114.00  1.1141807E-01
   7114.33  9.3585081E-02
   7114.67  8.4736112E-02
   7115.00  8.2915893E-02
   7115.33  8.1941749E-02
   7115.67  7.4058776E-02
   7116.00  6.2395340E-02
   7116.33  5.3378301E-02
   7116.67  4.7384950E-02
   7117.00  4.3527198E-02
   7117.33  4.1215225E-02
   7117.67  3.9871785E-02
   7118.00  3.9292773E-02
   7118.33  3.9401602E-02
   7118.67  4.0034436E-02
   7119.00  4.1150100E-02
   7119.33  4.2768401E-02
   7119.67  4.4775748E-02
   7120.00  4.7087525E-02
   7120.33  4.9640891E-02
   7120.67  5.2427860E-02
   7121.00  5.5572283E-02
   7121.33  5.9346091E-02
   7121.67  6.3878750E-02
   7122.00  6.9330370E-02
   7122.33  7.6037553E-02
   7122.67  8.4108248E-02
   7123.00  9.3823036E-02
   7123.33  1.0585094E-01
   7123.67  1.2043012E-01
   7124.00  1.3802831E-01
   7124.33  1.5962609E-01
   7124.67  1.8511595E-01
   7125.00  2.1433927E-01
   7125.33  2.4691646E-01
   7125.67  2.8223480E-01
   7126.00  3.2120540E-01
   7126.33  3.6535010E-01
   7126.67  4.1273071E-01
   7127.00  4.5924105E-01
   7127.33  4.9661126E-01
   7127.67  5.1757827E-01
   7128.00  5.1846312E-01
   7128.33  5.0974976E-01
   7128.67  5.1445016E-01
   7129.00  5.4230376E-01
   7129.33  5.9281757E-01
   7129.67  6.5376372E-01
   7130.00  7.1633269E-01
   7130.33  7.7122485E-01
   7130.67  8.1423481E-01
   7131.00  8.4440379E-01
   7131.33  8.6285315E-01
   7131.67  8.7508598E-01
   7132.00  8.8393096E-01
   7132.33  8.9014917E-01
   7132.67  8.9373333E-01
   7133.00  8.9456582E-01
   7133.33  8.9236665E-01
   7133.67  8.8770289E-01
   7134.00  8.8163452E-01
   7134.33  8.7672189E-01
   7134.67  8.7523130E-01
   7135.00  8.7814037E-01
   7135.33  8.8534529E-01
   7135.67  8.9360948E-01
   7136.00  8.9888556E-01
   7136.33  8.9592760E-01
   7136.67  8.8491519E-01
   7137.00  8.6790801E-01
   7137.33  8.4750414E-01
   7137.67  8.2619879E-01
   7138.00  8.0501403E-01
   7138.33  7.8462761E-01
   7138.67  7.6518326E-01
   7139.00  7.4673995E-01
   7139.33  7.2941690E-01
   7139.67  7.1305257E-01
   7140.00  6.9760968E-01
   7140.33  6.8315824E-01
   7140.67  6.6955824E-01
   7141.00  6.5679572E-01
   7141.33  6.4496984E-01
   7141.67  6.3397497E-01
   7142.00  6.2380894E-01
   7142.33  6.1457875E-01
   7142.67  6.0619456E-01
   7143.00  5.9869148E-01
   7143.33  5.9227461E-01
   7143.67  5.8689719E-01
   7144.00  5.8260315E-01
   7144.33  5.7958460E-01
   7144.67  5.7774560E-01
   7145.00  5.7711316E-01
   7145.33  5.7784602E-01
   7145.67  5.7976411E-01
   7146.00  5.8280801E-01
   7146.33  5.8698520E-01
   7146.67  5.9198844E-01
   7147.00  5.9760379E-01
   7147.33  6.0354460E-01
   7147.67  6.0937818E-01
   7148.00  6.1472151E-01
   7148.33  6.1900067E-01
   7148.67  6.2192904E-01
   7149.00  6.2325438E-01
   7149.33  6.2262900E-01
   7149.67  6.2030182E-01
   7150.00  6.1639107E-01
   7150.33  6.1091557E-01
   7150.67  6.0425030E-01
   7151.00  5.9655200E-01
   7151.33  5.8786084E-01
   7151.67  5.7840045E-01
   7152.00  5.6824307E-01
   7152.33  5.5737377E-01
   7152.67  5.4592521E-01
   7153.00  5.3394237E-01
   7153.33  5.2142176E-01
   7153.67  5.0848575E-01
   7154.00  4.9519329E-01
   7154.33  4.8158122E-01
   7154.67  4.6776111E-01
   7155.00  4.5380492E-01
   7155.33  4.3978924E-01
   7155.67  4.2579763E-01
   7156.00  4.1189663E-01
   7156.33  3.9818716E-01
   7156.67  3.8473158E-01
   7157.00  3.7160379E-01
   7157.33  3.5894280E-01
   7157.67  3.4679195E-01
   7158.00  3.3524019E-01
   7158.33  3.2447703E-01
   7158.67  3.1451040E-01
   7159.00  3.0541565E-01
   7159.33  2.9738699E-01
   7159.67  2.9036441E-01
   7160.00  2.8438103E-01
   7160.33  2.7958393E-01
   7160.67  2.7583126E-01
   7161.00  2.7309628E-01
   7161.33  2.7145128E-01
   7161.67  2.7071012E-01
   7162.00  2.7080300E-01
   7162.33  2.7172913E-01
   7162.67  2.7329204E-01
   7163.00  2.7539033E-01
   7163.33  2.7795993E-01
   7163.67  2.8083647E-01
   7164.00  2.8392512E-01
   7164.33  2.8713403E-01
   7164.67  2.9035795E-01
   7165.00  2.9353348E-01
   7165.33  2.9659474E-01
   7165.67  2.9952026E-01
   7166.00  3.0229367E-01
   7166.33  3.0489898E-01
   7166.67  3.0737536E-01
   7167.00  3.0974742E-01
   7167.33  3.1204144E-01
   7167.67  3.1430623E-01
   7168.00  3.1657774E-01
   7168.33  3.1890304E-01
   7168.67  3.2131436E-01
   7169.00  3.2384062E-01
   7169.33  3.2652712E-01
   7169.67  3.2937507E-01
   7170.00  3.3239247E-01
   7170.33  3.3559664E-01
   7170.67  3.3894286E-01
   7171.00  3.4238449E-01
   7171.33  3.4581131E-01
   7171.67  3.4901076E-01
   7172.00  3.5169198E-01
