    FDMNES
    energy     <xanes>
   7097.00  4.6678537E-03
   7097.33  4.7772327E-03
   7097.67  4.8917272E-03
   7098.00  5.0117012E-03
   7098.33  5.1383698E-03
   7098.67  5.2715168E-03
   7099.00  5.4116465E-03
   7099.33  5.5603723E-03
   7099.67  5.7174838E-03
   7100.00  5.8836998E-03
   7100.33  6.0612244E-03
   7100.67  6.2498861E-03
   7101.00  6.4507439E-03
   7101.33  6.6669122E-03
   7101.67  6.8983309E-03
   7102.00  7.1466227E-03
   7102.33  7.4163698E-03
   7102.67  7.7077827E-03
   7103.00  8.0234695E-03
   7103.33  8.3705101E-03
   7103.67  8.7497517E-03
   7104.00  9.1656361E-03
   7104.33  9.6297881E-03
   7104.67  1.0144579E-02
   7105.00  1.0718146E-02
   7105.33  1.1371109E-02
   7105.67  1.2109710E-02
   7106.00  1.2950328E-02
   7106.33  1.3933466E-02
   7106.67  1.5076207E-02
   7107.00  1.6416028E-02
   7107.33  1.8044499E-02
   7107.67  2.0014207E-02
   7108.00  2.2428184E-02
   7108.33  2.5541395E-02
   7108.67  2.9554802E-02
   7109.00  3.4845630E-02
   7109.33  4.2407057E-02
   7109.67  5.3358986E-02
   7110.00  6.9887869E-02
   7110.33  9.8226706E-02
   7110.67  1.4457858E-01
   7111.00  2.0897827E-01
   7111.33  2.7544997E-01
   7111.67  3.4389724E-01
   7112.00  4.1460729E-01
   7112.33  4.4900777E-01
   7112.67  4.1638569E-01
   7113.00  3.3879339E-01
   7113.33  2.6361339E-01
   7113.67  2.0725659E-01
   7114.00  1.6851507E-01
   7114.33  1.4428091E-01
   7114.67  1.2711994E-01
   7115.00  1.1197599E-01
   7115.33  9.7325986E-02
   7115.67  8.5166688E-02
   7116.00  7.6343886E-02
   7116.33  7.0964937E-02
   7116.67  6.8088737E-02
   7117.00  6.7331526E-02
   7117.33  6.8615836E-02
   7117.67  7.1462128E-02
   7118.00  7.5556892E-02
   7118.33  8.0575125E-02
   7118.67  8.6010213E-02
   7119.00  9.1582989E-02
   7119.33  9.7504234E-02
   7119.67  1.0404301E-01
   7120.00  1.1046069E-01
   7120.33  1.1488590E-01
   7120.67  1.1780195E-01
   7121.00  1.2115437E-01
   7121.33  1.2733041E-01
   7121.67  1.3709535E-01
   7122.00  1.5091986E-01
   7122.33  1.6983643E-01
   7122.67  1.9398493E-01
   7123.00  2.2416015E-01
   7123.33  2.6158579E-01
   7123.67  3.0404476E-01
   7124.00  3.4844635E-01
   7124.33  3.9023928E-01
   7124.67  4.2684432E-01
   7125.00  4.5735222E-01
   7125.33  4.8092418E-01
   7125.67  4.9857197E-01
   7126.00  5.1032090E-01
   7126.33  5.1500316E-01
   7126.67  5.1317471E-01
   7127.00  5.0528869E-01
   7127.33  4.9219132E-01
   7127.67  4.7654412E-01
   7128.00  4.6025103E-01
   7128.33  4.4543497E-01
   7128.67  4.3339123E-01
   7129.00  4.2482245E-01
   7129.33  4.2009421E-01
   7129.67  4.1766958E-01
   7130.00  4.1608359E-01
   7130.33  4.1389897E-01
   7130.67  4.1081789E-01
   7131.00  4.0718950E-01
   7131.33  4.0368045E-01
   7131.67  4.0080130E-01
   7132.00  3.9875801E-01
   7132.33  3.9766121E-01
   7132.67  3.9734678E-01
   7133.00  3.9786330E-01
   7133.33  3.9951885E-01
   7133.67  4.0227423E-01
   7134.00  4.0595859E-01
   7134.33  4.1021846E-01
   7134.67  4.1459373E-01
   7135.00  4.1893531E-01
   7135.33  4.2345333E-01
   7135.67  4.2872874E-01
   7136.00  4.3549476E-01
   7136.33  4.4497038E-01
   7136.67  4.5766556E-01
   7137.00  4.7407162E-01
   7137.33  4.9489874E-01
   7137.67  5.1939505E-01
   7138.00  5.4691394E-01
   7138.33  5.7647788E-01
   7138.67  6.0632427E-01
   7139.00  6.3507568E-01
   7139.33  6.6104098E-01
   7139.67  6.8361752E-01
   7140.00  7.0245729E-01
   7140.33  7.1711243E-01
   7140.67  7.2835136E-01
   7141.00  7.3653738E-01
   7141.33  7.4178919E-01
   7141.67  7.4484892E-01
   7142.00  7.4603980E-01
   7142.33  7.4552379E-01
   7142.67  7.4383875E-01
   7143.00  7.4129629E-01
   7143.33  7.3819665E-01
   7143.67  7.3488074E-01
   7144.00  7.3151190E-01
   7144.33  7.2828057E-01
   7144.67  7.2534092E-01
   7145.00  7.2281991E-01
   7145.33  7.2089877E-01
   7145.67  7.1958355E-01
   7146.00  7.1890156E-01
   7146.33  7.1892450E-01
   7146.67  7.1953421E-01
   7147.00  7.2067907E-01
   7147.33  7.2234701E-01
   7147.67  7.2440528E-01
   7148.00  7.2678805E-01
   7148.33  7.2945080E-01
   7148.67  7.3228043E-01
   7149.00  7.3518871E-01
   7149.33  7.3805229E-01
   7149.67  7.4075157E-01
   7150.00  7.4318109E-01
   7150.33  7.4517756E-01
   7150.67  7.4668558E-01
   7151.00  7.4762566E-01
   7151.33  7.4783374E-01
   7151.67  7.4731787E-01
   7152.00  7.4602239E-01
   7152.33  7.4378807E-01
   7152.67  7.4067912E-01
   7153.00  7.3667643E-01
   7153.33  7.3166668E-01
   7153.67  7.2578417E-01
   7154.00  7.1906541E-01
   7154.33  7.1146980E-01
   7154.67  7.0316010E-01
   7155.00  6.9419447E-01
   7155.33  6.8456600E-01
   7155.67  6.7441285E-01
   7156.00  6.6378838E-01
   7156.33  6.5270025E-01
   7156.67  6.4125803E-01
   7157.00  6.2951276E-01
   7157.33  6.1749526E-01
   7157.67  6.0529901E-01
   7158.00  5.9297940E-01
   7158.33  5.8059291E-01
   7158.67  5.6821417E-01
   7159.00  5.5590551E-01
   7159.33  5.4375767E-01
   7159.67  5.3182081E-01
   7160.00  5.2014775E-01
   7160.33  5.0883403E-01
   7160.67  4.9789108E-01
   7161.00  4.8736049E-01
   7161.33  4.7734123E-01
   7161.67  4.6780976E-01
   7162.00  4.5878691E-01
   7162.33  4.5035191E-01
   7162.67  4.4244120E-01
   7163.00  4.3504860E-01
   7163.33  4.2822469E-01
   7163.67  4.2189305E-01
   7164.00  4.1604534E-01
   7164.33  4.1073671E-01
   7164.67  4.0590801E-01
   7165.00  4.0156258E-01
   7165.33  3.9776449E-01
   7165.67  3.9445327E-01
   7166.00  3.9162584E-01
   7166.33  3.8933324E-01
   7166.67  3.8750293E-01
   7167.00  3.8612090E-01
   7167.33  3.8522227E-01
   7167.67  3.8473341E-01
   7168.00  3.8463722E-01
   7168.33  3.8496069E-01
   7168.67  3.8563785E-01
   7169.00  3.8665178E-01
   7169.33  3.8802040E-01
   7169.67  3.8967873E-01
   7170.00  3.9160014E-01
   7170.33  3.9377416E-01
   7170.67  3.9612174E-01
   7171.00  3.9858269E-01
   7171.33  4.0105189E-01
   7171.67  4.0335010E-01
   7172.00  4.0525134E-01
