    FDMNES
    energy     <xanes>
   7097.00  5.0872077E-03
   7097.33  5.2129508E-03
   7097.67  5.3446837E-03
   7098.00  5.4828287E-03
   7098.33  5.6288010E-03
   7098.67  5.7823401E-03
   7099.00  5.9440267E-03
   7099.33  6.1157293E-03
   7099.67  6.2971876E-03
   7100.00  6.4892210E-03
   7100.33  6.6943636E-03
   7100.67  6.9123870E-03
   7101.00  7.1444850E-03
   7101.33  7.3942021E-03
   7101.67  7.6614136E-03
   7102.00  7.9479233E-03
   7102.33  8.2588781E-03
   7102.67  8.5944132E-03
   7103.00  8.9573778E-03
   7103.33  9.3555920E-03
   7103.67  9.7898053E-03
   7104.00  1.0264769E-02
   7104.33  1.0793051E-02
   7104.67  1.1376861E-02
   7105.00  1.2024679E-02
   7105.33  1.2758205E-02
   7105.67  1.3583284E-02
   7106.00  1.4516447E-02
   7106.33  1.5598859E-02
   7106.67  1.6846277E-02
   7107.00  1.8294991E-02
   7107.33  2.0033930E-02
   7107.67  2.2109963E-02
   7108.00  2.4617512E-02
   7108.33  2.7789139E-02
   7108.67  3.1793840E-02
   7109.00  3.6951024E-02
   7109.33  4.4086690E-02
   7109.67  5.4059502E-02
   7110.00  6.8527412E-02
   7110.33  9.2178660E-02
   7110.67  1.3033836E-01
   7111.00  1.8776793E-01
   7111.33  2.6588532E-01
   7111.67  3.5818127E-01
   7112.00  4.4194082E-01
   7112.33  4.8344748E-01
   7112.67  4.8118567E-01
   7113.00  4.1967644E-01
   7113.33  3.4395807E-01
   7113.67  2.9759445E-01
   7114.00  2.8193220E-01
   7114.33  2.9086269E-01
   7114.67  3.0435580E-01
   7115.00  3.0475512E-01
   7115.33  2.8732654E-01
   7115.67  2.6682146E-01
   7116.00  2.4752469E-01
   7116.33  2.2519512E-01
   7116.67  2.0243405E-01
   7117.00  1.8345234E-01
   7117.33  1.7018380E-01
   7117.67  1.6107302E-01
   7118.00  1.5481959E-01
   7118.33  1.5017559E-01
   7118.67  1.4612442E-01
   7119.00  1.4239191E-01
   7119.33  1.3882408E-01
   7119.67  1.3526532E-01
   7120.00  1.3167697E-01
   7120.33  1.2821502E-01
   7120.67  1.2523100E-01
   7121.00  1.2319739E-01
   7121.33  1.2300466E-01
   7121.67  1.2489740E-01
   7122.00  1.2873144E-01
   7122.33  1.3383315E-01
   7122.67  1.3908682E-01
   7123.00  1.4439676E-01
   7123.33  1.5087985E-01
   7123.67  1.5941747E-01
   7124.00  1.7026265E-01
   7124.33  1.8362388E-01
   7124.67  1.9934978E-01
   7125.00  2.1770802E-01
   7125.33  2.3911299E-01
   7125.67  2.6253860E-01
   7126.00  2.8654411E-01
   7126.33  3.0862761E-01
   7126.67  3.2709958E-01
   7127.00  3.4153781E-01
   7127.33  3.5315655E-01
   7127.67  3.6524740E-01
   7128.00  3.8011297E-01
   7128.33  3.9931886E-01
   7128.67  4.2191870E-01
   7129.00  4.4724043E-01
   7129.33  4.7506237E-01
   7129.67  5.0459675E-01
   7130.00  5.3583428E-01
   7130.33  5.7025630E-01
   7130.67  6.0841383E-01
   7131.00  6.4979947E-01
   7131.33  6.9266858E-01
   7131.67  7.3418922E-01
   7132.00  7.7195658E-01
   7132.33  8.0286464E-01
   7132.67  8.2637957E-01
   7133.00  8.4248185E-01
   7133.33  8.5154540E-01
   7133.67  8.5620239E-01
   7134.00  8.5791034E-01
   7134.33  8.5720313E-01
   7134.67  8.5393962E-01
   7135.00  8.4711430E-01
   7135.33  8.3493079E-01
   7135.67  8.1731143E-01
   7136.00  7.9424005E-01
   7136.33  7.6565807E-01
   7136.67  7.3322661E-01
   7137.00  6.9817756E-01
   7137.33  6.6215761E-01
   7137.67  6.2723516E-01
   7138.00  5.9506752E-01
   7138.33  5.6780167E-01
   7138.67  5.4587226E-01
   7139.00  5.2952159E-01
   7139.33  5.1905779E-01
   7139.67  5.1302524E-01
   7140.00  5.1057706E-01
   7140.33  5.1105768E-01
   7140.67  5.1329094E-01
   7141.00  5.1670106E-01
   7141.33  5.2088218E-01
   7141.67  5.2543472E-01
   7142.00  5.3020026E-01
   7142.33  5.3508149E-01
   7142.67  5.3999413E-01
   7143.00  5.4488371E-01
   7143.33  5.4965852E-01
   7143.67  5.5422498E-01
   7144.00  5.5848119E-01
   7144.33  5.6228479E-01
   7144.67  5.6561951E-01
   7145.00  5.6844307E-01
   7145.33  5.7069416E-01
   7145.67  5.7250752E-01
   7146.00  5.7399459E-01
   7146.33  5.7530388E-01
   7146.67  5.7663265E-01
   7147.00  5.7811698E-01
   7147.33  5.7991052E-01
   7147.67  5.8204498E-01
   7148.00  5.8453360E-01
   7148.33  5.8738942E-01
   7148.67  5.9050863E-01
   7149.00  5.9381847E-01
   7149.33  5.9723831E-01
   7149.67  6.0066669E-01
   7150.00  6.0404051E-01
   7150.33  6.0729581E-01
   7150.67  6.1041288E-01
   7151.00  6.1337267E-01
   7151.33  6.1614038E-01
   7151.67  6.1873112E-01
   7152.00  6.2114331E-01
   7152.33  6.2335604E-01
   7152.67  6.2539502E-01
   7153.00  6.2726378E-01
   7153.33  6.2894521E-01
   7153.67  6.3046161E-01
   7154.00  6.3181074E-01
   7154.33  6.3296362E-01
   7154.67  6.3392965E-01
   7155.00  6.3469392E-01
   7155.33  6.3520725E-01
   7155.67  6.3547296E-01
   7156.00  6.3546740E-01
   7156.33  6.3512230E-01
   7156.67  6.3444176E-01
   7157.00  6.3339374E-01
   7157.33  6.3188826E-01
   7157.67  6.2993885E-01
   7158.00  6.2751610E-01
   7158.33  6.2452881E-01
   7158.67  6.2102236E-01
   7159.00  6.1699439E-01
   7159.33  6.1239712E-01
   7159.67  6.0733044E-01
   7160.00  6.0183866E-01
   7160.33  5.9593590E-01
   7160.67  5.8973258E-01
   7161.00  5.8328549E-01
   7161.33  5.7663705E-01
   7161.67  5.6986920E-01
   7162.00  5.6302538E-01
   7162.33  5.5614161E-01
   7162.67  5.4925203E-01
   7163.00  5.4237382E-01
   7163.33  5.3552128E-01
   7163.67  5.2869598E-01
   7164.00  5.2189788E-01
   7164.33  5.1512666E-01
   7164.67  5.0837477E-01
   7165.00  5.0163873E-01
   7165.33  4.9491712E-01
   7165.67  4.8820627E-01
   7166.00  4.8150615E-01
   7166.33  4.7482344E-01
   7166.67  4.6816488E-01
   7167.00  4.6153891E-01
   7167.33  4.5495700E-01
   7167.67  4.4842151E-01
   7168.00  4.4194427E-01
   7168.33  4.3555400E-01
   7168.67  4.2926470E-01
   7169.00  4.2310095E-01
   7169.33  4.1711663E-01
   7169.67  4.1133130E-01
   7170.00  4.0578194E-01
   7170.33  4.0054913E-01
   7170.67  3.9564759E-01
   7171.00  3.9112693E-01
   7171.33  3.8711817E-01
   7171.67  3.8367414E-01
   7172.00  3.8092046E-01
