    FDMNES
    energy     <xanes>
   7097.00  4.4039743E-03
   7097.33  4.4988608E-03
   7097.67  4.5978990E-03
   7098.00  4.7013714E-03
   7098.33  4.8102419E-03
   7098.67  4.9243172E-03
   7099.00  5.0439847E-03
   7099.33  5.1705106E-03
   7099.67  5.3037011E-03
   7100.00  5.4441031E-03
   7100.33  5.5934266E-03
   7100.67  5.7515004E-03
   7101.00  5.9191223E-03
   7101.33  6.0986805E-03
   7101.67  6.2900772E-03
   7102.00  6.4945236E-03
   7102.33  6.7154918E-03
   7102.67  6.9530709E-03
   7103.00  7.2091911E-03
   7103.33  7.4891560E-03
   7103.67  7.7935047E-03
   7104.00  8.1255008E-03
   7104.33  8.4937658E-03
   7104.67  8.8999331E-03
   7105.00  9.3499542E-03
   7105.33  9.8590147E-03
   7105.67  1.0431567E-02
   7106.00  1.1079598E-02
   7106.33  1.1832883E-02
   7106.67  1.2703932E-02
   7107.00  1.3720405E-02
   7107.33  1.4950159E-02
   7107.67  1.6432814E-02
   7108.00  1.8246105E-02
   7108.33  2.0583545E-02
   7108.67  2.3602618E-02
   7109.00  2.7599843E-02
   7109.33  3.3364684E-02
   7109.67  4.1822137E-02
   7110.00  5.4793401E-02
   7110.33  7.7552058E-02
   7110.67  1.1565164E-01
   7111.00  1.6983071E-01
   7111.33  2.2212340E-01
   7111.67  2.4264467E-01
   7112.00  2.1515847E-01
   7112.33  1.7593859E-01
   7112.67  1.5945488E-01
   7113.00  1.6943439E-01
   7113.33  2.0930475E-01
   7113.67  2.6105051E-01
   7114.00  2.7933113E-01
   7114.33  2.4175712E-01
   7114.67  2.0350309E-01
   7115.00  1.7982520E-01
   7115.33  1.6474832E-01
   7115.67  1.5817804E-01
   7116.00  1.6072535E-01
   7116.33  1.5680175E-01
   7116.67  1.3970607E-01
   7117.00  1.2082202E-01
   7117.33  1.0889615E-01
   7117.67  1.0274508E-01
   7118.00  1.0006114E-01
   7118.33  9.8365180E-02
   7118.67  9.7293723E-02
   7119.00  9.7641752E-02
   7119.33  9.9970856E-02
   7119.67  1.0438648E-01
   7120.00  1.1107324E-01
   7120.33  1.1803173E-01
   7120.67  1.2172632E-01
   7121.00  1.2246069E-01
   7121.33  1.2292755E-01
   7121.67  1.2471493E-01
   7122.00  1.2795477E-01
   7122.33  1.3206770E-01
   7122.67  1.3666147E-01
   7123.00  1.4228478E-01
   7123.33  1.4984655E-01
   7123.67  1.5947022E-01
   7124.00  1.7135193E-01
   7124.33  1.8617604E-01
   7124.67  2.0423500E-01
   7125.00  2.2590092E-01
   7125.33  2.5011053E-01
   7125.67  2.7268060E-01
   7126.00  2.9077266E-01
   7126.33  3.0427230E-01
   7126.67  3.1607896E-01
   7127.00  3.2741831E-01
   7127.33  3.3830741E-01
   7127.67  3.4858928E-01
   7128.00  3.5852583E-01
   7128.33  3.6874855E-01
   7128.67  3.7967588E-01
   7129.00  3.9141711E-01
   7129.33  4.0382172E-01
   7129.67  4.1620159E-01
   7130.00  4.2781930E-01
   7130.33  4.3784658E-01
   7130.67  4.4644254E-01
   7131.00  4.5400760E-01
   7131.33  4.6102263E-01
   7131.67  4.6792424E-01
   7132.00  4.7487183E-01
   7132.33  4.8198015E-01
   7132.67  4.8931234E-01
   7133.00  4.9702080E-01
   7133.33  5.0561833E-01
   7133.67  5.1548437E-01
   7134.00  5.2669424E-01
   7134.33  5.3884687E-01
   7134.67  5.5083126E-01
   7135.00  5.6153584E-01
   7135.33  5.6927548E-01
   7135.67  5.7335616E-01
   7136.00  5.7352225E-01
   7136.33  5.6998799E-01
   7136.67  5.6453818E-01
   7137.00  5.5854449E-01
   7137.33  5.5346771E-01
   7137.67  5.5005509E-01
   7138.00  5.4861028E-01
   7138.33  5.4935162E-01
   7138.67  5.5175716E-01
   7139.00  5.5549200E-01
   7139.33  5.6027557E-01
   7139.67  5.6567466E-01
   7140.00  5.7153039E-01
   7140.33  5.7784402E-01
   7140.67  5.8459619E-01
   7141.00  5.9182623E-01
   7141.33  5.9962558E-01
   7141.67  6.0790919E-01
   7142.00  6.1660723E-01
   7142.33  6.2562757E-01
   7142.67  6.3478808E-01
   7143.00  6.4397762E-01
   7143.33  6.5310477E-01
   7143.67  6.6215322E-01
   7144.00  6.7115104E-01
   7144.33  6.8017926E-01
   7144.67  6.8934173E-01
   7145.00  6.9873809E-01
   7145.33  7.0851930E-01
   7145.67  7.1872498E-01
   7146.00  7.2939141E-01
   7146.33  7.4056167E-01
   7146.67  7.5208987E-01
   7147.00  7.6382505E-01
   7147.33  7.7549409E-01
   7147.67  7.8675345E-01
   7148.00  7.9725393E-01
   7148.33  8.0642046E-01
   7148.67  8.1399768E-01
   7149.00  8.1969340E-01
   7149.33  8.2299705E-01
   7149.67  8.2404852E-01
   7150.00  8.2283388E-01
   7150.33  8.1915772E-01
   7150.67  8.1344908E-01
   7151.00  8.0588228E-01
   7151.33  7.9647774E-01
   7151.67  7.8567682E-01
   7152.00  7.7370222E-01
   7152.33  7.6072276E-01
   7152.67  7.4711571E-01
   7153.00  7.3308651E-01
   7153.33  7.1883546E-01
   7153.67  7.0460753E-01
   7154.00  6.9057481E-01
   7154.33  6.7695007E-01
   7154.67  6.6382494E-01
   7155.00  6.5129383E-01
   7155.33  6.3952561E-01
   7155.67  6.2849551E-01
   7156.00  6.1823918E-01
   7156.33  6.0888147E-01
   7156.67  6.0033202E-01
   7157.00  5.9258827E-01
   7157.33  5.8573448E-01
   7157.67  5.7964805E-01
   7158.00  5.7430495E-01
   7158.33  5.6976519E-01
   7158.67  5.6591269E-01
   7159.00  5.6272879E-01
   7159.33  5.6027985E-01
   7159.67  5.5847672E-01
   7160.00  5.5731820E-01
   7160.33  5.5688571E-01
   7160.67  5.5709568E-01
   7161.00  5.5793730E-01
   7161.33  5.5945669E-01
   7161.67  5.6152249E-01
   7162.00  5.6406022E-01
   7162.33  5.6699452E-01
   7162.67  5.7012717E-01
   7163.00  5.7329972E-01
   7163.33  5.7627569E-01
   7163.67  5.7884605E-01
   7164.00  5.8082462E-01
   7164.33  5.8192716E-01
   7164.67  5.8211990E-01
   7165.00  5.8134875E-01
   7165.33  5.7948257E-01
   7165.67  5.7668321E-01
   7166.00  5.7301793E-01
   7166.33  5.6849318E-01
   7166.67  5.6331868E-01
   7167.00  5.5759449E-01
   7167.33  5.5137909E-01
   7167.67  5.4483315E-01
   7168.00  5.3804059E-01
   7168.33  5.3107085E-01
   7168.67  5.2403162E-01
   7169.00  5.1700115E-01
   7169.33  5.1006815E-01
   7169.67  5.0329104E-01
   7170.00  4.9673251E-01
   7170.33  4.9050813E-01
   7170.67  4.8466517E-01
   7171.00  4.7928288E-01
   7171.33  4.7453955E-01
   7171.67  4.7050309E-01
   7172.00  4.6731616E-01
