    FDMNES
    energy     <xanes>
   7097.00  4.5560580E-03
   7097.33  4.6604255E-03
   7097.67  4.7694282E-03
   7098.00  4.8833802E-03
   7098.33  5.0033556E-03
   7098.67  5.1291373E-03
   7099.00  5.2611557E-03
   7099.33  5.4008204E-03
   7099.67  5.5479132E-03
   7100.00  5.7030412E-03
   7100.33  5.8681063E-03
   7100.67  6.0429150E-03
   7101.00  6.2283527E-03
   7101.33  6.4270740E-03
   7101.67  6.6389663E-03
   7102.00  6.8653746E-03
   7102.33  7.1101570E-03
   7102.67  7.3734102E-03
   7103.00  7.6572786E-03
   7103.33  7.9676590E-03
   7103.67  8.3051528E-03
   7104.00  8.6733934E-03
   7104.33  9.0819807E-03
   7104.67  9.5327503E-03
   7105.00  1.0032351E-02
   7105.33  1.0597742E-02
   7105.67  1.1233959E-02
   7106.00  1.1954464E-02
   7106.33  1.2792695E-02
   7106.67  1.3762901E-02
   7107.00  1.4896420E-02
   7107.33  1.6270167E-02
   7107.67  1.7929822E-02
   7108.00  1.9964729E-02
   7108.33  2.2597928E-02
   7108.67  2.6014903E-02
   7109.00  3.0565495E-02
   7109.33  3.7188835E-02
   7109.67  4.7015817E-02
   7110.00  6.2285272E-02
   7110.33  8.9441766E-02
   7110.67  1.3421059E-01
   7111.00  1.9140992E-01
   7111.33  2.2691680E-01
   7111.67  2.3626979E-01
   7112.00  2.3589725E-01
   7112.33  2.3680021E-01
   7112.67  2.3704431E-01
   7113.00  2.3154333E-01
   7113.33  2.1879987E-01
   7113.67  2.0620823E-01
   7114.00  2.0092756E-01
   7114.33  2.0916867E-01
   7114.67  2.2158652E-01
   7115.00  2.2529668E-01
   7115.33  2.1407477E-01
   7115.67  1.9038336E-01
   7116.00  1.6077880E-01
   7116.33  1.3622408E-01
   7116.67  1.1945376E-01
   7117.00  1.0936261E-01
   7117.33  1.0436325E-01
   7117.67  1.0193235E-01
   7118.00  1.0078920E-01
   7118.33  1.0028009E-01
   7118.67  1.0048253E-01
   7119.00  1.0179176E-01
   7119.33  1.0455909E-01
   7119.67  1.0823028E-01
   7120.00  1.1196589E-01
   7120.33  1.1450589E-01
   7120.67  1.1634907E-01
   7121.00  1.1958546E-01
   7121.33  1.2644228E-01
   7121.67  1.3688695E-01
   7122.00  1.5108431E-01
   7122.33  1.6982303E-01
   7122.67  1.9248533E-01
   7123.00  2.1920701E-01
   7123.33  2.5137290E-01
   7123.67  2.8769321E-01
   7124.00  3.2487715E-01
   7124.33  3.5703835E-01
   7124.67  3.8295483E-01
   7125.00  4.0514926E-01
   7125.33  4.2789411E-01
   7125.67  4.5341905E-01
   7126.00  4.8099909E-01
   7126.33  5.0672157E-01
   7126.67  5.2543974E-01
   7127.00  5.3335304E-01
   7127.33  5.2920292E-01
   7127.67  5.1937946E-01
   7128.00  5.0896321E-01
   7128.33  5.0249304E-01
   7128.67  5.0208052E-01
   7129.00  5.0898464E-01
   7129.33  5.2338481E-01
   7129.67  5.4086400E-01
   7130.00  5.5739660E-01
   7130.33  5.6967137E-01
   7130.67  5.7812259E-01
   7131.00  5.8427222E-01
   7131.33  5.9089994E-01
   7131.67  6.0050216E-01
   7132.00  6.1404770E-01
   7132.33  6.3109878E-01
   7132.67  6.4903478E-01
   7133.00  6.6594822E-01
   7133.33  6.8035445E-01
   7133.67  6.9216051E-01
   7134.00  7.0073164E-01
   7134.33  7.0370062E-01
   7134.67  7.0026532E-01
   7135.00  6.9098302E-01
   7135.33  6.7784863E-01
   7135.67  6.6359981E-01
   7136.00  6.4896819E-01
   7136.33  6.3348099E-01
   7136.67  6.1694078E-01
   7137.00  6.0001975E-01
   7137.33  5.8448379E-01
   7137.67  5.7174116E-01
   7138.00  5.6258438E-01
   7138.33  5.5770643E-01
   7138.67  5.5629771E-01
   7139.00  5.5781445E-01
   7139.33  5.6176081E-01
   7139.67  5.6709230E-01
   7140.00  5.7322810E-01
   7140.33  5.7970570E-01
   7140.67  5.8620221E-01
   7141.00  5.9261687E-01
   7141.33  5.9890351E-01
   7141.67  6.0504836E-01
   7142.00  6.1100111E-01
   7142.33  6.1664409E-01
   7142.67  6.2191142E-01
   7143.00  6.2670967E-01
   7143.33  6.3085722E-01
   7143.67  6.3432763E-01
   7144.00  6.3705538E-01
   7144.33  6.3890342E-01
   7144.67  6.3998576E-01
   7145.00  6.4037279E-01
   7145.33  6.4015365E-01
   7145.67  6.3962647E-01
   7146.00  6.3903083E-01
   7146.33  6.3868621E-01
   7146.67  6.3882264E-01
   7147.00  6.3960514E-01
   7147.33  6.4124384E-01
   7147.67  6.4365798E-01
   7148.00  6.4677852E-01
   7148.33  6.5051010E-01
   7148.67  6.5454268E-01
   7149.00  6.5862377E-01
   7149.33  6.6241914E-01
   7149.67  6.6567533E-01
   7150.00  6.6817050E-01
   7150.33  6.6957555E-01
   7150.67  6.6988047E-01
   7151.00  6.6904266E-01
   7151.33  6.6695187E-01
   7151.67  6.6384804E-01
   7152.00  6.5986144E-01
   7152.33  6.5509012E-01
   7152.67  6.4982535E-01
   7153.00  6.4424449E-01
   7153.33  6.3852602E-01
   7153.67  6.3284993E-01
   7154.00  6.2732413E-01
   7154.33  6.2205360E-01
   7154.67  6.1702630E-01
   7155.00  6.1220537E-01
   7155.33  6.0750313E-01
   7155.67  6.0275158E-01
   7156.00  5.9778572E-01
   7156.33  5.9234025E-01
   7156.67  5.8626035E-01
   7157.00  5.7939253E-01
   7157.33  5.7149610E-01
   7157.67  5.6263611E-01
   7158.00  5.5284261E-01
   7158.33  5.4213172E-01
   7158.67  5.3079457E-01
   7159.00  5.1902683E-01
   7159.33  5.0704077E-01
   7159.67  4.9507722E-01
   7160.00  4.8328902E-01
   7160.33  4.7184553E-01
   7160.67  4.6079255E-01
   7161.00  4.5017441E-01
   7161.33  4.4007636E-01
   7161.67  4.3045357E-01
   7162.00  4.2131494E-01
   7162.33  4.1273636E-01
   7162.67  4.0467576E-01
   7163.00  3.9715509E-01
   7163.33  3.9027071E-01
   7163.67  3.8397145E-01
   7164.00  3.7826426E-01
   7164.33  3.7321219E-01
   7164.67  3.6871175E-01
   7165.00  3.6472210E-01
   7165.33  3.6123959E-01
   7165.67  3.5814227E-01
   7166.00  3.5537699E-01
   7166.33  3.5292921E-01
   7166.67  3.5073128E-01
   7167.00  3.4876306E-01
   7167.33  3.4703636E-01
   7167.67  3.4551968E-01
   7168.00  3.4421350E-01
   7168.33  3.4314648E-01
   7168.67  3.4229460E-01
   7169.00  3.4166013E-01
   7169.33  3.4127277E-01
   7169.67  3.4110626E-01
   7170.00  3.4116012E-01
   7170.33  3.4145803E-01
   7170.67  3.4196305E-01
   7171.00  3.4265615E-01
   7171.33  3.4350639E-01
   7171.67  3.4439289E-01
   7172.00  3.4516753E-01
