    FDMNES
    energy     <xanes>
   7097.00  5.1271232E-03
   7097.33  5.2487438E-03
   7097.67  5.3758845E-03
   7098.00  5.5089191E-03
   7098.33  5.6491255E-03
   7098.67  5.7962432E-03
   7099.00  5.9507816E-03
   7099.33  6.1144124E-03
   7099.67  6.2868693E-03
   7100.00  6.4688655E-03
   7100.33  6.6626455E-03
   7100.67  6.8679631E-03
   7101.00  7.0858488E-03
   7101.33  7.3194109E-03
   7101.67  7.5684813E-03
   7102.00  7.8346054E-03
   7102.33  8.1222516E-03
   7102.67  8.4314591E-03
   7103.00  8.7646516E-03
   7103.33  9.1285546E-03
   7103.67  9.5237087E-03
   7104.00  9.9541320E-03
   7104.33  1.0430545E-02
   7104.67  1.0954699E-02
   7105.00  1.1533738E-02
   7105.33  1.2186064E-02
   7105.67  1.2916480E-02
   7106.00  1.3738923E-02
   7106.33  1.4688242E-02
   7106.67  1.5777715E-02
   7107.00  1.7038161E-02
   7107.33  1.8545384E-02
   7107.67  2.0339986E-02
   7108.00  2.2503853E-02
   7108.33  2.5239904E-02
   7108.67  2.8701095E-02
   7109.00  3.3177622E-02
   7109.33  3.9431122E-02
   7109.67  4.8298968E-02
   7110.00  6.1420152E-02
   7110.33  8.3513473E-02
   7110.67  1.1987739E-01
   7111.00  1.7325529E-01
   7111.33  2.2968678E-01
   7111.67  2.6539684E-01
   7112.00  2.7994603E-01
   7112.33  2.9718907E-01
   7112.67  3.2864617E-01
   7113.00  3.6553050E-01
   7113.33  3.8360739E-01
   7113.67  3.7778474E-01
   7114.00  3.5918637E-01
   7114.33  3.3265100E-01
   7114.67  2.9738513E-01
   7115.00  2.5992088E-01
   7115.33  2.3107695E-01
   7115.67  2.1123366E-01
   7116.00  1.9647198E-01
   7116.33  1.8303460E-01
   7116.67  1.6979010E-01
   7117.00  1.5745281E-01
   7117.33  1.4822062E-01
   7117.67  1.4299449E-01
   7118.00  1.4174838E-01
   7118.33  1.4413065E-01
   7118.67  1.4883727E-01
   7119.00  1.5522897E-01
   7119.33  1.6263453E-01
   7119.67  1.7003967E-01
   7120.00  1.7711613E-01
   7120.33  1.8426090E-01
   7120.67  1.9165553E-01
   7121.00  1.9877887E-01
   7121.33  2.0492075E-01
   7121.67  2.1051603E-01
   7122.00  2.1644547E-01
   7122.33  2.2389340E-01
   7122.67  2.3302070E-01
   7123.00  2.4347053E-01
   7123.33  2.5498293E-01
   7123.67  2.6777458E-01
   7124.00  2.8242260E-01
   7124.33  2.9930099E-01
   7124.67  3.1738560E-01
   7125.00  3.3581191E-01
   7125.33  3.5427812E-01
   7125.67  3.7312734E-01
   7126.00  3.9241912E-01
   7126.33  4.1168441E-01
   7126.67  4.3069519E-01
   7127.00  4.5004580E-01
   7127.33  4.7136570E-01
   7127.67  4.9576298E-01
   7128.00  5.2373723E-01
   7128.33  5.5513924E-01
   7128.67  5.8806516E-01
   7129.00  6.2102105E-01
   7129.33  6.5237907E-01
   7129.67  6.8097279E-01
   7130.00  7.0546586E-01
   7130.33  7.2371745E-01
   7130.67  7.3578653E-01
   7131.00  7.4208260E-01
   7131.33  7.4361172E-01
   7131.67  7.4322625E-01
   7132.00  7.4308816E-01
   7132.33  7.4563031E-01
   7132.67  7.5191654E-01
   7133.00  7.6236804E-01
   7133.33  7.7690880E-01
   7133.67  7.9330121E-01
   7134.00  8.0913669E-01
   7134.33  8.2093205E-01
   7134.67  8.2702927E-01
   7135.00  8.2685697E-01
   7135.33  8.2017624E-01
   7135.67  8.0869490E-01
   7136.00  7.9317569E-01
   7136.33  7.7394258E-01
   7136.67  7.5226738E-01
   7137.00  7.2909758E-01
   7137.33  7.0557893E-01
   7137.67  6.8280274E-01
   7138.00  6.6147579E-01
   7138.33  6.4243374E-01
   7138.67  6.2579906E-01
   7139.00  6.1178424E-01
   7139.33  6.0089631E-01
   7139.67  5.9286239E-01
   7140.00  5.8766539E-01
   7140.33  5.8549437E-01
   7140.67  5.8569900E-01
   7141.00  5.8786790E-01
   7141.33  5.9154636E-01
   7141.67  5.9585289E-01
   7142.00  6.0017121E-01
   7142.33  6.0378419E-01
   7142.67  6.0628050E-01
   7143.00  6.0738175E-01
   7143.33  6.0671268E-01
   7143.67  6.0439917E-01
   7144.00  6.0045474E-01
   7144.33  5.9479745E-01
   7144.67  5.8781432E-01
   7145.00  5.7972661E-01
   7145.33  5.7072221E-01
   7145.67  5.6119514E-01
   7146.00  5.5137630E-01
   7146.33  5.4148652E-01
   7146.67  5.3171287E-01
   7147.00  5.2217106E-01
   7147.33  5.1300437E-01
   7147.67  5.0425517E-01
   7148.00  4.9597534E-01
   7148.33  4.8826108E-01
   7148.67  4.8107084E-01
   7149.00  4.7441935E-01
   7149.33  4.6839179E-01
   7149.67  4.6293682E-01
   7150.00  4.5807043E-01
   7150.33  4.5388722E-01
   7150.67  4.5033154E-01
   7151.00  4.4742097E-01
   7151.33  4.4525701E-01
   7151.67  4.4377102E-01
   7152.00  4.4296964E-01
   7152.33  4.4293696E-01
   7152.67  4.4357403E-01
   7153.00  4.4485688E-01
   7153.33  4.4681579E-01
   7153.67  4.4931057E-01
   7154.00  4.5226753E-01
   7154.33  4.5562352E-01
   7154.67  4.5920740E-01
   7155.00  4.6289924E-01
   7155.33  4.6654831E-01
   7155.67  4.7001547E-01
   7156.00  4.7318629E-01
   7156.33  4.7589571E-01
   7156.67  4.7810958E-01
   7157.00  4.7978090E-01
   7157.33  4.8081651E-01
   7157.67  4.8129751E-01
   7158.00  4.8125563E-01
   7158.33  4.8069055E-01
   7158.67  4.7973470E-01
   7159.00  4.7845958E-01
   7159.33  4.7692115E-01
   7159.67  4.7522954E-01
   7160.00  4.7344680E-01
   7160.33  4.7162973E-01
   7160.67  4.6982789E-01
   7161.00  4.6806784E-01
   7161.33  4.6637291E-01
   7161.67  4.6473671E-01
   7162.00  4.6315003E-01
   7162.33  4.6159709E-01
   7162.67  4.6005138E-01
   7163.00  4.5849572E-01
   7163.33  4.5690444E-01
   7163.67  4.5525422E-01
   7164.00  4.5352684E-01
   7164.33  4.5170953E-01
   7164.67  4.4982145E-01
   7165.00  4.4787559E-01
   7165.33  4.4588735E-01
   7165.67  4.4388515E-01
   7166.00  4.4189046E-01
   7166.33  4.3993241E-01
   7166.67  4.3803158E-01
   7167.00  4.3620850E-01
   7167.33  4.3449767E-01
   7167.67  4.3290589E-01
   7168.00  4.3144785E-01
   7168.33  4.3015766E-01
   7168.67  4.2903295E-01
   7169.00  4.2808721E-01
   7169.33  4.2735147E-01
   7169.67  4.2680484E-01
   7170.00  4.2644700E-01
   7170.33  4.2629668E-01
   7170.67  4.2632005E-01
   7171.00  4.2649980E-01
   7171.33  4.2681491E-01
   7171.67  4.2718552E-01
   7172.00  4.2752657E-01
