    FDMNES
    energy     <xanes>
   7097.00  4.8548742E-03
   7097.33  4.9720080E-03
   7097.67  5.0945239E-03
   7098.00  5.2227920E-03
   7098.33  5.3580688E-03
   7098.67  5.5001086E-03
   7099.00  5.6494191E-03
   7099.33  5.8076520E-03
   7099.67  5.9745602E-03
   7100.00  6.1508590E-03
   7100.33  6.3387794E-03
   7100.67  6.5381011E-03
   7101.00  6.7498649E-03
   7101.33  6.9771822E-03
   7101.67  7.2199225E-03
   7102.00  7.4796581E-03
   7102.33  7.7608978E-03
   7102.67  8.0637392E-03
   7103.00  8.3906682E-03
   7103.33  8.7485294E-03
   7103.67  9.1379622E-03
   7104.00  9.5631198E-03
   7104.33  1.0035007E-02
   7104.67  1.0555555E-02
   7105.00  1.1132193E-02
   7105.33  1.1783951E-02
   7105.67  1.2515974E-02
   7106.00  1.3342787E-02
   7106.33  1.4300551E-02
   7106.67  1.5403160E-02
   7107.00  1.6682531E-02
   7107.33  1.8216824E-02
   7107.67  2.0047187E-02
   7108.00  2.2256378E-02
   7108.33  2.5047804E-02
   7108.67  2.8567781E-02
   7109.00  3.3092074E-02
   7109.33  3.9329247E-02
   7109.67  4.7998755E-02
   7110.00  6.0480817E-02
   7110.33  8.0675127E-02
   7110.67  1.1337448E-01
   7111.00  1.6478391E-01
   7111.33  2.4047211E-01
   7111.67  3.2757753E-01
   7112.00  4.1232575E-01
   7112.33  4.6871623E-01
   7112.67  4.6189680E-01
   7113.00  3.9277723E-01
   7113.33  3.0628550E-01
   7113.67  2.4512258E-01
   7114.00  2.1005936E-01
   7114.33  1.9123737E-01
   7114.67  1.7922807E-01
   7115.00  1.6617318E-01
   7115.33  1.4722232E-01
   7115.67  1.2765843E-01
   7116.00  1.0727130E-01
   7116.33  8.8975328E-02
   7116.67  7.6531116E-02
   7117.00  6.9426224E-02
   7117.33  6.6413050E-02
   7117.67  6.5996453E-02
   7118.00  6.7853213E-02
   7118.33  7.2314658E-02
   7118.67  7.9385950E-02
   7119.00  8.9221007E-02
   7119.33  1.0137990E-01
   7119.67  1.1313033E-01
   7120.00  1.2176048E-01
   7120.33  1.2653577E-01
   7120.67  1.3103438E-01
   7121.00  1.3817112E-01
   7121.33  1.5073554E-01
   7121.67  1.6936103E-01
   7122.00  1.9458657E-01
   7122.33  2.2695963E-01
   7122.67  2.6388846E-01
   7123.00  3.0287402E-01
   7123.33  3.4345956E-01
   7123.67  3.9007231E-01
   7124.00  4.4780782E-01
   7124.33  5.1926317E-01
   7124.67  5.9581370E-01
   7125.00  6.6562949E-01
   7125.33  7.1214284E-01
   7125.67  7.3270556E-01
   7126.00  7.3170051E-01
   7126.33  7.1637907E-01
   7126.67  6.9392259E-01
   7127.00  6.6585113E-01
   7127.33  6.3343176E-01
   7127.67  6.0030200E-01
   7128.00  5.6898591E-01
   7128.33  5.4123224E-01
   7128.67  5.1650866E-01
   7129.00  4.9431441E-01
   7129.33  4.7481044E-01
   7129.67  4.5830515E-01
   7130.00  4.4562336E-01
   7130.33  4.3816173E-01
   7130.67  4.3582103E-01
   7131.00  4.3880251E-01
   7131.33  4.4787829E-01
   7131.67  4.6237144E-01
   7132.00  4.8221035E-01
   7132.33  5.0781382E-01
   7132.67  5.3804036E-01
   7133.00  5.7210895E-01
   7133.33  6.0890281E-01
   7133.67  6.4612164E-01
   7134.00  6.8156002E-01
   7134.33  7.1161174E-01
   7134.67  7.3428235E-01
   7135.00  7.4875589E-01
   7135.33  7.5525439E-01
   7135.67  7.5706625E-01
   7136.00  7.5638779E-01
   7136.33  7.5529771E-01
   7136.67  7.5519653E-01
   7137.00  7.5644016E-01
   7137.33  7.5853017E-01
   7137.67  7.6001416E-01
   7138.00  7.5965408E-01
   7138.33  7.5628985E-01
   7138.67  7.5038261E-01
   7139.00  7.4259676E-01
   7139.33  7.3370083E-01
   7139.67  7.2438717E-01
   7140.00  7.1477530E-01
   7140.33  7.0473407E-01
   7140.67  6.9422118E-01
   7141.00  6.8325086E-01
   7141.33  6.7193547E-01
   7141.67  6.6057443E-01
   7142.00  6.4943347E-01
   7142.33  6.3888628E-01
   7142.67  6.2913994E-01
   7143.00  6.2038462E-01
   7143.33  6.1292295E-01
   7143.67  6.0671866E-01
   7144.00  6.0182273E-01
   7144.33  5.9834362E-01
   7144.67  5.9598802E-01
   7145.00  5.9460676E-01
   7145.33  5.9409993E-01
   7145.67  5.9415478E-01
   7146.00  5.9457401E-01
   7146.33  5.9513785E-01
   7146.67  5.9560245E-01
   7147.00  5.9579016E-01
   7147.33  5.9547047E-01
   7147.67  5.9457069E-01
   7148.00  5.9301966E-01
   7148.33  5.9069256E-01
   7148.67  5.8767853E-01
   7149.00  5.8400762E-01
   7149.33  5.7966567E-01
   7149.67  5.7480766E-01
   7150.00  5.6951466E-01
   7150.33  5.6385332E-01
   7150.67  5.5797517E-01
   7151.00  5.5196820E-01
   7151.33  5.4590370E-01
   7151.67  5.3982602E-01
   7152.00  5.3373920E-01
   7152.33  5.2761386E-01
   7152.67  5.2140071E-01
   7153.00  5.1503713E-01
   7153.33  5.0841022E-01
   7153.67  5.0146536E-01
   7154.00  4.9414163E-01
   7154.33  4.8634090E-01
   7154.67  4.7810858E-01
   7155.00  4.6947000E-01
   7155.33  4.6044290E-01
   7155.67  4.5115503E-01
   7156.00  4.4168788E-01
   7156.33  4.3212364E-01
   7156.67  4.2255587E-01
   7157.00  4.1304453E-01
   7157.33  4.0366071E-01
   7157.67  3.9443659E-01
   7158.00  3.8540545E-01
   7158.33  3.7662642E-01
   7158.67  3.6809843E-01
   7159.00  3.5984255E-01
   7159.33  3.5191727E-01
   7159.67  3.4430700E-01
   7160.00  3.3703158E-01
   7160.33  3.3016280E-01
   7160.67  3.2368625E-01
   7161.00  3.1762858E-01
   7161.33  3.1207742E-01
   7161.67  3.0700993E-01
   7162.00  3.0245287E-01
   7162.33  2.9849857E-01
   7162.67  2.9509552E-01
   7163.00  2.9224844E-01
   7163.33  2.9001969E-01
   7163.67  2.8831412E-01
   7164.00  2.8709757E-01
   7164.33  2.8638748E-01
   7164.67  2.8608843E-01
   7165.00  2.8616497E-01
   7165.33  2.8661695E-01
   7165.67  2.8736382E-01
   7166.00  2.8837704E-01
   7166.33  2.8966056E-01
   7166.67  2.9116622E-01
   7167.00  2.9288450E-01
   7167.33  2.9483632E-01
   7167.67  2.9699469E-01
   7168.00  2.9936014E-01
   7168.33  3.0195893E-01
   7168.67  3.0476274E-01
   7169.00  3.0776566E-01
   7169.33  3.1097840E-01
   7169.67  3.1435752E-01
   7170.00  3.1787869E-01
   7170.33  3.2151697E-01
   7170.67  3.2520683E-01
   7171.00  3.2888464E-01
   7171.33  3.3241996E-01
   7171.67  3.3563201E-01
   7172.00  3.3826997E-01
