    FDMNES
    energy     <xanes>
   7097.00  5.1326341E-03
   7097.33  5.2609969E-03
   7097.67  5.3955733E-03
   7098.00  5.5368091E-03
   7098.33  5.6861850E-03
   7098.67  5.8434418E-03
   7099.00  6.0091950E-03
   7099.33  6.1854098E-03
   7099.67  6.3718309E-03
   7100.00  6.5693322E-03
   7100.33  6.7805930E-03
   7100.67  7.0053992E-03
   7101.00  7.2450310E-03
   7101.33  7.5032600E-03
   7101.67  7.7799940E-03
   7102.00  8.0771803E-03
   7102.33  8.4003338E-03
   7102.67  8.7496623E-03
   7103.00  9.1282640E-03
   7103.33  9.5445854E-03
   7103.67  9.9995375E-03
   7104.00  1.0498330E-02
   7104.33  1.1054663E-02
   7104.67  1.1671119E-02
   7105.00  1.2357087E-02
   7105.33  1.3136479E-02
   7105.67  1.4016068E-02
   7106.00  1.5014375E-02
   7106.33  1.6177382E-02
   7106.67  1.7523408E-02
   7107.00  1.9093784E-02
   7107.33  2.0989679E-02
   7107.67  2.3266419E-02
   7108.00  2.6034194E-02
   7108.33  2.9565182E-02
   7108.67  3.4065240E-02
   7109.00  3.9922813E-02
   7109.33  4.8153633E-02
   7109.67  5.9865697E-02
   7110.00  7.7220275E-02
   7110.33  1.0643084E-01
   7110.67  1.5456149E-01
   7111.00  2.2526628E-01
   7111.33  2.9792717E-01
   7111.67  3.5624818E-01
   7112.00  4.1572697E-01
   7112.33  4.7296734E-01
   7112.67  5.1360139E-01
   7113.00  5.3155129E-01
   7113.33  5.2155056E-01
   7113.67  4.6317900E-01
   7114.00  3.6531830E-01
   7114.33  2.7723084E-01
   7114.67  2.1617692E-01
   7115.00  1.7942889E-01
   7115.33  1.6381415E-01
   7115.67  1.6311866E-01
   7116.00  1.7232896E-01
   7116.33  1.7848407E-01
   7116.67  1.7080253E-01
   7117.00  1.5050765E-01
   7117.33  1.2778802E-01
   7117.67  1.0986845E-01
   7118.00  9.7552712E-02
   7118.33  9.0323604E-02
   7118.67  8.6379521E-02
   7119.00  8.4761450E-02
   7119.33  8.4544062E-02
   7119.67  8.4697467E-02
   7120.00  8.4929332E-02
   7120.33  8.5496786E-02
   7120.67  8.6724809E-02
   7121.00  8.8765776E-02
   7121.33  9.1692624E-02
   7121.67  9.5644291E-02
   7122.00  1.0125468E-01
   7122.33  1.0966723E-01
   7122.67  1.2128046E-01
   7123.00  1.3670971E-01
   7123.33  1.5732629E-01
   7123.67  1.8329550E-01
   7124.00  2.1493081E-01
   7124.33  2.5233262E-01
   7124.67  2.9300488E-01
   7125.00  3.3444817E-01
   7125.33  3.7285236E-01
   7125.67  4.0521100E-01
   7126.00  4.2951317E-01
   7126.33  4.4374641E-01
   7126.67  4.4951307E-01
   7127.00  4.4812476E-01
   7127.33  4.4140633E-01
   7127.67  4.3269020E-01
   7128.00  4.2397481E-01
   7128.33  4.1727675E-01
   7128.67  4.1372886E-01
   7129.00  4.1406387E-01
   7129.33  4.1901123E-01
   7129.67  4.2779594E-01
   7130.00  4.4014386E-01
   7130.33  4.5644112E-01
   7130.67  4.7645451E-01
   7131.00  5.0026572E-01
   7131.33  5.2797591E-01
   7131.67  5.5840757E-01
   7132.00  5.9087652E-01
   7132.33  6.2507044E-01
   7132.67  6.6067133E-01
   7133.00  6.9764005E-01
   7133.33  7.3560666E-01
   7133.67  7.7311073E-01
   7134.00  8.0836203E-01
   7134.33  8.3854893E-01
   7134.67  8.6232025E-01
   7135.00  8.7832428E-01
   7135.33  8.8421049E-01
   7135.67  8.8079238E-01
   7136.00  8.6894099E-01
   7136.33  8.4993143E-01
   7136.67  8.2698760E-01
   7137.00  8.0194847E-01
   7137.33  7.7632218E-01
   7137.67  7.5116488E-01
   7138.00  7.2700249E-01
   7138.33  7.0449843E-01
   7138.67  6.8399781E-01
   7139.00  6.6601649E-01
   7139.33  6.5148168E-01
   7139.67  6.4033797E-01
   7140.00  6.3263192E-01
   7140.33  6.2857663E-01
   7140.67  6.2739733E-01
   7141.00  6.2870676E-01
   7141.33  6.3226816E-01
   7141.67  6.3731832E-01
   7142.00  6.4340066E-01
   7142.33  6.5005309E-01
   7142.67  6.5674464E-01
   7143.00  6.6315597E-01
   7143.33  6.6894785E-01
   7143.67  6.7400546E-01
   7144.00  6.7821412E-01
   7144.33  6.8134108E-01
   7144.67  6.8340985E-01
   7145.00  6.8436188E-01
   7145.33  6.8403745E-01
   7145.67  6.8262803E-01
   7146.00  6.8022797E-01
   7146.33  6.7688496E-01
   7146.67  6.7287619E-01
   7147.00  6.6834711E-01
   7147.33  6.6340454E-01
   7147.67  6.5822396E-01
   7148.00  6.5289643E-01
   7148.33  6.4749688E-01
   7148.67  6.4210262E-01
   7149.00  6.3676391E-01
   7149.33  6.3153764E-01
   7149.67  6.2644163E-01
   7150.00  6.2149143E-01
   7150.33  6.1671691E-01
   7150.67  6.1210326E-01
   7151.00  6.0764956E-01
   7151.33  6.0336742E-01
   7151.67  5.9922398E-01
   7152.00  5.9520271E-01
   7152.33  5.9128937E-01
   7152.67  5.8743923E-01
   7153.00  5.8362101E-01
   7153.33  5.7979462E-01
   7153.67  5.7591953E-01
   7154.00  5.7195962E-01
   7154.33  5.6785798E-01
   7154.67  5.6359188E-01
   7155.00  5.5913154E-01
   7155.33  5.5441986E-01
   7155.67  5.4946468E-01
   7156.00  5.4425770E-01
   7156.33  5.3876803E-01
   7156.67  5.3303641E-01
   7157.00  5.2707819E-01
   7157.33  5.2090256E-01
   7157.67  5.1458356E-01
   7158.00  5.0817562E-01
   7158.33  5.0175220E-01
   7158.67  4.9540042E-01
   7159.00  4.8919836E-01
   7159.33  4.8326744E-01
   7159.67  4.7766329E-01
   7160.00  4.7244877E-01
   7160.33  4.6773263E-01
   7160.67  4.6348522E-01
   7161.00  4.5970375E-01
   7161.33  4.5640947E-01
   7161.67  4.5348591E-01
   7162.00  4.5086053E-01
   7162.33  4.4845928E-01
   7162.67  4.4614930E-01
   7163.00  4.4383760E-01
   7163.33  4.4142069E-01
   7163.67  4.3884476E-01
   7164.00  4.3607520E-01
   7164.33  4.3306877E-01
   7164.67  4.2985773E-01
   7165.00  4.2646302E-01
   7165.33  4.2290453E-01
   7165.67  4.1924722E-01
   7166.00  4.1553440E-01
   7166.33  4.1181660E-01
   7166.67  4.0814302E-01
   7167.00  4.0455156E-01
   7167.33  4.0109657E-01
   7167.67  3.9779961E-01
   7168.00  3.9469494E-01
   7168.33  3.9184813E-01
   7168.67  3.8925320E-01
   7169.00  3.8692106E-01
   7169.33  3.8489645E-01
   7169.67  3.8315160E-01
   7170.00  3.8168583E-01
   7170.33  3.8052451E-01
   7170.67  3.7961800E-01
   7171.00  3.7894685E-01
   7171.33  3.7850417E-01
   7171.67  3.7821494E-01
   7172.00  3.7801741E-01
