    FDMNES
    energy     <xanes>
   7097.00  4.9302792E-03
   7097.33  5.0494242E-03
   7097.67  5.1740558E-03
   7098.00  5.3045521E-03
   7098.33  5.4421949E-03
   7098.67  5.5867353E-03
   7099.00  5.7386925E-03
   7099.33  5.8997538E-03
   7099.67  6.0696703E-03
   7100.00  6.2491756E-03
   7100.33  6.4405536E-03
   7100.67  6.6435864E-03
   7101.00  6.8593458E-03
   7101.33  7.0910279E-03
   7101.67  7.3385153E-03
   7102.00  7.6034375E-03
   7102.33  7.8904513E-03
   7102.67  8.1996944E-03
   7103.00  8.5337675E-03
   7103.33  8.8998004E-03
   7103.67  9.2985438E-03
   7104.00  9.7344035E-03
   7104.33  1.0218997E-02
   7104.67  1.0754565E-02
   7105.00  1.1349156E-02
   7105.33  1.2023281E-02
   7105.67  1.2783011E-02
   7106.00  1.3644580E-02
   7106.33  1.4648271E-02
   7106.67  1.5811076E-02
   7107.00  1.7170451E-02
   7107.33  1.8818202E-02
   7107.67  2.0807888E-02
   7108.00  2.3244473E-02
   7108.33  2.6388933E-02
   7108.67  3.0452703E-02
   7109.00  3.5833553E-02
   7109.33  4.3588701E-02
   7109.67  5.4950138E-02
   7110.00  7.2339837E-02
   7110.33  1.0272877E-01
   7110.67  1.5307708E-01
   7111.00  2.2246133E-01
   7111.33  2.8542379E-01
   7111.67  3.2753205E-01
   7112.00  3.4316589E-01
   7112.33  3.2641388E-01
   7112.67  2.9484728E-01
   7113.00  2.6352515E-01
   7113.33  2.4337651E-01
   7113.67  2.3674802E-01
   7114.00  2.4021731E-01
   7114.33  2.4034156E-01
   7114.67  2.2956818E-01
   7115.00  2.1000997E-01
   7115.33  1.8481996E-01
   7115.67  1.5734636E-01
   7116.00  1.3223475E-01
   7116.33  1.1471977E-01
   7116.67  1.0434824E-01
   7117.00  1.0018611E-01
   7117.33  1.0186056E-01
   7117.67  1.0768602E-01
   7118.00  1.1641433E-01
   7118.33  1.2660055E-01
   7118.67  1.3700679E-01
   7119.00  1.4713209E-01
   7119.33  1.5640890E-01
   7119.67  1.6476590E-01
   7120.00  1.7233468E-01
   7120.33  1.7868886E-01
   7120.67  1.8481796E-01
   7121.00  1.9394743E-01
   7121.33  2.1100053E-01
   7121.67  2.3758032E-01
   7122.00  2.7434402E-01
   7122.33  3.1824419E-01
   7122.67  3.5933955E-01
   7123.00  3.9188868E-01
   7123.33  4.1440719E-01
   7123.67  4.3014407E-01
   7124.00  4.4190435E-01
   7124.33  4.5387848E-01
   7124.67  4.6918155E-01
   7125.00  4.8879311E-01
   7125.33  5.1303965E-01
   7125.67  5.4109486E-01
   7126.00  5.7316709E-01
   7126.33  6.0979892E-01
   7126.67  6.4862633E-01
   7127.00  6.8603258E-01
   7127.33  7.1641932E-01
   7127.67  7.3795310E-01
   7128.00  7.5062726E-01
   7128.33  7.5492296E-01
   7128.67  7.5340262E-01
   7129.00  7.4690539E-01
   7129.33  7.3506014E-01
   7129.67  7.1871617E-01
   7130.00  6.9850884E-01
   7130.33  6.7469362E-01
   7130.67  6.4811563E-01
   7131.00  6.1972918E-01
   7131.33  5.9217300E-01
   7131.67  5.6893908E-01
   7132.00  5.5269130E-01
   7132.33  5.4578554E-01
   7132.67  5.4616751E-01
   7133.00  5.5126449E-01
   7133.33  5.5731575E-01
   7133.67  5.6149381E-01
   7134.00  5.6345403E-01
   7134.33  5.6400939E-01
   7134.67  5.6370363E-01
   7135.00  5.6201651E-01
   7135.33  5.5847592E-01
   7135.67  5.5393014E-01
   7136.00  5.4904848E-01
   7136.33  5.4419110E-01
   7136.67  5.3945991E-01
   7137.00  5.3506693E-01
   7137.33  5.3163097E-01
   7137.67  5.2964753E-01
   7138.00  5.2946206E-01
   7138.33  5.3135025E-01
   7138.67  5.3480263E-01
   7139.00  5.3944329E-01
   7139.33  5.4489931E-01
   7139.67  5.5062624E-01
   7140.00  5.5620801E-01
   7140.33  5.6098663E-01
   7140.67  5.6440811E-01
   7141.00  5.6595478E-01
   7141.33  5.6494731E-01
   7141.67  5.6162683E-01
   7142.00  5.5626040E-01
   7142.33  5.4924862E-01
   7142.67  5.4150828E-01
   7143.00  5.3367680E-01
   7143.33  5.2647050E-01
   7143.67  5.2029538E-01
   7144.00  5.1539926E-01
   7144.33  5.1206895E-01
   7144.67  5.1009466E-01
   7145.00  5.0936697E-01
   7145.33  5.0983714E-01
   7145.67  5.1115315E-01
   7146.00  5.1310568E-01
   7146.33  5.1547923E-01
   7146.67  5.1796059E-01
   7147.00  5.2033847E-01
   7147.33  5.2237969E-01
   7147.67  5.2401537E-01
   7148.00  5.2524307E-01
   7148.33  5.2607714E-01
   7148.67  5.2662066E-01
   7149.00  5.2689227E-01
   7149.33  5.2681784E-01
   7149.67  5.2634519E-01
   7150.00  5.2537772E-01
   7150.33  5.2375205E-01
   7150.67  5.2151598E-01
   7151.00  5.1871591E-01
   7151.33  5.1542460E-01
   7151.67  5.1187705E-01
   7152.00  5.0824343E-01
   7152.33  5.0472166E-01
   7152.67  5.0144784E-01
   7153.00  4.9850835E-01
   7153.33  4.9599610E-01
   7153.67  4.9384619E-01
   7154.00  4.9199404E-01
   7154.33  4.9033711E-01
   7154.67  4.8869164E-01
   7155.00  4.8689963E-01
   7155.33  4.8472757E-01
   7155.67  4.8203845E-01
   7156.00  4.7870390E-01
   7156.33  4.7452798E-01
   7156.67  4.6956531E-01
   7157.00  4.6383473E-01
   7157.33  4.5732246E-01
   7157.67  4.5022723E-01
   7158.00  4.4266326E-01
   7158.33  4.3472983E-01
   7158.67  4.2660548E-01
   7159.00  4.1840138E-01
   7159.33  4.1024341E-01
   7159.67  4.0223374E-01
   7160.00  3.9445193E-01
   7160.33  3.8701554E-01
   7160.67  3.7995114E-01
   7161.00  3.7330191E-01
   7161.33  3.6715497E-01
   7161.67  3.6146488E-01
   7162.00  3.5623225E-01
   7162.33  3.5151088E-01
   7162.67  3.4723979E-01
   7163.00  3.4341770E-01
   7163.33  3.4010317E-01
   7163.67  3.3724596E-01
   7164.00  3.3485421E-01
   7164.33  3.3299787E-01
   7164.67  3.3162497E-01
   7165.00  3.3073655E-01
   7165.33  3.3038863E-01
   7165.67  3.3051378E-01
   7166.00  3.3110324E-01
   7166.33  3.3219972E-01
   7166.67  3.3372880E-01
   7167.00  3.3567053E-01
   7167.33  3.3804230E-01
   7167.67  3.4075534E-01
   7168.00  3.4376444E-01
   7168.33  3.4703474E-01
   7168.67  3.5046453E-01
   7169.00  3.5398871E-01
   7169.33  3.5753749E-01
   7169.67  3.6104552E-01
   7170.00  3.6447032E-01
   7170.33  3.6776127E-01
   7170.67  3.7090762E-01
   7171.00  3.7388707E-01
   7171.33  3.7662723E-01
   7171.67  3.7905460E-01
   7172.00  3.8102411E-01
