    FDMNES
    energy     <xanes>
   7097.00  4.5577488E-03
   7097.33  4.6589784E-03
   7097.67  4.7645142E-03
   7098.00  4.8746351E-03
   7098.33  4.9903169E-03
   7098.67  5.1113399E-03
   7099.00  5.2380816E-03
   7099.33  5.3718069E-03
   7099.67  5.5122887E-03
   7100.00  5.6600523E-03
   7100.33  5.8167815E-03
   7100.67  5.9822602E-03
   7101.00  6.1572436E-03
   7101.33  6.3440448E-03
   7101.67  6.5425006E-03
   7102.00  6.7537391E-03
   7102.33  6.9810621E-03
   7102.67  7.2244531E-03
   7103.00  7.4856767E-03
   7103.33  7.7696741E-03
   7103.67  8.0767899E-03
   7104.00  8.4099456E-03
   7104.33  8.7769853E-03
   7104.67  9.1791309E-03
   7105.00  9.6215778E-03
   7105.33  1.0117753E-02
   7105.67  1.0671102E-02
   7106.00  1.1291756E-02
   7106.33  1.2005102E-02
   7106.67  1.2820732E-02
   7107.00  1.3761025E-02
   7107.33  1.4881027E-02
   7107.67  1.6209971E-02
   7108.00  1.7806904E-02
   7108.33  1.9817840E-02
   7108.67  2.2351184E-02
   7109.00  2.5612286E-02
   7109.33  3.0136766E-02
   7109.67  3.6500035E-02
   7110.00  4.5820716E-02
   7110.33  6.1267355E-02
   7110.67  8.6119150E-02
   7111.00  1.2146788E-01
   7111.33  1.6236029E-01
   7111.67  2.1079473E-01
   7112.00  2.6656504E-01
   7112.33  2.9889599E-01
   7112.67  2.9545063E-01
   7113.00  2.6941738E-01
   7113.33  2.3139019E-01
   7113.67  1.8867745E-01
   7114.00  1.5042325E-01
   7114.33  1.2353228E-01
   7114.67  1.0558197E-01
   7115.00  9.4325956E-02
   7115.33  8.8341508E-02
   7115.67  8.5800188E-02
   7116.00  8.6107282E-02
   7116.33  8.9214733E-02
   7116.67  9.4542643E-02
   7117.00  1.0164966E-01
   7117.33  1.0970343E-01
   7117.67  1.1789261E-01
   7118.00  1.2656132E-01
   7118.33  1.3692892E-01
   7118.67  1.4946922E-01
   7119.00  1.6428739E-01
   7119.33  1.8142285E-01
   7119.67  2.0011637E-01
   7120.00  2.1971937E-01
   7120.33  2.3932210E-01
   7120.67  2.5813845E-01
   7121.00  2.7589089E-01
   7121.33  2.9276364E-01
   7121.67  3.0961956E-01
   7122.00  3.2731934E-01
   7122.33  3.4676899E-01
   7122.67  3.6705937E-01
   7123.00  3.8619621E-01
   7123.33  4.0221095E-01
   7123.67  4.1618282E-01
   7124.00  4.2904096E-01
   7124.33  4.4038178E-01
   7124.67  4.4957088E-01
   7125.00  4.5634073E-01
   7125.33  4.6063335E-01
   7125.67  4.6366257E-01
   7126.00  4.6675366E-01
   7126.33  4.7106725E-01
   7126.67  4.7582398E-01
   7127.00  4.7964683E-01
   7127.33  4.8160956E-01
   7127.67  4.8289786E-01
   7128.00  4.8477065E-01
   7128.33  4.8800036E-01
   7128.67  4.9210786E-01
   7129.00  4.9663999E-01
   7129.33  5.0150266E-01
   7129.67  5.0685141E-01
   7130.00  5.1276748E-01
   7130.33  5.1918914E-01
   7130.67  5.2590615E-01
   7131.00  5.3292560E-01
   7131.33  5.4053789E-01
   7131.67  5.4900687E-01
   7132.00  5.5857616E-01
   7132.33  5.6961315E-01
   7132.67  5.8207727E-01
   7133.00  5.9595582E-01
   7133.33  6.1118748E-01
   7133.67  6.2728940E-01
   7134.00  6.4397294E-01
   7134.33  6.6065041E-01
   7134.67  6.7595416E-01
   7135.00  6.8810651E-01
   7135.33  6.9460797E-01
   7135.67  6.9545015E-01
   7136.00  6.9127737E-01
   7136.33  6.8322834E-01
   7136.67  6.7340065E-01
   7137.00  6.6290550E-01
   7137.33  6.5257226E-01
   7137.67  6.4276975E-01
   7138.00  6.3360419E-01
   7138.33  6.2512327E-01
   7138.67  6.1713944E-01
   7139.00  6.0954058E-01
   7139.33  6.0225776E-01
   7139.67  5.9521312E-01
   7140.00  5.8843050E-01
   7140.33  5.8204210E-01
   7140.67  5.7614541E-01
   7141.00  5.7090259E-01
   7141.33  5.6662990E-01
   7141.67  5.6339394E-01
   7142.00  5.6127742E-01
   7142.33  5.6040904E-01
   7142.67  5.6053625E-01
   7143.00  5.6151545E-01
   7143.33  5.6325407E-01
   7143.67  5.6550845E-01
   7144.00  5.6816473E-01
   7144.33  5.7115195E-01
   7144.67  5.7434589E-01
   7145.00  5.7768282E-01
   7145.33  5.8110781E-01
   7145.67  5.8455465E-01
   7146.00  5.8798074E-01
   7146.33  5.9133338E-01
   7146.67  5.9457638E-01
   7147.00  5.9766334E-01
   7147.33  6.0048864E-01
   7147.67  6.0298661E-01
   7148.00  6.0507812E-01
   7148.33  6.0661583E-01
   7148.67  6.0758615E-01
   7149.00  6.0794039E-01
   7149.33  6.0757962E-01
   7149.67  6.0661366E-01
   7150.00  6.0510679E-01
   7150.33  6.0311085E-01
   7150.67  6.0079624E-01
   7151.00  5.9825023E-01
   7151.33  5.9551870E-01
   7151.67  5.9263762E-01
   7152.00  5.8957607E-01
   7152.33  5.8621654E-01
   7152.67  5.8247020E-01
   7153.00  5.7821839E-01
   7153.33  5.7324560E-01
   7153.67  5.6751703E-01
   7154.00  5.6096015E-01
   7154.33  5.5341668E-01
   7154.67  5.4498844E-01
   7155.00  5.3570096E-01
   7155.33  5.2552027E-01
   7155.67  5.1464963E-01
   7156.00  5.0321180E-01
   7156.33  4.9133885E-01
   7156.67  4.7929084E-01
   7157.00  4.6726393E-01
   7157.33  4.5551708E-01
   7157.67  4.4422781E-01
   7158.00  4.3354653E-01
   7158.33  4.2369586E-01
   7158.67  4.1466286E-01
   7159.00  4.0647849E-01
   7159.33  3.9924767E-01
   7159.67  3.9283138E-01
   7160.00  3.8718502E-01
   7160.33  3.8233660E-01
   7160.67  3.7813530E-01
   7161.00  3.7453105E-01
   7161.33  3.7154297E-01
   7161.67  3.6906556E-01
   7162.00  3.6707552E-01
   7162.33  3.6561241E-01
   7162.67  3.6460449E-01
   7163.00  3.6404080E-01
   7163.33  3.6395722E-01
   7163.67  3.6427460E-01
   7164.00  3.6496241E-01
   7164.33  3.6601624E-01
   7164.67  3.6734146E-01
   7165.00  3.6888483E-01
   7165.33  3.7059956E-01
   7165.67  3.7240380E-01
   7166.00  3.7424966E-01
   7166.33  3.7608938E-01
   7166.67  3.7788601E-01
   7167.00  3.7961440E-01
   7167.33  3.8124203E-01
   7167.67  3.8276621E-01
   7168.00  3.8417965E-01
   7168.33  3.8546320E-01
   7168.67  3.8662903E-01
   7169.00  3.8767671E-01
   7169.33  3.8859297E-01
   7169.67  3.8939587E-01
   7170.00  3.9009023E-01
   7170.33  3.9067138E-01
   7170.67  3.9116233E-01
   7171.00  3.9157346E-01
   7171.33  3.9190785E-01
   7171.67  3.9218110E-01
   7172.00  3.9239255E-01
