    FDMNES
    energy     <xanes>
   7097.00  4.1710594E-03
   7097.33  4.2550161E-03
   7097.67  4.3421777E-03
   7098.00  4.4327363E-03
   7098.33  4.5273939E-03
   7098.67  4.6259680E-03
   7099.00  4.7287172E-03
   7099.33  4.8365390E-03
   7099.67  4.9492441E-03
   7100.00  5.0671903E-03
   7100.33  5.1915588E-03
   7100.67  5.3221665E-03
   7101.00  5.4595267E-03
   7101.33  5.6052483E-03
   7101.67  5.7591850E-03
   7102.00  5.9221056E-03
   7102.33  6.0962971E-03
   7102.67  6.2817201E-03
   7103.00  6.4795877E-03
   7103.33  6.6933282E-03
   7103.67  6.9231745E-03
   7104.00  7.1711678E-03
   7104.33  7.4428062E-03
   7104.67  7.7390045E-03
   7105.00  8.0634880E-03
   7105.33  8.4258757E-03
   7105.67  8.8288760E-03
   7106.00  9.2800421E-03
   7106.33  9.7982567E-03
   7106.67  1.0391443E-02
   7107.00  1.1077251E-02
   7107.33  1.1899133E-02
   7107.67  1.2882854E-02
   7108.00  1.4078940E-02
   7108.33  1.5613586E-02
   7108.67  1.7591667E-02
   7109.00  2.0210750E-02
   7109.33  2.4000002E-02
   7109.67  2.9592578E-02
   7110.00  3.8238663E-02
   7110.33  5.3544195E-02
   7110.67  7.8945600E-02
   7111.00  1.1300182E-01
   7111.33  1.3892903E-01
   7111.67  1.4656061E-01
   7112.00  1.4656897E-01
   7112.33  1.4542860E-01
   7112.67  1.3416099E-01
   7113.00  1.1379519E-01
   7113.33  9.9334164E-02
   7113.67  9.3887711E-02
   7114.00  9.1141271E-02
   7114.33  8.0753661E-02
   7114.67  6.5468833E-02
   7115.00  5.3530672E-02
   7115.33  4.7196290E-02
   7115.67  4.4007011E-02
   7116.00  4.2792589E-02
   7116.33  4.2951753E-02
   7116.67  4.3923591E-02
   7117.00  4.5497052E-02
   7117.33  4.7584858E-02
   7117.67  5.0086408E-02
   7118.00  5.3053508E-02
   7118.33  5.6716690E-02
   7118.67  6.1201803E-02
   7119.00  6.6695201E-02
   7119.33  7.3590364E-02
   7119.67  8.2011139E-02
   7120.00  9.2239363E-02
   7120.33  1.0492176E-01
   7120.67  1.2020975E-01
   7121.00  1.3854155E-01
   7121.33  1.6103204E-01
   7121.67  1.8796127E-01
   7122.00  2.1981255E-01
   7122.33  2.5688125E-01
   7122.67  2.9644402E-01
   7123.00  3.3531906E-01
   7123.33  3.7045770E-01
   7123.67  4.0326262E-01
   7124.00  4.3663015E-01
   7124.33  4.7290435E-01
   7124.67  5.0941188E-01
   7125.00  5.4075534E-01
   7125.33  5.5869266E-01
   7125.67  5.6270051E-01
   7126.00  5.5668998E-01
   7126.33  5.4847803E-01
   7126.67  5.4568359E-01
   7127.00  5.5241626E-01
   7127.33  5.7120565E-01
   7127.67  5.9615178E-01
   7128.00  6.1976333E-01
   7128.33  6.3463616E-01
   7128.67  6.4199994E-01
   7129.00  6.4574969E-01
   7129.33  6.5102928E-01
   7129.67  6.6094811E-01
   7130.00  6.7670238E-01
   7130.33  6.9896231E-01
   7130.67  7.2567323E-01
   7131.00  7.5498166E-01
   7131.33  7.8462278E-01
   7131.67  8.1259053E-01
   7132.00  8.3739657E-01
   7132.33  8.5657041E-01
   7132.67  8.6875562E-01
   7133.00  8.7252460E-01
   7133.33  8.6610176E-01
   7133.67  8.5166452E-01
   7134.00  8.3162267E-01
   7134.33  8.0940683E-01
   7134.67  7.8803950E-01
   7135.00  7.6851858E-01
   7135.33  7.5116142E-01
   7135.67  7.3543128E-01
   7136.00  7.2112880E-01
   7136.33  7.0829954E-01
   7136.67  6.9667273E-01
   7137.00  6.8608602E-01
   7137.33  6.7634029E-01
   7137.67  6.6697082E-01
   7138.00  6.5765278E-01
   7138.33  6.4806910E-01
   7138.67  6.3815680E-01
   7139.00  6.2802696E-01
   7139.33  6.1799513E-01
   7139.67  6.0842368E-01
   7140.00  5.9958285E-01
   7140.33  5.9176419E-01
   7140.67  5.8488149E-01
   7141.00  5.7887892E-01
   7141.33  5.7376451E-01
   7141.67  5.6937430E-01
   7142.00  5.6569057E-01
   7142.33  5.6281936E-01
   7142.67  5.6071442E-01
   7143.00  5.5942942E-01
   7143.33  5.5911349E-01
   7143.67  5.5965472E-01
   7144.00  5.6100675E-01
   7144.33  5.6314556E-01
   7144.67  5.6580822E-01
   7145.00  5.6879780E-01
   7145.33  5.7185460E-01
   7145.67  5.7469103E-01
   7146.00  5.7708282E-01
   7146.33  5.7873460E-01
   7146.67  5.7958541E-01
   7147.00  5.7956920E-01
   7147.33  5.7854624E-01
   7147.67  5.7662594E-01
   7148.00  5.7382789E-01
   7148.33  5.7009589E-01
   7148.67  5.6558998E-01
   7149.00  5.6036228E-01
   7149.33  5.5439835E-01
   7149.67  5.4785601E-01
   7150.00  5.4080711E-01
   7150.33  5.3328623E-01
   7150.67  5.2543002E-01
   7151.00  5.1730297E-01
   7151.33  5.0893665E-01
   7151.67  5.0039247E-01
   7152.00  4.9168240E-01
   7152.33  4.8278573E-01
   7152.67  4.7371176E-01
   7153.00  4.6443904E-01
   7153.33  4.5490793E-01
   7153.67  4.4512197E-01
   7154.00  4.3507005E-01
   7154.33  4.2472015E-01
   7154.67  4.1412582E-01
   7155.00  4.0332093E-01
   7155.33  3.9234028E-01
   7155.67  3.8127492E-01
   7156.00  3.7019970E-01
   7156.33  3.5922549E-01
   7156.67  3.4845110E-01
   7157.00  3.3797723E-01
   7157.33  3.2797727E-01
   7157.67  3.1851759E-01
   7158.00  3.0969532E-01
   7158.33  3.0170671E-01
   7158.67  2.9455048E-01
   7159.00  2.8829471E-01
   7159.33  2.8312567E-01
   7159.67  2.7897012E-01
   7160.00  2.7585393E-01
   7160.33  2.7392176E-01
   7160.67  2.7303594E-01
   7161.00  2.7317501E-01
   7161.33  2.7441782E-01
   7161.67  2.7657664E-01
   7162.00  2.7957767E-01
   7162.33  2.8341421E-01
   7162.67  2.8788748E-01
   7163.00  2.9290156E-01
   7163.33  2.9838570E-01
   7163.67  3.0414824E-01
   7164.00  3.1006382E-01
   7164.33  3.1599882E-01
   7164.67  3.2183688E-01
   7165.00  3.2749108E-01
   7165.33  3.3283847E-01
   7165.67  3.3784184E-01
   7166.00  3.4245639E-01
   7166.33  3.4659769E-01
   7166.67  3.5030868E-01
   7167.00  3.5359847E-01
   7167.33  3.5644820E-01
   7167.67  3.5895485E-01
   7168.00  3.6117101E-01
   7168.33  3.6314061E-01
   7168.67  3.6496765E-01
   7169.00  3.6671644E-01
   7169.33  3.6845536E-01
   7169.67  3.7024523E-01
   7170.00  3.7212630E-01
   7170.33  3.7414467E-01
   7170.67  3.7629346E-01
   7171.00  3.7855465E-01
   7171.33  3.8086600E-01
   7171.67  3.8306904E-01
   7172.00  3.8494698E-01
