    FDMNES
    energy     <xanes>
   7097.00  4.4804730E-03
   7097.33  4.5753351E-03
   7097.67  4.6740850E-03
   7098.00  4.7769687E-03
   7098.33  4.8848581E-03
   7098.67  4.9975476E-03
   7099.00  5.1153693E-03
   7099.33  5.2394486E-03
   7099.67  5.3695726E-03
   7100.00  5.5062031E-03
   7100.33  5.6508324E-03
   7100.67  5.8032572E-03
   7101.00  5.9641404E-03
   7101.33  6.1355275E-03
   7101.67  6.3172619E-03
   7102.00  6.5103353E-03
   7102.33  6.7176645E-03
   7102.67  6.9392257E-03
   7103.00  7.1765756E-03
   7103.33  7.4340853E-03
   7103.67  7.7120620E-03
   7104.00  8.0131011E-03
   7104.33  8.3441751E-03
   7104.67  8.7064085E-03
   7105.00  9.1044698E-03
   7105.33  9.5504141E-03
   7105.67  1.0047477E-02
   7106.00  1.0604928E-02
   7106.33  1.1245964E-02
   7106.67  1.1979811E-02
   7107.00  1.2827503E-02
   7107.33  1.3840800E-02
   7107.67  1.5048746E-02
   7108.00  1.6509108E-02
   7108.33  1.8365381E-02
   7108.67  2.0730268E-02
   7109.00  2.3816317E-02
   7109.33  2.8184274E-02
   7109.67  3.4468016E-02
   7110.00  4.3907939E-02
   7110.33  6.0083121E-02
   7110.67  8.6989507E-02
   7111.00  1.2653597E-01
   7111.33  1.7003467E-01
   7111.67  2.0210991E-01
   7112.00  2.1005311E-01
   7112.33  1.9657975E-01
   7112.67  1.8048250E-01
   7113.00  1.6718600E-01
   7113.33  1.5748702E-01
   7113.67  1.4689684E-01
   7114.00  1.3071681E-01
   7114.33  1.0949274E-01
   7114.67  9.0674962E-02
   7115.00  7.8248463E-02
   7115.33  7.3179495E-02
   7115.67  7.3435768E-02
   7116.00  7.8491863E-02
   7116.33  8.9148158E-02
   7116.67  1.0533798E-01
   7117.00  1.2643628E-01
   7117.33  1.4763704E-01
   7117.67  1.6334519E-01
   7118.00  1.7397822E-01
   7118.33  1.8157972E-01
   7118.67  1.8744310E-01
   7119.00  1.9254452E-01
   7119.33  1.9824025E-01
   7119.67  2.0514276E-01
   7120.00  2.1353355E-01
   7120.33  2.2398419E-01
   7120.67  2.3647268E-01
   7121.00  2.5087320E-01
   7121.33  2.6673451E-01
   7121.67  2.8284560E-01
   7122.00  2.9831602E-01
   7122.33  3.1266196E-01
   7122.67  3.2642152E-01
   7123.00  3.3987091E-01
   7123.33  3.5168145E-01
   7123.67  3.5958976E-01
   7124.00  3.6373773E-01
   7124.33  3.6906170E-01
   7124.67  3.7994840E-01
   7125.00  3.9644367E-01
   7125.33  4.1482909E-01
   7125.67  4.3009733E-01
   7126.00  4.4050469E-01
   7126.33  4.4685519E-01
   7126.67  4.5155523E-01
   7127.00  4.5533248E-01
   7127.33  4.5827059E-01
   7127.67  4.6069627E-01
   7128.00  4.6301040E-01
   7128.33  4.6592467E-01
   7128.67  4.7006957E-01
   7129.00  4.7586818E-01
   7129.33  4.8370279E-01
   7129.67  4.9340683E-01
   7130.00  5.0516228E-01
   7130.33  5.1939257E-01
   7130.67  5.3551542E-01
   7131.00  5.5273885E-01
   7131.33  5.6944882E-01
   7131.67  5.8375610E-01
   7132.00  5.9428122E-01
   7132.33  6.0013171E-01
   7132.67  6.0299105E-01
   7133.00  6.0452289E-01
   7133.33  6.0666409E-01
   7133.67  6.1092098E-01
   7134.00  6.1869846E-01
   7134.33  6.3250534E-01
   7134.67  6.5271361E-01
   7135.00  6.7846317E-01
   7135.33  7.0705759E-01
   7135.67  7.3448859E-01
   7136.00  7.5806712E-01
   7136.33  7.7481643E-01
   7136.67  7.8423989E-01
   7137.00  7.8602888E-01
   7137.33  7.7983307E-01
   7137.67  7.6788845E-01
   7138.00  7.5174282E-01
   7138.33  7.3298437E-01
   7138.67  7.1354984E-01
   7139.00  6.9453672E-01
   7139.33  6.7700374E-01
   7139.67  6.6132555E-01
   7140.00  6.4774493E-01
   7140.33  6.3663666E-01
   7140.67  6.2769167E-01
   7141.00  6.2080207E-01
   7141.33  6.1597892E-01
   7141.67  6.1265687E-01
   7142.00  6.1045672E-01
   7142.33  6.0895105E-01
   7142.67  6.0756112E-01
   7143.00  6.0591559E-01
   7143.33  6.0363593E-01
   7143.67  6.0065020E-01
   7144.00  5.9696515E-01
   7144.33  5.9262142E-01
   7144.67  5.8785542E-01
   7145.00  5.8280324E-01
   7145.33  5.7757041E-01
   7145.67  5.7226538E-01
   7146.00  5.6694314E-01
   7146.33  5.6165488E-01
   7146.67  5.5642540E-01
   7147.00  5.5126072E-01
   7147.33  5.4615615E-01
   7147.67  5.4108554E-01
   7148.00  5.3603061E-01
   7148.33  5.3098704E-01
   7148.67  5.2597696E-01
   7149.00  5.2103671E-01
   7149.33  5.1623971E-01
   7149.67  5.1163136E-01
   7150.00  5.0725268E-01
   7150.33  5.0316715E-01
   7150.67  4.9935537E-01
   7151.00  4.9581350E-01
   7151.33  4.9255199E-01
   7151.67  4.8950208E-01
   7152.00  4.8661954E-01
   7152.33  4.8385821E-01
   7152.67  4.8114379E-01
   7153.00  4.7843099E-01
   7153.33  4.7567367E-01
   7153.67  4.7284713E-01
   7154.00  4.6993870E-01
   7154.33  4.6693839E-01
   7154.67  4.6386782E-01
   7155.00  4.6074054E-01
   7155.33  4.5756524E-01
   7155.67  4.5435571E-01
   7156.00  4.5111454E-01
   7156.33  4.4783829E-01
   7156.67  4.4453455E-01
   7157.00  4.4121403E-01
   7157.33  4.3790241E-01
   7157.67  4.3463787E-01
   7158.00  4.3146503E-01
   7158.33  4.2846466E-01
   7158.67  4.2568574E-01
   7159.00  4.2318794E-01
   7159.33  4.2108160E-01
   7159.67  4.1938083E-01
   7160.00  4.1811775E-01
   7160.33  4.1736176E-01
   7160.67  4.1704496E-01
   7161.00  4.1714057E-01
   7161.33  4.1764538E-01
   7161.67  4.1844270E-01
   7162.00  4.1946054E-01
   7162.33  4.2064345E-01
   7162.67  4.2191068E-01
   7163.00  4.2321570E-01
   7163.33  4.2451275E-01
   7163.67  4.2576768E-01
   7164.00  4.2695802E-01
   7164.33  4.2805584E-01
   7164.67  4.2906235E-01
   7165.00  4.2997608E-01
   7165.33  4.3079167E-01
   7165.67  4.3153399E-01
   7166.00  4.3222132E-01
   7166.33  4.3287723E-01
   7166.67  4.3353542E-01
   7167.00  4.3422136E-01
   7167.33  4.3496813E-01
   7167.67  4.3578842E-01
   7168.00  4.3669090E-01
   7168.33  4.3768622E-01
   7168.67  4.3875450E-01
   7169.00  4.3988035E-01
   7169.33  4.4104425E-01
   7169.67  4.4221498E-01
   7170.00  4.4336913E-01
   7170.33  4.4447622E-01
   7170.67  4.4551975E-01
   7171.00  4.4648366E-01
   7171.33  4.4733699E-01
   7171.67  4.4806750E-01
   7172.00  4.4864641E-01
