    FDMNES
    energy     <xanes>
   7097.00  4.5937266E-03
   7097.33  4.6931945E-03
   7097.67  4.7967996E-03
   7098.00  4.9048062E-03
   7098.33  5.0181464E-03
   7098.67  5.1366051E-03
   7099.00  5.2605401E-03
   7099.33  5.3911579E-03
   7099.67  5.5282369E-03
   7100.00  5.6722760E-03
   7100.33  5.8248802E-03
   7100.67  5.9858404E-03
   7101.00  6.1558759E-03
   7101.33  6.3371946E-03
   7101.67  6.5296425E-03
   7102.00  6.7343004E-03
   7102.33  6.9543314E-03
   7102.67  7.1897338E-03
   7103.00  7.4422136E-03
   7103.33  7.7165384E-03
   7103.67  8.0130847E-03
   7104.00  8.3347161E-03
   7104.33  8.6890918E-03
   7104.67  9.0775234E-03
   7105.00  9.5052046E-03
   7105.33  9.9854978E-03
   7105.67  1.0522141E-02
   7106.00  1.1125552E-02
   7106.33  1.1821739E-02
   7106.67  1.2621378E-02
   7107.00  1.3548421E-02
   7107.33  1.4661736E-02
   7107.67  1.5995221E-02
   7108.00  1.7615719E-02
   7108.33  1.9689434E-02
   7108.67  2.2349708E-02
   7109.00  2.5847364E-02
   7109.33  3.0846414E-02
   7109.67  3.8109737E-02
   7110.00  4.9132852E-02
   7110.33  6.8258016E-02
   7110.67  1.0048746E-01
   7111.00  1.4872812E-01
   7111.33  2.0104266E-01
   7111.67  2.2462478E-01
   7112.00  2.0986735E-01
   7112.33  1.9237787E-01
   7112.67  1.8490760E-01
   7113.00  1.8009670E-01
   7113.33  1.7034517E-01
   7113.67  1.5155895E-01
   7114.00  1.2472363E-01
   7114.33  9.9947615E-02
   7114.67  8.2651599E-02
   7115.00  7.2262879E-02
   7115.33  6.7611398E-02
   7115.67  6.7069844E-02
   7116.00  7.0556296E-02
   7116.33  7.9246195E-02
   7116.67  9.3236709E-02
   7117.00  1.1163746E-01
   7117.33  1.3049568E-01
   7117.67  1.4722538E-01
   7118.00  1.6240082E-01
   7118.33  1.7454159E-01
   7118.67  1.8276636E-01
   7119.00  1.8934644E-01
   7119.33  1.9903578E-01
   7119.67  2.1411515E-01
   7120.00  2.3487414E-01
   7120.33  2.6061175E-01
   7120.67  2.8821069E-01
   7121.00  3.1478219E-01
   7121.33  3.3658706E-01
   7121.67  3.5239584E-01
   7122.00  3.6260229E-01
   7122.33  3.6901961E-01
   7122.67  3.7448356E-01
   7123.00  3.8018862E-01
   7123.33  3.8672115E-01
   7123.67  3.9452802E-01
   7124.00  4.0443780E-01
   7124.33  4.1720805E-01
   7124.67  4.3168106E-01
   7125.00  4.4657646E-01
   7125.33  4.6069712E-01
   7125.67  4.7390246E-01
   7126.00  4.8632572E-01
   7126.33  4.9737914E-01
   7126.67  5.0638616E-01
   7127.00  5.1344302E-01
   7127.33  5.1979867E-01
   7127.67  5.2693082E-01
   7128.00  5.3504999E-01
   7128.33  5.4317465E-01
   7128.67  5.5044705E-01
   7129.00  5.5727359E-01
   7129.33  5.6512493E-01
   7129.67  5.7476458E-01
   7130.00  5.8596358E-01
   7130.33  5.9767617E-01
   7130.67  6.0856231E-01
   7131.00  6.1782171E-01
   7131.33  6.2479080E-01
   7131.67  6.2975636E-01
   7132.00  6.3292501E-01
   7132.33  6.3440903E-01
   7132.67  6.3468576E-01
   7133.00  6.3396484E-01
   7133.33  6.3237550E-01
   7133.67  6.3036500E-01
   7134.00  6.2848239E-01
   7134.33  6.2780244E-01
   7134.67  6.2909828E-01
   7135.00  6.3284494E-01
   7135.33  6.3962047E-01
   7135.67  6.4908286E-01
   7136.00  6.6100369E-01
   7136.33  6.7506297E-01
   7136.67  6.9014712E-01
   7137.00  7.0524710E-01
   7137.33  7.1879821E-01
   7137.67  7.2965655E-01
   7138.00  7.3710734E-01
   7138.33  7.4058529E-01
   7138.67  7.4096148E-01
   7139.00  7.3872669E-01
   7139.33  7.3410651E-01
   7139.67  7.2776870E-01
   7140.00  7.2002589E-01
   7140.33  7.1104876E-01
   7140.67  7.0116200E-01
   7141.00  6.9041115E-01
   7141.33  6.7865688E-01
   7141.67  6.6598511E-01
   7142.00  6.5244466E-01
   7142.33  6.3812492E-01
   7142.67  6.2338177E-01
   7143.00  6.0845808E-01
   7143.33  5.9357835E-01
   7143.67  5.7884981E-01
   7144.00  5.6428764E-01
   7144.33  5.4986691E-01
   7144.67  5.3551751E-01
   7145.00  5.2121506E-01
   7145.33  5.0698884E-01
   7145.67  4.9291523E-01
   7146.00  4.7911869E-01
   7146.33  4.6585445E-01
   7146.67  4.5329863E-01
   7147.00  4.4166734E-01
   7147.33  4.3135096E-01
   7147.67  4.2241007E-01
   7148.00  4.1495856E-01
   7148.33  4.0922420E-01
   7148.67  4.0497370E-01
   7149.00  4.0212382E-01
   7149.33  4.0068833E-01
   7149.67  4.0033555E-01
   7150.00  4.0090657E-01
   7150.33  4.0231337E-01
   7150.67  4.0429888E-01
   7151.00  4.0674054E-01
   7151.33  4.0955685E-01
   7151.67  4.1258927E-01
   7152.00  4.1572437E-01
   7152.33  4.1881732E-01
   7152.67  4.2173324E-01
   7153.00  4.2434429E-01
   7153.33  4.2644146E-01
   7153.67  4.2796209E-01
   7154.00  4.2885026E-01
   7154.33  4.2902482E-01
   7154.67  4.2862990E-01
   7155.00  4.2776380E-01
   7155.33  4.2652881E-01
   7155.67  4.2511766E-01
   7156.00  4.2365407E-01
   7156.33  4.2227520E-01
   7156.67  4.2107761E-01
   7157.00  4.2013470E-01
   7157.33  4.1955121E-01
   7157.67  4.1933026E-01
   7158.00  4.1949253E-01
   7158.33  4.2009414E-01
   7158.67  4.2107964E-01
   7159.00  4.2243488E-01
   7159.33  4.2417702E-01
   7159.67  4.2622716E-01
   7160.00  4.2854554E-01
   7160.33  4.3109849E-01
   7160.67  4.3378481E-01
   7161.00  4.3652884E-01
   7161.33  4.3923141E-01
   7161.67  4.4180013E-01
   7162.00  4.4414998E-01
   7162.33  4.4615687E-01
   7162.67  4.4780677E-01
   7163.00  4.4907872E-01
   7163.33  4.4992257E-01
   7163.67  4.5040318E-01
   7164.00  4.5054804E-01
   7164.33  4.5036353E-01
   7164.67  4.4993648E-01
   7165.00  4.4931205E-01
   7165.33  4.4852323E-01
   7165.67  4.4763487E-01
   7166.00  4.4668185E-01
   7166.33  4.4569470E-01
   7166.67  4.4470474E-01
   7167.00  4.4373062E-01
   7167.33  4.4279306E-01
   7167.67  4.4190023E-01
   7168.00  4.4106019E-01
   7168.33  4.4028821E-01
   7168.67  4.3958343E-01
   7169.00  4.3895148E-01
   7169.33  4.3840934E-01
   7169.67  4.3795435E-01
   7170.00  4.3759277E-01
   7170.33  4.3734417E-01
   7170.67  4.3720109E-01
   7171.00  4.3716356E-01
   7171.33  4.3723303E-01
   7171.67  4.3736628E-01
   7172.00  4.3751316E-01
