    FDMNES
    energy     <xanes>
   7097.00  5.1450926E-03
   7097.33  5.2756873E-03
   7097.67  5.4124991E-03
   7098.00  5.5559555E-03
   7098.33  5.7075054E-03
   7098.67  5.8668612E-03
   7099.00  6.0346028E-03
   7099.33  6.2126241E-03
   7099.67  6.4006257E-03
   7100.00  6.5994140E-03
   7100.33  6.8115222E-03
   7100.67  7.0366633E-03
   7101.00  7.2759890E-03
   7101.33  7.5329820E-03
   7101.67  7.8074202E-03
   7102.00  8.1010027E-03
   7102.33  8.4186752E-03
   7102.67  8.7603953E-03
   7103.00  9.1287687E-03
   7103.33  9.5310981E-03
   7103.67  9.9677763E-03
   7104.00  1.0442991E-02
   7104.33  1.0968058E-02
   7104.67  1.1544394E-02
   7105.00  1.2179139E-02
   7105.33  1.2890927E-02
   7105.67  1.3683659E-02
   7106.00  1.4570474E-02
   7106.33  1.5584636E-02
   7106.67  1.6736516E-02
   7107.00  1.8052958E-02
   7107.33  1.9600431E-02
   7107.67  2.1408480E-02
   7108.00  2.3541069E-02
   7108.33  2.6155933E-02
   7108.67  2.9353257E-02
   7109.00  3.3329017E-02
   7109.33  3.8585827E-02
   7109.67  4.5603329E-02
   7110.00  5.5315888E-02
   7110.33  7.0330647E-02
   7110.67  9.3335515E-02
   7111.00  1.2595060E-01
   7111.33  1.6549206E-01
   7111.67  2.0645985E-01
   7112.00  2.4797267E-01
   7112.33  3.0193541E-01
   7112.67  3.7677375E-01
   7113.00  4.7332691E-01
   7113.33  5.9039581E-01
   7113.67  7.1582857E-01
   7114.00  8.1905233E-01
   7114.33  8.1789273E-01
   7114.67  6.9896566E-01
   7115.00  5.3177221E-01
   7115.33  3.9467299E-01
   7115.67  2.9803516E-01
   7116.00  2.3317710E-01
   7116.33  1.9173410E-01
   7116.67  1.6358307E-01
   7117.00  1.4468700E-01
   7117.33  1.3297328E-01
   7117.67  1.2587610E-01
   7118.00  1.2230148E-01
   7118.33  1.2166060E-01
   7118.67  1.2268103E-01
   7119.00  1.2433659E-01
   7119.33  1.2607959E-01
   7119.67  1.2801725E-01
   7120.00  1.3031670E-01
   7120.33  1.3312182E-01
   7120.67  1.3582720E-01
   7121.00  1.3734118E-01
   7121.33  1.3642429E-01
   7121.67  1.3413656E-01
   7122.00  1.3235049E-01
   7122.33  1.3298390E-01
   7122.67  1.3624876E-01
   7123.00  1.4222354E-01
   7123.33  1.5158476E-01
   7123.67  1.6452464E-01
   7124.00  1.8156458E-01
   7124.33  2.0359245E-01
   7124.67  2.2977466E-01
   7125.00  2.5929301E-01
   7125.33  2.9098615E-01
   7125.67  3.2253012E-01
   7126.00  3.5128885E-01
   7126.33  3.7348230E-01
   7126.67  3.8850837E-01
   7127.00  3.9697276E-01
   7127.33  4.0011376E-01
   7127.67  4.0039529E-01
   7128.00  3.9910453E-01
   7128.33  3.9752211E-01
   7128.67  3.9711160E-01
   7129.00  3.9923846E-01
   7129.33  4.0551083E-01
   7129.67  4.1550646E-01
   7130.00  4.2848662E-01
   7130.33  4.4386261E-01
   7130.67  4.6120533E-01
   7131.00  4.8097033E-01
   7131.33  5.0454502E-01
   7131.67  5.3247016E-01
   7132.00  5.6506443E-01
   7132.33  6.0204107E-01
   7132.67  6.4056001E-01
   7133.00  6.7727315E-01
   7133.33  7.0636328E-01
   7133.67  7.2385443E-01
   7134.00  7.2709941E-01
   7134.33  7.1428193E-01
   7134.67  6.9044647E-01
   7135.00  6.5986944E-01
   7135.33  6.2711233E-01
   7135.67  5.9574508E-01
   7136.00  5.6720045E-01
   7136.33  5.4234810E-01
   7136.67  5.2052574E-01
   7137.00  5.0120006E-01
   7137.33  4.8371382E-01
   7137.67  4.6696426E-01
   7138.00  4.5044472E-01
   7138.33  4.3430179E-01
   7138.67  4.1941519E-01
   7139.00  4.0684798E-01
   7139.33  3.9786905E-01
   7139.67  3.9224454E-01
   7140.00  3.8966914E-01
   7140.33  3.8986956E-01
   7140.67  3.9194191E-01
   7141.00  3.9547321E-01
   7141.33  4.0030528E-01
   7141.67  4.0619304E-01
   7142.00  4.1318429E-01
   7142.33  4.2159320E-01
   7142.67  4.3147157E-01
   7143.00  4.4300507E-01
   7143.33  4.5661592E-01
   7143.67  4.7220998E-01
   7144.00  4.8984386E-01
   7144.33  5.0976477E-01
   7144.67  5.3166055E-01
   7145.00  5.5547218E-01
   7145.33  5.8138620E-01
   7145.67  6.0916726E-01
   7146.00  6.3884782E-01
   7146.33  6.7069812E-01
   7146.67  7.0438539E-01
   7147.00  7.3962091E-01
   7147.33  7.7581367E-01
   7147.67  8.1173044E-01
   7148.00  8.4611631E-01
   7148.33  8.7695400E-01
   7148.67  9.0307930E-01
   7149.00  9.2339259E-01
   7149.33  9.3622655E-01
   7149.67  9.4212297E-01
   7150.00  9.4124462E-01
   7150.33  9.3337909E-01
   7150.67  9.2013495E-01
   7151.00  9.0234928E-01
   7151.33  8.8063241E-01
   7151.67  8.5649872E-01
   7152.00  8.3086611E-01
   7152.33  8.0468581E-01
   7152.67  7.7886737E-01
   7153.00  7.5393459E-01
   7153.33  7.3048371E-01
   7153.67  7.0866256E-01
   7154.00  6.8865299E-01
   7154.33  6.7080300E-01
   7154.67  6.5487716E-01
   7155.00  6.4081108E-01
   7155.33  6.2869205E-01
   7155.67  6.1815096E-01
   7156.00  6.0905805E-01
   7156.33  6.0143005E-01
   7156.67  5.9495241E-01
   7157.00  5.8947750E-01
   7157.33  5.8490377E-01
   7157.67  5.8090486E-01
   7158.00  5.7728398E-01
   7158.33  5.7385563E-01
   7158.67  5.7043934E-01
   7159.00  5.6694808E-01
   7159.33  5.6332494E-01
   7159.67  5.5960038E-01
   7160.00  5.5582472E-01
   7160.33  5.5208623E-01
   7160.67  5.4847489E-01
   7161.00  5.4506858E-01
   7161.33  5.4197741E-01
   7161.67  5.3920157E-01
   7162.00  5.3672444E-01
   7162.33  5.3452179E-01
   7162.67  5.3246951E-01
   7163.00  5.3045016E-01
   7163.33  5.2827488E-01
   7163.67  5.2577057E-01
   7164.00  5.2277558E-01
   7164.33  5.1903959E-01
   7164.67  5.1451515E-01
   7165.00  5.0913034E-01
   7165.33  5.0273980E-01
   7165.67  4.9547594E-01
   7166.00  4.8739782E-01
   7166.33  4.7853004E-01
   7166.67  4.6910870E-01
   7167.00  4.5927389E-01
   7167.33  4.4917146E-01
   7167.67  4.3901887E-01
   7168.00  4.2896885E-01
   7168.33  4.1920786E-01
   7168.67  4.0982588E-01
   7169.00  4.0089980E-01
   7169.33  3.9255359E-01
   7169.67  3.8475594E-01
   7170.00  3.7751895E-01
   7170.33  3.7091487E-01
   7170.67  3.6487250E-01
   7171.00  3.5939828E-01
   7171.33  3.5459930E-01
   7171.67  3.5048808E-01
   7172.00  3.4719376E-01
