    FDMNES
    energy     <xanes>
   7097.00  4.9232706E-03
   7097.33  5.0465158E-03
   7097.67  5.1757438E-03
   7098.00  5.3113859E-03
   7098.33  5.4548711E-03
   7098.67  5.6059526E-03
   7099.00  5.7652268E-03
   7099.33  5.9345930E-03
   7099.67  6.1138094E-03
   7100.00  6.3037240E-03
   7100.33  6.5069305E-03
   7100.67  6.7232290E-03
   7101.00  6.9538638E-03
   7101.33  7.2024926E-03
   7101.67  7.4690372E-03
   7102.00  7.7553939E-03
   7102.33  8.0669221E-03
   7102.67  8.4038411E-03
   7103.00  8.7691741E-03
   7103.33  9.1711484E-03
   7103.67  9.6106794E-03
   7104.00  1.0092863E-02
   7104.33  1.0631078E-02
   7104.67  1.1227894E-02
   7105.00  1.1892522E-02
   7105.33  1.2648381E-02
   7105.67  1.3502195E-02
   7106.00  1.4472188E-02
   7106.33  1.5603561E-02
   7106.67  1.6914508E-02
   7107.00  1.8445859E-02
   7107.33  2.0297516E-02
   7107.67  2.2524585E-02
   7108.00  2.5236496E-02
   7108.33  2.8703664E-02
   7108.67  3.3132223E-02
   7109.00  3.8910851E-02
   7109.33  4.7057526E-02
   7109.67  5.8690781E-02
   7110.00  7.5993200E-02
   7110.33  1.0522553E-01
   7110.67  1.5331268E-01
   7111.00  2.2356870E-01
   7111.33  2.9869280E-01
   7111.67  3.5547094E-01
   7112.00  3.9739750E-01
   7112.33  4.3959612E-01
   7112.67  4.8500847E-01
   7113.00  5.2031110E-01
   7113.33  5.0855570E-01
   7113.67  4.5438581E-01
   7114.00  3.7892002E-01
   7114.33  2.9303758E-01
   7114.67  2.2060144E-01
   7115.00  1.7350712E-01
   7115.33  1.5066752E-01
   7115.67  1.4150462E-01
   7116.00  1.3732221E-01
   7116.33  1.2906919E-01
   7116.67  1.1944899E-01
   7117.00  1.1093502E-01
   7117.33  1.0292487E-01
   7117.67  9.5819128E-02
   7118.00  9.0746092E-02
   7118.33  8.8701021E-02
   7118.67  8.8685837E-02
   7119.00  8.9243161E-02
   7119.33  8.9518239E-02
   7119.67  9.0061050E-02
   7120.00  9.0900832E-02
   7120.33  9.2222452E-02
   7120.67  9.4865269E-02
   7121.00  9.8472396E-02
   7121.33  1.0027844E-01
   7121.67  9.9097090E-02
   7122.00  9.6977193E-02
   7122.33  9.6885709E-02
   7122.67  9.9615526E-02
   7123.00  1.0522111E-01
   7123.33  1.1372849E-01
   7123.67  1.2426330E-01
   7124.00  1.3624745E-01
   7124.33  1.4937773E-01
   7124.67  1.6373665E-01
   7125.00  1.7994637E-01
   7125.33  1.9894305E-01
   7125.67  2.2038701E-01
   7126.00  2.4371557E-01
   7126.33  2.6839552E-01
   7126.67  2.9428528E-01
   7127.00  3.2178157E-01
   7127.33  3.5093351E-01
   7127.67  3.8034093E-01
   7128.00  4.0860206E-01
   7128.33  4.3444647E-01
   7128.67  4.5817325E-01
   7129.00  4.8045425E-01
   7129.33  5.0238664E-01
   7129.67  5.2504230E-01
   7130.00  5.4863045E-01
   7130.33  5.7231856E-01
   7130.67  5.9535977E-01
   7131.00  6.1866338E-01
   7131.33  6.4522653E-01
   7131.67  6.7663086E-01
   7132.00  7.1270779E-01
   7132.33  7.5209884E-01
   7132.67  7.9236531E-01
   7133.00  8.3170147E-01
   7133.33  8.6673930E-01
   7133.67  8.9439867E-01
   7134.00  9.1277674E-01
   7134.33  9.2102746E-01
   7134.67  9.2137851E-01
   7135.00  9.1419387E-01
   7135.33  8.9925667E-01
   7135.67  8.7927188E-01
   7136.00  8.5625536E-01
   7136.33  8.3160664E-01
   7136.67  8.0586847E-01
   7137.00  7.7885604E-01
   7137.33  7.5041730E-01
   7137.67  7.2129537E-01
   7138.00  6.9234109E-01
   7138.33  6.6478521E-01
   7138.67  6.3937116E-01
   7139.00  6.1661352E-01
   7139.33  5.9715598E-01
   7139.67  5.8063236E-01
   7140.00  5.6691332E-01
   7140.33  5.5612997E-01
   7140.67  5.4779750E-01
   7141.00  5.4185268E-01
   7141.33  5.3862390E-01
   7141.67  5.3790660E-01
   7142.00  5.3977606E-01
   7142.33  5.4456268E-01
   7142.67  5.5184232E-01
   7143.00  5.6145809E-01
   7143.33  5.7340655E-01
   7143.67  5.8705373E-01
   7144.00  6.0196604E-01
   7144.33  6.1758912E-01
   7144.67  6.3311785E-01
   7145.00  6.4790878E-01
   7145.33  6.6107364E-01
   7145.67  6.7218686E-01
   7146.00  6.8084698E-01
   7146.33  6.8642366E-01
   7146.67  6.8919489E-01
   7147.00  6.8928518E-01
   7147.33  6.8671507E-01
   7147.67  6.8219367E-01
   7148.00  6.7608558E-01
   7148.33  6.6862590E-01
   7148.67  6.6027912E-01
   7149.00  6.5126020E-01
   7149.33  6.4172574E-01
   7149.67  6.3192943E-01
   7150.00  6.2202989E-01
   7150.33  6.1219557E-01
   7150.67  6.0254063E-01
   7151.00  5.9313306E-01
   7151.33  5.8404811E-01
   7151.67  5.7525740E-01
   7152.00  5.6676437E-01
   7152.33  5.5863519E-01
   7152.67  5.5088525E-01
   7153.00  5.4358256E-01
   7153.33  5.3688456E-01
   7153.67  5.3081000E-01
   7154.00  5.2541759E-01
   7154.33  5.2083921E-01
   7154.67  5.1698989E-01
   7155.00  5.1384409E-01
   7155.33  5.1143375E-01
   7155.67  5.0962051E-01
   7156.00  5.0835210E-01
   7156.33  5.0762884E-01
   7156.67  5.0733280E-01
   7157.00  5.0741420E-01
   7157.33  5.0784692E-01
   7157.67  5.0851281E-01
   7158.00  5.0932945E-01
   7158.33  5.1018814E-01
   7158.67  5.1095852E-01
   7159.00  5.1152630E-01
   7159.33  5.1171345E-01
   7159.67  5.1143781E-01
   7160.00  5.1061209E-01
   7160.33  5.0909180E-01
   7160.67  5.0692159E-01
   7161.00  5.0409532E-01
   7161.33  5.0055306E-01
   7161.67  4.9641803E-01
   7162.00  4.9173921E-01
   7162.33  4.8651868E-01
   7162.67  4.8087807E-01
   7163.00  4.7486621E-01
   7163.33  4.6849420E-01
   7163.67  4.6184871E-01
   7164.00  4.5496848E-01
   7164.33  4.4787431E-01
   7164.67  4.4063647E-01
   7165.00  4.3329868E-01
   7165.33  4.2591222E-01
   7165.67  4.1854546E-01
   7166.00  4.1125515E-01
   7166.33  4.0412362E-01
   7166.67  3.9719475E-01
   7167.00  3.9051769E-01
   7167.33  3.8418206E-01
   7167.67  3.7819958E-01
   7168.00  3.7261116E-01
   7168.33  3.6751152E-01
   7168.67  3.6288360E-01
   7169.00  3.5875938E-01
   7169.33  3.5524057E-01
   7169.67  3.5228772E-01
   7170.00  3.4991684E-01
   7170.33  3.4820745E-01
   7170.67  3.4707271E-01
   7171.00  3.4647868E-01
   7171.33  3.4640080E-01
   7171.67  3.4662405E-01
   7172.00  3.4693478E-01
