    FDMNES
    energy     <xanes>
   7097.00  4.9454889E-03
   7097.33  5.0677554E-03
   7097.67  5.1959425E-03
   7098.00  5.3304799E-03
   7098.33  5.4727876E-03
   7098.67  5.6226265E-03
   7099.00  5.7805936E-03
   7099.33  5.9485828E-03
   7099.67  6.1263645E-03
   7100.00  6.3147923E-03
   7100.33  6.5164652E-03
   7100.67  6.7312036E-03
   7101.00  6.9602698E-03
   7101.33  7.2073526E-03
   7101.67  7.4724111E-03
   7102.00  7.7573871E-03
   7102.33  8.0677333E-03
   7102.67  8.4037435E-03
   7103.00  8.7685511E-03
   7103.33  9.1706241E-03
   7103.67  9.6110418E-03
   7104.00  1.0095167E-02
   7104.33  1.0636985E-02
   7104.67  1.1239461E-02
   7105.00  1.1912481E-02
   7105.33  1.2681032E-02
   7105.67  1.3552899E-02
   7106.00  1.4548156E-02
   7106.33  1.5716354E-02
   7106.67  1.7078941E-02
   7107.00  1.8682415E-02
   7107.33  2.0640382E-02
   7107.67  2.3019739E-02
   7108.00  2.5950702E-02
   7108.33  2.9756257E-02
   7108.67  3.4697479E-02
   7109.00  4.1263838E-02
   7109.33  5.0751240E-02
   7109.67  6.4654852E-02
   7110.00  8.5907222E-02
   7110.33  1.2300615E-01
   7110.67  1.8531616E-01
   7111.00  2.7520415E-01
   7111.33  3.5850759E-01
   7111.67  4.0791671E-01
   7112.00  4.3078745E-01
   7112.33  4.3193638E-01
   7112.67  4.1371019E-01
   7113.00  3.6984771E-01
   7113.33  3.0485019E-01
   7113.67  2.4668865E-01
   7114.00  2.0861825E-01
   7114.33  1.9691936E-01
   7114.67  2.0683964E-01
   7115.00  2.2437572E-01
   7115.33  2.1346179E-01
   7115.67  1.7808488E-01
   7116.00  1.4230839E-01
   7116.33  1.1958268E-01
   7116.67  1.0686212E-01
   7117.00  1.0129407E-01
   7117.33  1.0158592E-01
   7117.67  1.0612522E-01
   7118.00  1.1401441E-01
   7118.33  1.2354643E-01
   7118.67  1.3183620E-01
   7119.00  1.3640352E-01
   7119.33  1.3502191E-01
   7119.67  1.3012006E-01
   7120.00  1.2398568E-01
   7120.33  1.1781061E-01
   7120.67  1.1248878E-01
   7121.00  1.0885832E-01
   7121.33  1.0753356E-01
   7121.67  1.0806655E-01
   7122.00  1.1038198E-01
   7122.33  1.1503931E-01
   7122.67  1.2226031E-01
   7123.00  1.3241928E-01
   7123.33  1.4629228E-01
   7123.67  1.6339873E-01
   7124.00  1.8254944E-01
   7124.33  2.0058926E-01
   7124.67  2.1509895E-01
   7125.00  2.2625897E-01
   7125.33  2.3582002E-01
   7125.67  2.4532200E-01
   7126.00  2.5525816E-01
   7126.33  2.6644979E-01
   7126.67  2.7966089E-01
   7127.00  2.9564415E-01
   7127.33  3.1540239E-01
   7127.67  3.3839481E-01
   7128.00  3.6407325E-01
   7128.33  3.9231438E-01
   7128.67  4.2305505E-01
   7129.00  4.5714827E-01
   7129.33  4.9646946E-01
   7129.67  5.3996987E-01
   7130.00  5.8476719E-01
   7130.33  6.2588830E-01
   7130.67  6.6177257E-01
   7131.00  6.9419975E-01
   7131.33  7.2648078E-01
   7131.67  7.6035207E-01
   7132.00  7.9548249E-01
   7132.33  8.2992205E-01
   7132.67  8.6144807E-01
   7133.00  8.8865171E-01
   7133.33  9.1027249E-01
   7133.67  9.2692022E-01
   7134.00  9.3843038E-01
   7134.33  9.4300456E-01
   7134.67  9.3988411E-01
   7135.00  9.2846345E-01
   7135.33  9.0861033E-01
   7135.67  8.8291190E-01
   7136.00  8.5263360E-01
   7136.33  8.1833423E-01
   7136.67  7.8126878E-01
   7137.00  7.4226532E-01
   7137.33  7.0247096E-01
   7137.67  6.6339830E-01
   7138.00  6.2629853E-01
   7138.33  5.9296260E-01
   7138.67  5.6415045E-01
   7139.00  5.4062828E-01
   7139.33  5.2362767E-01
   7139.67  5.1246186E-01
   7140.00  5.0678394E-01
   7140.33  5.0635047E-01
   7140.67  5.0937205E-01
   7141.00  5.1466130E-01
   7141.33  5.2112308E-01
   7141.67  5.2793095E-01
   7142.00  5.3502283E-01
   7142.33  5.4287348E-01
   7142.67  5.5197797E-01
   7143.00  5.6275820E-01
   7143.33  5.7566393E-01
   7143.67  5.9025905E-01
   7144.00  6.0601200E-01
   7144.33  6.2197573E-01
   7144.67  6.3696620E-01
   7145.00  6.5003543E-01
   7145.33  6.6000975E-01
   7145.67  6.6681433E-01
   7146.00  6.7041251E-01
   7146.33  6.7067840E-01
   7146.67  6.6841806E-01
   7147.00  6.6406334E-01
   7147.33  6.5789859E-01
   7147.67  6.5055054E-01
   7148.00  6.4232771E-01
   7148.33  6.3345632E-01
   7148.67  6.2427431E-01
   7149.00  6.1500995E-01
   7149.33  6.0595209E-01
   7149.67  5.9730843E-01
   7150.00  5.8923428E-01
   7150.33  5.8196237E-01
   7150.67  5.7550755E-01
   7151.00  5.6992328E-01
   7151.33  5.6533874E-01
   7151.67  5.6161572E-01
   7152.00  5.5869802E-01
   7152.33  5.5657176E-01
   7152.67  5.5501850E-01
   7153.00  5.5391522E-01
   7153.33  5.5315819E-01
   7153.67  5.5258348E-01
   7154.00  5.5210839E-01
   7154.33  5.5168025E-01
   7154.67  5.5128088E-01
   7155.00  5.5093281E-01
   7155.33  5.5070558E-01
   7155.67  5.5065791E-01
   7156.00  5.5084909E-01
   7156.33  5.5137106E-01
   7156.67  5.5221824E-01
   7157.00  5.5338908E-01
   7157.33  5.5487978E-01
   7157.67  5.5657491E-01
   7158.00  5.5837411E-01
   7158.33  5.6011836E-01
   7158.67  5.6163087E-01
   7159.00  5.6274241E-01
   7159.33  5.6318099E-01
   7159.67  5.6284656E-01
   7160.00  5.6162020E-01
   7160.33  5.5928449E-01
   7160.67  5.5592652E-01
   7161.00  5.5156657E-01
   7161.33  5.4616821E-01
   7161.67  5.3996237E-01
   7162.00  5.3306435E-01
   7162.33  5.2554750E-01
   7162.67  5.1761797E-01
   7163.00  5.0938278E-01
   7163.33  5.0092533E-01
   7163.67  4.9236365E-01
   7164.00  4.8376922E-01
   7164.33  4.7522168E-01
   7164.67  4.6678366E-01
   7165.00  4.5851190E-01
   7165.33  4.5049832E-01
   7165.67  4.4277280E-01
   7166.00  4.3538010E-01
   7166.33  4.2841079E-01
   7166.67  4.2185117E-01
   7167.00  4.1572036E-01
   7167.33  4.1008475E-01
   7167.67  4.0489160E-01
   7168.00  4.0013564E-01
   7168.33  3.9585174E-01
   7168.67  3.9196009E-01
   7169.00  3.8843557E-01
   7169.33  3.8529041E-01
   7169.67  3.8245053E-01
   7170.00  3.7988811E-01
   7170.33  3.7760320E-01
   7170.67  3.7553849E-01
   7171.00  3.7367727E-01
   7171.33  3.7203757E-01
   7171.67  3.7061340E-01
   7172.00  3.6944538E-01
