    FDMNES
    energy     <xanes>
   7097.00  4.2434265E-03
   7097.33  4.3285567E-03
   7097.67  4.4169198E-03
   7098.00  4.5087082E-03
   7098.33  4.6046271E-03
   7098.67  4.7044902E-03
   7099.00  4.8085555E-03
   7099.33  4.9177230E-03
   7099.67  5.0317987E-03
   7100.00  5.1511389E-03
   7100.33  5.2769250E-03
   7100.67  5.4089681E-03
   7101.00  5.5477783E-03
   7101.33  5.6949609E-03
   7101.67  5.8503623E-03
   7102.00  6.0147451E-03
   7102.33  6.1903857E-03
   7102.67  6.3772355E-03
   7103.00  6.5764964E-03
   7103.33  6.7915752E-03
   7103.67  7.0226924E-03
   7104.00  7.2718707E-03
   7104.33  7.5445699E-03
   7104.67  7.8416899E-03
   7105.00  8.1669292E-03
   7105.33  8.5298484E-03
   7105.67  8.9331474E-03
   7106.00  9.3843542E-03
   7106.33  9.9023002E-03
   7106.67  1.0494955E-02
   7107.00  1.1180025E-02
   7107.33  1.2001125E-02
   7107.67  1.2984399E-02
   7108.00  1.4181000E-02
   7108.33  1.5718842E-02
   7108.67  1.7705373E-02
   7109.00  2.0342902E-02
   7109.33  2.4174494E-02
   7109.67  2.9855420E-02
   7110.00  3.8680844E-02
   7110.33  5.4392341E-02
   7110.67  8.0515889E-02
   7111.00  1.1488939E-01
   7111.33  1.3872654E-01
   7111.67  1.5182732E-01
   7112.00  1.5805603E-01
   7112.33  1.3962873E-01
   7112.67  1.1221272E-01
   7113.00  8.6735231E-02
   7113.33  7.0348957E-02
   7113.67  6.2086889E-02
   7114.00  5.7958553E-02
   7114.33  5.4023757E-02
   7114.67  5.0844936E-02
   7115.00  4.9283154E-02
   7115.33  4.9513594E-02
   7115.67  5.1090573E-02
   7116.00  5.3787114E-02
   7116.33  5.7300008E-02
   7116.67  6.1206818E-02
   7117.00  6.5596295E-02
   7117.33  7.0958305E-02
   7117.67  7.7501590E-02
   7118.00  8.5435249E-02
   7118.33  9.5170007E-02
   7118.67  1.0664747E-01
   7119.00  1.1996403E-01
   7119.33  1.3540532E-01
   7119.67  1.5242980E-01
   7120.00  1.7021539E-01
   7120.33  1.8725957E-01
   7120.67  2.0265336E-01
   7121.00  2.1642538E-01
   7121.33  2.2938231E-01
   7121.67  2.4304164E-01
   7122.00  2.5870162E-01
   7122.33  2.7765424E-01
   7122.67  2.9937903E-01
   7123.00  3.2311502E-01
   7123.33  3.4827874E-01
   7123.67  3.7486897E-01
   7124.00  4.0371388E-01
   7124.33  4.3589052E-01
   7124.67  4.6959162E-01
   7125.00  5.0076978E-01
   7125.33  5.2331248E-01
   7125.67  5.3934658E-01
   7126.00  5.5495590E-01
   7126.33  5.7485263E-01
   7126.67  5.9598998E-01
   7127.00  6.1404807E-01
   7127.33  6.2566474E-01
   7127.67  6.3236929E-01
   7128.00  6.3608311E-01
   7128.33  6.3854725E-01
   7128.67  6.4079856E-01
   7129.00  6.4296584E-01
   7129.33  6.4504337E-01
   7129.67  6.4760291E-01
   7130.00  6.5174644E-01
   7130.33  6.5909994E-01
   7130.67  6.6955755E-01
   7131.00  6.8241163E-01
   7131.33  6.9649659E-01
   7131.67  7.1034912E-01
   7132.00  7.2300315E-01
   7132.33  7.3359362E-01
   7132.67  7.4246157E-01
   7133.00  7.5003140E-01
   7133.33  7.5647976E-01
   7133.67  7.6191029E-01
   7134.00  7.6610327E-01
   7134.33  7.6795894E-01
   7134.67  7.6597730E-01
   7135.00  7.5876107E-01
   7135.33  7.4624301E-01
   7135.67  7.3177314E-01
   7136.00  7.1769002E-01
   7136.33  7.0561029E-01
   7136.67  6.9562321E-01
   7137.00  6.8762371E-01
   7137.33  6.8156587E-01
   7137.67  6.7691226E-01
   7138.00  6.7336215E-01
   7138.33  6.7065460E-01
   7138.67  6.6835843E-01
   7139.00  6.6620809E-01
   7139.33  6.6391430E-01
   7139.67  6.6126574E-01
   7140.00  6.5810861E-01
   7140.33  6.5423617E-01
   7140.67  6.4966165E-01
   7141.00  6.4437954E-01
   7141.33  6.3835803E-01
   7141.67  6.3177889E-01
   7142.00  6.2475112E-01
   7142.33  6.1737371E-01
   7142.67  6.0982924E-01
   7143.00  6.0222405E-01
   7143.33  5.9465943E-01
   7143.67  5.8722488E-01
   7144.00  5.8000668E-01
   7144.33  5.7314145E-01
   7144.67  5.6667815E-01
   7145.00  5.6068327E-01
   7145.33  5.5528063E-01
   7145.67  5.5043467E-01
   7146.00  5.4614696E-01
   7146.33  5.4246005E-01
   7146.67  5.3926184E-01
   7147.00  5.3650175E-01
   7147.33  5.3415730E-01
   7147.67  5.3210603E-01
   7148.00  5.3027741E-01
   7148.33  5.2859981E-01
   7148.67  5.2696105E-01
   7149.00  5.2527432E-01
   7149.33  5.2341088E-01
   7149.67  5.2127127E-01
   7150.00  5.1874877E-01
   7150.33  5.1565540E-01
   7150.67  5.1193978E-01
   7151.00  5.0752100E-01
   7151.33  5.0223596E-01
   7151.67  4.9615481E-01
   7152.00  4.8929796E-01
   7152.33  4.8166176E-01
   7152.67  4.7347616E-01
   7153.00  4.6488893E-01
   7153.33  4.5605086E-01
   7153.67  4.4716959E-01
   7154.00  4.3838830E-01
   7154.33  4.2986719E-01
   7154.67  4.2166266E-01
   7155.00  4.1381313E-01
   7155.33  4.0637285E-01
   7155.67  3.9927486E-01
   7156.00  3.9248443E-01
   7156.33  3.8598334E-01
   7156.67  3.7968913E-01
   7157.00  3.7356537E-01
   7157.33  3.6759879E-01
   7157.67  3.6175928E-01
   7158.00  3.5605278E-01
   7158.33  3.5052427E-01
   7158.67  3.4519901E-01
   7159.00  3.4013071E-01
   7159.33  3.3543650E-01
   7159.67  3.3115846E-01
   7160.00  3.2737002E-01
   7160.33  3.2422375E-01
   7160.67  3.2171832E-01
   7161.00  3.1990055E-01
   7161.33  3.1889375E-01
   7161.67  3.1861364E-01
   7162.00  3.1904157E-01
   7162.33  3.2020942E-01
   7162.67  3.2195537E-01
   7163.00  3.2418986E-01
   7163.33  3.2684712E-01
   7163.67  3.2977391E-01
   7164.00  3.3288516E-01
   7164.33  3.3610485E-01
   7164.67  3.3934980E-01
   7165.00  3.4257455E-01
   7165.33  3.4573789E-01
   7165.67  3.4883098E-01
   7166.00  3.5185352E-01
   7166.33  3.5480755E-01
   7166.67  3.5771230E-01
   7167.00  3.6058100E-01
   7167.33  3.6343238E-01
   7167.67  3.6628732E-01
   7168.00  3.6915791E-01
   7168.33  3.7205670E-01
   7168.67  3.7498527E-01
   7169.00  3.7794411E-01
   7169.33  3.8093369E-01
   7169.67  3.8394391E-01
   7170.00  3.8696552E-01
   7170.33  3.8998188E-01
   7170.67  3.9296805E-01
   7171.00  3.9588878E-01
   7171.33  3.9865557E-01
   7171.67  4.0115272E-01
   7172.00  4.0320509E-01
