    FDMNES
    energy     <xanes>
   7097.00  5.1286408E-03
   7097.33  5.2469740E-03
   7097.67  5.3705912E-03
   7098.00  5.4998440E-03
   7098.33  5.6359444E-03
   7098.67  5.7786335E-03
   7099.00  5.9283867E-03
   7099.33  6.0867800E-03
   7099.67  6.2535436E-03
   7100.00  6.4293380E-03
   7100.33  6.6162622E-03
   7100.67  6.8140567E-03
   7101.00  7.0236654E-03
   7101.33  7.2479670E-03
   7101.67  7.4867582E-03
   7102.00  7.7414359E-03
   7102.33  8.0160885E-03
   7102.67  8.3106711E-03
   7103.00  8.6273404E-03
   7103.33  8.9721547E-03
   7103.67  9.3454598E-03
   7104.00  9.7507624E-03
   7104.33  1.0197531E-02
   7104.67  1.0687052E-02
   7105.00  1.1225415E-02
   7105.33  1.1828468E-02
   7105.67  1.2499843E-02
   7106.00  1.3251068E-02
   7106.33  1.4111220E-02
   7106.67  1.5090300E-02
   7107.00  1.6212886E-02
   7107.33  1.7539724E-02
   7107.67  1.9100784E-02
   7108.00  2.0958521E-02
   7108.33  2.3267631E-02
   7108.67  2.6137549E-02
   7109.00  2.9778686E-02
   7109.33  3.4740085E-02
   7109.67  4.1601050E-02
   7110.00  5.1495383E-02
   7110.33  6.7634403E-02
   7110.67  9.3222241E-02
   7111.00  1.2872421E-01
   7111.33  1.6616182E-01
   7111.67  2.0192176E-01
   7112.00  2.3989515E-01
   7112.33  2.8096920E-01
   7112.67  3.1009990E-01
   7113.00  3.2554506E-01
   7113.33  3.4725769E-01
   7113.67  3.8256424E-01
   7114.00  4.1993904E-01
   7114.33  4.3075463E-01
   7114.67  4.0713684E-01
   7115.00  3.6430432E-01
   7115.33  3.2439425E-01
   7115.67  2.9578789E-01
   7116.00  2.7765739E-01
   7116.33  2.6551823E-01
   7116.67  2.5293064E-01
   7117.00  2.3647669E-01
   7117.33  2.1491484E-01
   7117.67  1.9298898E-01
   7118.00  1.7489671E-01
   7118.33  1.6291487E-01
   7118.67  1.5514796E-01
   7119.00  1.4980215E-01
   7119.33  1.4553022E-01
   7119.67  1.4204355E-01
   7120.00  1.3979373E-01
   7120.33  1.3938687E-01
   7120.67  1.4054201E-01
   7121.00  1.4285532E-01
   7121.33  1.4571680E-01
   7121.67  1.4834251E-01
   7122.00  1.5037999E-01
   7122.33  1.5225198E-01
   7122.67  1.5522228E-01
   7123.00  1.6058907E-01
   7123.33  1.6998192E-01
   7123.67  1.8302737E-01
   7124.00  1.9894197E-01
   7124.33  2.1747353E-01
   7124.67  2.3863154E-01
   7125.00  2.6219708E-01
   7125.33  2.8645875E-01
   7125.67  3.0925344E-01
   7126.00  3.3018961E-01
   7126.33  3.5037948E-01
   7126.67  3.7112993E-01
   7127.00  3.9241700E-01
   7127.33  4.1310905E-01
   7127.67  4.3234187E-01
   7128.00  4.5028765E-01
   7128.33  4.6801763E-01
   7128.67  4.8652952E-01
   7129.00  5.0612437E-01
   7129.33  5.2687468E-01
   7129.67  5.4867063E-01
   7130.00  5.7171214E-01
   7130.33  5.9631846E-01
   7130.67  6.2215199E-01
   7131.00  6.4888319E-01
   7131.33  6.7611929E-01
   7131.67  7.0344633E-01
   7132.00  7.3076219E-01
   7132.33  7.5822230E-01
   7132.67  7.8599218E-01
   7133.00  8.1396016E-01
   7133.33  8.4128280E-01
   7133.67  8.6640611E-01
   7134.00  8.8726261E-01
   7134.33  8.9986073E-01
   7134.67  9.0189528E-01
   7135.00  8.9170053E-01
   7135.33  8.6877348E-01
   7135.67  8.3811479E-01
   7136.00  8.0338095E-01
   7136.33  7.6788065E-01
   7136.67  7.3370931E-01
   7137.00  7.0169246E-01
   7137.33  6.7255276E-01
   7137.67  6.4617970E-01
   7138.00  6.2276455E-01
   7138.33  6.0296279E-01
   7138.67  5.8657625E-01
   7139.00  5.7365166E-01
   7139.33  5.6442986E-01
   7139.67  5.5808139E-01
   7140.00  5.5410070E-01
   7140.33  5.5204658E-01
   7140.67  5.5109079E-01
   7141.00  5.5079877E-01
   7141.33  5.5081784E-01
   7141.67  5.5080922E-01
   7142.00  5.5051950E-01
   7142.33  5.4954380E-01
   7142.67  5.4760703E-01
   7143.00  5.4443183E-01
   7143.33  5.3961684E-01
   7143.67  5.3330354E-01
   7144.00  5.2561850E-01
   7144.33  5.1673227E-01
   7144.67  5.0718130E-01
   7145.00  4.9733027E-01
   7145.33  4.8757960E-01
   7145.67  4.7823904E-01
   7146.00  4.6952441E-01
   7146.33  4.6172085E-01
   7146.67  4.5484855E-01
   7147.00  4.4897292E-01
   7147.33  4.4426523E-01
   7147.67  4.4060928E-01
   7148.00  4.3800155E-01
   7148.33  4.3655496E-01
   7148.67  4.3611584E-01
   7149.00  4.3665729E-01
   7149.33  4.3825291E-01
   7149.67  4.4072491E-01
   7150.00  4.4402232E-01
   7150.33  4.4818885E-01
   7150.67  4.5306738E-01
   7151.00  4.5859411E-01
   7151.33  4.6474857E-01
   7151.67  4.7135322E-01
   7152.00  4.7830266E-01
   7152.33  4.8549028E-01
   7152.67  4.9275275E-01
   7153.00  4.9997643E-01
   7153.33  5.0702238E-01
   7153.67  5.1381181E-01
   7154.00  5.2027893E-01
   7154.33  5.2632177E-01
   7154.67  5.3195344E-01
   7155.00  5.3715832E-01
   7155.33  5.4187612E-01
   7155.67  5.4616304E-01
   7156.00  5.5002483E-01
   7156.33  5.5341907E-01
   7156.67  5.5640836E-01
   7157.00  5.5900199E-01
   7157.33  5.6116341E-01
   7157.67  5.6295304E-01
   7158.00  5.6438231E-01
   7158.33  5.6542536E-01
   7158.67  5.6614929E-01
   7159.00  5.6658203E-01
   7159.33  5.6673438E-01
   7159.67  5.6668895E-01
   7160.00  5.6649405E-01
   7160.33  5.6619306E-01
   7160.67  5.6585321E-01
   7161.00  5.6551992E-01
   7161.33  5.6524356E-01
   7161.67  5.6505037E-01
   7162.00  5.6496186E-01
   7162.33  5.6500900E-01
   7162.67  5.6517047E-01
   7163.00  5.6543022E-01
   7163.33  5.6577738E-01
   7163.67  5.6617480E-01
   7164.00  5.6659157E-01
   7164.33  5.6698163E-01
   7164.67  5.6729963E-01
   7165.00  5.6750055E-01
   7165.33  5.6750836E-01
   7165.67  5.6729117E-01
   7166.00  5.6680596E-01
   7166.33  5.6596846E-01
   7166.67  5.6478086E-01
   7167.00  5.6321911E-01
   7167.33  5.6121532E-01
   7167.67  5.5881717E-01
   7168.00  5.5604089E-01
   7168.33  5.5286864E-01
   7168.67  5.4937698E-01
   7169.00  5.4560131E-01
   7169.33  5.4156378E-01
   7169.67  5.3735494E-01
   7170.00  5.3303419E-01
   7170.33  5.2867231E-01
   7170.67  5.2435724E-01
   7171.00  5.2017238E-01
   7171.33  5.1627572E-01
   7171.67  5.1282206E-01
   7172.00  5.1002935E-01
