    FDMNES
    energy     <xanes>
   7097.00  4.3450855E-03
   7097.33  4.4314795E-03
   7097.67  4.5211881E-03
   7098.00  4.6144129E-03
   7098.33  4.7118848E-03
   7098.67  4.8134194E-03
   7099.00  4.9192893E-03
   7099.33  5.0304336E-03
   7099.67  5.1466627E-03
   7100.00  5.2683566E-03
   7100.33  5.3967581E-03
   7100.67  5.5316882E-03
   7101.00  5.6736960E-03
   7101.33  5.8244873E-03
   7101.67  5.9839291E-03
   7102.00  6.1528520E-03
   7102.33  6.3337032E-03
   7102.67  6.5264780E-03
   7103.00  6.7325025E-03
   7103.33  6.9554891E-03
   7103.67  7.1957560E-03
   7104.00  7.4555667E-03
   7104.33  7.7409650E-03
   7104.67  8.0530807E-03
   7105.00  8.3961182E-03
   7105.33  8.7808542E-03
   7105.67  9.2105780E-03
   7106.00  9.6940030E-03
   7106.33  1.0252806E-02
   7106.67  1.0896674E-02
   7107.00  1.1646546E-02
   7107.33  1.2553914E-02
   7107.67  1.3650964E-02
   7108.00  1.4999910E-02
   7108.33  1.6756810E-02
   7108.67  1.9057688E-02
   7109.00  2.2158559E-02
   7109.33  2.6753621E-02
   7109.67  3.3710160E-02
   7110.00  4.4751321E-02
   7110.33  6.4820419E-02
   7110.67  9.7737995E-02
   7111.00  1.3662815E-01
   7111.33  1.5283936E-01
   7111.67  1.5329721E-01
   7112.00  1.5532476E-01
   7112.33  1.4788862E-01
   7112.67  1.2493601E-01
   7113.00  1.0124993E-01
   7113.33  8.2101855E-02
   7113.67  6.7476466E-02
   7114.00  5.7623133E-02
   7114.33  5.1640660E-02
   7114.67  4.6984601E-02
   7115.00  4.3204432E-02
   7115.33  4.1013376E-02
   7115.67  4.0203718E-02
   7116.00  4.0538894E-02
   7116.33  4.1937738E-02
   7116.67  4.4196665E-02
   7117.00  4.7314730E-02
   7117.33  5.1439938E-02
   7117.67  5.6502116E-02
   7118.00  6.2568297E-02
   7118.33  6.9951022E-02
   7118.67  7.8703927E-02
   7119.00  8.8848819E-02
   7119.33  1.0010758E-01
   7119.67  1.1149680E-01
   7120.00  1.2228277E-01
   7120.33  1.3218833E-01
   7120.67  1.4210329E-01
   7121.00  1.5323441E-01
   7121.33  1.6746819E-01
   7121.67  1.8573716E-01
   7122.00  2.0864413E-01
   7122.33  2.3670135E-01
   7122.67  2.6873067E-01
   7123.00  3.0421438E-01
   7123.33  3.4308704E-01
   7123.67  3.8443415E-01
   7124.00  4.2755275E-01
   7124.33  4.7115622E-01
   7124.67  5.1263728E-01
   7125.00  5.4835091E-01
   7125.33  5.7181738E-01
   7125.67  5.8191544E-01
   7126.00  5.8166942E-01
   7126.33  5.7963347E-01
   7126.67  5.8473311E-01
   7127.00  5.9941231E-01
   7127.33  6.1956316E-01
   7127.67  6.3836039E-01
   7128.00  6.5508981E-01
   7128.33  6.7280895E-01
   7128.67  6.9357366E-01
   7129.00  7.1730348E-01
   7129.33  7.4296048E-01
   7129.67  7.6963508E-01
   7130.00  7.9763364E-01
   7130.33  8.2666500E-01
   7130.67  8.5366623E-01
   7131.00  8.7465717E-01
   7131.33  8.8426951E-01
   7131.67  8.8207184E-01
   7132.00  8.6887758E-01
   7132.33  8.4623234E-01
   7132.67  8.1809302E-01
   7133.00  7.8663682E-01
   7133.33  7.5434439E-01
   7133.67  7.2459416E-01
   7134.00  7.0051532E-01
   7134.33  6.8540336E-01
   7134.67  6.7772188E-01
   7135.00  6.7521692E-01
   7135.33  6.7525256E-01
   7135.67  6.7552797E-01
   7136.00  6.7518480E-01
   7136.33  6.7378242E-01
   7136.67  6.7146518E-01
   7137.00  6.6833733E-01
   7137.33  6.6442201E-01
   7137.67  6.5987953E-01
   7138.00  6.5474673E-01
   7138.33  6.4898335E-01
   7138.67  6.4269327E-01
   7139.00  6.3591671E-01
   7139.33  6.2866351E-01
   7139.67  6.2106805E-01
   7140.00  6.1321507E-01
   7140.33  6.0519992E-01
   7140.67  5.9716483E-01
   7141.00  5.8921880E-01
   7141.33  5.8150694E-01
   7141.67  5.7410386E-01
   7142.00  5.6707527E-01
   7142.33  5.6052276E-01
   7142.67  5.5441277E-01
   7143.00  5.4874133E-01
   7143.33  5.4353702E-01
   7143.67  5.3871008E-01
   7144.00  5.3422003E-01
   7144.33  5.3005243E-01
   7144.67  5.2612683E-01
   7145.00  5.2240998E-01
   7145.33  5.1888681E-01
   7145.67  5.1550236E-01
   7146.00  5.1223213E-01
   7146.33  5.0906472E-01
   7146.67  5.0597250E-01
   7147.00  5.0294724E-01
   7147.33  4.9999361E-01
   7147.67  4.9710700E-01
   7148.00  4.9429531E-01
   7148.33  4.9158325E-01
   7148.67  4.8897676E-01
   7149.00  4.8649115E-01
   7149.33  4.8415912E-01
   7149.67  4.8197247E-01
   7150.00  4.7992824E-01
   7150.33  4.7802260E-01
   7150.67  4.7620257E-01
   7151.00  4.7442117E-01
   7151.33  4.7260364E-01
   7151.67  4.7066905E-01
   7152.00  4.6853877E-01
   7152.33  4.6608803E-01
   7152.67  4.6327379E-01
   7153.00  4.6004208E-01
   7153.33  4.5629303E-01
   7153.67  4.5206590E-01
   7154.00  4.4736391E-01
   7154.33  4.4215552E-01
   7154.67  4.3653831E-01
   7155.00  4.3055676E-01
   7155.33  4.2423100E-01
   7155.67  4.1766074E-01
   7156.00  4.1089897E-01
   7156.33  4.0399039E-01
   7156.67  3.9701275E-01
   7157.00  3.9001935E-01
   7157.33  3.8307966E-01
   7157.67  3.7625626E-01
   7158.00  3.6961421E-01
   7158.33  3.6327056E-01
   7158.67  3.5728431E-01
   7159.00  3.5173917E-01
   7159.33  3.4680256E-01
   7159.67  3.4250456E-01
   7160.00  3.3892219E-01
   7160.33  3.3623194E-01
   7160.67  3.3439506E-01
   7161.00  3.3344783E-01
   7161.33  3.3352797E-01
   7161.67  3.3452399E-01
   7162.00  3.3642072E-01
   7162.33  3.3928871E-01
   7162.67  3.4296288E-01
   7163.00  3.4737686E-01
   7163.33  3.5250339E-01
   7163.67  3.5811641E-01
   7164.00  3.6407274E-01
   7164.33  3.7024477E-01
   7164.67  3.7646888E-01
   7165.00  3.8263549E-01
   7165.33  3.8861525E-01
   7165.67  3.9434630E-01
   7166.00  3.9978119E-01
   7166.33  4.0485215E-01
   7166.67  4.0959895E-01
   7167.00  4.1403859E-01
   7167.33  4.1817197E-01
   7167.67  4.2207704E-01
   7168.00  4.2579482E-01
   7168.33  4.2935616E-01
   7168.67  4.3282206E-01
   7169.00  4.3622331E-01
   7169.33  4.3958175E-01
   7169.67  4.4292127E-01
   7170.00  4.4625238E-01
   7170.33  4.4956726E-01
   7170.67  4.5284059E-01
   7171.00  4.5603131E-01
   7171.33  4.5903841E-01
   7171.67  4.6174080E-01
   7172.00  4.6395964E-01
