    FDMNES
    energy     <xanes>
   7097.00  4.9799696E-03
   7097.33  5.0981499E-03
   7097.67  5.2216267E-03
   7098.00  5.3507525E-03
   7098.33  5.4867434E-03
   7098.67  5.6293409E-03
   7099.00  5.7790236E-03
   7099.33  5.9373751E-03
   7099.67  6.1041288E-03
   7100.00  6.2799520E-03
   7100.33  6.4669607E-03
   7100.67  6.6649036E-03
   7101.00  6.8747405E-03
   7101.33  7.0993880E-03
   7101.67  7.3386625E-03
   7102.00  7.5939977E-03
   7102.33  7.8695671E-03
   7102.67  8.1653732E-03
   7103.00  8.4836579E-03
   7103.33  8.8306777E-03
   7103.67  9.2068927E-03
   7104.00  9.6160153E-03
   7104.33  1.0067992E-02
   7104.67  1.0564402E-02
   7105.00  1.1111860E-02
   7105.33  1.1727437E-02
   7105.67  1.2415590E-02
   7106.00  1.3189296E-02
   7106.33  1.4081077E-02
   7106.67  1.5103542E-02
   7107.00  1.6285845E-02
   7107.33  1.7699884E-02
   7107.67  1.9385530E-02
   7108.00  2.1422815E-02
   7108.33  2.4011530E-02
   7108.67  2.7310603E-02
   7109.00  3.1622673E-02
   7109.33  3.7757961E-02
   7109.67  4.6672106E-02
   7110.00  6.0260553E-02
   7110.33  8.3956775E-02
   7110.67  1.2237349E-01
   7111.00  1.7025994E-01
   7111.33  1.9692142E-01
   7111.67  2.0059752E-01
   7112.00  2.0232763E-01
   7112.33  2.2000662E-01
   7112.67  2.5848006E-01
   7113.00  3.2352607E-01
   7113.33  4.1034741E-01
   7113.67  4.6116973E-01
   7114.00  4.1724048E-01
   7114.33  3.1762190E-01
   7114.67  2.3795553E-01
   7115.00  1.8694917E-01
   7115.33  1.5909612E-01
   7115.67  1.4445288E-01
   7116.00  1.3938168E-01
   7116.33  1.4268563E-01
   7116.67  1.5243535E-01
   7117.00  1.6775219E-01
   7117.33  1.8706887E-01
   7117.67  2.0696557E-01
   7118.00  2.2422368E-01
   7118.33  2.3377605E-01
   7118.67  2.3530605E-01
   7119.00  2.3193206E-01
   7119.33  2.2891116E-01
   7119.67  2.2976507E-01
   7120.00  2.3578302E-01
   7120.33  2.4772181E-01
   7120.67  2.6386063E-01
   7121.00  2.8227193E-01
   7121.33  2.9935298E-01
   7121.67  3.1179483E-01
   7122.00  3.1877660E-01
   7122.33  3.2257731E-01
   7122.67  3.2716590E-01
   7123.00  3.3353409E-01
   7123.33  3.4019503E-01
   7123.67  3.4517731E-01
   7124.00  3.4803729E-01
   7124.33  3.5030724E-01
   7124.67  3.5503274E-01
   7125.00  3.6451954E-01
   7125.33  3.8098796E-01
   7125.67  4.0359017E-01
   7126.00  4.3104038E-01
   7126.33  4.6108397E-01
   7126.67  4.9049311E-01
   7127.00  5.1684476E-01
   7127.33  5.3727361E-01
   7127.67  5.5161565E-01
   7128.00  5.6049497E-01
   7128.33  5.6498635E-01
   7128.67  5.6666775E-01
   7129.00  5.6551384E-01
   7129.33  5.6103626E-01
   7129.67  5.5492286E-01
   7130.00  5.4935030E-01
   7130.33  5.4676569E-01
   7130.67  5.4748853E-01
   7131.00  5.5136218E-01
   7131.33  5.5874259E-01
   7131.67  5.6947636E-01
   7132.00  5.8364537E-01
   7132.33  6.0135948E-01
   7132.67  6.2159328E-01
   7133.00  6.4366299E-01
   7133.33  6.6685792E-01
   7133.67  6.9017943E-01
   7134.00  7.1273506E-01
   7134.33  7.3283018E-01
   7134.67  7.4894405E-01
   7135.00  7.5961097E-01
   7135.33  7.6290286E-01
   7135.67  7.5938972E-01
   7136.00  7.4951674E-01
   7136.33  7.3375826E-01
   7136.67  7.1432017E-01
   7137.00  6.9266869E-01
   7137.33  6.7036839E-01
   7137.67  6.4886971E-01
   7138.00  6.2908601E-01
   7138.33  6.1203996E-01
   7138.67  5.9773398E-01
   7139.00  5.8610830E-01
   7139.33  5.7708129E-01
   7139.67  5.6981220E-01
   7140.00  5.6380706E-01
   7140.33  5.5868999E-01
   7140.67  5.5408241E-01
   7141.00  5.4992369E-01
   7141.33  5.4637045E-01
   7141.67  5.4351370E-01
   7142.00  5.4146108E-01
   7142.33  5.4033283E-01
   7142.67  5.3990400E-01
   7143.00  5.3997880E-01
   7143.33  5.4030868E-01
   7143.67  5.4060222E-01
   7144.00  5.4068445E-01
   7144.33  5.4038416E-01
   7144.67  5.3968610E-01
   7145.00  5.3858334E-01
   7145.33  5.3704899E-01
   7145.67  5.3516088E-01
   7146.00  5.3293572E-01
   7146.33  5.3033022E-01
   7146.67  5.2736800E-01
   7147.00  5.2403377E-01
   7147.33  5.2029025E-01
   7147.67  5.1624214E-01
   7148.00  5.1198922E-01
   7148.33  5.0769524E-01
   7148.67  5.0357636E-01
   7149.00  4.9982828E-01
   7149.33  4.9675053E-01
   7149.67  4.9448175E-01
   7150.00  4.9318692E-01
   7150.33  4.9315926E-01
   7150.67  4.9433529E-01
   7151.00  4.9669475E-01
   7151.33  5.0021472E-01
   7151.67  5.0447191E-01
   7152.00  5.0912054E-01
   7152.33  5.1368555E-01
   7152.67  5.1770600E-01
   7153.00  5.2082758E-01
   7153.33  5.2259532E-01
   7153.67  5.2299960E-01
   7154.00  5.2202013E-01
   7154.33  5.1958103E-01
   7154.67  5.1600704E-01
   7155.00  5.1146821E-01
   7155.33  5.0607493E-01
   7155.67  5.0011487E-01
   7156.00  4.9373394E-01
   7156.33  4.8703920E-01
   7156.67  4.8017619E-01
   7157.00  4.7321556E-01
   7157.33  4.6620830E-01
   7157.67  4.5919149E-01
   7158.00  4.5217868E-01
   7158.33  4.4517958E-01
   7158.67  4.3820277E-01
   7159.00  4.3126754E-01
   7159.33  4.2442795E-01
   7159.67  4.1774221E-01
   7160.00  4.1128694E-01
   7160.33  4.0520376E-01
   7160.67  3.9954911E-01
   7161.00  3.9439330E-01
   7161.33  3.8986041E-01
   7161.67  3.8589875E-01
   7162.00  3.8249386E-01
   7162.33  3.7966333E-01
   7162.67  3.7727554E-01
   7163.00  3.7526592E-01
   7163.33  3.7359920E-01
   7163.67  3.7217189E-01
   7164.00  3.7093774E-01
   7164.33  3.6987469E-01
   7164.67  3.6893733E-01
   7165.00  3.6811483E-01
   7165.33  3.6741930E-01
   7165.67  3.6684258E-01
   7166.00  3.6639376E-01
   7166.33  3.6610423E-01
   7166.67  3.6597240E-01
   7167.00  3.6601345E-01
   7167.33  3.6627029E-01
   7167.67  3.6673845E-01
   7168.00  3.6743432E-01
   7168.33  3.6840715E-01
   7168.67  3.6964332E-01
   7169.00  3.7115553E-01
   7169.33  3.7299044E-01
   7169.67  3.7511602E-01
   7170.00  3.7752742E-01
   7170.33  3.8023866E-01
   7170.67  3.8317555E-01
   7171.00  3.8627674E-01
   7171.33  3.8942256E-01
   7171.67  3.9238275E-01
   7172.00  3.9486481E-01
