    FDMNES
    energy     <xanes>
   7097.00  4.5568842E-03
   7097.33  4.6515336E-03
   7097.67  4.7499512E-03
   7098.00  4.8523688E-03
   7098.33  4.9596209E-03
   7098.67  5.0714996E-03
   7099.00  5.1883165E-03
   7099.33  5.3111420E-03
   7099.67  5.4397594E-03
   7100.00  5.5745995E-03
   7100.33  5.7170730E-03
   7100.67  5.8669688E-03
   7101.00  6.0249029E-03
   7101.33  6.1927960E-03
   7101.67  6.3704768E-03
   7102.00  6.5588621E-03
   7102.33  6.7606739E-03
   7102.67  6.9758585E-03
   7103.00  7.2058492E-03
   7103.33  7.4547015E-03
   7103.67  7.7226601E-03
   7104.00  8.0121075E-03
   7104.33  8.3294815E-03
   7104.67  8.6757705E-03
   7105.00  9.0552537E-03
   7105.33  9.4790258E-03
   7105.67  9.9500108E-03
   7106.00  1.0476712E-02
   7106.33  1.1080464E-02
   7106.67  1.1769730E-02
   7107.00  1.2563887E-02
   7107.33  1.3510705E-02
   7107.67  1.4637180E-02
   7108.00  1.5997039E-02
   7108.33  1.7724070E-02
   7108.67  1.9924837E-02
   7109.00  2.2800577E-02
   7109.33  2.6884983E-02
   7109.67  3.2792373E-02
   7110.00  4.1729954E-02
   7110.33  5.7199116E-02
   7110.67  8.3091182E-02
   7111.00  1.2081763E-01
   7111.33  1.5706360E-01
   7111.67  1.7358662E-01
   7112.00  1.7545001E-01
   7112.33  1.7074604E-01
   7112.67  1.5801653E-01
   7113.00  1.4164622E-01
   7113.33  1.2775714E-01
   7113.67  1.1770819E-01
   7114.00  1.1871625E-01
   7114.33  1.3017458E-01
   7114.67  1.3444053E-01
   7115.00  1.2865256E-01
   7115.33  1.1884865E-01
   7115.67  1.0450365E-01
   7116.00  9.0215694E-02
   7116.33  8.1170571E-02
   7116.67  7.7074627E-02
   7117.00  7.7336262E-02
   7117.33  8.2178217E-02
   7117.67  9.1268438E-02
   7118.00  1.0482670E-01
   7118.33  1.2323752E-01
   7118.67  1.4525158E-01
   7119.00  1.7006976E-01
   7119.33  1.9647767E-01
   7119.67  2.2226644E-01
   7120.00  2.4589491E-01
   7120.33  2.6516215E-01
   7120.67  2.7826518E-01
   7121.00  2.8369591E-01
   7121.33  2.8132617E-01
   7121.67  2.7542220E-01
   7122.00  2.6933849E-01
   7122.33  2.6621311E-01
   7122.67  2.6735111E-01
   7123.00  2.7359454E-01
   7123.33  2.8561219E-01
   7123.67  3.0162772E-01
   7124.00  3.2052941E-01
   7124.33  3.4192942E-01
   7124.67  3.6537817E-01
   7125.00  3.9084911E-01
   7125.33  4.1847080E-01
   7125.67  4.4754095E-01
   7126.00  4.7712116E-01
   7126.33  5.0503427E-01
   7126.67  5.2867000E-01
   7127.00  5.4589427E-01
   7127.33  5.5548153E-01
   7127.67  5.6094516E-01
   7128.00  5.6595552E-01
   7128.33  5.7450294E-01
   7128.67  5.8787272E-01
   7129.00  6.0638857E-01
   7129.33  6.3079997E-01
   7129.67  6.6051947E-01
   7130.00  6.9522943E-01
   7130.33  7.3403049E-01
   7130.67  7.7403369E-01
   7131.00  8.1290574E-01
   7131.33  8.4836851E-01
   7131.67  8.7987515E-01
   7132.00  9.0637229E-01
   7132.33  9.2470058E-01
   7132.67  9.3351210E-01
   7133.00  9.3196491E-01
   7133.33  9.1966200E-01
   7133.67  9.0023587E-01
   7134.00  8.7655791E-01
   7134.33  8.5195099E-01
   7134.67  8.2903038E-01
   7135.00  8.0872764E-01
   7135.33  7.9147541E-01
   7135.67  7.7684307E-01
   7136.00  7.6481838E-01
   7136.33  7.5547917E-01
   7136.67  7.4785450E-01
   7137.00  7.4098574E-01
   7137.33  7.3333395E-01
   7137.67  7.2340771E-01
   7138.00  7.1003542E-01
   7138.33  6.9195315E-01
   7138.67  6.6991895E-01
   7139.00  6.4489796E-01
   7139.33  6.1833648E-01
   7139.67  5.9198917E-01
   7140.00  5.6687292E-01
   7140.33  5.4389772E-01
   7140.67  5.2299970E-01
   7141.00  5.0403604E-01
   7141.33  4.8684798E-01
   7141.67  4.7082853E-01
   7142.00  4.5568090E-01
   7142.33  4.4127440E-01
   7142.67  4.2747789E-01
   7143.00  4.1436662E-01
   7143.33  4.0224909E-01
   7143.67  3.9132502E-01
   7144.00  3.8194687E-01
   7144.33  3.7483048E-01
   7144.67  3.7011290E-01
   7145.00  3.6790571E-01
   7145.33  3.6821122E-01
   7145.67  3.7008699E-01
   7146.00  3.7284990E-01
   7146.33  3.7587330E-01
   7146.67  3.7876685E-01
   7147.00  3.8144281E-01
   7147.33  3.8394927E-01
   7147.67  3.8645545E-01
   7148.00  3.8910371E-01
   7148.33  3.9207188E-01
   7148.67  3.9542523E-01
   7149.00  3.9921384E-01
   7149.33  4.0350467E-01
   7149.67  4.0820177E-01
   7150.00  4.1323557E-01
   7150.33  4.1852292E-01
   7150.67  4.2390371E-01
   7151.00  4.2925776E-01
   7151.33  4.3442741E-01
   7151.67  4.3930833E-01
   7152.00  4.4380880E-01
   7152.33  4.4778700E-01
   7152.67  4.5124527E-01
   7153.00  4.5416010E-01
   7153.33  4.5646608E-01
   7153.67  4.5826383E-01
   7154.00  4.5960300E-01
   7154.33  4.6051429E-01
   7154.67  4.6113940E-01
   7155.00  4.6156495E-01
   7155.33  4.6187691E-01
   7155.67  4.6217422E-01
   7156.00  4.6251540E-01
   7156.33  4.6295918E-01
   7156.67  4.6351921E-01
   7157.00  4.6420099E-01
   7157.33  4.6500940E-01
   7157.67  4.6590739E-01
   7158.00  4.6686611E-01
   7158.33  4.6784419E-01
   7158.67  4.6878725E-01
   7159.00  4.6964582E-01
   7159.33  4.7034301E-01
   7159.67  4.7084432E-01
   7160.00  4.7111698E-01
   7160.33  4.7111316E-01
   7160.67  4.7087458E-01
   7161.00  4.7043647E-01
   7161.33  4.6985280E-01
   7161.67  4.6922386E-01
   7162.00  4.6861431E-01
   7162.33  4.6809259E-01
   7162.67  4.6769082E-01
   7163.00  4.6743294E-01
   7163.33  4.6735063E-01
   7163.67  4.6742089E-01
   7164.00  4.6763686E-01
   7164.33  4.6800700E-01
   7164.67  4.6850316E-01
   7165.00  4.6911347E-01
   7165.33  4.6983267E-01
   7165.67  4.7062613E-01
   7166.00  4.7146938E-01
   7166.33  4.7232955E-01
   7166.67  4.7316448E-01
   7167.00  4.7393792E-01
   7167.33  4.7459682E-01
   7167.67  4.7511936E-01
   7168.00  4.7548289E-01
   7168.33  4.7564876E-01
   7168.67  4.7563312E-01
   7169.00  4.7544002E-01
   7169.33  4.7506458E-01
   7169.67  4.7455254E-01
   7170.00  4.7392941E-01
   7170.33  4.7321364E-01
   7170.67  4.7245221E-01
   7171.00  4.7168331E-01
   7171.33  4.7095878E-01
   7171.67  4.7032394E-01
   7172.00  4.6982272E-01
