    FDMNES
    energy     <xanes>
   7097.00  5.0011688E-03
   7097.33  5.1136837E-03
   7097.67  5.2309701E-03
   7098.00  5.3533316E-03
   7098.33  5.4818406E-03
   7098.67  5.6162459E-03
   7099.00  5.7569565E-03
   7099.33  5.9053554E-03
   7099.67  6.0611807E-03
   7100.00  6.2249983E-03
   7100.33  6.3986388E-03
   7100.67  6.5818482E-03
   7101.00  6.7754356E-03
   7101.33  6.9819013E-03
   7101.67  7.2010423E-03
   7102.00  7.4340614E-03
   7102.33  7.6845077E-03
   7102.67  7.9523280E-03
   7103.00  8.2393972E-03
   7103.33  8.5510016E-03
   7103.67  8.8874671E-03
   7104.00  9.2518958E-03
   7104.33  9.6526585E-03
   7104.67  1.0091023E-02
   7105.00  1.0572528E-02
   7105.33  1.1111533E-02
   7105.67  1.1711752E-02
   7106.00  1.2384113E-02
   7106.33  1.3156059E-02
   7106.67  1.4038306E-02
   7107.00  1.5055601E-02
   7107.33  1.6269026E-02
   7107.67  1.7712813E-02
   7108.00  1.9455441E-02
   7108.33  2.1667801E-02
   7108.67  2.4486405E-02
   7109.00  2.8170203E-02
   7109.33  3.3409904E-02
   7109.67  4.1013302E-02
   7110.00  5.2576720E-02
   7110.33  7.2719626E-02
   7110.67  1.0607870E-01
   7111.00  1.5147027E-01
   7111.33  1.8463471E-01
   7111.67  1.9402178E-01
   7112.00  1.9700241E-01
   7112.33  2.0719067E-01
   7112.67  2.1392114E-01
   7113.00  2.0833235E-01
   7113.33  2.0307838E-01
   7113.67  2.1241935E-01
   7114.00  2.3432432E-01
   7114.33  2.3916620E-01
   7114.67  2.1621228E-01
   7115.00  1.9005625E-01
   7115.33  1.7007411E-01
   7115.67  1.4810473E-01
   7116.00  1.2794153E-01
   7116.33  1.1607930E-01
   7116.67  1.1161271E-01
   7117.00  1.1342928E-01
   7117.33  1.2164718E-01
   7117.67  1.3581672E-01
   7118.00  1.5649493E-01
   7118.33  1.8451900E-01
   7118.67  2.1692029E-01
   7119.00  2.4976992E-01
   7119.33  2.7750445E-01
   7119.67  2.9842095E-01
   7120.00  3.1348145E-01
   7120.33  3.2459396E-01
   7120.67  3.3497109E-01
   7121.00  3.4697140E-01
   7121.33  3.6235949E-01
   7121.67  3.8034878E-01
   7122.00  3.9969854E-01
   7122.33  4.1884493E-01
   7122.67  4.3711762E-01
   7123.00  4.5489846E-01
   7123.33  4.7289882E-01
   7123.67  4.9085339E-01
   7124.00  5.0802580E-01
   7124.33  5.2423489E-01
   7124.67  5.4048718E-01
   7125.00  5.5750055E-01
   7125.33  5.7502090E-01
   7125.67  5.9115441E-01
   7126.00  6.0411958E-01
   7126.33  6.1270944E-01
   7126.67  6.1837643E-01
   7127.00  6.2240334E-01
   7127.33  6.2545313E-01
   7127.67  6.2772108E-01
   7128.00  6.2987193E-01
   7128.33  6.3424823E-01
   7128.67  6.4269045E-01
   7129.00  6.5562896E-01
   7129.33  6.7195392E-01
   7129.67  6.8848606E-01
   7130.00  7.0288944E-01
   7130.33  7.1345218E-01
   7130.67  7.2151527E-01
   7131.00  7.2912010E-01
   7131.33  7.3845265E-01
   7131.67  7.4920519E-01
   7132.00  7.5959272E-01
   7132.33  7.6670707E-01
   7132.67  7.6934173E-01
   7133.00  7.6734046E-01
   7133.33  7.6096999E-01
   7133.67  7.5172008E-01
   7134.00  7.4030801E-01
   7134.33  7.2710318E-01
   7134.67  7.1253256E-01
   7135.00  6.9658040E-01
   7135.33  6.7920524E-01
   7135.67  6.6111659E-01
   7136.00  6.4299100E-01
   7136.33  6.2559078E-01
   7136.67  6.0926510E-01
   7137.00  5.9421283E-01
   7137.33  5.8069845E-01
   7137.67  5.6853037E-01
   7138.00  5.5760995E-01
   7138.33  5.4786904E-01
   7138.67  5.3891445E-01
   7139.00  5.3050898E-01
   7139.33  5.2246226E-01
   7139.67  5.1461348E-01
   7140.00  5.0695682E-01
   7140.33  4.9957580E-01
   7140.67  4.9248971E-01
   7141.00  4.8571168E-01
   7141.33  4.7925335E-01
   7141.67  4.7300041E-01
   7142.00  4.6682976E-01
   7142.33  4.6053542E-01
   7142.67  4.5393473E-01
   7143.00  4.4689805E-01
   7143.33  4.3929794E-01
   7143.67  4.3125513E-01
   7144.00  4.2292801E-01
   7144.33  4.1460494E-01
   7144.67  4.0662670E-01
   7145.00  3.9927192E-01
   7145.33  3.9290102E-01
   7145.67  3.8754667E-01
   7146.00  3.8324148E-01
   7146.33  3.8006250E-01
   7146.67  3.7777336E-01
   7147.00  3.7625223E-01
   7147.33  3.7542593E-01
   7147.67  3.7507224E-01
   7148.00  3.7507666E-01
   7148.33  3.7534841E-01
   7148.67  3.7574930E-01
   7149.00  3.7619301E-01
   7149.33  3.7657918E-01
   7149.67  3.7682572E-01
   7150.00  3.7686566E-01
   7150.33  3.7660749E-01
   7150.67  3.7604886E-01
   7151.00  3.7517917E-01
   7151.33  3.7397404E-01
   7151.67  3.7251077E-01
   7152.00  3.7084022E-01
   7152.33  3.6901648E-01
   7152.67  3.6713586E-01
   7153.00  3.6526900E-01
   7153.33  3.6350954E-01
   7153.67  3.6192348E-01
   7154.00  3.6057156E-01
   7154.33  3.5955360E-01
   7154.67  3.5888765E-01
   7155.00  3.5861380E-01
   7155.33  3.5881972E-01
   7155.67  3.5946862E-01
   7156.00  3.6055720E-01
   7156.33  3.6211066E-01
   7156.67  3.6402546E-01
   7157.00  3.6623632E-01
   7157.33  3.6866977E-01
   7157.67  3.7118988E-01
   7158.00  3.7370285E-01
   7158.33  3.7610217E-01
   7158.67  3.7833421E-01
   7159.00  3.8037021E-01
   7159.33  3.8218716E-01
   7159.67  3.8384419E-01
   7160.00  3.8539220E-01
   7160.33  3.8690238E-01
   7160.67  3.8846104E-01
   7161.00  3.9013576E-01
   7161.33  3.9201831E-01
   7161.67  3.9414153E-01
   7162.00  3.9654081E-01
   7162.33  3.9927177E-01
   7162.67  4.0229470E-01
   7163.00  4.0559347E-01
   7163.33  4.0916660E-01
   7163.67  4.1294069E-01
   7164.00  4.1687027E-01
   7164.33  4.2090299E-01
   7164.67  4.2496273E-01
   7165.00  4.2899917E-01
   7165.33  4.3295157E-01
   7165.67  4.3678862E-01
   7166.00  4.4048625E-01
   7166.33  4.4401065E-01
   7166.67  4.4737872E-01
   7167.00  4.5059495E-01
   7167.33  4.5365074E-01
   7167.67  4.5657433E-01
   7168.00  4.5937357E-01
   7168.33  4.6203974E-01
   7168.67  4.6458992E-01
   7169.00  4.6702321E-01
   7169.33  4.6932124E-01
   7169.67  4.7149465E-01
   7170.00  4.7353982E-01
   7170.33  4.7543691E-01
   7170.67  4.7720004E-01
   7171.00  4.7882645E-01
   7171.33  4.8028687E-01
   7171.67  4.8156692E-01
   7172.00  4.8261309E-01
