    FDMNES
    energy     <xanes>
   7097.00  4.5393873E-03
   7097.33  4.6324848E-03
   7097.67  4.7291409E-03
   7098.00  4.8295615E-03
   7098.33  4.9345124E-03
   7098.67  5.0437793E-03
   7099.00  5.1576342E-03
   7099.33  5.2770436E-03
   7099.67  5.4017789E-03
   7100.00  5.5322090E-03
   7100.33  5.6695841E-03
   7100.67  5.8136711E-03
   7101.00  5.9649867E-03
   7101.33  6.1251982E-03
   7101.67  6.2940918E-03
   7102.00  6.4724211E-03
   7102.33  6.6624967E-03
   7102.67  6.8641804E-03
   7103.00  7.0786281E-03
   7103.33  7.3092032E-03
   7103.67  7.5559788E-03
   7104.00  7.8208444E-03
   7104.33  8.1090228E-03
   7104.67  8.4211406E-03
   7105.00  8.7605524E-03
   7105.33  9.1361047E-03
   7105.67  9.5499165E-03
   7106.00  1.0008642E-02
   7106.33  1.0529168E-02
   7106.67  1.1118049E-02
   7107.00  1.1790659E-02
   7107.33  1.2585227E-02
   7107.67  1.3523889E-02
   7108.00  1.4650947E-02
   7108.33  1.6077996E-02
   7108.67  1.7899076E-02
   7109.00  2.0293244E-02
   7109.33  2.3746564E-02
   7109.67  2.8861022E-02
   7110.00  3.6836312E-02
   7110.33  5.1113268E-02
   7110.67  7.4300257E-02
   7111.00  1.0136602E-01
   7111.33  1.1218290E-01
   7111.67  1.1118126E-01
   7112.00  1.0653113E-01
   7112.33  1.0009200E-01
   7112.67  9.5064444E-02
   7113.00  9.2302494E-02
   7113.33  8.8722669E-02
   7113.67  8.2853574E-02
   7114.00  7.6254441E-02
   7114.33  7.1046960E-02
   7114.67  6.8579163E-02
   7115.00  6.9580089E-02
   7115.33  7.4907691E-02
   7115.67  8.4838832E-02
   7116.00  1.0067706E-01
   7116.33  1.2579234E-01
   7116.67  1.6159715E-01
   7117.00  2.0788990E-01
   7117.33  2.5604162E-01
   7117.67  2.8953438E-01
   7118.00  3.0474973E-01
   7118.33  3.1062158E-01
   7118.67  3.1533187E-01
   7119.00  3.2001750E-01
   7119.33  3.2359963E-01
   7119.67  3.2568212E-01
   7120.00  3.2709131E-01
   7120.33  3.2957257E-01
   7120.67  3.3369591E-01
   7121.00  3.3844778E-01
   7121.33  3.4092253E-01
   7121.67  3.3945830E-01
   7122.00  3.3483566E-01
   7122.33  3.3017452E-01
   7122.67  3.2841054E-01
   7123.00  3.3061304E-01
   7123.33  3.3593235E-01
   7123.67  3.3999999E-01
   7124.00  3.4026035E-01
   7124.33  3.3928470E-01
   7124.67  3.4145600E-01
   7125.00  3.4843064E-01
   7125.33  3.6211136E-01
   7125.67  3.8308116E-01
   7126.00  4.1215037E-01
   7126.33  4.4966086E-01
   7126.67  4.9116580E-01
   7127.00  5.3225801E-01
   7127.33  5.7002896E-01
   7127.67  6.0716439E-01
   7128.00  6.4705205E-01
   7128.33  6.9138757E-01
   7128.67  7.3661853E-01
   7129.00  7.7822058E-01
   7129.33  8.1082141E-01
   7129.67  8.3422359E-01
   7130.00  8.4985280E-01
   7130.33  8.5946740E-01
   7130.67  8.6482043E-01
   7131.00  8.6531686E-01
   7131.33  8.5855740E-01
   7131.67  8.4373791E-01
   7132.00  8.2040653E-01
   7132.33  7.9046144E-01
   7132.67  7.6069317E-01
   7133.00  7.3618576E-01
   7133.33  7.2054222E-01
   7133.67  7.1179173E-01
   7134.00  7.0741792E-01
   7134.33  7.0385909E-01
   7134.67  6.9789754E-01
   7135.00  6.8788533E-01
   7135.33  6.7205723E-01
   7135.67  6.5131667E-01
   7136.00  6.2740710E-01
   7136.33  6.0319461E-01
   7136.67  5.8110472E-01
   7137.00  5.6216639E-01
   7137.33  5.4689804E-01
   7137.67  5.3431936E-01
   7138.00  5.2375072E-01
   7138.33  5.1460348E-01
   7138.67  5.0615583E-01
   7139.00  4.9810067E-01
   7139.33  4.9027936E-01
   7139.67  4.8260839E-01
   7140.00  4.7510063E-01
   7140.33  4.6784614E-01
   7140.67  4.6091567E-01
   7141.00  4.5440916E-01
   7141.33  4.4849994E-01
   7141.67  4.4319254E-01
   7142.00  4.3851064E-01
   7142.33  4.3452042E-01
   7142.67  4.3110433E-01
   7143.00  4.2821331E-01
   7143.33  4.2583979E-01
   7143.67  4.2385520E-01
   7144.00  4.2218938E-01
   7144.33  4.2076290E-01
   7144.67  4.1940199E-01
   7145.00  4.1794584E-01
   7145.33  4.1615970E-01
   7145.67  4.1393093E-01
   7146.00  4.1121403E-01
   7146.33  4.0801020E-01
   7146.67  4.0451556E-01
   7147.00  4.0088544E-01
   7147.33  3.9730865E-01
   7147.67  3.9394116E-01
   7148.00  3.9089927E-01
   7148.33  3.8834307E-01
   7148.67  3.8629042E-01
   7149.00  3.8478393E-01
   7149.33  3.8393669E-01
   7149.67  3.8371767E-01
   7150.00  3.8416661E-01
   7150.33  3.8540123E-01
   7150.67  3.8732667E-01
   7151.00  3.8990499E-01
   7151.33  3.9312476E-01
   7151.67  3.9677071E-01
   7152.00  4.0066461E-01
   7152.33  4.0456169E-01
   7152.67  4.0819899E-01
   7153.00  4.1136083E-01
   7153.33  4.1376488E-01
   7153.67  4.1539615E-01
   7154.00  4.1627550E-01
   7154.33  4.1647930E-01
   7154.67  4.1633557E-01
   7155.00  4.1609783E-01
   7155.33  4.1606859E-01
   7155.67  4.1643492E-01
   7156.00  4.1729498E-01
   7156.33  4.1872194E-01
   7156.67  4.2056455E-01
   7157.00  4.2269172E-01
   7157.33  4.2493786E-01
   7157.67  4.2712212E-01
   7158.00  4.2913267E-01
   7158.33  4.3085947E-01
   7158.67  4.3231441E-01
   7159.00  4.3352019E-01
   7159.33  4.3451061E-01
   7159.67  4.3538578E-01
   7160.00  4.3621158E-01
   7160.33  4.3705556E-01
   7160.67  4.3796701E-01
   7161.00  4.3898364E-01
   7161.33  4.4017026E-01
   7161.67  4.4155914E-01
   7162.00  4.4319387E-01
   7162.33  4.4515821E-01
   7162.67  4.4745236E-01
   7163.00  4.5009137E-01
   7163.33  4.5310677E-01
   7163.67  4.5641139E-01
   7164.00  4.5993912E-01
   7164.33  4.6360520E-01
   7164.67  4.6728199E-01
   7165.00  4.7087383E-01
   7165.33  4.7425753E-01
   7165.67  4.7737362E-01
   7166.00  4.8016611E-01
   7166.33  4.8253889E-01
   7166.67  4.8450325E-01
   7167.00  4.8603894E-01
   7167.33  4.8707910E-01
   7167.67  4.8768033E-01
   7168.00  4.8785698E-01
   7168.33  4.8759445E-01
   7168.67  4.8699397E-01
   7169.00  4.8611298E-01
   7169.33  4.8500449E-01
   7169.67  4.8378037E-01
   7170.00  4.8251746E-01
   7170.33  4.8130836E-01
   7170.67  4.8022452E-01
   7171.00  4.7931980E-01
   7171.33  4.7866135E-01
   7171.67  4.7822349E-01
   7172.00  4.7796551E-01
