    FDMNES
    energy     <xanes>
   7097.00  4.2562956E-03
   7097.33  4.3393214E-03
   7097.67  4.4252523E-03
   7098.00  4.5142396E-03
   7098.33  4.6068803E-03
   7098.67  4.7029771E-03
   7099.00  4.8027247E-03
   7099.33  4.9068579E-03
   7099.67  5.0151621E-03
   7100.00  5.1278935E-03
   7100.33  5.2459758E-03
   7100.67  5.3691804E-03
   7101.00  5.4978548E-03
   7101.33  5.6331902E-03
   7101.67  5.7749543E-03
   7102.00  5.9236354E-03
   7102.33  6.0808209E-03
   7102.67  6.2463003E-03
   7103.00  6.4207911E-03
   7103.33  6.6064992E-03
   7103.67  6.8032978E-03
   7104.00  7.0123013E-03
   7104.33  7.2367499E-03
   7104.67  7.4767500E-03
   7105.00  7.7341624E-03
   7105.33  8.0141076E-03
   7105.67  8.3173150E-03
   7106.00  8.6471958E-03
   7106.33  9.0126832E-03
   7106.67  9.4162419E-03
   7107.00  9.8649498E-03
   7107.33  1.0376666E-02
   7107.67  1.0959254E-02
   7108.00  1.1630132E-02
   7108.33  1.2432621E-02
   7108.67  1.3394940E-02
   7109.00  1.4572054E-02
   7109.33  1.6104561E-02
   7109.67  1.8125987E-02
   7110.00  2.0892418E-02
   7110.33  2.5120623E-02
   7110.67  3.1718220E-02
   7111.00  4.2131071E-02
   7111.33  5.8756961E-02
   7111.67  8.1017698E-02
   7112.00  1.0578322E-01
   7112.33  1.1937344E-01
   7112.67  1.1030712E-01
   7113.00  9.0020084E-02
   7113.33  7.3986133E-02
   7113.67  6.2982959E-02
   7114.00  5.5277457E-02
   7114.33  5.0245825E-02
   7114.67  4.7244817E-02
   7115.00  4.5825604E-02
   7115.33  4.5633654E-02
   7115.67  4.6281265E-02
   7116.00  4.7669972E-02
   7116.33  4.9793709E-02
   7116.67  5.2489507E-02
   7117.00  5.5708317E-02
   7117.33  5.9632464E-02
   7117.67  6.4490374E-02
   7118.00  7.0523321E-02
   7118.33  7.8120922E-02
   7118.67  8.7383701E-02
   7119.00  9.8641571E-02
   7119.33  1.1273371E-01
   7119.67  1.3014613E-01
   7120.00  1.5193057E-01
   7120.33  1.8045047E-01
   7120.67  2.1684952E-01
   7121.00  2.6266640E-01
   7121.33  3.1929897E-01
   7121.67  3.8182970E-01
   7122.00  4.4513804E-01
   7122.33  5.0647196E-01
   7122.67  5.6688869E-01
   7123.00  6.2603353E-01
   7123.33  6.8091101E-01
   7123.67  7.2913962E-01
   7124.00  7.6953786E-01
   7124.33  8.0246427E-01
   7124.67  8.3239477E-01
   7125.00  8.6270834E-01
   7125.33  8.9408812E-01
   7125.67  9.2062877E-01
   7126.00  9.3358519E-01
   7126.33  9.2200138E-01
   7126.67  8.8948027E-01
   7127.00  8.4411514E-01
   7127.33  7.9664273E-01
   7127.67  7.5419168E-01
   7128.00  7.1890247E-01
   7128.33  6.9169313E-01
   7128.67  6.7040813E-01
   7129.00  6.5328553E-01
   7129.33  6.3855298E-01
   7129.67  6.2502687E-01
   7130.00  6.1284533E-01
   7130.33  6.0308239E-01
   7130.67  5.9679218E-01
   7131.00  5.9516237E-01
   7131.33  5.9884072E-01
   7131.67  6.0474017E-01
   7132.00  6.0932716E-01
   7132.33  6.0820530E-01
   7132.67  6.0001349E-01
   7133.00  5.8471328E-01
   7133.33  5.6296302E-01
   7133.67  5.3756295E-01
   7134.00  5.1051549E-01
   7134.33  4.8435006E-01
   7134.67  4.6090483E-01
   7135.00  4.4077881E-01
   7135.33  4.2397610E-01
   7135.67  4.0986702E-01
   7136.00  3.9872152E-01
   7136.33  3.9124037E-01
   7136.67  3.8689701E-01
   7137.00  3.8534537E-01
   7137.33  3.8638025E-01
   7137.67  3.8925701E-01
   7138.00  3.9368379E-01
   7138.33  3.9958488E-01
   7138.67  4.0662993E-01
   7139.00  4.1471547E-01
   7139.33  4.2386646E-01
   7139.67  4.3388190E-01
   7140.00  4.4468584E-01
   7140.33  4.5625373E-01
   7140.67  4.6835156E-01
   7141.00  4.8080548E-01
   7141.33  4.9335372E-01
   7141.67  5.0562435E-01
   7142.00  5.1723305E-01
   7142.33  5.2751841E-01
   7142.67  5.3610581E-01
   7143.00  5.4262374E-01
   7143.33  5.4649765E-01
   7143.67  5.4792345E-01
   7144.00  5.4697289E-01
   7144.33  5.4362371E-01
   7144.67  5.3850248E-01
   7145.00  5.3196065E-01
   7145.33  5.2428669E-01
   7145.67  5.1599977E-01
   7146.00  5.0740875E-01
   7146.33  4.9883003E-01
   7146.67  4.9051787E-01
   7147.00  4.8263775E-01
   7147.33  4.7538870E-01
   7147.67  4.6876803E-01
   7148.00  4.6279444E-01
   7148.33  4.5753788E-01
   7148.67  4.5288983E-01
   7149.00  4.4882003E-01
   7149.33  4.4536269E-01
   7149.67  4.4242191E-01
   7150.00  4.3998077E-01
   7150.33  4.3809050E-01
   7150.67  4.3668996E-01
   7151.00  4.3578499E-01
   7151.33  4.3544596E-01
   7151.67  4.3560904E-01
   7152.00  4.3625722E-01
   7152.33  4.3739337E-01
   7152.67  4.3886577E-01
   7153.00  4.4054624E-01
   7153.33  4.4223406E-01
   7153.67  4.4368989E-01
   7154.00  4.4470630E-01
   7154.33  4.4499562E-01
   7154.67  4.4451039E-01
   7155.00  4.4322855E-01
   7155.33  4.4113818E-01
   7155.67  4.3849273E-01
   7156.00  4.3547135E-01
   7156.33  4.3227154E-01
   7156.67  4.2910906E-01
   7157.00  4.2611843E-01
   7157.33  4.2344589E-01
   7157.67  4.2112286E-01
   7158.00  4.1917963E-01
   7158.33  4.1766953E-01
   7158.67  4.1651659E-01
   7159.00  4.1567860E-01
   7159.33  4.1512433E-01
   7159.67  4.1475161E-01
   7160.00  4.1449793E-01
   7160.33  4.1430177E-01
   7160.67  4.1410246E-01
   7161.00  4.1386873E-01
   7161.33  4.1357812E-01
   7161.67  4.1324213E-01
   7162.00  4.1287806E-01
   7162.33  4.1251293E-01
   7162.67  4.1216924E-01
   7163.00  4.1185150E-01
   7163.33  4.1154585E-01
   7163.67  4.1121706E-01
   7164.00  4.1082622E-01
   7164.33  4.1031494E-01
   7164.67  4.0966495E-01
   7165.00  4.0886412E-01
   7165.33  4.0789937E-01
   7165.67  4.0681343E-01
   7166.00  4.0563925E-01
   7166.33  4.0441633E-01
   7166.67  4.0319324E-01
   7167.00  4.0201034E-01
   7167.33  4.0093527E-01
   7167.67  4.0001528E-01
   7168.00  3.9930249E-01
   7168.33  3.9889144E-01
   7168.67  3.9880776E-01
   7169.00  3.9909926E-01
   7169.33  3.9986808E-01
   7169.67  4.0109623E-01
   7170.00  4.0279885E-01
   7170.33  4.0503107E-01
   7170.67  4.0769416E-01
   7171.00  4.1071267E-01
   7171.33  4.1395115E-01
   7171.67  4.1709870E-01
   7172.00  4.1978711E-01
