    FDMNES
    energy     <xanes>
   7097.00  4.9962695E-03
   7097.33  5.1153498E-03
   7097.67  5.2398517E-03
   7098.00  5.3701455E-03
   7098.33  5.5074923E-03
   7098.67  5.6516415E-03
   7099.00  5.8031005E-03
   7099.33  5.9635259E-03
   7099.67  6.1326657E-03
   7100.00  6.3112355E-03
   7100.33  6.5014722E-03
   7100.67  6.7031524E-03
   7101.00  6.9173192E-03
   7101.33  7.1470951E-03
   7101.67  7.3923512E-03
   7102.00  7.6546700E-03
   7102.33  7.9385881E-03
   7102.67  8.2442186E-03
   7103.00  8.5740799E-03
   7103.33  8.9350955E-03
   7103.67  9.3279600E-03
   7104.00  9.7569241E-03
   7104.33  1.0233224E-02
   7104.67  1.0758961E-02
   7105.00  1.1341864E-02
   7105.33  1.2001658E-02
   7105.67  1.2744043E-02
   7106.00  1.3584487E-02
   7106.33  1.4561413E-02
   7106.67  1.5690663E-02
   7107.00  1.7007512E-02
   7107.33  1.8598400E-02
   7107.67  2.0512563E-02
   7108.00  2.2847053E-02
   7108.33  2.5842531E-02
   7108.67  2.9689006E-02
   7109.00  3.4744141E-02
   7109.33  4.1952405E-02
   7109.67  5.2387100E-02
   7110.00  6.8148086E-02
   7110.33  9.5208136E-02
   7110.67  1.3920763E-01
   7111.00  1.9891017E-01
   7111.33  2.5989764E-01
   7111.67  3.2300413E-01
   7112.00  3.7678386E-01
   7112.33  3.9490265E-01
   7112.67  3.7959151E-01
   7113.00  3.2364613E-01
   7113.33  2.5439569E-01
   7113.67  1.9947925E-01
   7114.00  1.6134575E-01
   7114.33  1.3931197E-01
   7114.67  1.2770061E-01
   7115.00  1.2391435E-01
   7115.33  1.2297847E-01
   7115.67  1.1611388E-01
   7116.00  1.0498047E-01
   7116.33  9.6568065E-02
   7116.67  9.2675964E-02
   7117.00  9.3208000E-02
   7117.33  9.8545428E-02
   7117.67  1.0822491E-01
   7118.00  1.2218679E-01
   7118.33  1.4077029E-01
   7118.67  1.6224619E-01
   7119.00  1.8053765E-01
   7119.33  1.8316224E-01
   7119.67  1.7584242E-01
   7120.00  1.7130508E-01
   7120.33  1.7861166E-01
   7120.67  1.9677895E-01
   7121.00  2.2200819E-01
   7121.33  2.4829910E-01
   7121.67  2.7784025E-01
   7122.00  3.1684631E-01
   7122.33  3.6729781E-01
   7122.67  4.1765305E-01
   7123.00  4.6013369E-01
   7123.33  4.9844170E-01
   7123.67  5.3561079E-01
   7124.00  5.6721147E-01
   7124.33  5.8836932E-01
   7124.67  6.0402260E-01
   7125.00  6.2110584E-01
   7125.33  6.4247653E-01
   7125.67  6.6203857E-01
   7126.00  6.7514728E-01
   7126.33  6.8070486E-01
   7126.67  6.8165391E-01
   7127.00  6.7899684E-01
   7127.33  6.7229949E-01
   7127.67  6.6210472E-01
   7128.00  6.4940815E-01
   7128.33  6.3610077E-01
   7128.67  6.2414304E-01
   7129.00  6.1478634E-01
   7129.33  6.0957924E-01
   7129.67  6.0862205E-01
   7130.00  6.1186872E-01
   7130.33  6.1904548E-01
   7130.67  6.2792041E-01
   7131.00  6.3620163E-01
   7131.33  6.4124471E-01
   7131.67  6.4324596E-01
   7132.00  6.4427549E-01
   7132.33  6.4789903E-01
   7132.67  6.5522185E-01
   7133.00  6.6487036E-01
   7133.33  6.7292840E-01
   7133.67  6.7558041E-01
   7134.00  6.7086304E-01
   7134.33  6.5843273E-01
   7134.67  6.4214056E-01
   7135.00  6.2500933E-01
   7135.33  6.0949298E-01
   7135.67  5.9619178E-01
   7136.00  5.8524872E-01
   7136.33  5.7704287E-01
   7136.67  5.7115674E-01
   7137.00  5.6712198E-01
   7137.33  5.6414474E-01
   7137.67  5.6123847E-01
   7138.00  5.5806829E-01
   7138.33  5.5482675E-01
   7138.67  5.5204911E-01
   7139.00  5.5012417E-01
   7139.33  5.4933293E-01
   7139.67  5.4936334E-01
   7140.00  5.4985629E-01
   7140.33  5.5027544E-01
   7140.67  5.5009173E-01
   7141.00  5.4888632E-01
   7141.33  5.4604811E-01
   7141.67  5.4139038E-01
   7142.00  5.3466823E-01
   7142.33  5.2547081E-01
   7142.67  5.1417920E-01
   7143.00  5.0111278E-01
   7143.33  4.8673512E-01
   7143.67  4.7195486E-01
   7144.00  4.5744098E-01
   7144.33  4.4398737E-01
   7144.67  4.3196097E-01
   7145.00  4.2160860E-01
   7145.33  4.1327774E-01
   7145.67  4.0673269E-01
   7146.00  4.0188601E-01
   7146.33  3.9876440E-01
   7146.67  3.9696529E-01
   7147.00  3.9628351E-01
   7147.33  3.9656184E-01
   7147.67  3.9740986E-01
   7148.00  3.9858421E-01
   7148.33  3.9983940E-01
   7148.67  4.0097558E-01
   7149.00  4.0189361E-01
   7149.33  4.0252973E-01
   7149.67  4.0296397E-01
   7150.00  4.0328057E-01
   7150.33  4.0360181E-01
   7150.67  4.0404950E-01
   7151.00  4.0470970E-01
   7151.33  4.0567887E-01
   7151.67  4.0693744E-01
   7152.00  4.0846286E-01
   7152.33  4.1022843E-01
   7152.67  4.1214216E-01
   7153.00  4.1414745E-01
   7153.33  4.1618477E-01
   7153.67  4.1818871E-01
   7154.00  4.2010429E-01
   7154.33  4.2184323E-01
   7154.67  4.2335219E-01
   7155.00  4.2456863E-01
   7155.33  4.2538251E-01
   7155.67  4.2578926E-01
   7156.00  4.2576436E-01
   7156.33  4.2524826E-01
   7156.67  4.2431524E-01
   7157.00  4.2299822E-01
   7157.33  4.2130581E-01
   7157.67  4.1933551E-01
   7158.00  4.1713290E-01
   7158.33  4.1471878E-01
   7158.67  4.1215117E-01
   7159.00  4.0945342E-01
   7159.33  4.0663444E-01
   7159.67  4.0372755E-01
   7160.00  4.0074977E-01
   7160.33  3.9771927E-01
   7160.67  3.9467432E-01
   7161.00  3.9165125E-01
   7161.33  3.8871349E-01
   7161.67  3.8591918E-01
   7162.00  3.8333632E-01
   7162.33  3.8108597E-01
   7162.67  3.7920860E-01
   7163.00  3.7775693E-01
   7163.33  3.7683001E-01
   7163.67  3.7638516E-01
   7164.00  3.7641645E-01
   7164.33  3.7695584E-01
   7164.67  3.7790897E-01
   7165.00  3.7923607E-01
   7165.33  3.8092552E-01
   7165.67  3.8288223E-01
   7166.00  3.8505917E-01
   7166.33  3.8742531E-01
   7166.67  3.8991245E-01
   7167.00  3.9248574E-01
   7167.33  3.9511973E-01
   7167.67  3.9778475E-01
   7168.00  4.0046754E-01
   7168.33  4.0315909E-01
   7168.67  4.0585212E-01
   7169.00  4.0854293E-01
   7169.33  4.1122669E-01
   7169.67  4.1389833E-01
   7170.00  4.1655014E-01
   7170.33  4.1916425E-01
   7170.67  4.2172318E-01
   7171.00  4.2419778E-01
   7171.33  4.2651304E-01
   7171.67  4.2858328E-01
   7172.00  4.3027483E-01
