    FDMNES
    energy     <xanes>
   7097.00  5.3286058E-03
   7097.33  5.4598509E-03
   7097.67  5.5972720E-03
   7098.00  5.7412979E-03
   7098.33  5.8933757E-03
   7098.67  6.0532271E-03
   7099.00  6.2214385E-03
   7099.33  6.3999116E-03
   7099.67  6.5883640E-03
   7100.00  6.7876185E-03
   7100.33  7.0002395E-03
   7100.67  7.2259699E-03
   7101.00  7.4660003E-03
   7101.33  7.7238945E-03
   7101.67  7.9994865E-03
   7102.00  8.2945620E-03
   7102.33  8.6142558E-03
   7102.67  8.9586386E-03
   7103.00  9.3305063E-03
   7103.33  9.7375901E-03
   7103.67  1.0180526E-02
   7104.00  1.0663930E-02
   7104.33  1.1200100E-02
   7104.67  1.1791019E-02
   7105.00  1.2444840E-02
   7105.33  1.3182549E-02
   7105.67  1.4009498E-02
   7106.00  1.4941417E-02
   7106.33  1.6017673E-02
   7106.67  1.7252855E-02
   7107.00  1.8681292E-02
   7107.33  2.0387485E-02
   7107.67  2.2415655E-02
   7108.00  2.4855902E-02
   7108.33  2.7931946E-02
   7108.67  3.1811356E-02
   7109.00  3.6815043E-02
   7109.33  4.3793477E-02
   7109.67  5.3705571E-02
   7110.00  6.8445022E-02
   7110.33  9.3298880E-02
   7110.67  1.3165728E-01
   7111.00  1.7473765E-01
   7111.33  1.9873255E-01
   7111.67  2.2740236E-01
   7112.00  2.8465479E-01
   7112.33  3.8175398E-01
   7112.67  5.0675763E-01
   7113.00  6.3128694E-01
   7113.33  6.7477788E-01
   7113.67  6.0433952E-01
   7114.00  4.7315351E-01
   7114.33  3.6174445E-01
   7114.67  2.8585089E-01
   7115.00  2.3815715E-01
   7115.33  2.1173501E-01
   7115.67  1.9769313E-01
   7116.00  1.9128841E-01
   7116.33  1.8727139E-01
   7116.67  1.8068190E-01
   7117.00  1.7012202E-01
   7117.33  1.5849365E-01
   7117.67  1.4937677E-01
   7118.00  1.4334946E-01
   7118.33  1.3979738E-01
   7118.67  1.3772345E-01
   7119.00  1.3692394E-01
   7119.33  1.3729386E-01
   7119.67  1.3840724E-01
   7120.00  1.3958768E-01
   7120.33  1.3931055E-01
   7120.67  1.3704840E-01
   7121.00  1.3355823E-01
   7121.33  1.3089748E-01
   7121.67  1.3049135E-01
   7122.00  1.3259013E-01
   7122.33  1.3725806E-01
   7122.67  1.4433623E-01
   7123.00  1.5426342E-01
   7123.33  1.6813867E-01
   7123.67  1.8602744E-01
   7124.00  2.0791009E-01
   7124.33  2.3318788E-01
   7124.67  2.5929527E-01
   7125.00  2.8378699E-01
   7125.33  3.0398596E-01
   7125.67  3.2010903E-01
   7126.00  3.3351193E-01
   7126.33  3.4643325E-01
   7126.67  3.6081384E-01
   7127.00  3.7773843E-01
   7127.33  3.9886129E-01
   7127.67  4.2492502E-01
   7128.00  4.5644096E-01
   7128.33  4.9325914E-01
   7128.67  5.3255285E-01
   7129.00  5.7190011E-01
   7129.33  6.0866096E-01
   7129.67  6.4152991E-01
   7130.00  6.6964014E-01
   7130.33  6.9236494E-01
   7130.67  7.1154105E-01
   7131.00  7.2890028E-01
   7131.33  7.4652288E-01
   7131.67  7.6580407E-01
   7132.00  7.8718460E-01
   7132.33  8.1049492E-01
   7132.67  8.3446341E-01
   7133.00  8.5795580E-01
   7133.33  8.7938933E-01
   7133.67  8.9753560E-01
   7134.00  9.1086887E-01
   7134.33  9.1634816E-01
   7134.67  9.1271158E-01
   7135.00  8.9885028E-01
   7135.33  8.7374853E-01
   7135.67  8.4056122E-01
   7136.00  8.0187015E-01
   7136.33  7.6080112E-01
   7136.67  7.2072985E-01
   7137.00  6.8375751E-01
   7137.33  6.5215040E-01
   7137.67  6.2623722E-01
   7138.00  6.0634638E-01
   7138.33  5.9320324E-01
   7138.67  5.8568298E-01
   7139.00  5.8322369E-01
   7139.33  5.8544977E-01
   7139.67  5.9075339E-01
   7140.00  5.9813234E-01
   7140.33  6.0657997E-01
   7140.67  6.1502227E-01
   7141.00  6.2284454E-01
   7141.33  6.2945037E-01
   7141.67  6.3474883E-01
   7142.00  6.3868899E-01
   7142.33  6.4115783E-01
   7142.67  6.4243410E-01
   7143.00  6.4263595E-01
   7143.33  6.4178176E-01
   7143.67  6.4010903E-01
   7144.00  6.3770450E-01
   7144.33  6.3457020E-01
   7144.67  6.3085530E-01
   7145.00  6.2661086E-01
   7145.33  6.2183440E-01
   7145.67  6.1664399E-01
   7146.00  6.1109513E-01
   7146.33  6.0522365E-01
   7146.67  5.9914417E-01
   7147.00  5.9292819E-01
   7147.33  5.8665330E-01
   7147.67  5.8040918E-01
   7148.00  5.7426560E-01
   7148.33  5.6831838E-01
   7148.67  5.6260791E-01
   7149.00  5.5717811E-01
   7149.33  5.5211013E-01
   7149.67  5.4739547E-01
   7150.00  5.4305532E-01
   7150.33  5.3915699E-01
   7150.67  5.3566869E-01
   7151.00  5.3260794E-01
   7151.33  5.3004335E-01
   7151.67  5.2792733E-01
   7152.00  5.2626417E-01
   7152.33  5.2511154E-01
   7152.67  5.2440763E-01
   7153.00  5.2414171E-01
   7153.33  5.2434416E-01
   7153.67  5.2493102E-01
   7154.00  5.2586695E-01
   7154.33  5.2713949E-01
   7154.67  5.2865218E-01
   7155.00  5.3034589E-01
   7155.33  5.3215488E-01
   7155.67  5.3398037E-01
   7156.00  5.3574369E-01
   7156.33  5.3732854E-01
   7156.67  5.3865527E-01
   7157.00  5.3963886E-01
   7157.33  5.4013085E-01
   7157.67  5.4010353E-01
   7158.00  5.3950047E-01
   7158.33  5.3820006E-01
   7158.67  5.3626255E-01
   7159.00  5.3369577E-01
   7159.33  5.3045914E-01
   7159.67  5.2668468E-01
   7160.00  5.2243935E-01
   7160.33  5.1777224E-01
   7160.67  5.1283551E-01
   7161.00  5.0772088E-01
   7161.33  5.0252302E-01
   7161.67  4.9734446E-01
   7162.00  4.9225225E-01
   7162.33  4.8733217E-01
   7162.67  4.8261370E-01
   7163.00  4.7811897E-01
   7163.33  4.7389248E-01
   7163.67  4.6990759E-01
   7164.00  4.6615643E-01
   7164.33  4.6264596E-01
   7164.67  4.5932212E-01
   7165.00  4.5615857E-01
   7165.33  4.5313896E-01
   7165.67  4.5021537E-01
   7166.00  4.4736295E-01
   7166.33  4.4456274E-01
   7166.67  4.4178975E-01
   7167.00  4.3903302E-01
   7167.33  4.3628829E-01
   7167.67  4.3355659E-01
   7168.00  4.3084538E-01
   7168.33  4.2817262E-01
   7168.67  4.2555345E-01
   7169.00  4.2300911E-01
   7169.33  4.2057822E-01
   7169.67  4.1827294E-01
   7170.00  4.1611416E-01
   7170.33  4.1414690E-01
   7170.67  4.1237192E-01
   7171.00  4.1080594E-01
   7171.33  4.0949276E-01
   7171.67  4.0841563E-01
   7172.00  4.0757828E-01
