    FDMNES
    energy     <xanes>
   7097.00  5.2029590E-03
   7097.33  5.3246826E-03
   7097.67  5.4518989E-03
   7098.00  5.5849781E-03
   7098.33  5.7251885E-03
   7098.67  5.8722677E-03
   7099.00  6.0267189E-03
   7099.33  6.1901979E-03
   7099.67  6.3624346E-03
   7100.00  6.5441317E-03
   7100.33  6.7375059E-03
   7100.67  6.9423040E-03
   7101.00  7.1595366E-03
   7101.33  7.3922629E-03
   7101.67  7.6402996E-03
   7102.00  7.9051541E-03
   7102.33  8.1912033E-03
   7102.67  8.4984524E-03
   7103.00  8.8292490E-03
   7103.33  9.1901369E-03
   7103.67  9.5815782E-03
   7104.00  1.0007428E-02
   7104.33  1.0478021E-02
   7104.67  1.0994913E-02
   7105.00  1.1564873E-02
   7105.33  1.2205405E-02
   7105.67  1.2920792E-02
   7106.00  1.3723995E-02
   7106.33  1.4647553E-02
   7106.67  1.5703146E-02
   7107.00  1.6918727E-02
   7107.33  1.8363142E-02
   7107.67  2.0071241E-02
   7108.00  2.2114659E-02
   7108.33  2.4670397E-02
   7108.67  2.7864888E-02
   7109.00  3.1939643E-02
   7109.33  3.7522841E-02
   7109.67  4.5274178E-02
   7110.00  5.6479409E-02
   7110.33  7.4776120E-02
   7110.67  1.0389430E-01
   7111.00  1.4487290E-01
   7111.33  1.8997147E-01
   7111.67  2.3717568E-01
   7112.00  2.8615491E-01
   7112.33  3.3846103E-01
   7112.67  3.9885692E-01
   7113.00  4.5358903E-01
   7113.33  4.6200656E-01
   7113.67  4.1194843E-01
   7114.00  3.3687820E-01
   7114.33  2.7776120E-01
   7114.67  2.4073142E-01
   7115.00  2.2235365E-01
   7115.33  2.1805640E-01
   7115.67  2.1883753E-01
   7116.00  2.1934344E-01
   7116.33  2.1624485E-01
   7116.67  2.0907823E-01
   7117.00  1.9910921E-01
   7117.33  1.8950436E-01
   7117.67  1.8208583E-01
   7118.00  1.7685775E-01
   7118.33  1.7337780E-01
   7118.67  1.7090625E-01
   7119.00  1.6910386E-01
   7119.33  1.6777637E-01
   7119.67  1.6662704E-01
   7120.00  1.6499948E-01
   7120.33  1.6151132E-01
   7120.67  1.5619072E-01
   7121.00  1.5008672E-01
   7121.33  1.4486853E-01
   7121.67  1.4154071E-01
   7122.00  1.4054917E-01
   7122.33  1.4250288E-01
   7122.67  1.4744540E-01
   7123.00  1.5581310E-01
   7123.33  1.6866498E-01
   7123.67  1.8601793E-01
   7124.00  2.0815556E-01
   7124.33  2.3554023E-01
   7124.67  2.6657946E-01
   7125.00  2.9949385E-01
   7125.33  3.3151195E-01
   7125.67  3.6073389E-01
   7126.00  3.8674736E-01
   7126.33  4.0958114E-01
   7126.67  4.2979360E-01
   7127.00  4.4788647E-01
   7127.33  4.6616061E-01
   7127.67  4.8814989E-01
   7128.00  5.1662654E-01
   7128.33  5.5433031E-01
   7128.67  5.9959261E-01
   7129.00  6.5007443E-01
   7129.33  7.0224489E-01
   7129.67  7.5219595E-01
   7130.00  7.9674077E-01
   7130.33  8.3140071E-01
   7130.67  8.5557699E-01
   7131.00  8.6970837E-01
   7131.33  8.7487735E-01
   7131.67  8.7458827E-01
   7132.00  8.7050544E-01
   7132.33  8.6327519E-01
   7132.67  8.5360923E-01
   7133.00  8.4202258E-01
   7133.33  8.3003681E-01
   7133.67  8.1975017E-01
   7134.00  8.1172919E-01
   7134.33  8.0409868E-01
   7134.67  7.9372753E-01
   7135.00  7.7896822E-01
   7135.33  7.5923517E-01
   7135.67  7.3630657E-01
   7136.00  7.1149079E-01
   7136.33  6.8610208E-01
   7136.67  6.6135326E-01
   7137.00  6.3808914E-01
   7137.33  6.1746415E-01
   7137.67  5.9990455E-01
   7138.00  5.8587026E-01
   7138.33  5.7610291E-01
   7138.67  5.7002418E-01
   7139.00  5.6721977E-01
   7139.33  5.6718209E-01
   7139.67  5.6857063E-01
   7140.00  5.7048362E-01
   7140.33  5.7199845E-01
   7140.67  5.7259010E-01
   7141.00  5.7203495E-01
   7141.33  5.7017154E-01
   7141.67  5.6729079E-01
   7142.00  5.6357268E-01
   7142.33  5.5915361E-01
   7142.67  5.5430026E-01
   7143.00  5.4914679E-01
   7143.33  5.4379820E-01
   7143.67  5.3837862E-01
   7144.00  5.3296294E-01
   7144.33  5.2764013E-01
   7144.67  5.2247602E-01
   7145.00  5.1753801E-01
   7145.33  5.1293468E-01
   7145.67  5.0866309E-01
   7146.00  5.0472753E-01
   7146.33  5.0117928E-01
   7146.67  4.9799272E-01
   7147.00  4.9518570E-01
   7147.33  4.9282733E-01
   7147.67  4.9088186E-01
   7148.00  4.8935484E-01
   7148.33  4.8829446E-01
   7148.67  4.8763428E-01
   7149.00  4.8735227E-01
   7149.33  4.8744647E-01
   7149.67  4.8781217E-01
   7150.00  4.8838427E-01
   7150.33  4.8909177E-01
   7150.67  4.8982700E-01
   7151.00  4.9051122E-01
   7151.33  4.9104566E-01
   7151.67  4.9138425E-01
   7152.00  4.9149507E-01
   7152.33  4.9134231E-01
   7152.67  4.9098230E-01
   7153.00  4.9046221E-01
   7153.33  4.8984671E-01
   7153.67  4.8923385E-01
   7154.00  4.8870075E-01
   7154.33  4.8835115E-01
   7154.67  4.8823415E-01
   7155.00  4.8839501E-01
   7155.33  4.8890732E-01
   7155.67  4.8974755E-01
   7156.00  4.9091579E-01
   7156.33  4.9243953E-01
   7156.67  4.9425747E-01
   7157.00  4.9634543E-01
   7157.33  4.9870104E-01
   7157.67  5.0125958E-01
   7158.00  5.0398880E-01
   7158.33  5.0686698E-01
   7158.67  5.0984067E-01
   7159.00  5.1287801E-01
   7159.33  5.1594546E-01
   7159.67  5.1900391E-01
   7160.00  5.2202301E-01
   7160.33  5.2495847E-01
   7160.67  5.2778483E-01
   7161.00  5.3047164E-01
   7161.33  5.3295849E-01
   7161.67  5.3522641E-01
   7162.00  5.3723623E-01
   7162.33  5.3890385E-01
   7162.67  5.4022878E-01
   7163.00  5.4117932E-01
   7163.33  5.4167256E-01
   7163.67  5.4174060E-01
   7164.00  5.4137580E-01
   7164.33  5.4052331E-01
   7164.67  5.3924654E-01
   7165.00  5.3756232E-01
   7165.33  5.3545274E-01
   7165.67  5.3300252E-01
   7166.00  5.3024855E-01
   7166.33  5.2720611E-01
   7166.67  5.2395794E-01
   7167.00  5.2054848E-01
   7167.33  5.1701450E-01
   7167.67  5.1341884E-01
   7168.00  5.0980303E-01
   7168.33  5.0622014E-01
   7168.67  5.0271393E-01
   7169.00  4.9931804E-01
   7169.33  4.9608310E-01
   7169.67  4.9302072E-01
   7170.00  4.9015394E-01
   7170.33  4.8753348E-01
   7170.67  4.8515109E-01
   7171.00  4.8302107E-01
   7171.33  4.8119561E-01
   7171.67  4.7966861E-01
   7172.00  4.7847247E-01
