    FDMNES
    energy     <xanes>
   7097.00  4.9359847E-03
   7097.33  5.0601361E-03
   7097.67  5.1903601E-03
   7098.00  5.3270994E-03
   7098.33  5.4718137E-03
   7098.67  5.6242605E-03
   7099.00  5.7850554E-03
   7099.33  5.9561468E-03
   7099.67  6.1373022E-03
   7100.00  6.3294021E-03
   7100.33  6.5351226E-03
   7100.67  6.7542829E-03
   7101.00  6.9881853E-03
   7101.33  7.2406304E-03
   7101.67  7.5115810E-03
   7102.00  7.8030404E-03
   7102.33  8.1206295E-03
   7102.67  8.4646566E-03
   7103.00  8.8383550E-03
   7103.33  9.2504570E-03
   7103.67  9.7020825E-03
   7104.00  1.0198766E-02
   7104.33  1.0754935E-02
   7104.67  1.1373660E-02
   7105.00  1.2065148E-02
   7105.33  1.2855195E-02
   7105.67  1.3751867E-02
   7106.00  1.4775923E-02
   7106.33  1.5978609E-02
   7106.67  1.7382220E-02
   7107.00  1.9035022E-02
   7107.33  2.1055031E-02
   7107.67  2.3512364E-02
   7108.00  2.6543433E-02
   7108.33  3.0487475E-02
   7108.67  3.5623111E-02
   7109.00  4.2474099E-02
   7109.33  5.2437778E-02
   7109.67  6.7166488E-02
   7110.00  8.9918426E-02
   7110.33  1.3006731E-01
   7110.67  1.9639033E-01
   7111.00  2.8367627E-01
   7111.33  3.4544245E-01
   7111.67  3.7792021E-01
   7112.00  4.0650617E-01
   7112.33  4.3368664E-01
   7112.67  4.4647799E-01
   7113.00  4.3417808E-01
   7113.33  3.8347216E-01
   7113.67  3.1566443E-01
   7114.00  2.5645294E-01
   7114.33  2.2135727E-01
   7114.67  2.0462975E-01
   7115.00  1.9859077E-01
   7115.33  1.8945811E-01
   7115.67  1.7189378E-01
   7116.00  1.5512304E-01
   7116.33  1.4369424E-01
   7116.67  1.3168607E-01
   7117.00  1.1925166E-01
   7117.33  1.0914182E-01
   7117.67  1.0157792E-01
   7118.00  9.6147974E-02
   7118.33  9.2593020E-02
   7118.67  9.0707931E-02
   7119.00  9.0780535E-02
   7119.33  9.3076145E-02
   7119.67  9.6501871E-02
   7120.00  1.0007276E-01
   7120.33  1.0309428E-01
   7120.67  1.0539084E-01
   7121.00  1.0685022E-01
   7121.33  1.0784827E-01
   7121.67  1.0951405E-01
   7122.00  1.1274107E-01
   7122.33  1.1837613E-01
   7122.67  1.2634661E-01
   7123.00  1.3659184E-01
   7123.33  1.4892865E-01
   7123.67  1.6241895E-01
   7124.00  1.7665437E-01
   7124.33  1.9209021E-01
   7124.67  2.0954652E-01
   7125.00  2.2966100E-01
   7125.33  2.5236355E-01
   7125.67  2.7564651E-01
   7126.00  2.9794324E-01
   7126.33  3.1855399E-01
   7126.67  3.3828054E-01
   7127.00  3.5772819E-01
   7127.33  3.7723667E-01
   7127.67  3.9680955E-01
   7128.00  4.1636836E-01
   7128.33  4.3578048E-01
   7128.67  4.5471516E-01
   7129.00  4.7258019E-01
   7129.33  4.8849300E-01
   7129.67  5.0270192E-01
   7130.00  5.1601520E-01
   7130.33  5.2992371E-01
   7130.67  5.4556303E-01
   7131.00  5.6344476E-01
   7131.33  5.8423188E-01
   7131.67  6.0858825E-01
   7132.00  6.3822627E-01
   7132.33  6.7631488E-01
   7132.67  7.2297521E-01
   7133.00  7.7732829E-01
   7133.33  8.3632967E-01
   7133.67  8.9333663E-01
   7134.00  9.4219022E-01
   7134.33  9.7568366E-01
   7134.67  9.9363639E-01
   7135.00  9.9659096E-01
   7135.33  9.8385431E-01
   7135.67  9.5816754E-01
   7136.00  9.2131737E-01
   7136.33  8.7637341E-01
   7136.67  8.2922404E-01
   7137.00  7.8358247E-01
   7137.33  7.4269572E-01
   7137.67  7.0706416E-01
   7138.00  6.7660128E-01
   7138.33  6.5110892E-01
   7138.67  6.2897234E-01
   7139.00  6.0929787E-01
   7139.33  5.9153207E-01
   7139.67  5.7516028E-01
   7140.00  5.6033668E-01
   7140.33  5.4788515E-01
   7140.67  5.3827572E-01
   7141.00  5.3205666E-01
   7141.33  5.3003278E-01
   7141.67  5.3168272E-01
   7142.00  5.3670198E-01
   7142.33  5.4494148E-01
   7142.67  5.5552392E-01
   7143.00  5.6807137E-01
   7143.33  5.8243096E-01
   7143.67  5.9806493E-01
   7144.00  6.1461266E-01
   7144.33  6.3153210E-01
   7144.67  6.4801775E-01
   7145.00  6.6333143E-01
   7145.33  6.7639302E-01
   7145.67  6.8677646E-01
   7146.00  6.9408342E-01
   7146.33  6.9766725E-01
   7146.67  6.9794192E-01
   7147.00  6.9507294E-01
   7147.33  6.8907044E-01
   7147.67  6.8077323E-01
   7148.00  6.7067585E-01
   7148.33  6.5926397E-01
   7148.67  6.4732856E-01
   7149.00  6.3537753E-01
   7149.33  6.2391616E-01
   7149.67  6.1315557E-01
   7150.00  6.0319449E-01
   7150.33  5.9412298E-01
   7150.67  5.8573982E-01
   7151.00  5.7792131E-01
   7151.33  5.7057624E-01
   7151.67  5.6353925E-01
   7152.00  5.5675022E-01
   7152.33  5.5020849E-01
   7152.67  5.4389651E-01
   7153.00  5.3784521E-01
   7153.33  5.3214619E-01
   7153.67  5.2682445E-01
   7154.00  5.2194073E-01
   7154.33  5.1763201E-01
   7154.67  5.1390645E-01
   7155.00  5.1082046E-01
   7155.33  5.0851087E-01
   7155.67  5.0692123E-01
   7156.00  5.0605902E-01
   7156.33  5.0599082E-01
   7156.67  5.0656785E-01
   7157.00  5.0770511E-01
   7157.33  5.0931870E-01
   7157.67  5.1118208E-01
   7158.00  5.1312310E-01
   7158.33  5.1491464E-01
   7158.67  5.1637598E-01
   7159.00  5.1736826E-01
   7159.33  5.1770112E-01
   7159.67  5.1737706E-01
   7160.00  5.1637285E-01
   7160.33  5.1461433E-01
   7160.67  5.1222391E-01
   7161.00  5.0924629E-01
   7161.33  5.0566426E-01
   7161.67  5.0158302E-01
   7162.00  4.9702185E-01
   7162.33  4.9193144E-01
   7162.67  4.8637156E-01
   7163.00  4.8034225E-01
   7163.33  4.7379169E-01
   7163.67  4.6679620E-01
   7164.00  4.5938367E-01
   7164.33  4.5155503E-01
   7164.67  4.4341932E-01
   7165.00  4.3504296E-01
   7165.33  4.2649731E-01
   7165.67  4.1790169E-01
   7166.00  4.0934843E-01
   7166.33  4.0096604E-01
   7166.67  3.9284160E-01
   7167.00  3.8506057E-01
   7167.33  3.7776770E-01
   7167.67  3.7098637E-01
   7168.00  3.6477160E-01
   7168.33  3.5924795E-01
   7168.67  3.5436619E-01
   7169.00  3.5013947E-01
   7169.33  3.4665657E-01
   7169.67  3.4382898E-01
   7170.00  3.4164149E-01
   7170.33  3.4013942E-01
   7170.67  3.3919876E-01
   7171.00  3.3876067E-01
   7171.33  3.3877475E-01
   7171.67  3.3903198E-01
   7172.00  3.3933674E-01
