    FDMNES
    energy     <xanes>
   7097.00  5.0267177E-03
   7097.33  5.1437588E-03
   7097.67  5.2660690E-03
   7098.00  5.3940040E-03
   7098.33  5.5287813E-03
   7098.67  5.6701503E-03
   7099.00  5.8185950E-03
   7099.33  5.9757065E-03
   7099.67  6.1412277E-03
   7100.00  6.3158353E-03
   7100.33  6.5016624E-03
   7100.67  6.6984694E-03
   7101.00  6.9072319E-03
   7101.33  7.1308986E-03
   7101.67  7.3693007E-03
   7102.00  7.6238974E-03
   7102.33  7.8989173E-03
   7102.67  8.1943811E-03
   7103.00  8.5125694E-03
   7103.33  8.8598260E-03
   7103.67  9.2366301E-03
   7104.00  9.6467461E-03
   7104.33  1.0100241E-02
   7104.67  1.0598698E-02
   7105.00  1.1148772E-02
   7105.33  1.1767637E-02
   7105.67  1.2459646E-02
   7106.00  1.3237676E-02
   7106.33  1.4133978E-02
   7106.67  1.5160525E-02
   7107.00  1.6345474E-02
   7107.33  1.7758121E-02
   7107.67  1.9434658E-02
   7108.00  2.1448656E-02
   7108.33  2.3982067E-02
   7108.67  2.7168396E-02
   7109.00  3.1261252E-02
   7109.33  3.6921406E-02
   7109.67  4.4853050E-02
   7110.00  5.6427111E-02
   7110.33  7.5580335E-02
   7110.67  1.0702351E-01
   7111.00  1.5513603E-01
   7111.33  2.1549467E-01
   7111.67  2.6395623E-01
   7112.00  2.8238830E-01
   7112.33  2.8273321E-01
   7112.67  2.8304622E-01
   7113.00  2.8932859E-01
   7113.33  3.1407695E-01
   7113.67  3.5403037E-01
   7114.00  3.9428737E-01
   7114.33  4.0818927E-01
   7114.67  3.8349648E-01
   7115.00  3.2932599E-01
   7115.33  2.7564163E-01
   7115.67  2.3483164E-01
   7116.00  2.0484006E-01
   7116.33  1.8345487E-01
   7116.67  1.6625779E-01
   7117.00  1.5052479E-01
   7117.33  1.3699868E-01
   7117.67  1.2751372E-01
   7118.00  1.2253434E-01
   7118.33  1.2172120E-01
   7118.67  1.2324837E-01
   7119.00  1.2639506E-01
   7119.33  1.3130340E-01
   7119.67  1.3716972E-01
   7120.00  1.4256103E-01
   7120.33  1.4694064E-01
   7120.67  1.5229764E-01
   7121.00  1.5973435E-01
   7121.33  1.6822606E-01
   7121.67  1.7623704E-01
   7122.00  1.8400180E-01
   7122.33  1.9206567E-01
   7122.67  2.0034574E-01
   7123.00  2.0822730E-01
   7123.33  2.1500596E-01
   7123.67  2.2211990E-01
   7124.00  2.3187885E-01
   7124.33  2.4660544E-01
   7124.67  2.6480342E-01
   7125.00  2.8381221E-01
   7125.33  3.0099183E-01
   7125.67  3.1638080E-01
   7126.00  3.3084606E-01
   7126.33  3.4592906E-01
   7126.67  3.6320702E-01
   7127.00  3.8376498E-01
   7127.33  4.0843108E-01
   7127.67  4.3599760E-01
   7128.00  4.6511341E-01
   7128.33  4.9399923E-01
   7128.67  5.2162224E-01
   7129.00  5.4812516E-01
   7129.33  5.7444389E-01
   7129.67  6.0123705E-01
   7130.00  6.2835735E-01
   7130.33  6.5477569E-01
   7130.67  6.7863468E-01
   7131.00  6.9797347E-01
   7131.33  7.1104865E-01
   7131.67  7.1959357E-01
   7132.00  7.2573307E-01
   7132.33  7.3238151E-01
   7132.67  7.4143684E-01
   7133.00  7.5304952E-01
   7133.33  7.6579560E-01
   7133.67  7.7709955E-01
   7134.00  7.8491197E-01
   7134.33  7.8658613E-01
   7134.67  7.8146047E-01
   7135.00  7.6930798E-01
   7135.33  7.5081407E-01
   7135.67  7.2954482E-01
   7136.00  7.0815904E-01
   7136.33  6.8915600E-01
   7136.67  6.7330978E-01
   7137.00  6.6078403E-01
   7137.33  6.5166712E-01
   7137.67  6.4508405E-01
   7138.00  6.4063041E-01
   7138.33  6.3818534E-01
   7138.67  6.3732095E-01
   7139.00  6.3793654E-01
   7139.33  6.4011733E-01
   7139.67  6.4360422E-01
   7140.00  6.4833860E-01
   7140.33  6.5445367E-01
   7140.67  6.6183486E-01
   7141.00  6.7053202E-01
   7141.33  6.8070256E-01
   7141.67  6.9199282E-01
   7142.00  7.0400693E-01
   7142.33  7.1594018E-01
   7142.67  7.2666462E-01
   7143.00  7.3503949E-01
   7143.33  7.3935880E-01
   7143.67  7.3924820E-01
   7144.00  7.3455568E-01
   7144.33  7.2525457E-01
   7144.67  7.1278816E-01
   7145.00  6.9798660E-01
   7145.33  6.8142261E-01
   7145.67  6.6385136E-01
   7146.00  6.4562537E-01
   7146.33  6.2702514E-01
   7146.67  6.0838762E-01
   7147.00  5.8995715E-01
   7147.33  5.7206056E-01
   7147.67  5.5489595E-01
   7148.00  5.3867206E-01
   7148.33  5.2375220E-01
   7148.67  5.1017670E-01
   7149.00  4.9807452E-01
   7149.33  4.8774479E-01
   7149.67  4.7903188E-01
   7150.00  4.7192520E-01
   7150.33  4.6655835E-01
   7150.67  4.6263888E-01
   7151.00  4.6006160E-01
   7151.33  4.5884232E-01
   7151.67  4.5869194E-01
   7152.00  4.5949681E-01
   7152.33  4.6123315E-01
   7152.67  4.6367412E-01
   7153.00  4.6671895E-01
   7153.33  4.7031902E-01
   7153.67  4.7430984E-01
   7154.00  4.7860971E-01
   7154.33  4.8316009E-01
   7154.67  4.8785600E-01
   7155.00  4.9263685E-01
   7155.33  4.9743818E-01
   7155.67  5.0219078E-01
   7156.00  5.0683319E-01
   7156.33  5.1126102E-01
   7156.67  5.1540411E-01
   7157.00  5.1916959E-01
   7157.33  5.2237299E-01
   7157.67  5.2494258E-01
   7158.00  5.2675885E-01
   7158.33  5.2757883E-01
   7158.67  5.2740656E-01
   7159.00  5.2618764E-01
   7159.33  5.2378993E-01
   7159.67  5.2042195E-01
   7160.00  5.1620903E-01
   7160.33  5.1126944E-01
   7160.67  5.0591729E-01
   7161.00  5.0035632E-01
   7161.33  4.9480174E-01
   7161.67  4.8942398E-01
   7162.00  4.8432761E-01
   7162.33  4.7963053E-01
   7162.67  4.7531969E-01
   7163.00  4.7139427E-01
   7163.33  4.6787406E-01
   7163.67  4.6468271E-01
   7164.00  4.6179907E-01
   7164.33  4.5924175E-01
   7164.67  4.5696379E-01
   7165.00  4.5496095E-01
   7165.33  4.5326419E-01
   7165.67  4.5183393E-01
   7166.00  4.5066128E-01
   7166.33  4.4975992E-01
   7166.67  4.4907520E-01
   7167.00  4.4857991E-01
   7167.33  4.4826066E-01
   7167.67  4.4806292E-01
   7168.00  4.4794908E-01
   7168.33  4.4787774E-01
   7168.67  4.4780148E-01
   7169.00  4.4768839E-01
   7169.33  4.4750059E-01
   7169.67  4.4722720E-01
   7170.00  4.4686125E-01
   7170.33  4.4639538E-01
   7170.67  4.4585748E-01
   7171.00  4.4527183E-01
   7171.33  4.4467643E-01
   7171.67  4.4412297E-01
   7172.00  4.4366111E-01
