    FDMNES
    energy     <xanes>
   7097.00  5.0776665E-03
   7097.33  5.2051571E-03
   7097.67  5.3387210E-03
   7098.00  5.4787869E-03
   7098.33  5.6267903E-03
   7098.67  5.7824686E-03
   7099.00  5.9464125E-03
   7099.33  6.1205211E-03
   7099.67  6.3045345E-03
   7100.00  6.4992901E-03
   7100.33  6.7073708E-03
   7100.67  6.9285553E-03
   7101.00  7.1640704E-03
   7101.33  7.4175460E-03
   7101.67  7.6888796E-03
   7102.00  7.9799396E-03
   7102.33  8.2960337E-03
   7102.67  8.6373546E-03
   7103.00  9.0068865E-03
   7103.33  9.4127749E-03
   7103.67  9.8559146E-03
   7104.00  1.0341356E-02
   7104.33  1.0882381E-02
   7104.67  1.1481574E-02
   7105.00  1.2148136E-02
   7105.33  1.2905472E-02
   7105.67  1.3760474E-02
   7106.00  1.4731588E-02
   7106.33  1.5864545E-02
   7106.67  1.7178385E-02
   7107.00  1.8715250E-02
   7107.33  2.0578344E-02
   7107.67  2.2826829E-02
   7108.00  2.5577084E-02
   7108.33  2.9117871E-02
   7108.67  3.3678800E-02
   7109.00  3.9692222E-02
   7109.33  4.8302757E-02
   7109.67  6.0823415E-02
   7110.00  7.9830499E-02
   7110.33  1.1270011E-01
   7110.67  1.6661919E-01
   7111.00  2.4018116E-01
   7111.33  3.0754913E-01
   7111.67  3.5987148E-01
   7112.00  4.0162087E-01
   7112.33  4.2990571E-01
   7112.67  4.3653984E-01
   7113.00  4.1626999E-01
   7113.33  3.6326488E-01
   7113.67  2.9822117E-01
   7114.00  2.4394797E-01
   7114.33  2.1233670E-01
   7114.67  1.9176777E-01
   7115.00  1.7098610E-01
   7115.33  1.5035086E-01
   7115.67  1.3724393E-01
   7116.00  1.3446906E-01
   7116.33  1.4452406E-01
   7116.67  1.6499415E-01
   7117.00  1.8699519E-01
   7117.33  1.8661940E-01
   7117.67  1.6639519E-01
   7118.00  1.4457730E-01
   7118.33  1.3071740E-01
   7118.67  1.2236774E-01
   7119.00  1.1832783E-01
   7119.33  1.1856373E-01
   7119.67  1.2150789E-01
   7120.00  1.2619585E-01
   7120.33  1.3257392E-01
   7120.67  1.4148637E-01
   7121.00  1.5456269E-01
   7121.33  1.7434628E-01
   7121.67  2.0111397E-01
   7122.00  2.3461934E-01
   7122.33  2.7294069E-01
   7122.67  3.1136518E-01
   7123.00  3.4778631E-01
   7123.33  3.8450143E-01
   7123.67  4.2655930E-01
   7124.00  4.7671645E-01
   7124.33  5.3357987E-01
   7124.67  5.8811121E-01
   7125.00  6.3121212E-01
   7125.33  6.5356043E-01
   7125.67  6.5733773E-01
   7126.00  6.4646784E-01
   7126.33  6.2599439E-01
   7126.67  6.0269530E-01
   7127.00  5.8004421E-01
   7127.33  5.6025252E-01
   7127.67  5.4369989E-01
   7128.00  5.3103330E-01
   7128.33  5.2301210E-01
   7128.67  5.1824975E-01
   7129.00  5.1573769E-01
   7129.33  5.1501119E-01
   7129.67  5.1561350E-01
   7130.00  5.1726870E-01
   7130.33  5.1947540E-01
   7130.67  5.2144110E-01
   7131.00  5.2259318E-01
   7131.33  5.2250634E-01
   7131.67  5.2165899E-01
   7132.00  5.2076813E-01
   7132.33  5.2081256E-01
   7132.67  5.2203489E-01
   7133.00  5.2406348E-01
   7133.33  5.2596949E-01
   7133.67  5.2741416E-01
   7134.00  5.2950862E-01
   7134.33  5.3526659E-01
   7134.67  5.4587482E-01
   7135.00  5.6023734E-01
   7135.33  5.7496220E-01
   7135.67  5.8719091E-01
   7136.00  5.9679694E-01
   7136.33  6.0581162E-01
   7136.67  6.1680482E-01
   7137.00  6.3095853E-01
   7137.33  6.4828800E-01
   7137.67  6.6638588E-01
   7138.00  6.8266266E-01
   7138.33  6.9376918E-01
   7138.67  6.9906020E-01
   7139.00  6.9908797E-01
   7139.33  6.9512940E-01
   7139.67  6.8929212E-01
   7140.00  6.8241741E-01
   7140.33  6.7475116E-01
   7140.67  6.6644275E-01
   7141.00  6.5761997E-01
   7141.33  6.4853313E-01
   7141.67  6.3960948E-01
   7142.00  6.3123379E-01
   7142.33  6.2392233E-01
   7142.67  6.1782900E-01
   7143.00  6.1306638E-01
   7143.33  6.0980231E-01
   7143.67  6.0776263E-01
   7144.00  6.0679597E-01
   7144.33  6.0679618E-01
   7144.67  6.0743213E-01
   7145.00  6.0852491E-01
   7145.33  6.0993603E-01
   7145.67  6.1150697E-01
   7146.00  6.1317574E-01
   7146.33  6.1491878E-01
   7146.67  6.1671473E-01
   7147.00  6.1854480E-01
   7147.33  6.2036781E-01
   7147.67  6.2213610E-01
   7148.00  6.2379611E-01
   7148.33  6.2523204E-01
   7148.67  6.2634871E-01
   7149.00  6.2702477E-01
   7149.33  6.2703200E-01
   7149.67  6.2628594E-01
   7150.00  6.2465496E-01
   7150.33  6.2187625E-01
   7150.67  6.1797186E-01
   7151.00  6.1288347E-01
   7151.33  6.0643745E-01
   7151.67  5.9881150E-01
   7152.00  5.9006330E-01
   7152.33  5.8016238E-01
   7152.67  5.6935924E-01
   7153.00  5.5776377E-01
   7153.33  5.4541078E-01
   7153.67  5.3249560E-01
   7154.00  5.1911093E-01
   7154.33  5.0532178E-01
   7154.67  4.9129114E-01
   7155.00  4.7712879E-01
   7155.33  4.6297054E-01
   7155.67  4.4896020E-01
   7156.00  4.3522415E-01
   7156.33  4.2194826E-01
   7156.67  4.0919331E-01
   7157.00  3.9703366E-01
   7157.33  3.8561196E-01
   7157.67  3.7488128E-01
   7158.00  3.6485458E-01
   7158.33  3.5562016E-01
   7158.67  3.4707791E-01
   7159.00  3.3921039E-01
   7159.33  3.3207361E-01
   7159.67  3.2555650E-01
   7160.00  3.1962979E-01
   7160.33  3.1432301E-01
   7160.67  3.0952280E-01
   7161.00  3.0518834E-01
   7161.33  3.0132296E-01
   7161.67  2.9782901E-01
   7162.00  2.9467324E-01
   7162.33  2.9186242E-01
   7162.67  2.8933942E-01
   7163.00  2.8709957E-01
   7163.33  2.8518241E-01
   7163.67  2.8356261E-01
   7164.00  2.8225343E-01
   7164.33  2.8131331E-01
   7164.67  2.8071693E-01
   7165.00  2.8047510E-01
   7165.33  2.8064327E-01
   7165.67  2.8118233E-01
   7166.00  2.8209443E-01
   7166.33  2.8342421E-01
   7166.67  2.8511911E-01
   7167.00  2.8717119E-01
   7167.33  2.8961242E-01
   7167.67  2.9238661E-01
   7168.00  2.9548160E-01
   7168.33  2.9892065E-01
   7168.67  3.0264979E-01
   7169.00  3.0665434E-01
   7169.33  3.1094693E-01
   7169.67  3.1547156E-01
   7170.00  3.2020152E-01
   7170.33  3.2511485E-01
   7170.67  3.3012867E-01
   7171.00  3.3516132E-01
   7171.33  3.4003867E-01
   7171.67  3.4449883E-01
   7172.00  3.4818052E-01
