    FDMNES
    energy     <xanes>
   7097.00  4.6101685E-03
   7097.33  4.7182872E-03
   7097.67  4.8315378E-03
   7098.00  4.9502931E-03
   7098.33  5.0757855E-03
   7098.67  5.2078094E-03
   7099.00  5.3468847E-03
   7099.33  5.4946580E-03
   7099.67  5.6509346E-03
   7100.00  5.8164606E-03
   7100.33  5.9935021E-03
   7100.67  6.1819121E-03
   7101.00  6.3827986E-03
   7101.33  6.5993900E-03
   7101.67  6.8316684E-03
   7102.00  7.0813468E-03
   7102.33  7.3532191E-03
   7102.67  7.6475758E-03
   7103.00  7.9671968E-03
   7103.33  8.3195679E-03
   7103.67  8.7057004E-03
   7104.00  9.1303818E-03
   7104.33  9.6060532E-03
   7104.67  1.0135455E-02
   7105.00  1.0727471E-02
   7105.33  1.1404484E-02
   7105.67  1.2173656E-02
   7106.00  1.3053142E-02
   7106.33  1.4087656E-02
   7106.67  1.5296903E-02
   7107.00  1.6723189E-02
   7107.33  1.8469753E-02
   7107.67  2.0598061E-02
   7108.00  2.3227201E-02
   7108.33  2.6652430E-02
   7108.67  3.1113863E-02
   7109.00  3.7060984E-02
   7109.33  4.5684418E-02
   7109.67  5.8362590E-02
   7110.00  7.7796332E-02
   7110.33  1.1174680E-01
   7110.67  1.6809354E-01
   7111.00  2.4655655E-01
   7111.33  3.1966648E-01
   7111.67  3.7740650E-01
   7112.00  4.2989204E-01
   7112.33  4.4453628E-01
   7112.67  3.9246115E-01
   7113.00  3.1146104E-01
   7113.33  2.4268043E-01
   7113.67  1.8887537E-01
   7114.00  1.4899007E-01
   7114.33  1.2135844E-01
   7114.67  1.0124263E-01
   7115.00  8.6887887E-02
   7115.33  7.6816918E-02
   7115.67  6.9380771E-02
   7116.00  6.4630881E-02
   7116.33  6.2392354E-02
   7116.67  6.1711818E-02
   7117.00  6.2184921E-02
   7117.33  6.3572010E-02
   7117.67  6.5501831E-02
   7118.00  6.7687734E-02
   7118.33  6.9641992E-02
   7118.67  7.1192207E-02
   7119.00  7.2448990E-02
   7119.33  7.3632386E-02
   7119.67  7.5104519E-02
   7120.00  7.7200506E-02
   7120.33  8.0367294E-02
   7120.67  8.4714929E-02
   7121.00  9.0389274E-02
   7121.33  9.7782998E-02
   7121.67  1.0701294E-01
   7122.00  1.1843382E-01
   7122.33  1.3284638E-01
   7122.67  1.5040113E-01
   7123.00  1.7151778E-01
   7123.33  1.9713667E-01
   7123.67  2.2693766E-01
   7124.00  2.6063418E-01
   7124.33  2.9741729E-01
   7124.67  3.3460257E-01
   7125.00  3.6918520E-01
   7125.33  3.9653756E-01
   7125.67  4.1516350E-01
   7126.00  4.2515285E-01
   7126.33  4.2737726E-01
   7126.67  4.2501400E-01
   7127.00  4.1989203E-01
   7127.33  4.1334706E-01
   7127.67  4.0602732E-01
   7128.00  3.9778176E-01
   7128.33  3.8844930E-01
   7128.67  3.7869317E-01
   7129.00  3.6931561E-01
   7129.33  3.6139801E-01
   7129.67  3.5539928E-01
   7130.00  3.5158487E-01
   7130.33  3.5041208E-01
   7130.67  3.5177636E-01
   7131.00  3.5588272E-01
   7131.33  3.6328227E-01
   7131.67  3.7361831E-01
   7132.00  3.8671672E-01
   7132.33  4.0250963E-01
   7132.67  4.2028968E-01
   7133.00  4.3983859E-01
   7133.33  4.6144797E-01
   7133.67  4.8495497E-01
   7134.00  5.0962769E-01
   7134.33  5.3312910E-01
   7134.67  5.5323614E-01
   7135.00  5.6913675E-01
   7135.33  5.8114600E-01
   7135.67  5.9132727E-01
   7136.00  6.0096442E-01
   7136.33  6.1099037E-01
   7136.67  6.2157975E-01
   7137.00  6.3254515E-01
   7137.33  6.4351251E-01
   7137.67  6.5419780E-01
   7138.00  6.6454961E-01
   7138.33  6.7471306E-01
   7138.67  6.8500766E-01
   7139.00  6.9567622E-01
   7139.33  7.0692089E-01
   7139.67  7.1857750E-01
   7140.00  7.3036184E-01
   7140.33  7.4174163E-01
   7140.67  7.5224703E-01
   7141.00  7.6153610E-01
   7141.33  7.6925013E-01
   7141.67  7.7559959E-01
   7142.00  7.8070332E-01
   7142.33  7.8459672E-01
   7142.67  7.8758337E-01
   7143.00  7.8977556E-01
   7143.33  7.9115763E-01
   7143.67  7.9184338E-01
   7144.00  7.9183440E-01
   7144.33  7.9105574E-01
   7144.67  7.8963836E-01
   7145.00  7.8765966E-01
   7145.33  7.8519832E-01
   7145.67  7.8246903E-01
   7146.00  7.7961495E-01
   7146.33  7.7679069E-01
   7146.67  7.7411181E-01
   7147.00  7.7164793E-01
   7147.33  7.6947300E-01
   7147.67  7.6755189E-01
   7148.00  7.6584805E-01
   7148.33  7.6431937E-01
   7148.67  7.6287261E-01
   7149.00  7.6143950E-01
   7149.33  7.5993359E-01
   7149.67  7.5828863E-01
   7150.00  7.5644592E-01
   7150.33  7.5431027E-01
   7150.67  7.5185412E-01
   7151.00  7.4902381E-01
   7151.33  7.4569454E-01
   7151.67  7.4184308E-01
   7152.00  7.3739478E-01
   7152.33  7.3217235E-01
   7152.67  7.2617615E-01
   7153.00  7.1934864E-01
   7153.33  7.1154448E-01
   7153.67  7.0287637E-01
   7154.00  6.9338536E-01
   7154.33  6.8307356E-01
   7154.67  6.7217125E-01
   7155.00  6.6081816E-01
   7155.33  6.4914353E-01
   7155.67  6.3734193E-01
   7156.00  6.2554040E-01
   7156.33  6.1389171E-01
   7156.67  6.0249587E-01
   7157.00  5.9143416E-01
   7157.33  5.8083182E-01
   7157.67  5.7069420E-01
   7158.00  5.6105744E-01
   7158.33  5.5201393E-01
   7158.67  5.4350547E-01
   7159.00  5.3552325E-01
   7159.33  5.2810203E-01
   7159.67  5.2112899E-01
   7160.00  5.1453966E-01
   7160.33  5.0827641E-01
   7160.67  5.0219855E-01
   7161.00  4.9621820E-01
   7161.33  4.9024591E-01
   7161.67  4.8420873E-01
   7162.00  4.7805952E-01
   7162.33  4.7175412E-01
   7162.67  4.6532425E-01
   7163.00  4.5880401E-01
   7163.33  4.5224270E-01
   7163.67  4.4570881E-01
   7164.00  4.3926175E-01
   7164.33  4.3299202E-01
   7164.67  4.2695013E-01
   7165.00  4.2119419E-01
   7165.33  4.1583045E-01
   7165.67  4.1086878E-01
   7166.00  4.0634175E-01
   7166.33  4.0233309E-01
   7166.67  3.9880648E-01
   7167.00  3.9577227E-01
   7167.33  3.9329318E-01
   7167.67  3.9129880E-01
   7168.00  3.8977580E-01
   7168.33  3.8875961E-01
   7168.67  3.8816908E-01
   7169.00  3.8798060E-01
   7169.33  3.8821045E-01
   7169.67  3.8877870E-01
   7170.00  3.8965328E-01
   7170.33  3.9082367E-01
   7170.67  3.9220383E-01
   7171.00  3.9373617E-01
   7171.33  3.9533558E-01
   7171.67  3.9685056E-01
   7172.00  3.9810583E-01
