    FDMNES
    energy     <xanes>
   7097.00  4.5320288E-03
   7097.33  4.6277453E-03
   7097.67  4.7273874E-03
   7098.00  4.8312049E-03
   7098.33  4.9400809E-03
   7098.67  5.0538103E-03
   7099.00  5.1727315E-03
   7099.33  5.2979872E-03
   7099.67  5.4293662E-03
   7100.00  5.5673406E-03
   7100.33  5.7134299E-03
   7100.67  5.8674350E-03
   7101.00  6.0300363E-03
   7101.33  6.2033239E-03
   7101.67  6.3871505E-03
   7102.00  6.5825383E-03
   7102.33  6.7924803E-03
   7102.67  7.0169727E-03
   7103.00  7.2576280E-03
   7103.33  7.5189539E-03
   7103.67  7.8013016E-03
   7104.00  8.1073742E-03
   7104.33  8.4444047E-03
   7104.67  8.8136198E-03
   7105.00  9.2199126E-03
   7105.33  9.6758782E-03
   7105.67  1.0185012E-02
   7106.00  1.0757107E-02
   7106.33  1.1416619E-02
   7106.67  1.2173538E-02
   7107.00  1.3050338E-02
   7107.33  1.4102310E-02
   7107.67  1.5361279E-02
   7108.00  1.6890141E-02
   7108.33  1.8845658E-02
   7108.67  2.1354775E-02
   7109.00  2.4657298E-02
   7109.33  2.9393061E-02
   7109.67  3.6314598E-02
   7110.00  4.6906251E-02
   7110.33  6.5425364E-02
   7110.67  9.5766159E-02
   7111.00  1.3554415E-01
   7111.33  1.6662963E-01
   7111.67  1.8512645E-01
   7112.00  1.9222491E-01
   7112.33  1.9143273E-01
   7112.67  1.9820702E-01
   7113.00  2.1390789E-01
   7113.33  2.1632354E-01
   7113.67  1.9293052E-01
   7114.00  1.5232493E-01
   7114.33  1.1591980E-01
   7114.67  9.2750092E-02
   7115.00  7.9975482E-02
   7115.33  7.3913085E-02
   7115.67  7.1101301E-02
   7116.00  7.0138768E-02
   7116.33  7.0512526E-02
   7116.67  7.2389606E-02
   7117.00  7.6219137E-02
   7117.33  8.2526531E-02
   7117.67  9.1012821E-02
   7118.00  1.0144161E-01
   7118.33  1.1350709E-01
   7118.67  1.2669654E-01
   7119.00  1.4110516E-01
   7119.33  1.5687674E-01
   7119.67  1.7269014E-01
   7120.00  1.8664804E-01
   7120.33  1.9687544E-01
   7120.67  2.0445261E-01
   7121.00  2.1084737E-01
   7121.33  2.1730172E-01
   7121.67  2.2444970E-01
   7122.00  2.3286023E-01
   7122.33  2.4360303E-01
   7122.67  2.5715047E-01
   7123.00  2.7414997E-01
   7123.33  2.9605730E-01
   7123.67  3.2282652E-01
   7124.00  3.5374411E-01
   7124.33  3.8663118E-01
   7124.67  4.1936232E-01
   7125.00  4.5279114E-01
   7125.33  4.8874094E-01
   7125.67  5.2449462E-01
   7126.00  5.5465956E-01
   7126.33  5.7227808E-01
   7126.67  5.7750146E-01
   7127.00  5.7230913E-01
   7127.33  5.5989650E-01
   7127.67  5.4541668E-01
   7128.00  5.3219870E-01
   7128.33  5.2389845E-01
   7128.67  5.2167020E-01
   7129.00  5.2550923E-01
   7129.33  5.3494259E-01
   7129.67  5.4809564E-01
   7130.00  5.6412607E-01
   7130.33  5.8236453E-01
   7130.67  6.0146438E-01
   7131.00  6.2038201E-01
   7131.33  6.3789780E-01
   7131.67  6.5345969E-01
   7132.00  6.6675667E-01
   7132.33  6.7741468E-01
   7132.67  6.8594010E-01
   7133.00  6.9280645E-01
   7133.33  6.9887233E-01
   7133.67  7.0543489E-01
   7134.00  7.1331429E-01
   7134.33  7.2268399E-01
   7134.67  7.3211120E-01
   7135.00  7.4010525E-01
   7135.33  7.4534832E-01
   7135.67  7.4812276E-01
   7136.00  7.4878624E-01
   7136.33  7.4756029E-01
   7136.67  7.4494995E-01
   7137.00  7.4111848E-01
   7137.33  7.3610212E-01
   7137.67  7.3022601E-01
   7138.00  7.2367241E-01
   7138.33  7.1660110E-01
   7138.67  7.0927546E-01
   7139.00  7.0184103E-01
   7139.33  6.9441451E-01
   7139.67  6.8705410E-01
   7140.00  6.7977507E-01
   7140.33  6.7257764E-01
   7140.67  6.6542837E-01
   7141.00  6.5830063E-01
   7141.33  6.5115700E-01
   7141.67  6.4396004E-01
   7142.00  6.3667561E-01
   7142.33  6.2925352E-01
   7142.67  6.2169037E-01
   7143.00  6.1399323E-01
   7143.33  6.0619631E-01
   7143.67  5.9840290E-01
   7144.00  5.9072742E-01
   7144.33  5.8334994E-01
   7144.67  5.7636597E-01
   7145.00  5.6987466E-01
   7145.33  5.6406542E-01
   7145.67  5.5895441E-01
   7146.00  5.5457541E-01
   7146.33  5.5100955E-01
   7146.67  5.4811428E-01
   7147.00  5.4581535E-01
   7147.33  5.4405970E-01
   7147.67  5.4265442E-01
   7148.00  5.4147833E-01
   7148.33  5.4040006E-01
   7148.67  5.3927247E-01
   7149.00  5.3798797E-01
   7149.33  5.3640260E-01
   7149.67  5.3445822E-01
   7150.00  5.3209322E-01
   7150.33  5.2919836E-01
   7150.67  5.2580418E-01
   7151.00  5.2190464E-01
   7151.33  5.1745389E-01
   7151.67  5.1254109E-01
   7152.00  5.0719580E-01
   7152.33  5.0141335E-01
   7152.67  4.9529498E-01
   7153.00  4.8888562E-01
   7153.33  4.8220349E-01
   7153.67  4.7532856E-01
   7154.00  4.6830567E-01
   7154.33  4.6117739E-01
   7154.67  4.5401159E-01
   7155.00  4.4685726E-01
   7155.33  4.3977944E-01
   7155.67  4.3282408E-01
   7156.00  4.2603453E-01
   7156.33  4.1948087E-01
   7156.67  4.1317236E-01
   7157.00  4.0713310E-01
   7157.33  4.0142163E-01
   7157.67  3.9602032E-01
   7158.00  3.9094599E-01
   7158.33  3.8626671E-01
   7158.67  3.8197176E-01
   7159.00  3.7809951E-01
   7159.33  3.7476820E-01
   7159.67  3.7199021E-01
   7160.00  3.6983653E-01
   7160.33  3.6848152E-01
   7160.67  3.6791565E-01
   7161.00  3.6819348E-01
   7161.33  3.6946406E-01
   7161.67  3.7162238E-01
   7162.00  3.7464306E-01
   7162.33  3.7855992E-01
   7162.67  3.8315672E-01
   7163.00  3.8829002E-01
   7163.33  3.9382181E-01
   7163.67  3.9951462E-01
   7164.00  4.0519399E-01
   7164.33  4.1063595E-01
   7164.67  4.1569617E-01
   7165.00  4.2026478E-01
   7165.33  4.2419758E-01
   7165.67  4.2755144E-01
   7166.00  4.3035590E-01
   7166.33  4.3262088E-01
   7166.67  4.3449843E-01
   7167.00  4.3607330E-01
   7167.33  4.3741353E-01
   7167.67  4.3862597E-01
   7168.00  4.3976560E-01
   7168.33  4.4087516E-01
   7168.67  4.4198532E-01
   7169.00  4.4310618E-01
   7169.33  4.4423808E-01
   7169.67  4.4536852E-01
   7170.00  4.4648283E-01
   7170.33  4.4755727E-01
   7170.67  4.4857687E-01
   7171.00  4.4952545E-01
   7171.33  4.5037206E-01
   7171.67  4.5110244E-01
   7172.00  4.5168781E-01
