    FDMNES
    energy     <xanes>
   7097.00  4.3396079E-03
   7097.33  4.4282706E-03
   7097.67  4.5203573E-03
   7098.00  4.6160725E-03
   7098.33  4.7161644E-03
   7098.67  4.8204361E-03
   7099.00  4.9291609E-03
   7099.33  5.0432921E-03
   7099.67  5.1626228E-03
   7100.00  5.2875286E-03
   7100.33  5.4192568E-03
   7100.67  5.5576025E-03
   7101.00  5.7030988E-03
   7101.33  5.8574311E-03
   7101.67  6.0204243E-03
   7102.00  6.1928668E-03
   7102.33  6.3771280E-03
   7102.67  6.5731261E-03
   7103.00  6.7820861E-03
   7103.33  7.0075080E-03
   7103.67  7.2495537E-03
   7104.00  7.5102455E-03
   7104.33  7.7950924E-03
   7104.67  8.1048685E-03
   7105.00  8.4431841E-03
   7105.33  8.8194551E-03
   7105.67  9.2360594E-03
   7106.00  9.7001357E-03
   7106.33  1.0229669E-02
   7106.67  1.0831656E-02
   7107.00  1.1522338E-02
   7107.33  1.2341877E-02
   7107.67  1.3312915E-02
   7108.00  1.4480771E-02
   7108.33  1.5958782E-02
   7108.67  1.7838543E-02
   7109.00  2.0294045E-02
   7109.33  2.3791577E-02
   7109.67  2.8884940E-02
   7110.00  3.6671452E-02
   7110.33  5.0310256E-02
   7110.67  7.2646171E-02
   7111.00  1.0131284E-01
   7111.33  1.1914779E-01
   7111.67  1.2292212E-01
   7112.00  1.2100181E-01
   7112.33  1.2701003E-01
   7112.67  1.4458137E-01
   7113.00  1.5984325E-01
   7113.33  1.6419670E-01
   7113.67  1.7477772E-01
   7114.00  1.8132994E-01
   7114.33  1.5058328E-01
   7114.67  1.1173185E-01
   7115.00  8.4640765E-02
   7115.33  6.9994492E-02
   7115.67  6.1766179E-02
   7116.00  5.7482768E-02
   7116.33  5.5871310E-02
   7116.67  5.5788306E-02
   7117.00  5.6788994E-02
   7117.33  5.8675978E-02
   7117.67  6.1261531E-02
   7118.00  6.4581793E-02
   7118.33  6.8888890E-02
   7118.67  7.4310277E-02
   7119.00  8.1082018E-02
   7119.33  8.9664604E-02
   7119.67  1.0017588E-01
   7120.00  1.1304484E-01
   7120.33  1.2937035E-01
   7120.67  1.4980587E-01
   7121.00  1.7542755E-01
   7121.33  2.0799896E-01
   7121.67  2.4699158E-01
   7122.00  2.9189213E-01
   7122.33  3.4207373E-01
   7122.67  3.9549569E-01
   7123.00  4.5094224E-01
   7123.33  5.0656912E-01
   7123.67  5.5828224E-01
   7124.00  5.9963088E-01
   7124.33  6.2022746E-01
   7124.67  6.2041323E-01
   7125.00  6.0476281E-01
   7125.33  5.8003699E-01
   7125.67  5.5341109E-01
   7126.00  5.2816608E-01
   7126.33  5.0695246E-01
   7126.67  4.9072933E-01
   7127.00  4.8034856E-01
   7127.33  4.7637871E-01
   7127.67  4.7669271E-01
   7128.00  4.8000098E-01
   7128.33  4.8570105E-01
   7128.67  4.9327104E-01
   7129.00  5.0294650E-01
   7129.33  5.1582023E-01
   7129.67  5.3224942E-01
   7130.00  5.5236796E-01
   7130.33  5.7624054E-01
   7130.67  6.0311644E-01
   7131.00  6.3296982E-01
   7131.33  6.6613322E-01
   7131.67  7.0170892E-01
   7132.00  7.3862685E-01
   7132.33  7.7498904E-01
   7132.67  8.0866850E-01
   7133.00  8.3770391E-01
   7133.33  8.5947664E-01
   7133.67  8.7415212E-01
   7134.00  8.8187704E-01
   7134.33  8.8158833E-01
   7134.67  8.7313731E-01
   7135.00  8.5539456E-01
   7135.33  8.2671635E-01
   7135.67  7.9012817E-01
   7136.00  7.4936940E-01
   7136.33  7.1026981E-01
   7136.67  6.7703743E-01
   7137.00  6.5095833E-01
   7137.33  6.3185914E-01
   7137.67  6.1708639E-01
   7138.00  6.0527605E-01
   7138.33  5.9565964E-01
   7138.67  5.8743941E-01
   7139.00  5.8033848E-01
   7139.33  5.7425939E-01
   7139.67  5.6894681E-01
   7140.00  5.6431767E-01
   7140.33  5.6038688E-01
   7140.67  5.5704096E-01
   7141.00  5.5426236E-01
   7141.33  5.5210472E-01
   7141.67  5.5048031E-01
   7142.00  5.4936529E-01
   7142.33  5.4877794E-01
   7142.67  5.4860505E-01
   7143.00  5.4878964E-01
   7143.33  5.4929169E-01
   7143.67  5.4999673E-01
   7144.00  5.5083705E-01
   7144.33  5.5173923E-01
   7144.67  5.5261771E-01
   7145.00  5.5340982E-01
   7145.33  5.5403746E-01
   7145.67  5.5448349E-01
   7146.00  5.5473414E-01
   7146.33  5.5476086E-01
   7146.67  5.5459926E-01
   7147.00  5.5427174E-01
   7147.33  5.5380375E-01
   7147.67  5.5326725E-01
   7148.00  5.5271858E-01
   7148.33  5.5222412E-01
   7148.67  5.5182179E-01
   7149.00  5.5152878E-01
   7149.33  5.5134448E-01
   7149.67  5.5120322E-01
   7150.00  5.5102528E-01
   7150.33  5.5066091E-01
   7150.67  5.4997201E-01
   7151.00  5.4881129E-01
   7151.33  5.4693456E-01
   7151.67  5.4428042E-01
   7152.00  5.4076214E-01
   7152.33  5.3622084E-01
   7152.67  5.3079094E-01
   7153.00  5.2454034E-01
   7153.33  5.1750914E-01
   7153.67  5.0995144E-01
   7154.00  5.0202928E-01
   7154.33  4.9389262E-01
   7154.67  4.8570368E-01
   7155.00  4.7754959E-01
   7155.33  4.6952112E-01
   7155.67  4.6165549E-01
   7156.00  4.5397527E-01
   7156.33  4.4651033E-01
   7156.67  4.3922757E-01
   7157.00  4.3211162E-01
   7157.33  4.2515791E-01
   7157.67  4.1832542E-01
   7158.00  4.1159732E-01
   7158.33  4.0497206E-01
   7158.67  3.9843745E-01
   7159.00  3.9200717E-01
   7159.33  3.8573729E-01
   7159.67  3.7967459E-01
   7160.00  3.7389228E-01
   7160.33  3.6853733E-01
   7160.67  3.6366973E-01
   7161.00  3.5938188E-01
   7161.33  3.5585375E-01
   7161.67  3.5307314E-01
   7162.00  3.5107724E-01
   7162.33  3.4997456E-01
   7162.67  3.4963518E-01
   7163.00  3.5000588E-01
   7163.33  3.5108311E-01
   7163.67  3.5268973E-01
   7164.00  3.5473852E-01
   7164.33  3.5717233E-01
   7164.67  3.5985450E-01
   7165.00  3.6271308E-01
   7165.33  3.6569013E-01
   7165.67  3.6871548E-01
   7166.00  3.7175026E-01
   7166.33  3.7475697E-01
   7166.67  3.7770996E-01
   7167.00  3.8058170E-01
   7167.33  3.8332356E-01
   7167.67  3.8591623E-01
   7168.00  3.8833306E-01
   7168.33  3.9052484E-01
   7168.67  3.9250429E-01
   7169.00  3.9427295E-01
   7169.33  3.9582308E-01
   7169.67  3.9720866E-01
   7170.00  3.9846126E-01
   7170.33  3.9960656E-01
   7170.67  4.0068848E-01
   7171.00  4.0172432E-01
   7171.33  4.0270795E-01
   7171.67  4.0360973E-01
   7172.00  4.0436483E-01
