    FDMNES
    energy     <xanes>
   7097.00  4.7483006E-03
   7097.33  4.8566886E-03
   7097.67  4.9698438E-03
   7098.00  5.0880850E-03
   7098.33  5.2125099E-03
   7098.67  5.3428891E-03
   7099.00  5.4796576E-03
   7099.33  5.6242497E-03
   7099.67  5.7764323E-03
   7100.00  5.9368157E-03
   7100.33  6.1073257E-03
   7100.67  6.2877487E-03
   7101.00  6.4789689E-03
   7101.33  6.6836568E-03
   7101.67  6.9016703E-03
   7102.00  7.1343408E-03
   7102.33  7.3855171E-03
   7102.67  7.6552440E-03
   7103.00  7.9456203E-03
   7103.33  8.2624607E-03
   7103.67  8.6062607E-03
   7104.00  8.9805190E-03
   7104.33  9.3945503E-03
   7104.67  9.8499318E-03
   7105.00  1.0352921E-02
   7105.33  1.0919592E-02
   7105.67  1.1554242E-02
   7106.00  1.2269127E-02
   7106.33  1.3094827E-02
   7106.67  1.4043129E-02
   7107.00  1.5141157E-02
   7107.33  1.6455464E-02
   7107.67  1.8021643E-02
   7108.00  1.9911206E-02
   7108.33  2.2300681E-02
   7108.67  2.5320944E-02
   7109.00  2.9219298E-02
   7109.33  3.4639017E-02
   7109.67  4.2265776E-02
   7110.00  5.3431250E-02
   7110.33  7.1952466E-02
   7110.67  1.0237298E-01
   7111.00  1.4870384E-01
   7111.33  2.0354960E-01
   7111.67  2.4684890E-01
   7112.00  2.8371833E-01
   7112.33  3.2864940E-01
   7112.67  3.7080822E-01
   7113.00  3.8822683E-01
   7113.33  3.4863638E-01
   7113.67  2.7710349E-01
   7114.00  2.0866790E-01
   7114.33  1.6071659E-01
   7114.67  1.3089339E-01
   7115.00  1.1452341E-01
   7115.33  1.0450357E-01
   7115.67  9.4570739E-02
   7116.00  8.4880355E-02
   7116.33  7.7865220E-02
   7116.67  7.3693130E-02
   7117.00  7.2108993E-02
   7117.33  7.3196478E-02
   7117.67  7.6473924E-02
   7118.00  8.1539650E-02
   7118.33  8.7475353E-02
   7118.67  9.2976513E-02
   7119.00  9.7883184E-02
   7119.33  1.0317605E-01
   7119.67  1.0948125E-01
   7120.00  1.1637004E-01
   7120.33  1.2178301E-01
   7120.67  1.2521886E-01
   7121.00  1.2914536E-01
   7121.33  1.3772715E-01
   7121.67  1.5248271E-01
   7122.00  1.7411714E-01
   7122.33  2.0350786E-01
   7122.67  2.3923190E-01
   7123.00  2.8073419E-01
   7123.33  3.2687372E-01
   7123.67  3.7327338E-01
   7124.00  4.1554604E-01
   7124.33  4.4753148E-01
   7124.67  4.6612652E-01
   7125.00  4.7006548E-01
   7125.33  4.6229144E-01
   7125.67  4.5219795E-01
   7126.00  4.4540002E-01
   7126.33  4.4557031E-01
   7126.67  4.5192935E-01
   7127.00  4.6356169E-01
   7127.33  4.8048886E-01
   7127.67  5.0278214E-01
   7128.00  5.3160882E-01
   7128.33  5.6805826E-01
   7128.67  6.0823485E-01
   7129.00  6.4685198E-01
   7129.33  6.7749429E-01
   7129.67  7.0075125E-01
   7130.00  7.2047944E-01
   7130.33  7.4217012E-01
   7130.67  7.6886265E-01
   7131.00  8.0124683E-01
   7131.33  8.3786364E-01
   7131.67  8.7254458E-01
   7132.00  8.9768454E-01
   7132.33  9.0398689E-01
   7132.67  8.9495971E-01
   7133.00  8.7856733E-01
   7133.33  8.6426532E-01
   7133.67  8.5447834E-01
   7134.00  8.4607496E-01
   7134.33  8.3360706E-01
   7134.67  8.1632929E-01
   7135.00  7.9705181E-01
   7135.33  7.8032575E-01
   7135.67  7.6763565E-01
   7136.00  7.5796868E-01
   7136.33  7.4915281E-01
   7136.67  7.4001393E-01
   7137.00  7.3110782E-01
   7137.33  7.2380849E-01
   7137.67  7.1850886E-01
   7138.00  7.1499139E-01
   7138.33  7.1268852E-01
   7138.67  7.1068039E-01
   7139.00  7.0838688E-01
   7139.33  7.0516196E-01
   7139.67  7.0066093E-01
   7140.00  6.9454142E-01
   7140.33  6.8622677E-01
   7140.67  6.7578070E-01
   7141.00  6.6324242E-01
   7141.33  6.4868406E-01
   7141.67  6.3282340E-01
   7142.00  6.1613457E-01
   7142.33  5.9906333E-01
   7142.67  5.8200713E-01
   7143.00  5.6516630E-01
   7143.33  5.4871731E-01
   7143.67  5.3268282E-01
   7144.00  5.1712028E-01
   7144.33  5.0221198E-01
   7144.67  4.8805862E-01
   7145.00  4.7485241E-01
   7145.33  4.6297729E-01
   7145.67  4.5250762E-01
   7146.00  4.4361269E-01
   7146.33  4.3665468E-01
   7146.67  4.3148497E-01
   7147.00  4.2808283E-01
   7147.33  4.2653667E-01
   7147.67  4.2643898E-01
   7148.00  4.2756874E-01
   7148.33  4.2974178E-01
   7148.67  4.3251938E-01
   7149.00  4.3563465E-01
   7149.33  4.3881602E-01
   7149.67  4.4182228E-01
   7150.00  4.4449180E-01
   7150.33  4.4662035E-01
   7150.67  4.4816746E-01
   7151.00  4.4907618E-01
   7151.33  4.4922287E-01
   7151.67  4.4867817E-01
   7152.00  4.4744849E-01
   7152.33  4.4548230E-01
   7152.67  4.4292041E-01
   7153.00  4.3983927E-01
   7153.33  4.3630592E-01
   7153.67  4.3250874E-01
   7154.00  4.2857171E-01
   7154.33  4.2462672E-01
   7154.67  4.2077016E-01
   7155.00  4.1704373E-01
   7155.33  4.1346762E-01
   7155.67  4.0999052E-01
   7156.00  4.0656515E-01
   7156.33  4.0313345E-01
   7156.67  3.9965481E-01
   7157.00  3.9611664E-01
   7157.33  3.9252900E-01
   7157.67  3.8894178E-01
   7158.00  3.8540922E-01
   7158.33  3.8201894E-01
   7158.67  3.7882651E-01
   7159.00  3.7588720E-01
   7159.33  3.7329308E-01
   7159.67  3.7104674E-01
   7160.00  3.6917339E-01
   7160.33  3.6774179E-01
   7160.67  3.6671342E-01
   7161.00  3.6609213E-01
   7161.33  3.6593362E-01
   7161.67  3.6618797E-01
   7162.00  3.6684542E-01
   7162.33  3.6792953E-01
   7162.67  3.6935507E-01
   7163.00  3.7107835E-01
   7163.33  3.7306644E-01
   7163.67  3.7521783E-01
   7164.00  3.7746494E-01
   7164.33  3.7973560E-01
   7164.67  3.8197102E-01
   7165.00  3.8413439E-01
   7165.33  3.8618162E-01
   7165.67  3.8810643E-01
   7166.00  3.8990021E-01
   7166.33  3.9154318E-01
   7166.67  3.9305428E-01
   7167.00  3.9443735E-01
   7167.33  3.9568170E-01
   7167.67  3.9680654E-01
   7168.00  3.9781469E-01
   7168.33  3.9869592E-01
   7168.67  3.9946990E-01
   7169.00  4.0014349E-01
   7169.33  4.0071651E-01
   7169.67  4.0121481E-01
   7170.00  4.0165375E-01
   7170.33  4.0204874E-01
   7170.67  4.0242543E-01
   7171.00  4.0279888E-01
   7171.33  4.0317788E-01
   7171.67  4.0354910E-01
   7172.00  4.0387707E-01
