    FDMNES
    energy     <xanes>
   7097.00  4.4636896E-03
   7097.33  4.5675458E-03
   7097.67  4.6763132E-03
   7098.00  4.7903544E-03
   7098.33  4.9108591E-03
   7098.67  5.0376404E-03
   7099.00  5.1712089E-03
   7099.33  5.3131672E-03
   7099.67  5.4633472E-03
   7100.00  5.6224909E-03
   7100.33  5.7928279E-03
   7100.67  5.9742526E-03
   7101.00  6.1678846E-03
   7101.33  6.3769462E-03
   7101.67  6.6014907E-03
   7102.00  6.8432835E-03
   7102.33  7.1071999E-03
   7102.67  7.3936683E-03
   7103.00  7.7056248E-03
   7103.33  8.0508687E-03
   7103.67  8.4307121E-03
   7104.00  8.8503681E-03
   7104.33  9.3232117E-03
   7104.67  9.8527208E-03
   7105.00  1.0448948E-02
   7105.33  1.1136957E-02
   7105.67  1.1925959E-02
   7106.00  1.2837541E-02
   7106.33  1.3924521E-02
   7106.67  1.5213206E-02
   7107.00  1.6757265E-02
   7107.33  1.8687700E-02
   7107.67  2.1091814E-02
   7108.00  2.4134364E-02
   7108.33  2.8228588E-02
   7108.67  3.3748374E-02
   7109.00  4.1393122E-02
   7109.33  5.3066929E-02
   7109.67  7.1197358E-02
   7110.00  1.0061969E-01
   7110.33  1.5540898E-01
   7110.67  2.4792295E-01
   7111.00  3.6153208E-01
   7111.33  3.9170121E-01
   7111.67  3.4493719E-01
   7112.00  2.9251369E-01
   7112.33  2.5179186E-01
   7112.67  2.1068860E-01
   7113.00  1.6931696E-01
   7113.33  1.3219816E-01
   7113.67  1.0409573E-01
   7114.00  8.5621973E-02
   7114.33  7.5536532E-02
   7114.67  7.0186375E-02
   7115.00  6.5951524E-02
   7115.33  6.0289800E-02
   7115.67  5.5878711E-02
   7116.00  5.3419975E-02
   7116.33  5.0919560E-02
   7116.67  4.7604129E-02
   7117.00  4.4554476E-02
   7117.33  4.2818791E-02
   7117.67  4.2284539E-02
   7118.00  4.2749748E-02
   7118.33  4.4099824E-02
   7118.67  4.6124018E-02
   7119.00  4.8822463E-02
   7119.33  5.2414023E-02
   7119.67  5.7069525E-02
   7120.00  6.3162760E-02
   7120.33  7.1551656E-02
   7120.67  8.2746439E-02
   7121.00  9.7256856E-02
   7121.33  1.1389389E-01
   7121.67  1.2681735E-01
   7122.00  1.3214450E-01
   7122.33  1.3249548E-01
   7122.67  1.3260658E-01
   7123.00  1.3329102E-01
   7123.33  1.3581542E-01
   7123.67  1.4197965E-01
   7124.00  1.5318151E-01
   7124.33  1.7108439E-01
   7124.67  1.9540828E-01
   7125.00  2.2626252E-01
   7125.33  2.6354343E-01
   7125.67  3.0323441E-01
   7126.00  3.3987414E-01
   7126.33  3.6552946E-01
   7126.67  3.7927244E-01
   7127.00  3.8256847E-01
   7127.33  3.7664551E-01
   7127.67  3.6738029E-01
   7128.00  3.6059158E-01
   7128.33  3.6112209E-01
   7128.67  3.6879956E-01
   7129.00  3.8328248E-01
   7129.33  4.0499952E-01
   7129.67  4.3280800E-01
   7130.00  4.6657699E-01
   7130.33  5.0739144E-01
   7130.67  5.5529601E-01
   7131.00  6.1105747E-01
   7131.33  6.7524677E-01
   7131.67  7.4243483E-01
   7132.00  8.0321523E-01
   7132.33  8.4073937E-01
   7132.67  8.5329937E-01
   7133.00  8.5242568E-01
   7133.33  8.5740825E-01
   7133.67  8.7693725E-01
   7134.00  9.1243066E-01
   7134.33  9.6643947E-01
   7134.67  1.0385958E+00
   7135.00  1.1294447E+00
   7135.33  1.2310436E+00
   7135.67  1.3095649E+00
   7136.00  1.3231788E+00
   7136.33  1.2441255E+00
   7136.67  1.1211139E+00
   7137.00  9.9518848E-01
   7137.33  8.9173536E-01
   7137.67  8.1073862E-01
   7138.00  7.4862112E-01
   7138.33  7.0250712E-01
   7138.67  6.6707353E-01
   7139.00  6.4022342E-01
   7139.33  6.2118298E-01
   7139.67  6.0805486E-01
   7140.00  6.0029629E-01
   7140.33  5.9814355E-01
   7140.67  6.0071776E-01
   7141.00  6.0781172E-01
   7141.33  6.1963053E-01
   7141.67  6.3516174E-01
   7142.00  6.5379277E-01
   7142.33  6.7478191E-01
   7142.67  6.9653709E-01
   7143.00  7.1770803E-01
   7143.33  7.3626244E-01
   7143.67  7.5075381E-01
   7144.00  7.5994855E-01
   7144.33  7.6225991E-01
   7144.67  7.5847980E-01
   7145.00  7.4929017E-01
   7145.33  7.3551775E-01
   7145.67  7.1925032E-01
   7146.00  7.0178305E-01
   7146.33  6.8436458E-01
   7146.67  6.6786859E-01
   7147.00  6.5276243E-01
   7147.33  6.3951447E-01
   7147.67  6.2792811E-01
   7148.00  6.1784416E-01
   7148.33  6.0909682E-01
   7148.67  6.0113803E-01
   7149.00  5.9360127E-01
   7149.33  5.8607674E-01
   7149.67  5.7819631E-01
   7150.00  5.6970092E-01
   7150.33  5.6026319E-01
   7150.67  5.4985330E-01
   7151.00  5.3841675E-01
   7151.33  5.2581514E-01
   7151.67  5.1222783E-01
   7152.00  4.9775231E-01
   7152.33  4.8245374E-01
   7152.67  4.6659620E-01
   7153.00  4.5033906E-01
   7153.33  4.3385146E-01
   7153.67  4.1735800E-01
   7154.00  4.0103832E-01
   7154.33  3.8515373E-01
   7154.67  3.6983706E-01
   7155.00  3.5521898E-01
   7155.33  3.4153758E-01
   7155.67  3.2879897E-01
   7156.00  3.1707320E-01
   7156.33  3.0654731E-01
   7156.67  2.9711507E-01
   7157.00  2.8878037E-01
   7157.33  2.8166121E-01
   7157.67  2.7558583E-01
   7158.00  2.7051129E-01
   7158.33  2.6649664E-01
   7158.67  2.6336186E-01
   7159.00  2.6105501E-01
   7159.33  2.5961707E-01
   7159.67  2.5890289E-01
   7160.00  2.5887780E-01
   7160.33  2.5959350E-01
   7160.67  2.6094703E-01
   7161.00  2.6292671E-01
   7161.33  2.6559830E-01
   7161.67  2.6887387E-01
   7162.00  2.7274401E-01
   7162.33  2.7726359E-01
   7162.67  2.8232492E-01
   7163.00  2.8787329E-01
   7163.33  2.9385387E-01
   7163.67  3.0006656E-01
   7164.00  3.0634347E-01
   7164.33  3.1244308E-01
   7164.67  3.1816622E-01
   7165.00  3.2335575E-01
   7165.33  3.2780974E-01
   7165.67  3.3156948E-01
   7166.00  3.3466240E-01
   7166.33  3.3710672E-01
   7166.67  3.3910547E-01
   7167.00  3.4078571E-01
   7167.33  3.4227525E-01
   7167.67  3.4373343E-01
   7168.00  3.4526442E-01
   7168.33  3.4699223E-01
   7168.67  3.4897447E-01
   7169.00  3.5125999E-01
   7169.33  3.5392432E-01
   7169.67  3.5693359E-01
   7170.00  3.6027482E-01
   7170.33  3.6394545E-01
   7170.67  3.6784029E-01
   7171.00  3.7186990E-01
   7171.33  3.7587001E-01
   7171.67  3.7957785E-01
   7172.00  3.8266451E-01
