    FDMNES
    energy     <xanes>
   7097.00  4.1492932E-03
   7097.33  4.2325335E-03
   7097.67  4.3188919E-03
   7098.00  4.4085482E-03
   7098.33  4.5021725E-03
   7098.67  4.5995765E-03
   7099.00  4.7009983E-03
   7099.33  4.8072838E-03
   7099.67  4.9182328E-03
   7100.00  5.0341685E-03
   7100.33  5.1561859E-03
   7100.67  5.2840813E-03
   7101.00  5.4183076E-03
   7101.33  5.5603257E-03
   7101.67  5.7099484E-03
   7102.00  5.8678360E-03
   7102.33  6.0360112E-03
   7102.67  6.2143506E-03
   7103.00  6.4038628E-03
   7103.33  6.6074827E-03
   7103.67  6.8252609E-03
   7104.00  7.0588304E-03
   7104.33  7.3127131E-03
   7104.67  7.5874023E-03
   7105.00  7.8857472E-03
   7105.33  8.2152819E-03
   7105.67  8.5776535E-03
   7106.00  8.9783451E-03
   7106.33  9.4313099E-03
   7106.67  9.9414664E-03
   7107.00  1.0520888E-02
   7107.33  1.1199584E-02
   7107.67  1.1993289E-02
   7108.00  1.2934385E-02
   7108.33  1.4103774E-02
   7108.67  1.5563419E-02
   7109.00  1.7432059E-02
   7109.33  2.0025737E-02
   7109.67  2.3706793E-02
   7110.00  2.9192256E-02
   7110.33  3.8534822E-02
   7110.67  5.3561285E-02
   7111.00  7.2716528E-02
   7111.33  8.4788360E-02
   7111.67  9.0094897E-02
   7112.00  9.7739174E-02
   7112.33  1.1756875E-01
   7112.67  1.5279307E-01
   7113.00  1.9365237E-01
   7113.33  1.9270579E-01
   7113.67  1.5157208E-01
   7114.00  1.0949576E-01
   7114.33  8.4566274E-02
   7114.67  7.0532798E-02
   7115.00  6.3187360E-02
   7115.33  6.0280792E-02
   7115.67  5.9939304E-02
   7116.00  6.1393128E-02
   7116.33  6.4171107E-02
   7116.67  6.8193678E-02
   7117.00  7.3929657E-02
   7117.33  8.1951534E-02
   7117.67  9.2110398E-02
   7118.00  1.0442370E-01
   7118.33  1.1860893E-01
   7118.67  1.3332502E-01
   7119.00  1.4784858E-01
   7119.33  1.6229914E-01
   7119.67  1.7637024E-01
   7120.00  1.8852668E-01
   7120.33  1.9645838E-01
   7120.67  2.0082917E-01
   7121.00  2.0360461E-01
   7121.33  2.0796342E-01
   7121.67  2.1637205E-01
   7122.00  2.3059999E-01
   7122.33  2.5278896E-01
   7122.67  2.8081386E-01
   7123.00  3.1007755E-01
   7123.33  3.3376282E-01
   7123.67  3.5351309E-01
   7124.00  3.7516399E-01
   7124.33  4.0275848E-01
   7124.67  4.3309516E-01
   7125.00  4.6342996E-01
   7125.33  4.9397951E-01
   7125.67  5.2596403E-01
   7126.00  5.5752127E-01
   7126.33  5.8120403E-01
   7126.67  5.9054960E-01
   7127.00  5.8362841E-01
   7127.33  5.6408166E-01
   7127.67  5.4159406E-01
   7128.00  5.2172162E-01
   7128.33  5.0835917E-01
   7128.67  5.0123772E-01
   7129.00  4.9955584E-01
   7129.33  5.0237470E-01
   7129.67  5.0792187E-01
   7130.00  5.1559053E-01
   7130.33  5.2533638E-01
   7130.67  5.3693477E-01
   7131.00  5.5085558E-01
   7131.33  5.6895300E-01
   7131.67  5.9265576E-01
   7132.00  6.2315717E-01
   7132.33  6.6115342E-01
   7132.67  7.0366268E-01
   7133.00  7.4766911E-01
   7133.33  7.8933272E-01
   7133.67  8.2661742E-01
   7134.00  8.5888152E-01
   7134.33  8.8520127E-01
   7134.67  9.0489127E-01
   7135.00  9.1556425E-01
   7135.33  9.1307208E-01
   7135.67  8.9846657E-01
   7136.00  8.7373190E-01
   7136.33  8.4188325E-01
   7136.67  8.0744989E-01
   7137.00  7.7280893E-01
   7137.33  7.3981880E-01
   7137.67  7.0908387E-01
   7138.00  6.8085053E-01
   7138.33  6.5546079E-01
   7138.67  6.3246941E-01
   7139.00  6.1170905E-01
   7139.33  5.9324751E-01
   7139.67  5.7668571E-01
   7140.00  5.6194355E-01
   7140.33  5.4918931E-01
   7140.67  5.3817153E-01
   7141.00  5.2885954E-01
   7141.33  5.2139361E-01
   7141.67  5.1546513E-01
   7142.00  5.1096386E-01
   7142.33  5.0792327E-01
   7142.67  5.0607803E-01
   7143.00  5.0536956E-01
   7143.33  5.0589566E-01
   7143.67  5.0749406E-01
   7144.00  5.1013116E-01
   7144.33  5.1385323E-01
   7144.67  5.1841530E-01
   7145.00  5.2366149E-01
   7145.33  5.2942781E-01
   7145.67  5.3542445E-01
   7146.00  5.4144514E-01
   7146.33  5.4722536E-01
   7146.67  5.5258910E-01
   7147.00  5.5741307E-01
   7147.33  5.6154836E-01
   7147.67  5.6506997E-01
   7148.00  5.6802004E-01
   7148.33  5.7041909E-01
   7148.67  5.7243212E-01
   7149.00  5.7416044E-01
   7149.33  5.7570525E-01
   7149.67  5.7719538E-01
   7150.00  5.7869605E-01
   7150.33  5.8023080E-01
   7150.67  5.8173278E-01
   7151.00  5.8307611E-01
   7151.33  5.8399953E-01
   7151.67  5.8429293E-01
   7152.00  5.8373463E-01
   7152.33  5.8196689E-01
   7152.67  5.7896764E-01
   7153.00  5.7466814E-01
   7153.33  5.6890088E-01
   7153.67  5.6189216E-01
   7154.00  5.5373601E-01
   7154.33  5.4443667E-01
   7154.67  5.3424536E-01
   7155.00  5.2325824E-01
   7155.33  5.1149577E-01
   7155.67  4.9915403E-01
   7156.00  4.8633713E-01
   7156.33  4.7314140E-01
   7156.67  4.5976928E-01
   7157.00  4.4637535E-01
   7157.33  4.3317515E-01
   7157.67  4.2034688E-01
   7158.00  4.0805695E-01
   7158.33  3.9656964E-01
   7158.67  3.8593970E-01
   7159.00  3.7625911E-01
   7159.33  3.6772164E-01
   7159.67  3.6022738E-01
   7160.00  3.5377289E-01
   7160.33  3.4845469E-01
   7160.67  3.4409434E-01
   7161.00  3.4063107E-01
   7161.33  3.3807542E-01
   7161.67  3.3621818E-01
   7162.00  3.3495458E-01
   7162.33  3.3420663E-01
   7162.67  3.3377068E-01
   7163.00  3.3352942E-01
   7163.33  3.3338230E-01
   7163.67  3.3323611E-01
   7164.00  3.3304496E-01
   7164.33  3.3277803E-01
   7164.67  3.3245280E-01
   7165.00  3.3209915E-01
   7165.33  3.3177508E-01
   7165.67  3.3154464E-01
   7166.00  3.3146749E-01
   7166.33  3.3163262E-01
   7166.67  3.3205937E-01
   7167.00  3.3277091E-01
   7167.33  3.3381109E-01
   7167.67  3.3513298E-01
   7168.00  3.3671866E-01
   7168.33  3.3857411E-01
   7168.67  3.4064803E-01
   7169.00  3.4292674E-01
   7169.33  3.4542454E-01
   7169.67  3.4811059E-01
   7170.00  3.5097805E-01
   7170.33  3.5403260E-01
   7170.67  3.5722249E-01
   7171.00  3.6049787E-01
   7171.33  3.6374731E-01
   7171.67  3.6676760E-01
   7172.00  3.6928489E-01
