    FDMNES
    energy     <xanes>
   7097.00  4.3612366E-03
   7097.33  4.4499481E-03
   7097.67  4.5420985E-03
   7098.00  4.6378951E-03
   7098.33  4.7380924E-03
   7098.67  4.8424956E-03
   7099.00  4.9513827E-03
   7099.33  5.0657182E-03
   7099.67  5.1852987E-03
   7100.00  5.3105077E-03
   7100.33  5.4426125E-03
   7100.67  5.5814141E-03
   7101.00  5.7274608E-03
   7101.33  5.8824737E-03
   7101.67  6.0462895E-03
   7102.00  6.2197245E-03
   7102.33  6.4052149E-03
   7102.67  6.6027037E-03
   7103.00  6.8134705E-03
   7103.33  7.0411457E-03
   7103.67  7.2859452E-03
   7104.00  7.5500049E-03
   7104.33  7.8391021E-03
   7104.67  8.1541379E-03
   7105.00  8.4989740E-03
   7105.33  8.8836200E-03
   7105.67  9.3107749E-03
   7106.00  9.7881842E-03
   7106.33  1.0335269E-02
   7106.67  1.0959922E-02
   7107.00  1.1680022E-02
   7107.33  1.2539633E-02
   7107.67  1.3564258E-02
   7108.00  1.4804308E-02
   7108.33  1.6385552E-02
   7108.67  1.8410445E-02
   7109.00  2.1072266E-02
   7109.33  2.4886387E-02
   7109.67  3.0458839E-02
   7110.00  3.8984282E-02
   7110.33  5.3926590E-02
   7110.67  7.8892019E-02
   7111.00  1.1360816E-01
   7111.33  1.4158997E-01
   7111.67  1.5380398E-01
   7112.00  1.5826172E-01
   7112.33  1.5741073E-01
   7112.67  1.4450494E-01
   7113.00  1.2649271E-01
   7113.33  1.1419114E-01
   7113.67  1.0140283E-01
   7114.00  8.4852225E-02
   7114.33  7.1495088E-02
   7114.67  6.3302149E-02
   7115.00  5.9272304E-02
   7115.33  5.8582508E-02
   7115.67  6.0004131E-02
   7116.00  6.2718465E-02
   7116.33  6.5455465E-02
   7116.67  6.7747704E-02
   7117.00  7.0456766E-02
   7117.33  7.4791530E-02
   7117.67  8.0914650E-02
   7118.00  8.8891637E-02
   7118.33  9.8970999E-02
   7118.67  1.1090374E-01
   7119.00  1.2471334E-01
   7119.33  1.4063585E-01
   7119.67  1.5829698E-01
   7120.00  1.7747780E-01
   7120.33  1.9811592E-01
   7120.67  2.2007761E-01
   7121.00  2.4372584E-01
   7121.33  2.7018815E-01
   7121.67  3.0018350E-01
   7122.00  3.3450746E-01
   7122.33  3.7379582E-01
   7122.67  4.1457056E-01
   7123.00  4.4994490E-01
   7123.33  4.7020424E-01
   7123.67  4.8028586E-01
   7124.00  4.8841583E-01
   7124.33  4.9884502E-01
   7124.67  5.0901031E-01
   7125.00  5.1602636E-01
   7125.33  5.1857093E-01
   7125.67  5.1882963E-01
   7126.00  5.1858129E-01
   7126.33  5.1895898E-01
   7126.67  5.1983225E-01
   7127.00  5.2087941E-01
   7127.33  5.2224760E-01
   7127.67  5.2453954E-01
   7128.00  5.2834331E-01
   7128.33  5.3427856E-01
   7128.67  5.4202509E-01
   7129.00  5.5120844E-01
   7129.33  5.6133018E-01
   7129.67  5.7169802E-01
   7130.00  5.8193397E-01
   7130.33  5.9181512E-01
   7130.67  6.0190470E-01
   7131.00  6.1343111E-01
   7131.33  6.2858720E-01
   7131.67  6.4813681E-01
   7132.00  6.7190651E-01
   7132.33  6.9834099E-01
   7132.67  7.2401370E-01
   7133.00  7.4609083E-01
   7133.33  7.6149570E-01
   7133.67  7.7029110E-01
   7134.00  7.7306462E-01
   7134.33  7.7040659E-01
   7134.67  7.6385894E-01
   7135.00  7.5401613E-01
   7135.33  7.4150763E-01
   7135.67  7.2777366E-01
   7136.00  7.1360730E-01
   7136.33  6.9948389E-01
   7136.67  6.8548599E-01
   7137.00  6.7155060E-01
   7137.33  6.5760079E-01
   7137.67  6.4364411E-01
   7138.00  6.2976231E-01
   7138.33  6.1612549E-01
   7138.67  6.0286825E-01
   7139.00  5.9014370E-01
   7139.33  5.7822790E-01
   7139.67  5.6721147E-01
   7140.00  5.5723473E-01
   7140.33  5.4857782E-01
   7140.67  5.4118434E-01
   7141.00  5.3509219E-01
   7141.33  5.3046285E-01
   7141.67  5.2709442E-01
   7142.00  5.2493481E-01
   7142.33  5.2405928E-01
   7142.67  5.2426170E-01
   7143.00  5.2549419E-01
   7143.33  5.2782773E-01
   7143.67  5.3108300E-01
   7144.00  5.3519434E-01
   7144.33  5.4014340E-01
   7144.67  5.4568320E-01
   7145.00  5.5166008E-01
   7145.33  5.5791247E-01
   7145.67  5.6419825E-01
   7146.00  5.7032493E-01
   7146.33  5.7602474E-01
   7146.67  5.8114798E-01
   7147.00  5.8555798E-01
   7147.33  5.8904506E-01
   7147.67  5.9166789E-01
   7148.00  5.9343779E-01
   7148.33  5.9431506E-01
   7148.67  5.9448696E-01
   7149.00  5.9402824E-01
   7149.33  5.9293539E-01
   7149.67  5.9132404E-01
   7150.00  5.8921057E-01
   7150.33  5.8652070E-01
   7150.67  5.8328351E-01
   7151.00  5.7945871E-01
   7151.33  5.7492461E-01
   7151.67  5.6973081E-01
   7152.00  5.6385931E-01
   7152.33  5.5721080E-01
   7152.67  5.4987542E-01
   7153.00  5.4186789E-01
   7153.33  5.3313456E-01
   7153.67  5.2379580E-01
   7154.00  5.1390171E-01
   7154.33  5.0348060E-01
   7154.67  4.9270320E-01
   7155.00  4.8167857E-01
   7155.33  4.7053861E-01
   7155.67  4.5945534E-01
   7156.00  4.4856567E-01
   7156.33  4.3805276E-01
   7156.67  4.2797980E-01
   7157.00  4.1839860E-01
   7157.33  4.0938305E-01
   7157.67  4.0083337E-01
   7158.00  3.9268996E-01
   7158.33  3.8490947E-01
   7158.67  3.7737639E-01
   7159.00  3.7004979E-01
   7159.33  3.6294622E-01
   7159.67  3.5607888E-01
   7160.00  3.4951330E-01
   7160.33  3.4340167E-01
   7160.67  3.3780729E-01
   7161.00  3.3282736E-01
   7161.33  3.2865249E-01
   7161.67  3.2527275E-01
   7162.00  3.2273651E-01
   7162.33  3.2118395E-01
   7162.67  3.2050414E-01
   7163.00  3.2067139E-01
   7163.33  3.2174364E-01
   7163.67  3.2356620E-01
   7164.00  3.2608150E-01
   7164.33  3.2928940E-01
   7164.67  3.3302883E-01
   7165.00  3.3722450E-01
   7165.33  3.4183402E-01
   7165.67  3.4672514E-01
   7166.00  3.5182787E-01
   7166.33  3.5708568E-01
   7166.67  3.6241784E-01
   7167.00  3.6777860E-01
   7167.33  3.7312334E-01
   7167.67  3.7842216E-01
   7168.00  3.8365572E-01
   7168.33  3.8879829E-01
   7168.67  3.9384789E-01
   7169.00  3.9879312E-01
   7169.33  4.0360099E-01
   7169.67  4.0826318E-01
   7170.00  4.1275443E-01
   7170.33  4.1701380E-01
   7170.67  4.2102515E-01
   7171.00  4.2474500E-01
   7171.33  4.2806166E-01
   7171.67  4.3091780E-01
   7172.00  4.3319349E-01
