    FDMNES
    energy     <xanes>
   7097.00  4.5118856E-03
   7097.33  4.6060525E-03
   7097.67  4.7040009E-03
   7098.00  4.8059663E-03
   7098.33  4.9127914E-03
   7098.67  5.0242717E-03
   7099.00  5.1407256E-03
   7099.33  5.2632378E-03
   7099.67  5.3915969E-03
   7100.00  5.5262447E-03
   7100.33  5.6686173E-03
   7100.67  5.8185123E-03
   7101.00  5.9765644E-03
   7101.33  6.1447394E-03
   7101.67  6.3228805E-03
   7102.00  6.5119383E-03
   7102.33  6.7147154E-03
   7102.67  6.9311850E-03
   7103.00  7.1628428E-03
   7103.33  7.4138932E-03
   7103.67  7.6846351E-03
   7104.00  7.9775717E-03
   7104.33  8.2994291E-03
   7104.67  8.6513139E-03
   7105.00  9.0377562E-03
   7105.33  9.4704466E-03
   7105.67  9.9525958E-03
   7106.00  1.0493278E-02
   7106.33  1.1115191E-02
   7106.67  1.1827590E-02
   7107.00  1.2651350E-02
   7107.33  1.3637871E-02
   7107.67  1.4816816E-02
   7108.00  1.6246812E-02
   7108.33  1.8074058E-02
   7108.67  2.0417323E-02
   7109.00  2.3500843E-02
   7109.33  2.7922870E-02
   7109.67  3.4387742E-02
   7110.00  4.4287612E-02
   7110.33  6.1690770E-02
   7110.67  9.1017528E-02
   7111.00  1.3183025E-01
   7111.33  1.5761066E-01
   7111.67  1.6006269E-01
   7112.00  1.6059049E-01
   7112.33  1.7679374E-01
   7112.67  2.0778585E-01
   7113.00  2.2550886E-01
   7113.33  1.9155966E-01
   7113.67  1.4335485E-01
   7114.00  1.0707077E-01
   7114.33  8.6540424E-02
   7114.67  7.4588238E-02
   7115.00  6.8010182E-02
   7115.33  6.5234604E-02
   7115.67  6.4826665E-02
   7116.00  6.6220110E-02
   7116.33  6.8847680E-02
   7116.67  7.1984311E-02
   7117.00  7.5866649E-02
   7117.33  8.1476036E-02
   7117.67  8.8927537E-02
   7118.00  9.8100301E-02
   7118.33  1.0880046E-01
   7118.67  1.2037545E-01
   7119.00  1.3254244E-01
   7119.33  1.4511601E-01
   7119.67  1.5777130E-01
   7120.00  1.7030386E-01
   7120.33  1.8255719E-01
   7120.67  1.9461883E-01
   7121.00  2.0678134E-01
   7121.33  2.1989446E-01
   7121.67  2.3512927E-01
   7122.00  2.5408980E-01
   7122.33  2.7979341E-01
   7122.67  3.1235826E-01
   7123.00  3.4780938E-01
   7123.33  3.7527181E-01
   7123.67  3.9430383E-01
   7124.00  4.1336589E-01
   7124.33  4.3991313E-01
   7124.67  4.7225359E-01
   7125.00  5.0683987E-01
   7125.33  5.3923148E-01
   7125.67  5.6681437E-01
   7126.00  5.8860120E-01
   7126.33  6.0367200E-01
   7126.67  6.1241141E-01
   7127.00  6.1455295E-01
   7127.33  6.1047171E-01
   7127.67  6.0352512E-01
   7128.00  5.9639451E-01
   7128.33  5.9186535E-01
   7128.67  5.9081119E-01
   7129.00  5.9322101E-01
   7129.33  5.9894872E-01
   7129.67  6.0716695E-01
   7130.00  6.1748886E-01
   7130.33  6.2910665E-01
   7130.67  6.4078995E-01
   7131.00  6.5234682E-01
   7131.33  6.6466910E-01
   7131.67  6.7870708E-01
   7132.00  6.9473224E-01
   7132.33  7.1216676E-01
   7132.67  7.2944133E-01
   7133.00  7.4534269E-01
   7133.33  7.5849781E-01
   7133.67  7.6863650E-01
   7134.00  7.7572150E-01
   7134.33  7.7974042E-01
   7134.67  7.8145518E-01
   7135.00  7.8104743E-01
   7135.33  7.7815122E-01
   7135.67  7.7283751E-01
   7136.00  7.6504327E-01
   7136.33  7.5464426E-01
   7136.67  7.4232424E-01
   7137.00  7.2852274E-01
   7137.33  7.1364892E-01
   7137.67  6.9830178E-01
   7138.00  6.8282957E-01
   7138.33  6.6758175E-01
   7138.67  6.5277691E-01
   7139.00  6.3856787E-01
   7139.33  6.2516585E-01
   7139.67  6.1255248E-01
   7140.00  6.0075708E-01
   7140.33  5.8988796E-01
   7140.67  5.7982785E-01
   7141.00  5.7055767E-01
   7141.33  5.6215074E-01
   7141.67  5.5448941E-01
   7142.00  5.4754794E-01
   7142.33  5.4137487E-01
   7142.67  5.3585481E-01
   7143.00  5.3096677E-01
   7143.33  5.2675727E-01
   7143.67  5.2310923E-01
   7144.00  5.1997758E-01
   7144.33  5.1736064E-01
   7144.67  5.1512083E-01
   7145.00  5.1317597E-01
   7145.33  5.1145946E-01
   7145.67  5.0987045E-01
   7146.00  5.0836387E-01
   7146.33  5.0692094E-01
   7146.67  5.0553661E-01
   7147.00  5.0423132E-01
   7147.33  5.0305883E-01
   7147.67  5.0205310E-01
   7148.00  5.0125887E-01
   7148.33  5.0075806E-01
   7148.67  5.0055693E-01
   7149.00  5.0067611E-01
   7149.33  5.0115992E-01
   7149.67  5.0193617E-01
   7150.00  5.0294122E-01
   7150.33  5.0408580E-01
   7150.67  5.0521772E-01
   7151.00  5.0619534E-01
   7151.33  5.0679492E-01
   7151.67  5.0687609E-01
   7152.00  5.0629615E-01
   7152.33  5.0481569E-01
   7152.67  5.0243874E-01
   7153.00  4.9912987E-01
   7153.33  4.9477794E-01
   7153.67  4.8954358E-01
   7154.00  4.8349172E-01
   7154.33  4.7663094E-01
   7154.67  4.6916649E-01
   7155.00  4.6120732E-01
   7155.33  4.5285154E-01
   7155.67  4.4429549E-01
   7156.00  4.3566215E-01
   7156.33  4.2709384E-01
   7156.67  4.1871078E-01
   7157.00  4.1061297E-01
   7157.33  4.0295036E-01
   7157.67  3.9575872E-01
   7158.00  3.8909594E-01
   7158.33  3.8308535E-01
   7158.67  3.7768963E-01
   7159.00  3.7292850E-01
   7159.33  3.6889698E-01
   7159.67  3.6552240E-01
   7160.00  3.6280991E-01
   7160.33  3.6084827E-01
   7160.67  3.5955863E-01
   7161.00  3.5894252E-01
   7161.33  3.5907980E-01
   7161.67  3.5987328E-01
   7162.00  3.6130043E-01
   7162.33  3.6339438E-01
   7162.67  3.6602527E-01
   7163.00  3.6913433E-01
   7163.33  3.7268798E-01
   7163.67  3.7653463E-01
   7164.00  3.8058394E-01
   7164.33  3.8475430E-01
   7164.67  3.8894518E-01
   7165.00  3.9309093E-01
   7165.33  3.9711842E-01
   7165.67  4.0100136E-01
   7166.00  4.0472276E-01
   7166.33  4.0826012E-01
   7166.67  4.1164565E-01
   7167.00  4.1489542E-01
   7167.33  4.1801542E-01
   7167.67  4.2103753E-01
   7168.00  4.2397182E-01
   7168.33  4.2681313E-01
   7168.67  4.2957060E-01
   7169.00  4.3223975E-01
   7169.33  4.3480256E-01
   7169.67  4.3726562E-01
   7170.00  4.3962593E-01
   7170.33  4.4186796E-01
   7170.67  4.4400010E-01
   7171.00  4.4601181E-01
   7171.33  4.4785536E-01
   7171.67  4.4948577E-01
   7172.00  4.5081448E-01
