    FDMNES
    energy     <xanes>
   7097.00  4.2640148E-03
   7097.33  4.3445881E-03
   7097.67  4.4280200E-03
   7098.00  4.5144687E-03
   7098.33  4.6045380E-03
   7098.67  4.6980472E-03
   7099.00  4.7952045E-03
   7099.33  4.8967667E-03
   7099.67  5.0025414E-03
   7100.00  5.1128104E-03
   7100.33  5.2285467E-03
   7100.67  5.3495535E-03
   7101.00  5.4762251E-03
   7101.33  5.6098516E-03
   7101.67  5.7502502E-03
   7102.00  5.8979947E-03
   7102.33  6.0548635E-03
   7102.67  6.2207295E-03
   7103.00  6.3964699E-03
   7103.33  6.5846582E-03
   7103.67  6.7853214E-03
   7104.00  6.9998840E-03
   7104.33  7.2323092E-03
   7104.67  7.4830183E-03
   7105.00  7.7545079E-03
   7105.33  8.0533932E-03
   7105.67  8.3811257E-03
   7106.00  8.7425350E-03
   7106.33  9.1499144E-03
   7106.67  9.6076327E-03
   7107.00  1.0126368E-02
   7107.33  1.0732639E-02
   7107.67  1.1440405E-02
   7108.00  1.2278297E-02
   7108.33  1.3317734E-02
   7108.67  1.4613198E-02
   7109.00  1.6268863E-02
   7109.33  1.8561167E-02
   7109.67  2.1804148E-02
   7110.00  2.6616274E-02
   7110.33  3.4732361E-02
   7110.67  4.7402829E-02
   7111.00  6.2422281E-02
   7111.33  7.3260643E-02
   7111.67  8.6848397E-02
   7112.00  1.1053142E-01
   7112.33  1.4627042E-01
   7112.67  1.6760944E-01
   7113.00  1.4967872E-01
   7113.33  1.1707484E-01
   7113.67  9.5434139E-02
   7114.00  7.9475953E-02
   7114.33  6.4745417E-02
   7114.67  5.3059042E-02
   7115.00  4.3857086E-02
   7115.33  3.7930875E-02
   7115.67  3.4512126E-02
   7116.00  3.2829359E-02
   7116.33  3.2447971E-02
   7116.67  3.2937558E-02
   7117.00  3.4178174E-02
   7117.33  3.6163762E-02
   7117.67  3.8698086E-02
   7118.00  4.1614546E-02
   7118.33  4.4703099E-02
   7118.67  4.7892656E-02
   7119.00  5.1385701E-02
   7119.33  5.5650287E-02
   7119.67  6.0956187E-02
   7120.00  6.7564782E-02
   7120.33  7.6084699E-02
   7120.67  8.6970789E-02
   7121.00  1.0108311E-01
   7121.33  1.2035044E-01
   7121.67  1.4577389E-01
   7122.00  1.7842264E-01
   7122.33  2.1923752E-01
   7122.67  2.6603153E-01
   7123.00  3.1783575E-01
   7123.33  3.7466993E-01
   7123.67  4.3393631E-01
   7124.00  4.9172711E-01
   7124.33  5.4332871E-01
   7124.67  5.8984225E-01
   7125.00  6.3349825E-01
   7125.33  6.7206780E-01
   7125.67  6.9900235E-01
   7126.00  7.0988085E-01
   7126.33  7.0519898E-01
   7126.67  6.9279525E-01
   7127.00  6.7611164E-01
   7127.33  6.5655885E-01
   7127.67  6.3798160E-01
   7128.00  6.2518011E-01
   7128.33  6.2373154E-01
   7128.67  6.3401066E-01
   7129.00  6.5590378E-01
   7129.33  6.8937433E-01
   7129.67  7.3083537E-01
   7130.00  7.7845310E-01
   7130.33  8.3272862E-01
   7130.67  8.9356063E-01
   7131.00  9.5801790E-01
   7131.33  1.0140867E+00
   7131.67  1.0473344E+00
   7132.00  1.0484488E+00
   7132.33  1.0122926E+00
   7132.67  9.5094942E-01
   7133.00  8.7506914E-01
   7133.33  7.9728746E-01
   7133.67  7.2799245E-01
   7134.00  6.7252615E-01
   7134.33  6.3489798E-01
   7134.67  6.1189078E-01
   7135.00  6.0125025E-01
   7135.33  6.0017217E-01
   7135.67  6.0270068E-01
   7136.00  6.0556854E-01
   7136.33  6.0729843E-01
   7136.67  6.0842552E-01
   7137.00  6.0963527E-01
   7137.33  6.1155638E-01
   7137.67  6.1428578E-01
   7138.00  6.1774257E-01
   7138.33  6.2173330E-01
   7138.67  6.2587592E-01
   7139.00  6.2990883E-01
   7139.33  6.3355223E-01
   7139.67  6.3669723E-01
   7140.00  6.3927415E-01
   7140.33  6.4118147E-01
   7140.67  6.4250105E-01
   7141.00  6.4324225E-01
   7141.33  6.4331893E-01
   7141.67  6.4275114E-01
   7142.00  6.4145730E-01
   7142.33  6.3920528E-01
   7142.67  6.3596421E-01
   7143.00  6.3162663E-01
   7143.33  6.2595169E-01
   7143.67  6.1904591E-01
   7144.00  6.1091845E-01
   7144.33  6.0148594E-01
   7144.67  5.9100557E-01
   7145.00  5.7961023E-01
   7145.33  5.6739699E-01
   7145.67  5.5465397E-01
   7146.00  5.4153808E-01
   7146.33  5.2819432E-01
   7146.67  5.1480719E-01
   7147.00  5.0149902E-01
   7147.33  4.8841216E-01
   7147.67  4.7561084E-01
   7148.00  4.6314933E-01
   7148.33  4.5111406E-01
   7148.67  4.3947778E-01
   7149.00  4.2824937E-01
   7149.33  4.1748526E-01
   7149.67  4.0713723E-01
   7150.00  3.9720931E-01
   7150.33  3.8775942E-01
   7150.67  3.7873835E-01
   7151.00  3.7014776E-01
   7151.33  3.6203770E-01
   7151.67  3.5434320E-01
   7152.00  3.4704628E-01
   7152.33  3.4016037E-01
   7152.67  3.3359620E-01
   7153.00  3.2730968E-01
   7153.33  3.2127340E-01
   7153.67  3.1539970E-01
   7154.00  3.0963206E-01
   7154.33  3.0392737E-01
   7154.67  2.9825977E-01
   7155.00  2.9263453E-01
   7155.33  2.8709136E-01
   7155.67  2.8167520E-01
   7156.00  2.7644769E-01
   7156.33  2.7153554E-01
   7156.67  2.6700677E-01
   7157.00  2.6294746E-01
   7157.33  2.5951277E-01
   7157.67  2.5669328E-01
   7158.00  2.5451622E-01
   7158.33  2.5307094E-01
   7158.67  2.5226486E-01
   7159.00  2.5207852E-01
   7159.33  2.5256100E-01
   7159.67  2.5361979E-01
   7160.00  2.5525144E-01
   7160.33  2.5754379E-01
   7160.67  2.6045784E-01
   7161.00  2.6403512E-01
   7161.33  2.6841829E-01
   7161.67  2.7356608E-01
   7162.00  2.7951135E-01
   7162.33  2.8638200E-01
   7162.67  2.9407983E-01
   7163.00  3.0257945E-01
   7163.33  3.1190290E-01
   7163.67  3.2184147E-01
   7164.00  3.3227917E-01
   7164.33  3.4314313E-01
   7164.67  3.5426080E-01
   7165.00  3.6551295E-01
   7165.33  3.7675177E-01
   7165.67  3.8783081E-01
   7166.00  3.9862702E-01
   7166.33  4.0895809E-01
   7166.67  4.1876562E-01
   7167.00  4.2797500E-01
   7167.33  4.3644413E-01
   7167.67  4.4423175E-01
   7168.00  4.5134747E-01
   7168.33  4.5775343E-01
   7168.67  4.6359444E-01
   7169.00  4.6894046E-01
   7169.33  4.7383018E-01
   7169.67  4.7840312E-01
   7170.00  4.8272809E-01
   7170.33  4.8684599E-01
   7170.67  4.9081755E-01
   7171.00  4.9464548E-01
   7171.33  4.9825546E-01
   7171.67  5.0152906E-01
   7172.00  5.0425588E-01
