    FDMNES
    energy     <xanes>
   7097.00  4.1101883E-03
   7097.33  4.1889589E-03
   7097.67  4.2704525E-03
   7098.00  4.3548118E-03
   7098.33  4.4425984E-03
   7098.67  4.5336293E-03
   7099.00  4.6280895E-03
   7099.33  4.7266735E-03
   7099.67  4.8291839E-03
   7100.00  4.9358670E-03
   7100.33  5.0476013E-03
   7100.67  5.1641805E-03
   7101.00  5.2859429E-03
   7101.33  5.4140335E-03
   7101.67  5.5482499E-03
   7102.00  5.6890766E-03
   7102.33  5.8380626E-03
   7102.67  5.9950423E-03
   7103.00  6.1607457E-03
   7103.33  6.3373737E-03
   7103.67  6.5248771E-03
   7104.00  6.7244297E-03
   7104.33  6.9393685E-03
   7104.67  7.1699617E-03
   7105.00  7.4182623E-03
   7105.33  7.6897931E-03
   7105.67  7.9856888E-03
   7106.00  8.3099600E-03
   7106.33  8.6729106E-03
   7106.67  9.0782352E-03
   7107.00  9.5350304E-03
   7107.33  1.0066024E-02
   7107.67  1.0683711E-02
   7108.00  1.1413549E-02
   7108.33  1.2319447E-02
   7108.67  1.3452696E-02
   7109.00  1.4910883E-02
   7109.33  1.6954700E-02
   7109.67  1.9889778E-02
   7110.00  2.4319683E-02
   7110.33  3.2007434E-02
   7110.67  4.4945138E-02
   7111.00  6.3838533E-02
   7111.33  8.0848407E-02
   7111.67  8.4714899E-02
   7112.00  7.8299931E-02
   7112.33  6.8419946E-02
   7112.67  5.9775119E-02
   7113.00  5.3755791E-02
   7113.33  5.0452185E-02
   7113.67  4.8148354E-02
   7114.00  4.6220988E-02
   7114.33  4.5394964E-02
   7114.67  4.5695556E-02
   7115.00  4.6941183E-02
   7115.33  4.9078231E-02
   7115.67  5.1899167E-02
   7116.00  5.5236474E-02
   7116.33  5.8768791E-02
   7116.67  6.2145782E-02
   7117.00  6.5359550E-02
   7117.33  6.8846849E-02
   7117.67  7.3135464E-02
   7118.00  7.8596461E-02
   7118.33  8.5693396E-02
   7118.67  9.4464390E-02
   7119.00  1.0511601E-01
   7119.33  1.1820412E-01
   7119.67  1.3376705E-01
   7120.00  1.5206790E-01
   7120.33  1.7375073E-01
   7120.67  1.9864875E-01
   7121.00  2.2700860E-01
   7121.33  2.6010082E-01
   7121.67  2.9888082E-01
   7122.00  3.4489396E-01
   7122.33  4.0043098E-01
   7122.67  4.6427731E-01
   7123.00  5.3488271E-01
   7123.33  6.0895390E-01
   7123.67  6.7987906E-01
   7124.00  7.4013668E-01
   7124.33  7.7776143E-01
   7124.67  7.8880314E-01
   7125.00  7.7313599E-01
   7125.33  7.3496983E-01
   7125.67  6.8781782E-01
   7126.00  6.4087291E-01
   7126.33  6.0068728E-01
   7126.67  5.6627416E-01
   7127.00  5.3615750E-01
   7127.33  5.1045507E-01
   7127.67  4.8910400E-01
   7128.00  4.7241004E-01
   7128.33  4.6111918E-01
   7128.67  4.5465519E-01
   7129.00  4.5300537E-01
   7129.33  4.5667515E-01
   7129.67  4.6478544E-01
   7130.00  4.7681401E-01
   7130.33  4.9220374E-01
   7130.67  5.0958631E-01
   7131.00  5.2834662E-01
   7131.33  5.4818437E-01
   7131.67  5.6849734E-01
   7132.00  5.8860564E-01
   7132.33  6.0769562E-01
   7132.67  6.2602384E-01
   7133.00  6.4430170E-01
   7133.33  6.6318742E-01
   7133.67  6.8274495E-01
   7134.00  7.0303687E-01
   7134.33  7.2405037E-01
   7134.67  7.4498143E-01
   7135.00  7.6456957E-01
   7135.33  7.8045612E-01
   7135.67  7.9116469E-01
   7136.00  7.9563338E-01
   7136.33  7.9290024E-01
   7136.67  7.8478942E-01
   7137.00  7.7284434E-01
   7137.33  7.5887937E-01
   7137.67  7.4492749E-01
   7138.00  7.3212599E-01
   7138.33  7.2149097E-01
   7138.67  7.1303251E-01
   7139.00  7.0663938E-01
   7139.33  7.0211978E-01
   7139.67  6.9867510E-01
   7140.00  6.9572099E-01
   7140.33  6.9253964E-01
   7140.67  6.8853130E-01
   7141.00  6.8327801E-01
   7141.33  6.7630345E-01
   7141.67  6.6776550E-01
   7142.00  6.5782932E-01
   7142.33  6.4673243E-01
   7142.67  6.3508411E-01
   7143.00  6.2331891E-01
   7143.33  6.1191801E-01
   7143.67  6.0117535E-01
   7144.00  5.9128823E-01
   7144.33  5.8250838E-01
   7144.67  5.7474795E-01
   7145.00  5.6797875E-01
   7145.33  5.6223212E-01
   7145.67  5.5727583E-01
   7146.00  5.5299102E-01
   7146.33  5.4929607E-01
   7146.67  5.4597714E-01
   7147.00  5.4291268E-01
   7147.33  5.3998843E-01
   7147.67  5.3707447E-01
   7148.00  5.3408612E-01
   7148.33  5.3092017E-01
   7148.67  5.2752911E-01
   7149.00  5.2386756E-01
   7149.33  5.1985692E-01
   7149.67  5.1550865E-01
   7150.00  5.1080823E-01
   7150.33  5.0570261E-01
   7150.67  5.0023689E-01
   7151.00  4.9441657E-01
   7151.33  4.8820979E-01
   7151.67  4.8167437E-01
   7152.00  4.7482540E-01
   7152.33  4.6764538E-01
   7152.67  4.6019204E-01
   7153.00  4.5248393E-01
   7153.33  4.4451424E-01
   7153.67  4.3633648E-01
   7154.00  4.2797078E-01
   7154.33  4.1941764E-01
   7154.67  4.1071929E-01
   7155.00  4.0189513E-01
   7155.33  3.9295640E-01
   7155.67  3.8394213E-01
   7156.00  3.7487644E-01
   7156.33  3.6578597E-01
   7156.67  3.5670595E-01
   7157.00  3.4766701E-01
   7157.33  3.3871712E-01
   7157.67  3.2988752E-01
   7158.00  3.2121579E-01
   7158.33  3.1277421E-01
   7158.67  3.0458906E-01
   7159.00  2.9670808E-01
   7159.33  2.8923230E-01
   7159.67  2.8217480E-01
   7160.00  2.7558903E-01
   7160.33  2.6960861E-01
   7160.67  2.6423632E-01
   7161.00  2.5953388E-01
   7161.33  2.5566411E-01
   7161.67  2.5260029E-01
   7162.00  2.5039221E-01
   7162.33  2.4919800E-01
   7162.67  2.4893423E-01
   7163.00  2.4961081E-01
   7163.33  2.5133601E-01
   7163.67  2.5396266E-01
   7164.00  2.5743855E-01
   7164.33  2.6174329E-01
   7164.67  2.6664068E-01
   7165.00  2.7201359E-01
   7165.33  2.7777408E-01
   7165.67  2.8375124E-01
   7166.00  2.8984492E-01
   7166.33  2.9596174E-01
   7166.67  3.0203037E-01
   7167.00  3.0801418E-01
   7167.33  3.1388080E-01
   7167.67  3.1964366E-01
   7168.00  3.2531422E-01
   7168.33  3.3090389E-01
   7168.67  3.3644258E-01
   7169.00  3.4194444E-01
   7169.33  3.4741663E-01
   7169.67  3.5286427E-01
   7170.00  3.5828025E-01
   7170.33  3.6363692E-01
   7170.67  3.6890068E-01
   7171.00  3.7401308E-01
   7171.33  3.7882074E-01
   7171.67  3.8313691E-01
   7172.00  3.8667343E-01
