    FDMNES
    energy     <xanes>
   7097.00  4.1546701E-03
   7097.33  4.2347705E-03
   7097.67  4.3177988E-03
   7098.00  4.4039229E-03
   7098.33  4.4937712E-03
   7098.67  4.5871665E-03
   7099.00  4.6843321E-03
   7099.33  4.7860623E-03
   7099.67  4.8921705E-03
   7100.00  5.0029613E-03
   7100.33  5.1194663E-03
   7100.67  5.2414980E-03
   7101.00  5.3694874E-03
   7101.33  5.5048176E-03
   7101.67  5.6473227E-03
   7102.00  5.7976372E-03
   7102.33  5.9576922E-03
   7102.67  6.1273940E-03
   7103.00  6.3077253E-03
   7103.33  6.5015214E-03
   7103.67  6.7088812E-03
   7104.00  6.9314237E-03
   7104.33  7.1735906E-03
   7104.67  7.4359687E-03
   7105.00  7.7214468E-03
   7105.33  8.0375924E-03
   7105.67  8.3862761E-03
   7106.00  8.7732121E-03
   7106.33  9.2128303E-03
   7106.67  9.7107026E-03
   7107.00  1.0279835E-02
   7107.33  1.0952409E-02
   7107.67  1.1746498E-02
   7108.00  1.2698313E-02
   7108.33  1.3898322E-02
   7108.67  1.5419113E-02
   7109.00  1.7398323E-02
   7109.33  2.0203179E-02
   7109.67  2.4263809E-02
   7110.00  3.0429145E-02
   7110.33  4.1147863E-02
   7110.67  5.8831007E-02
   7111.00  8.2904002E-02
   7111.33  1.0318351E-01
   7111.67  1.1251312E-01
   7112.00  1.0932263E-01
   7112.33  1.0089424E-01
   7112.67  9.9197475E-02
   7113.00  1.0586663E-01
   7113.33  1.1982261E-01
   7113.67  1.3284233E-01
   7114.00  1.3114805E-01
   7114.33  1.0912855E-01
   7114.67  8.3220196E-02
   7115.00  6.3768850E-02
   7115.33  5.2715991E-02
   7115.67  4.6452210E-02
   7116.00  4.3295309E-02
   7116.33  4.2432343E-02
   7116.67  4.3125248E-02
   7117.00  4.5202167E-02
   7117.33  4.8671551E-02
   7117.67  5.3108019E-02
   7118.00  5.8198829E-02
   7118.33  6.3857634E-02
   7118.67  7.0534383E-02
   7119.00  7.8707280E-02
   7119.33  8.8159224E-02
   7119.67  9.7780174E-02
   7120.00  1.0720731E-01
   7120.33  1.1749250E-01
   7120.67  1.3026183E-01
   7121.00  1.4663598E-01
   7121.33  1.6797674E-01
   7121.67  1.9413776E-01
   7122.00  2.2493060E-01
   7122.33  2.5958022E-01
   7122.67  2.9472242E-01
   7123.00  3.2632141E-01
   7123.33  3.5047472E-01
   7123.67  3.7177092E-01
   7124.00  3.9688410E-01
   7124.33  4.2882514E-01
   7124.67  4.5845285E-01
   7125.00  4.7632132E-01
   7125.33  4.7994497E-01
   7125.67  4.7836774E-01
   7126.00  4.7631702E-01
   7126.33  4.7653330E-01
   7126.67  4.8150997E-01
   7127.00  4.9403942E-01
   7127.33  5.1678082E-01
   7127.67  5.4656148E-01
   7128.00  5.7924357E-01
   7128.33  6.1002560E-01
   7128.67  6.3745295E-01
   7129.00  6.6190513E-01
   7129.33  6.8339100E-01
   7129.67  7.0195079E-01
   7130.00  7.1744372E-01
   7130.33  7.2991146E-01
   7130.67  7.4008848E-01
   7131.00  7.4759595E-01
   7131.33  7.5077371E-01
   7131.67  7.4969282E-01
   7132.00  7.4549869E-01
   7132.33  7.4041270E-01
   7132.67  7.3652732E-01
   7133.00  7.3468154E-01
   7133.33  7.3474355E-01
   7133.67  7.3450895E-01
   7134.00  7.3127589E-01
   7134.33  7.2199071E-01
   7134.67  7.0790629E-01
   7135.00  6.9136365E-01
   7135.33  6.7456711E-01
   7135.67  6.5820775E-01
   7136.00  6.4221654E-01
   7136.33  6.2675241E-01
   7136.67  6.1238881E-01
   7137.00  5.9999911E-01
   7137.33  5.9102680E-01
   7137.67  5.8582954E-01
   7138.00  5.8458263E-01
   7138.33  5.8737251E-01
   7138.67  5.9290626E-01
   7139.00  6.0024824E-01
   7139.33  6.0849522E-01
   7139.67  6.1705455E-01
   7140.00  6.2606537E-01
   7140.33  6.3619344E-01
   7140.67  6.4774737E-01
   7141.00  6.6069797E-01
   7141.33  6.7449601E-01
   7141.67  6.8782177E-01
   7142.00  6.9935587E-01
   7142.33  7.0717980E-01
   7142.67  7.1063824E-01
   7143.00  7.0941065E-01
   7143.33  7.0332070E-01
   7143.67  6.9386771E-01
   7144.00  6.8212381E-01
   7144.33  6.6926335E-01
   7144.67  6.5656486E-01
   7145.00  6.4481414E-01
   7145.33  6.3484330E-01
   7145.67  6.2677354E-01
   7146.00  6.2064408E-01
   7146.33  6.1650357E-01
   7146.67  6.1380509E-01
   7147.00  6.1221266E-01
   7147.33  6.1141841E-01
   7147.67  6.1096269E-01
   7148.00  6.1054803E-01
   7148.33  6.0979535E-01
   7148.67  6.0838714E-01
   7149.00  6.0600290E-01
   7149.33  6.0211158E-01
   7149.67  5.9657847E-01
   7150.00  5.8922079E-01
   7150.33  5.7970975E-01
   7150.67  5.6835054E-01
   7151.00  5.5531962E-01
   7151.33  5.4076127E-01
   7151.67  5.2523434E-01
   7152.00  5.0908597E-01
   7152.33  4.9267926E-01
   7152.67  4.7640417E-01
   7153.00  4.6053537E-01
   7153.33  4.4543088E-01
   7153.67  4.3122860E-01
   7154.00  4.1808033E-01
   7154.33  4.0626468E-01
   7154.67  3.9571545E-01
   7155.00  3.8646487E-01
   7155.33  3.7866943E-01
   7155.67  3.7212260E-01
   7156.00  3.6675998E-01
   7156.33  3.6262453E-01
   7156.67  3.5948415E-01
   7157.00  3.5726122E-01
   7157.33  3.5597328E-01
   7157.67  3.5543829E-01
   7158.00  3.5559320E-01
   7158.33  3.5643608E-01
   7158.67  3.5781279E-01
   7159.00  3.5966045E-01
   7159.33  3.6194495E-01
   7159.67  3.6452063E-01
   7160.00  3.6729467E-01
   7160.33  3.7016183E-01
   7160.67  3.7299372E-01
   7161.00  3.7569284E-01
   7161.33  3.7812886E-01
   7161.67  3.8025033E-01
   7162.00  3.8200823E-01
   7162.33  3.8332243E-01
   7162.67  3.8424047E-01
   7163.00  3.8478299E-01
   7163.33  3.8495545E-01
   7163.67  3.8486464E-01
   7164.00  3.8457734E-01
   7164.33  3.8416354E-01
   7164.67  3.8372185E-01
   7165.00  3.8332048E-01
   7165.33  3.8304420E-01
   7165.67  3.8293790E-01
   7166.00  3.8304058E-01
   7166.33  3.8341512E-01
   7166.67  3.8405207E-01
   7167.00  3.8496108E-01
   7167.33  3.8618018E-01
   7167.67  3.8767377E-01
   7168.00  3.8944026E-01
   7168.33  3.9151310E-01
   7168.67  3.9385943E-01
   7169.00  3.9648175E-01
   7169.33  3.9941846E-01
   7169.67  4.0263529E-01
   7170.00  4.0612657E-01
   7170.33  4.0990372E-01
   7170.67  4.1389012E-01
   7171.00  4.1801538E-01
   7171.33  4.2213109E-01
   7171.67  4.2596817E-01
   7172.00  4.2917527E-01
