    FDMNES
    energy     <xanes>
   7097.00  4.1721145E-03
   7097.33  4.2547632E-03
   7097.67  4.3406469E-03
   7098.00  4.4299692E-03
   7098.33  4.5234549E-03
   7098.67  4.6209332E-03
   7099.00  4.7226814E-03
   7099.33  4.8296387E-03
   7099.67  4.9416317E-03
   7100.00  5.0590501E-03
   7100.33  5.1831477E-03
   7100.67  5.3137655E-03
   7101.00  5.4514710E-03
   7101.33  5.5979993E-03
   7101.67  5.7532438E-03
   7102.00  5.9180668E-03
   7102.33  6.0949774E-03
   7102.67  6.2840065E-03
   7103.00  6.4865345E-03
   7103.33  6.7063893E-03
   7103.67  6.9439383E-03
   7104.00  7.2015355E-03
   7104.33  7.4854261E-03
   7104.67  7.7968056E-03
   7105.00  8.1400188E-03
   7105.33  8.5261626E-03
   7105.67  8.9585875E-03
   7106.00  9.4461780E-03
   7106.33  1.0010990E-02
   7106.67  1.0662591E-02
   7107.00  1.1421840E-02
   7107.33  1.2339880E-02
   7107.67  1.3447404E-02
   7108.00  1.4804109E-02
   7108.33  1.6558732E-02
   7108.67  1.8834869E-02
   7109.00  2.1864651E-02
   7109.33  2.6268349E-02
   7109.67  3.2784364E-02
   7110.00  4.2867672E-02
   7110.33  6.0699562E-02
   7110.67  9.0173858E-02
   7111.00  1.2925134E-01
   7111.33  1.6085257E-01
   7111.67  1.7847628E-01
   7112.00  1.8174071E-01
   7112.33  1.8007103E-01
   7112.67  1.7882724E-01
   7113.00  1.6447742E-01
   7113.33  1.2903083E-01
   7113.67  9.5278061E-02
   7114.00  7.2467329E-02
   7114.33  6.0194836E-02
   7114.67  5.2724469E-02
   7115.00  4.6392783E-02
   7115.33  4.0587052E-02
   7115.67  3.6382093E-02
   7116.00  3.3782996E-02
   7116.33  3.2480830E-02
   7116.67  3.1974542E-02
   7117.00  3.2073065E-02
   7117.33  3.2707906E-02
   7117.67  3.3780229E-02
   7118.00  3.5300116E-02
   7118.33  3.7289369E-02
   7118.67  3.9540144E-02
   7119.00  4.1868199E-02
   7119.33  4.4191574E-02
   7119.67  4.6650913E-02
   7120.00  4.9461453E-02
   7120.33  5.2969009E-02
   7120.67  5.7386527E-02
   7121.00  6.3006625E-02
   7121.33  7.0416832E-02
   7121.67  7.9780139E-02
   7122.00  9.1276046E-02
   7122.33  1.0521381E-01
   7122.67  1.2148232E-01
   7123.00  1.4056460E-01
   7123.33  1.6378520E-01
   7123.67  1.9152198E-01
   7124.00  2.2418640E-01
   7124.33  2.6213642E-01
   7124.67  3.0310843E-01
   7125.00  3.4405054E-01
   7125.33  3.8023839E-01
   7125.67  4.1066900E-01
   7126.00  4.3746184E-01
   7126.33  4.6514757E-01
   7126.67  4.9774391E-01
   7127.00  5.3690139E-01
   7127.33  5.7996941E-01
   7127.67  6.1845916E-01
   7128.00  6.4619150E-01
   7128.33  6.6048070E-01
   7128.67  6.6751219E-01
   7129.00  6.7358507E-01
   7129.33  6.8683833E-01
   7129.67  7.1128208E-01
   7130.00  7.4795737E-01
   7130.33  7.9612895E-01
   7130.67  8.4969432E-01
   7131.00  9.0257444E-01
   7131.33  9.4583985E-01
   7131.67  9.7460117E-01
   7132.00  9.8628422E-01
   7132.33  9.7801769E-01
   7132.67  9.5389549E-01
   7133.00  9.1790169E-01
   7133.33  8.7578563E-01
   7133.67  8.3448808E-01
   7134.00  7.9809732E-01
   7134.33  7.7068130E-01
   7134.67  7.5272400E-01
   7135.00  7.4424733E-01
   7135.33  7.4482236E-01
   7135.67  7.5095714E-01
   7136.00  7.6038937E-01
   7136.33  7.7097266E-01
   7136.67  7.8067367E-01
   7137.00  7.8805499E-01
   7137.33  7.9127929E-01
   7137.67  7.8997770E-01
   7138.00  7.8400756E-01
   7138.33  7.7331773E-01
   7138.67  7.5938978E-01
   7139.00  7.4322017E-01
   7139.33  7.2581686E-01
   7139.67  7.0829692E-01
   7140.00  6.9130992E-01
   7140.33  6.7550711E-01
   7140.67  6.6104336E-01
   7141.00  6.4800946E-01
   7141.33  6.3655447E-01
   7141.67  6.2640232E-01
   7142.00  6.1744605E-01
   7142.33  6.0970896E-01
   7142.67  6.0299352E-01
   7143.00  5.9728779E-01
   7143.33  5.9271951E-01
   7143.67  5.8913132E-01
   7144.00  5.8643871E-01
   7144.33  5.8455218E-01
   7144.67  5.8313335E-01
   7145.00  5.8193990E-01
   7145.33  5.8068401E-01
   7145.67  5.7912332E-01
   7146.00  5.7708432E-01
   7146.33  5.7433971E-01
   7146.67  5.7087462E-01
   7147.00  5.6664839E-01
   7147.33  5.6155451E-01
   7147.67  5.5571112E-01
   7148.00  5.4915534E-01
   7148.33  5.4186127E-01
   7148.67  5.3397381E-01
   7149.00  5.2554502E-01
   7149.33  5.1656945E-01
   7149.67  5.0716162E-01
   7150.00  4.9736946E-01
   7150.33  4.8721306E-01
   7150.67  4.7679773E-01
   7151.00  4.6617644E-01
   7151.33  4.5538084E-01
   7151.67  4.4446286E-01
   7152.00  4.3343113E-01
   7152.33  4.2226037E-01
   7152.67  4.1094010E-01
   7153.00  3.9943769E-01
   7153.33  3.8770128E-01
   7153.67  3.7576635E-01
   7154.00  3.6368267E-01
   7154.33  3.5155436E-01
   7154.67  3.3953894E-01
   7155.00  3.2778524E-01
   7155.33  3.1651371E-01
   7155.67  3.0581395E-01
   7156.00  2.9578164E-01
   7156.33  2.8658460E-01
   7156.67  2.7817169E-01
   7157.00  2.7056120E-01
   7157.33  2.6386444E-01
   7157.67  2.5798367E-01
   7158.00  2.5292137E-01
   7158.33  2.4878258E-01
   7158.67  2.4546414E-01
   7159.00  2.4296066E-01
   7159.33  2.4135920E-01
   7159.67  2.4054255E-01
   7160.00  2.4049947E-01
   7160.33  2.4132602E-01
   7160.67  2.4294440E-01
   7161.00  2.4538591E-01
   7161.33  2.4880792E-01
   7161.67  2.5315167E-01
   7162.00  2.5844892E-01
   7162.33  2.6482244E-01
   7162.67  2.7210141E-01
   7163.00  2.8018038E-01
   7163.33  2.8896462E-01
   7163.67  2.9820801E-01
   7164.00  3.0776679E-01
   7164.33  3.1749091E-01
   7164.67  3.2720558E-01
   7165.00  3.3679480E-01
   7165.33  3.4612284E-01
   7165.67  3.5514313E-01
   7166.00  3.6381150E-01
   7166.33  3.7205092E-01
   7166.67  3.7990307E-01
   7167.00  3.8737796E-01
   7167.33  3.9445569E-01
   7167.67  4.0121214E-01
   7168.00  4.0767607E-01
   7168.33  4.1384614E-01
   7168.67  4.1977960E-01
   7169.00  4.2548962E-01
   7169.33  4.3095409E-01
   7169.67  4.3619341E-01
   7170.00  4.4119252E-01
   7170.33  4.4589268E-01
   7170.67  4.5029464E-01
   7171.00  4.5436399E-01
   7171.33  4.5799587E-01
   7171.67  4.6114190E-01
   7172.00  4.6367607E-01
