    FDMNES
    energy     <xanes>
   7097.00  5.1087637E-03
   7097.33  5.2251471E-03
   7097.67  5.3466894E-03
   7098.00  5.4737340E-03
   7098.33  5.6074648E-03
   7098.67  5.7476298E-03
   7099.00  5.8946944E-03
   7099.33  6.0501996E-03
   7099.67  6.2138846E-03
   7100.00  6.3863972E-03
   7100.33  6.5697940E-03
   7100.67  6.7638264E-03
   7101.00  6.9694237E-03
   7101.33  7.1894136E-03
   7101.67  7.4236079E-03
   7102.00  7.6733878E-03
   7102.33  7.9427835E-03
   7102.67  8.2317732E-03
   7103.00  8.5425006E-03
   7103.33  8.8809676E-03
   7103.67  9.2475597E-03
   7104.00  9.6457867E-03
   7104.33  1.0085091E-02
   7104.67  1.0566840E-02
   7105.00  1.1097182E-02
   7105.33  1.1692061E-02
   7105.67  1.2355309E-02
   7106.00  1.3098695E-02
   7106.33  1.3951813E-02
   7106.67  1.4925251E-02
   7107.00  1.6044460E-02
   7107.33  1.7372243E-02
   7107.67  1.8940629E-02
   7108.00  2.0815497E-02
   7108.33  2.3160101E-02
   7108.67  2.6093111E-02
   7109.00  2.9841450E-02
   7109.33  3.4998857E-02
   7109.67  4.2203598E-02
   7110.00  5.2706249E-02
   7110.33  7.0099438E-02
   7110.67  9.8385800E-02
   7111.00  1.3937279E-01
   7111.33  1.8119451E-01
   7111.67  2.1134451E-01
   7112.00  2.3244148E-01
   7112.33  2.5326043E-01
   7112.67  2.8034333E-01
   7113.00  3.2293148E-01
   7113.33  3.7632059E-01
   7113.67  4.1458556E-01
   7114.00  4.2318090E-01
   7114.33  3.9282641E-01
   7114.67  3.4261495E-01
   7115.00  2.9286487E-01
   7115.33  2.5668255E-01
   7115.67  2.3323098E-01
   7116.00  2.2028876E-01
   7116.33  2.1590293E-01
   7116.67  2.1512114E-01
   7117.00  2.1207045E-01
   7117.33  1.9976137E-01
   7117.67  1.8180432E-01
   7118.00  1.6457686E-01
   7118.33  1.5284128E-01
   7118.67  1.4605376E-01
   7119.00  1.4287174E-01
   7119.33  1.4166621E-01
   7119.67  1.4072258E-01
   7120.00  1.3935231E-01
   7120.33  1.3741609E-01
   7120.67  1.3531451E-01
   7121.00  1.3333233E-01
   7121.33  1.3188451E-01
   7121.67  1.3147325E-01
   7122.00  1.3261997E-01
   7122.33  1.3600882E-01
   7122.67  1.4159538E-01
   7123.00  1.4947610E-01
   7123.33  1.6018117E-01
   7123.67  1.7373699E-01
   7124.00  1.9041128E-01
   7124.33  2.1067619E-01
   7124.67  2.3372217E-01
   7125.00  2.5868212E-01
   7125.33  2.8404917E-01
   7125.67  3.0804131E-01
   7126.00  3.2951695E-01
   7126.33  3.4770885E-01
   7126.67  3.6374171E-01
   7127.00  3.7907364E-01
   7127.33  3.9601359E-01
   7127.67  4.1597167E-01
   7128.00  4.3898263E-01
   7128.33  4.6366342E-01
   7128.67  4.8878892E-01
   7129.00  5.1528549E-01
   7129.33  5.4499979E-01
   7129.67  5.7805340E-01
   7130.00  6.1419931E-01
   7130.33  6.5286559E-01
   7130.67  6.9252242E-01
   7131.00  7.3220397E-01
   7131.33  7.7163000E-01
   7131.67  8.1140614E-01
   7132.00  8.5125105E-01
   7132.33  8.8887596E-01
   7132.67  9.2261352E-01
   7133.00  9.5174195E-01
   7133.33  9.7482227E-01
   7133.67  9.9097786E-01
   7134.00  9.9841356E-01
   7134.33  9.9421683E-01
   7134.67  9.7960109E-01
   7135.00  9.5592140E-01
   7135.33  9.2484801E-01
   7135.67  8.8959487E-01
   7136.00  8.5168265E-01
   7136.33  8.1227148E-01
   7136.67  7.7273202E-01
   7137.00  7.3406490E-01
   7137.33  6.9751686E-01
   7137.67  6.6364249E-01
   7138.00  6.3297581E-01
   7138.33  6.0647975E-01
   7138.67  5.8404578E-01
   7139.00  5.6580973E-01
   7139.33  5.5217024E-01
   7139.67  5.4221390E-01
   7140.00  5.3543337E-01
   7140.33  5.3147832E-01
   7140.67  5.2939907E-01
   7141.00  5.2872615E-01
   7141.33  5.2913426E-01
   7141.67  5.3014536E-01
   7142.00  5.3149389E-01
   7142.33  5.3289282E-01
   7142.67  5.3404474E-01
   7143.00  5.3469983E-01
   7143.33  5.3448793E-01
   7143.67  5.3328047E-01
   7144.00  5.3095033E-01
   7144.33  5.2730456E-01
   7144.67  5.2256087E-01
   7145.00  5.1686826E-01
   7145.33  5.1039174E-01
   7145.67  5.0352029E-01
   7146.00  4.9651241E-01
   7146.33  4.8962426E-01
   7146.67  4.8302374E-01
   7147.00  4.7683971E-01
   7147.33  4.7126349E-01
   7147.67  4.6632370E-01
   7148.00  4.6208376E-01
   7148.33  4.5869444E-01
   7148.67  4.5610267E-01
   7149.00  4.5433358E-01
   7149.33  4.5350448E-01
   7149.67  4.5350520E-01
   7150.00  4.5431738E-01
   7150.33  4.5599682E-01
   7150.67  4.5838628E-01
   7151.00  4.6141418E-01
   7151.33  4.6504360E-01
   7151.67  4.6908684E-01
   7152.00  4.7343229E-01
   7152.33  4.7797190E-01
   7152.67  4.8256464E-01
   7153.00  4.8712294E-01
   7153.33  4.9155330E-01
   7153.67  4.9581436E-01
   7154.00  4.9987476E-01
   7154.33  5.0368890E-01
   7154.67  5.0728166E-01
   7155.00  5.1065824E-01
   7155.33  5.1380184E-01
   7155.67  5.1674651E-01
   7156.00  5.1949618E-01
   7156.33  5.2202652E-01
   7156.67  5.2435753E-01
   7157.00  5.2648319E-01
   7157.33  5.2836979E-01
   7157.67  5.3003900E-01
   7158.00  5.3148974E-01
   7158.33  5.3269885E-01
   7158.67  5.3370521E-01
   7159.00  5.3452675E-01
   7159.33  5.3517301E-01
   7159.67  5.3570000E-01
   7160.00  5.3614327E-01
   7160.33  5.3654193E-01
   7160.67  5.3694511E-01
   7161.00  5.3738847E-01
   7161.33  5.3791789E-01
   7161.67  5.3855170E-01
   7162.00  5.3930475E-01
   7162.33  5.4019762E-01
   7162.67  5.4120697E-01
   7163.00  5.4231548E-01
   7163.33  5.4349562E-01
   7163.67  5.4469322E-01
   7164.00  5.4586831E-01
   7164.33  5.4696313E-01
   7164.67  5.4793497E-01
   7165.00  5.4874045E-01
   7165.33  5.4930745E-01
   7165.67  5.4962444E-01
   7166.00  5.4966689E-01
   7166.33  5.4938093E-01
   7166.67  5.4879459E-01
   7167.00  5.4790522E-01
   7167.33  5.4668363E-01
   7167.67  5.4518528E-01
   7168.00  5.4343123E-01
   7168.33  5.4142040E-01
   7168.67  5.3921100E-01
   7169.00  5.3683030E-01
   7169.33  5.3429386E-01
   7169.67  5.3165235E-01
   7170.00  5.2893544E-01
   7170.33  5.2617403E-01
   7170.67  5.2341255E-01
   7171.00  5.2069506E-01
   7171.33  5.1811429E-01
   7171.67  5.1578706E-01
   7172.00  5.1388111E-01
