    FDMNES
    energy     <xanes>
   7097.00  3.9191900E-03
   7097.33  3.9893443E-03
   7097.67  4.0618629E-03
   7098.00  4.1368741E-03
   7098.33  4.2148730E-03
   7098.67  4.2957078E-03
   7099.00  4.3795480E-03
   7099.33  4.4670144E-03
   7099.67  4.5579471E-03
   7100.00  4.6525773E-03
   7100.33  4.7517054E-03
   7100.67  4.8551712E-03
   7101.00  4.9633017E-03
   7101.33  5.0771655E-03
   7101.67  5.1966203E-03
   7102.00  5.3221504E-03
   7102.33  5.4552458E-03
   7102.67  5.5958254E-03
   7103.00  5.7446462E-03
   7103.33  5.9039051E-03
   7103.67  6.0736837E-03
   7104.00  6.2552495E-03
   7104.33  6.4520800E-03
   7104.67  6.6646760E-03
   7105.00  6.8953490E-03
   7105.33  7.1501361E-03
   7105.67  7.4306618E-03
   7106.00  7.7416338E-03
   7106.33  8.0948978E-03
   7106.67  8.4954029E-03
   7107.00  8.9542762E-03
   7107.33  9.4990231E-03
   7107.67  1.0146214E-02
   7108.00  1.0928373E-02
   7108.33  1.1927146E-02
   7108.67  1.3212231E-02
   7109.00  1.4915319E-02
   7109.33  1.7392691E-02
   7109.67  2.1084265E-02
   7110.00  2.6863846E-02
   7110.33  3.7240888E-02
   7110.67  5.4229890E-02
   7111.00  7.4704354E-02
   7111.33  8.4382814E-02
   7111.67  8.5172768E-02
   7112.00  8.4178380E-02
   7112.33  8.3521293E-02
   7112.67  8.1099292E-02
   7113.00  7.4831709E-02
   7113.33  6.4906808E-02
   7113.67  5.5782380E-02
   7114.00  4.9430889E-02
   7114.33  4.3426788E-02
   7114.67  3.6991820E-02
   7115.00  3.2351260E-02
   7115.33  3.0055522E-02
   7115.67  2.9118527E-02
   7116.00  2.9056565E-02
   7116.33  2.9573220E-02
   7116.67  3.0426639E-02
   7117.00  3.1584554E-02
   7117.33  3.3125576E-02
   7117.67  3.5093350E-02
   7118.00  3.7607076E-02
   7118.33  4.0884058E-02
   7118.67  4.4805407E-02
   7119.00  4.9137704E-02
   7119.33  5.3535697E-02
   7119.67  5.7817092E-02
   7120.00  6.2049195E-02
   7120.33  6.6435589E-02
   7120.67  7.1008918E-02
   7121.00  7.5588760E-02
   7121.33  7.9813320E-02
   7121.67  8.3703071E-02
   7122.00  8.7695500E-02
   7122.33  9.2628821E-02
   7122.67  9.9015978E-02
   7123.00  1.0727378E-01
   7123.33  1.1816354E-01
   7123.67  1.3199432E-01
   7124.00  1.4949807E-01
   7124.33  1.7251999E-01
   7124.67  2.0223251E-01
   7125.00  2.4070505E-01
   7125.33  2.9225366E-01
   7125.67  3.5744388E-01
   7126.00  4.3459418E-01
   7126.33  5.1275585E-01
   7126.67  5.7204887E-01
   7127.00  6.0050531E-01
   7127.33  5.9924181E-01
   7127.67  5.8740656E-01
   7128.00  5.7708900E-01
   7128.33  5.7829363E-01
   7128.67  5.9501627E-01
   7129.00  6.3123797E-01
   7129.33  6.9560835E-01
   7129.67  7.9153785E-01
   7130.00  9.2376457E-01
   7130.33  1.0944601E+00
   7130.67  1.2763504E+00
   7131.00  1.4264647E+00
   7131.33  1.4781467E+00
   7131.67  1.4256625E+00
   7132.00  1.2966624E+00
   7132.33  1.1379603E+00
   7132.67  9.9013768E-01
   7133.00  8.6774423E-01
   7133.33  7.7775041E-01
   7133.67  7.1307430E-01
   7134.00  6.6868895E-01
   7134.33  6.4012021E-01
   7134.67  6.2039023E-01
   7135.00  6.0640697E-01
   7135.33  5.9650287E-01
   7135.67  5.8917650E-01
   7136.00  5.8399265E-01
   7136.33  5.8091056E-01
   7136.67  5.7951350E-01
   7137.00  5.7966085E-01
   7137.33  5.8136114E-01
   7137.67  5.8428143E-01
   7138.00  5.8829524E-01
   7138.33  5.9339782E-01
   7138.67  5.9936943E-01
   7139.00  6.0614530E-01
   7139.33  6.1375944E-01
   7139.67  6.2206339E-01
   7140.00  6.3099870E-01
   7140.33  6.4053287E-01
   7140.67  6.5044725E-01
   7141.00  6.6055553E-01
   7141.33  6.7055976E-01
   7141.67  6.8013741E-01
   7142.00  6.8899648E-01
   7142.33  6.9665590E-01
   7142.67  7.0289214E-01
   7143.00  7.0743186E-01
   7143.33  7.0979915E-01
   7143.67  7.1010688E-01
   7144.00  7.0833825E-01
   7144.33  7.0433192E-01
   7144.67  6.9851726E-01
   7145.00  6.9109422E-01
   7145.33  6.8213109E-01
   7145.67  6.7199908E-01
   7146.00  6.6081209E-01
   7146.33  6.4850392E-01
   7146.67  6.3520443E-01
   7147.00  6.2092021E-01
   7147.33  6.0560912E-01
   7147.67  5.8955842E-01
   7148.00  5.7300225E-01
   7148.33  5.5627421E-01
   7148.67  5.3978837E-01
   7149.00  5.2387822E-01
   7149.33  5.0898567E-01
   7149.67  4.9521205E-01
   7150.00  4.8265389E-01
   7150.33  4.7151380E-01
   7150.67  4.6162012E-01
   7151.00  4.5292043E-01
   7151.33  4.4546157E-01
   7151.67  4.3898534E-01
   7152.00  4.3335562E-01
   7152.33  4.2847709E-01
   7152.67  4.2408093E-01
   7153.00  4.2000702E-01
   7153.33  4.1608714E-01
   7153.67  4.1212511E-01
   7154.00  4.0797632E-01
   7154.33  4.0344425E-01
   7154.67  3.9843946E-01
   7155.00  3.9287191E-01
   7155.33  3.8659054E-01
   7155.67  3.7964507E-01
   7156.00  3.7204812E-01
   7156.33  3.6378767E-01
   7156.67  3.5504967E-01
   7157.00  3.4596742E-01
   7157.33  3.3671109E-01
   7157.67  3.2751503E-01
   7158.00  3.1857544E-01
   7158.33  3.1018407E-01
   7158.67  3.0249714E-01
   7159.00  2.9567718E-01
   7159.33  2.9000259E-01
   7159.67  2.8545100E-01
   7160.00  2.8207463E-01
   7160.33  2.8004163E-01
   7160.67  2.7917901E-01
   7161.00  2.7943014E-01
   7161.33  2.8083027E-01
   7161.67  2.8313944E-01
   7162.00  2.8623784E-01
   7162.33  2.9007905E-01
   7162.67  2.9446821E-01
   7163.00  2.9931217E-01
   7163.33  3.0455427E-01
   7163.67  3.1006383E-01
   7164.00  3.1577672E-01
   7164.33  3.2164680E-01
   7164.67  3.2760492E-01
   7165.00  3.3361627E-01
   7165.33  3.3965312E-01
   7165.67  3.4568754E-01
   7166.00  3.5170493E-01
   7166.33  3.5769722E-01
   7166.67  3.6366940E-01
   7167.00  3.6962671E-01
   7167.33  3.7557617E-01
   7167.67  3.8152321E-01
   7168.00  3.8746708E-01
   7168.33  3.9340232E-01
   7168.67  3.9932050E-01
   7169.00  4.0520799E-01
   7169.33  4.1103475E-01
   7169.67  4.1677539E-01
   7170.00  4.2239484E-01
   7170.33  4.2782196E-01
   7170.67  4.3301668E-01
   7171.00  4.3791248E-01
   7171.33  4.4235260E-01
   7171.67  4.4622449E-01
   7172.00  4.4933671E-01
