    FDMNES
    energy     <xanes>
   7097.00  3.8314251E-03
   7097.33  3.9000138E-03
   7097.67  3.9709010E-03
   7098.00  4.0442104E-03
   7098.33  4.1204224E-03
   7098.67  4.1993880E-03
   7099.00  4.2812709E-03
   7099.33  4.3666722E-03
   7099.67  4.4554350E-03
   7100.00  4.5477822E-03
   7100.33  4.6444873E-03
   7100.67  4.7453929E-03
   7101.00  4.8508134E-03
   7101.33  4.9617797E-03
   7101.67  5.0781507E-03
   7102.00  5.2003911E-03
   7102.33  5.3299350E-03
   7102.67  5.4666979E-03
   7103.00  5.6114044E-03
   7103.33  5.7661622E-03
   7103.67  5.9310388E-03
   7104.00  6.1072419E-03
   7104.33  6.2980931E-03
   7104.67  6.5040497E-03
   7105.00  6.7272997E-03
   7105.33  6.9735712E-03
   7105.67  7.2443554E-03
   7106.00  7.5440645E-03
   7106.33  7.8838154E-03
   7106.67  8.2681079E-03
   7107.00  8.7071979E-03
   7107.33  9.2264145E-03
   7107.67  9.8404899E-03
   7108.00  1.0578536E-02
   7108.33  1.1513212E-02
   7108.67  1.2703920E-02
   7109.00  1.4262534E-02
   7109.33  1.6487022E-02
   7109.67  1.9726903E-02
   7110.00  2.4669275E-02
   7110.33  3.3297580E-02
   7110.67  4.7655848E-02
   7111.00  6.7803461E-02
   7111.33  8.6995655E-02
   7111.67  9.9405721E-02
   7112.00  1.0334449E-01
   7112.33  9.3437814E-02
   7112.67  7.5034254E-02
   7113.00  5.7647160E-02
   7113.33  4.6644418E-02
   7113.67  4.0795187E-02
   7114.00  3.8052565E-02
   7114.33  3.5811143E-02
   7114.67  3.2752915E-02
   7115.00  2.9774517E-02
   7115.33  2.8113402E-02
   7115.67  2.7437764E-02
   7116.00  2.7407567E-02
   7116.33  2.7809839E-02
   7116.67  2.8530369E-02
   7117.00  2.9642825E-02
   7117.33  3.1355493E-02
   7117.67  3.3751153E-02
   7118.00  3.6957673E-02
   7118.33  4.1195254E-02
   7118.67  4.6260879E-02
   7119.00  5.1761102E-02
   7119.33  5.6848446E-02
   7119.67  6.0911596E-02
   7120.00  6.3916551E-02
   7120.33  6.6341407E-02
   7120.67  6.9055521E-02
   7121.00  7.2744596E-02
   7121.33  7.8386271E-02
   7121.67  8.6596733E-02
   7122.00  9.8244644E-02
   7122.33  1.1487877E-01
   7122.67  1.3549142E-01
   7123.00  1.5651313E-01
   7123.33  1.7211075E-01
   7123.67  1.8417086E-01
   7124.00  1.9649551E-01
   7124.33  2.1150064E-01
   7124.67  2.2919062E-01
   7125.00  2.4931786E-01
   7125.33  2.7094983E-01
   7125.67  2.9169616E-01
   7126.00  3.1006258E-01
   7126.33  3.2727386E-01
   7126.67  3.4810267E-01
   7127.00  3.7704797E-01
   7127.33  4.1927082E-01
   7127.67  4.7438542E-01
   7128.00  5.4067365E-01
   7128.33  6.1287894E-01
   7128.67  6.8157957E-01
   7129.00  7.4152589E-01
   7129.33  7.9304394E-01
   7129.67  8.4271330E-01
   7130.00  8.9389244E-01
   7130.33  9.4653358E-01
   7130.67  9.9633218E-01
   7131.00  1.0384122E+00
   7131.33  1.0672725E+00
   7131.67  1.0840062E+00
   7132.00  1.0906056E+00
   7132.33  1.0885375E+00
   7132.67  1.0794537E+00
   7133.00  1.0630785E+00
   7133.33  1.0391785E+00
   7133.67  1.0109484E+00
   7134.00  9.8117886E-01
   7134.33  9.5248143E-01
   7134.67  9.2523626E-01
   7135.00  8.9857676E-01
   7135.33  8.7111007E-01
   7135.67  8.4213622E-01
   7136.00  8.1159580E-01
   7136.33  7.7992567E-01
   7136.67  7.4822675E-01
   7137.00  7.1741032E-01
   7137.33  6.8859767E-01
   7137.67  6.6216988E-01
   7138.00  6.3840397E-01
   7138.33  6.1774227E-01
   7138.67  5.9977227E-01
   7139.00  5.8435869E-01
   7139.33  5.7159306E-01
   7139.67  5.6096132E-01
   7140.00  5.5227635E-01
   7140.33  5.4554644E-01
   7140.67  5.4035937E-01
   7141.00  5.3656093E-01
   7141.33  5.3414267E-01
   7141.67  5.3281142E-01
   7142.00  5.3246197E-01
   7142.33  5.3308917E-01
   7142.67  5.3447023E-01
   7143.00  5.3649797E-01
   7143.33  5.3909085E-01
   7143.67  5.4201838E-01
   7144.00  5.4512229E-01
   7144.33  5.4821365E-01
   7144.67  5.5112746E-01
   7145.00  5.5375653E-01
   7145.33  5.5598502E-01
   7145.67  5.5784211E-01
   7146.00  5.5934976E-01
   7146.33  5.6052037E-01
   7146.67  5.6144907E-01
   7147.00  5.6217968E-01
   7147.33  5.6272829E-01
   7147.67  5.6313328E-01
   7148.00  5.6339728E-01
   7148.33  5.6349334E-01
   7148.67  5.6342718E-01
   7149.00  5.6319079E-01
   7149.33  5.6275762E-01
   7149.67  5.6214856E-01
   7150.00  5.6136474E-01
   7150.33  5.6038508E-01
   7150.67  5.5922739E-01
   7151.00  5.5788014E-01
   7151.33  5.5628613E-01
   7151.67  5.5442205E-01
   7152.00  5.5222607E-01
   7152.33  5.4955585E-01
   7152.67  5.4636091E-01
   7153.00  5.4254410E-01
   7153.33  5.3789546E-01
   7153.67  5.3239795E-01
   7154.00  5.2597445E-01
   7154.33  5.1843974E-01
   7154.67  5.0989319E-01
   7155.00  5.0034582E-01
   7155.33  4.8972713E-01
   7155.67  4.7824388E-01
   7156.00  4.6599987E-01
   7156.33  4.5306611E-01
   7156.67  4.3968995E-01
   7157.00  4.2603421E-01
   7157.33  4.1229249E-01
   7157.67  3.9867764E-01
   7158.00  3.8535467E-01
   7158.33  3.7255493E-01
   7158.67  3.6036778E-01
   7159.00  3.4889626E-01
   7159.33  3.3833100E-01
   7159.67  3.2863176E-01
   7160.00  3.1983252E-01
   7160.33  3.1207545E-01
   7160.67  3.0526674E-01
   7161.00  2.9942792E-01
   7161.33  2.9471178E-01
   7161.67  2.9101505E-01
   7162.00  2.8834214E-01
   7162.33  2.8679978E-01
   7162.67  2.8621206E-01
   7163.00  2.8652054E-01
   7163.33  2.8773398E-01
   7163.67  2.8963149E-01
   7164.00  2.9210031E-01
   7164.33  2.9506918E-01
   7164.67  2.9836553E-01
   7165.00  3.0190184E-01
   7165.33  3.0561730E-01
   7165.67  3.0943730E-01
   7166.00  3.1333487E-01
   7166.33  3.1730345E-01
   7166.67  3.2133800E-01
   7167.00  3.2545866E-01
   7167.33  3.2971977E-01
   7167.67  3.3415359E-01
   7168.00  3.3880428E-01
   7168.33  3.4375604E-01
   7168.67  3.4901880E-01
   7169.00  3.5461748E-01
   7169.33  3.6060123E-01
   7169.67  3.6689941E-01
   7170.00  3.7345412E-01
   7170.33  3.8017244E-01
   7170.67  3.8687826E-01
   7171.00  3.9340050E-01
   7171.33  3.9944216E-01
   7171.67  4.0474546E-01
   7172.00  4.0899241E-01
