    FDMNES
    energy     <xanes>
   7097.00  5.0403804E-03
   7097.33  5.1673780E-03
   7097.67  5.3005028E-03
   7098.00  5.4401926E-03
   7098.33  5.5879056E-03
   7098.67  5.7433843E-03
   7099.00  5.9072343E-03
   7099.33  6.0813903E-03
   7099.67  6.2656002E-03
   7100.00  6.4607245E-03
   7100.33  6.6694033E-03
   7100.67  6.8914274E-03
   7101.00  7.1280611E-03
   7101.33  7.3830276E-03
   7101.67  7.6562447E-03
   7102.00  7.9496439E-03
   7102.33  8.2686887E-03
   7102.67  8.6136105E-03
   7103.00  8.9875039E-03
   7103.33  9.3987863E-03
   7103.67  9.8484329E-03
   7104.00  1.0341701E-02
   7104.33  1.0892379E-02
   7104.67  1.1503235E-02
   7105.00  1.2183896E-02
   7105.33  1.2958798E-02
   7105.67  1.3835319E-02
   7106.00  1.4832900E-02
   7106.33  1.5999688E-02
   7106.67  1.7356194E-02
   7107.00  1.8947366E-02
   7107.33  2.0883313E-02
   7107.67  2.3228734E-02
   7108.00  2.6110200E-02
   7108.33  2.9842781E-02
   7108.67  3.4684228E-02
   7109.00  4.1120083E-02
   7109.33  5.0446608E-02
   7109.67  6.4196424E-02
   7110.00  8.5392255E-02
   7110.33  1.2270694E-01
   7110.67  1.8408643E-01
   7111.00  2.6508803E-01
   7111.33  3.3060590E-01
   7111.67  3.6045436E-01
   7112.00  3.5915999E-01
   7112.33  3.6071537E-01
   7112.67  3.6258434E-01
   7113.00  3.5114340E-01
   7113.33  3.3442618E-01
   7113.67  3.2184995E-01
   7114.00  3.2380527E-01
   7114.33  3.4594230E-01
   7114.67  3.6905498E-01
   7115.00  3.5791265E-01
   7115.33  2.8862909E-01
   7115.67  2.2245380E-01
   7116.00  1.8333902E-01
   7116.33  1.5860261E-01
   7116.67  1.3414278E-01
   7117.00  1.1484619E-01
   7117.33  1.0535737E-01
   7117.67  1.0318687E-01
   7118.00  1.0637724E-01
   7118.33  1.1267998E-01
   7118.67  1.1959536E-01
   7119.00  1.2626657E-01
   7119.33  1.3199210E-01
   7119.67  1.3706544E-01
   7120.00  1.4184052E-01
   7120.33  1.4576766E-01
   7120.67  1.4869906E-01
   7121.00  1.5133076E-01
   7121.33  1.5505876E-01
   7121.67  1.6055178E-01
   7122.00  1.6776193E-01
   7122.33  1.7648622E-01
   7122.67  1.8674453E-01
   7123.00  1.9934124E-01
   7123.33  2.1575331E-01
   7123.67  2.3612686E-01
   7124.00  2.6057067E-01
   7124.33  2.8906915E-01
   7124.67  3.1925030E-01
   7125.00  3.4803916E-01
   7125.33  3.7127706E-01
   7125.67  3.8856422E-01
   7126.00  4.0097143E-01
   7126.33  4.0924476E-01
   7126.67  4.1425902E-01
   7127.00  4.1648110E-01
   7127.33  4.1691873E-01
   7127.67  4.1760008E-01
   7128.00  4.2014661E-01
   7128.33  4.2625506E-01
   7128.67  4.3599621E-01
   7129.00  4.4921319E-01
   7129.33  4.6571777E-01
   7129.67  4.8442805E-01
   7130.00  5.0484265E-01
   7130.33  5.2683384E-01
   7130.67  5.5001046E-01
   7131.00  5.7406413E-01
   7131.33  5.9864907E-01
   7131.67  6.2357131E-01
   7132.00  6.4906828E-01
   7132.33  6.7581641E-01
   7132.67  7.0412666E-01
   7133.00  7.3400308E-01
   7133.33  7.6476032E-01
   7133.67  7.9434334E-01
   7134.00  8.2001581E-01
   7134.33  8.3666372E-01
   7134.67  8.4124704E-01
   7135.00  8.3175777E-01
   7135.33  8.0746781E-01
   7135.67  7.7431831E-01
   7136.00  7.3718769E-01
   7136.33  7.0115528E-01
   7136.67  6.6921812E-01
   7137.00  6.4259897E-01
   7137.33  6.2222770E-01
   7137.67  6.0689020E-01
   7138.00  5.9584975E-01
   7138.33  5.8856841E-01
   7138.67  5.8370922E-01
   7139.00  5.8055751E-01
   7139.33  5.7851251E-01
   7139.67  5.7689391E-01
   7140.00  5.7539612E-01
   7140.33  5.7389413E-01
   7140.67  5.7251223E-01
   7141.00  5.7152510E-01
   7141.33  5.7148970E-01
   7141.67  5.7280755E-01
   7142.00  5.7588711E-01
   7142.33  5.8135491E-01
   7142.67  5.8910357E-01
   7143.00  5.9905894E-01
   7143.33  6.1110592E-01
   7143.67  6.2442138E-01
   7144.00  6.3837099E-01
   7144.33  6.5215060E-01
   7144.67  6.6504180E-01
   7145.00  6.7651137E-01
   7145.33  6.8587648E-01
   7145.67  6.9316405E-01
   7146.00  6.9839421E-01
   7146.33  7.0148625E-01
   7146.67  7.0293302E-01
   7147.00  7.0300337E-01
   7147.33  7.0187247E-01
   7147.67  6.9991551E-01
   7148.00  6.9725417E-01
   7148.33  6.9383534E-01
   7148.67  6.8967054E-01
   7149.00  6.8464986E-01
   7149.33  6.7852251E-01
   7149.67  6.7132809E-01
   7150.00  6.6305037E-01
   7150.33  6.5362255E-01
   7150.67  6.4331347E-01
   7151.00  6.3228711E-01
   7151.33  6.2071276E-01
   7151.67  6.0889685E-01
   7152.00  5.9704465E-01
   7152.33  5.8540138E-01
   7152.67  5.7413817E-01
   7153.00  5.6339379E-01
   7153.33  5.5337309E-01
   7153.67  5.4408233E-01
   7154.00  5.3556710E-01
   7154.33  5.2794508E-01
   7154.67  5.2110272E-01
   7155.00  5.1500835E-01
   7155.33  5.0969704E-01
   7155.67  5.0502137E-01
   7156.00  5.0092761E-01
   7156.33  4.9741964E-01
   7156.67  4.9437467E-01
   7157.00  4.9174510E-01
   7157.33  4.8951780E-01
   7157.67  4.8758131E-01
   7158.00  4.8586622E-01
   7158.33  4.8428835E-01
   7158.67  4.8271217E-01
   7159.00  4.8101995E-01
   7159.33  4.7903512E-01
   7159.67  4.7665405E-01
   7160.00  4.7377766E-01
   7160.33  4.7024816E-01
   7160.67  4.6609226E-01
   7161.00  4.6130849E-01
   7161.33  4.5586204E-01
   7161.67  4.4989166E-01
   7162.00  4.4346832E-01
   7162.33  4.3664254E-01
   7162.67  4.2956164E-01
   7163.00  4.2231921E-01
   7163.33  4.1501517E-01
   7163.67  4.0775221E-01
   7164.00  4.0060107E-01
   7164.33  3.9365296E-01
   7164.67  3.8693937E-01
   7165.00  3.8049550E-01
   7165.33  3.7438908E-01
   7165.67  3.6860486E-01
   7166.00  3.6315717E-01
   7166.33  3.5810157E-01
   7166.67  3.5340455E-01
   7167.00  3.4907536E-01
   7167.33  3.4517298E-01
   7167.67  3.4166204E-01
   7168.00  3.3855382E-01
   7168.33  3.3591498E-01
   7168.67  3.3370876E-01
   7169.00  3.3194766E-01
   7169.33  3.3069931E-01
   7169.67  3.2991072E-01
   7170.00  3.2957779E-01
   7170.33  3.2973735E-01
   7170.67  3.3029689E-01
   7171.00  3.3120091E-01
   7171.33  3.3237215E-01
   7171.67  3.3360286E-01
   7172.00  3.3467409E-01
