    FDMNES
    energy     <xanes>
   7097.00  4.5544512E-03
   7097.33  4.6509971E-03
   7097.67  4.7513525E-03
   7098.00  4.8557453E-03
   7098.33  4.9650073E-03
   7098.67  5.0789190E-03
   7099.00  5.1977833E-03
   7099.33  5.3226588E-03
   7099.67  5.4533128E-03
   7100.00  5.5901602E-03
   7100.33  5.7345820E-03
   7100.67  5.8863453E-03
   7101.00  6.0460363E-03
   7101.33  6.2155147E-03
   7101.67  6.3945766E-03
   7102.00  6.5840845E-03
   7102.33  6.7866421E-03
   7102.67  7.0021425E-03
   7103.00  7.2319196E-03
   7103.33  7.4798032E-03
   7103.67  7.7459440E-03
   7104.00  8.0325370E-03
   7104.33  8.3455846E-03
   7104.67  8.6858935E-03
   7105.00  9.0573722E-03
   7105.33  9.4702454E-03
   7105.67  9.9270451E-03
   7106.00  1.0435487E-02
   7106.33  1.1015041E-02
   7106.67  1.1673199E-02
   7107.00  1.2427451E-02
   7107.33  1.3321038E-02
   7107.67  1.4377991E-02
   7108.00  1.5646464E-02
   7108.33  1.7246267E-02
   7108.67  1.9271262E-02
   7109.00  2.1898437E-02
   7109.33  2.5593467E-02
   7109.67  3.0877586E-02
   7110.00  3.8767369E-02
   7110.33  5.2227392E-02
   7110.67  7.5105860E-02
   7111.00  1.1192064E-01
   7111.33  1.6080779E-01
   7111.67  1.8928985E-01
   7112.00  1.7339013E-01
   7112.33  1.3895591E-01
   7112.67  1.0974894E-01
   7113.00  8.9487898E-02
   7113.33  7.7465523E-02
   7113.67  7.0248521E-02
   7114.00  6.6431301E-02
   7114.33  6.5342581E-02
   7114.67  6.6174253E-02
   7115.00  6.8788666E-02
   7115.33  7.3464012E-02
   7115.67  8.0119289E-02
   7116.00  8.8962273E-02
   7116.33  1.0069292E-01
   7116.67  1.1552697E-01
   7117.00  1.3406958E-01
   7117.33  1.5794277E-01
   7117.67  1.8827664E-01
   7118.00  2.2698257E-01
   7118.33  2.7551005E-01
   7118.67  3.2580451E-01
   7119.00  3.6522993E-01
   7119.33  3.8294048E-01
   7119.67  3.8873026E-01
   7120.00  3.9167344E-01
   7120.33  3.9641848E-01
   7120.67  4.0258442E-01
   7121.00  4.0915983E-01
   7121.33  4.1535202E-01
   7121.67  4.2091979E-01
   7122.00  4.2584065E-01
   7122.33  4.3036921E-01
   7122.67  4.3522607E-01
   7123.00  4.4109987E-01
   7123.33  4.4875036E-01
   7123.67  4.5800264E-01
   7124.00  4.6838765E-01
   7124.33  4.7909885E-01
   7124.67  4.8946283E-01
   7125.00  4.9943016E-01
   7125.33  5.0962915E-01
   7125.67  5.2098179E-01
   7126.00  5.3402978E-01
   7126.33  5.4860307E-01
   7126.67  5.6308090E-01
   7127.00  5.7620674E-01
   7127.33  5.8736093E-01
   7127.67  5.9694362E-01
   7128.00  6.0480301E-01
   7128.33  6.0995774E-01
   7128.67  6.1184290E-01
   7129.00  6.0994462E-01
   7129.33  6.0401630E-01
   7129.67  5.9582681E-01
   7130.00  5.8697400E-01
   7130.33  5.7880804E-01
   7130.67  5.7136737E-01
   7131.00  5.6430772E-01
   7131.33  5.5727511E-01
   7131.67  5.4971695E-01
   7132.00  5.4098911E-01
   7132.33  5.3058683E-01
   7132.67  5.1925047E-01
   7133.00  5.0795952E-01
   7133.33  4.9807382E-01
   7133.67  4.9031288E-01
   7134.00  4.8504431E-01
   7134.33  4.8259857E-01
   7134.67  4.8235825E-01
   7135.00  4.8391728E-01
   7135.33  4.8690659E-01
   7135.67  4.9066489E-01
   7136.00  4.9482118E-01
   7136.33  4.9903665E-01
   7136.67  5.0304971E-01
   7137.00  5.0670354E-01
   7137.33  5.0981591E-01
   7137.67  5.1238300E-01
   7138.00  5.1439226E-01
   7138.33  5.1580771E-01
   7138.67  5.1676682E-01
   7139.00  5.1735786E-01
   7139.33  5.1767651E-01
   7139.67  5.1789505E-01
   7140.00  5.1814187E-01
   7140.33  5.1858810E-01
   7140.67  5.1934747E-01
   7141.00  5.2051337E-01
   7141.33  5.2220812E-01
   7141.67  5.2436926E-01
   7142.00  5.2693168E-01
   7142.33  5.2978570E-01
   7142.67  5.3270382E-01
   7143.00  5.3549603E-01
   7143.33  5.3792191E-01
   7143.67  5.3989222E-01
   7144.00  5.4136839E-01
   7144.33  5.4233410E-01
   7144.67  5.4296153E-01
   7145.00  5.4338835E-01
   7145.33  5.4378961E-01
   7145.67  5.4434024E-01
   7146.00  5.4516945E-01
   7146.33  5.4644834E-01
   7146.67  5.4821460E-01
   7147.00  5.5051829E-01
   7147.33  5.5346391E-01
   7147.67  5.5698991E-01
   7148.00  5.6108610E-01
   7148.33  5.6578346E-01
   7148.67  5.7095725E-01
   7149.00  5.7654000E-01
   7149.33  5.8246864E-01
   7149.67  5.8857964E-01
   7150.00  5.9474952E-01
   7150.33  6.0081265E-01
   7150.67  6.0662666E-01
   7151.00  6.1206538E-01
   7151.33  6.1693264E-01
   7151.67  6.2118124E-01
   7152.00  6.2473865E-01
   7152.33  6.2745892E-01
   7152.67  6.2941899E-01
   7153.00  6.3063474E-01
   7153.33  6.3106465E-01
   7153.67  6.3085582E-01
   7154.00  6.3007455E-01
   7154.33  6.2875383E-01
   7154.67  6.2704432E-01
   7155.00  6.2501362E-01
   7155.33  6.2269048E-01
   7155.67  6.2014858E-01
   7156.00  6.1740720E-01
   7156.33  6.1444605E-01
   7156.67  6.1127884E-01
   7157.00  6.0788915E-01
   7157.33  6.0422096E-01
   7157.67  6.0027710E-01
   7158.00  5.9603745E-01
   7158.33  5.9144803E-01
   7158.67  5.8654077E-01
   7159.00  5.8131568E-01
   7159.33  5.7574058E-01
   7159.67  5.6986749E-01
   7160.00  5.6371143E-01
   7160.33  5.5725953E-01
   7160.67  5.5056865E-01
   7161.00  5.4366200E-01
   7161.33  5.3654800E-01
   7161.67  5.2928455E-01
   7162.00  5.2190284E-01
   7162.33  5.1443186E-01
   7162.67  5.0692563E-01
   7163.00  4.9942547E-01
   7163.33  4.9198511E-01
   7163.67  4.8464158E-01
   7164.00  4.7742826E-01
   7164.33  4.7039747E-01
   7164.67  4.6355370E-01
   7165.00  4.5691252E-01
   7165.33  4.5051237E-01
   7165.67  4.4433313E-01
   7166.00  4.3837798E-01
   7166.33  4.3267690E-01
   7166.67  4.2720470E-01
   7167.00  4.2196750E-01
   7167.33  4.1700809E-01
   7167.67  4.1231277E-01
   7168.00  4.0790097E-01
   7168.33  4.0383732E-01
   7168.67  4.0010910E-01
   7169.00  3.9673688E-01
   7169.33  3.9378677E-01
   7169.67  3.9122307E-01
   7170.00  3.8904728E-01
   7170.33  3.8729841E-01
   7170.67  3.8590924E-01
   7171.00  3.8485281E-01
   7171.33  3.8411920E-01
   7171.67  3.8360571E-01
   7172.00  3.8323506E-01
