    FDMNES
    energy     <xanes>
   7097.00  4.3101098E-03
   7097.33  4.4012125E-03
   7097.67  4.4960265E-03
   7098.00  4.5947900E-03
   7098.33  4.6983423E-03
   7098.67  4.8064938E-03
   7099.00  4.9195703E-03
   7099.33  5.0386645E-03
   7099.67  5.1635858E-03
   7100.00  5.2947941E-03
   7100.33  5.4337565E-03
   7100.67  5.5803029E-03
   7101.00  5.7351078E-03
   7101.33  5.9002155E-03
   7101.67  6.0755258E-03
   7102.00  6.2620728E-03
   7102.33  6.4628401E-03
   7102.67  6.6779087E-03
   7103.00  6.9089549E-03
   7103.33  7.1605887E-03
   7103.67  7.4333382E-03
   7104.00  7.7301122E-03
   7104.33  8.0585686E-03
   7104.67  8.4203560E-03
   7105.00  8.8209785E-03
   7105.33  9.2744002E-03
   7105.67  9.7852765E-03
   7106.00  1.0365266E-02
   7106.33  1.1043198E-02
   7106.67  1.1832791E-02
   7107.00  1.2762847E-02
   7107.33  1.3904090E-02
   7107.67  1.5303046E-02
   7108.00  1.7048508E-02
   7108.33  1.9364380E-02
   7108.67  2.2455099E-02
   7109.00  2.6705889E-02
   7109.33  3.3175511E-02
   7109.67  4.3244136E-02
   7110.00  5.9672033E-02
   7110.33  9.0306456E-02
   7110.67  1.3951124E-01
   7111.00  1.8803900E-01
   7111.33  1.8399440E-01
   7111.67  1.6177831E-01
   7112.00  1.4978512E-01
   7112.33  1.5089850E-01
   7112.67  1.4427049E-01
   7113.00  1.2247562E-01
   7113.33  1.0256203E-01
   7113.67  8.8524776E-02
   7114.00  7.8332449E-02
   7114.33  7.0385444E-02
   7114.67  6.2072482E-02
   7115.00  5.4891939E-02
   7115.33  5.0565484E-02
   7115.67  4.8326315E-02
   7116.00  4.7614036E-02
   7116.33  4.8157529E-02
   7116.67  4.9584164E-02
   7117.00  5.1735526E-02
   7117.33  5.4527129E-02
   7117.67  5.7844902E-02
   7118.00  6.1801226E-02
   7118.33  6.6727264E-02
   7118.67  7.2683442E-02
   7119.00  7.9716549E-02
   7119.33  8.7937094E-02
   7119.67  9.7257253E-02
   7120.00  1.0787916E-01
   7120.33  1.2034474E-01
   7120.67  1.3481335E-01
   7121.00  1.5176751E-01
   7121.33  1.7253493E-01
   7121.67  1.9780530E-01
   7122.00  2.2847656E-01
   7122.33  2.6594643E-01
   7122.67  3.0913428E-01
   7123.00  3.5649642E-01
   7123.33  4.0470213E-01
   7123.67  4.4959107E-01
   7124.00  4.8895820E-01
   7124.33  5.2268555E-01
   7124.67  5.5385013E-01
   7125.00  5.8347417E-01
   7125.33  6.0944751E-01
   7125.67  6.2861822E-01
   7126.00  6.3844946E-01
   7126.33  6.3762351E-01
   7126.67  6.3069621E-01
   7127.00  6.2165868E-01
   7127.33  6.1347617E-01
   7127.67  6.0599475E-01
   7128.00  5.9807372E-01
   7128.33  5.8887884E-01
   7128.67  5.7917001E-01
   7129.00  5.7016854E-01
   7129.33  5.6380092E-01
   7129.67  5.6122811E-01
   7130.00  5.6329731E-01
   7130.33  5.7103174E-01
   7130.67  5.8364714E-01
   7131.00  6.0074420E-01
   7131.33  6.2219388E-01
   7131.67  6.4675168E-01
   7132.00  6.7356793E-01
   7132.33  7.0145832E-01
   7132.67  7.2873823E-01
   7133.00  7.5408085E-01
   7133.33  7.7591483E-01
   7133.67  7.9407711E-01
   7134.00  8.0869788E-01
   7134.33  8.2000511E-01
   7134.67  8.2865607E-01
   7135.00  8.3420792E-01
   7135.33  8.3497336E-01
   7135.67  8.3032605E-01
   7136.00  8.1984763E-01
   7136.33  8.0341188E-01
   7136.67  7.8318700E-01
   7137.00  7.6088061E-01
   7137.33  7.3843957E-01
   7137.67  7.1741971E-01
   7138.00  6.9865882E-01
   7138.33  6.8291055E-01
   7138.67  6.6978353E-01
   7139.00  6.5897902E-01
   7139.33  6.5022582E-01
   7139.67  6.4275643E-01
   7140.00  6.3617072E-01
   7140.33  6.3021264E-01
   7140.67  6.2464350E-01
   7141.00  6.1941994E-01
   7141.33  6.1460811E-01
   7141.67  6.1021054E-01
   7142.00  6.0626242E-01
   7142.33  6.0283982E-01
   7142.67  5.9987681E-01
   7143.00  5.9735229E-01
   7143.33  5.9528336E-01
   7143.67  5.9358845E-01
   7144.00  5.9224342E-01
   7144.33  5.9123831E-01
   7144.67  5.9047061E-01
   7145.00  5.8987818E-01
   7145.33  5.8939322E-01
   7145.67  5.8891721E-01
   7146.00  5.8837514E-01
   7146.33  5.8766694E-01
   7146.67  5.8674034E-01
   7147.00  5.8554502E-01
   7147.33  5.8399289E-01
   7147.67  5.8208232E-01
   7148.00  5.7977794E-01
   7148.33  5.7697618E-01
   7148.67  5.7369345E-01
   7149.00  5.6990859E-01
   7149.33  5.6554182E-01
   7149.67  5.6065594E-01
   7150.00  5.5526254E-01
   7150.33  5.4933038E-01
   7150.67  5.4296153E-01
   7151.00  5.3619956E-01
   7151.33  5.2905434E-01
   7151.67  5.2161616E-01
   7152.00  5.1391798E-01
   7152.33  5.0595532E-01
   7152.67  4.9776843E-01
   7153.00  4.8936226E-01
   7153.33  4.8071185E-01
   7153.67  4.7183310E-01
   7154.00  4.6270968E-01
   7154.33  4.5329046E-01
   7154.67  4.4359596E-01
   7155.00  4.3362251E-01
   7155.33  4.2333589E-01
   7155.67  4.1277786E-01
   7156.00  4.0196893E-01
   7156.33  3.9092454E-01
   7156.67  3.7972745E-01
   7157.00  3.6843744E-01
   7157.33  3.5713493E-01
   7157.67  3.4591552E-01
   7158.00  3.3486842E-01
   7158.33  3.2413784E-01
   7158.67  3.1379877E-01
   7159.00  3.0394386E-01
   7159.33  2.9474914E-01
   7159.67  2.8623639E-01
   7160.00  2.7848014E-01
   7160.33  2.7165907E-01
   7160.67  2.6572879E-01
   7161.00  2.6072958E-01
   7161.33  2.5681822E-01
   7161.67  2.5389859E-01
   7162.00  2.5198145E-01
   7162.33  2.5118652E-01
   7162.67  2.5136020E-01
   7163.00  2.5246428E-01
   7163.33  2.5455276E-01
   7163.67  2.5744316E-01
   7164.00  2.6105158E-01
   7164.33  2.6532959E-01
   7164.67  2.7006170E-01
   7165.00  2.7512780E-01
   7165.33  2.8042767E-01
   7165.67  2.8581832E-01
   7166.00  2.9120975E-01
   7166.33  2.9650560E-01
   7166.67  3.0165516E-01
   7167.00  3.0662569E-01
   7167.33  3.1137777E-01
   7167.67  3.1594295E-01
   7168.00  3.2034154E-01
   7168.33  3.2459203E-01
   7168.67  3.2875158E-01
   7169.00  3.3285494E-01
   7169.33  3.3693593E-01
   7169.67  3.4102471E-01
   7170.00  3.4513530E-01
   7170.33  3.4927219E-01
   7170.67  3.5341182E-01
   7171.00  3.5751000E-01
   7171.33  3.6144498E-01
   7171.67  3.6503204E-01
   7172.00  3.6799936E-01
