    FDMNES
    energy     <xanes>
   7097.00  4.9599310E-03
   7097.33  5.0750176E-03
   7097.67  5.1952439E-03
   7098.00  5.3209525E-03
   7098.33  5.4533244E-03
   7098.67  5.5921092E-03
   7099.00  5.7377717E-03
   7099.33  5.8918493E-03
   7099.67  6.0540829E-03
   7100.00  6.2251194E-03
   7100.33  6.4070111E-03
   7100.67  6.5995113E-03
   7101.00  6.8035480E-03
   7101.33  7.0219436E-03
   7101.67  7.2545118E-03
   7102.00  7.5026319E-03
   7102.33  7.7703275E-03
   7102.67  8.0575786E-03
   7103.00  8.3665268E-03
   7103.33  8.7031655E-03
   7103.67  9.0678826E-03
   7104.00  9.4641855E-03
   7104.33  9.9015076E-03
   7104.67  1.0381222E-02
   7105.00  1.0909477E-02
   7105.33  1.1502215E-02
   7105.67  1.2163287E-02
   7106.00  1.2904482E-02
   7106.33  1.3755447E-02
   7106.67  1.4726851E-02
   7107.00  1.5844283E-02
   7107.33  1.7170902E-02
   7107.67  1.8739216E-02
   7108.00  2.0615978E-02
   7108.33  2.2966897E-02
   7108.67  2.5914283E-02
   7109.00  2.9692315E-02
   7109.33  3.4917702E-02
   7109.67  4.2269459E-02
   7110.00  5.3082395E-02
   7110.33  7.1135151E-02
   7110.67  9.9778777E-02
   7111.00  1.3719778E-01
   7111.33  1.7113275E-01
   7111.67  2.0450941E-01
   7112.00  2.4021969E-01
   7112.33  2.6863285E-01
   7112.67  2.8843976E-01
   7113.00  3.0763834E-01
   7113.33  3.3554733E-01
   7113.67  3.7705661E-01
   7114.00  4.2341365E-01
   7114.33  4.2935096E-01
   7114.67  3.8200125E-01
   7115.00  3.1260403E-01
   7115.33  2.6175785E-01
   7115.67  2.3867463E-01
   7116.00  2.3728660E-01
   7116.33  2.3550453E-01
   7116.67  2.1620667E-01
   7117.00  1.8782356E-01
   7117.33  1.6529466E-01
   7117.67  1.5193411E-01
   7118.00  1.4628818E-01
   7118.33  1.4512106E-01
   7118.67  1.4388275E-01
   7119.00  1.4099092E-01
   7119.33  1.3749271E-01
   7119.67  1.3499091E-01
   7120.00  1.3359557E-01
   7120.33  1.3336886E-01
   7120.67  1.3400430E-01
   7121.00  1.3481804E-01
   7121.33  1.3535703E-01
   7121.67  1.3634808E-01
   7122.00  1.3892405E-01
   7122.33  1.4455356E-01
   7122.67  1.5339090E-01
   7123.00  1.6555951E-01
   7123.33  1.8177094E-01
   7123.67  2.0202623E-01
   7124.00  2.2635728E-01
   7124.33  2.5370872E-01
   7124.67  2.8041170E-01
   7125.00  3.0334952E-01
   7125.33  3.2176175E-01
   7125.67  3.3949808E-01
   7126.00  3.5868991E-01
   7126.33  3.7989980E-01
   7126.67  4.0261028E-01
   7127.00  4.2689367E-01
   7127.33  4.5314729E-01
   7127.67  4.8065104E-01
   7128.00  5.0812313E-01
   7128.33  5.3343016E-01
   7128.67  5.5600259E-01
   7129.00  5.7645836E-01
   7129.33  5.9590230E-01
   7129.67  6.1573513E-01
   7130.00  6.3721742E-01
   7130.33  6.6162986E-01
   7130.67  6.8770721E-01
   7131.00  7.1245899E-01
   7131.33  7.3191036E-01
   7131.67  7.4795451E-01
   7132.00  7.6406411E-01
   7132.33  7.8224426E-01
   7132.67  8.0101930E-01
   7133.00  8.1839860E-01
   7133.33  8.3192793E-01
   7133.67  8.4079601E-01
   7134.00  8.4456109E-01
   7134.33  8.4236765E-01
   7134.67  8.3441015E-01
   7135.00  8.1990525E-01
   7135.33  7.9723324E-01
   7135.67  7.6776127E-01
   7136.00  7.3300154E-01
   7136.33  6.9512678E-01
   7136.67  6.5714278E-01
   7137.00  6.2101995E-01
   7137.33  5.8885218E-01
   7137.67  5.6113382E-01
   7138.00  5.3817056E-01
   7138.33  5.2042800E-01
   7138.67  5.0678819E-01
   7139.00  4.9652712E-01
   7139.33  4.8895104E-01
   7139.67  4.8282960E-01
   7140.00  4.7754949E-01
   7140.33  4.7271596E-01
   7140.67  4.6810203E-01
   7141.00  4.6372776E-01
   7141.33  4.5979221E-01
   7141.67  4.5646219E-01
   7142.00  4.5393337E-01
   7142.33  4.5252001E-01
   7142.67  4.5220890E-01
   7143.00  4.5301591E-01
   7143.33  4.5499423E-01
   7143.67  4.5784095E-01
   7144.00  4.6134292E-01
   7144.33  4.6524169E-01
   7144.67  4.6916354E-01
   7145.00  4.7283631E-01
   7145.33  4.7594553E-01
   7145.67  4.7842561E-01
   7146.00  4.8029024E-01
   7146.33  4.8165211E-01
   7146.67  4.8288194E-01
   7147.00  4.8433058E-01
   7147.33  4.8650151E-01
   7147.67  4.8967135E-01
   7148.00  4.9405974E-01
   7148.33  4.9997562E-01
   7148.67  5.0728050E-01
   7149.00  5.1594317E-01
   7149.33  5.2603069E-01
   7149.67  5.3723246E-01
   7150.00  5.4938786E-01
   7150.33  5.6238954E-01
   7150.67  5.7591378E-01
   7151.00  5.8973140E-01
   7151.33  6.0353099E-01
   7151.67  6.1695936E-01
   7152.00  6.2968492E-01
   7152.33  6.4118535E-01
   7152.67  6.5124932E-01
   7153.00  6.5963996E-01
   7153.33  6.6595087E-01
   7153.67  6.7035752E-01
   7154.00  6.7290152E-01
   7154.33  6.7349687E-01
   7154.67  6.7254849E-01
   7155.00  6.7024055E-01
   7155.33  6.6664782E-01
   7155.67  6.6211651E-01
   7156.00  6.5680222E-01
   7156.33  6.5078312E-01
   7156.67  6.4427066E-01
   7157.00  6.3736378E-01
   7157.33  6.3012256E-01
   7157.67  6.2266417E-01
   7158.00  6.1504405E-01
   7158.33  6.0729868E-01
   7158.67  5.9948253E-01
   7159.00  5.9162675E-01
   7159.33  5.8376810E-01
   7159.67  5.7595258E-01
   7160.00  5.6823000E-01
   7160.33  5.6068373E-01
   7160.67  5.5336179E-01
   7161.00  5.4632514E-01
   7161.33  5.3968865E-01
   7161.67  5.3346853E-01
   7162.00  5.2770320E-01
   7162.33  5.2247811E-01
   7162.67  5.1773745E-01
   7163.00  5.1346984E-01
   7163.33  5.0970300E-01
   7163.67  5.0634094E-01
   7164.00  5.0334256E-01
   7164.33  5.0069622E-01
   7164.67  4.9830847E-01
   7165.00  4.9612946E-01
   7165.33  4.9411756E-01
   7165.67  4.9219189E-01
   7166.00  4.9029673E-01
   7166.33  4.8836195E-01
   7166.67  4.8632940E-01
   7167.00  4.8415093E-01
   7167.33  4.8175495E-01
   7167.67  4.7913239E-01
   7168.00  4.7627036E-01
   7168.33  4.7314346E-01
   7168.67  4.6980187E-01
   7169.00  4.6627544E-01
   7169.33  4.6259738E-01
   7169.67  4.5884920E-01
   7170.00  4.5509495E-01
   7170.33  4.5142375E-01
   7170.67  4.4790878E-01
   7171.00  4.4462254E-01
   7171.33  4.4169443E-01
   7171.67  4.3918881E-01
   7172.00  4.3720504E-01
