    FDMNES
    energy     <xanes>
   7097.00  4.2996051E-03
   7097.33  4.3936862E-03
   7097.67  4.4918962E-03
   7098.00  4.5945210E-03
   7098.33  4.7025284E-03
   7098.67  4.8157350E-03
   7099.00  4.9345369E-03
   7099.33  5.0602158E-03
   7099.67  5.1925939E-03
   7100.00  5.3322375E-03
   7100.33  5.4808962E-03
   7100.67  5.6384263E-03
   7101.00  5.8056664E-03
   7101.33  5.9850929E-03
   7101.67  6.1766580E-03
   7102.00  6.3816573E-03
   7102.33  6.6037510E-03
   7102.67  6.8431255E-03
   7103.00  7.1018856E-03
   7103.33  7.3857339E-03
   7103.67  7.6954107E-03
   7104.00  8.0345526E-03
   7104.33  8.4126418E-03
   7104.67  8.8317595E-03
   7105.00  9.2986903E-03
   7105.33  9.8305570E-03
   7105.67  1.0432894E-02
   7106.00  1.1119678E-02
   7106.33  1.1925346E-02
   7106.67  1.2865304E-02
   7107.00  1.3972437E-02
   7107.33  1.5327001E-02
   7107.67  1.6977456E-02
   7108.00  1.9017261E-02
   7108.33  2.1678099E-02
   7108.67  2.5149800E-02
   7109.00  2.9786425E-02
   7109.33  3.6523460E-02
   7109.67  4.6438813E-02
   7110.00  6.1637585E-02
   7110.33  8.8230072E-02
   7110.67  1.3342163E-01
   7111.00  2.0238660E-01
   7111.33  2.8279358E-01
   7111.67  3.3049224E-01
   7112.00  3.1780126E-01
   7112.33  2.6991892E-01
   7112.67  2.1962413E-01
   7113.00  1.7291278E-01
   7113.33  1.3622117E-01
   7113.67  1.1292122E-01
   7114.00  9.9795950E-02
   7114.33  8.7688414E-02
   7114.67  7.6451395E-02
   7115.00  6.9604191E-02
   7115.33  6.4288269E-02
   7115.67  5.7132708E-02
   7116.00  4.9940316E-02
   7116.33  4.4562772E-02
   7116.67  4.0731654E-02
   7117.00  3.8159632E-02
   7117.33  3.6693861E-02
   7117.67  3.5995634E-02
   7118.00  3.5904868E-02
   7118.33  3.6302627E-02
   7118.67  3.6997865E-02
   7119.00  3.7944550E-02
   7119.33  3.9238053E-02
   7119.67  4.0976521E-02
   7120.00  4.3294142E-02
   7120.33  4.6432747E-02
   7120.67  5.0449233E-02
   7121.00  5.5470229E-02
   7121.33  6.1759579E-02
   7121.67  6.9259871E-02
   7122.00  7.8093254E-02
   7122.33  8.8814232E-02
   7122.67  1.0171689E-01
   7123.00  1.1723998E-01
   7123.33  1.3617709E-01
   7123.67  1.5846018E-01
   7124.00  1.8443482E-01
   7124.33  2.1531954E-01
   7124.67  2.5135426E-01
   7125.00  2.9316679E-01
   7125.33  3.4175330E-01
   7125.67  3.9310537E-01
   7126.00  4.3913510E-01
   7126.33  4.6900306E-01
   7126.67  4.8548398E-01
   7127.00  4.9358990E-01
   7127.33  4.9620940E-01
   7127.67  4.9598732E-01
   7128.00  4.9572936E-01
   7128.33  5.0132385E-01
   7128.67  5.1860372E-01
   7129.00  5.5202185E-01
   7129.33  6.0453013E-01
   7129.67  6.6846620E-01
   7130.00  7.3481965E-01
   7130.33  7.9109539E-01
   7130.67  8.3010490E-01
   7131.00  8.4897558E-01
   7131.33  8.4816312E-01
   7131.67  8.3697099E-01
   7132.00  8.2171124E-01
   7132.33  8.0725283E-01
   7132.67  7.9527082E-01
   7133.00  7.8575963E-01
   7133.33  7.7845951E-01
   7133.67  7.7285787E-01
   7134.00  7.6901937E-01
   7134.33  7.6740799E-01
   7134.67  7.6771540E-01
   7135.00  7.6962442E-01
   7135.33  7.7298070E-01
   7135.67  7.7722673E-01
   7136.00  7.8182532E-01
   7136.33  7.8601570E-01
   7136.67  7.8919989E-01
   7137.00  7.9094201E-01
   7137.33  7.9065563E-01
   7137.67  7.8836161E-01
   7138.00  7.8400894E-01
   7138.33  7.7743123E-01
   7138.67  7.6908899E-01
   7139.00  7.5924520E-01
   7139.33  7.4811461E-01
   7139.67  7.3620758E-01
   7140.00  7.2381620E-01
   7140.33  7.1120533E-01
   7140.67  6.9862633E-01
   7141.00  6.8622899E-01
   7141.33  6.7418733E-01
   7141.67  6.6256258E-01
   7142.00  6.5141587E-01
   7142.33  6.4087681E-01
   7142.67  6.3095512E-01
   7143.00  6.2173406E-01
   7143.33  6.1342740E-01
   7143.67  6.0605428E-01
   7144.00  5.9971650E-01
   7144.33  5.9466341E-01
   7144.67  5.9085258E-01
   7145.00  5.8835910E-01
   7145.33  5.8736994E-01
   7145.67  5.8766595E-01
   7146.00  5.8915604E-01
   7146.33  5.9180595E-01
   7146.67  5.9526082E-01
   7147.00  5.9928033E-01
   7147.33  6.0357285E-01
   7147.67  6.0776242E-01
   7148.00  6.1155589E-01
   7148.33  6.1455701E-01
   7148.67  6.1660695E-01
   7149.00  6.1755803E-01
   7149.33  6.1717986E-01
   7149.67  6.1562164E-01
   7150.00  6.1291503E-01
   7150.33  6.0895964E-01
   7150.67  6.0392059E-01
   7151.00  5.9780659E-01
   7151.33  5.9048097E-01
   7151.67  5.8207795E-01
   7152.00  5.7259601E-01
   7152.33  5.6190254E-01
   7152.67  5.5016126E-01
   7153.00  5.3742273E-01
   7153.33  5.2365410E-01
   7153.67  5.0907738E-01
   7154.00  4.9380635E-01
   7154.33  4.7792267E-01
   7154.67  4.6165604E-01
   7155.00  4.4515312E-01
   7155.33  4.2858611E-01
   7155.67  4.1215141E-01
   7156.00  3.9602127E-01
   7156.33  3.8047219E-01
   7156.67  3.6566018E-01
   7157.00  3.5177447E-01
   7157.33  3.3916434E-01
   7157.67  3.2787021E-01
   7158.00  3.1802013E-01
   7158.33  3.0991351E-01
   7158.67  3.0340559E-01
   7159.00  2.9849166E-01
   7159.33  2.9530795E-01
   7159.67  2.9355912E-01
   7160.00  2.9312677E-01
   7160.33  2.9399171E-01
   7160.67  2.9583017E-01
   7161.00  2.9848419E-01
   7161.33  3.0185353E-01
   7161.67  3.0568410E-01
   7162.00  3.0983076E-01
   7162.33  3.1416389E-01
   7162.67  3.1853381E-01
   7163.00  3.2285042E-01
   7163.33  3.2701152E-01
   7163.67  3.3096854E-01
   7164.00  3.3468103E-01
   7164.33  3.3808756E-01
   7164.67  3.4121493E-01
   7165.00  3.4407037E-01
   7165.33  3.4664213E-01
   7165.67  3.4898835E-01
   7166.00  3.5113349E-01
   7166.33  3.5308429E-01
   7166.67  3.5488968E-01
   7167.00  3.5657290E-01
   7167.33  3.5815062E-01
   7167.67  3.5966570E-01
   7168.00  3.6114820E-01
   7168.33  3.6263805E-01
   7168.67  3.6417563E-01
   7169.00  3.6579520E-01
   7169.33  3.6754662E-01
   7169.67  3.6944226E-01
   7170.00  3.7149621E-01
   7170.33  3.7373083E-01
   7170.67  3.7610774E-01
   7171.00  3.7858832E-01
   7171.33  3.8108649E-01
   7171.67  3.8343295E-01
   7172.00  3.8540588E-01
