    FDMNES
    energy     <xanes>
   7097.00  4.2034211E-03
   7097.33  4.2858082E-03
   7097.67  4.3713285E-03
   7098.00  4.4601719E-03
   7098.33  4.5530280E-03
   7098.67  4.6497214E-03
   7099.00  4.7505082E-03
   7099.33  4.8562733E-03
   7099.67  4.9668353E-03
   7100.00  5.0825503E-03
   7100.33  5.2045862E-03
   7100.67  5.3327694E-03
   7101.00  5.4676123E-03
   7101.33  5.6107108E-03
   7101.67  5.7619301E-03
   7102.00  5.9220388E-03
   7102.33  6.0933124E-03
   7102.67  6.2757239E-03
   7103.00  6.4704872E-03
   7103.33  6.6810196E-03
   7103.67  6.9075648E-03
   7104.00  7.1521619E-03
   7104.33  7.4202899E-03
   7104.67  7.7128618E-03
   7105.00  8.0335805E-03
   7105.33  8.3919950E-03
   7105.67  8.7907536E-03
   7106.00  9.2372904E-03
   7106.33  9.7501794E-03
   7106.67  1.0337024E-02
   7107.00  1.1014913E-02
   7107.33  1.1825866E-02
   7107.67  1.2794054E-02
   7108.00  1.3967186E-02
   7108.33  1.5463989E-02
   7108.67  1.7380020E-02
   7109.00  1.9895488E-02
   7109.33  2.3489606E-02
   7109.67  2.8720170E-02
   7110.00  3.6682874E-02
   7110.33  5.0482517E-02
   7110.67  7.2710988E-02
   7111.00  1.0109343E-01
   7111.33  1.2711966E-01
   7111.67  1.5500604E-01
   7112.00  1.7805038E-01
   7112.33  1.8066837E-01
   7112.67  1.7040424E-01
   7113.00  1.4923146E-01
   7113.33  1.1920226E-01
   7113.67  9.5247304E-02
   7114.00  8.2817403E-02
   7114.33  7.8636021E-02
   7114.67  7.1431503E-02
   7115.00  5.9415017E-02
   7115.33  4.9084583E-02
   7115.67  4.2205685E-02
   7116.00  3.7963490E-02
   7116.33  3.5633088E-02
   7116.67  3.4454079E-02
   7117.00  3.4151647E-02
   7117.33  3.4593802E-02
   7117.67  3.5539933E-02
   7118.00  3.6882364E-02
   7118.33  3.8556731E-02
   7118.67  4.0479761E-02
   7119.00  4.2710039E-02
   7119.33  4.5498747E-02
   7119.67  4.9021784E-02
   7120.00  5.3467252E-02
   7120.33  5.9147022E-02
   7120.67  6.6040901E-02
   7121.00  7.4238394E-02
   7121.33  8.4170120E-02
   7121.67  9.6147142E-02
   7122.00  1.1078122E-01
   7122.33  1.2935611E-01
   7122.67  1.5244673E-01
   7123.00  1.8103611E-01
   7123.33  2.1693881E-01
   7123.67  2.5934874E-01
   7124.00  3.0588875E-01
   7124.33  3.4894916E-01
   7124.67  3.8127102E-01
   7125.00  4.0322511E-01
   7125.33  4.2368430E-01
   7125.67  4.5060596E-01
   7126.00  4.8367378E-01
   7126.33  5.1526738E-01
   7126.67  5.3817600E-01
   7127.00  5.5371878E-01
   7127.33  5.7030283E-01
   7127.67  5.9356852E-01
   7128.00  6.2468150E-01
   7128.33  6.6487483E-01
   7128.67  7.1435934E-01
   7129.00  7.7448001E-01
   7129.33  8.4475839E-01
   7129.67  9.1638407E-01
   7130.00  9.7909374E-01
   7130.33  1.0182733E+00
   7130.67  1.0288319E+00
   7131.00  1.0099732E+00
   7131.33  9.6473418E-01
   7131.67  9.0674032E-01
   7132.00  8.4595991E-01
   7132.33  7.9250645E-01
   7132.67  7.5056717E-01
   7133.00  7.2076981E-01
   7133.33  7.0126053E-01
   7133.67  6.8636586E-01
   7134.00  6.7417228E-01
   7134.33  6.6646068E-01
   7134.67  6.6494059E-01
   7135.00  6.6996591E-01
   7135.33  6.8080746E-01
   7135.67  6.9521973E-01
   7136.00  7.1278282E-01
   7136.33  7.3467288E-01
   7136.67  7.6099986E-01
   7137.00  7.9043074E-01
   7137.33  8.1747167E-01
   7137.67  8.3491486E-01
   7138.00  8.3857537E-01
   7138.33  8.2789043E-01
   7138.67  8.0963011E-01
   7139.00  7.8821423E-01
   7139.33  7.6682262E-01
   7139.67  7.4672437E-01
   7140.00  7.2815614E-01
   7140.33  7.1120460E-01
   7140.67  6.9552839E-01
   7141.00  6.8103522E-01
   7141.33  6.6781673E-01
   7141.67  6.5568942E-01
   7142.00  6.4460917E-01
   7142.33  6.3464782E-01
   7142.67  6.2562408E-01
   7143.00  6.1747464E-01
   7143.33  6.1018683E-01
   7143.67  6.0351330E-01
   7144.00  5.9730025E-01
   7144.33  5.9140289E-01
   7144.67  5.8563243E-01
   7145.00  5.7988807E-01
   7145.33  5.7407784E-01
   7145.67  5.6815007E-01
   7146.00  5.6206699E-01
   7146.33  5.5576854E-01
   7146.67  5.4924767E-01
   7147.00  5.4248212E-01
   7147.33  5.3541973E-01
   7147.67  5.2808030E-01
   7148.00  5.2045438E-01
   7148.33  5.1249720E-01
   7148.67  5.0424276E-01
   7149.00  4.9569497E-01
   7149.33  4.8683398E-01
   7149.67  4.7772470E-01
   7150.00  4.6840820E-01
   7150.33  4.5893529E-01
   7150.67  4.4941437E-01
   7151.00  4.3993859E-01
   7151.33  4.3064130E-01
   7151.67  4.2160093E-01
   7152.00  4.1287130E-01
   7152.33  4.0450372E-01
   7152.67  3.9641222E-01
   7153.00  3.8852181E-01
   7153.33  3.8073857E-01
   7153.67  3.7295154E-01
   7154.00  3.6509470E-01
   7154.33  3.5710636E-01
   7154.67  3.4898658E-01
   7155.00  3.4074376E-01
   7155.33  3.3239214E-01
   7155.67  3.2397289E-01
   7156.00  3.1550185E-01
   7156.33  3.0698016E-01
   7156.67  2.9842174E-01
   7157.00  2.8984913E-01
   7157.33  2.8133967E-01
   7157.67  2.7302274E-01
   7158.00  2.6505834E-01
   7158.33  2.5773284E-01
   7158.67  2.5119948E-01
   7159.00  2.4564019E-01
   7159.33  2.4138113E-01
   7159.67  2.3841399E-01
   7160.00  2.3681311E-01
   7160.33  2.3678568E-01
   7160.67  2.3812860E-01
   7161.00  2.4077589E-01
   7161.33  2.4476446E-01
   7161.67  2.4980905E-01
   7162.00  2.5578316E-01
   7162.33  2.6263308E-01
   7162.67  2.7011372E-01
   7163.00  2.7809407E-01
   7163.33  2.8648284E-01
   7163.67  2.9514694E-01
   7164.00  3.0402819E-01
   7164.33  3.1307832E-01
   7164.67  3.2220986E-01
   7165.00  3.3136453E-01
   7165.33  3.4047116E-01
   7165.67  3.4947201E-01
   7166.00  3.5831652E-01
   7166.33  3.6692653E-01
   7166.67  3.7528440E-01
   7167.00  3.8335969E-01
   7167.33  3.9108721E-01
   7167.67  3.9848739E-01
   7168.00  4.0554981E-01
   7168.33  4.1222450E-01
   7168.67  4.1855164E-01
   7169.00  4.2453045E-01
   7169.33  4.3011710E-01
   7169.67  4.3535407E-01
   7170.00  4.4023899E-01
   7170.33  4.4472248E-01
   7170.67  4.4884059E-01
   7171.00  4.5258005E-01
   7171.33  4.5585900E-01
   7171.67  4.5866437E-01
   7172.00  4.6090931E-01
