    FDMNES
    energy     <xanes>
   7097.00  5.6537119E-03
   7097.33  5.8077990E-03
   7097.67  5.9697885E-03
   7098.00  6.1402636E-03
   7098.33  6.3211339E-03
   7098.67  6.5120898E-03
   7099.00  6.7139387E-03
   7099.33  6.9292276E-03
   7099.67  7.1576543E-03
   7100.00  7.4003672E-03
   7100.33  7.6608533E-03
   7100.67  7.9388662E-03
   7101.00  8.2360895E-03
   7101.33  8.5574470E-03
   7101.67  8.9028524E-03
   7102.00  9.2748648E-03
   7102.33  9.6806963E-03
   7102.67  1.0120648E-02
   7103.00  1.0598784E-02
   7103.33  1.1126145E-02
   7103.67  1.1703933E-02
   7104.00  1.2338947E-02
   7104.33  1.3049047E-02
   7104.67  1.3837545E-02
   7105.00  1.4716599E-02
   7105.33  1.5717167E-02
   7105.67  1.6847774E-02
   7106.00  1.8132092E-02
   7106.33  1.9628894E-02
   7106.67  2.1360749E-02
   7107.00  2.3379356E-02
   7107.33  2.5811133E-02
   7107.67  2.8722081E-02
   7108.00  3.2245138E-02
   7108.33  3.6706774E-02
   7108.67  4.2339736E-02
   7109.00  4.9583519E-02
   7109.33  5.9567190E-02
   7109.67  7.3433148E-02
   7110.00  9.3377949E-02
   7110.33  1.2562247E-01
   7110.67  1.7784391E-01
   7111.00  2.5974740E-01
   7111.33  3.7536241E-01
   7111.67  4.9417944E-01
   7112.00  5.9801829E-01
   7112.33  7.0084328E-01
   7112.67  7.7884422E-01
   7113.00  7.8298674E-01
   7113.33  6.9831835E-01
   7113.67  5.8118007E-01
   7114.00  4.6556068E-01
   7114.33  3.7407220E-01
   7114.67  3.0687192E-01
   7115.00  2.5950548E-01
   7115.33  2.2795269E-01
   7115.67  2.0640507E-01
   7116.00  1.9280874E-01
   7116.33  1.8627957E-01
   7116.67  1.8377350E-01
   7117.00  1.8247728E-01
   7117.33  1.7913235E-01
   7117.67  1.7296088E-01
   7118.00  1.6510916E-01
   7118.33  1.5769729E-01
   7118.67  1.5187523E-01
   7119.00  1.4766254E-01
   7119.33  1.4402542E-01
   7119.67  1.3943937E-01
   7120.00  1.3391888E-01
   7120.33  1.2922608E-01
   7120.67  1.2659668E-01
   7121.00  1.2616497E-01
   7121.33  1.2767507E-01
   7121.67  1.3027699E-01
   7122.00  1.3354758E-01
   7122.33  1.3761295E-01
   7122.67  1.4288725E-01
   7123.00  1.4979942E-01
   7123.33  1.5880803E-01
   7123.67  1.6949701E-01
   7124.00  1.8151292E-01
   7124.33  1.9438631E-01
   7124.67  2.0735051E-01
   7125.00  2.2001005E-01
   7125.33  2.3230451E-01
   7125.67  2.4456988E-01
   7126.00  2.5706675E-01
   7126.33  2.6995011E-01
   7126.67  2.8304934E-01
   7127.00  2.9624367E-01
   7127.33  3.0996038E-01
   7127.67  3.2541620E-01
   7128.00  3.4418636E-01
   7128.33  3.6845034E-01
   7128.67  3.9825257E-01
   7129.00  4.3308523E-01
   7129.33  4.7151213E-01
   7129.67  5.1075997E-01
   7130.00  5.4925347E-01
   7130.33  5.8598843E-01
   7130.67  6.2117313E-01
   7131.00  6.5497901E-01
   7131.33  6.8719346E-01
   7131.67  7.1765897E-01
   7132.00  7.4595406E-01
   7132.33  7.7105842E-01
   7132.67  7.9219903E-01
   7133.00  8.0792594E-01
   7133.33  8.1552462E-01
   7133.67  8.1447765E-01
   7134.00  8.0385213E-01
   7134.33  7.8219623E-01
   7134.67  7.5257210E-01
   7135.00  7.1780444E-01
   7135.33  6.8056547E-01
   7135.67  6.4281824E-01
   7136.00  6.0530713E-01
   7136.33  5.6897417E-01
   7136.67  5.3482755E-01
   7137.00  5.0401091E-01
   7137.33  4.7828006E-01
   7137.67  4.5787887E-01
   7138.00  4.4314910E-01
   7138.33  4.3481022E-01
   7138.67  4.3176648E-01
   7139.00  4.3339911E-01
   7139.33  4.3919516E-01
   7139.67  4.4758237E-01
   7140.00  4.5764003E-01
   7140.33  4.6858745E-01
   7140.67  4.7975287E-01
   7141.00  4.9090142E-01
   7141.33  5.0198835E-01
   7141.67  5.1312807E-01
   7142.00  5.2444332E-01
   7142.33  5.3607677E-01
   7142.67  5.4803042E-01
   7143.00  5.6028239E-01
   7143.33  5.7279693E-01
   7143.67  5.8546482E-01
   7144.00  5.9822340E-01
   7144.33  6.1102467E-01
   7144.67  6.2383453E-01
   7145.00  6.3664237E-01
   7145.33  6.4944593E-01
   7145.67  6.6224873E-01
   7146.00  6.7505523E-01
   7146.33  6.8787118E-01
   7146.67  7.0069256E-01
   7147.00  7.1350569E-01
   7147.33  7.2627336E-01
   7147.67  7.3894690E-01
   7148.00  7.5146159E-01
   7148.33  7.6369203E-01
   7148.67  7.7555266E-01
   7149.00  7.8691996E-01
   7149.33  7.9754438E-01
   7149.67  8.0732255E-01
   7150.00  8.1609187E-01
   7150.33  8.2353060E-01
   7150.67  8.2961467E-01
   7151.00  8.3420144E-01
   7151.33  8.3694719E-01
   7151.67  8.3795653E-01
   7152.00  8.3717941E-01
   7152.33  8.3437603E-01
   7152.67  8.2980252E-01
   7153.00  8.2352050E-01
   7153.33  8.1544146E-01
   7153.67  8.0591253E-01
   7154.00  7.9508245E-01
   7154.33  7.8300226E-01
   7154.67  7.7001017E-01
   7155.00  7.5627980E-01
   7155.33  7.4194326E-01
   7155.67  7.2725885E-01
   7156.00  7.1237990E-01
   7156.33  6.9746555E-01
   7156.67  6.8266473E-01
   7157.00  6.6808601E-01
   7157.33  6.5387499E-01
   7157.67  6.4007316E-01
   7158.00  6.2673479E-01
   7158.33  6.1396695E-01
   7158.67  6.0172957E-01
   7159.00  5.9002766E-01
   7159.33  5.7891725E-01
   7159.67  5.6831007E-01
   7160.00  5.5817850E-01
   7160.33  5.4853514E-01
   7160.67  5.3928078E-01
   7161.00  5.3037869E-01
   7161.33  5.2182790E-01
   7161.67  5.1355235E-01
   7162.00  5.0552259E-01
   7162.33  4.9773669E-01
   7162.67  4.9014680E-01
   7163.00  4.8274170E-01
   7163.33  4.7553612E-01
   7163.67  4.6850610E-01
   7164.00  4.6165397E-01
   7164.33  4.5500759E-01
   7164.67  4.4854870E-01
   7165.00  4.4227811E-01
   7165.33  4.3621190E-01
   7165.67  4.3031318E-01
   7166.00  4.2456426E-01
   7166.33  4.1895252E-01
   7166.67  4.1343030E-01
   7167.00  4.0797028E-01
   7167.33  4.0254771E-01
   7167.67  3.9713235E-01
   7168.00  3.9170738E-01
   7168.33  3.8626530E-01
   7168.67  3.8081947E-01
   7169.00  3.7539059E-01
   7169.33  3.7001654E-01
   7169.67  3.6472836E-01
   7170.00  3.5956004E-01
   7170.33  3.5457391E-01
   7170.67  3.4979852E-01
   7171.00  3.4528658E-01
   7171.33  3.4117000E-01
   7171.67  3.3754997E-01
   7172.00  3.3460642E-01
