    FDMNES
    energy     <xanes>
   7097.00  5.1323563E-03
   7097.33  5.2564678E-03
   7097.67  5.3862642E-03
   7098.00  5.5221264E-03
   7098.33  5.6653631E-03
   7098.67  5.8156982E-03
   7099.00  5.9736465E-03
   7099.33  6.1409085E-03
   7099.67  6.3171949E-03
   7100.00  6.5032177E-03
   7100.33  6.7012385E-03
   7100.67  6.9109743E-03
   7101.00  7.1334370E-03
   7101.33  7.3717174E-03
   7101.67  7.6255825E-03
   7102.00  7.8965180E-03
   7102.33  8.1888857E-03
   7102.67  8.5025995E-03
   7103.00  8.8399258E-03
   7103.33  9.2072641E-03
   7103.67  9.6048903E-03
   7104.00  1.0036428E-02
   7104.33  1.0511726E-02
   7104.67  1.1031921E-02
   7105.00  1.1603155E-02
   7105.33  1.2241542E-02
   7105.67  1.2950305E-02
   7106.00  1.3740687E-02
   7106.33  1.4641266E-02
   7106.67  1.5660715E-02
   7107.00  1.6821902E-02
   7107.33  1.8181607E-02
   7107.67  1.9764729E-02
   7108.00  2.1625666E-02
   7108.33  2.3898877E-02
   7108.67  2.6669755E-02
   7109.00  3.0106162E-02
   7109.33  3.4640739E-02
   7109.67  4.0693041E-02
   7110.00  4.9085202E-02
   7110.33  6.2117672E-02
   7110.67  8.2029288E-02
   7111.00  1.0922752E-01
   7111.33  1.3807897E-01
   7111.67  1.6775850E-01
   7112.00  2.0073858E-01
   7112.33  2.3928973E-01
   7112.67  2.9937706E-01
   7113.00  4.0013705E-01
   7113.33  5.5059521E-01
   7113.67  6.9690131E-01
   7114.00  7.6838446E-01
   7114.33  6.9692542E-01
   7114.67  5.5432059E-01
   7115.00  4.1977293E-01
   7115.33  3.2871386E-01
   7115.67  2.6899921E-01
   7116.00  2.3122631E-01
   7116.33  2.0991101E-01
   7116.67  1.9920554E-01
   7117.00  1.9663927E-01
   7117.33  1.9847161E-01
   7117.67  1.9780578E-01
   7118.00  1.9065381E-01
   7118.33  1.7754058E-01
   7118.67  1.6350668E-01
   7119.00  1.5119502E-01
   7119.33  1.4188038E-01
   7119.67  1.3486057E-01
   7120.00  1.2945633E-01
   7120.33  1.2501301E-01
   7120.67  1.2105219E-01
   7121.00  1.1777814E-01
   7121.33  1.1599061E-01
   7121.67  1.1588572E-01
   7122.00  1.1729442E-01
   7122.33  1.1990834E-01
   7122.67  1.2324302E-01
   7123.00  1.2715851E-01
   7123.33  1.3165907E-01
   7123.67  1.3663061E-01
   7124.00  1.4204082E-01
   7124.33  1.4800662E-01
   7124.67  1.5469215E-01
   7125.00  1.6240537E-01
   7125.33  1.7165371E-01
   7125.67  1.8245739E-01
   7126.00  1.9491740E-01
   7126.33  2.0937840E-01
   7126.67  2.2563519E-01
   7127.00  2.4355986E-01
   7127.33  2.6314327E-01
   7127.67  2.8411203E-01
   7128.00  3.0651986E-01
   7128.33  3.3079515E-01
   7128.67  3.5706538E-01
   7129.00  3.8562796E-01
   7129.33  4.1729160E-01
   7129.67  4.5249602E-01
   7130.00  4.9201049E-01
   7130.33  5.3693745E-01
   7130.67  5.8673591E-01
   7131.00  6.4184918E-01
   7131.33  7.0443277E-01
   7131.67  7.7402711E-01
   7132.00  8.4817648E-01
   7132.33  9.2024083E-01
   7132.67  9.8330651E-01
   7133.00  1.0337762E+00
   7133.33  1.0694760E+00
   7133.67  1.0926228E+00
   7134.00  1.1024206E+00
   7134.33  1.0947446E+00
   7134.67  1.0705153E+00
   7135.00  1.0312657E+00
   7135.33  9.7973758E-01
   7135.67  9.2210166E-01
   7136.00  8.6191274E-01
   7136.33  8.0227744E-01
   7136.67  7.4515826E-01
   7137.00  6.9172358E-01
   7137.33  6.4349100E-01
   7137.67  6.0051836E-01
   7138.00  5.6316686E-01
   7138.33  5.3238177E-01
   7138.67  5.0741790E-01
   7139.00  4.8807282E-01
   7139.33  4.7455640E-01
   7139.67  4.6562513E-01
   7140.00  4.6070320E-01
   7140.33  4.5953867E-01
   7140.67  4.6111730E-01
   7141.00  4.6501320E-01
   7141.33  4.7107048E-01
   7141.67  4.7874225E-01
   7142.00  4.8781559E-01
   7142.33  4.9822429E-01
   7142.67  5.0961682E-01
   7143.00  5.2181466E-01
   7143.33  5.3466756E-01
   7143.67  5.4784989E-01
   7144.00  5.6110963E-01
   7144.33  5.7407691E-01
   7144.67  5.8641807E-01
   7145.00  5.9782581E-01
   7145.33  6.0783483E-01
   7145.67  6.1636670E-01
   7146.00  6.2328532E-01
   7146.33  6.2828788E-01
   7146.67  6.3156171E-01
   7147.00  6.3312718E-01
   7147.33  6.3283880E-01
   7147.67  6.3099862E-01
   7148.00  6.2771805E-01
   7148.33  6.2299834E-01
   7148.67  6.1718908E-01
   7149.00  6.1047041E-01
   7149.33  6.0297872E-01
   7149.67  5.9502824E-01
   7150.00  5.8681950E-01
   7150.33  5.7858931E-01
   7150.67  5.7055942E-01
   7151.00  5.6289637E-01
   7151.33  5.5584759E-01
   7151.67  5.4950638E-01
   7152.00  5.4399018E-01
   7152.33  5.3952927E-01
   7152.67  5.3609663E-01
   7153.00  5.3375182E-01
   7153.33  5.3268463E-01
   7153.67  5.3277649E-01
   7154.00  5.3402573E-01
   7154.33  5.3654243E-01
   7154.67  5.4011712E-01
   7155.00  5.4465178E-01
   7155.33  5.5008030E-01
   7155.67  5.5608501E-01
   7156.00  5.6244176E-01
   7156.33  5.6886940E-01
   7156.67  5.7506654E-01
   7157.00  5.8080200E-01
   7157.33  5.8577287E-01
   7157.67  5.8991969E-01
   7158.00  5.9318131E-01
   7158.33  5.9544032E-01
   7158.67  5.9685431E-01
   7159.00  5.9748735E-01
   7159.33  5.9733650E-01
   7159.67  5.9656864E-01
   7160.00  5.9524148E-01
   7160.33  5.9334270E-01
   7160.67  5.9096888E-01
   7161.00  5.8813255E-01
   7161.33  5.8477622E-01
   7161.67  5.8095711E-01
   7162.00  5.7667803E-01
   7162.33  5.7188610E-01
   7162.67  5.6664847E-01
   7163.00  5.6098460E-01
   7163.33  5.5487995E-01
   7163.67  5.4842957E-01
   7164.00  5.4168008E-01
   7164.33  5.3465959E-01
   7164.67  5.2745731E-01
   7165.00  5.2012204E-01
   7165.33  5.1269538E-01
   7165.67  5.0523318E-01
   7166.00  4.9777096E-01
   7166.33  4.9035075E-01
   7166.67  4.8300130E-01
   7167.00  4.7574938E-01
   7167.33  4.6863915E-01
   7167.67  4.6167959E-01
   7168.00  4.5489026E-01
   7168.33  4.4831750E-01
   7168.67  4.4196123E-01
   7169.00  4.3584608E-01
   7169.33  4.3003277E-01
   7169.67  4.2450985E-01
   7170.00  4.1929661E-01
   7170.33  4.1445995E-01
   7170.67  4.0998834E-01
   7171.00  4.0591499E-01
   7171.33  4.0234939E-01
   7171.67  3.9931575E-01
   7172.00  3.9690455E-01
