    FDMNES
    energy     <xanes>
   7097.00  5.2064802E-03
   7097.33  5.3357027E-03
   7097.67  5.4710312E-03
   7098.00  5.6128949E-03
   7098.33  5.7627339E-03
   7098.67  5.9202821E-03
   7099.00  6.0861306E-03
   7099.33  6.2621837E-03
   7099.67  6.4481778E-03
   7100.00  6.6449513E-03
   7100.33  6.8550930E-03
   7100.67  7.0783790E-03
   7101.00  7.3160379E-03
   7101.33  7.5717086E-03
   7101.67  7.8452876E-03
   7102.00  8.1386488E-03
   7102.33  8.4571166E-03
   7102.67  8.8008881E-03
   7103.00  9.1729621E-03
   7103.33  9.5815226E-03
   7103.67  1.0027484E-02
   7104.00  1.0515937E-02
   7104.33  1.1060264E-02
   7104.67  1.1663115E-02
   7105.00  1.2333809E-02
   7105.33  1.3096037E-02
   7105.67  1.3956911E-02
   7106.00  1.4935255E-02
   7106.33  1.6077720E-02
   7106.67  1.7404138E-02
   7107.00  1.8958034E-02
   7107.33  2.0846055E-02
   7107.67  2.3130809E-02
   7108.00  2.5934815E-02
   7108.33  2.9563037E-02
   7108.67  3.4264677E-02
   7109.00  4.0509096E-02
   7109.33  4.9548693E-02
   7109.67  6.2862179E-02
   7110.00  8.3369344E-02
   7110.33  1.1953075E-01
   7110.67  1.7985238E-01
   7111.00  2.6167409E-01
   7111.33  3.1795090E-01
   7111.67  3.2972649E-01
   7112.00  3.2825823E-01
   7112.33  3.5121766E-01
   7112.67  3.9626308E-01
   7113.00  4.3102808E-01
   7113.33  4.1416630E-01
   7113.67  3.6480012E-01
   7114.00  3.0692122E-01
   7114.33  2.5975432E-01
   7114.67  2.2530916E-01
   7115.00  1.9356898E-01
   7115.33  1.6086293E-01
   7115.67  1.3433035E-01
   7116.00  1.1621836E-01
   7116.33  1.0562185E-01
   7116.67  9.8913937E-02
   7117.00  9.4587625E-02
   7117.33  9.2700102E-02
   7117.67  9.3302202E-02
   7118.00  9.6504054E-02
   7118.33  1.0229831E-01
   7118.67  1.0947904E-01
   7119.00  1.1696205E-01
   7119.33  1.2377416E-01
   7119.67  1.3028231E-01
   7120.00  1.3731411E-01
   7120.33  1.4480724E-01
   7120.67  1.5209301E-01
   7121.00  1.5998753E-01
   7121.33  1.7134393E-01
   7121.67  1.8863116E-01
   7122.00  2.1359893E-01
   7122.33  2.4721387E-01
   7122.67  2.8513912E-01
   7123.00  3.2344177E-01
   7123.33  3.6234499E-01
   7123.67  4.0609246E-01
   7124.00  4.5689030E-01
   7124.33  5.1448290E-01
   7124.67  5.7415253E-01
   7125.00  6.3121665E-01
   7125.33  6.7974300E-01
   7125.67  7.1792015E-01
   7126.00  7.4521954E-01
   7126.33  7.6083172E-01
   7126.67  7.6697841E-01
   7127.00  7.6479732E-01
   7127.33  7.5544176E-01
   7127.67  7.4224023E-01
   7128.00  7.2755608E-01
   7128.33  7.1372340E-01
   7128.67  7.0144765E-01
   7129.00  6.9043496E-01
   7129.33  6.8043613E-01
   7129.67  6.7113060E-01
   7130.00  6.6226230E-01
   7130.33  6.5392368E-01
   7130.67  6.4653724E-01
   7131.00  6.4047520E-01
   7131.33  6.3609476E-01
   7131.67  6.3328343E-01
   7132.00  6.3209014E-01
   7132.33  6.3254023E-01
   7132.67  6.3386140E-01
   7133.00  6.3521752E-01
   7133.33  6.3537936E-01
   7133.67  6.3368091E-01
   7134.00  6.3000355E-01
   7134.33  6.2477458E-01
   7134.67  6.1911407E-01
   7135.00  6.1364819E-01
   7135.33  6.0878094E-01
   7135.67  6.0457511E-01
   7136.00  6.0115078E-01
   7136.33  5.9880508E-01
   7136.67  5.9754220E-01
   7137.00  5.9733852E-01
   7137.33  5.9804791E-01
   7137.67  5.9906586E-01
   7138.00  5.9981224E-01
   7138.33  5.9949763E-01
   7138.67  5.9779046E-01
   7139.00  5.9458909E-01
   7139.33  5.8994349E-01
   7139.67  5.8448594E-01
   7140.00  5.7867918E-01
   7140.33  5.7299213E-01
   7140.67  5.6773234E-01
   7141.00  5.6305172E-01
   7141.33  5.5906091E-01
   7141.67  5.5558677E-01
   7142.00  5.5247392E-01
   7142.33  5.4952468E-01
   7142.67  5.4652813E-01
   7143.00  5.4338816E-01
   7143.33  5.4008691E-01
   7143.67  5.3673527E-01
   7144.00  5.3344911E-01
   7144.33  5.3038554E-01
   7144.67  5.2761702E-01
   7145.00  5.2518956E-01
   7145.33  5.2316699E-01
   7145.67  5.2150194E-01
   7146.00  5.2018388E-01
   7146.33  5.1923282E-01
   7146.67  5.1857376E-01
   7147.00  5.1816271E-01
   7147.33  5.1795104E-01
   7147.67  5.1782586E-01
   7148.00  5.1769615E-01
   7148.33  5.1743026E-01
   7148.67  5.1692112E-01
   7149.00  5.1606426E-01
   7149.33  5.1468714E-01
   7149.67  5.1274713E-01
   7150.00  5.1017465E-01
   7150.33  5.0682999E-01
   7150.67  5.0278434E-01
   7151.00  4.9806141E-01
   7151.33  4.9265284E-01
   7151.67  4.8673930E-01
   7152.00  4.8043190E-01
   7152.33  4.7384149E-01
   7152.67  4.6714182E-01
   7153.00  4.6044501E-01
   7153.33  4.5387968E-01
   7153.67  4.4751748E-01
   7154.00  4.4139712E-01
   7154.33  4.3555798E-01
   7154.67  4.2994563E-01
   7155.00  4.2452057E-01
   7155.33  4.1923704E-01
   7155.67  4.1401124E-01
   7156.00  4.0878663E-01
   7156.33  4.0349814E-01
   7156.67  3.9810763E-01
   7157.00  3.9258818E-01
   7157.33  3.8690484E-01
   7157.67  3.8107666E-01
   7158.00  3.7511868E-01
   7158.33  3.6905143E-01
   7158.67  3.6293516E-01
   7159.00  3.5682234E-01
   7159.33  3.5079372E-01
   7159.67  3.4491905E-01
   7160.00  3.3927040E-01
   7160.33  3.3396918E-01
   7160.67  3.2904769E-01
   7161.00  3.2455362E-01
   7161.33  3.2058495E-01
   7161.67  3.1710902E-01
   7162.00  3.1413821E-01
   7162.33  3.1174007E-01
   7162.67  3.0984553E-01
   7163.00  3.0844637E-01
   7163.33  3.0759190E-01
   7163.67  3.0720926E-01
   7164.00  3.0728710E-01
   7164.33  3.0786714E-01
   7164.67  3.0887895E-01
   7165.00  3.1030993E-01
   7165.33  3.1219565E-01
   7165.67  3.1446913E-01
   7166.00  3.1711410E-01
   7166.33  3.2015370E-01
   7166.67  3.2352228E-01
   7167.00  3.2720015E-01
   7167.33  3.3119902E-01
   7167.67  3.3545793E-01
   7168.00  3.3995439E-01
   7168.33  3.4468844E-01
   7168.67  3.4960673E-01
   7169.00  3.5468482E-01
   7169.33  3.5990852E-01
   7169.67  3.6522770E-01
   7170.00  3.7060876E-01
   7170.33  3.7600682E-01
   7170.67  3.8135816E-01
   7171.00  3.8658769E-01
   7171.33  3.9152542E-01
   7171.67  3.9596374E-01
   7172.00  3.9959511E-01
