    FDMNES
    energy     <xanes>
   7097.00  4.8496732E-03
   7097.33  4.9640369E-03
   7097.67  5.0836408E-03
   7098.00  5.2088472E-03
   7098.33  5.3408818E-03
   7098.67  5.4795076E-03
   7099.00  5.6252216E-03
   7099.33  5.7796370E-03
   7099.67  5.9425162E-03
   7100.00  6.1145602E-03
   7100.33  6.2979509E-03
   7100.67  6.4924782E-03
   7101.00  6.6991633E-03
   7101.33  6.9210538E-03
   7101.67  7.1580295E-03
   7102.00  7.4116363E-03
   7102.33  7.6862984E-03
   7102.67  7.9821248E-03
   7103.00  8.3015653E-03
   7103.33  8.6513539E-03
   7103.67  9.0321455E-03
   7104.00  9.4480494E-03
   7104.33  9.9099372E-03
   7104.67  1.0419776E-02
   7105.00  1.0984970E-02
   7105.33  1.1624448E-02
   7105.67  1.2343501E-02
   7106.00  1.3156775E-02
   7106.33  1.4100716E-02
   7106.67  1.5189886E-02
   7107.00  1.6457209E-02
   7107.33  1.7983434E-02
   7107.67  1.9813347E-02
   7108.00  2.2036048E-02
   7108.33  2.4872381E-02
   7108.67  2.8493288E-02
   7109.00  3.3221762E-02
   7109.33  3.9909216E-02
   7109.67  4.9512459E-02
   7110.00  6.3907247E-02
   7110.33  8.8474861E-02
   7110.67  1.2874885E-01
   7111.00  1.8490447E-01
   7111.33  2.3657042E-01
   7111.67  2.7409501E-01
   7112.00  3.0610556E-01
   7112.33  3.5251438E-01
   7112.67  4.0908436E-01
   7113.00  4.1921940E-01
   7113.33  3.4419728E-01
   7113.67  2.6044539E-01
   7114.00  2.0284270E-01
   7114.33  1.7606299E-01
   7114.67  1.7069444E-01
   7115.00  1.8404891E-01
   7115.33  2.1450832E-01
   7115.67  2.4606607E-01
   7116.00  2.5843081E-01
   7116.33  2.4070181E-01
   7116.67  2.0687685E-01
   7117.00  1.6947448E-01
   7117.33  1.4012897E-01
   7117.67  1.1995146E-01
   7118.00  1.0733324E-01
   7118.33  1.0071077E-01
   7118.67  9.7204037E-02
   7119.00  9.4787302E-02
   7119.33  9.2205935E-02
   7119.67  9.0108904E-02
   7120.00  8.9107691E-02
   7120.33  8.9317126E-02
   7120.67  9.0451170E-02
   7121.00  9.2381042E-02
   7121.33  9.5076498E-02
   7121.67  9.8918433E-02
   7122.00  1.0464201E-01
   7122.33  1.1326041E-01
   7122.67  1.2498525E-01
   7123.00  1.4028857E-01
   7123.33  1.6027454E-01
   7123.67  1.8497332E-01
   7124.00  2.1468286E-01
   7124.33  2.4969323E-01
   7124.67  2.8784006E-01
   7125.00  3.2668617E-01
   7125.33  3.6272819E-01
   7125.67  3.9394207E-01
   7126.00  4.1908595E-01
   7126.33  4.3577116E-01
   7126.67  4.4431064E-01
   7127.00  4.4615026E-01
   7127.33  4.4455291E-01
   7127.67  4.4369096E-01
   7128.00  4.4567581E-01
   7128.33  4.5187329E-01
   7128.67  4.6185437E-01
   7129.00  4.7573230E-01
   7129.33  4.9427887E-01
   7129.67  5.1674495E-01
   7130.00  5.4253498E-01
   7130.33  5.7140001E-01
   7130.67  6.0286741E-01
   7131.00  6.3701031E-01
   7131.33  6.7388757E-01
   7131.67  7.1205693E-01
   7132.00  7.4961572E-01
   7132.33  7.8319202E-01
   7132.67  8.1079978E-01
   7133.00  8.3171892E-01
   7133.33  8.4563834E-01
   7133.67  8.5428032E-01
   7134.00  8.5861593E-01
   7134.33  8.5919414E-01
   7134.67  8.5614278E-01
   7135.00  8.4798148E-01
   7135.33  8.3251447E-01
   7135.67  8.1100493E-01
   7136.00  7.8495113E-01
   7136.33  7.5614945E-01
   7136.67  7.2680099E-01
   7137.00  6.9816236E-01
   7137.33  6.7148794E-01
   7137.67  6.4724683E-01
   7138.00  6.2585595E-01
   7138.33  6.0808000E-01
   7138.67  5.9376903E-01
   7139.00  5.8304572E-01
   7139.33  5.7639245E-01
   7139.67  5.7327270E-01
   7140.00  5.7352575E-01
   7140.33  5.7723334E-01
   7140.67  5.8356325E-01
   7141.00  5.9200018E-01
   7141.33  6.0197459E-01
   7141.67  6.1249003E-01
   7142.00  6.2285856E-01
   7142.33  6.3232319E-01
   7142.67  6.4056439E-01
   7143.00  6.4741936E-01
   7143.33  6.5272314E-01
   7143.67  6.5680591E-01
   7144.00  6.5986618E-01
   7144.33  6.6205451E-01
   7144.67  6.6369202E-01
   7145.00  6.6493386E-01
   7145.33  6.6587617E-01
   7145.67  6.6662672E-01
   7146.00  6.6720998E-01
   7146.33  6.6759379E-01
   7146.67  6.6775660E-01
   7147.00  6.6764005E-01
   7147.33  6.6711363E-01
   7147.67  6.6612871E-01
   7148.00  6.6460545E-01
   7148.33  6.6238537E-01
   7148.67  6.5948894E-01
   7149.00  6.5589392E-01
   7149.33  6.5152654E-01
   7149.67  6.4653021E-01
   7150.00  6.4098577E-01
   7150.33  6.3495669E-01
   7150.67  6.2862764E-01
   7151.00  6.2211200E-01
   7151.33  6.1552629E-01
   7151.67  6.0899046E-01
   7152.00  6.0258231E-01
   7152.33  5.9638821E-01
   7152.67  5.9042102E-01
   7153.00  5.8469287E-01
   7153.33  5.7922424E-01
   7153.67  5.7395626E-01
   7154.00  5.6884829E-01
   7154.33  5.6385028E-01
   7154.67  5.5887515E-01
   7155.00  5.5385355E-01
   7155.33  5.4869150E-01
   7155.67  5.4333177E-01
   7156.00  5.3772058E-01
   7156.33  5.3177557E-01
   7156.67  5.2551206E-01
   7157.00  5.1893232E-01
   7157.33  5.1202660E-01
   7157.67  5.0487931E-01
   7158.00  4.9754521E-01
   7158.33  4.9008455E-01
   7158.67  4.8259283E-01
   7159.00  4.7514205E-01
   7159.33  4.6782718E-01
   7159.67  4.6070640E-01
   7160.00  4.5383648E-01
   7160.33  4.4731355E-01
   7160.67  4.4115046E-01
   7161.00  4.3538678E-01
   7161.33  4.3011503E-01
   7161.67  4.2531110E-01
   7162.00  4.2099520E-01
   7162.33  4.1724311E-01
   7162.67  4.1399058E-01
   7163.00  4.1122124E-01
   7163.33  4.0895654E-01
   7163.67  4.0708899E-01
   7164.00  4.0556022E-01
   7164.33  4.0433060E-01
   7164.67  4.0329378E-01
   7165.00  4.0238775E-01
   7165.33  4.0155232E-01
   7165.67  4.0072107E-01
   7166.00  3.9985412E-01
   7166.33  3.9890917E-01
   7166.67  3.9787534E-01
   7167.00  3.9674689E-01
   7167.33  3.9551623E-01
   7167.67  3.9420870E-01
   7168.00  3.9284712E-01
   7168.33  3.9145819E-01
   7168.67  3.9006879E-01
   7169.00  3.8870171E-01
   7169.33  3.8739285E-01
   7169.67  3.8616595E-01
   7170.00  3.8504716E-01
   7170.33  3.8408295E-01
   7170.67  3.8328169E-01
   7171.00  3.8265865E-01
   7171.33  3.8223908E-01
   7171.67  3.8197498E-01
   7172.00  3.8181323E-01
