    FDMNES
    energy     <xanes>
   7097.00  4.7771379E-03
   7097.33  4.8880667E-03
   7097.67  5.0040289E-03
   7098.00  5.1253711E-03
   7098.33  5.2532687E-03
   7098.67  5.3874928E-03
   7099.00  5.5285190E-03
   7099.33  5.6778941E-03
   7099.67  5.8353886E-03
   7100.00  6.0016737E-03
   7100.33  6.1788411E-03
   7100.67  6.3666884E-03
   7101.00  6.5661942E-03
   7101.33  6.7802805E-03
   7101.67  7.0088326E-03
   7102.00  7.2533334E-03
   7102.33  7.5180276E-03
   7102.67  7.8030225E-03
   7103.00  8.1106719E-03
   7103.33  8.4474431E-03
   7103.67  8.8139736E-03
   7104.00  9.2142184E-03
   7104.33  9.6586346E-03
   7104.67  1.0149135E-02
   7105.00  1.0692860E-02
   7105.33  1.1308056E-02
   7105.67  1.1999869E-02
   7106.00  1.2782462E-02
   7106.33  1.3691057E-02
   7106.67  1.4739835E-02
   7107.00  1.5960728E-02
   7107.33  1.7432034E-02
   7107.67  1.9197436E-02
   7108.00  2.1343659E-02
   7108.33  2.4085690E-02
   7108.67  2.7590747E-02
   7109.00  3.2174633E-02
   7109.33  3.8670693E-02
   7109.67  4.8019610E-02
   7110.00  6.2064435E-02
   7110.33  8.6047167E-02
   7110.67  1.2486719E-01
   7111.00  1.7694483E-01
   7111.33  2.2579867E-01
   7111.67  2.7331957E-01
   7112.00  3.2665378E-01
   7112.33  3.7225148E-01
   7112.67  3.7279096E-01
   7113.00  3.2830981E-01
   7113.33  2.7754239E-01
   7113.67  2.3406834E-01
   7114.00  2.0296292E-01
   7114.33  1.9474575E-01
   7114.67  2.0879396E-01
   7115.00  2.3539308E-01
   7115.33  2.4159374E-01
   7115.67  2.2258690E-01
   7116.00  1.9285359E-01
   7116.33  1.5831869E-01
   7116.67  1.2871054E-01
   7117.00  1.0785181E-01
   7117.33  9.5325547E-02
   7117.67  8.8053980E-02
   7118.00  8.4965218E-02
   7118.33  8.6038356E-02
   7118.67  9.0202979E-02
   7119.00  9.5450264E-02
   7119.33  9.7806623E-02
   7119.67  9.7112850E-02
   7120.00  9.5198262E-02
   7120.33  9.3424117E-02
   7120.67  9.2690579E-02
   7121.00  9.3699803E-02
   7121.33  9.6947654E-02
   7121.67  1.0220713E-01
   7122.00  1.0966550E-01
   7122.33  1.2001579E-01
   7122.67  1.3339887E-01
   7123.00  1.5027334E-01
   7123.33  1.7173220E-01
   7123.67  1.9782019E-01
   7124.00  2.2882083E-01
   7124.33  2.6502324E-01
   7124.67  3.0439655E-01
   7125.00  3.4454980E-01
   7125.33  3.8154575E-01
   7125.67  4.1257137E-01
   7126.00  4.3580370E-01
   7126.33  4.4933165E-01
   7126.67  4.5556408E-01
   7127.00  4.5710333E-01
   7127.33  4.5723695E-01
   7127.67  4.5934740E-01
   7128.00  4.6540991E-01
   7128.33  4.7588186E-01
   7128.67  4.8781922E-01
   7129.00  4.9890607E-01
   7129.33  5.0762295E-01
   7129.67  5.1475075E-01
   7130.00  5.2192621E-01
   7130.33  5.3218590E-01
   7130.67  5.4782976E-01
   7131.00  5.7061378E-01
   7131.33  6.0272469E-01
   7131.67  6.4300873E-01
   7132.00  6.9022496E-01
   7132.33  7.4227176E-01
   7132.67  7.9503895E-01
   7133.00  8.4501012E-01
   7133.33  8.8731108E-01
   7133.67  9.1983401E-01
   7134.00  9.4099996E-01
   7134.33  9.4624731E-01
   7134.67  9.3238861E-01
   7135.00  8.9765391E-01
   7135.33  8.4666527E-01
   7135.67  7.9208177E-01
   7136.00  7.4097519E-01
   7136.33  6.9820238E-01
   7136.67  6.6357467E-01
   7137.00  6.3644682E-01
   7137.33  6.1631199E-01
   7137.67  6.0108804E-01
   7138.00  5.8985055E-01
   7138.33  5.8220017E-01
   7138.67  5.7720042E-01
   7139.00  5.7453715E-01
   7139.33  5.7420463E-01
   7139.67  5.7574282E-01
   7140.00  5.7901048E-01
   7140.33  5.8406289E-01
   7140.67  5.9056334E-01
   7141.00  5.9837596E-01
   7141.33  6.0743275E-01
   7141.67  6.1731738E-01
   7142.00  6.2773405E-01
   7142.33  6.3831500E-01
   7142.67  6.4865407E-01
   7143.00  6.5845189E-01
   7143.33  6.6732778E-01
   7143.67  6.7519420E-01
   7144.00  6.8195515E-01
   7144.33  6.8741877E-01
   7144.67  6.9172911E-01
   7145.00  6.9490438E-01
   7145.33  6.9682577E-01
   7145.67  6.9763630E-01
   7146.00  6.9732196E-01
   7146.33  6.9571074E-01
   7146.67  6.9292592E-01
   7147.00  6.8897461E-01
   7147.33  6.8377698E-01
   7147.67  6.7760084E-01
   7148.00  6.7062019E-01
   7148.33  6.6302198E-01
   7148.67  6.5515024E-01
   7149.00  6.4723641E-01
   7149.33  6.3954333E-01
   7149.67  6.3222437E-01
   7150.00  6.2537503E-01
   7150.33  6.1910867E-01
   7150.67  6.1335448E-01
   7151.00  6.0807400E-01
   7151.33  6.0324272E-01
   7151.67  5.9872070E-01
   7152.00  5.9442777E-01
   7152.33  5.9028825E-01
   7152.67  5.8619670E-01
   7153.00  5.8208146E-01
   7153.33  5.7784841E-01
   7153.67  5.7342979E-01
   7154.00  5.6875372E-01
   7154.33  5.6368535E-01
   7154.67  5.5816793E-01
   7155.00  5.5210955E-01
   7155.33  5.4532249E-01
   7155.67  5.3779806E-01
   7156.00  5.2948942E-01
   7156.33  5.2029919E-01
   7156.67  5.1040216E-01
   7157.00  4.9993004E-01
   7157.33  4.8905900E-01
   7157.67  4.7810366E-01
   7158.00  4.6731402E-01
   7158.33  4.5703398E-01
   7158.67  4.4746333E-01
   7159.00  4.3877931E-01
   7159.33  4.3125860E-01
   7159.67  4.2485964E-01
   7160.00  4.1961905E-01
   7160.33  4.1569062E-01
   7160.67  4.1290994E-01
   7161.00  4.1124574E-01
   7161.33  4.1077819E-01
   7161.67  4.1130218E-01
   7162.00  4.1273371E-01
   7162.33  4.1502511E-01
   7162.67  4.1789830E-01
   7163.00  4.2119339E-01
   7163.33  4.2474678E-01
   7163.67  4.2832879E-01
   7164.00  4.3177361E-01
   7164.33  4.3486474E-01
   7164.67  4.3748976E-01
   7165.00  4.3954527E-01
   7165.33  4.4086490E-01
   7165.67  4.4148624E-01
   7166.00  4.4140206E-01
   7166.33  4.4054844E-01
   7166.67  4.3905739E-01
   7167.00  4.3698382E-01
   7167.33  4.3434506E-01
   7167.67  4.3130267E-01
   7168.00  4.2794294E-01
   7168.33  4.2433346E-01
   7168.67  4.2060032E-01
   7169.00  4.1682789E-01
   7169.33  4.1311630E-01
   7169.67  4.0954339E-01
   7170.00  4.0617331E-01
   7170.33  4.0310269E-01
   7170.67  4.0034861E-01
   7171.00  3.9794358E-01
   7171.33  3.9595962E-01
   7171.67  3.9436260E-01
   7172.00  3.9314988E-01
