    FDMNES
    energy     <xanes>
   7097.00  4.6146460E-03
   7097.33  4.7154258E-03
   7097.67  4.8204149E-03
   7098.00  4.9298809E-03
   7098.33  5.0447696E-03
   7098.67  5.1648594E-03
   7099.00  5.2905111E-03
   7099.33  5.4229449E-03
   7099.67  5.5619300E-03
   7100.00  5.7079660E-03
   7100.33  5.8626685E-03
   7100.67  6.0258138E-03
   7101.00  6.1981164E-03
   7101.33  6.3817829E-03
   7101.67  6.5766347E-03
   7102.00  6.7837328E-03
   7102.33  7.0062081E-03
   7102.67  7.2440115E-03
   7103.00  7.4987937E-03
   7103.33  7.7752097E-03
   7103.67  8.0735358E-03
   7104.00  8.3964906E-03
   7104.33  8.7514168E-03
   7104.67  9.1393886E-03
   7105.00  9.5652202E-03
   7105.33  1.0041410E-02
   7105.67  1.0571072E-02
   7106.00  1.1163576E-02
   7106.33  1.1842474E-02
   7106.67  1.2616579E-02
   7107.00  1.3506635E-02
   7107.33  1.4563812E-02
   7107.67  1.5815447E-02
   7108.00  1.7316917E-02
   7108.33  1.9205741E-02
   7108.67  2.1586255E-02
   7109.00  2.4656849E-02
   7109.33  2.8940332E-02
   7109.67  3.5018933E-02
   7110.00  4.4033350E-02
   7110.33  5.9211860E-02
   7110.67  8.3485394E-02
   7111.00  1.1593353E-01
   7111.33  1.4972466E-01
   7111.67  1.8497274E-01
   7112.00  2.1242286E-01
   7112.33  2.2236157E-01
   7112.67  2.3232601E-01
   7113.00  2.4081489E-01
   7113.33  2.4005133E-01
   7113.67  2.3320810E-01
   7114.00  2.0886951E-01
   7114.33  1.6826008E-01
   7114.67  1.3395429E-01
   7115.00  1.1132003E-01
   7115.33  9.9130320E-02
   7115.67  9.3433361E-02
   7116.00  9.3047024E-02
   7116.33  9.8560640E-02
   7116.67  1.1061569E-01
   7117.00  1.3108778E-01
   7117.33  1.6013943E-01
   7117.67  1.8225574E-01
   7118.00  1.8035952E-01
   7118.33  1.6177594E-01
   7118.67  1.4799094E-01
   7119.00  1.4266094E-01
   7119.33  1.4507495E-01
   7119.67  1.5400128E-01
   7120.00  1.6926326E-01
   7120.33  1.9085103E-01
   7120.67  2.1652918E-01
   7121.00  2.4427404E-01
   7121.33  2.7280809E-01
   7121.67  3.0258724E-01
   7122.00  3.3350782E-01
   7122.33  3.6366210E-01
   7122.67  3.9102410E-01
   7123.00  4.1430838E-01
   7123.33  4.3264486E-01
   7123.67  4.4797085E-01
   7124.00  4.6207051E-01
   7124.33  4.7593195E-01
   7124.67  4.8905084E-01
   7125.00  5.0063218E-01
   7125.33  5.1027993E-01
   7125.67  5.1874201E-01
   7126.00  5.2634534E-01
   7126.33  5.3276021E-01
   7126.67  5.3763979E-01
   7127.00  5.4071427E-01
   7127.33  5.4168378E-01
   7127.67  5.4085635E-01
   7128.00  5.3839254E-01
   7128.33  5.3436630E-01
   7128.67  5.2919912E-01
   7129.00  5.2311637E-01
   7129.33  5.1637345E-01
   7129.67  5.0945903E-01
   7130.00  5.0276326E-01
   7130.33  4.9674657E-01
   7130.67  4.9157885E-01
   7131.00  4.8738162E-01
   7131.33  4.8434786E-01
   7131.67  4.8238028E-01
   7132.00  4.8153102E-01
   7132.33  4.8205136E-01
   7132.67  4.8388213E-01
   7133.00  4.8705134E-01
   7133.33  4.9165595E-01
   7133.67  4.9737012E-01
   7134.00  5.0399087E-01
   7134.33  5.1134178E-01
   7134.67  5.1911707E-01
   7135.00  5.2718212E-01
   7135.33  5.3547846E-01
   7135.67  5.4394475E-01
   7136.00  5.5255876E-01
   7136.33  5.6130081E-01
   7136.67  5.7012644E-01
   7137.00  5.7903817E-01
   7137.33  5.8810425E-01
   7137.67  5.9738596E-01
   7138.00  6.0693103E-01
   7138.33  6.1674695E-01
   7138.67  6.2665689E-01
   7139.00  6.3642651E-01
   7139.33  6.4560986E-01
   7139.67  6.5382044E-01
   7140.00  6.6066534E-01
   7140.33  6.6553580E-01
   7140.67  6.6841121E-01
   7141.00  6.6924785E-01
   7141.33  6.6796045E-01
   7141.67  6.6512342E-01
   7142.00  6.6113294E-01
   7142.33  6.5640988E-01
   7142.67  6.5145923E-01
   7143.00  6.4654898E-01
   7143.33  6.4197116E-01
   7143.67  6.3789852E-01
   7144.00  6.3447206E-01
   7144.33  6.3191028E-01
   7144.67  6.3020416E-01
   7145.00  6.2940745E-01
   7145.33  6.2968018E-01
   7145.67  6.3091715E-01
   7146.00  6.3309994E-01
   7146.33  6.3626955E-01
   7146.67  6.4018642E-01
   7147.00  6.4468578E-01
   7147.33  6.4955747E-01
   7147.67  6.5445764E-01
   7148.00  6.5910482E-01
   7148.33  6.6310470E-01
   7148.67  6.6624796E-01
   7149.00  6.6835086E-01
   7149.33  6.6913938E-01
   7149.67  6.6872898E-01
   7150.00  6.6716409E-01
   7150.33  6.6442980E-01
   7150.67  6.6081426E-01
   7151.00  6.5646835E-01
   7151.33  6.5149899E-01
   7151.67  6.4613947E-01
   7152.00  6.4051200E-01
   7152.33  6.3471036E-01
   7152.67  6.2883124E-01
   7153.00  6.2291057E-01
   7153.33  6.1694784E-01
   7153.67  6.1091088E-01
   7154.00  6.0473691E-01
   7154.33  5.9829198E-01
   7154.67  5.9148279E-01
   7155.00  5.8420289E-01
   7155.33  5.7627568E-01
   7155.67  5.6771118E-01
   7156.00  5.5850500E-01
   7156.33  5.4864260E-01
   7156.67  5.3831913E-01
   7157.00  5.2767977E-01
   7157.33  5.1690367E-01
   7157.67  5.0620173E-01
   7158.00  4.9572734E-01
   7158.33  4.8567699E-01
   7158.67  4.7611536E-01
   7159.00  4.6710835E-01
   7159.33  4.5877717E-01
   7159.67  4.5106564E-01
   7160.00  4.4397218E-01
   7160.33  4.3755335E-01
   7160.67  4.3170295E-01
   7161.00  4.2638846E-01
   7161.33  4.2163417E-01
   7161.67  4.1734232E-01
   7162.00  4.1348557E-01
   7162.33  4.1008743E-01
   7162.67  4.0707477E-01
   7163.00  4.0443346E-01
   7163.33  4.0219763E-01
   7163.67  4.0031594E-01
   7164.00  3.9878481E-01
   7164.33  3.9764223E-01
   7164.67  3.9683626E-01
   7165.00  3.9635476E-01
   7165.33  3.9621328E-01
   7165.67  3.9634167E-01
   7166.00  3.9670393E-01
   7166.33  3.9727268E-01
   7166.67  3.9796889E-01
   7167.00  3.9874289E-01
   7167.33  3.9954194E-01
   7167.67  4.0031432E-01
   7168.00  4.0102581E-01
   7168.33  4.0163633E-01
   7168.67  4.0214140E-01
   7169.00  4.0253786E-01
   7169.33  4.0282006E-01
   7169.67  4.0301716E-01
   7170.00  4.0314866E-01
   7170.33  4.0323555E-01
   7170.67  4.0330879E-01
   7171.00  4.0338803E-01
   7171.33  4.0349018E-01
   7171.67  4.0360894E-01
   7172.00  4.0372033E-01
