    FDMNES
    energy     <xanes>
   7097.00  5.1171442E-03
   7097.33  5.2336126E-03
   7097.67  5.3551773E-03
   7098.00  5.4821719E-03
   7098.33  5.6157568E-03
   7098.67  5.7556752E-03
   7099.00  5.9023777E-03
   7099.33  6.0573677E-03
   7099.67  6.2203775E-03
   7100.00  6.3920310E-03
   7100.33  6.5743252E-03
   7100.67  6.7670002E-03
   7101.00  6.9709464E-03
   7101.33  7.1888951E-03
   7101.67  7.4206378E-03
   7102.00  7.6674910E-03
   7102.33  7.9333243E-03
   7102.67  8.2180774E-03
   7103.00  8.5237817E-03
   7103.33  8.8561620E-03
   7103.67  9.2155261E-03
   7104.00  9.6051780E-03
   7104.33  1.0034058E-02
   7104.67  1.0503365E-02
   7105.00  1.1018843E-02
   7105.33  1.1595461E-02
   7105.67  1.2236648E-02
   7106.00  1.2953304E-02
   7106.33  1.3772935E-02
   7106.67  1.4705041E-02
   7107.00  1.5772931E-02
   7107.33  1.7034214E-02
   7107.67  1.8517437E-02
   7108.00  2.0281963E-02
   7108.33  2.2474736E-02
   7108.67  2.5199673E-02
   7109.00  2.8656060E-02
   7109.33  3.3362103E-02
   7109.67  3.9858760E-02
   7110.00  4.9201528E-02
   7110.33  6.4412176E-02
   7110.67  8.9020205E-02
   7111.00  1.2590877E-01
   7111.33  1.6934323E-01
   7111.67  2.0391613E-01
   7112.00  2.2502097E-01
   7112.33  2.4059659E-01
   7112.67  2.6781482E-01
   7113.00  3.1372636E-01
   7113.33  3.5529683E-01
   7113.67  3.7959343E-01
   7114.00  3.8976858E-01
   7114.33  3.6966016E-01
   7114.67  3.2886357E-01
   7115.00  2.8711809E-01
   7115.33  2.5845819E-01
   7115.67  2.4022294E-01
   7116.00  2.2854439E-01
   7116.33  2.2205671E-01
   7116.67  2.1798162E-01
   7117.00  2.1201238E-01
   7117.33  2.0063473E-01
   7117.67  1.8817525E-01
   7118.00  1.7888252E-01
   7118.33  1.7473931E-01
   7118.67  1.7381651E-01
   7119.00  1.7418179E-01
   7119.33  1.7365322E-01
   7119.67  1.7176677E-01
   7120.00  1.6957873E-01
   7120.33  1.6884299E-01
   7120.67  1.7019524E-01
   7121.00  1.7366928E-01
   7121.33  1.7944595E-01
   7121.67  1.8753580E-01
   7122.00  1.9794966E-01
   7122.33  2.0969779E-01
   7122.67  2.2083578E-01
   7123.00  2.3040137E-01
   7123.33  2.3829490E-01
   7123.67  2.4562227E-01
   7124.00  2.5331604E-01
   7124.33  2.6231384E-01
   7124.67  2.7262601E-01
   7125.00  2.8380503E-01
   7125.33  2.9490351E-01
   7125.67  3.0502246E-01
   7126.00  3.1381298E-01
   7126.33  3.2178026E-01
   7126.67  3.3104023E-01
   7127.00  3.4421581E-01
   7127.33  3.6487584E-01
   7127.67  3.9339993E-01
   7128.00  4.2988929E-01
   7128.33  4.7562514E-01
   7128.67  5.3081484E-01
   7129.00  5.9709007E-01
   7129.33  6.7671360E-01
   7129.67  7.6494708E-01
   7130.00  8.5326308E-01
   7130.33  9.2246040E-01
   7130.67  9.5898666E-01
   7131.00  9.6135128E-01
   7131.33  9.4013730E-01
   7131.67  9.1433369E-01
   7132.00  8.9245302E-01
   7132.33  8.7825107E-01
   7132.67  8.6957007E-01
   7133.00  8.6420149E-01
   7133.33  8.5984343E-01
   7133.67  8.5467848E-01
   7134.00  8.4785195E-01
   7134.33  8.3862572E-01
   7134.67  8.2712427E-01
   7135.00  8.1333852E-01
   7135.33  7.9700331E-01
   7135.67  7.7842207E-01
   7136.00  7.5762971E-01
   7136.33  7.3447184E-01
   7136.67  7.0945954E-01
   7137.00  6.8297387E-01
   7137.33  6.5560793E-01
   7137.67  6.2841640E-01
   7138.00  6.0235553E-01
   7138.33  5.7874861E-01
   7138.67  5.5805768E-01
   7139.00  5.4057845E-01
   7139.33  5.2670066E-01
   7139.67  5.1574332E-01
   7140.00  5.0734720E-01
   7140.33  5.0130311E-01
   7140.67  4.9687954E-01
   7141.00  4.9369899E-01
   7141.33  4.9147040E-01
   7141.67  4.8974367E-01
   7142.00  4.8826888E-01
   7142.33  4.8681634E-01
   7142.67  4.8522322E-01
   7143.00  4.8341264E-01
   7143.33  4.8133008E-01
   7143.67  4.7903781E-01
   7144.00  4.7659461E-01
   7144.33  4.7408256E-01
   7144.67  4.7160644E-01
   7145.00  4.6923435E-01
   7145.33  4.6703168E-01
   7145.67  4.6501318E-01
   7146.00  4.6320790E-01
   7146.33  4.6167948E-01
   7146.67  4.6042636E-01
   7147.00  4.5946982E-01
   7147.33  4.5886995E-01
   7147.67  4.5860339E-01
   7148.00  4.5868163E-01
   7148.33  4.5915916E-01
   7148.67  4.5999272E-01
   7149.00  4.6117514E-01
   7149.33  4.6274226E-01
   7149.67  4.6464324E-01
   7150.00  4.6686544E-01
   7150.33  4.6942334E-01
   7150.67  4.7224691E-01
   7151.00  4.7529877E-01
   7151.33  4.7854503E-01
   7151.67  4.8189524E-01
   7152.00  4.8527954E-01
   7152.33  4.8859712E-01
   7152.67  4.9175203E-01
   7153.00  4.9465371E-01
   7153.33  4.9715941E-01
   7153.67  4.9923158E-01
   7154.00  5.0082230E-01
   7154.33  5.0184797E-01
   7154.67  5.0239433E-01
   7155.00  5.0251743E-01
   7155.33  5.0228181E-01
   7155.67  5.0186488E-01
   7156.00  5.0140114E-01
   7156.33  5.0106814E-01
   7156.67  5.0100755E-01
   7157.00  5.0133825E-01
   7157.33  5.0223547E-01
   7157.67  5.0371449E-01
   7158.00  5.0581318E-01
   7158.33  5.0862077E-01
   7158.67  5.1203490E-01
   7159.00  5.1601123E-01
   7159.33  5.2053626E-01
   7159.67  5.2545596E-01
   7160.00  5.3068041E-01
   7160.33  5.3612042E-01
   7160.67  5.4163310E-01
   7161.00  5.4711864E-01
   7161.33  5.5245374E-01
   7161.67  5.5755669E-01
   7162.00  5.6233621E-01
   7162.33  5.6663707E-01
   7162.67  5.7044690E-01
   7163.00  5.7372827E-01
   7163.33  5.7637084E-01
   7163.67  5.7841198E-01
   7164.00  5.7983788E-01
   7164.33  5.8056756E-01
   7164.67  5.8068263E-01
   7165.00  5.8019326E-01
   7165.33  5.7904643E-01
   7165.67  5.7734284E-01
   7166.00  5.7511101E-01
   7166.33  5.7232787E-01
   7166.67  5.6909779E-01
   7167.00  5.6546070E-01
   7167.33  5.6141937E-01
   7167.67  5.5706741E-01
   7168.00  5.5244785E-01
   7168.33  5.4758501E-01
   7168.67  5.4255819E-01
   7169.00  5.3741216E-01
   7169.33  5.3219014E-01
   7169.67  5.2695375E-01
   7170.00  5.2175334E-01
   7170.33  5.1666659E-01
   7170.67  5.1174848E-01
   7171.00  5.0706556E-01
   7171.33  5.0276886E-01
   7171.67  4.9899041E-01
   7172.00  4.9594389E-01
