    FDMNES
    energy     <xanes>
   7097.00  4.1999227E-03
   7097.33  4.2856774E-03
   7097.67  4.3748908E-03
   7098.00  4.4677865E-03
   7098.33  4.5651489E-03
   7098.67  4.6668034E-03
   7099.00  4.7730562E-03
   7099.33  4.8849308E-03
   7099.67  5.0022525E-03
   7100.00  5.1254543E-03
   7100.33  5.2559129E-03
   7100.67  5.3934736E-03
   7101.00  5.5387721E-03
   7101.33  5.6937296E-03
   7101.67  5.8582574E-03
   7102.00  6.0333300E-03
   7102.33  6.2217525E-03
   7102.67  6.4236048E-03
   7103.00  6.6404628E-03
   7103.33  6.8766554E-03
   7103.67  7.1326731E-03
   7104.00  7.4112367E-03
   7104.33  7.7195074E-03
   7104.67  8.0589917E-03
   7105.00  8.4347915E-03
   7105.33  8.8598553E-03
   7105.67  9.3383732E-03
   7106.00  9.8809964E-03
   7106.33  1.0514067E-02
   7106.67  1.1249701E-02
   7107.00  1.2113641E-02
   7107.33  1.3169008E-02
   7107.67  1.4455829E-02
   7108.00  1.6050982E-02
   7108.33  1.8147287E-02
   7108.67  2.0914283E-02
   7109.00  2.4670901E-02
   7109.33  3.0284020E-02
   7109.67  3.8845796E-02
   7110.00  5.2528651E-02
   7110.33  7.7532518E-02
   7110.67  1.1814091E-01
   7111.00  1.6345129E-01
   7111.33  1.7740409E-01
   7111.67  1.7678563E-01
   7112.00  1.7903865E-01
   7112.33  1.7623297E-01
   7112.67  1.6100162E-01
   7113.00  1.3831139E-01
   7113.33  1.1721757E-01
   7113.67  1.0029782E-01
   7114.00  8.9146914E-02
   7114.33  8.5461319E-02
   7114.67  8.2344641E-02
   7115.00  7.2349449E-02
   7115.33  5.9041599E-02
   7115.67  4.9191941E-02
   7116.00  4.3084242E-02
   7116.33  3.9791649E-02
   7116.67  3.8047676E-02
   7117.00  3.7315084E-02
   7117.33  3.7232249E-02
   7117.67  3.7478211E-02
   7118.00  3.7982221E-02
   7118.33  3.8804855E-02
   7118.67  3.9991775E-02
   7119.00  4.1639992E-02
   7119.33  4.3966787E-02
   7119.67  4.7065520E-02
   7120.00  5.1095079E-02
   7120.33  5.6379767E-02
   7120.67  6.2934367E-02
   7121.00  7.0842288E-02
   7121.33  8.0314324E-02
   7121.67  9.1175232E-02
   7122.00  1.0344782E-01
   7122.33  1.1751907E-01
   7122.67  1.3363730E-01
   7123.00  1.5232884E-01
   7123.33  1.7458672E-01
   7123.67  2.0051470E-01
   7124.00  2.3040494E-01
   7124.33  2.6433497E-01
   7124.67  2.9997216E-01
   7125.00  3.3525100E-01
   7125.33  3.7045257E-01
   7125.67  4.0881785E-01
   7126.00  4.5124787E-01
   7126.33  4.9278785E-01
   7126.67  5.2457892E-01
   7127.00  5.4176393E-01
   7127.33  5.4639365E-01
   7127.67  5.4837493E-01
   7128.00  5.5403986E-01
   7128.33  5.6981390E-01
   7128.67  5.9794070E-01
   7129.00  6.3979381E-01
   7129.33  6.9667391E-01
   7129.67  7.6418342E-01
   7130.00  8.3810425E-01
   7130.33  9.1130101E-01
   7130.67  9.7504584E-01
   7131.00  1.0217365E+00
   7131.33  1.0409037E+00
   7131.67  1.0300072E+00
   7132.00  9.8852971E-01
   7132.33  9.2563082E-01
   7132.67  8.6285153E-01
   7133.00  8.1070461E-01
   7133.33  7.7151846E-01
   7133.67  7.3927968E-01
   7134.00  7.1216143E-01
   7134.33  6.9385140E-01
   7134.67  6.8663941E-01
   7135.00  6.8978291E-01
   7135.33  6.9982016E-01
   7135.67  7.1156094E-01
   7136.00  7.2244332E-01
   7136.33  7.3077874E-01
   7136.67  7.3678633E-01
   7137.00  7.4103123E-01
   7137.33  7.4422463E-01
   7137.67  7.4711245E-01
   7138.00  7.4994452E-01
   7138.33  7.5267537E-01
   7138.67  7.5503513E-01
   7139.00  7.5668784E-01
   7139.33  7.5711053E-01
   7139.67  7.5615734E-01
   7140.00  7.5372573E-01
   7140.33  7.4971060E-01
   7140.67  7.4453124E-01
   7141.00  7.3846512E-01
   7141.33  7.3173791E-01
   7141.67  7.2461702E-01
   7142.00  7.1715438E-01
   7142.33  7.0922879E-01
   7142.67  7.0077042E-01
   7143.00  6.9172271E-01
   7143.33  6.8207247E-01
   7143.67  6.7206616E-01
   7144.00  6.6191047E-01
   7144.33  6.5183695E-01
   7144.67  6.4197738E-01
   7145.00  6.3236644E-01
   7145.33  6.2297642E-01
   7145.67  6.1366262E-01
   7146.00  6.0429931E-01
   7146.33  5.9472466E-01
   7146.67  5.8486157E-01
   7147.00  5.7466767E-01
   7147.33  5.6410519E-01
   7147.67  5.5326364E-01
   7148.00  5.4220183E-01
   7148.33  5.3097986E-01
   7148.67  5.1970268E-01
   7149.00  5.0844360E-01
   7149.33  4.9728977E-01
   7149.67  4.8629751E-01
   7150.00  4.7552190E-01
   7150.33  4.6505862E-01
   7150.67  4.5493236E-01
   7151.00  4.4519382E-01
   7151.33  4.3595661E-01
   7151.67  4.2721980E-01
   7152.00  4.1902509E-01
   7152.33  4.1148012E-01
   7152.67  4.0452392E-01
   7153.00  3.9813864E-01
   7153.33  3.9233550E-01
   7153.67  3.8696719E-01
   7154.00  3.8194616E-01
   7154.33  3.7719372E-01
   7154.67  3.7257525E-01
   7155.00  3.6800347E-01
   7155.33  3.6337115E-01
   7155.67  3.5858401E-01
   7156.00  3.5354787E-01
   7156.33  3.4810085E-01
   7156.67  3.4217867E-01
   7157.00  3.3570942E-01
   7157.33  3.2859605E-01
   7157.67  3.2095820E-01
   7158.00  3.1289169E-01
   7158.33  3.0452667E-01
   7158.67  2.9609775E-01
   7159.00  2.8779164E-01
   7159.33  2.7986447E-01
   7159.67  2.7247040E-01
   7160.00  2.6575823E-01
   7160.33  2.5997504E-01
   7160.67  2.5512808E-01
   7161.00  2.5129027E-01
   7161.33  2.4865761E-01
   7161.67  2.4713572E-01
   7162.00  2.4673959E-01
   7162.33  2.4759798E-01
   7162.67  2.4953669E-01
   7163.00  2.5250586E-01
   7163.33  2.5654799E-01
   7163.67  2.6145707E-01
   7164.00  2.6714928E-01
   7164.33  2.7360041E-01
   7164.67  2.8060497E-01
   7165.00  2.8805069E-01
   7165.33  2.9584487E-01
   7165.67  3.0382404E-01
   7166.00  3.1189028E-01
   7166.33  3.1994298E-01
   7166.67  3.2790286E-01
   7167.00  3.3571514E-01
   7167.33  3.4330822E-01
   7167.67  3.5067493E-01
   7168.00  3.5779854E-01
   7168.33  3.6463831E-01
   7168.67  3.7122497E-01
   7169.00  3.7756249E-01
   7169.33  3.8362871E-01
   7169.67  3.8946104E-01
   7170.00  3.9506170E-01
   7170.33  4.0039564E-01
   7170.67  4.0547304E-01
   7171.00  4.1025906E-01
   7171.33  4.1462897E-01
   7171.67  4.1847601E-01
   7172.00  4.2159765E-01
