    FDMNES
    energy     <xanes>
   7097.00  5.2380042E-03
   7097.33  5.3700297E-03
   7097.67  5.5084077E-03
   7098.00  5.6535867E-03
   7098.33  5.8070673E-03
   7098.67  5.9685730E-03
   7099.00  6.1387188E-03
   7099.33  6.3194846E-03
   7099.67  6.5105920E-03
   7100.00  6.7129070E-03
   7100.33  6.9291099E-03
   7100.67  7.1589527E-03
   7101.00  7.4036926E-03
   7101.33  7.6670695E-03
   7101.67  7.9489377E-03
   7102.00  8.2511889E-03
   7102.33  8.5792341E-03
   7102.67  8.9331871E-03
   7103.00  9.3160196E-03
   7103.33  9.7359129E-03
   7103.67  1.0193595E-02
   7104.00  1.0693987E-02
   7104.33  1.1250155E-02
   7104.67  1.1864280E-02
   7105.00  1.2545077E-02
   7105.33  1.3314911E-02
   7105.67  1.4179578E-02
   7106.00  1.5155896E-02
   7106.33  1.6285854E-02
   7106.67  1.7585037E-02
   7107.00  1.9089953E-02
   7107.33  2.0890228E-02
   7107.67  2.3032027E-02
   7108.00  2.5609305E-02
   7108.33  2.8853730E-02
   7108.67  3.2931558E-02
   7109.00  3.8158829E-02
   7109.33  4.5354776E-02
   7109.67  5.5372945E-02
   7110.00  6.9869415E-02
   7110.33  9.3524794E-02
   7110.67  1.3136294E-01
   7111.00  1.8626159E-01
   7111.33  2.5377899E-01
   7111.67  3.3273664E-01
   7112.00  4.0942685E-01
   7112.33  4.4136925E-01
   7112.67  4.6587772E-01
   7113.00  5.0937043E-01
   7113.33  5.3916079E-01
   7113.67  5.2179296E-01
   7114.00  4.5796557E-01
   7114.33  3.7829678E-01
   7114.67  3.1275845E-01
   7115.00  2.6834986E-01
   7115.33  2.4770720E-01
   7115.67  2.4528093E-01
   7116.00  2.5188144E-01
   7116.33  2.4842430E-01
   7116.67  2.3344556E-01
   7117.00  2.1664030E-01
   7117.33  2.0455250E-01
   7117.67  1.9627731E-01
   7118.00  1.9021429E-01
   7118.33  1.8512899E-01
   7118.67  1.8035182E-01
   7119.00  1.7576332E-01
   7119.33  1.7069559E-01
   7119.67  1.6386216E-01
   7120.00  1.5486759E-01
   7120.33  1.4562702E-01
   7120.67  1.3863265E-01
   7121.00  1.3449423E-01
   7121.33  1.3278592E-01
   7121.67  1.3220182E-01
   7122.00  1.3235697E-01
   7122.33  1.3342199E-01
   7122.67  1.3527626E-01
   7123.00  1.3773103E-01
   7123.33  1.4058343E-01
   7123.67  1.4371264E-01
   7124.00  1.4726033E-01
   7124.33  1.5158676E-01
   7124.67  1.5680890E-01
   7125.00  1.6302293E-01
   7125.33  1.7046415E-01
   7125.67  1.7909451E-01
   7126.00  1.8894594E-01
   7126.33  2.0015614E-01
   7126.67  2.1266603E-01
   7127.00  2.2678372E-01
   7127.33  2.4349086E-01
   7127.67  2.6339728E-01
   7128.00  2.8707250E-01
   7128.33  3.1467865E-01
   7128.67  3.4449465E-01
   7129.00  3.7583198E-01
   7129.33  4.0960592E-01
   7129.67  4.4691519E-01
   7130.00  4.8884830E-01
   7130.33  5.3643575E-01
   7130.67  5.8730029E-01
   7131.00  6.3778242E-01
   7131.33  6.8221756E-01
   7131.67  7.1961923E-01
   7132.00  7.5310545E-01
   7132.33  7.8925383E-01
   7132.67  8.3286567E-01
   7133.00  8.8605630E-01
   7133.33  9.4956446E-01
   7133.67  1.0176459E+00
   7134.00  1.0817932E+00
   7134.33  1.1255649E+00
   7134.67  1.1386274E+00
   7135.00  1.1174165E+00
   7135.33  1.0642464E+00
   7135.67  9.9414753E-01
   7136.00  9.1667678E-01
   7136.33  8.3995913E-01
   7136.67  7.6851494E-01
   7137.00  7.0425047E-01
   7137.33  6.4892926E-01
   7137.67  6.0150848E-01
   7138.00  5.6169583E-01
   7138.33  5.3002203E-01
   7138.67  5.0526650E-01
   7139.00  4.8718451E-01
   7139.33  4.7621853E-01
   7139.67  4.7106010E-01
   7140.00  4.7108143E-01
   7140.33  4.7588643E-01
   7140.67  4.8389741E-01
   7141.00  4.9422208E-01
   7141.33  5.0612283E-01
   7141.67  5.1872977E-01
   7142.00  5.3162989E-01
   7142.33  5.4449679E-01
   7142.67  5.5709754E-01
   7143.00  5.6924339E-01
   7143.33  5.8062159E-01
   7143.67  5.9109329E-01
   7144.00  6.0048851E-01
   7144.33  6.0849878E-01
   7144.67  6.1517056E-01
   7145.00  6.2043946E-01
   7145.33  6.2406279E-01
   7145.67  6.2617450E-01
   7146.00  6.2675330E-01
   7146.33  6.2563210E-01
   7146.67  6.2310169E-01
   7147.00  6.1932867E-01
   7147.33  6.1445764E-01
   7147.67  6.0892160E-01
   7148.00  6.0300949E-01
   7148.33  5.9704654E-01
   7148.67  5.9132496E-01
   7149.00  5.8603604E-01
   7149.33  5.8140554E-01
   7149.67  5.7744602E-01
   7150.00  5.7419117E-01
   7150.33  5.7174289E-01
   7150.67  5.7001332E-01
   7151.00  5.6900377E-01
   7151.33  5.6880472E-01
   7151.67  5.6931632E-01
   7152.00  5.7051229E-01
   7152.33  5.7240779E-01
   7152.67  5.7482142E-01
   7153.00  5.7763142E-01
   7153.33  5.8069305E-01
   7153.67  5.8378635E-01
   7154.00  5.8674547E-01
   7154.33  5.8935506E-01
   7154.67  5.9151214E-01
   7155.00  5.9313305E-01
   7155.33  5.9409801E-01
   7155.67  5.9448866E-01
   7156.00  5.9435294E-01
   7156.33  5.9372724E-01
   7156.67  5.9277745E-01
   7157.00  5.9160236E-01
   7157.33  5.9029314E-01
   7157.67  5.8895103E-01
   7158.00  5.8762899E-01
   7158.33  5.8636819E-01
   7158.67  5.8516760E-01
   7159.00  5.8401241E-01
   7159.33  5.8286896E-01
   7159.67  5.8168732E-01
   7160.00  5.8041896E-01
   7160.33  5.7898600E-01
   7160.67  5.7734851E-01
   7161.00  5.7546061E-01
   7161.33  5.7323879E-01
   7161.67  5.7068431E-01
   7162.00  5.6777868E-01
   7162.33  5.6446765E-01
   7162.67  5.6079282E-01
   7163.00  5.5675433E-01
   7163.33  5.5231603E-01
   7163.67  5.4753624E-01
   7164.00  5.4242760E-01
   7164.33  5.3696299E-01
   7164.67  5.3118981E-01
   7165.00  5.2511073E-01
   7165.33  5.1868664E-01
   7165.67  5.1195387E-01
   7166.00  5.0491345E-01
   7166.33  4.9753580E-01
   7166.67  4.8987645E-01
   7167.00  4.8196154E-01
   7167.33  4.7380744E-01
   7167.67  4.6549603E-01
   7168.00  4.5708291E-01
   7168.33  4.4863933E-01
   7168.67  4.4025986E-01
   7169.00  4.3202051E-01
   7169.33  4.2402164E-01
   7169.67  4.1630395E-01
   7170.00  4.0892354E-01
   7170.33  4.0199383E-01
   7170.67  3.9552758E-01
   7171.00  3.8958281E-01
   7171.33  3.8432353E-01
   7171.67  3.7981221E-01
   7172.00  3.7621419E-01
