    FDMNES
    energy     <xanes>
   7097.00  4.1744196E-03
   7097.33  4.2591396E-03
   7097.67  4.3472198E-03
   7098.00  4.4388738E-03
   7098.33  4.5348575E-03
   7098.67  4.6349966E-03
   7099.00  4.7395829E-03
   7099.33  4.8495990E-03
   7099.67  4.9648695E-03
   7100.00  5.0858059E-03
   7100.33  5.2137256E-03
   7100.67  5.3484711E-03
   7101.00  5.4906451E-03
   7101.33  5.6420805E-03
   7101.67  5.8026812E-03
   7102.00  5.9733701E-03
   7102.33  6.1568167E-03
   7102.67  6.3530840E-03
   7103.00  6.5636644E-03
   7103.33  6.7926712E-03
   7103.67  7.0405577E-03
   7104.00  7.3099033E-03
   7104.33  7.6075106E-03
   7104.67  7.9348040E-03
   7105.00  8.2966315E-03
   7105.33  8.7053094E-03
   7105.67  9.1648365E-03
   7106.00  9.6853698E-03
   7106.33  1.0292037E-02
   7106.67  1.0996461E-02
   7107.00  1.1823288E-02
   7107.33  1.2832945E-02
   7107.67  1.4063913E-02
   7108.00  1.5589964E-02
   7108.33  1.7595966E-02
   7108.67  2.0244289E-02
   7109.00  2.3839561E-02
   7109.33  2.9206808E-02
   7109.67  3.7376515E-02
   7110.00  5.0395649E-02
   7110.33  7.4206557E-02
   7110.67  1.1418535E-01
   7111.00  1.6493306E-01
   7111.33  1.8864878E-01
   7111.67  1.8052835E-01
   7112.00  1.6024986E-01
   7112.33  1.3793135E-01
   7112.67  1.1790263E-01
   7113.00  1.0192204E-01
   7113.33  9.0670145E-02
   7113.67  8.4351825E-02
   7114.00  8.0162758E-02
   7114.33  7.1590171E-02
   7114.67  6.0477068E-02
   7115.00  5.0795559E-02
   7115.33  4.5148967E-02
   7115.67  4.2524208E-02
   7116.00  4.2200214E-02
   7116.33  4.3976587E-02
   7116.67  4.7434878E-02
   7117.00  5.2185585E-02
   7117.33  5.6338025E-02
   7117.67  5.7879216E-02
   7118.00  5.7873171E-02
   7118.33  5.8743587E-02
   7118.67  6.1121564E-02
   7119.00  6.4893164E-02
   7119.33  6.9788227E-02
   7119.67  7.5040502E-02
   7120.00  8.0043931E-02
   7120.33  8.4314008E-02
   7120.67  8.8056616E-02
   7121.00  9.1698923E-02
   7121.33  9.5928748E-02
   7121.67  1.0133651E-01
   7122.00  1.0854941E-01
   7122.33  1.1876612E-01
   7122.67  1.3265790E-01
   7123.00  1.5116943E-01
   7123.33  1.7612317E-01
   7123.67  2.0758874E-01
   7124.00  2.4543348E-01
   7124.33  2.8822836E-01
   7124.67  3.3099502E-01
   7125.00  3.6892933E-01
   7125.33  3.9735047E-01
   7125.67  4.1779306E-01
   7126.00  4.3383914E-01
   7126.33  4.5246283E-01
   7126.67  4.7937336E-01
   7127.00  5.1606119E-01
   7127.33  5.6051655E-01
   7127.67  6.0688392E-01
   7128.00  6.5106446E-01
   7128.33  6.8893090E-01
   7128.67  7.2044137E-01
   7129.00  7.4759209E-01
   7129.33  7.7472476E-01
   7129.67  8.0606418E-01
   7130.00  8.4337900E-01
   7130.33  8.8571869E-01
   7130.67  9.2752174E-01
   7131.00  9.6358891E-01
   7131.33  9.8722846E-01
   7131.67  9.9616152E-01
   7132.00  9.8974790E-01
   7132.33  9.6942270E-01
   7132.67  9.4226190E-01
   7133.00  9.1301310E-01
   7133.33  8.8572849E-01
   7133.67  8.6189974E-01
   7134.00  8.4173362E-01
   7134.33  8.2493008E-01
   7134.67  8.0987705E-01
   7135.00  7.9549770E-01
   7135.33  7.8097784E-01
   7135.67  7.6612200E-01
   7136.00  7.5106723E-01
   7136.33  7.3613323E-01
   7136.67  7.2162723E-01
   7137.00  7.0777454E-01
   7137.33  6.9485005E-01
   7137.67  6.8282102E-01
   7138.00  6.7167858E-01
   7138.33  6.6146104E-01
   7138.67  6.5197923E-01
   7139.00  6.4316730E-01
   7139.33  6.3504915E-01
   7139.67  6.2752694E-01
   7140.00  6.2060777E-01
   7140.33  6.1438790E-01
   7140.67  6.0879928E-01
   7141.00  6.0383457E-01
   7141.33  5.9953996E-01
   7141.67  5.9579872E-01
   7142.00  5.9257360E-01
   7142.33  5.8986753E-01
   7142.67  5.8753982E-01
   7143.00  5.8550399E-01
   7143.33  5.8367179E-01
   7143.67  5.8190655E-01
   7144.00  5.8011612E-01
   7144.33  5.7819569E-01
   7144.67  5.7609654E-01
   7145.00  5.7378973E-01
   7145.33  5.7124042E-01
   7145.67  5.6848061E-01
   7146.00  5.6551603E-01
   7146.33  5.6234096E-01
   7146.67  5.5900208E-01
   7147.00  5.5551698E-01
   7147.33  5.5188650E-01
   7147.67  5.4813421E-01
   7148.00  5.4424783E-01
   7148.33  5.4015583E-01
   7148.67  5.3579391E-01
   7149.00  5.3106281E-01
   7149.33  5.2577416E-01
   7149.67  5.1988321E-01
   7150.00  5.1334460E-01
   7150.33  5.0610188E-01
   7150.67  4.9833197E-01
   7151.00  4.9016466E-01
   7151.33  4.8174116E-01
   7151.67  4.7324967E-01
   7152.00  4.6480373E-01
   7152.33  4.5651757E-01
   7152.67  4.4843231E-01
   7153.00  4.4057199E-01
   7153.33  4.3296987E-01
   7153.67  4.2558570E-01
   7154.00  4.1840032E-01
   7154.33  4.1140298E-01
   7154.67  4.0453452E-01
   7155.00  3.9776010E-01
   7155.33  3.9104711E-01
   7155.67  3.8436051E-01
   7156.00  3.7769229E-01
   7156.33  3.7105060E-01
   7156.67  3.6445287E-01
   7157.00  3.5793269E-01
   7157.33  3.5156100E-01
   7157.67  3.4538651E-01
   7158.00  3.3946886E-01
   7158.33  3.3391573E-01
   7158.67  3.2874626E-01
   7159.00  3.2400299E-01
   7159.33  3.1978264E-01
   7159.67  3.1605675E-01
   7160.00  3.1284667E-01
   7160.33  3.1024258E-01
   7160.67  3.0819703E-01
   7161.00  3.0672011E-01
   7161.33  3.0588515E-01
   7161.67  3.0561759E-01
   7162.00  3.0590726E-01
   7162.33  3.0679009E-01
   7162.67  3.0814861E-01
   7163.00  3.0992902E-01
   7163.33  3.1210492E-01
   7163.67  3.1455919E-01
   7164.00  3.1722778E-01
   7164.33  3.2006080E-01
   7164.67  3.2298969E-01
   7165.00  3.2598315E-01
   7165.33  3.2902256E-01
   7165.67  3.3209189E-01
   7166.00  3.3519068E-01
   7166.33  3.3833150E-01
   7166.67  3.4152328E-01
   7167.00  3.4477810E-01
   7167.33  3.4811572E-01
   7167.67  3.5153677E-01
   7168.00  3.5504897E-01
   7168.33  3.5866985E-01
   7168.67  3.6238839E-01
   7169.00  3.6620202E-01
   7169.33  3.7011506E-01
   7169.67  3.7410527E-01
   7170.00  3.7815860E-01
   7170.33  3.8225641E-01
   7170.67  3.8635675E-01
   7171.00  3.9040830E-01
   7171.33  3.9428624E-01
   7171.67  3.9781146E-01
   7172.00  4.0072098E-01
