    FDMNES
    energy     <xanes>
   7097.00  5.1988078E-03
   7097.33  5.3203751E-03
   7097.67  5.4474467E-03
   7098.00  5.5803936E-03
   7098.33  5.7204869E-03
   7098.67  5.8674635E-03
   7099.00  6.0218275E-03
   7099.33  6.1852372E-03
   7099.67  6.3574209E-03
   7100.00  6.5390810E-03
   7100.33  6.7324354E-03
   7100.67  6.9372270E-03
   7101.00  7.1544640E-03
   7101.33  7.3872019E-03
   7101.67  7.6352496E-03
   7102.00  7.9001063E-03
   7102.33  8.1861326E-03
   7102.67  8.4933178E-03
   7103.00  8.8239879E-03
   7103.33  9.1846407E-03
   7103.67  9.5757040E-03
   7104.00  1.0000980E-02
   7104.33  1.0470688E-02
   7104.67  1.0986305E-02
   7105.00  1.1554474E-02
   7105.33  1.2192413E-02
   7105.67  1.2904221E-02
   7106.00  1.3702550E-02
   7106.33  1.4619218E-02
   7106.67  1.5665446E-02
   7107.00  1.6868385E-02
   7107.33  1.8295015E-02
   7107.67  1.9978915E-02
   7108.00  2.1989509E-02
   7108.33  2.4498610E-02
   7108.67  2.7628826E-02
   7109.00  3.1615087E-02
   7109.33  3.7070026E-02
   7109.67  4.4641303E-02
   7110.00  5.5594909E-02
   7110.33  7.3527401E-02
   7110.67  1.0218038E-01
   7111.00  1.4275888E-01
   7111.33  1.8665252E-01
   7111.67  2.2725397E-01
   7112.00  2.6593533E-01
   7112.33  2.9845083E-01
   7112.67  3.2685114E-01
   7113.00  3.5974623E-01
   7113.33  4.0344516E-01
   7113.67  4.4827478E-01
   7114.00  4.6834209E-01
   7114.33  4.3905422E-01
   7114.67  3.8704548E-01
   7115.00  3.3626867E-01
   7115.33  3.0013527E-01
   7115.67  2.7713693E-01
   7116.00  2.6369279E-01
   7116.33  2.5440088E-01
   7116.67  2.4319338E-01
   7117.00  2.2668386E-01
   7117.33  2.0416506E-01
   7117.67  1.8125095E-01
   7118.00  1.6198966E-01
   7118.33  1.4832913E-01
   7118.67  1.3881983E-01
   7119.00  1.3240967E-01
   7119.33  1.2836025E-01
   7119.67  1.2565368E-01
   7120.00  1.2370302E-01
   7120.33  1.2198592E-01
   7120.67  1.2034685E-01
   7121.00  1.1898719E-01
   7121.33  1.1831239E-01
   7121.67  1.1865148E-01
   7122.00  1.2035983E-01
   7122.33  1.2387184E-01
   7122.67  1.2908564E-01
   7123.00  1.3616065E-01
   7123.33  1.4577601E-01
   7123.67  1.5820673E-01
   7124.00  1.7390032E-01
   7124.33  1.9354920E-01
   7124.67  2.1651442E-01
   7125.00  2.4228256E-01
   7125.33  2.7033559E-01
   7125.67  2.9965232E-01
   7126.00  3.2957669E-01
   7126.33  3.5920938E-01
   7126.67  3.8752711E-01
   7127.00  4.1348408E-01
   7127.33  4.3574955E-01
   7127.67  4.5477247E-01
   7128.00  4.7141216E-01
   7128.33  4.8706190E-01
   7128.67  5.0327657E-01
   7129.00  5.2114250E-01
   7129.33  5.4224392E-01
   7129.67  5.6684476E-01
   7130.00  5.9467062E-01
   7130.33  6.2507013E-01
   7130.67  6.5649260E-01
   7131.00  6.8768431E-01
   7131.33  7.1690950E-01
   7131.67  7.4309337E-01
   7132.00  7.6554213E-01
   7132.33  7.8354643E-01
   7132.67  7.9791229E-01
   7133.00  8.0925288E-01
   7133.33  8.1856374E-01
   7133.67  8.2796673E-01
   7134.00  8.3950442E-01
   7134.33  8.5594183E-01
   7134.67  8.7763989E-01
   7135.00  9.0326488E-01
   7135.33  9.2776350E-01
   7135.67  9.4332442E-01
   7136.00  9.4313092E-01
   7136.33  9.2104028E-01
   7136.67  8.8231066E-01
   7137.00  8.3294344E-01
   7137.33  7.7991266E-01
   7137.67  7.2901845E-01
   7138.00  6.8295763E-01
   7138.33  6.4402364E-01
   7138.67  6.1185347E-01
   7139.00  5.8630636E-01
   7139.33  5.6758346E-01
   7139.67  5.5410687E-01
   7140.00  5.4507374E-01
   7140.33  5.3997195E-01
   7140.67  5.3749396E-01
   7141.00  5.3700511E-01
   7141.33  5.3809016E-01
   7141.67  5.4013180E-01
   7142.00  5.4284280E-01
   7142.33  5.4600572E-01
   7142.67  5.4933742E-01
   7143.00  5.5264409E-01
   7143.33  5.5565394E-01
   7143.67  5.5814097E-01
   7144.00  5.5987339E-01
   7144.33  5.6046230E-01
   7144.67  5.5981039E-01
   7145.00  5.5778065E-01
   7145.33  5.5412628E-01
   7145.67  5.4907800E-01
   7146.00  5.4275741E-01
   7146.33  5.3523301E-01
   7146.67  5.2689972E-01
   7147.00  5.1801661E-01
   7147.33  5.0887084E-01
   7147.67  4.9979798E-01
   7148.00  4.9103703E-01
   7148.33  4.8289383E-01
   7148.67  4.7548609E-01
   7149.00  4.6893282E-01
   7149.33  4.6344967E-01
   7149.67  4.5897323E-01
   7150.00  4.5551777E-01
   7150.33  4.5319208E-01
   7150.67  4.5182655E-01
   7151.00  4.5136996E-01
   7151.33  4.5185432E-01
   7151.67  4.5309062E-01
   7152.00  4.5499929E-01
   7152.33  4.5755475E-01
   7152.67  4.6058700E-01
   7153.00  4.6401566E-01
   7153.33  4.6779317E-01
   7153.67  4.7180215E-01
   7154.00  4.7598414E-01
   7154.33  4.8030261E-01
   7154.67  4.8470974E-01
   7155.00  4.8919135E-01
   7155.33  4.9375334E-01
   7155.67  4.9839338E-01
   7156.00  5.0311923E-01
   7156.33  5.0795156E-01
   7156.67  5.1288545E-01
   7157.00  5.1792079E-01
   7157.33  5.2305873E-01
   7157.67  5.2826442E-01
   7158.00  5.3350613E-01
   7158.33  5.3873206E-01
   7158.67  5.4388086E-01
   7159.00  5.4888983E-01
   7159.33  5.5365289E-01
   7159.67  5.5811707E-01
   7160.00  5.6221624E-01
   7160.33  5.6582752E-01
   7160.67  5.6894996E-01
   7161.00  5.7154984E-01
   7161.33  5.7353892E-01
   7161.67  5.7498306E-01
   7162.00  5.7589149E-01
   7162.33  5.7622566E-01
   7162.67  5.7608728E-01
   7163.00  5.7551259E-01
   7163.33  5.7450021E-01
   7163.67  5.7315274E-01
   7164.00  5.7151527E-01
   7164.33  5.6960478E-01
   7164.67  5.6749283E-01
   7165.00  5.6520927E-01
   7165.33  5.6276472E-01
   7165.67  5.6019973E-01
   7166.00  5.5752853E-01
   7166.33  5.5474933E-01
   7166.67  5.5187881E-01
   7167.00  5.4891702E-01
   7167.33  5.4584746E-01
   7167.67  5.4267489E-01
   7168.00  5.3939319E-01
   7168.33  5.3598362E-01
   7168.67  5.3246183E-01
   7169.00  5.2883192E-01
   7169.33  5.2508810E-01
   7169.67  5.2125736E-01
   7170.00  5.1735986E-01
   7170.33  5.1342488E-01
   7170.67  5.0950446E-01
   7171.00  5.0565819E-01
   7171.33  5.0201690E-01
   7171.67  4.9874063E-01
   7172.00  4.9605787E-01
