    FDMNES
    energy     <xanes>
   7097.00  4.8512724E-03
   7097.33  4.9657238E-03
   7097.67  5.0854857E-03
   7098.00  5.2109349E-03
   7098.33  5.3433307E-03
   7098.67  5.4824485E-03
   7099.00  5.6288111E-03
   7099.33  5.7840936E-03
   7099.67  5.9480796E-03
   7100.00  6.1215182E-03
   7100.33  6.3067044E-03
   7100.67  6.5034686E-03
   7101.00  6.7129222E-03
   7101.33  6.9383249E-03
   7101.67  7.1796378E-03
   7102.00  7.4385812E-03
   7102.33  7.7199912E-03
   7102.67  8.0241469E-03
   7103.00  8.3538519E-03
   7103.33  8.7166743E-03
   7103.67  9.1136487E-03
   7104.00  9.5496437E-03
   7104.33  1.0037318E-02
   7104.67  1.0579554E-02
   7105.00  1.1185507E-02
   7105.33  1.1878239E-02
   7105.67  1.2665453E-02
   7106.00  1.3566256E-02
   7106.33  1.4627677E-02
   7106.67  1.5871480E-02
   7107.00  1.7343530E-02
   7107.33  1.9155879E-02
   7107.67  2.1378751E-02
   7108.00  2.4146612E-02
   7108.33  2.7794543E-02
   7108.67  3.2608667E-02
   7109.00  3.9123249E-02
   7109.33  4.8767299E-02
   7109.67  6.3260416E-02
   7110.00  8.5992887E-02
   7110.33  1.2693198E-01
   7110.67  1.9769509E-01
   7111.00  3.0226120E-01
   7111.33  3.9010989E-01
   7111.67  3.9859039E-01
   7112.00  3.3699143E-01
   7112.33  2.5921530E-01
   7112.67  1.9862952E-01
   7113.00  1.5741662E-01
   7113.33  1.3277659E-01
   7113.67  1.1878912E-01
   7114.00  1.1337872E-01
   7114.33  1.1676539E-01
   7114.67  1.2759945E-01
   7115.00  1.4288504E-01
   7115.33  1.5219594E-01
   7115.67  1.4901132E-01
   7116.00  1.3768391E-01
   7116.33  1.2610301E-01
   7116.67  1.1759138E-01
   7117.00  1.1261550E-01
   7117.33  1.1156084E-01
   7117.67  1.1391574E-01
   7118.00  1.1965442E-01
   7118.33  1.2899286E-01
   7118.67  1.4079795E-01
   7119.00  1.5390712E-01
   7119.33  1.6662423E-01
   7119.67  1.7722833E-01
   7120.00  1.8450583E-01
   7120.33  1.8831534E-01
   7120.67  1.9101786E-01
   7121.00  1.9438332E-01
   7121.33  2.0012751E-01
   7121.67  2.0915087E-01
   7122.00  2.2229114E-01
   7122.33  2.4043515E-01
   7122.67  2.6215999E-01
   7123.00  2.8557158E-01
   7123.33  3.0727102E-01
   7123.67  3.2457201E-01
   7124.00  3.3671257E-01
   7124.33  3.4477167E-01
   7124.67  3.5204749E-01
   7125.00  3.6087217E-01
   7125.33  3.7360932E-01
   7125.67  3.9067434E-01
   7126.00  4.1192604E-01
   7126.33  4.3705943E-01
   7126.67  4.6479568E-01
   7127.00  4.9414227E-01
   7127.33  5.2321278E-01
   7127.67  5.4968727E-01
   7128.00  5.7168963E-01
   7128.33  5.8677266E-01
   7128.67  5.9451649E-01
   7129.00  5.9495683E-01
   7129.33  5.8980895E-01
   7129.67  5.8346659E-01
   7130.00  5.7848826E-01
   7130.33  5.7640577E-01
   7130.67  5.7677268E-01
   7131.00  5.7914845E-01
   7131.33  5.8339715E-01
   7131.67  5.8930894E-01
   7132.00  5.9707636E-01
   7132.33  6.0713819E-01
   7132.67  6.1902554E-01
   7133.00  6.3206724E-01
   7133.33  6.4513603E-01
   7133.67  6.5728078E-01
   7134.00  6.6821428E-01
   7134.33  6.7815438E-01
   7134.67  6.8772606E-01
   7135.00  6.9702653E-01
   7135.33  7.0548902E-01
   7135.67  7.1228537E-01
   7136.00  7.1651547E-01
   7136.33  7.1689443E-01
   7136.67  7.1349381E-01
   7137.00  7.0655759E-01
   7137.33  6.9667667E-01
   7137.67  6.8555960E-01
   7138.00  6.7449378E-01
   7138.33  6.6495681E-01
   7138.67  6.5767599E-01
   7139.00  6.5303953E-01
   7139.33  6.5143631E-01
   7139.67  6.5224819E-01
   7140.00  6.5505301E-01
   7140.33  6.5943061E-01
   7140.67  6.6459522E-01
   7141.00  6.7005854E-01
   7141.33  6.7530613E-01
   7141.67  6.7998063E-01
   7142.00  6.8385158E-01
   7142.33  6.8664224E-01
   7142.67  6.8842467E-01
   7143.00  6.8922918E-01
   7143.33  6.8903962E-01
   7143.67  6.8809564E-01
   7144.00  6.8651377E-01
   7144.33  6.8434960E-01
   7144.67  6.8175562E-01
   7145.00  6.7877423E-01
   7145.33  6.7536829E-01
   7145.67  6.7155808E-01
   7146.00  6.6729879E-01
   7146.33  6.6246086E-01
   7146.67  6.5704587E-01
   7147.00  6.5101301E-01
   7147.33  6.4424589E-01
   7147.67  6.3681003E-01
   7148.00  6.2871787E-01
   7148.33  6.1993500E-01
   7148.67  6.1060538E-01
   7149.00  6.0080195E-01
   7149.33  5.9057156E-01
   7149.67  5.8005963E-01
   7150.00  5.6935259E-01
   7150.33  5.5854280E-01
   7150.67  5.4773894E-01
   7151.00  5.3702254E-01
   7151.33  5.2650650E-01
   7151.67  5.1624665E-01
   7152.00  5.0630586E-01
   7152.33  4.9680298E-01
   7152.67  4.8775623E-01
   7153.00  4.7922066E-01
   7153.33  4.7132792E-01
   7153.67  4.6406122E-01
   7154.00  4.5746182E-01
   7154.33  4.5165767E-01
   7154.67  4.4658866E-01
   7155.00  4.4226756E-01
   7155.33  4.3878321E-01
   7155.67  4.3601299E-01
   7156.00  4.3390893E-01
   7156.33  4.3246111E-01
   7156.67  4.3148736E-01
   7157.00  4.3087764E-01
   7157.33  4.3052312E-01
   7157.67  4.3026242E-01
   7158.00  4.2999618E-01
   7158.33  4.2962528E-01
   7158.67  4.2911081E-01
   7159.00  4.2843936E-01
   7159.33  4.2760604E-01
   7159.67  4.2666601E-01
   7160.00  4.2566649E-01
   7160.33  4.2467014E-01
   7160.67  4.2373551E-01
   7161.00  4.2290266E-01
   7161.33  4.2221318E-01
   7161.67  4.2165241E-01
   7162.00  4.2120852E-01
   7162.33  4.2086590E-01
   7162.67  4.2057642E-01
   7163.00  4.2030715E-01
   7163.33  4.2002563E-01
   7163.67  4.1971504E-01
   7164.00  4.1937039E-01
   7164.33  4.1899246E-01
   7164.67  4.1859719E-01
   7165.00  4.1819770E-01
   7165.33  4.1780848E-01
   7165.67  4.1743661E-01
   7166.00  4.1708392E-01
   7166.33  4.1674767E-01
   7166.67  4.1641461E-01
   7167.00  4.1607060E-01
   7167.33  4.1569213E-01
   7167.67  4.1526232E-01
   7168.00  4.1476596E-01
   7168.33  4.1418183E-01
   7168.67  4.1351018E-01
   7169.00  4.1274588E-01
   7169.33  4.1188073E-01
   7169.67  4.1093978E-01
   7170.00  4.0994300E-01
   7170.33  4.0891833E-01
   7170.67  4.0790655E-01
   7171.00  4.0694379E-01
   7171.33  4.0608522E-01
   7171.67  4.0536073E-01
   7172.00  4.0479774E-01
