    FDMNES
    energy     <xanes>
   7097.00  5.2009829E-03
   7097.33  5.3330068E-03
   7097.67  5.4714916E-03
   7098.00  5.6169076E-03
   7098.33  5.7708067E-03
   7098.67  5.9329299E-03
   7099.00  6.1039314E-03
   7099.33  6.2858830E-03
   7099.67  6.4785375E-03
   7100.00  6.6828316E-03
   7100.33  6.9016128E-03
   7100.67  7.1346914E-03
   7101.00  7.3834558E-03
   7101.33  7.6519568E-03
   7101.67  7.9401633E-03
   7102.00  8.2502188E-03
   7102.33  8.5881303E-03
   7102.67  8.9542502E-03
   7103.00  9.3520552E-03
   7103.33  9.7909190E-03
   7103.67  1.0272098E-02
   7104.00  1.0801586E-02
   7104.33  1.1394973E-02
   7104.67  1.2055703E-02
   7105.00  1.2794935E-02
   7105.33  1.3640804E-02
   7105.67  1.4602413E-02
   7106.00  1.5702729E-02
   7106.33  1.6998349E-02
   7106.67  1.8514651E-02
   7107.00  2.0305817E-02
   7107.33  2.2504213E-02
   7107.67  2.5190413E-02
   7108.00  2.8519879E-02
   7108.33  3.2879201E-02
   7108.67  3.8590454E-02
   7109.00  4.6256257E-02
   7109.33  5.7481735E-02
   7109.67  7.4164488E-02
   7110.00  1.0003406E-01
   7110.33  1.4589865E-01
   7110.67  2.2324984E-01
   7111.00  3.3373874E-01
   7111.33  4.3941627E-01
   7111.67  4.9299801E-01
   7112.00  4.7156477E-01
   7112.33  3.9018939E-01
   7112.67  3.0820664E-01
   7113.00  2.4886972E-01
   7113.33  2.1677682E-01
   7113.67  2.0460203E-01
   7114.00  2.0919235E-01
   7114.33  2.2596183E-01
   7114.67  2.4136360E-01
   7115.00  2.4511492E-01
   7115.33  2.3366214E-01
   7115.67  2.1371352E-01
   7116.00  1.9077845E-01
   7116.33  1.6985941E-01
   7116.67  1.5284691E-01
   7117.00  1.4081316E-01
   7117.33  1.3537765E-01
   7117.67  1.3539472E-01
   7118.00  1.3940437E-01
   7118.33  1.4526301E-01
   7118.67  1.5018374E-01
   7119.00  1.5264215E-01
   7119.33  1.5326911E-01
   7119.67  1.5510711E-01
   7120.00  1.5957329E-01
   7120.33  1.6649558E-01
   7120.67  1.7475500E-01
   7121.00  1.8456161E-01
   7121.33  1.9704262E-01
   7121.67  2.1234359E-01
   7122.00  2.3032712E-01
   7122.33  2.5086607E-01
   7122.67  2.7331389E-01
   7123.00  2.9728443E-01
   7123.33  3.2185219E-01
   7123.67  3.4530159E-01
   7124.00  3.6624441E-01
   7124.33  3.8367800E-01
   7124.67  3.9881887E-01
   7125.00  4.1291720E-01
   7125.33  4.2645755E-01
   7125.67  4.3827714E-01
   7126.00  4.4675093E-01
   7126.33  4.5074150E-01
   7126.67  4.5203870E-01
   7127.00  4.5247542E-01
   7127.33  4.5390375E-01
   7127.67  4.5689355E-01
   7128.00  4.6119738E-01
   7128.33  4.6608005E-01
   7128.67  4.7069823E-01
   7129.00  4.7478040E-01
   7129.33  4.7861299E-01
   7129.67  4.8290466E-01
   7130.00  4.8821726E-01
   7130.33  4.9537515E-01
   7130.67  5.0502128E-01
   7131.00  5.1814608E-01
   7131.33  5.3664021E-01
   7131.67  5.6111822E-01
   7132.00  5.9232003E-01
   7132.33  6.3097203E-01
   7132.67  6.7399069E-01
   7133.00  7.1691222E-01
   7133.33  7.5114950E-01
   7133.67  7.7061644E-01
   7134.00  7.7303214E-01
   7134.33  7.5962775E-01
   7134.67  7.3820931E-01
   7135.00  7.1346802E-01
   7135.33  6.8898895E-01
   7135.67  6.6659414E-01
   7136.00  6.4703445E-01
   7136.33  6.3103771E-01
   7136.67  6.1818958E-01
   7137.00  6.0830122E-01
   7137.33  6.0136901E-01
   7137.67  5.9669545E-01
   7138.00  5.9399012E-01
   7138.33  5.9319374E-01
   7138.67  5.9388592E-01
   7139.00  5.9591408E-01
   7139.33  5.9926289E-01
   7139.67  6.0362188E-01
   7140.00  6.0883663E-01
   7140.33  6.1479619E-01
   7140.67  6.2122030E-01
   7141.00  6.2793953E-01
   7141.33  6.3475805E-01
   7141.67  6.4143017E-01
   7142.00  6.4772206E-01
   7142.33  6.5324130E-01
   7142.67  6.5775579E-01
   7143.00  6.6101653E-01
   7143.33  6.6262455E-01
   7143.67  6.6267141E-01
   7144.00  6.6119603E-01
   7144.33  6.5820774E-01
   7144.67  6.5415784E-01
   7145.00  6.4933181E-01
   7145.33  6.4400311E-01
   7145.67  6.3849959E-01
   7146.00  6.3298041E-01
   7146.33  6.2757503E-01
   7146.67  6.2234117E-01
   7147.00  6.1731182E-01
   7147.33  6.1253018E-01
   7147.67  6.0796753E-01
   7148.00  6.0361385E-01
   7148.33  5.9947449E-01
   7148.67  5.9549876E-01
   7149.00  5.9166205E-01
   7149.33  5.8795371E-01
   7149.67  5.8434152E-01
   7150.00  5.8081758E-01
   7150.33  5.7739453E-01
   7150.67  5.7407559E-01
   7151.00  5.7088406E-01
   7151.33  5.6788013E-01
   7151.67  5.6509339E-01
   7152.00  5.6257367E-01
   7152.33  5.6042384E-01
   7152.67  5.5866298E-01
   7153.00  5.5733643E-01
   7153.33  5.5654206E-01
   7153.67  5.5623499E-01
   7154.00  5.5640228E-01
   7154.33  5.5705135E-01
   7154.67  5.5804963E-01
   7155.00  5.5930487E-01
   7155.33  5.6070221E-01
   7155.67  5.6207948E-01
   7156.00  5.6330769E-01
   7156.33  5.6420715E-01
   7156.67  5.6468908E-01
   7157.00  5.6466632E-01
   7157.33  5.6399302E-01
   7157.67  5.6269997E-01
   7158.00  5.6077676E-01
   7158.33  5.5816140E-01
   7158.67  5.5497462E-01
   7159.00  5.5127298E-01
   7159.33  5.4707184E-01
   7159.67  5.4249844E-01
   7160.00  5.3761313E-01
   7160.33  5.3244857E-01
   7160.67  5.2708820E-01
   7161.00  5.2156624E-01
   7161.33  5.1589439E-01
   7161.67  5.1010408E-01
   7162.00  5.0419538E-01
   7162.33  4.9814364E-01
   7162.67  4.9195183E-01
   7163.00  4.8560963E-01
   7163.33  4.7908921E-01
   7163.67  4.7240986E-01
   7164.00  4.6558084E-01
   7164.33  4.5860981E-01
   7164.67  4.5154858E-01
   7165.00  4.4443737E-01
   7165.33  4.3733226E-01
   7165.67  4.3029296E-01
   7166.00  4.2337095E-01
   7166.33  4.1664500E-01
   7166.67  4.1014651E-01
   7167.00  4.0391729E-01
   7167.33  3.9804088E-01
   7167.67  3.9251684E-01
   7168.00  3.8737063E-01
   7168.33  3.8267463E-01
   7168.67  3.7839618E-01
   7169.00  3.7454648E-01
   7169.33  3.7118864E-01
   7169.67  3.6827191E-01
   7170.00  3.6579544E-01
   7170.33  3.6380564E-01
   7170.67  3.6223165E-01
   7171.00  3.6104895E-01
   7171.33  3.6025435E-01
   7171.67  3.5972726E-01
   7172.00  3.5936790E-01
