    FDMNES
    energy     <xanes>
   7097.00  3.9275827E-03
   7097.33  4.0005697E-03
   7097.67  4.0762007E-03
   7098.00  4.1546321E-03
   7098.33  4.2364399E-03
   7098.67  4.3214716E-03
   7099.00  4.4099385E-03
   7099.33  4.5025773E-03
   7099.67  4.5992316E-03
   7100.00  4.7001950E-03
   7100.33  4.8064394E-03
   7100.67  4.9178157E-03
   7101.00  5.0347487E-03
   7101.33  5.1585671E-03
   7101.67  5.2891573E-03
   7102.00  5.4271604E-03
   7102.33  5.5744772E-03
   7102.67  5.7310915E-03
   7103.00  5.8980251E-03
   7103.33  6.0781510E-03
   7103.67  6.2716973E-03
   7104.00  6.4804017E-03
   7104.33  6.7089189E-03
   7104.67  6.9580851E-03
   7105.00  7.2311066E-03
   7105.33  7.5362189E-03
   7105.67  7.8758542E-03
   7106.00  8.2565792E-03
   7106.33  8.6947464E-03
   7106.67  9.1974178E-03
   7107.00  9.7800654E-03
   7107.33  1.0480683E-02
   7107.67  1.1322129E-02
   7108.00  1.2348892E-02
   7108.33  1.3671896E-02
   7108.67  1.5383642E-02
   7109.00  1.7657791E-02
   7109.33  2.0958452E-02
   7109.67  2.5838694E-02
   7110.00  3.3387439E-02
   7110.33  4.6731085E-02
   7110.67  6.8775587E-02
   7111.00  9.8058949E-02
   7111.33  1.2277795E-01
   7111.67  1.4053146E-01
   7112.00  1.4999880E-01
   7112.33  1.4096044E-01
   7112.67  1.1398952E-01
   7113.00  8.4222697E-02
   7113.33  6.3945331E-02
   7113.67  5.1437037E-02
   7114.00  4.4422807E-02
   7114.33  4.1104675E-02
   7114.67  3.8512759E-02
   7115.00  3.4998718E-02
   7115.33  3.1535229E-02
   7115.67  2.9425252E-02
   7116.00  2.8536019E-02
   7116.33  2.8594867E-02
   7116.67  2.9261379E-02
   7117.00  3.0417252E-02
   7117.33  3.2025854E-02
   7117.67  3.4004448E-02
   7118.00  3.6381996E-02
   7118.33  3.9299367E-02
   7118.67  4.2694294E-02
   7119.00  4.6372253E-02
   7119.33  5.0100793E-02
   7119.67  5.3836637E-02
   7120.00  5.7482067E-02
   7120.33  6.0768629E-02
   7120.67  6.3630064E-02
   7121.00  6.6152147E-02
   7121.33  6.8589328E-02
   7121.67  7.1340393E-02
   7122.00  7.4799633E-02
   7122.33  7.9597408E-02
   7122.67  8.6059899E-02
   7123.00  9.4556117E-02
   7123.33  1.0568474E-01
   7123.67  1.1931651E-01
   7124.00  1.3574305E-01
   7124.33  1.5668301E-01
   7124.67  1.8397836E-01
   7125.00  2.2003905E-01
   7125.33  2.6846409E-01
   7125.67  3.2715632E-01
   7126.00  3.9019098E-01
   7126.33  4.4327769E-01
   7126.67  4.7684049E-01
   7127.00  4.9032040E-01
   7127.33  4.8905510E-01
   7127.67  4.8405117E-01
   7128.00  4.8193185E-01
   7128.33  4.8839625E-01
   7128.67  5.0513641E-01
   7129.00  5.3411078E-01
   7129.33  5.8016848E-01
   7129.67  6.4521053E-01
   7130.00  7.3264202E-01
   7130.33  8.4765217E-01
   7130.67  9.8283196E-01
   7131.00  1.1244975E+00
   7131.33  1.2422328E+00
   7131.67  1.3122814E+00
   7132.00  1.3258689E+00
   7132.33  1.2824811E+00
   7132.67  1.2034369E+00
   7133.00  1.1044647E+00
   7133.33  1.0021015E+00
   7133.67  9.0859054E-01
   7134.00  8.2949642E-01
   7134.33  7.6850694E-01
   7134.67  7.2140089E-01
   7135.00  6.8500182E-01
   7135.33  6.5700894E-01
   7135.67  6.3442462E-01
   7136.00  6.1625265E-01
   7136.33  6.0229349E-01
   7136.67  5.9165325E-01
   7137.00  5.8403560E-01
   7137.33  5.7944043E-01
   7137.67  5.7717682E-01
   7138.00  5.7692188E-01
   7138.33  5.7849968E-01
   7138.67  5.8135692E-01
   7139.00  5.8524488E-01
   7139.33  5.9005929E-01
   7139.67  5.9558715E-01
   7140.00  6.0180802E-01
   7140.33  6.0886530E-01
   7140.67  6.1677974E-01
   7141.00  6.2568557E-01
   7141.33  6.3591015E-01
   7141.67  6.4748444E-01
   7142.00  6.6052276E-01
   7142.33  6.7524341E-01
   7142.67  6.9132618E-01
   7143.00  7.0849955E-01
   7143.33  7.2623612E-01
   7143.67  7.4347447E-01
   7144.00  7.5908861E-01
   7144.33  7.7122907E-01
   7144.67  7.7886718E-01
   7145.00  7.8106937E-01
   7145.33  7.7660024E-01
   7145.67  7.6645637E-01
   7146.00  7.5137992E-01
   7146.33  7.3213198E-01
   7146.67  7.1049180E-01
   7147.00  6.8747803E-01
   7147.33  6.6398469E-01
   7147.67  6.4073656E-01
   7148.00  6.1811655E-01
   7148.33  5.9650919E-01
   7148.67  5.7594419E-01
   7149.00  5.5647653E-01
   7149.33  5.3825289E-01
   7149.67  5.2110845E-01
   7150.00  5.0500516E-01
   7150.33  4.9003207E-01
   7150.67  4.7605773E-01
   7151.00  4.6305185E-01
   7151.33  4.5105369E-01
   7151.67  4.3988919E-01
   7152.00  4.2951164E-01
   7152.33  4.1995974E-01
   7152.67  4.1108705E-01
   7153.00  4.0284223E-01
   7153.33  3.9522742E-01
   7153.67  3.8809524E-01
   7154.00  3.8137267E-01
   7154.33  3.7501049E-01
   7154.67  3.6888012E-01
   7155.00  3.6291061E-01
   7155.33  3.5704249E-01
   7155.67  3.5121530E-01
   7156.00  3.4541075E-01
   7156.33  3.3964530E-01
   7156.67  3.3396665E-01
   7157.00  3.2845168E-01
   7157.33  3.2325557E-01
   7157.67  3.1847826E-01
   7158.00  3.1422705E-01
   7158.33  3.1065904E-01
   7158.67  3.0770021E-01
   7159.00  3.0527529E-01
   7159.33  3.0326766E-01
   7159.67  3.0144037E-01
   7160.00  2.9966999E-01
   7160.33  2.9793027E-01
   7160.67  2.9633267E-01
   7161.00  2.9506824E-01
   7161.33  2.9447985E-01
   7161.67  2.9473586E-01
   7162.00  2.9599664E-01
   7162.33  2.9851262E-01
   7162.67  3.0216741E-01
   7163.00  3.0691701E-01
   7163.33  3.1276771E-01
   7163.67  3.1942783E-01
   7164.00  3.2672473E-01
   7164.33  3.3449774E-01
   7164.67  3.4248289E-01
   7165.00  3.5050898E-01
   7165.33  3.5838726E-01
   7165.67  3.6600244E-01
   7166.00  3.7326993E-01
   7166.33  3.8006990E-01
   7166.67  3.8641797E-01
   7167.00  3.9230274E-01
   7167.33  3.9767103E-01
   7167.67  4.0259854E-01
   7168.00  4.0710929E-01
   7168.33  4.1119166E-01
   7168.67  4.1493697E-01
   7169.00  4.1838779E-01
   7169.33  4.2156631E-01
   7169.67  4.2455423E-01
   7170.00  4.2739183E-01
   7170.33  4.3010305E-01
   7170.67  4.3272342E-01
   7171.00  4.3525163E-01
   7171.33  4.3763446E-01
   7171.67  4.3979017E-01
   7172.00  4.4157816E-01
