    FDMNES
    energy     <xanes>
   7097.00  5.1110157E-03
   7097.33  5.2377234E-03
   7097.67  5.3704711E-03
   7098.00  5.5096884E-03
   7098.33  5.6568089E-03
   7098.67  5.8115761E-03
   7099.00  5.9745838E-03
   7099.33  6.1477331E-03
   7099.67  6.3307728E-03
   7100.00  6.5245466E-03
   7100.33  6.7316476E-03
   7100.67  6.9518671E-03
   7101.00  7.1864451E-03
   7101.33  7.4390375E-03
   7101.67  7.7095607E-03
   7102.00  7.9999102E-03
   7102.33  8.3154502E-03
   7102.67  8.6564059E-03
   7103.00  9.0258149E-03
   7103.33  9.4319418E-03
   7103.67  9.8757422E-03
   7104.00  1.0362377E-02
   7104.33  1.0905380E-02
   7104.67  1.1507466E-02
   7105.00  1.2178075E-02
   7105.33  1.2941177E-02
   7105.67  1.3803978E-02
   7106.00  1.4785509E-02
   7106.33  1.5932892E-02
   7106.67  1.7266075E-02
   7107.00  1.8828868E-02
   7107.33  2.0728538E-02
   7107.67  2.3027586E-02
   7108.00  2.5848464E-02
   7108.33  2.9495624E-02
   7108.67  3.4215722E-02
   7109.00  4.0473489E-02
   7109.33  4.9506885E-02
   7109.67  6.2767684E-02
   7110.00  8.3117421E-02
   7110.33  1.1876407E-01
   7110.67  1.7726534E-01
   7111.00  2.5407831E-01
   7111.33  3.1141543E-01
   7111.67  3.4160216E-01
   7112.00  3.6355660E-01
   7112.33  3.9553233E-01
   7112.67  4.3082030E-01
   7113.00  4.4771320E-01
   7113.33  4.2770006E-01
   7113.67  3.8367156E-01
   7114.00  3.2538856E-01
   7114.33  2.6462971E-01
   7114.67  2.1336437E-01
   7115.00  1.7490375E-01
   7115.33  1.4843012E-01
   7115.67  1.2880951E-01
   7116.00  1.1380042E-01
   7116.33  1.0305638E-01
   7116.67  9.6044052E-02
   7117.00  9.2289455E-02
   7117.33  9.1058540E-02
   7117.67  9.1099254E-02
   7118.00  9.1894298E-02
   7118.33  9.3295830E-02
   7118.67  9.5212796E-02
   7119.00  9.7686045E-02
   7119.33  1.0084465E-01
   7119.67  1.0457067E-01
   7120.00  1.0900667E-01
   7120.33  1.1492653E-01
   7120.67  1.2277238E-01
   7121.00  1.3275574E-01
   7121.33  1.4529920E-01
   7121.67  1.6053196E-01
   7122.00  1.7883033E-01
   7122.33  2.0049264E-01
   7122.67  2.2425368E-01
   7123.00  2.4890343E-01
   7123.33  2.7328356E-01
   7123.67  2.9707220E-01
   7124.00  3.2037746E-01
   7124.33  3.4313463E-01
   7124.67  3.6486830E-01
   7125.00  3.8504272E-01
   7125.33  4.0357094E-01
   7125.67  4.2176966E-01
   7126.00  4.4105589E-01
   7126.33  4.6300465E-01
   7126.67  4.8758144E-01
   7127.00  5.1416547E-01
   7127.33  5.4162076E-01
   7127.67  5.6844499E-01
   7128.00  5.9329259E-01
   7128.33  6.1471151E-01
   7128.67  6.3417130E-01
   7129.00  6.5416954E-01
   7129.33  6.7698805E-01
   7129.67  7.0155888E-01
   7130.00  7.2534615E-01
   7130.33  7.4387283E-01
   7130.67  7.5458015E-01
   7131.00  7.5645593E-01
   7131.33  7.4936319E-01
   7131.67  7.3686569E-01
   7132.00  7.2217794E-01
   7132.33  7.0952454E-01
   7132.67  7.0158073E-01
   7133.00  6.9931709E-01
   7133.33  7.0295604E-01
   7133.67  7.1048875E-01
   7134.00  7.2060180E-01
   7134.33  7.3201194E-01
   7134.67  7.4301843E-01
   7135.00  7.5212117E-01
   7135.33  7.5761263E-01
   7135.67  7.5960804E-01
   7136.00  7.5846062E-01
   7136.33  7.5431314E-01
   7136.67  7.4780986E-01
   7137.00  7.3925042E-01
   7137.33  7.2907068E-01
   7137.67  7.1830927E-01
   7138.00  7.0771058E-01
   7138.33  6.9803512E-01
   7138.67  6.8949479E-01
   7139.00  6.8204752E-01
   7139.33  6.7535791E-01
   7139.67  6.6860465E-01
   7140.00  6.6108413E-01
   7140.33  6.5208055E-01
   7140.67  6.4185822E-01
   7141.00  6.3111350E-01
   7141.33  6.2117838E-01
   7141.67  6.1317344E-01
   7142.00  6.0778818E-01
   7142.33  6.0561122E-01
   7142.67  6.0592468E-01
   7143.00  6.0803251E-01
   7143.33  6.1091031E-01
   7143.67  6.1324514E-01
   7144.00  6.1408096E-01
   7144.33  6.1234794E-01
   7144.67  6.0803679E-01
   7145.00  6.0129979E-01
   7145.33  5.9244804E-01
   7145.67  5.8242767E-01
   7146.00  5.7183261E-01
   7146.33  5.6125640E-01
   7146.67  5.5114099E-01
   7147.00  5.4174443E-01
   7147.33  5.3334939E-01
   7147.67  5.2590655E-01
   7148.00  5.1940643E-01
   7148.33  5.1389139E-01
   7148.67  5.0914077E-01
   7149.00  5.0503540E-01
   7149.33  5.0147937E-01
   7149.67  4.9824621E-01
   7150.00  4.9519781E-01
   7150.33  4.9219821E-01
   7150.67  4.8913977E-01
   7151.00  4.8597851E-01
   7151.33  4.8270823E-01
   7151.67  4.7940452E-01
   7152.00  4.7615826E-01
   7152.33  4.7312724E-01
   7152.67  4.7043873E-01
   7153.00  4.6822667E-01
   7153.33  4.6671524E-01
   7153.67  4.6594248E-01
   7154.00  4.6596570E-01
   7154.33  4.6688168E-01
   7154.67  4.6850272E-01
   7155.00  4.7068647E-01
   7155.33  4.7324935E-01
   7155.67  4.7588489E-01
   7156.00  4.7835931E-01
   7156.33  4.8036958E-01
   7156.67  4.8175589E-01
   7157.00  4.8237324E-01
   7157.33  4.8198175E-01
   7157.67  4.8060724E-01
   7158.00  4.7820754E-01
   7158.33  4.7464211E-01
   7158.67  4.7007429E-01
   7159.00  4.6457114E-01
   7159.33  4.5814788E-01
   7159.67  4.5105976E-01
   7160.00  4.4346027E-01
   7160.33  4.3550269E-01
   7160.67  4.2742187E-01
   7161.00  4.1937775E-01
   7161.33  4.1156515E-01
   7161.67  4.0409356E-01
   7162.00  3.9704481E-01
   7162.33  3.9053493E-01
   7162.67  3.8453974E-01
   7163.00  3.7907927E-01
   7163.33  3.7422645E-01
   7163.67  3.6990597E-01
   7164.00  3.6610446E-01
   7164.33  3.6286235E-01
   7164.67  3.6009153E-01
   7165.00  3.5776751E-01
   7165.33  3.5591213E-01
   7165.67  3.5444331E-01
   7166.00  3.5333650E-01
   7166.33  3.5260614E-01
   7166.67  3.5218435E-01
   7167.00  3.5205075E-01
   7167.33  3.5221760E-01
   7167.67  3.5263240E-01
   7168.00  3.5327946E-01
   7168.33  3.5416827E-01
   7168.67  3.5525556E-01
   7169.00  3.5652763E-01
   7169.33  3.5798950E-01
   7169.67  3.5960277E-01
   7170.00  3.6135093E-01
   7170.33  3.6322546E-01
   7170.67  3.6518261E-01
   7171.00  3.6718564E-01
   7171.33  3.6916152E-01
   7171.67  3.7098716E-01
   7172.00  3.7249733E-01
