    FDMNES
    energy     <xanes>
   7097.00  4.8200165E-03
   7097.33  4.9295428E-03
   7097.67  5.0438726E-03
   7098.00  5.1633208E-03
   7098.33  5.2889821E-03
   7098.67  5.4206149E-03
   7099.00  5.5586445E-03
   7099.33  5.7044891E-03
   7099.67  5.8578963E-03
   7100.00  6.0194547E-03
   7100.33  6.1910474E-03
   7100.67  6.3724289E-03
   7101.00  6.5644381E-03
   7101.33  6.7696489E-03
   7101.67  6.9878627E-03
   7102.00  7.2203183E-03
   7102.33  7.4706585E-03
   7102.67  7.7388216E-03
   7103.00  8.0267154E-03
   7103.33  8.3397218E-03
   7103.67  8.6781195E-03
   7104.00  9.0450055E-03
   7104.33  9.4487692E-03
   7104.67  9.8905151E-03
   7105.00  1.0375617E-02
   7105.33  1.0918093E-02
   7105.67  1.1521120E-02
   7106.00  1.2194877E-02
   7106.33  1.2965079E-02
   7106.67  1.3840562E-02
   7107.00  1.4843090E-02
   7107.33  1.6026508E-02
   7107.67  1.7417514E-02
   7108.00  1.9071721E-02
   7108.33  2.1127005E-02
   7108.67  2.3681626E-02
   7109.00  2.6924334E-02
   7109.33  3.1348017E-02
   7109.67  3.7475114E-02
   7110.00  4.6328630E-02
   7110.33  6.0837860E-02
   7110.67  8.4257363E-02
   7111.00  1.1832234E-01
   7111.33  1.5506430E-01
   7111.67  1.8395365E-01
   7112.00  2.0430641E-01
   7112.33  2.2188020E-01
   7112.67  2.4484177E-01
   7113.00  2.6590758E-01
   7113.33  2.9439153E-01
   7113.67  3.3663235E-01
   7114.00  3.8296907E-01
   7114.33  4.0350183E-01
   7114.67  3.7738993E-01
   7115.00  3.2165303E-01
   7115.33  2.5663459E-01
   7115.67  2.0664274E-01
   7116.00  1.7972816E-01
   7116.33  1.7567980E-01
   7116.67  1.8833757E-01
   7117.00  2.1458445E-01
   7117.33  2.4819499E-01
   7117.67  2.7849419E-01
   7118.00  2.9847619E-01
   7118.33  3.0089218E-01
   7118.67  2.8760292E-01
   7119.00  2.6410155E-01
   7119.33  2.3792513E-01
   7119.67  2.1440493E-01
   7120.00  1.9519902E-01
   7120.33  1.8037993E-01
   7120.67  1.6794100E-01
   7121.00  1.5691343E-01
   7121.33  1.4736104E-01
   7121.67  1.3967470E-01
   7122.00  1.3427176E-01
   7122.33  1.3165781E-01
   7122.67  1.3153367E-01
   7123.00  1.3381419E-01
   7123.33  1.3849961E-01
   7123.67  1.4484038E-01
   7124.00  1.5237111E-01
   7124.33  1.6089904E-01
   7124.67  1.7045940E-01
   7125.00  1.8147929E-01
   7125.33  1.9479155E-01
   7125.67  2.1051411E-01
   7126.00  2.2862371E-01
   7126.33  2.4880670E-01
   7126.67  2.6994975E-01
   7127.00  2.9151489E-01
   7127.33  3.1356469E-01
   7127.67  3.3639722E-01
   7128.00  3.6021025E-01
   7128.33  3.8516997E-01
   7128.67  4.1114279E-01
   7129.00  4.3810323E-01
   7129.33  4.6583851E-01
   7129.67  4.9356512E-01
   7130.00  5.2058469E-01
   7130.33  5.4617073E-01
   7130.67  5.7052148E-01
   7131.00  5.9419390E-01
   7131.33  6.1815210E-01
   7131.67  6.4327958E-01
   7132.00  6.7014449E-01
   7132.33  6.9912668E-01
   7132.67  7.2938506E-01
   7133.00  7.5977409E-01
   7133.33  7.8809176E-01
   7133.67  8.1231907E-01
   7134.00  8.3086530E-01
   7134.33  8.4204530E-01
   7134.67  8.4690204E-01
   7135.00  8.4614036E-01
   7135.33  8.4013425E-01
   7135.67  8.3034132E-01
   7136.00  8.1739603E-01
   7136.33  8.0156592E-01
   7136.67  7.8358578E-01
   7137.00  7.6368417E-01
   7137.33  7.4182007E-01
   7137.67  7.1838379E-01
   7138.00  6.9360167E-01
   7138.33  6.6780045E-01
   7138.67  6.4175395E-01
   7139.00  6.1616686E-01
   7139.33  5.9206217E-01
   7139.67  5.7001716E-01
   7140.00  5.5047640E-01
   7140.33  5.3403294E-01
   7140.67  5.2033944E-01
   7141.00  5.0925766E-01
   7141.33  5.0084920E-01
   7141.67  4.9456777E-01
   7142.00  4.9021820E-01
   7142.33  4.8781978E-01
   7142.67  4.8698324E-01
   7143.00  4.8756920E-01
   7143.33  4.8956441E-01
   7143.67  4.9261656E-01
   7144.00  4.9652201E-01
   7144.33  5.0105174E-01
   7144.67  5.0577186E-01
   7145.00  5.1033304E-01
   7145.33  5.1424203E-01
   7145.67  5.1718097E-01
   7146.00  5.1888672E-01
   7146.33  5.1902384E-01
   7146.67  5.1781267E-01
   7147.00  5.1548154E-01
   7147.33  5.1244516E-01
   7147.67  5.0941408E-01
   7148.00  5.0687566E-01
   7148.33  5.0535499E-01
   7148.67  5.0497180E-01
   7149.00  5.0578247E-01
   7149.33  5.0785125E-01
   7149.67  5.1085640E-01
   7150.00  5.1459535E-01
   7150.33  5.1887918E-01
   7150.67  5.2341576E-01
   7151.00  5.2803801E-01
   7151.33  5.3259370E-01
   7151.67  5.3700506E-01
   7152.00  5.4124859E-01
   7152.33  5.4533745E-01
   7152.67  5.4935832E-01
   7153.00  5.5337954E-01
   7153.33  5.5748377E-01
   7153.67  5.6171602E-01
   7154.00  5.6609978E-01
   7154.33  5.7065015E-01
   7154.67  5.7531250E-01
   7155.00  5.8003308E-01
   7155.33  5.8472771E-01
   7155.67  5.8930709E-01
   7156.00  5.9369053E-01
   7156.33  5.9775472E-01
   7156.67  6.0146000E-01
   7157.00  6.0475558E-01
   7157.33  6.0754362E-01
   7157.67  6.0985696E-01
   7158.00  6.1168762E-01
   7158.33  6.1297742E-01
   7158.67  6.1379702E-01
   7159.00  6.1415932E-01
   7159.33  6.1402623E-01
   7159.67  6.1347101E-01
   7160.00  6.1251017E-01
   7160.33  6.1111040E-01
   7160.67  6.0933041E-01
   7161.00  6.0717903E-01
   7161.33  6.0462003E-01
   7161.67  6.0170367E-01
   7162.00  5.9843373E-01
   7162.33  5.9477126E-01
   7162.67  5.9076568E-01
   7163.00  5.8642393E-01
   7163.33  5.8171620E-01
   7163.67  5.7669792E-01
   7164.00  5.7138560E-01
   7164.33  5.6576881E-01
   7164.67  5.5990987E-01
   7165.00  5.5383810E-01
   7165.33  5.4757162E-01
   7165.67  5.4117786E-01
   7166.00  5.3470018E-01
   7166.33  5.2818711E-01
   7166.67  5.2169573E-01
   7167.00  5.1527116E-01
   7167.33  5.0897687E-01
   7167.67  5.0284220E-01
   7168.00  4.9689996E-01
   7168.33  4.9121225E-01
   7168.67  4.8578205E-01
   7169.00  4.8062741E-01
   7169.33  4.7579253E-01
   7169.67  4.7124460E-01
   7170.00  4.6698485E-01
   7170.33  4.6305211E-01
   7170.67  4.5941698E-01
   7171.00  4.5609168E-01
   7171.33  4.5314888E-01
   7171.67  4.5061233E-01
   7172.00  4.4857341E-01
