    FDMNES
    energy     <xanes>
   7097.00  4.8206413E-03
   7097.33  4.9314056E-03
   7097.67  5.0470889E-03
   7098.00  5.1680205E-03
   7098.33  5.2953330E-03
   7098.67  5.4287893E-03
   7099.00  5.5688380E-03
   7099.33  5.7169577E-03
   7099.67  5.8729060E-03
   7100.00  6.0373104E-03
   7100.33  6.2121532E-03
   7100.67  6.3972098E-03
   7101.00  6.5933867E-03
   7101.33  6.8034263E-03
   7101.67  7.0271736E-03
   7102.00  7.2659885E-03
   7102.33  7.5238122E-03
   7102.67  7.8006734E-03
   7103.00  8.0987075E-03
   7103.33  8.4238469E-03
   7103.67  8.7765651E-03
   7104.00  9.1604058E-03
   7104.33  9.5848272E-03
   7104.67  1.0051371E-02
   7105.00  1.0566339E-02
   7105.33  1.1145951E-02
   7105.67  1.1794420E-02
   7106.00  1.2523988E-02
   7106.33  1.3365246E-02
   7106.67  1.4329662E-02
   7107.00  1.5443980E-02
   7107.33  1.6773800E-02
   7107.67  1.8353098E-02
   7108.00  2.0250665E-02
   7108.33  2.2635527E-02
   7108.67  2.5627443E-02
   7109.00  2.9452389E-02
   7109.33  3.4688574E-02
   7109.67  4.1911227E-02
   7110.00  5.2217865E-02
   7110.33  6.8672509E-02
   7110.67  9.4909748E-02
   7111.00  1.3571604E-01
   7111.33  2.0084526E-01
   7111.67  2.9867964E-01
   7112.00  4.0818265E-01
   7112.33  4.1765995E-01
   7112.67  3.4335252E-01
   7113.00  2.6993396E-01
   7113.33  2.2151884E-01
   7113.67  1.8708118E-01
   7114.00  1.6304321E-01
   7114.33  1.4414667E-01
   7114.67  1.2770293E-01
   7115.00  1.1318240E-01
   7115.33  1.0219812E-01
   7115.67  9.6211347E-02
   7116.00  9.5877367E-02
   7116.33  1.0109558E-01
   7116.67  1.0975165E-01
   7117.00  1.2017350E-01
   7117.33  1.3033800E-01
   7117.67  1.3990515E-01
   7118.00  1.4965993E-01
   7118.33  1.5919276E-01
   7118.67  1.6847353E-01
   7119.00  1.7957700E-01
   7119.33  1.9594198E-01
   7119.67  2.1792157E-01
   7120.00  2.4488192E-01
   7120.33  2.7622653E-01
   7120.67  3.1113401E-01
   7121.00  3.4991748E-01
   7121.33  3.9309262E-01
   7121.67  4.3855691E-01
   7122.00  4.8254500E-01
   7122.33  5.1696549E-01
   7122.67  5.3657431E-01
   7123.00  5.3965453E-01
   7123.33  5.2734685E-01
   7123.67  5.0693121E-01
   7124.00  4.8284785E-01
   7124.33  4.5755605E-01
   7124.67  4.3165632E-01
   7125.00  4.0621068E-01
   7125.33  3.8406616E-01
   7125.67  3.6655543E-01
   7126.00  3.5416239E-01
   7126.33  3.4805774E-01
   7126.67  3.4777813E-01
   7127.00  3.5230519E-01
   7127.33  3.5921635E-01
   7127.67  3.6565227E-01
   7128.00  3.7055035E-01
   7128.33  3.7414097E-01
   7128.67  3.7844757E-01
   7129.00  3.8526185E-01
   7129.33  3.9557834E-01
   7129.67  4.0752757E-01
   7130.00  4.1910830E-01
   7130.33  4.2871868E-01
   7130.67  4.3672310E-01
   7131.00  4.4390547E-01
   7131.33  4.5139054E-01
   7131.67  4.6018080E-01
   7132.00  4.7094210E-01
   7132.33  4.8422593E-01
   7132.67  4.9928321E-01
   7133.00  5.1509150E-01
   7133.33  5.2995357E-01
   7133.67  5.4270388E-01
   7134.00  5.5307576E-01
   7134.33  5.6142356E-01
   7134.67  5.6851392E-01
   7135.00  5.7401430E-01
   7135.33  5.7673253E-01
   7135.67  5.7673485E-01
   7136.00  5.7451165E-01
   7136.33  5.7079079E-01
   7136.67  5.6667773E-01
   7137.00  5.6294944E-01
   7137.33  5.6055601E-01
   7137.67  5.5992973E-01
   7138.00  5.6131662E-01
   7138.33  5.6490106E-01
   7138.67  5.6999207E-01
   7139.00  5.7593198E-01
   7139.33  5.8176580E-01
   7139.67  5.8661499E-01
   7140.00  5.8994479E-01
   7140.33  5.9128716E-01
   7140.67  5.9099274E-01
   7141.00  5.8938577E-01
   7141.33  5.8685571E-01
   7141.67  5.8403250E-01
   7142.00  5.8135607E-01
   7142.33  5.7935949E-01
   7142.67  5.7834649E-01
   7143.00  5.7857993E-01
   7143.33  5.8047900E-01
   7143.67  5.8399810E-01
   7144.00  5.8915489E-01
   7144.33  5.9600597E-01
   7144.67  6.0405289E-01
   7145.00  6.1290033E-01
   7145.33  6.2201583E-01
   7145.67  6.3076921E-01
   7146.00  6.3867297E-01
   7146.33  6.4508536E-01
   7146.67  6.4983966E-01
   7147.00  6.5278522E-01
   7147.33  6.5367839E-01
   7147.67  6.5288811E-01
   7148.00  6.5063067E-01
   7148.33  6.4707662E-01
   7148.67  6.4268441E-01
   7149.00  6.3769701E-01
   7149.33  6.3233786E-01
   7149.67  6.2687038E-01
   7150.00  6.2143600E-01
   7150.33  6.1616857E-01
   7150.67  6.1112369E-01
   7151.00  6.0634009E-01
   7151.33  6.0187294E-01
   7151.67  5.9769111E-01
   7152.00  5.9379270E-01
   7152.33  5.9020546E-01
   7152.67  5.8688159E-01
   7153.00  5.8380258E-01
   7153.33  5.8096188E-01
   7153.67  5.7828666E-01
   7154.00  5.7572889E-01
   7154.33  5.7323721E-01
   7154.67  5.7075306E-01
   7155.00  5.6824650E-01
   7155.33  5.6569979E-01
   7155.67  5.6312722E-01
   7156.00  5.6055175E-01
   7156.33  5.5801316E-01
   7156.67  5.5554431E-01
   7157.00  5.5317239E-01
   7157.33  5.5093518E-01
   7157.67  5.4883017E-01
   7158.00  5.4685930E-01
   7158.33  5.4502855E-01
   7158.67  5.4329796E-01
   7159.00  5.4163397E-01
   7159.33  5.3998230E-01
   7159.67  5.3826869E-01
   7160.00  5.3642212E-01
   7160.33  5.3433227E-01
   7160.67  5.3193875E-01
   7161.00  5.2916999E-01
   7161.33  5.2591183E-01
   7161.67  5.2220056E-01
   7162.00  5.1806616E-01
   7162.33  5.1353679E-01
   7162.67  5.0873711E-01
   7163.00  5.0373740E-01
   7163.33  4.9859833E-01
   7163.67  4.9340355E-01
   7164.00  4.8820874E-01
   7164.33  4.8308917E-01
   7164.67  4.7810954E-01
   7165.00  4.7333542E-01
   7165.33  4.6887313E-01
   7165.67  4.6475731E-01
   7166.00  4.6103795E-01
   7166.33  4.5780139E-01
   7166.67  4.5499529E-01
   7167.00  4.5259651E-01
   7167.33  4.5059787E-01
   7167.67  4.4888316E-01
   7168.00  4.4738157E-01
   7168.33  4.4602537E-01
   7168.67  4.4472154E-01
   7169.00  4.4341500E-01
   7169.33  4.4205192E-01
   7169.67  4.4061046E-01
   7170.00  4.3908217E-01
   7170.33  4.3746508E-01
   7170.67  4.3579516E-01
   7171.00  4.3410945E-01
   7171.33  4.3247784E-01
   7171.67  4.3099046E-01
   7172.00  4.2975711E-01
