    FDMNES
    energy     <xanes>
   7097.00  4.5755605E-03
   7097.33  4.6773357E-03
   7097.67  4.7837482E-03
   7098.00  4.8951261E-03
   7098.33  5.0125683E-03
   7098.67  5.1358776E-03
   7099.00  5.2655096E-03
   7099.33  5.4029246E-03
   7099.67  5.5479328E-03
   7100.00  5.7011859E-03
   7100.33  5.8646836E-03
   7100.67  6.0382753E-03
   7101.00  6.2229273E-03
   7101.33  6.4214763E-03
   7101.67  6.6338832E-03
   7102.00  6.8616409E-03
   7102.33  7.1089511E-03
   7102.67  7.3760460E-03
   7103.00  7.6653532E-03
   7103.33  7.9834338E-03
   7103.67  8.3311656E-03
   7104.00  8.7127535E-03
   7104.33  9.1391450E-03
   7104.67  9.6127981E-03
   7105.00  1.0141605E-02
   7105.33  1.0745467E-02
   7105.67  1.1430988E-02
   7106.00  1.2214633E-02
   7106.33  1.3136987E-02
   7106.67  1.4216867E-02
   7107.00  1.5494007E-02
   7107.33  1.7065715E-02
   7107.67  1.8993822E-02
   7108.00  2.1396939E-02
   7108.33  2.4572578E-02
   7108.67  2.8782857E-02
   7109.00  3.4521120E-02
   7109.33  4.3130006E-02
   7109.67  5.6307292E-02
   7110.00  7.7436150E-02
   7110.33  1.1621948E-01
   7110.67  1.7967478E-01
   7111.00  2.5137169E-01
   7111.33  2.6814828E-01
   7111.67  2.4624455E-01
   7112.00  2.2189616E-01
   7112.33  2.1532559E-01
   7112.67  2.3369537E-01
   7113.00  2.7172734E-01
   7113.33  2.9262244E-01
   7113.67  2.6516359E-01
   7114.00  2.0668512E-01
   7114.33  1.5515918E-01
   7114.67  1.2163017E-01
   7115.00  1.0310168E-01
   7115.33  9.4427154E-02
   7115.67  8.7392857E-02
   7116.00  7.9576499E-02
   7116.33  7.4112555E-02
   7116.67  7.1939682E-02
   7117.00  7.2611402E-02
   7117.33  7.5948033E-02
   7117.67  8.1506156E-02
   7118.00  8.9286992E-02
   7118.33  9.9284381E-02
   7118.67  1.1009874E-01
   7119.00  1.1992365E-01
   7119.33  1.2642773E-01
   7119.67  1.2946039E-01
   7120.00  1.3024992E-01
   7120.33  1.3115253E-01
   7120.67  1.3357197E-01
   7121.00  1.3783860E-01
   7121.33  1.4419617E-01
   7121.67  1.5235704E-01
   7122.00  1.6226239E-01
   7122.33  1.7392766E-01
   7122.67  1.8672137E-01
   7123.00  2.0019352E-01
   7123.33  2.1429824E-01
   7123.67  2.2920974E-01
   7124.00  2.4480254E-01
   7124.33  2.6028236E-01
   7124.67  2.7485725E-01
   7125.00  2.8826834E-01
   7125.33  3.0039881E-01
   7125.67  3.1138840E-01
   7126.00  3.2120230E-01
   7126.33  3.2991146E-01
   7126.67  3.3829244E-01
   7127.00  3.4721819E-01
   7127.33  3.5789403E-01
   7127.67  3.7052427E-01
   7128.00  3.8453280E-01
   7128.33  3.9830722E-01
   7128.67  4.1027469E-01
   7129.00  4.1984218E-01
   7129.33  4.2695799E-01
   7129.67  4.3239302E-01
   7130.00  4.3645850E-01
   7130.33  4.3945712E-01
   7130.67  4.4227086E-01
   7131.00  4.4572206E-01
   7131.33  4.5070274E-01
   7131.67  4.5722194E-01
   7132.00  4.6504875E-01
   7132.33  4.7388678E-01
   7132.67  4.8336159E-01
   7133.00  4.9345111E-01
   7133.33  5.0437693E-01
   7133.67  5.1618817E-01
   7134.00  5.2892148E-01
   7134.33  5.4257966E-01
   7134.67  5.5682952E-01
   7135.00  5.7142208E-01
   7135.33  5.8608608E-01
   7135.67  6.0057055E-01
   7136.00  6.1467974E-01
   7136.33  6.2807842E-01
   7136.67  6.4052404E-01
   7137.00  6.5168527E-01
   7137.33  6.6093531E-01
   7137.67  6.6811355E-01
   7138.00  6.7299770E-01
   7138.33  6.7521129E-01
   7138.67  6.7519769E-01
   7139.00  6.7325652E-01
   7139.33  6.6971229E-01
   7139.67  6.6533214E-01
   7140.00  6.6062373E-01
   7140.33  6.5614242E-01
   7140.67  6.5228589E-01
   7141.00  6.4931742E-01
   7141.33  6.4756648E-01
   7141.67  6.4698784E-01
   7142.00  6.4759337E-01
   7142.33  6.4948100E-01
   7142.67  6.5240149E-01
   7143.00  6.5621368E-01
   7143.33  6.6081708E-01
   7143.67  6.6593237E-01
   7144.00  6.7139500E-01
   7144.33  6.7703808E-01
   7144.67  6.8267094E-01
   7145.00  6.8816984E-01
   7145.33  6.9339439E-01
   7145.67  6.9830147E-01
   7146.00  7.0284870E-01
   7146.33  7.0694426E-01
   7146.67  7.1058661E-01
   7147.00  7.1371324E-01
   7147.33  7.1615144E-01
   7147.67  7.1786105E-01
   7148.00  7.1873819E-01
   7148.33  7.1856932E-01
   7148.67  7.1741149E-01
   7149.00  7.1524771E-01
   7149.33  7.1197614E-01
   7149.67  7.0778459E-01
   7150.00  7.0275762E-01
   7150.33  6.9692297E-01
   7150.67  6.9049740E-01
   7151.00  6.8359257E-01
   7151.33  6.7629333E-01
   7151.67  6.6876723E-01
   7152.00  6.6111421E-01
   7152.33  6.5343776E-01
   7152.67  6.4583348E-01
   7153.00  6.3837003E-01
   7153.33  6.3113899E-01
   7153.67  6.2416457E-01
   7154.00  6.1747834E-01
   7154.33  6.1114400E-01
   7154.67  6.0513521E-01
   7155.00  5.9945385E-01
   7155.33  5.9413061E-01
   7155.67  5.8910466E-01
   7156.00  5.8434812E-01
   7156.33  5.7984345E-01
   7156.67  5.7550259E-01
   7157.00  5.7126375E-01
   7157.33  5.6705080E-01
   7157.67  5.6278169E-01
   7158.00  5.5839552E-01
   7158.33  5.5381800E-01
   7158.67  5.4904515E-01
   7159.00  5.4408036E-01
   7159.33  5.3893433E-01
   7159.67  5.3367998E-01
   7160.00  5.2837237E-01
   7160.33  5.2307883E-01
   7160.67  5.1785633E-01
   7161.00  5.1274437E-01
   7161.33  5.0779428E-01
   7161.67  5.0299893E-01
   7162.00  4.9835366E-01
   7162.33  4.9387906E-01
   7162.67  4.8956679E-01
   7163.00  4.8542547E-01
   7163.33  4.8148502E-01
   7163.67  4.7773443E-01
   7164.00  4.7418827E-01
   7164.33  4.7089693E-01
   7164.67  4.6785908E-01
   7165.00  4.6510112E-01
   7165.33  4.6269547E-01
   7165.67  4.6063737E-01
   7166.00  4.5895557E-01
   7166.33  4.5773148E-01
   7166.67  4.5693959E-01
   7167.00  4.5659540E-01
   7167.33  4.5676421E-01
   7167.67  4.5738512E-01
   7168.00  4.5844426E-01
   7168.33  4.5996451E-01
   7168.67  4.6185432E-01
   7169.00  4.6407130E-01
   7169.33  4.6659358E-01
   7169.67  4.6932714E-01
   7170.00  4.7221844E-01
   7170.33  4.7521463E-01
   7170.67  4.7823541E-01
   7171.00  4.8121397E-01
   7171.33  4.8403191E-01
   7171.67  4.8655483E-01
   7172.00  4.8860044E-01
