    FDMNES
    energy     <xanes>
   7097.00  4.9962152E-03
   7097.33  5.1164888E-03
   7097.67  5.2426117E-03
   7098.00  5.3750120E-03
   7098.33  5.5150983E-03
   7098.67  5.6626390E-03
   7099.00  5.8182293E-03
   7099.33  5.9837514E-03
   7099.67  6.1589839E-03
   7100.00  6.3447792E-03
   7100.33  6.5437242E-03
   7100.67  6.7556486E-03
   7101.00  6.9818137E-03
   7101.33  7.2258968E-03
   7101.67  7.4878671E-03
   7102.00  7.7696659E-03
   7102.33  8.0767345E-03
   7102.67  8.4093772E-03
   7103.00  8.7707268E-03
   7103.33  9.1692378E-03
   7103.67  9.6059973E-03
   7104.00  1.0086363E-02
   7104.33  1.0624292E-02
   7104.67  1.1222743E-02
   7105.00  1.1891571E-02
   7105.33  1.2655671E-02
   7105.67  1.3522752E-02
   7106.00  1.4512740E-02
   7106.33  1.5674804E-02
   7106.67  1.7029993E-02
   7107.00  1.8624101E-02
   7107.33  2.0568911E-02
   7107.67  2.2929207E-02
   7108.00  2.5831393E-02
   7108.33  2.9588048E-02
   7108.67  3.4446319E-02
   7109.00  4.0868838E-02
   7109.33  5.0070670E-02
   7109.67  6.3414141E-02
   7110.00  8.3552686E-02
   7110.33  1.1812301E-01
   7110.67  1.7585959E-01
   7111.00  2.6275395E-01
   7111.33  3.6694216E-01
   7111.67  4.4329105E-01
   7112.00  4.6530335E-01
   7112.33  4.7008757E-01
   7112.67  4.5299565E-01
   7113.00  3.8387420E-01
   7113.33  2.9361154E-01
   7113.67  2.2681258E-01
   7114.00  1.8871118E-01
   7114.33  1.7000382E-01
   7114.67  1.5698080E-01
   7115.00  1.4666586E-01
   7115.33  1.4117744E-01
   7115.67  1.3968127E-01
   7116.00  1.3818525E-01
   7116.33  1.3199423E-01
   7116.67  1.2437818E-01
   7117.00  1.1895662E-01
   7117.33  1.1733561E-01
   7117.67  1.1857464E-01
   7118.00  1.2175273E-01
   7118.33  1.2521062E-01
   7118.67  1.2731384E-01
   7119.00  1.2762247E-01
   7119.33  1.2652094E-01
   7119.67  1.2516218E-01
   7120.00  1.2414558E-01
   7120.33  1.2411711E-01
   7120.67  1.2560627E-01
   7121.00  1.2892895E-01
   7121.33  1.3434855E-01
   7121.67  1.4155434E-01
   7122.00  1.5046647E-01
   7122.33  1.6122017E-01
   7122.67  1.7367001E-01
   7123.00  1.8801185E-01
   7123.33  2.0478974E-01
   7123.67  2.2376579E-01
   7124.00  2.4450912E-01
   7124.33  2.6583206E-01
   7124.67  2.8572073E-01
   7125.00  3.0241451E-01
   7125.33  3.1414382E-01
   7125.67  3.2186086E-01
   7126.00  3.2718699E-01
   7126.33  3.3273646E-01
   7126.67  3.4063880E-01
   7127.00  3.5149297E-01
   7127.33  3.6427269E-01
   7127.67  3.7614034E-01
   7128.00  3.8517317E-01
   7128.33  3.9048376E-01
   7128.67  3.9366936E-01
   7129.00  3.9614973E-01
   7129.33  3.9930362E-01
   7129.67  4.0377218E-01
   7130.00  4.0978092E-01
   7130.33  4.1744257E-01
   7130.67  4.2622759E-01
   7131.00  4.3572397E-01
   7131.33  4.4553967E-01
   7131.67  4.5543008E-01
   7132.00  4.6541963E-01
   7132.33  4.7570766E-01
   7132.67  4.8641611E-01
   7133.00  4.9756316E-01
   7133.33  5.0900624E-01
   7133.67  5.2032747E-01
   7134.00  5.3106905E-01
   7134.33  5.4048042E-01
   7134.67  5.4812993E-01
   7135.00  5.5362524E-01
   7135.33  5.5642922E-01
   7135.67  5.5687946E-01
   7136.00  5.5523311E-01
   7136.33  5.5179890E-01
   7136.67  5.4738507E-01
   7137.00  5.4248597E-01
   7137.33  5.3755768E-01
   7137.67  5.3292629E-01
   7138.00  5.2877293E-01
   7138.33  5.2530874E-01
   7138.67  5.2256491E-01
   7139.00  5.2065881E-01
   7139.33  5.1992008E-01
   7139.67  5.2047921E-01
   7140.00  5.2257101E-01
   7140.33  5.2663739E-01
   7140.67  5.3256493E-01
   7141.00  5.4032107E-01
   7141.33  5.4992580E-01
   7141.67  5.6085810E-01
   7142.00  5.7278255E-01
   7142.33  5.8536068E-01
   7142.67  5.9813611E-01
   7143.00  6.1082833E-01
   7143.33  6.2313066E-01
   7143.67  6.3488073E-01
   7144.00  6.4595236E-01
   7144.33  6.5617225E-01
   7144.67  6.6562738E-01
   7145.00  6.7435921E-01
   7145.33  6.8237485E-01
   7145.67  6.8985645E-01
   7146.00  6.9688294E-01
   7146.33  7.0346355E-01
   7146.67  7.0965509E-01
   7147.00  7.1542218E-01
   7147.33  7.2062253E-01
   7147.67  7.2521305E-01
   7148.00  7.2909586E-01
   7148.33  7.3206312E-01
   7148.67  7.3412992E-01
   7149.00  7.3524289E-01
   7149.33  7.3524482E-01
   7149.67  7.3425729E-01
   7150.00  7.3230402E-01
   7150.33  7.2932984E-01
   7150.67  7.2554139E-01
   7151.00  7.2104235E-01
   7151.33  7.1589837E-01
   7151.67  7.1032646E-01
   7152.00  7.0445091E-01
   7152.33  6.9838739E-01
   7152.67  6.9227866E-01
   7153.00  6.8621482E-01
   7153.33  6.8029892E-01
   7153.67  6.7458170E-01
   7154.00  6.6910623E-01
   7154.33  6.6394115E-01
   7154.67  6.5907114E-01
   7155.00  6.5450302E-01
   7155.33  6.5027272E-01
   7155.67  6.4633240E-01
   7156.00  6.4266756E-01
   7156.33  6.3928799E-01
   7156.67  6.3613668E-01
   7157.00  6.3319009E-01
   7157.33  6.3044044E-01
   7157.67  6.2783399E-01
   7158.00  6.2534241E-01
   7158.33  6.2294329E-01
   7158.67  6.2059489E-01
   7159.00  6.1827067E-01
   7159.33  6.1593911E-01
   7159.67  6.1357251E-01
   7160.00  6.1114796E-01
   7160.33  6.0862618E-01
   7160.67  6.0599024E-01
   7161.00  6.0321598E-01
   7161.33  6.0024983E-01
   7161.67  5.9708900E-01
   7162.00  5.9372034E-01
   7162.33  5.9010487E-01
   7162.67  5.8626719E-01
   7163.00  5.8221531E-01
   7163.33  5.7793999E-01
   7163.67  5.7349007E-01
   7164.00  5.6889569E-01
   7164.33  5.6419029E-01
   7164.67  5.5944091E-01
   7165.00  5.5469862E-01
   7165.33  5.5003146E-01
   7165.67  5.4548711E-01
   7166.00  5.4110809E-01
   7166.33  5.3696047E-01
   7166.67  5.3305015E-01
   7167.00  5.2940071E-01
   7167.33  5.2606519E-01
   7167.67  5.2301191E-01
   7168.00  5.2023705E-01
   7168.33  5.1776415E-01
   7168.67  5.1554408E-01
   7169.00  5.1355962E-01
   7169.33  5.1181397E-01
   7169.67  5.1025570E-01
   7170.00  5.0886364E-01
   7170.33  5.0763264E-01
   7170.67  5.0652526E-01
   7171.00  5.0552911E-01
   7171.33  5.0465132E-01
   7171.67  5.0388754E-01
   7172.00  5.0325904E-01
