    FDMNES
    energy     <xanes>
   7097.00  4.8188382E-03
   7097.33  4.9316640E-03
   7097.67  5.0496777E-03
   7098.00  5.1732422E-03
   7098.33  5.3035793E-03
   7098.67  5.4404615E-03
   7099.00  5.5843899E-03
   7099.33  5.7369805E-03
   7099.67  5.8980094E-03
   7100.00  6.0681884E-03
   7100.33  6.2497166E-03
   7100.67  6.4424058E-03
   7101.00  6.6473018E-03
   7101.33  6.8675001E-03
   7101.67  7.1029185E-03
   7102.00  7.3551563E-03
   7102.33  7.6287518E-03
   7102.67  7.9238855E-03
   7103.00  8.2431238E-03
   7103.33  8.5934595E-03
   7103.67  8.9756971E-03
   7104.00  9.3942062E-03
   7104.33  9.8604524E-03
   7104.67  1.0376748E-02
   7105.00  1.0951111E-02
   7105.33  1.1603901E-02
   7105.67  1.2341297E-02
   7106.00  1.3179534E-02
   7106.33  1.4158804E-02
   7106.67  1.5296302E-02
   7107.00  1.6629621E-02
   7107.33  1.8250811E-02
   7107.67  2.0214055E-02
   7108.00  2.2625213E-02
   7108.33  2.5747659E-02
   7108.67  2.9796708E-02
   7109.00  3.5177715E-02
   7109.33  4.2972234E-02
   7109.67  5.4457358E-02
   7110.00  7.2151524E-02
   7110.33  1.0327843E-01
   7110.67  1.5439097E-01
   7111.00  2.2090845E-01
   7111.33  2.6914840E-01
   7111.67  2.9628971E-01
   7112.00  3.1830160E-01
   7112.33  3.3541675E-01
   7112.67  3.4517480E-01
   7113.00  3.5178449E-01
   7113.33  3.3983455E-01
   7113.67  2.9971778E-01
   7114.00  2.4496081E-01
   7114.33  1.9612190E-01
   7114.67  1.5915669E-01
   7115.00  1.3263040E-01
   7115.33  1.1422405E-01
   7115.67  1.0082253E-01
   7116.00  9.1485397E-02
   7116.33  8.5909665E-02
   7116.67  8.2935820E-02
   7117.00  8.1968140E-02
   7117.33  8.2654072E-02
   7117.67  8.4492209E-02
   7118.00  8.7378665E-02
   7118.33  9.1290215E-02
   7118.67  9.5535264E-02
   7119.00  9.9199959E-02
   7119.33  1.0149312E-01
   7119.67  1.0304490E-01
   7120.00  1.0464917E-01
   7120.33  1.0713340E-01
   7120.67  1.1090508E-01
   7121.00  1.1625543E-01
   7121.33  1.2349610E-01
   7121.67  1.3260319E-01
   7122.00  1.4417542E-01
   7122.33  1.5960079E-01
   7122.67  1.7886828E-01
   7123.00  2.0145236E-01
   7123.33  2.2605089E-01
   7123.67  2.5068614E-01
   7124.00  2.7431570E-01
   7124.33  2.9628267E-01
   7124.67  3.1662259E-01
   7125.00  3.3502860E-01
   7125.33  3.5125509E-01
   7125.67  3.6708788E-01
   7126.00  3.8445982E-01
   7126.33  4.0473075E-01
   7126.67  4.2691087E-01
   7127.00  4.4981861E-01
   7127.33  4.7243700E-01
   7127.67  4.9467627E-01
   7128.00  5.1691583E-01
   7128.33  5.3975766E-01
   7128.67  5.6340191E-01
   7129.00  5.8778625E-01
   7129.33  6.1264089E-01
   7129.67  6.3736983E-01
   7130.00  6.6134918E-01
   7130.33  6.8332436E-01
   7130.67  7.0205358E-01
   7131.00  7.1632897E-01
   7131.33  7.2500597E-01
   7131.67  7.2939857E-01
   7132.00  7.3093633E-01
   7132.33  7.3201994E-01
   7132.67  7.3531698E-01
   7133.00  7.4223177E-01
   7133.33  7.5291698E-01
   7133.67  7.6488863E-01
   7134.00  7.7610139E-01
   7134.33  7.8506369E-01
   7134.67  7.9191295E-01
   7135.00  7.9659220E-01
   7135.33  7.9842435E-01
   7135.67  7.9747838E-01
   7136.00  7.9389121E-01
   7136.33  7.8799434E-01
   7136.67  7.8098775E-01
   7137.00  7.7379855E-01
   7137.33  7.6744961E-01
   7137.67  7.6235640E-01
   7138.00  7.5852382E-01
   7138.33  7.5559125E-01
   7138.67  7.5263189E-01
   7139.00  7.4877602E-01
   7139.33  7.4275272E-01
   7139.67  7.3396184E-01
   7140.00  7.2201004E-01
   7140.33  7.0659531E-01
   7140.67  6.8879283E-01
   7141.00  6.6958062E-01
   7141.33  6.5030571E-01
   7141.67  6.3227606E-01
   7142.00  6.1635721E-01
   7142.33  6.0345973E-01
   7142.67  5.9335539E-01
   7143.00  5.8580909E-01
   7143.33  5.8052986E-01
   7143.67  5.7660728E-01
   7144.00  5.7352216E-01
   7144.33  5.7086985E-01
   7144.67  5.6831764E-01
   7145.00  5.6570777E-01
   7145.33  5.6286235E-01
   7145.67  5.5965432E-01
   7146.00  5.5595401E-01
   7146.33  5.5156519E-01
   7146.67  5.4651227E-01
   7147.00  5.4082223E-01
   7147.33  5.3455169E-01
   7147.67  5.2796753E-01
   7148.00  5.2127590E-01
   7148.33  5.1471964E-01
   7148.67  5.0846994E-01
   7149.00  5.0264552E-01
   7149.33  4.9740558E-01
   7149.67  4.9274251E-01
   7150.00  4.8868290E-01
   7150.33  4.8532276E-01
   7150.67  4.8259496E-01
   7151.00  4.8049734E-01
   7151.33  4.7908284E-01
   7151.67  4.7822655E-01
   7152.00  4.7786657E-01
   7152.33  4.7796462E-01
   7152.67  4.7837263E-01
   7153.00  4.7901028E-01
   7153.33  4.7981527E-01
   7153.67  4.8070624E-01
   7154.00  4.8164381E-01
   7154.33  4.8259729E-01
   7154.67  4.8354019E-01
   7155.00  4.8445124E-01
   7155.33  4.8529193E-01
   7155.67  4.8602961E-01
   7156.00  4.8662117E-01
   7156.33  4.8698327E-01
   7156.67  4.8708026E-01
   7157.00  4.8686224E-01
   7157.33  4.8623564E-01
   7157.67  4.8521365E-01
   7158.00  4.8378262E-01
   7158.33  4.8189288E-01
   7158.67  4.7961453E-01
   7159.00  4.7697702E-01
   7159.33  4.7398867E-01
   7159.67  4.7074782E-01
   7160.00  4.6731411E-01
   7160.33  4.6374990E-01
   7160.67  4.6014930E-01
   7161.00  4.5658020E-01
   7161.33  4.5312792E-01
   7161.67  4.4982908E-01
   7162.00  4.4670551E-01
   7162.33  4.4380640E-01
   7162.67  4.4112775E-01
   7163.00  4.3867780E-01
   7163.33  4.3648318E-01
   7163.67  4.3450321E-01
   7164.00  4.3271986E-01
   7164.33  4.3112613E-01
   7164.67  4.2966738E-01
   7165.00  4.2831314E-01
   7165.33  4.2703770E-01
   7165.67  4.2580041E-01
   7166.00  4.2457719E-01
   7166.33  4.2334650E-01
   7166.67  4.2210028E-01
   7167.00  4.2083584E-01
   7167.33  4.1955021E-01
   7167.67  4.1825150E-01
   7168.00  4.1694992E-01
   7168.33  4.1566404E-01
   7168.67  4.1441425E-01
   7169.00  4.1322346E-01
   7169.33  4.1213200E-01
   7169.67  4.1115834E-01
   7170.00  4.1032554E-01
   7170.33  4.0967588E-01
   7170.67  4.0920317E-01
   7171.00  4.0891034E-01
   7171.33  4.0880424E-01
   7171.67  4.0881939E-01
   7172.00  4.0888495E-01
