    FDMNES
    energy     <xanes>
   7097.00  4.0721262E-03
   7097.33  4.1498314E-03
   7097.67  4.2303977E-03
   7098.00  4.3139945E-03
   7098.33  4.4012448E-03
   7098.67  4.4919833E-03
   7099.00  4.5864379E-03
   7099.33  4.6854048E-03
   7099.67  4.7887130E-03
   7100.00  4.8966788E-03
   7100.33  5.0103496E-03
   7100.67  5.1295611E-03
   7101.00  5.2547684E-03
   7101.33  5.3873996E-03
   7101.67  5.5273254E-03
   7102.00  5.6752301E-03
   7102.33  5.8331484E-03
   7102.67  6.0010506E-03
   7103.00  6.1800218E-03
   7103.33  6.3731237E-03
   7103.67  6.5805785E-03
   7104.00  6.8042228E-03
   7104.33  7.0489920E-03
   7104.67  7.3157391E-03
   7105.00  7.6078374E-03
   7105.33  7.9339764E-03
   7105.67  8.2966685E-03
   7106.00  8.7027988E-03
   7106.33  9.1695476E-03
   7106.67  9.7042545E-03
   7107.00  1.0323110E-02
   7107.33  1.1065926E-02
   7107.67  1.1956562E-02
   7108.00  1.3041583E-02
   7108.33  1.4437204E-02
   7108.67  1.6240391E-02
   7109.00  1.8633374E-02
   7109.33  2.2103601E-02
   7109.67  2.7233320E-02
   7110.00  3.5171745E-02
   7110.33  4.9261459E-02
   7110.67  7.2967552E-02
   7111.00  1.0551870E-01
   7111.33  1.2862239E-01
   7111.67  1.3795389E-01
   7112.00  1.4381418E-01
   7112.33  1.3890236E-01
   7112.67  1.1842811E-01
   7113.00  9.4775699E-02
   7113.33  7.6707675E-02
   7113.67  6.4300669E-02
   7114.00  5.6006163E-02
   7114.33  4.9756999E-02
   7114.67  4.4291147E-02
   7115.00  3.9997527E-02
   7115.33  3.7656665E-02
   7115.67  3.6801292E-02
   7116.00  3.6962219E-02
   7116.33  3.7731132E-02
   7116.67  3.8852833E-02
   7117.00  4.0485238E-02
   7117.33  4.3059600E-02
   7117.67  4.6686169E-02
   7118.00  5.1400722E-02
   7118.33  5.7167402E-02
   7118.67  6.3463344E-02
   7119.00  6.9753226E-02
   7119.33  7.5280806E-02
   7119.67  7.9717625E-02
   7120.00  8.3163123E-02
   7120.33  8.6243696E-02
   7120.67  8.9903883E-02
   7121.00  9.4855991E-02
   7121.33  1.0203910E-01
   7121.67  1.1176204E-01
   7122.00  1.2439712E-01
   7122.33  1.4084415E-01
   7122.67  1.6163054E-01
   7123.00  1.8741443E-01
   7123.33  2.1573507E-01
   7123.67  2.3915845E-01
   7124.00  2.5459409E-01
   7124.33  2.6556798E-01
   7124.67  2.7835737E-01
   7125.00  2.9597529E-01
   7125.33  3.1974159E-01
   7125.67  3.4640519E-01
   7126.00  3.7280299E-01
   7126.33  3.9752021E-01
   7126.67  4.2336411E-01
   7127.00  4.5421598E-01
   7127.33  4.9409223E-01
   7127.67  5.4159332E-01
   7128.00  5.9437092E-01
   7128.33  6.4894683E-01
   7128.67  7.0119783E-01
   7129.00  7.4816210E-01
   7129.33  7.8686546E-01
   7129.67  8.1827198E-01
   7130.00  8.4381711E-01
   7130.33  8.6455728E-01
   7130.67  8.8071449E-01
   7131.00  8.9086924E-01
   7131.33  8.9398886E-01
   7131.67  8.9358077E-01
   7132.00  8.9311983E-01
   7132.33  8.9576236E-01
   7132.67  9.0125925E-01
   7133.00  9.0790829E-01
   7133.33  9.1322863E-01
   7133.67  9.1590240E-01
   7134.00  9.1558077E-01
   7134.33  9.1268065E-01
   7134.67  9.0905324E-01
   7135.00  9.0568575E-01
   7135.33  9.0228717E-01
   7135.67  8.9739938E-01
   7136.00  8.8960071E-01
   7136.33  8.7726402E-01
   7136.67  8.6066239E-01
   7137.00  8.4026766E-01
   7137.33  8.1677249E-01
   7137.67  7.9172805E-01
   7138.00  7.6608684E-01
   7138.33  7.4076462E-01
   7138.67  7.1633641E-01
   7139.00  6.9314120E-01
   7139.33  6.7159983E-01
   7139.67  6.5165397E-01
   7140.00  6.3335776E-01
   7140.33  6.1694680E-01
   7140.67  6.0221542E-01
   7141.00  5.8915436E-01
   7141.33  5.7793541E-01
   7141.67  5.6830492E-01
   7142.00  5.6022947E-01
   7142.33  5.5384966E-01
   7142.67  5.4888438E-01
   7143.00  5.4521825E-01
   7143.33  5.4280805E-01
   7143.67  5.4127111E-01
   7144.00  5.4035120E-01
   7144.33  5.3974255E-01
   7144.67  5.3905679E-01
   7145.00  5.3801462E-01
   7145.33  5.3628995E-01
   7145.67  5.3383039E-01
   7146.00  5.3063962E-01
   7146.33  5.2676656E-01
   7146.67  5.2249783E-01
   7147.00  5.1803574E-01
   7147.33  5.1358854E-01
   7147.67  5.0929423E-01
   7148.00  5.0521213E-01
   7148.33  5.0138347E-01
   7148.67  4.9775857E-01
   7149.00  4.9431182E-01
   7149.33  4.9104008E-01
   7149.67  4.8791642E-01
   7150.00  4.8494618E-01
   7150.33  4.8216484E-01
   7150.67  4.7956770E-01
   7151.00  4.7716171E-01
   7151.33  4.7495941E-01
   7151.67  4.7289926E-01
   7152.00  4.7091811E-01
   7152.33  4.6890824E-01
   7152.67  4.6674503E-01
   7153.00  4.6430377E-01
   7153.33  4.6137883E-01
   7153.67  4.5787732E-01
   7154.00  4.5368230E-01
   7154.33  4.4857058E-01
   7154.67  4.4254699E-01
   7155.00  4.3555386E-01
   7155.33  4.2743505E-01
   7155.67  4.1832966E-01
   7156.00  4.0828903E-01
   7156.33  3.9731367E-01
   7156.67  3.8565509E-01
   7157.00  3.7346961E-01
   7157.33  3.6092801E-01
   7157.67  3.4829898E-01
   7158.00  3.3578261E-01
   7158.33  3.2364765E-01
   7158.67  3.1206329E-01
   7159.00  3.0119441E-01
   7159.33  2.9132060E-01
   7159.67  2.8247740E-01
   7160.00  2.7477512E-01
   7160.33  2.6848273E-01
   7160.67  2.6353873E-01
   7161.00  2.6001006E-01
   7161.33  2.5813376E-01
   7161.67  2.5773888E-01
   7162.00  2.5879138E-01
   7162.33  2.6136585E-01
   7162.67  2.6515107E-01
   7163.00  2.7000300E-01
   7163.33  2.7583983E-01
   7163.67  2.8235573E-01
   7164.00  2.8939096E-01
   7164.33  2.9681776E-01
   7164.67  3.0444193E-01
   7165.00  3.1215265E-01
   7165.33  3.1984059E-01
   7165.67  3.2742472E-01
   7166.00  3.3485105E-01
   7166.33  3.4204976E-01
   7166.67  3.4902004E-01
   7167.00  3.5575818E-01
   7167.33  3.6225691E-01
   7167.67  3.6858096E-01
   7168.00  3.7477145E-01
   7168.33  3.8086782E-01
   7168.67  3.8692370E-01
   7169.00  3.9296442E-01
   7169.33  3.9900030E-01
   7169.67  4.0501994E-01
   7170.00  4.1099452E-01
   7170.33  4.1685809E-01
   7170.67  4.2254800E-01
   7171.00  4.2797981E-01
   7171.33  4.3296871E-01
   7171.67  4.3735694E-01
   7172.00  4.4090192E-01
