    FDMNES
    energy     <xanes>
   7097.00  4.1752286E-03
   7097.33  4.2600414E-03
   7097.67  4.3482167E-03
   7098.00  4.4399673E-03
   7098.33  4.5360476E-03
   7098.67  4.6362813E-03
   7099.00  4.7409580E-03
   7099.33  4.8510562E-03
   7099.67  4.9663968E-03
   7100.00  5.0873865E-03
   7100.33  5.2153323E-03
   7100.67  5.3500701E-03
   7101.00  5.4921918E-03
   7101.33  5.6435069E-03
   7101.67  5.8039057E-03
   7102.00  5.9742879E-03
   7102.33  6.1572701E-03
   7102.67  6.3528860E-03
   7103.00  6.5625757E-03
   7103.33  6.7903320E-03
   7103.67  7.0365396E-03
   7104.00  7.3036549E-03
   7104.33  7.5981939E-03
   7104.67  7.9214071E-03
   7105.00  8.2778316E-03
   7105.33  8.6790543E-03
   7105.67  9.1285856E-03
   7106.00  9.6357188E-03
   7106.33  1.0223525E-02
   7106.67  1.0902065E-02
   7107.00  1.1693233E-02
   7107.33  1.2650738E-02
   7107.67  1.3807047E-02
   7108.00  1.5225246E-02
   7108.33  1.7062743E-02
   7108.67  1.9451602E-02
   7109.00  2.2640024E-02
   7109.33  2.7293382E-02
   7109.67  3.4212667E-02
   7110.00  4.4982851E-02
   7110.33  6.4221952E-02
   7110.67  9.6618882E-02
   7111.00  1.4012897E-01
   7111.33  1.6411683E-01
   7111.67  1.6419394E-01
   7112.00  1.6755134E-01
   7112.33  1.8444970E-01
   7112.67  1.9537633E-01
   7113.00  1.8305898E-01
   7113.33  1.4407651E-01
   7113.67  1.0706736E-01
   7114.00  8.2647194E-02
   7114.33  6.7860562E-02
   7114.67  5.8540320E-02
   7115.00  5.2137847E-02
   7115.33  4.5087791E-02
   7115.67  3.9294508E-02
   7116.00  3.5743262E-02
   7116.33  3.4034232E-02
   7116.67  3.3324255E-02
   7117.00  3.3256805E-02
   7117.33  3.3610081E-02
   7117.67  3.4202630E-02
   7118.00  3.5021207E-02
   7118.33  3.6175402E-02
   7118.67  3.7738318E-02
   7119.00  3.9803355E-02
   7119.33  4.2558476E-02
   7119.67  4.6068986E-02
   7120.00  5.0499750E-02
   7120.33  5.6244495E-02
   7120.67  6.3452638E-02
   7121.00  7.2405428E-02
   7121.33  8.3722401E-02
   7121.67  9.7500994E-02
   7122.00  1.1401543E-01
   7122.33  1.3395636E-01
   7122.67  1.5741255E-01
   7123.00  1.8503328E-01
   7123.33  2.1827943E-01
   7123.67  2.5662967E-01
   7124.00  2.9864237E-01
   7124.33  3.4046509E-01
   7124.67  3.7805505E-01
   7125.00  4.0982698E-01
   7125.33  4.3497095E-01
   7125.67  4.5484940E-01
   7126.00  4.7043788E-01
   7126.33  4.8190673E-01
   7126.67  4.8880500E-01
   7127.00  4.9109959E-01
   7127.33  4.9305245E-01
   7127.67  5.0155546E-01
   7128.00  5.1993751E-01
   7128.33  5.4869690E-01
   7128.67  5.8401590E-01
   7129.00  6.2425769E-01
   7129.33  6.6944448E-01
   7129.67  7.1896369E-01
   7130.00  7.7219170E-01
   7130.33  8.2798957E-01
   7130.67  8.8474259E-01
   7131.00  9.4128617E-01
   7131.33  9.9428436E-01
   7131.67  1.0388573E+00
   7132.00  1.0697465E+00
   7132.33  1.0798796E+00
   7132.67  1.0699864E+00
   7133.00  1.0419265E+00
   7133.33  9.9995473E-01
   7133.67  9.5375710E-01
   7134.00  9.0995889E-01
   7134.33  8.7448145E-01
   7134.67  8.4774637E-01
   7135.00  8.2836017E-01
   7135.33  8.1315296E-01
   7135.67  7.9733877E-01
   7136.00  7.7842078E-01
   7136.33  7.5585220E-01
   7136.67  7.3180526E-01
   7137.00  7.0788498E-01
   7137.33  6.8549117E-01
   7137.67  6.6505881E-01
   7138.00  6.4679560E-01
   7138.33  6.3102794E-01
   7138.67  6.1741817E-01
   7139.00  6.0586598E-01
   7139.33  5.9645070E-01
   7139.67  5.8875203E-01
   7140.00  5.8260825E-01
   7140.33  5.7800160E-01
   7140.67  5.7457941E-01
   7141.00  5.7219797E-01
   7141.33  5.7082091E-01
   7141.67  5.7020717E-01
   7142.00  5.7025320E-01
   7142.33  5.7091404E-01
   7142.67  5.7200018E-01
   7143.00  5.7338489E-01
   7143.33  5.7495918E-01
   7143.67  5.7663984E-01
   7144.00  5.7843778E-01
   7144.33  5.8043151E-01
   7144.67  5.8264669E-01
   7145.00  5.8507689E-01
   7145.33  5.8765545E-01
   7145.67  5.9021133E-01
   7146.00  5.9258960E-01
   7146.33  5.9458009E-01
   7146.67  5.9607408E-01
   7147.00  5.9696195E-01
   7147.33  5.9705471E-01
   7147.67  5.9637127E-01
   7148.00  5.9487830E-01
   7148.33  5.9245955E-01
   7148.67  5.8922293E-01
   7149.00  5.8518168E-01
   7149.33  5.8025663E-01
   7149.67  5.7456249E-01
   7150.00  5.6810753E-01
   7150.33  5.6079652E-01
   7150.67  5.5271420E-01
   7151.00  5.4384572E-01
   7151.33  5.3407523E-01
   7151.67  5.2350978E-01
   7152.00  5.1217577E-01
   7152.33  5.0002846E-01
   7152.67  4.8722989E-01
   7153.00  4.7386796E-01
   7153.33  4.6001584E-01
   7153.67  4.4587866E-01
   7154.00  4.3159684E-01
   7154.33  4.1732514E-01
   7154.67  4.0319501E-01
   7155.00  3.8930239E-01
   7155.33  3.7577850E-01
   7155.67  3.6265315E-01
   7156.00  3.4997539E-01
   7156.33  3.3785452E-01
   7156.67  3.2627106E-01
   7157.00  3.1526037E-01
   7157.33  3.0493918E-01
   7157.67  2.9527013E-01
   7158.00  2.8628591E-01
   7158.33  2.7811250E-01
   7158.67  2.7069398E-01
   7159.00  2.6405886E-01
   7159.33  2.5834112E-01
   7159.67  2.5347064E-01
   7160.00  2.4947511E-01
   7160.33  2.4649906E-01
   7160.67  2.4445697E-01
   7161.00  2.4336723E-01
   7161.33  2.4335883E-01
   7161.67  2.4430023E-01
   7162.00  2.4616911E-01
   7162.33  2.4904307E-01
   7162.67  2.5275953E-01
   7163.00  2.5725336E-01
   7163.33  2.6252115E-01
   7163.67  2.6836686E-01
   7164.00  2.7468815E-01
   7164.33  2.8141424E-01
   7164.67  2.8837808E-01
   7165.00  2.9547167E-01
   7165.33  3.0257634E-01
   7165.67  3.0958650E-01
   7166.00  3.1643025E-01
   7166.33  3.2302059E-01
   7166.67  3.2935386E-01
   7167.00  3.3542168E-01
   7167.33  3.4119779E-01
   7167.67  3.4673304E-01
   7168.00  3.5205208E-01
   7168.33  3.5716601E-01
   7168.67  3.6213158E-01
   7169.00  3.6697556E-01
   7169.33  3.7171260E-01
   7169.67  3.7637353E-01
   7170.00  3.8096673E-01
   7170.33  3.8548200E-01
   7170.67  3.8990881E-01
   7171.00  3.9420793E-01
   7171.33  3.9825900E-01
   7171.67  4.0190710E-01
   7172.00  4.0490828E-01
