    FDMNES
    energy     <xanes>
   7097.00  4.3771200E-03
   7097.33  4.4727437E-03
   7097.67  4.5725340E-03
   7098.00  4.6767768E-03
   7098.33  4.7864448E-03
   7098.67  4.9013494E-03
   7099.00  5.0218863E-03
   7099.33  5.1493406E-03
   7099.67  5.2835284E-03
   7100.00  5.4250141E-03
   7100.33  5.5755479E-03
   7100.67  5.7349783E-03
   7101.00  5.9041394E-03
   7101.33  6.0855025E-03
   7101.67  6.2790091E-03
   7102.00  6.4859452E-03
   7102.33  6.7099541E-03
   7102.67  6.9512062E-03
   7103.00  7.2117864E-03
   7103.33  7.4973565E-03
   7103.67  7.8086293E-03
   7104.00  8.1491994E-03
   7104.33  8.5284575E-03
   7104.67  8.9484306E-03
   7105.00  9.4158114E-03
   7105.33  9.9475135E-03
   7105.67  1.0548949E-02
   7106.00  1.1233877E-02
   7106.33  1.2036229E-02
   7106.67  1.2971085E-02
   7107.00  1.4070756E-02
   7107.33  1.5414124E-02
   7107.67  1.7048639E-02
   7108.00  1.9065967E-02
   7108.33  2.1693403E-02
   7108.67  2.5116928E-02
   7109.00  2.9683787E-02
   7109.33  3.6312240E-02
   7109.67  4.6062152E-02
   7110.00  6.1003630E-02
   7110.33  8.7098054E-02
   7110.67  1.3082443E-01
   7111.00  1.9490620E-01
   7111.33  2.6955240E-01
   7111.67  3.3001660E-01
   7112.00  3.3633962E-01
   7112.33  2.7824542E-01
   7112.67  2.1046252E-01
   7113.00  1.6034262E-01
   7113.33  1.3370968E-01
   7113.67  1.1971448E-01
   7114.00  1.0730382E-01
   7114.33  9.0880003E-02
   7114.67  7.8444311E-02
   7115.00  7.0449837E-02
   7115.33  6.1662384E-02
   7115.67  5.3349429E-02
   7116.00  4.7676474E-02
   7116.33  4.4478453E-02
   7116.67  4.2324181E-02
   7117.00  4.0635953E-02
   7117.33  3.9328324E-02
   7117.67  3.8490431E-02
   7118.00  3.8226010E-02
   7118.33  3.8672115E-02
   7118.67  3.9770305E-02
   7119.00  4.1516874E-02
   7119.33  4.3943395E-02
   7119.67  4.6885230E-02
   7120.00  5.0263844E-02
   7120.33  5.4107866E-02
   7120.67  5.8453459E-02
   7121.00  6.3455788E-02
   7121.33  6.9483805E-02
   7121.67  7.6744234E-02
   7122.00  8.5554956E-02
   7122.33  9.6598949E-02
   7122.67  1.1018230E-01
   7123.00  1.2691535E-01
   7123.33  1.4815066E-01
   7123.67  1.7422168E-01
   7124.00  2.0531026E-01
   7124.33  2.3992734E-01
   7124.67  2.7331468E-01
   7125.00  3.0328684E-01
   7125.33  3.3230635E-01
   7125.67  3.6423409E-01
   7126.00  4.0095810E-01
   7126.33  4.4481139E-01
   7126.67  4.9562345E-01
   7127.00  5.5145218E-01
   7127.33  6.0586151E-01
   7127.67  6.5190496E-01
   7128.00  6.8535910E-01
   7128.33  7.0179625E-01
   7128.67  7.0654066E-01
   7129.00  7.0763463E-01
   7129.33  7.1313935E-01
   7129.67  7.2359522E-01
   7130.00  7.3710359E-01
   7130.33  7.5234438E-01
   7130.67  7.6913623E-01
   7131.00  7.8780338E-01
   7131.33  8.0789391E-01
   7131.67  8.2649883E-01
   7132.00  8.3948604E-01
   7132.33  8.4112604E-01
   7132.67  8.3217535E-01
   7133.00  8.1586622E-01
   7133.33  7.9714804E-01
   7133.67  7.8036822E-01
   7134.00  7.6753372E-01
   7134.33  7.6043691E-01
   7134.67  7.5884039E-01
   7135.00  7.6257208E-01
   7135.33  7.7125317E-01
   7135.67  7.8255361E-01
   7136.00  7.9449681E-01
   7136.33  8.0466033E-01
   7136.67  8.1165391E-01
   7137.00  8.1480140E-01
   7137.33  8.1351497E-01
   7137.67  8.0867730E-01
   7138.00  8.0080690E-01
   7138.33  7.9025329E-01
   7138.67  7.7791584E-01
   7139.00  7.6424414E-01
   7139.33  7.4957222E-01
   7139.67  7.3437704E-01
   7140.00  7.1890621E-01
   7140.33  7.0337965E-01
   7140.67  6.8799308E-01
   7141.00  6.7289139E-01
   7141.33  6.5828055E-01
   7141.67  6.4424263E-01
   7142.00  6.3088582E-01
   7142.33  6.1842703E-01
   7142.67  6.0687673E-01
   7143.00  5.9632619E-01
   7143.33  5.8701649E-01
   7143.67  5.7890963E-01
   7144.00  5.7209134E-01
   7144.33  5.6685878E-01
   7144.67  5.6315518E-01
   7145.00  5.6102403E-01
   7145.33  5.6063998E-01
   7145.67  5.6171006E-01
   7146.00  5.6407184E-01
   7146.33  5.6756320E-01
   7146.67  5.7168610E-01
   7147.00  5.7610482E-01
   7147.33  5.8045426E-01
   7147.67  5.8442060E-01
   7148.00  5.8776427E-01
   7148.33  5.9016014E-01
   7148.67  5.9156380E-01
   7149.00  5.9190002E-01
   7149.33  5.9099355E-01
   7149.67  5.8897696E-01
   7150.00  5.8586068E-01
   7150.33  5.8153643E-01
   7150.67  5.7616659E-01
   7151.00  5.6977207E-01
   7151.33  5.6225069E-01
   7151.67  5.5374899E-01
   7152.00  5.4428498E-01
   7152.33  5.3376592E-01
   7152.67  5.2234170E-01
   7153.00  5.1005005E-01
   7153.33  4.9684810E-01
   7153.67  4.8291655E-01
   7154.00  4.6834369E-01
   7154.33  4.5318557E-01
   7154.67  4.3765178E-01
   7155.00  4.2188746E-01
   7155.33  4.0607884E-01
   7155.67  3.9044092E-01
   7156.00  3.7516518E-01
   7156.33  3.6055268E-01
   7156.67  3.4675098E-01
   7157.00  3.3393782E-01
   7157.33  3.2244331E-01
   7157.67  3.1227089E-01
   7158.00  3.0351698E-01
   7158.33  2.9643825E-01
   7158.67  2.9087411E-01
   7159.00  2.8681240E-01
   7159.33  2.8438430E-01
   7159.67  2.8332536E-01
   7160.00  2.8354363E-01
   7160.33  2.8505409E-01
   7160.67  2.8756904E-01
   7161.00  2.9096329E-01
   7161.33  2.9518371E-01
   7161.67  2.9999617E-01
   7162.00  3.0528243E-01
   7162.33  3.1094820E-01
   7162.67  3.1681644E-01
   7163.00  3.2277876E-01
   7163.33  3.2870852E-01
   7163.67  3.3450090E-01
   7164.00  3.4007693E-01
   7164.33  3.4532206E-01
   7164.67  3.5021220E-01
   7165.00  3.5470987E-01
   7165.33  3.5873785E-01
   7165.67  3.6234245E-01
   7166.00  3.6553255E-01
   7166.33  3.6828462E-01
   7166.67  3.7068512E-01
   7167.00  3.7277376E-01
   7167.33  3.7457085E-01
   7167.67  3.7616599E-01
   7168.00  3.7760922E-01
   7168.33  3.7894577E-01
   7168.67  3.8024149E-01
   7169.00  3.8153876E-01
   7169.33  3.8288604E-01
   7169.67  3.8431107E-01
   7170.00  3.8583305E-01
   7170.33  3.8747521E-01
   7170.67  3.8921750E-01
   7171.00  3.9103622E-01
   7171.33  3.9287232E-01
   7171.67  3.9460249E-01
   7172.00  3.9606386E-01
