    FDMNES
    energy     <xanes>
   7097.00  5.3205068E-03
   7097.33  5.4556080E-03
   7097.67  5.5971367E-03
   7098.00  5.7455395E-03
   7098.33  5.9023230E-03
   7098.67  6.0671980E-03
   7099.00  6.2407750E-03
   7099.33  6.4250344E-03
   7099.67  6.6196825E-03
   7100.00  6.8255766E-03
   7100.33  7.0453873E-03
   7100.67  7.2788479E-03
   7101.00  7.5271994E-03
   7101.33  7.7941549E-03
   7101.67  8.0795440E-03
   7102.00  8.3852295E-03
   7102.33  8.7165651E-03
   7102.67  9.0736304E-03
   7103.00  9.4593453E-03
   7103.33  9.8817794E-03
   7103.67  1.0341608E-02
   7104.00  1.0843660E-02
   7104.33  1.1400785E-02
   7104.67  1.2015076E-02
   7105.00  1.2695069E-02
   7105.33  1.3462713E-02
   7105.67  1.4323625E-02
   7106.00  1.5294254E-02
   7106.33  1.6415730E-02
   7106.67  1.7703207E-02
   7107.00  1.9192351E-02
   7107.33  2.0970772E-02
   7107.67  2.3083404E-02
   7108.00  2.5621896E-02
   7108.33  2.8812304E-02
   7108.67  3.2816612E-02
   7109.00  3.7943215E-02
   7109.33  4.4992743E-02
   7109.67  5.4802926E-02
   7110.00  6.9002010E-02
   7110.33  9.2162403E-02
   7110.67  1.2873190E-01
   7111.00  1.7931760E-01
   7111.33  2.3613342E-01
   7111.67  3.0270134E-01
   7112.00  3.8570599E-01
   7112.33  4.8180475E-01
   7112.67  5.6297693E-01
   7113.00  5.9398512E-01
   7113.33  5.6337200E-01
   7113.67  4.9837083E-01
   7114.00  4.0457110E-01
   7114.33  3.0661453E-01
   7114.67  2.3215479E-01
   7115.00  1.8271552E-01
   7115.33  1.5327566E-01
   7115.67  1.3547221E-01
   7116.00  1.2604710E-01
   7116.33  1.2336524E-01
   7116.67  1.2562644E-01
   7117.00  1.3286953E-01
   7117.33  1.4498004E-01
   7117.67  1.5737844E-01
   7118.00  1.6449491E-01
   7118.33  1.6435138E-01
   7118.67  1.6395646E-01
   7119.00  1.6834579E-01
   7119.33  1.7867965E-01
   7119.67  1.8959757E-01
   7120.00  1.9868940E-01
   7120.33  2.0956788E-01
   7120.67  2.2437914E-01
   7121.00  2.4186300E-01
   7121.33  2.6213755E-01
   7121.67  2.8855357E-01
   7122.00  3.2352904E-01
   7122.33  3.6446946E-01
   7122.67  4.0446936E-01
   7123.00  4.4051394E-01
   7123.33  4.7369186E-01
   7123.67  5.0789667E-01
   7124.00  5.4340495E-01
   7124.33  5.7551624E-01
   7124.67  5.9779028E-01
   7125.00  6.0587274E-01
   7125.33  5.9786606E-01
   7125.67  5.8007011E-01
   7126.00  5.5791813E-01
   7126.33  5.3753076E-01
   7126.67  5.2261435E-01
   7127.00  5.1456226E-01
   7127.33  5.1413658E-01
   7127.67  5.1914404E-01
   7128.00  5.2762236E-01
   7128.33  5.3641546E-01
   7128.67  5.4174316E-01
   7129.00  5.4118853E-01
   7129.33  5.3425828E-01
   7129.67  5.2513456E-01
   7130.00  5.1735241E-01
   7130.33  5.1363601E-01
   7130.67  5.1330164E-01
   7131.00  5.1516022E-01
   7131.33  5.1818234E-01
   7131.67  5.2164502E-01
   7132.00  5.2543634E-01
   7132.33  5.3025416E-01
   7132.67  5.3737274E-01
   7133.00  5.4788913E-01
   7133.33  5.6173858E-01
   7133.67  5.7530157E-01
   7134.00  5.8438273E-01
   7134.33  5.8480541E-01
   7134.67  5.7851015E-01
   7135.00  5.6855715E-01
   7135.33  5.5827283E-01
   7135.67  5.4965686E-01
   7136.00  5.4334663E-01
   7136.33  5.3968776E-01
   7136.67  5.3825913E-01
   7137.00  5.3901571E-01
   7137.33  5.4210569E-01
   7137.67  5.4689616E-01
   7138.00  5.5283393E-01
   7138.33  5.5923634E-01
   7138.67  5.6542099E-01
   7139.00  5.7097570E-01
   7139.33  5.7546365E-01
   7139.67  5.7887613E-01
   7140.00  5.8125856E-01
   7140.33  5.8271700E-01
   7140.67  5.8368395E-01
   7141.00  5.8447223E-01
   7141.33  5.8540708E-01
   7141.67  5.8666918E-01
   7142.00  5.8833440E-01
   7142.33  5.9045445E-01
   7142.67  5.9290652E-01
   7143.00  5.9558269E-01
   7143.33  5.9833464E-01
   7143.67  6.0099672E-01
   7144.00  6.0345352E-01
   7144.33  6.0554997E-01
   7144.67  6.0720435E-01
   7145.00  6.0828781E-01
   7145.33  6.0853672E-01
   7145.67  6.0789360E-01
   7146.00  6.0628818E-01
   7146.33  6.0361487E-01
   7146.67  6.0008888E-01
   7147.00  5.9581892E-01
   7147.33  5.9083268E-01
   7147.67  5.8527935E-01
   7148.00  5.7920112E-01
   7148.33  5.7258680E-01
   7148.67  5.6556561E-01
   7149.00  5.5822489E-01
   7149.33  5.5066323E-01
   7149.67  5.4303089E-01
   7150.00  5.3542371E-01
   7150.33  5.2794205E-01
   7150.67  5.2062699E-01
   7151.00  5.1350222E-01
   7151.33  5.0659780E-01
   7151.67  4.9987955E-01
   7152.00  4.9333336E-01
   7152.33  4.8696031E-01
   7152.67  4.8072519E-01
   7153.00  4.7461768E-01
   7153.33  4.6864299E-01
   7153.67  4.6277634E-01
   7154.00  4.5700527E-01
   7154.33  4.5131658E-01
   7154.67  4.4567199E-01
   7155.00  4.4004569E-01
   7155.33  4.3441424E-01
   7155.67  4.2877341E-01
   7156.00  4.2314208E-01
   7156.33  4.1757758E-01
   7156.67  4.1214521E-01
   7157.00  4.0691620E-01
   7157.33  4.0200352E-01
   7157.67  3.9743183E-01
   7158.00  3.9323993E-01
   7158.33  3.8951426E-01
   7158.67  3.8622597E-01
   7159.00  3.8338730E-01
   7159.33  3.8105724E-01
   7159.67  3.7916250E-01
   7160.00  3.7767353E-01
   7160.33  3.7657754E-01
   7160.67  3.7574713E-01
   7161.00  3.7509078E-01
   7161.33  3.7450114E-01
   7161.67  3.7386775E-01
   7162.00  3.7312277E-01
   7162.33  3.7220198E-01
   7162.67  3.7111873E-01
   7163.00  3.6989415E-01
   7163.33  3.6856189E-01
   7163.67  3.6719024E-01
   7164.00  3.6582776E-01
   7164.33  3.6453150E-01
   7164.67  3.6333396E-01
   7165.00  3.6226175E-01
   7165.33  3.6135710E-01
   7165.67  3.6061946E-01
   7166.00  3.6006174E-01
   7166.33  3.5972223E-01
   7166.67  3.5959145E-01
   7167.00  3.5968285E-01
   7167.33  3.6004194E-01
   7167.67  3.6065324E-01
   7168.00  3.6152591E-01
   7168.33  3.6269839E-01
   7168.67  3.6413471E-01
   7169.00  3.6582544E-01
   7169.33  3.6778039E-01
   7169.67  3.6994149E-01
   7170.00  3.7227697E-01
   7170.33  3.7475796E-01
   7170.67  3.7731331E-01
   7171.00  3.7988431E-01
   7171.33  3.8236684E-01
   7171.67  3.8462270E-01
   7172.00  3.8647172E-01
