    FDMNES
    energy     <xanes>
   7097.00  4.4255255E-03
   7097.33  4.5156809E-03
   7097.67  4.6094363E-03
   7098.00  4.7070190E-03
   7098.33  4.8092364E-03
   7098.67  4.9158986E-03
   7099.00  5.0273145E-03
   7099.33  5.1445295E-03
   7099.67  5.2673500E-03
   7100.00  5.3962089E-03
   7100.33  5.5325000E-03
   7100.67  5.6760443E-03
   7101.00  5.8274704E-03
   7101.33  5.9887038E-03
   7101.67  6.1596213E-03
   7102.00  6.3411756E-03
   7102.33  6.5361449E-03
   7102.67  6.7445545E-03
   7103.00  6.9679262E-03
   7103.33  7.2104887E-03
   7103.67  7.4726339E-03
   7104.00  7.7569521E-03
   7104.33  8.0703287E-03
   7104.67  8.4140628E-03
   7105.00  8.7929328E-03
   7105.33  9.2191599E-03
   7105.67  9.6964177E-03
   7106.00  1.0234489E-02
   7106.33  1.0857681E-02
   7106.67  1.1576566E-02
   7107.00  1.2414195E-02
   7107.33  1.3427151E-02
   7107.67  1.4649621E-02
   7108.00  1.6148075E-02
   7108.33  1.8088370E-02
   7108.67  2.0609618E-02
   7109.00  2.3973167E-02
   7109.33  2.8879106E-02
   7109.67  3.6168226E-02
   7110.00  4.7501655E-02
   7110.33  6.7705474E-02
   7110.67  1.0165476E-01
   7111.00  1.4774276E-01
   7111.33  1.7981783E-01
   7111.67  1.8951486E-01
   7112.00  1.8393495E-01
   7112.33  1.7104215E-01
   7112.67  1.6207050E-01
   7113.00  1.5519391E-01
   7113.33  1.4340375E-01
   7113.67  1.2439395E-01
   7114.00  1.0295005E-01
   7114.33  8.5155222E-02
   7114.67  7.0992319E-02
   7115.00  6.0123316E-02
   7115.33  5.2381012E-02
   7115.67  4.6737171E-02
   7116.00  4.2853298E-02
   7116.33  4.0541151E-02
   7116.67  3.9315477E-02
   7117.00  3.8986371E-02
   7117.33  3.9522288E-02
   7117.67  4.0777813E-02
   7118.00  4.2755294E-02
   7118.33  4.5637365E-02
   7118.67  4.9542398E-02
   7119.00  5.4742374E-02
   7119.33  6.1751441E-02
   7119.67  7.0464619E-02
   7120.00  8.0486462E-02
   7120.33  9.0591140E-02
   7120.67  1.0000201E-01
   7121.00  1.1000739E-01
   7121.33  1.2385649E-01
   7121.67  1.4334284E-01
   7122.00  1.6952996E-01
   7122.33  2.0335713E-01
   7122.67  2.4203981E-01
   7123.00  2.8211875E-01
   7123.33  3.1884196E-01
   7123.67  3.5107923E-01
   7124.00  3.8100961E-01
   7124.33  4.1161064E-01
   7124.67  4.4241042E-01
   7125.00  4.7289640E-01
   7125.33  5.0547863E-01
   7125.67  5.3986638E-01
   7126.00  5.7472781E-01
   7126.33  6.1141732E-01
   7126.67  6.5246412E-01
   7127.00  6.9983567E-01
   7127.33  7.5380294E-01
   7127.67  8.0879569E-01
   7128.00  8.5670098E-01
   7128.33  8.8566241E-01
   7128.67  8.9458021E-01
   7129.00  8.8696248E-01
   7129.33  8.6829781E-01
   7129.67  8.4548871E-01
   7130.00  8.2185914E-01
   7130.33  7.9945903E-01
   7130.67  7.7761002E-01
   7131.00  7.5471689E-01
   7131.33  7.3047434E-01
   7131.67  7.0832532E-01
   7132.00  6.9185343E-01
   7132.33  6.8355439E-01
   7132.67  6.8126350E-01
   7133.00  6.8378937E-01
   7133.33  6.9164039E-01
   7133.67  7.0406815E-01
   7134.00  7.1946514E-01
   7134.33  7.3427011E-01
   7134.67  7.4509530E-01
   7135.00  7.5047485E-01
   7135.33  7.5020528E-01
   7135.67  7.4668644E-01
   7136.00  7.4157915E-01
   7136.33  7.3626582E-01
   7136.67  7.3139124E-01
   7137.00  7.2694010E-01
   7137.33  7.2250296E-01
   7137.67  7.1748252E-01
   7138.00  7.1138857E-01
   7138.33  7.0361754E-01
   7138.67  6.9415271E-01
   7139.00  6.8299337E-01
   7139.33  6.7011963E-01
   7139.67  6.5602459E-01
   7140.00  6.4102511E-01
   7140.33  6.2543679E-01
   7140.67  6.0967826E-01
   7141.00  5.9401263E-01
   7141.33  5.7873850E-01
   7141.67  5.6402033E-01
   7142.00  5.5000851E-01
   7142.33  5.3695576E-01
   7142.67  5.2486140E-01
   7143.00  5.1377412E-01
   7143.33  5.0382130E-01
   7143.67  4.9481852E-01
   7144.00  4.8667461E-01
   7144.33  4.7934076E-01
   7144.67  4.7257407E-01
   7145.00  4.6624656E-01
   7145.33  4.6026106E-01
   7145.67  4.5446661E-01
   7146.00  4.4878518E-01
   7146.33  4.4314726E-01
   7146.67  4.3748378E-01
   7147.00  4.3174074E-01
   7147.33  4.2583060E-01
   7147.67  4.1969790E-01
   7148.00  4.1327742E-01
   7148.33  4.0644718E-01
   7148.67  3.9918244E-01
   7149.00  3.9144022E-01
   7149.33  3.8314159E-01
   7149.67  3.7438389E-01
   7150.00  3.6525816E-01
   7150.33  3.5591418E-01
   7150.67  3.4659160E-01
   7151.00  3.3748992E-01
   7151.33  3.2892218E-01
   7151.67  3.2108670E-01
   7152.00  3.1418072E-01
   7152.33  3.0851581E-01
   7152.67  3.0405205E-01
   7153.00  3.0081212E-01
   7153.33  2.9890757E-01
   7153.67  2.9809621E-01
   7154.00  2.9825816E-01
   7154.33  2.9931055E-01
   7154.67  3.0093445E-01
   7155.00  3.0292202E-01
   7155.33  3.0504464E-01
   7155.67  3.0706599E-01
   7156.00  3.0882918E-01
   7156.33  3.1014778E-01
   7156.67  3.1097752E-01
   7157.00  3.1126702E-01
   7157.33  3.1091830E-01
   7157.67  3.1001215E-01
   7158.00  3.0858892E-01
   7158.33  3.0668304E-01
   7158.67  3.0448461E-01
   7159.00  3.0215121E-01
   7159.33  2.9992430E-01
   7159.67  2.9806073E-01
   7160.00  2.9680618E-01
   7160.33  2.9655535E-01
   7160.67  2.9745412E-01
   7161.00  2.9968988E-01
   7161.33  3.0362404E-01
   7161.67  3.0918506E-01
   7162.00  3.1642310E-01
   7162.33  3.2554243E-01
   7162.67  3.3626485E-01
   7163.00  3.4848061E-01
   7163.33  3.6216434E-01
   7163.67  3.7689812E-01
   7164.00  3.9241059E-01
   7164.33  4.0837860E-01
   7164.67  4.2432331E-01
   7165.00  4.3984495E-01
   7165.33  4.5435018E-01
   7165.67  4.6748875E-01
   7166.00  4.7890853E-01
   7166.33  4.8803837E-01
   7166.67  4.9495540E-01
   7167.00  4.9964389E-01
   7167.33  5.0199571E-01
   7167.67  5.0258694E-01
   7168.00  5.0179025E-01
   7168.33  4.9999670E-01
   7168.67  4.9783400E-01
   7169.00  4.9571565E-01
   7169.33  4.9410370E-01
   7169.67  4.9323712E-01
   7170.00  4.9327018E-01
   7170.33  4.9438531E-01
   7170.67  4.9640162E-01
   7171.00  4.9917283E-01
   7171.33  5.0247527E-01
   7171.67  5.0582534E-01
   7172.00  5.0875003E-01
