    FDMNES
    energy     <xanes>
   7097.00  5.4223207E-03
   7097.33  5.5598374E-03
   7097.67  5.7039730E-03
   7098.00  5.8551928E-03
   7098.33  6.0150578E-03
   7098.67  6.1832773E-03
   7099.00  6.3604889E-03
   7099.33  6.5487494E-03
   7099.67  6.7477645E-03
   7100.00  6.9584307E-03
   7100.33  7.1835275E-03
   7100.67  7.4227899E-03
   7101.00  7.6775165E-03
   7101.33  7.9515779E-03
   7101.67  8.2448103E-03
   7102.00  8.5591624E-03
   7102.33  8.9002201E-03
   7102.67  9.2680789E-03
   7103.00  9.6657899E-03
   7103.33  1.0101772E-02
   7103.67  1.0576734E-02
   7104.00  1.1095710E-02
   7104.33  1.1672088E-02
   7104.67  1.2308030E-02
   7105.00  1.3012401E-02
   7105.33  1.3808001E-02
   7105.67  1.4700589E-02
   7106.00  1.5707164E-02
   7106.33  1.6870245E-02
   7106.67  1.8205286E-02
   7107.00  1.9748910E-02
   7107.33  2.1591127E-02
   7107.67  2.3777554E-02
   7108.00  2.6401684E-02
   7108.33  2.9694203E-02
   7108.67  3.3819133E-02
   7109.00  3.9089613E-02
   7109.33  4.6318978E-02
   7109.67  5.6356796E-02
   7110.00  7.0857380E-02
   7110.33  9.4475255E-02
   7110.67  1.3177570E-01
   7111.00  1.8349610E-01
   7111.33  2.4036358E-01
   7111.67  3.0169039E-01
   7112.00  3.7770992E-01
   7112.33  4.5914556E-01
   7112.67  5.3963094E-01
   7113.00  6.1266913E-01
   7113.33  6.2062682E-01
   7113.67  5.7359500E-01
   7114.00  5.0856955E-01
   7114.33  4.3173649E-01
   7114.67  3.5435057E-01
   7115.00  2.9293783E-01
   7115.33  2.5441528E-01
   7115.67  2.3273939E-01
   7116.00  2.2429272E-01
   7116.33  2.2343282E-01
   7116.67  2.2051370E-01
   7117.00  2.1194397E-01
   7117.33  1.9951250E-01
   7117.67  1.8684859E-01
   7118.00  1.7540605E-01
   7118.33  1.6593042E-01
   7118.67  1.5810389E-01
   7119.00  1.5170083E-01
   7119.33  1.4678039E-01
   7119.67  1.4316778E-01
   7120.00  1.4049222E-01
   7120.33  1.3804740E-01
   7120.67  1.3562232E-01
   7121.00  1.3363404E-01
   7121.33  1.3282700E-01
   7121.67  1.3331383E-01
   7122.00  1.3508506E-01
   7122.33  1.3831990E-01
   7122.67  1.4287962E-01
   7123.00  1.4866575E-01
   7123.33  1.5549117E-01
   7123.67  1.6306938E-01
   7124.00  1.7175033E-01
   7124.33  1.8265233E-01
   7124.67  1.9623674E-01
   7125.00  2.1248600E-01
   7125.33  2.3044457E-01
   7125.67  2.4798510E-01
   7126.00  2.6410373E-01
   7126.33  2.7949395E-01
   7126.67  2.9629618E-01
   7127.00  3.1604528E-01
   7127.33  3.3987129E-01
   7127.67  3.6684739E-01
   7128.00  3.9606135E-01
   7128.33  4.2650825E-01
   7128.67  4.5713865E-01
   7129.00  4.8765895E-01
   7129.33  5.1880488E-01
   7129.67  5.5231917E-01
   7130.00  5.9011393E-01
   7130.33  6.3452815E-01
   7130.67  6.8527071E-01
   7131.00  7.4198257E-01
   7131.33  8.0440125E-01
   7131.67  8.7037381E-01
   7132.00  9.3760788E-01
   7132.33  1.0012760E+00
   7132.67  1.0556528E+00
   7133.00  1.0953061E+00
   7133.33  1.1133696E+00
   7133.67  1.1107784E+00
   7134.00  1.0882212E+00
   7134.33  1.0459152E+00
   7134.67  9.9027262E-01
   7135.00  9.2608711E-01
   7135.33  8.5861778E-01
   7135.67  7.9257605E-01
   7136.00  7.3032297E-01
   7136.33  6.7397993E-01
   7136.67  6.2349809E-01
   7137.00  5.7905991E-01
   7137.33  5.4148706E-01
   7137.67  5.1002025E-01
   7138.00  4.8463175E-01
   7138.33  4.6595216E-01
   7138.67  4.5297032E-01
   7139.00  4.4530043E-01
   7139.33  4.4288421E-01
   7139.67  4.4433621E-01
   7140.00  4.4890925E-01
   7140.33  4.5603487E-01
   7140.67  4.6467064E-01
   7141.00  4.7427673E-01
   7141.33  4.8442694E-01
   7141.67  4.9471428E-01
   7142.00  5.0493110E-01
   7142.33  5.1487880E-01
   7142.67  5.2446673E-01
   7143.00  5.3361073E-01
   7143.33  5.4215499E-01
   7143.67  5.5007945E-01
   7144.00  5.5731023E-01
   7144.33  5.6366843E-01
   7144.67  5.6917886E-01
   7145.00  5.7379219E-01
   7145.33  5.7735482E-01
   7145.67  5.7997355E-01
   7146.00  5.8166444E-01
   7146.33  5.8236879E-01
   7146.67  5.8227966E-01
   7147.00  5.8148625E-01
   7147.33  5.8003543E-01
   7147.67  5.7813838E-01
   7148.00  5.7592416E-01
   7148.33  5.7352576E-01
   7148.67  5.7110993E-01
   7149.00  5.6878805E-01
   7149.33  5.6669141E-01
   7149.67  5.6487080E-01
   7150.00  5.6336323E-01
   7150.33  5.6222241E-01
   7150.67  5.6139316E-01
   7151.00  5.6084668E-01
   7151.33  5.6056714E-01
   7151.67  5.6047515E-01
   7152.00  5.6053112E-01
   7152.33  5.6071314E-01
   7152.67  5.6098696E-01
   7153.00  5.6134911E-01
   7153.33  5.6182359E-01
   7153.67  5.6242267E-01
   7154.00  5.6317346E-01
   7154.33  5.6413033E-01
   7154.67  5.6529445E-01
   7155.00  5.6667527E-01
   7155.33  5.6829370E-01
   7155.67  5.7009981E-01
   7156.00  5.7206126E-01
   7156.33  5.7414447E-01
   7156.67  5.7628375E-01
   7157.00  5.7843394E-01
   7157.33  5.8054040E-01
   7157.67  5.8256276E-01
   7158.00  5.8446549E-01
   7158.33  5.8618903E-01
   7158.67  5.8771381E-01
   7159.00  5.8900559E-01
   7159.33  5.8998975E-01
   7159.67  5.9066055E-01
   7160.00  5.9098024E-01
   7160.33  5.9084959E-01
   7160.67  5.9026822E-01
   7161.00  5.8919574E-01
   7161.33  5.8752447E-01
   7161.67  5.8528915E-01
   7162.00  5.8247272E-01
   7162.33  5.7899232E-01
   7162.67  5.7492438E-01
   7163.00  5.7028075E-01
   7163.33  5.6501614E-01
   7163.67  5.5923241E-01
   7164.00  5.5296341E-01
   7164.33  5.4619669E-01
   7164.67  5.3903316E-01
   7165.00  5.3151495E-01
   7165.33  5.2365560E-01
   7165.67  5.1554783E-01
   7166.00  5.0724268E-01
   7166.33  4.9878570E-01
   7166.67  4.9025861E-01
   7167.00  4.8171934E-01
   7167.33  4.7324356E-01
   7167.67  4.6489199E-01
   7168.00  4.5672150E-01
   7168.33  4.4882834E-01
   7168.67  4.4124689E-01
   7169.00  4.3402660E-01
   7169.33  4.2726348E-01
   7169.67  4.2094131E-01
   7170.00  4.1508430E-01
   7170.33  4.0977691E-01
   7170.67  4.0497727E-01
   7171.00  4.0070175E-01
   7171.33  3.9704474E-01
   7171.67  3.9398271E-01
   7172.00  3.9157014E-01
