    FDMNES
    energy     <xanes>
   7097.00  5.3600655E-03
   7097.33  5.4944689E-03
   7097.67  5.6352688E-03
   7098.00  5.7829105E-03
   7098.33  5.9388949E-03
   7098.67  6.1029350E-03
   7099.00  6.2756395E-03
   7099.33  6.4589806E-03
   7099.67  6.6526657E-03
   7100.00  6.8575478E-03
   7100.33  7.0762844E-03
   7100.67  7.3086069E-03
   7101.00  7.5557468E-03
   7101.33  7.8213917E-03
   7101.67  8.1053629E-03
   7102.00  8.4095012E-03
   7102.33  8.7391066E-03
   7102.67  9.0942342E-03
   7103.00  9.4777530E-03
   7103.33  9.8976123E-03
   7103.67  1.0354423E-02
   7104.00  1.0852892E-02
   7104.33  1.1405587E-02
   7104.67  1.2014433E-02
   7105.00  1.2687664E-02
   7105.33  1.3446523E-02
   7105.67  1.4296173E-02
   7106.00  1.5252264E-02
   7106.33  1.6354033E-02
   7106.67  1.7615296E-02
   7107.00  1.9069364E-02
   7107.33  2.0798210E-02
   7107.67  2.2842191E-02
   7108.00  2.5284903E-02
   7108.33  2.8332353E-02
   7108.67  3.2126867E-02
   7109.00  3.6941092E-02
   7109.33  4.3479033E-02
   7109.67  5.2454411E-02
   7110.00  6.5253139E-02
   7110.33  8.5774328E-02
   7110.67  1.1810964E-01
   7111.00  1.6424823E-01
   7111.33  2.1787121E-01
   7111.67  2.7859080E-01
   7112.00  3.5084834E-01
   7112.33  4.2422418E-01
   7112.67  5.0402179E-01
   7113.00  5.8107651E-01
   7113.33  6.0517086E-01
   7113.67  5.8797959E-01
   7114.00  5.3927482E-01
   7114.33  4.5393970E-01
   7114.67  3.6763387E-01
   7115.00  3.0173052E-01
   7115.33  2.6078352E-01
   7115.67  2.3662832E-01
   7116.00  2.2483181E-01
   7116.33  2.2002195E-01
   7116.67  2.1439036E-01
   7117.00  2.0503392E-01
   7117.33  1.9289208E-01
   7117.67  1.8057820E-01
   7118.00  1.6948527E-01
   7118.33  1.6078931E-01
   7118.67  1.5446846E-01
   7119.00  1.5021589E-01
   7119.33  1.4745675E-01
   7119.67  1.4515109E-01
   7120.00  1.4250603E-01
   7120.33  1.3904398E-01
   7120.67  1.3564431E-01
   7121.00  1.3322117E-01
   7121.33  1.3244881E-01
   7121.67  1.3299447E-01
   7122.00  1.3457873E-01
   7122.33  1.3731304E-01
   7122.67  1.4130328E-01
   7123.00  1.4677601E-01
   7123.33  1.5420423E-01
   7123.67  1.6366310E-01
   7124.00  1.7542720E-01
   7124.33  1.9000786E-01
   7124.67  2.0681013E-01
   7125.00  2.2491843E-01
   7125.33  2.4261069E-01
   7125.67  2.5863087E-01
   7126.00  2.7295003E-01
   7126.33  2.8666170E-01
   7126.67  3.0154815E-01
   7127.00  3.1898638E-01
   7127.33  3.4038898E-01
   7127.67  3.6528996E-01
   7128.00  3.9292341E-01
   7128.33  4.2194621E-01
   7128.67  4.5058979E-01
   7129.00  4.7843093E-01
   7129.33  5.0703705E-01
   7129.67  5.3888679E-01
   7130.00  5.7581449E-01
   7130.33  6.1959895E-01
   7130.67  6.6932254E-01
   7131.00  7.2427173E-01
   7131.33  7.8385753E-01
   7131.67  8.4627925E-01
   7132.00  9.1032591E-01
   7132.33  9.7418337E-01
   7132.67  1.0345439E+00
   7133.00  1.0864947E+00
   7133.33  1.1205616E+00
   7133.67  1.1320427E+00
   7134.00  1.1184238E+00
   7134.33  1.0789605E+00
   7134.67  1.0226484E+00
   7135.00  9.5588894E-01
   7135.33  8.8497890E-01
   7135.67  8.1532508E-01
   7136.00  7.4959764E-01
   7136.33  6.9018083E-01
   7136.67  6.3707868E-01
   7137.00  5.9048276E-01
   7137.33  5.5121901E-01
   7137.67  5.1839256E-01
   7138.00  4.9189207E-01
   7138.33  4.7227232E-01
   7138.67  4.5842692E-01
   7139.00  4.4993143E-01
   7139.33  4.4672656E-01
   7139.67  4.4745735E-01
   7140.00  4.5142507E-01
   7140.33  4.5813783E-01
   7140.67  4.6655804E-01
   7141.00  4.7612721E-01
   7141.33  4.8635526E-01
   7141.67  4.9669905E-01
   7142.00  5.0682914E-01
   7142.33  5.1638550E-01
   7142.67  5.2522991E-01
   7143.00  5.3326012E-01
   7143.33  5.4031946E-01
   7143.67  5.4652087E-01
   7144.00  5.5189160E-01
   7144.33  5.5637029E-01
   7144.67  5.6008544E-01
   7145.00  5.6305048E-01
   7145.33  5.6517697E-01
   7145.67  5.6656011E-01
   7146.00  5.6720931E-01
   7146.33  5.6707002E-01
   7146.67  5.6629549E-01
   7147.00  5.6496422E-01
   7147.33  5.6313033E-01
   7147.67  5.6098568E-01
   7148.00  5.5866632E-01
   7148.33  5.5634103E-01
   7148.67  5.5417724E-01
   7149.00  5.5230396E-01
   7149.33  5.5089609E-01
   7149.67  5.4999100E-01
   7150.00  5.4963588E-01
   7150.33  5.4992029E-01
   7150.67  5.5075636E-01
   7151.00  5.5210696E-01
   7151.33  5.5396534E-01
   7151.67  5.5619765E-01
   7152.00  5.5873149E-01
   7152.33  5.6150840E-01
   7152.67  5.6441968E-01
   7153.00  5.6740088E-01
   7153.33  5.7038707E-01
   7153.67  5.7332434E-01
   7154.00  5.7617710E-01
   7154.33  5.7890112E-01
   7154.67  5.8149094E-01
   7155.00  5.8393443E-01
   7155.33  5.8620015E-01
   7155.67  5.8829703E-01
   7156.00  5.9021461E-01
   7156.33  5.9191398E-01
   7156.67  5.9340103E-01
   7157.00  5.9465638E-01
   7157.33  5.9562269E-01
   7157.67  5.9630564E-01
   7158.00  5.9668290E-01
   7158.33  5.9669023E-01
   7158.67  5.9635005E-01
   7159.00  5.9565042E-01
   7159.33  5.9453743E-01
   7159.67  5.9305727E-01
   7160.00  5.9121106E-01
   7160.33  5.8895197E-01
   7160.67  5.8632809E-01
   7161.00  5.8334401E-01
   7161.33  5.7995954E-01
   7161.67  5.7622372E-01
   7162.00  5.7214123E-01
   7162.33  5.6767346E-01
   7162.67  5.6286661E-01
   7163.00  5.5772392E-01
   7163.33  5.5220847E-01
   7163.67  5.4636789E-01
   7164.00  5.4020990E-01
   7164.33  5.3370800E-01
   7164.67  5.2691669E-01
   7165.00  5.1985610E-01
   7165.33  5.1252707E-01
   7165.67  5.0499904E-01
   7166.00  4.9731413E-01
   7166.33  4.8951582E-01
   7166.67  4.8167825E-01
   7167.00  4.7385761E-01
   7167.33  4.6613088E-01
   7167.67  4.5855178E-01
   7168.00  4.5117260E-01
   7168.33  4.4408332E-01
   7168.67  4.3730501E-01
   7169.00  4.3087495E-01
   7169.33  4.2487367E-01
   7169.67  4.1927589E-01
   7170.00  4.1409513E-01
   7170.33  4.0939735E-01
   7170.67  4.0513940E-01
   7171.00  4.0133241E-01
   7171.33  3.9805797E-01
   7171.67  3.9530153E-01
   7172.00  3.9311949E-01
