    FDMNES
    energy     <xanes>
   7097.00  4.1892338E-03
   7097.33  4.2683541E-03
   7097.67  4.3502153E-03
   7098.00  4.4349639E-03
   7098.33  4.5231701E-03
   7098.67  4.6146540E-03
   7099.00  4.7096071E-03
   7099.33  4.8087388E-03
   7099.67  4.9118566E-03
   7100.00  5.0192179E-03
   7100.33  5.1317278E-03
   7100.67  5.2491876E-03
   7101.00  5.3719554E-03
   7101.33  5.5012222E-03
   7101.67  5.6368000E-03
   7102.00  5.7792079E-03
   7102.33  5.9300776E-03
   7102.67  6.0892706E-03
   7103.00  6.2575807E-03
   7103.33  6.4373612E-03
   7103.67  6.6286179E-03
   7104.00  6.8326482E-03
   7104.33  7.0530841E-03
   7104.67  7.2903152E-03
   7105.00  7.5466522E-03
   7105.33  7.8282321E-03
   7105.67  8.1364901E-03
   7106.00  8.4760351E-03
   7106.33  8.8586052E-03
   7106.67  9.2887654E-03
   7107.00  9.7772554E-03
   7107.33  1.0350827E-02
   7107.67  1.1025152E-02
   7108.00  1.1831560E-02
   7108.33  1.2849171E-02
   7108.67  1.4145720E-02
   7109.00  1.5850349E-02
   7109.33  1.8315631E-02
   7109.67  2.1986041E-02
   7110.00  2.7750806E-02
   7110.33  3.8160660E-02
   7110.67  5.4991198E-02
   7111.00  7.3472053E-02
   7111.33  7.5716798E-02
   7111.67  6.7716748E-02
   7112.00  6.0944708E-02
   7112.33  6.0466970E-02
   7112.67  6.6638963E-02
   7113.00  7.9359434E-02
   7113.33  9.6642895E-02
   7113.67  1.1244011E-01
   7114.00  1.1527604E-01
   7114.33  9.6912578E-02
   7114.67  7.5526669E-02
   7115.00  5.9041775E-02
   7115.33  4.8421102E-02
   7115.67  4.1737808E-02
   7116.00  3.7837731E-02
   7116.33  3.5908241E-02
   7116.67  3.5122463E-02
   7117.00  3.5192590E-02
   7117.33  3.6026053E-02
   7117.67  3.7466004E-02
   7118.00  3.9508527E-02
   7118.33  4.2285777E-02
   7118.67  4.5825267E-02
   7119.00  5.0273939E-02
   7119.33  5.6027096E-02
   7119.67  6.3300701E-02
   7120.00  7.2519606E-02
   7120.33  8.4681653E-02
   7120.67  1.0035946E-01
   7121.00  1.2052136E-01
   7121.33  1.4714642E-01
   7121.67  1.8050437E-01
   7122.00  2.2074194E-01
   7122.33  2.6683723E-01
   7122.67  3.1334396E-01
   7123.00  3.5597478E-01
   7123.33  3.9453004E-01
   7123.67  4.3213725E-01
   7124.00  4.6692062E-01
   7124.33  4.9178839E-01
   7124.67  5.0846700E-01
   7125.00  5.2370069E-01
   7125.33  5.4521315E-01
   7125.67  5.7595371E-01
   7126.00  6.1733399E-01
   7126.33  6.7056114E-01
   7126.67  7.3165641E-01
   7127.00  7.9589299E-01
   7127.33  8.5588954E-01
   7127.67  9.0850189E-01
   7128.00  9.5508114E-01
   7128.33  9.9648404E-01
   7128.67  1.0295084E+00
   7129.00  1.0479764E+00
   7129.33  1.0440893E+00
   7129.67  1.0208604E+00
   7130.00  9.8314654E-01
   7130.33  9.3765812E-01
   7130.67  8.9136412E-01
   7131.00  8.4703356E-01
   7131.33  8.0610966E-01
   7131.67  7.6848255E-01
   7132.00  7.3453947E-01
   7132.33  7.0561298E-01
   7132.67  6.8200719E-01
   7133.00  6.6429600E-01
   7133.33  6.5347750E-01
   7133.67  6.4833524E-01
   7134.00  6.4787237E-01
   7134.33  6.5075119E-01
   7134.67  6.5469112E-01
   7135.00  6.5823146E-01
   7135.33  6.5994453E-01
   7135.67  6.5940066E-01
   7136.00  6.5647619E-01
   7136.33  6.5111650E-01
   7136.67  6.4406428E-01
   7137.00  6.3584130E-01
   7137.33  6.2704169E-01
   7137.67  6.1836780E-01
   7138.00  6.1030444E-01
   7138.33  6.0344105E-01
   7138.67  5.9796901E-01
   7139.00  5.9405924E-01
   7139.33  5.9197845E-01
   7139.67  5.9140652E-01
   7140.00  5.9205825E-01
   7140.33  5.9344531E-01
   7140.67  5.9471731E-01
   7141.00  5.9518802E-01
   7141.33  5.9406224E-01
   7141.67  5.9125533E-01
   7142.00  5.8685209E-01
   7142.33  5.8104576E-01
   7142.67  5.7441910E-01
   7143.00  5.6726121E-01
   7143.33  5.5968421E-01
   7143.67  5.5170515E-01
   7144.00  5.4320397E-01
   7144.33  5.3396415E-01
   7144.67  5.2406836E-01
   7145.00  5.1364066E-01
   7145.33  5.0290170E-01
   7145.67  4.9221879E-01
   7146.00  4.8186471E-01
   7146.33  4.7213816E-01
   7146.67  4.6308787E-01
   7147.00  4.5473588E-01
   7147.33  4.4712864E-01
   7147.67  4.4010746E-01
   7148.00  4.3358328E-01
   7148.33  4.2747703E-01
   7148.67  4.2160192E-01
   7149.00  4.1583708E-01
   7149.33  4.1007582E-01
   7149.67  4.0428414E-01
   7150.00  3.9850262E-01
   7150.33  3.9285913E-01
   7150.67  3.8748253E-01
   7151.00  3.8247774E-01
   7151.33  3.7796300E-01
   7151.67  3.7388087E-01
   7152.00  3.7018361E-01
   7152.33  3.6681730E-01
   7152.67  3.6363695E-01
   7153.00  3.6054509E-01
   7153.33  3.5742321E-01
   7153.67  3.5416106E-01
   7154.00  3.5067028E-01
   7154.33  3.4683326E-01
   7154.67  3.4264685E-01
   7155.00  3.3811262E-01
   7155.33  3.3324343E-01
   7155.67  3.2817863E-01
   7156.00  3.2304259E-01
   7156.33  3.1802341E-01
   7156.67  3.1329724E-01
   7157.00  3.0902116E-01
   7157.33  3.0542732E-01
   7157.67  3.0254884E-01
   7158.00  3.0043313E-01
   7158.33  2.9917605E-01
   7158.67  2.9863239E-01
   7159.00  2.9873316E-01
   7159.33  2.9945510E-01
   7159.67  3.0063938E-01
   7160.00  3.0221926E-01
   7160.33  3.0417598E-01
   7160.67  3.0642679E-01
   7161.00  3.0895222E-01
   7161.33  3.1178101E-01
   7161.67  3.1488465E-01
   7162.00  3.1826352E-01
   7162.33  3.2194677E-01
   7162.67  3.2589910E-01
   7163.00  3.3012271E-01
   7163.33  3.3465075E-01
   7163.67  3.3943829E-01
   7164.00  3.4446637E-01
   7164.33  3.4972950E-01
   7164.67  3.5516201E-01
   7165.00  3.6072570E-01
   7165.33  3.6638544E-01
   7165.67  3.7208589E-01
   7166.00  3.7779074E-01
   7166.33  3.8345725E-01
   7166.67  3.8905539E-01
   7167.00  3.9455862E-01
   7167.33  3.9992330E-01
   7167.67  4.0513820E-01
   7168.00  4.1018154E-01
   7168.33  4.1500568E-01
   7168.67  4.1961404E-01
   7169.00  4.2399118E-01
   7169.33  4.2809301E-01
   7169.67  4.3194265E-01
   7170.00  4.3553881E-01
   7170.33  4.3885422E-01
   7170.67  4.4192606E-01
   7171.00  4.4475554E-01
   7171.33  4.4729488E-01
   7171.67  4.4951836E-01
   7172.00  4.5132963E-01
