    FDMNES
    energy     <xanes>
   7097.00  4.2261924E-03
   7097.33  4.3086278E-03
   7097.67  4.3941827E-03
   7098.00  4.4830455E-03
   7098.33  4.5759018E-03
   7098.67  4.6725764E-03
   7099.00  4.7733236E-03
   7099.33  4.8790227E-03
   7099.67  4.9894930E-03
   7100.00  5.1050878E-03
   7100.33  5.2269685E-03
   7100.67  5.3549622E-03
   7101.00  5.4895785E-03
   7101.33  5.6324056E-03
   7101.67  5.7833106E-03
   7102.00  5.9430602E-03
   7102.33  6.1139226E-03
   7102.67  6.2958768E-03
   7103.00  6.4901386E-03
   7103.33  6.7001264E-03
   7103.67  6.9261004E-03
   7104.00  7.1701165E-03
   7104.33  7.4376883E-03
   7104.67  7.7297778E-03
   7105.00  8.0501554E-03
   7105.33  8.4085240E-03
   7105.67  8.8076891E-03
   7106.00  9.2553318E-03
   7106.33  9.7706123E-03
   7106.67  1.0361699E-02
   7107.00  1.1046627E-02
   7107.33  1.1869745E-02
   7107.67  1.2857611E-02
   7108.00  1.4062099E-02
   7108.33  1.5612764E-02
   7108.67  1.7617921E-02
   7109.00  2.0281372E-02
   7109.33  2.4149223E-02
   7109.67  2.9876956E-02
   7110.00  3.8759799E-02
   7110.33  5.4557639E-02
   7110.67  8.1065909E-02
   7111.00  1.1738714E-01
   7111.33  1.4434662E-01
   7111.67  1.4780617E-01
   7112.00  1.3777976E-01
   7112.33  1.3022483E-01
   7112.67  1.2498604E-01
   7113.00  1.2103662E-01
   7113.33  1.1600665E-01
   7113.67  1.0718927E-01
   7114.00  9.6506252E-02
   7114.33  8.5533978E-02
   7114.67  7.2542918E-02
   7115.00  5.9308810E-02
   7115.33  4.9848798E-02
   7115.67  4.3934312E-02
   7116.00  4.0604459E-02
   7116.33  3.9217756E-02
   7116.67  3.9067747E-02
   7117.00  3.9921072E-02
   7117.33  4.1744010E-02
   7117.67  4.4379244E-02
   7118.00  4.7833295E-02
   7118.33  5.2253842E-02
   7118.67  5.7577178E-02
   7119.00  6.3807943E-02
   7119.33  7.0959734E-02
   7119.67  7.8703286E-02
   7120.00  8.6778009E-02
   7120.33  9.4989702E-02
   7120.67  1.0329020E-01
   7121.00  1.1168076E-01
   7121.33  1.2015432E-01
   7121.67  1.2876356E-01
   7122.00  1.3776656E-01
   7122.33  1.4811827E-01
   7122.67  1.6108744E-01
   7123.00  1.7788749E-01
   7123.33  1.9934436E-01
   7123.67  2.2387041E-01
   7124.00  2.5073629E-01
   7124.33  2.8016166E-01
   7124.67  3.1211971E-01
   7125.00  3.4725623E-01
   7125.33  3.8572018E-01
   7125.67  4.2374591E-01
   7126.00  4.5841552E-01
   7126.33  4.9323290E-01
   7126.67  5.3496652E-01
   7127.00  5.8555615E-01
   7127.33  6.4297472E-01
   7127.67  7.0146002E-01
   7128.00  7.5754240E-01
   7128.33  8.0768069E-01
   7128.67  8.4855806E-01
   7129.00  8.7571575E-01
   7129.33  8.8411221E-01
   7129.67  8.7850749E-01
   7130.00  8.6498204E-01
   7130.33  8.5088745E-01
   7130.67  8.4073582E-01
   7131.00  8.3531730E-01
   7131.33  8.3329049E-01
   7131.67  8.3118093E-01
   7132.00  8.2643266E-01
   7132.33  8.1681319E-01
   7132.67  8.0303194E-01
   7133.00  7.8641073E-01
   7133.33  7.6882993E-01
   7133.67  7.5200534E-01
   7134.00  7.3669803E-01
   7134.33  7.2339665E-01
   7134.67  7.1180089E-01
   7135.00  7.0178698E-01
   7135.33  6.9343672E-01
   7135.67  6.8650400E-01
   7136.00  6.8093991E-01
   7136.33  6.7682434E-01
   7136.67  6.7387811E-01
   7137.00  6.7196880E-01
   7137.33  6.7101684E-01
   7137.67  6.7070889E-01
   7138.00  6.7086712E-01
   7138.33  6.7134358E-01
   7138.67  6.7196286E-01
   7139.00  6.7263787E-01
   7139.33  6.7327691E-01
   7139.67  6.7377800E-01
   7140.00  6.7401842E-01
   7140.33  6.7375913E-01
   7140.67  6.7284477E-01
   7141.00  6.7109721E-01
   7141.33  6.6821691E-01
   7141.67  6.6421126E-01
   7142.00  6.5902863E-01
   7142.33  6.5254927E-01
   7142.67  6.4511361E-01
   7143.00  6.3710320E-01
   7143.33  6.2921486E-01
   7143.67  6.2218308E-01
   7144.00  6.1648912E-01
   7144.33  6.1253244E-01
   7144.67  6.0994040E-01
   7145.00  6.0833455E-01
   7145.33  6.0719360E-01
   7145.67  6.0586078E-01
   7146.00  6.0387859E-01
   7146.33  6.0073714E-01
   7146.67  5.9636416E-01
   7147.00  5.9071747E-01
   7147.33  5.8371193E-01
   7147.67  5.7565522E-01
   7148.00  5.6672851E-01
   7148.33  5.5707457E-01
   7148.67  5.4698468E-01
   7149.00  5.3661889E-01
   7149.33  5.2611641E-01
   7149.67  5.1560912E-01
   7150.00  5.0516953E-01
   7150.33  4.9487270E-01
   7150.67  4.8474424E-01
   7151.00  4.7481348E-01
   7151.33  4.6514428E-01
   7151.67  4.5574965E-01
   7152.00  4.4667424E-01
   7152.33  4.3802545E-01
   7152.67  4.2981808E-01
   7153.00  4.2209992E-01
   7153.33  4.1497609E-01
   7153.67  4.0839418E-01
   7154.00  4.0234183E-01
   7154.33  3.9683660E-01
   7154.67  3.9174805E-01
   7155.00  3.8700070E-01
   7155.33  3.8252537E-01
   7155.67  3.7819054E-01
   7156.00  3.7391813E-01
   7156.33  3.6963858E-01
   7156.67  3.6531827E-01
   7157.00  3.6096023E-01
   7157.33  3.5660583E-01
   7157.67  3.5232860E-01
   7158.00  3.4820917E-01
   7158.33  3.4438042E-01
   7158.67  3.4090445E-01
   7159.00  3.3784848E-01
   7159.33  3.3532787E-01
   7159.67  3.3331592E-01
   7160.00  3.3182603E-01
   7160.33  3.3092740E-01
   7160.67  3.3054556E-01
   7161.00  3.3065578E-01
   7161.33  3.3128340E-01
   7161.67  3.3235876E-01
   7162.00  3.3388079E-01
   7162.33  3.3590871E-01
   7162.67  3.3839183E-01
   7163.00  3.4133474E-01
   7163.33  3.4479501E-01
   7163.67  3.4870305E-01
   7164.00  3.5303640E-01
   7164.33  3.5780346E-01
   7164.67  3.6290240E-01
   7165.00  3.6827772E-01
   7165.33  3.7388287E-01
   7165.67  3.7961678E-01
   7166.00  3.8541628E-01
   7166.33  3.9121239E-01
   7166.67  3.9693962E-01
   7167.00  4.0254791E-01
   7167.33  4.0797578E-01
   7167.67  4.1321462E-01
   7168.00  4.1824572E-01
   7168.33  4.2302452E-01
   7168.67  4.2756670E-01
   7169.00  4.3186427E-01
   7169.33  4.3587934E-01
   7169.67  4.3963863E-01
   7170.00  4.4313905E-01
   7170.33  4.4634473E-01
   7170.67  4.4928399E-01
   7171.00  4.5194929E-01
   7171.33  4.5428390E-01
   7171.67  4.5627949E-01
   7172.00  4.5787342E-01
