    FDMNES
    energy     <xanes>
   7097.00  5.0673829E-03
   7097.33  5.1828713E-03
   7097.67  5.3034759E-03
   7098.00  5.4295375E-03
   7098.33  5.5622309E-03
   7098.67  5.7013063E-03
   7099.00  5.8472262E-03
   7099.33  6.0015200E-03
   7099.67  6.1639300E-03
   7100.00  6.3351000E-03
   7100.33  6.5170727E-03
   7100.67  6.7096036E-03
   7101.00  6.9136172E-03
   7101.33  7.1319250E-03
   7101.67  7.3643442E-03
   7102.00  7.6122512E-03
   7102.33  7.8796585E-03
   7102.67  8.1665525E-03
   7103.00  8.4750745E-03
   7103.33  8.8112109E-03
   7103.67  9.1753630E-03
   7104.00  9.5710459E-03
   7104.33  1.0007704E-02
   7104.67  1.0486739E-02
   7105.00  1.1014333E-02
   7105.33  1.1606494E-02
   7105.67  1.2267150E-02
   7106.00  1.3008194E-02
   7106.33  1.3859513E-02
   7106.67  1.4831996E-02
   7107.00  1.5951575E-02
   7107.33  1.7282217E-02
   7107.67  1.8857150E-02
   7108.00  2.0744319E-02
   7108.33  2.3112323E-02
   7108.67  2.6086155E-02
   7109.00  2.9904521E-02
   7109.33  3.5195054E-02
   7109.67  4.2646885E-02
   7110.00  5.3613587E-02
   7110.33  7.1975413E-02
   7110.67  1.0177473E-01
   7111.00  1.4370036E-01
   7111.33  1.8387076E-01
   7111.67  2.0847155E-01
   7112.00  2.2218587E-01
   7112.33  2.4564957E-01
   7112.67  2.8992194E-01
   7113.00  3.4091071E-01
   7113.33  3.7090784E-01
   7113.67  3.8813789E-01
   7114.00  3.9306473E-01
   7114.33  3.6580486E-01
   7114.67  3.1924924E-01
   7115.00  2.7439219E-01
   7115.33  2.4460533E-01
   7115.67  2.2761576E-01
   7116.00  2.2004524E-01
   7116.33  2.1937048E-01
   7116.67  2.2152708E-01
   7117.00  2.2080472E-01
   7117.33  2.0899510E-01
   7117.67  1.8968965E-01
   7118.00  1.7039857E-01
   7118.33  1.5703196E-01
   7118.67  1.4927492E-01
   7119.00  1.4558200E-01
   7119.33  1.4367912E-01
   7119.67  1.4130469E-01
   7120.00  1.3785721E-01
   7120.33  1.3389751E-01
   7120.67  1.3058072E-01
   7121.00  1.2856189E-01
   7121.33  1.2832049E-01
   7121.67  1.2985808E-01
   7122.00  1.3349691E-01
   7122.33  1.3998532E-01
   7122.67  1.4921137E-01
   7123.00  1.6077792E-01
   7123.33  1.7314514E-01
   7123.67  1.8427414E-01
   7124.00  1.9407856E-01
   7124.33  2.0501167E-01
   7124.67  2.1958147E-01
   7125.00  2.3868582E-01
   7125.33  2.6189979E-01
   7125.67  2.8639135E-01
   7126.00  3.0988708E-01
   7126.33  3.3051480E-01
   7126.67  3.4900640E-01
   7127.00  3.6683823E-01
   7127.33  3.8556474E-01
   7127.67  4.0544246E-01
   7128.00  4.2619010E-01
   7128.33  4.4748065E-01
   7128.67  4.6936446E-01
   7129.00  4.9286997E-01
   7129.33  5.2041310E-01
   7129.67  5.5308420E-01
   7130.00  5.9132448E-01
   7130.33  6.3576961E-01
   7130.67  6.8526928E-01
   7131.00  7.3851206E-01
   7131.33  7.9247666E-01
   7131.67  8.4298324E-01
   7132.00  8.8701317E-01
   7132.33  9.2199407E-01
   7132.67  9.4948239E-01
   7133.00  9.7073136E-01
   7133.33  9.8623790E-01
   7133.67  9.9684402E-01
   7134.00  1.0020538E+00
   7134.33  1.0001721E+00
   7134.67  9.9122895E-01
   7135.00  9.7497863E-01
   7135.33  9.5088862E-01
   7135.67  9.2080926E-01
   7136.00  8.8595638E-01
   7136.33  8.4755470E-01
   7136.67  8.0760751E-01
   7137.00  7.6735889E-01
   7137.33  7.2814110E-01
   7137.67  6.9080791E-01
   7138.00  6.5602506E-01
   7138.33  6.2482452E-01
   7138.67  5.9732556E-01
   7139.00  5.7387639E-01
   7139.33  5.5525287E-01
   7139.67  5.4090008E-01
   7140.00  5.3055142E-01
   7140.33  5.2405417E-01
   7140.67  5.2022829E-01
   7141.00  5.1841901E-01
   7141.33  5.1814863E-01
   7141.67  5.1877796E-01
   7142.00  5.2004358E-01
   7142.33  5.2181042E-01
   7142.67  5.2390030E-01
   7143.00  5.2621813E-01
   7143.33  5.2865955E-01
   7143.67  5.3108942E-01
   7144.00  5.3339362E-01
   7144.33  5.3539250E-01
   7144.67  5.3697228E-01
   7145.00  5.3801486E-01
   7145.33  5.3831884E-01
   7145.67  5.3787104E-01
   7146.00  5.3661073E-01
   7146.33  5.3438665E-01
   7146.67  5.3129471E-01
   7147.00  5.2735748E-01
   7147.33  5.2255157E-01
   7147.67  5.1710235E-01
   7148.00  5.1115131E-01
   7148.33  5.0482949E-01
   7148.67  4.9836303E-01
   7149.00  4.9192592E-01
   7149.33  4.8575429E-01
   7149.67  4.8001264E-01
   7150.00  4.7484622E-01
   7150.33  4.7048281E-01
   7150.67  4.6694095E-01
   7151.00  4.6429080E-01
   7151.33  4.6270218E-01
   7151.67  4.6207318E-01
   7152.00  4.6239075E-01
   7152.33  4.6371995E-01
   7152.67  4.6586350E-01
   7153.00  4.6871688E-01
   7153.33  4.7219123E-01
   7153.67  4.7602669E-01
   7154.00  4.8004301E-01
   7154.33  4.8402684E-01
   7154.67  4.8779585E-01
   7155.00  4.9122617E-01
   7155.33  4.9417356E-01
   7155.67  4.9665920E-01
   7156.00  4.9869321E-01
   7156.33  5.0026484E-01
   7156.67  5.0148392E-01
   7157.00  5.0240734E-01
   7157.33  5.0307577E-01
   7157.67  5.0358616E-01
   7158.00  5.0399516E-01
   7158.33  5.0435914E-01
   7158.67  5.0473733E-01
   7159.00  5.0516888E-01
   7159.33  5.0570118E-01
   7159.67  5.0634920E-01
   7160.00  5.0712792E-01
   7160.33  5.0806509E-01
   7160.67  5.0914686E-01
   7161.00  5.1037216E-01
   7161.33  5.1175249E-01
   7161.67  5.1326006E-01
   7162.00  5.1488220E-01
   7162.33  5.1661183E-01
   7162.67  5.1841157E-01
   7163.00  5.2025343E-01
   7163.33  5.2210374E-01
   7163.67  5.2392715E-01
   7164.00  5.2569214E-01
   7164.33  5.2734714E-01
   7164.67  5.2886318E-01
   7165.00  5.3020315E-01
   7165.33  5.3129636E-01
   7165.67  5.3213043E-01
   7166.00  5.3267495E-01
   7166.33  5.3285985E-01
   7166.67  5.3270260E-01
   7167.00  5.3219081E-01
   7167.33  5.3127318E-01
   7167.67  5.2999868E-01
   7168.00  5.2837989E-01
   7168.33  5.2640251E-01
   7168.67  5.2414271E-01
   7169.00  5.2163932E-01
   7169.33  5.1892212E-01
   7169.67  5.1607979E-01
   7170.00  5.1317973E-01
   7170.33  5.1030175E-01
   7170.67  5.0751262E-01
   7171.00  5.0487296E-01
   7171.33  5.0249046E-01
   7171.67  5.0043558E-01
   7172.00  4.9880950E-01
