    FDMNES
    energy     <xanes>
   7097.00  5.0935647E-03
   7097.33  5.2100248E-03
   7097.67  5.3314897E-03
   7098.00  5.4582825E-03
   7098.33  5.5915358E-03
   7098.67  5.7309929E-03
   7099.00  5.8770912E-03
   7099.33  6.0312985E-03
   7099.67  6.1933503E-03
   7100.00  6.3638562E-03
   7100.33  6.5447714E-03
   7100.67  6.7358467E-03
   7101.00  6.9379618E-03
   7101.33  7.1538095E-03
   7101.67  7.3832097E-03
   7102.00  7.6274856E-03
   7102.33  7.8905027E-03
   7102.67  8.1722722E-03
   7103.00  8.4748895E-03
   7103.33  8.8041995E-03
   7103.67  9.1606929E-03
   7104.00  9.5479075E-03
   7104.33  9.9752883E-03
   7104.67  1.0444527E-02
   7105.00  1.0962106E-02
   7105.33  1.1544672E-02
   7105.67  1.2197095E-02
   7106.00  1.2932601E-02
   7106.33  1.3784169E-02
   7106.67  1.4766013E-02
   7107.00  1.5909392E-02
   7107.33  1.7291260E-02
   7107.67  1.8958437E-02
   7108.00  2.1002227E-02
   7108.33  2.3651539E-02
   7108.67  2.7102304E-02
   7109.00  3.1724279E-02
   7109.33  3.8517841E-02
   7109.67  4.8719769E-02
   7110.00  6.4785974E-02
   7110.33  9.3750757E-02
   7110.67  1.4105718E-01
   7111.00  1.9721848E-01
   7111.33  2.2436132E-01
   7111.67  2.3252102E-01
   7112.00  2.3351589E-01
   7112.33  2.2054611E-01
   7112.67  1.9847969E-01
   7113.00  1.7385760E-01
   7113.33  1.5033590E-01
   7113.67  1.2911139E-01
   7114.00  1.1260618E-01
   7114.33  1.0214111E-01
   7114.67  9.6024197E-02
   7115.00  9.3373694E-02
   7115.33  9.3935027E-02
   7115.67  9.7151699E-02
   7116.00  1.0310559E-01
   7116.33  1.1258191E-01
   7116.67  1.2594606E-01
   7117.00  1.4415746E-01
   7117.33  1.6935868E-01
   7117.67  2.0175636E-01
   7118.00  2.4068552E-01
   7118.33  2.8273453E-01
   7118.67  3.2210787E-01
   7119.00  3.5507915E-01
   7119.33  3.8075071E-01
   7119.67  4.0297271E-01
   7120.00  4.2345409E-01
   7120.33  4.4255418E-01
   7120.67  4.6067258E-01
   7121.00  4.7840776E-01
   7121.33  4.9672462E-01
   7121.67  5.1616061E-01
   7122.00  5.3676180E-01
   7122.33  5.5813630E-01
   7122.67  5.7934676E-01
   7123.00  5.9953030E-01
   7123.33  6.1730994E-01
   7123.67  6.3160185E-01
   7124.00  6.4117961E-01
   7124.33  6.4496920E-01
   7124.67  6.4494140E-01
   7125.00  6.4305242E-01
   7125.33  6.4139311E-01
   7125.67  6.4091321E-01
   7126.00  6.4125951E-01
   7126.33  6.4087343E-01
   7126.67  6.3852412E-01
   7127.00  6.3404887E-01
   7127.33  6.2778805E-01
   7127.67  6.2046264E-01
   7128.00  6.1239762E-01
   7128.33  6.0406032E-01
   7128.67  5.9619818E-01
   7129.00  5.8950644E-01
   7129.33  5.8475337E-01
   7129.67  5.8160213E-01
   7130.00  5.7947555E-01
   7130.33  5.7773797E-01
   7130.67  5.7600919E-01
   7131.00  5.7416491E-01
   7131.33  5.7203922E-01
   7131.67  5.6946777E-01
   7132.00  5.6613276E-01
   7132.33  5.6152573E-01
   7132.67  5.5572057E-01
   7133.00  5.4889480E-01
   7133.33  5.4129383E-01
   7133.67  5.3337087E-01
   7134.00  5.2543434E-01
   7134.33  5.1785627E-01
   7134.67  5.1088902E-01
   7135.00  5.0475066E-01
   7135.33  4.9979856E-01
   7135.67  4.9610925E-01
   7136.00  4.9385072E-01
   7136.33  4.9338602E-01
   7136.67  4.9458983E-01
   7137.00  4.9740500E-01
   7137.33  5.0179973E-01
   7137.67  5.0727614E-01
   7138.00  5.1349679E-01
   7138.33  5.2010211E-01
   7138.67  5.2672927E-01
   7139.00  5.3320486E-01
   7139.33  5.3937772E-01
   7139.67  5.4518935E-01
   7140.00  5.5055036E-01
   7140.33  5.5527684E-01
   7140.67  5.5932637E-01
   7141.00  5.6261386E-01
   7141.33  5.6493088E-01
   7141.67  5.6624829E-01
   7142.00  5.6641669E-01
   7142.33  5.6509023E-01
   7142.67  5.6231235E-01
   7143.00  5.5805911E-01
   7143.33  5.5223365E-01
   7143.67  5.4519112E-01
   7144.00  5.3714498E-01
   7144.33  5.2828455E-01
   7144.67  5.1897853E-01
   7145.00  5.0944514E-01
   7145.33  4.9990204E-01
   7145.67  4.9052885E-01
   7146.00  4.8144935E-01
   7146.33  4.7282884E-01
   7146.67  4.6470298E-01
   7147.00  4.5712703E-01
   7147.33  4.5022042E-01
   7147.67  4.4393657E-01
   7148.00  4.3828662E-01
   7148.33  4.3334836E-01
   7148.67  4.2903159E-01
   7149.00  4.2532299E-01
   7149.33  4.2227799E-01
   7149.67  4.1980462E-01
   7150.00  4.1789162E-01
   7150.33  4.1660381E-01
   7150.67  4.1586972E-01
   7151.00  4.1568431E-01
   7151.33  4.1609755E-01
   7151.67  4.1700245E-01
   7152.00  4.1833467E-01
   7152.33  4.2001318E-01
   7152.67  4.2182923E-01
   7153.00  4.2359601E-01
   7153.33  4.2501510E-01
   7153.67  4.2584109E-01
   7154.00  4.2583675E-01
   7154.33  4.2464166E-01
   7154.67  4.2226800E-01
   7155.00  4.1872606E-01
   7155.33  4.1402920E-01
   7155.67  4.0856133E-01
   7156.00  4.0259904E-01
   7156.33  3.9646086E-01
   7156.67  3.9047727E-01
   7157.00  3.8486945E-01
   7157.33  3.7989906E-01
   7157.67  3.7561422E-01
   7158.00  3.7206656E-01
   7158.33  3.6936035E-01
   7158.67  3.6737327E-01
   7159.00  3.6606222E-01
   7159.33  3.6544073E-01
   7159.67  3.6536203E-01
   7160.00  3.6576513E-01
   7160.33  3.6663375E-01
   7160.67  3.6785384E-01
   7161.00  3.6937774E-01
   7161.33  3.7118959E-01
   7161.67  3.7321734E-01
   7162.00  3.7543226E-01
   7162.33  3.7782726E-01
   7162.67  3.8036032E-01
   7163.00  3.8301273E-01
   7163.33  3.8577759E-01
   7163.67  3.8862571E-01
   7164.00  3.9154400E-01
   7164.33  3.9452608E-01
   7164.67  3.9755285E-01
   7165.00  4.0061480E-01
   7165.33  4.0370601E-01
   7165.67  4.0681654E-01
   7166.00  4.0994241E-01
   7166.33  4.1308257E-01
   7166.67  4.1623490E-01
   7167.00  4.1940024E-01
   7167.33  4.2258255E-01
   7167.67  4.2578226E-01
   7168.00  4.2900081E-01
   7168.33  4.3224166E-01
   7168.67  4.3550232E-01
   7169.00  4.3878149E-01
   7169.33  4.4207715E-01
   7169.67  4.4537957E-01
   7170.00  4.4867786E-01
   7170.33  4.5195048E-01
   7170.67  4.5517192E-01
   7171.00  4.5830464E-01
   7171.33  4.6125469E-01
   7171.67  4.6390746E-01
   7172.00  4.6608648E-01
