    FDMNES
    energy     <xanes>
   7097.00  4.7340009E-03
   7097.33  4.8392222E-03
   7097.67  4.9489245E-03
   7098.00  5.0633973E-03
   7098.33  5.1836546E-03
   7098.67  5.3094661E-03
   7099.00  5.4412231E-03
   7099.33  5.5802382E-03
   7099.67  5.7262729E-03
   7100.00  5.8798704E-03
   7100.33  6.0427751E-03
   7100.67  6.2147587E-03
   7101.00  6.3966004E-03
   7101.33  6.5906921E-03
   7101.67  6.7968579E-03
   7102.00  7.0162591E-03
   7102.33  7.2523033E-03
   7102.67  7.5049619E-03
   7103.00  7.7760479E-03
   7103.33  8.0706500E-03
   7103.67  8.3891059E-03
   7104.00  8.7344128E-03
   7104.33  9.1146339E-03
   7104.67  9.5310037E-03
   7105.00  9.9888502E-03
   7105.33  1.0501964E-02
   7105.67  1.1073870E-02
   7106.00  1.1714978E-02
   7106.33  1.2451404E-02
   7106.67  1.3293068E-02
   7107.00  1.4263103E-02
   7107.33  1.5418492E-02
   7107.67  1.6789907E-02
   7108.00  1.8439196E-02
   7108.33  2.0519726E-02
   7108.67  2.3147760E-02
   7109.00  2.6543625E-02
   7109.33  3.1285608E-02
   7109.67  3.8010482E-02
   7110.00  4.7961933E-02
   7110.33  6.4696390E-02
   7110.67  9.2012197E-02
   7111.00  1.3134735E-01
   7111.33  1.7504452E-01
   7111.67  2.1485506E-01
   7112.00  2.4674542E-01
   7112.33  2.5909080E-01
   7112.67  2.5123637E-01
   7113.00  2.3145095E-01
   7113.33  2.0932680E-01
   7113.67  1.8619784E-01
   7114.00  1.6349806E-01
   7114.33  1.5113786E-01
   7114.67  1.5385847E-01
   7115.00  1.6720046E-01
   7115.33  1.7495190E-01
   7115.67  1.6991026E-01
   7116.00  1.5609544E-01
   7116.33  1.4268317E-01
   7116.67  1.3630518E-01
   7117.00  1.3825849E-01
   7117.33  1.4836632E-01
   7117.67  1.6337406E-01
   7118.00  1.8063589E-01
   7118.33  1.9723987E-01
   7118.67  2.1173407E-01
   7119.00  2.2381784E-01
   7119.33  2.3325139E-01
   7119.67  2.4049824E-01
   7120.00  2.4605014E-01
   7120.33  2.5092997E-01
   7120.67  2.5639702E-01
   7121.00  2.6315618E-01
   7121.33  2.7154741E-01
   7121.67  2.8063444E-01
   7122.00  2.8919456E-01
   7122.33  2.9578394E-01
   7122.67  3.0054457E-01
   7123.00  3.0440581E-01
   7123.33  3.0876007E-01
   7123.67  3.1381652E-01
   7124.00  3.1906353E-01
   7124.33  3.2592278E-01
   7124.67  3.3704590E-01
   7125.00  3.5340080E-01
   7125.33  3.7475878E-01
   7125.67  3.9847960E-01
   7126.00  4.2176164E-01
   7126.33  4.4081350E-01
   7126.67  4.5480349E-01
   7127.00  4.6506581E-01
   7127.33  4.7458462E-01
   7127.67  4.8571644E-01
   7128.00  4.9888973E-01
   7128.33  5.1358693E-01
   7128.67  5.2853427E-01
   7129.00  5.4281993E-01
   7129.33  5.5556475E-01
   7129.67  5.6677893E-01
   7130.00  5.7668061E-01
   7130.33  5.8577336E-01
   7130.67  5.9516053E-01
   7131.00  6.0599502E-01
   7131.33  6.2006816E-01
   7131.67  6.3826279E-01
   7132.00  6.6128510E-01
   7132.33  6.8984152E-01
   7132.67  7.2216153E-01
   7133.00  7.5591248E-01
   7133.33  7.8667872E-01
   7133.67  8.1075653E-01
   7134.00  8.2643083E-01
   7134.33  8.3313022E-01
   7134.67  8.3260111E-01
   7135.00  8.2455892E-01
   7135.33  8.0852121E-01
   7135.67  7.8796896E-01
   7136.00  7.6573914E-01
   7136.33  7.4422761E-01
   7136.67  7.2432460E-01
   7137.00  7.0614724E-01
   7137.33  6.8965333E-01
   7137.67  6.7433662E-01
   7138.00  6.5997706E-01
   7138.33  6.4652990E-01
   7138.67  6.3385825E-01
   7139.00  6.2199200E-01
   7139.33  6.1109999E-01
   7139.67  6.0112062E-01
   7140.00  5.9205426E-01
   7140.33  5.8393752E-01
   7140.67  5.7652923E-01
   7141.00  5.6968302E-01
   7141.33  5.6329449E-01
   7141.67  5.5721696E-01
   7142.00  5.5142376E-01
   7142.33  5.4600686E-01
   7142.67  5.4104288E-01
   7143.00  5.3664918E-01
   7143.33  5.3302064E-01
   7143.67  5.3012979E-01
   7144.00  5.2798588E-01
   7144.33  5.2666416E-01
   7144.67  5.2605308E-01
   7145.00  5.2614501E-01
   7145.33  5.2702576E-01
   7145.67  5.2858611E-01
   7146.00  5.3076023E-01
   7146.33  5.3343837E-01
   7146.67  5.3629254E-01
   7147.00  5.3902570E-01
   7147.33  5.4123363E-01
   7147.67  5.4270882E-01
   7148.00  5.4330387E-01
   7148.33  5.4282500E-01
   7148.67  5.4141985E-01
   7149.00  5.3917801E-01
   7149.33  5.3616074E-01
   7149.67  5.3261135E-01
   7150.00  5.2864859E-01
   7150.33  5.2434076E-01
   7150.67  5.1979688E-01
   7151.00  5.1504936E-01
   7151.33  5.1008532E-01
   7151.67  5.0492511E-01
   7152.00  4.9956122E-01
   7152.33  4.9395782E-01
   7152.67  4.8813644E-01
   7153.00  4.8209867E-01
   7153.33  4.7582897E-01
   7153.67  4.6937564E-01
   7154.00  4.6276755E-01
   7154.33  4.5602389E-01
   7154.67  4.4919383E-01
   7155.00  4.4230993E-01
   7155.33  4.3540696E-01
   7155.67  4.2852094E-01
   7156.00  4.2168016E-01
   7156.33  4.1492608E-01
   7156.67  4.0828344E-01
   7157.00  4.0178651E-01
   7157.33  3.9550629E-01
   7157.67  3.8947381E-01
   7158.00  3.8374237E-01
   7158.33  3.7842420E-01
   7158.67  3.7354172E-01
   7159.00  3.6915320E-01
   7159.33  3.6539045E-01
   7159.67  3.6223647E-01
   7160.00  3.5972466E-01
   7160.33  3.5795942E-01
   7160.67  3.5686276E-01
   7161.00  3.5642647E-01
   7161.33  3.5670598E-01
   7161.67  3.5758345E-01
   7162.00  3.5901294E-01
   7162.33  3.6098335E-01
   7162.67  3.6335764E-01
   7163.00  3.6606939E-01
   7163.33  3.6907106E-01
   7163.67  3.7225176E-01
   7164.00  3.7554674E-01
   7164.33  3.7889171E-01
   7164.67  3.8222299E-01
   7165.00  3.8550259E-01
   7165.33  3.8869062E-01
   7165.67  3.9178140E-01
   7166.00  3.9477020E-01
   7166.33  3.9764687E-01
   7166.67  4.0043199E-01
   7167.00  4.0313592E-01
   7167.33  4.0576564E-01
   7167.67  4.0834685E-01
   7168.00  4.1089582E-01
   7168.33  4.1343057E-01
   7168.67  4.1597104E-01
   7169.00  4.1853097E-01
   7169.33  4.2112696E-01
   7169.67  4.2376215E-01
   7170.00  4.2643673E-01
   7170.33  4.2914582E-01
   7170.67  4.3186327E-01
   7171.00  4.3455377E-01
   7171.33  4.3713153E-01
   7171.67  4.3947490E-01
   7172.00  4.4140984E-01
