    FDMNES
    energy     <xanes>
   7097.00  5.0260375E-03
   7097.33  5.1446217E-03
   7097.67  5.2686087E-03
   7098.00  5.3983669E-03
   7098.33  5.5351517E-03
   7098.67  5.6787115E-03
   7099.00  5.8295493E-03
   7099.33  5.9893100E-03
   7099.67  6.1577376E-03
   7100.00  6.3355375E-03
   7100.33  6.5249220E-03
   7100.67  6.7256564E-03
   7101.00  6.9387613E-03
   7101.33  7.1673058E-03
   7101.67  7.4111342E-03
   7102.00  7.6717784E-03
   7102.33  7.9536573E-03
   7102.67  8.2568218E-03
   7103.00  8.5836753E-03
   7103.33  8.9408752E-03
   7103.67  9.3289685E-03
   7104.00  9.7519371E-03
   7104.33  1.0220393E-02
   7104.67  1.0736070E-02
   7105.00  1.1306033E-02
   7105.33  1.1948461E-02
   7105.67  1.2668062E-02
   7106.00  1.3478538E-02
   7106.33  1.4414146E-02
   7106.67  1.5487727E-02
   7107.00  1.6729276E-02
   7107.33  1.8212484E-02
   7107.67  1.9975908E-02
   7108.00  2.2097703E-02
   7108.33  2.4770853E-02
   7108.67  2.8136296E-02
   7109.00  3.2461418E-02
   7109.33  3.8441365E-02
   7109.67  4.6811612E-02
   7110.00  5.9002612E-02
   7110.33  7.9115735E-02
   7110.67  1.1200121E-01
   7111.00  1.6143415E-01
   7111.33  2.1801233E-01
   7111.67  2.6733258E-01
   7112.00  3.0689350E-01
   7112.33  3.5286766E-01
   7112.67  4.2154553E-01
   7113.00  4.6112688E-01
   7113.33  3.9918676E-01
   7113.67  3.0438339E-01
   7114.00  2.2999792E-01
   7114.33  1.9253680E-01
   7114.67  1.8371757E-01
   7115.00  1.9953269E-01
   7115.33  2.3382423E-01
   7115.67  2.6995713E-01
   7116.00  2.9158721E-01
   7116.33  2.7319766E-01
   7116.67  2.3181964E-01
   7117.00  1.9236763E-01
   7117.33  1.6654097E-01
   7117.67  1.5102730E-01
   7118.00  1.4263689E-01
   7118.33  1.3852856E-01
   7118.67  1.3592867E-01
   7119.00  1.3404972E-01
   7119.33  1.3326949E-01
   7119.67  1.3341533E-01
   7120.00  1.3368771E-01
   7120.33  1.3401302E-01
   7120.67  1.3498328E-01
   7121.00  1.3701055E-01
   7121.33  1.4058559E-01
   7121.67  1.4537921E-01
   7122.00  1.5174529E-01
   7122.33  1.6077410E-01
   7122.67  1.7238159E-01
   7123.00  1.8639008E-01
   7123.33  2.0268648E-01
   7123.67  2.2074718E-01
   7124.00  2.4042930E-01
   7124.33  2.6112913E-01
   7124.67  2.8087352E-01
   7125.00  2.9761800E-01
   7125.33  3.0933712E-01
   7125.67  3.1700308E-01
   7126.00  3.2229997E-01
   7126.33  3.2828751E-01
   7126.67  3.3803409E-01
   7127.00  3.5346138E-01
   7127.33  3.7648807E-01
   7127.67  4.0625784E-01
   7128.00  4.4165959E-01
   7128.33  4.7972241E-01
   7128.67  5.1508216E-01
   7129.00  5.4406608E-01
   7129.33  5.6579456E-01
   7129.67  5.8577300E-01
   7130.00  6.0906077E-01
   7130.33  6.4011255E-01
   7130.67  6.7817982E-01
   7131.00  7.2096229E-01
   7131.33  7.6431383E-01
   7131.67  8.0409303E-01
   7132.00  8.3808160E-01
   7132.33  8.6503680E-01
   7132.67  8.8724403E-01
   7133.00  9.0668603E-01
   7133.33  9.2521705E-01
   7133.67  9.4309900E-01
   7134.00  9.5782979E-01
   7134.33  9.6323749E-01
   7134.67  9.5645937E-01
   7135.00  9.3674699E-01
   7135.33  9.0395943E-01
   7135.67  8.6286207E-01
   7136.00  8.1761770E-01
   7136.33  7.7282816E-01
   7136.67  7.3102386E-01
   7137.00  6.9278559E-01
   7137.33  6.5823864E-01
   7137.67  6.2663335E-01
   7138.00  5.9804260E-01
   7138.33  5.7335399E-01
   7138.67  5.5264016E-01
   7139.00  5.3614266E-01
   7139.33  5.2436994E-01
   7139.67  5.1649359E-01
   7140.00  5.1206522E-01
   7140.33  5.1076167E-01
   7140.67  5.1150655E-01
   7141.00  5.1371075E-01
   7141.33  5.1691472E-01
   7141.67  5.2057885E-01
   7142.00  5.2441043E-01
   7142.33  5.2803929E-01
   7142.67  5.3105013E-01
   7143.00  5.3299235E-01
   7143.33  5.3316563E-01
   7143.67  5.3145480E-01
   7144.00  5.2783718E-01
   7144.33  5.2235402E-01
   7144.67  5.1566308E-01
   7145.00  5.0823624E-01
   7145.33  5.0063285E-01
   7145.67  4.9341735E-01
   7146.00  4.8700830E-01
   7146.33  4.8197345E-01
   7146.67  4.7846755E-01
   7147.00  4.7664050E-01
   7147.33  4.7671581E-01
   7147.67  4.7833321E-01
   7148.00  4.8128843E-01
   7148.33  4.8544815E-01
   7148.67  4.9041605E-01
   7149.00  4.9599008E-01
   7149.33  5.0202261E-01
   7149.67  5.0830118E-01
   7150.00  5.1471037E-01
   7150.33  5.2114554E-01
   7150.67  5.2752637E-01
   7151.00  5.3380252E-01
   7151.33  5.3991117E-01
   7151.67  5.4584172E-01
   7152.00  5.5158112E-01
   7152.33  5.5710398E-01
   7152.67  5.6244465E-01
   7153.00  5.6761572E-01
   7153.33  5.7261145E-01
   7153.67  5.7746083E-01
   7154.00  5.8216581E-01
   7154.33  5.8670142E-01
   7154.67  5.9107250E-01
   7155.00  5.9526355E-01
   7155.33  5.9923083E-01
   7155.67  6.0297924E-01
   7156.00  6.0648840E-01
   7156.33  6.0969135E-01
   7156.67  6.1257202E-01
   7157.00  6.1506893E-01
   7157.33  6.1702799E-01
   7157.67  6.1839595E-01
   7158.00  6.1906991E-01
   7158.33  6.1883654E-01
   7158.67  6.1770633E-01
   7159.00  6.1562813E-01
   7159.33  6.1245639E-01
   7159.67  6.0832638E-01
   7160.00  6.0327641E-01
   7160.33  5.9726819E-01
   7160.67  5.9049488E-01
   7161.00  5.8304259E-01
   7161.33  5.7495144E-01
   7161.67  5.6641066E-01
   7162.00  5.5752490E-01
   7162.33  5.4839213E-01
   7162.67  5.3916758E-01
   7163.00  5.2995569E-01
   7163.33  5.2088387E-01
   7163.67  5.1203866E-01
   7164.00  5.0349792E-01
   7164.33  4.9538465E-01
   7164.67  4.8771002E-01
   7165.00  4.8051218E-01
   7165.33  4.7388525E-01
   7165.67  4.6778360E-01
   7166.00  4.6221378E-01
   7166.33  4.5723850E-01
   7166.67  4.5277691E-01
   7167.00  4.4880783E-01
   7167.33  4.4535349E-01
   7167.67  4.4231130E-01
   7168.00  4.3963564E-01
   7168.33  4.3730594E-01
   7168.67  4.3522095E-01
   7169.00  4.3332565E-01
   7169.33  4.3157463E-01
   7169.67  4.2989984E-01
   7170.00  4.2826446E-01
   7170.33  4.2663701E-01
   7170.67  4.2500280E-01
   7171.00  4.2336959E-01
   7171.33  4.2178157E-01
   7171.67  4.2031710E-01
   7172.00  4.1908422E-01
