    FDMNES
    energy     <xanes>
   7097.00  4.9185707E-03
   7097.33  5.0358456E-03
   7097.67  5.1585660E-03
   7098.00  5.2871142E-03
   7098.33  5.4227744E-03
   7098.67  5.5653091E-03
   7099.00  5.7152456E-03
   7099.33  5.8742831E-03
   7099.67  6.0421874E-03
   7100.00  6.2197076E-03
   7100.33  6.4091556E-03
   7100.67  6.6103343E-03
   7101.00  6.8243431E-03
   7101.33  7.0544354E-03
   7101.67  7.3005241E-03
   7102.00  7.5642885E-03
   7102.33  7.8504951E-03
   7102.67  8.1593292E-03
   7103.00  8.4934816E-03
   7103.33  8.8602873E-03
   7103.67  9.2605786E-03
   7104.00  9.6989271E-03
   7104.33  1.0187336E-02
   7104.67  1.0728198E-02
   7105.00  1.1329877E-02
   7105.33  1.2013627E-02
   7105.67  1.2785824E-02
   7106.00  1.3663337E-02
   7106.33  1.4687943E-02
   7106.67  1.5877316E-02
   7107.00  1.7270281E-02
   7107.33  1.8961887E-02
   7107.67  2.1007422E-02
   7108.00  2.3515187E-02
   7108.33  2.6754206E-02
   7108.67  3.0941380E-02
   7109.00  3.6484834E-02
   7109.33  4.4468469E-02
   7109.67  5.6151568E-02
   7110.00  7.4010319E-02
   7110.33  1.0516645E-01
   7110.67  1.5665970E-01
   7111.00  2.2709848E-01
   7111.33  2.8772905E-01
   7111.67  3.2351073E-01
   7112.00  3.4316698E-01
   7112.33  3.5319669E-01
   7112.67  3.4879761E-01
   7113.00  3.4289723E-01
   7113.33  3.4309684E-01
   7113.67  3.2974306E-01
   7114.00  2.9334836E-01
   7114.33  2.4223320E-01
   7114.67  1.9483640E-01
   7115.00  1.5749944E-01
   7115.33  1.3132184E-01
   7115.67  1.1280270E-01
   7116.00  1.0005161E-01
   7116.33  9.1898824E-02
   7116.67  8.6745590E-02
   7117.00  8.3997921E-02
   7117.33  8.3442952E-02
   7117.67  8.4495946E-02
   7118.00  8.6863200E-02
   7118.33  9.0256011E-02
   7118.67  9.4081815E-02
   7119.00  9.7935111E-02
   7119.33  1.0139515E-01
   7119.67  1.0425736E-01
   7120.00  1.0663389E-01
   7120.33  1.0907113E-01
   7120.67  1.1229539E-01
   7121.00  1.1698963E-01
   7121.33  1.2410068E-01
   7121.67  1.3393152E-01
   7122.00  1.4705882E-01
   7122.33  1.6472473E-01
   7122.67  1.8673314E-01
   7123.00  2.1237302E-01
   7123.33  2.3967802E-01
   7123.67  2.6592519E-01
   7124.00  2.8944655E-01
   7124.33  3.0908893E-01
   7124.67  3.2628589E-01
   7125.00  3.4278475E-01
   7125.33  3.6042508E-01
   7125.67  3.7964878E-01
   7126.00  4.0033931E-01
   7126.33  4.2269344E-01
   7126.67  4.4678604E-01
   7127.00  4.7256040E-01
   7127.33  4.9923271E-01
   7127.67  5.2518342E-01
   7128.00  5.4929454E-01
   7128.33  5.7089679E-01
   7128.67  5.9091093E-01
   7129.00  6.1063247E-01
   7129.33  6.3240516E-01
   7129.67  6.5747587E-01
   7130.00  6.8539424E-01
   7130.33  7.1340174E-01
   7130.67  7.3755844E-01
   7131.00  7.5494912E-01
   7131.33  7.6283453E-01
   7131.67  7.6297526E-01
   7132.00  7.5801995E-01
   7132.33  7.5273624E-01
   7132.67  7.5180139E-01
   7133.00  7.5728976E-01
   7133.33  7.6919473E-01
   7133.67  7.8357039E-01
   7134.00  7.9739735E-01
   7134.33  8.0859694E-01
   7134.67  8.1745832E-01
   7135.00  8.2417898E-01
   7135.33  8.2813011E-01
   7135.67  8.2906474E-01
   7136.00  8.2670073E-01
   7136.33  8.2062805E-01
   7136.67  8.1156932E-01
   7137.00  8.0004527E-01
   7137.33  7.8678405E-01
   7137.67  7.7312861E-01
   7138.00  7.6005809E-01
   7138.33  7.4861631E-01
   7138.67  7.3897351E-01
   7139.00  7.3094180E-01
   7139.33  7.2386973E-01
   7139.67  7.1647549E-01
   7140.00  7.0764133E-01
   7140.33  6.9600333E-01
   7140.67  6.8145449E-01
   7141.00  6.6429525E-01
   7141.33  6.4536590E-01
   7141.67  6.2630599E-01
   7142.00  6.0834207E-01
   7142.33  5.9283594E-01
   7142.67  5.8006999E-01
   7143.00  5.7007724E-01
   7143.33  5.6275463E-01
   7143.67  5.5709288E-01
   7144.00  5.5240169E-01
   7144.33  5.4803616E-01
   7144.67  5.4355996E-01
   7145.00  5.3887420E-01
   7145.33  5.3404832E-01
   7145.67  5.2927490E-01
   7146.00  5.2469956E-01
   7146.33  5.2047512E-01
   7146.67  5.1660810E-01
   7147.00  5.1308086E-01
   7147.33  5.0985488E-01
   7147.67  5.0680054E-01
   7148.00  5.0383773E-01
   7148.33  5.0090016E-01
   7148.67  4.9795062E-01
   7149.00  4.9499183E-01
   7149.33  4.9206423E-01
   7149.67  4.8922161E-01
   7150.00  4.8651406E-01
   7150.33  4.8400890E-01
   7150.67  4.8170615E-01
   7151.00  4.7960707E-01
   7151.33  4.7772098E-01
   7151.67  4.7600333E-01
   7152.00  4.7444139E-01
   7152.33  4.7305919E-01
   7152.67  4.7187296E-01
   7153.00  4.7094423E-01
   7153.33  4.7042033E-01
   7153.67  4.7037524E-01
   7154.00  4.7090576E-01
   7154.33  4.7217542E-01
   7154.67  4.7412356E-01
   7155.00  4.7670355E-01
   7155.33  4.7984112E-01
   7155.67  4.8325712E-01
   7156.00  4.8671360E-01
   7156.33  4.8986450E-01
   7156.67  4.9242747E-01
   7157.00  4.9415497E-01
   7157.33  4.9468129E-01
   7157.67  4.9398812E-01
   7158.00  4.9201669E-01
   7158.33  4.8862170E-01
   7158.67  4.8405158E-01
   7159.00  4.7843388E-01
   7159.33  4.7185178E-01
   7159.67  4.6462966E-01
   7160.00  4.5696179E-01
   7160.33  4.4904293E-01
   7160.67  4.4110825E-01
   7161.00  4.3331541E-01
   7161.33  4.2585668E-01
   7161.67  4.1881738E-01
   7162.00  4.1227520E-01
   7162.33  4.0635534E-01
   7162.67  4.0101024E-01
   7163.00  3.9624107E-01
   7163.33  3.9211264E-01
   7163.67  3.8853572E-01
   7164.00  3.8548448E-01
   7164.33  3.8298078E-01
   7164.67  3.8092052E-01
   7165.00  3.7926588E-01
   7165.33  3.7801884E-01
   7165.67  3.7709413E-01
   7166.00  3.7646166E-01
   7166.33  3.7612357E-01
   7166.67  3.7602059E-01
   7167.00  3.7613335E-01
   7167.33  3.7646921E-01
   7167.67  3.7698973E-01
   7168.00  3.7768420E-01
   7168.33  3.7856161E-01
   7168.67  3.7959229E-01
   7169.00  3.8076901E-01
   7169.33  3.8209997E-01
   7169.67  3.8355702E-01
   7170.00  3.8512818E-01
   7170.33  3.8680722E-01
   7170.67  3.8855628E-01
   7171.00  3.9034240E-01
   7171.33  3.9209969E-01
   7171.67  3.9371992E-01
   7172.00  3.9505871E-01
