    FDMNES
    energy     <xanes>
   7097.00  5.3132850E-03
   7097.33  5.4501221E-03
   7097.67  5.5936250E-03
   7098.00  5.7442705E-03
   7098.33  5.9036447E-03
   7098.67  6.0714678E-03
   7099.00  6.2483982E-03
   7099.33  6.4365401E-03
   7099.67  6.6356181E-03
   7100.00  6.8465671E-03
   7100.33  7.0722566E-03
   7100.67  7.3124563E-03
   7101.00  7.5685380E-03
   7101.33  7.8445436E-03
   7101.67  8.1403779E-03
   7102.00  8.4581325E-03
   7102.33  8.8037293E-03
   7102.67  9.1774057E-03
   7103.00  9.5825040E-03
   7103.33  1.0028126E-02
   7103.67  1.0515296E-02
   7104.00  1.1049669E-02
   7104.33  1.1646098E-02
   7104.67  1.2307492E-02
   7105.00  1.3044145E-02
   7105.33  1.3882220E-02
   7105.67  1.4829420E-02
   7106.00  1.5906335E-02
   7106.33  1.7163997E-02
   7106.67  1.8623551E-02
   7107.00  2.0331865E-02
   7107.33  2.2403642E-02
   7107.67  2.4904152E-02
   7108.00  2.7961922E-02
   7108.33  3.1895404E-02
   7108.67  3.6955114E-02
   7109.00  4.3612333E-02
   7109.33  5.3109420E-02
   7109.67  6.6850510E-02
   7110.00  8.7584601E-02
   7110.33  1.2325060E-01
   7110.67  1.8269305E-01
   7111.00  2.6959424E-01
   7111.33  3.5799447E-01
   7111.67  4.1169453E-01
   7112.00  4.2944325E-01
   7112.33  4.3671200E-01
   7112.67  4.5029334E-01
   7113.00  4.6391723E-01
   7113.33  4.6201732E-01
   7113.67  4.3352441E-01
   7114.00  3.7587029E-01
   7114.33  3.0726113E-01
   7114.67  2.4854832E-01
   7115.00  2.0394238E-01
   7115.33  1.7281531E-01
   7115.67  1.5042518E-01
   7116.00  1.3437688E-01
   7116.33  1.2318142E-01
   7116.67  1.1530423E-01
   7117.00  1.1058361E-01
   7117.33  1.0930580E-01
   7117.67  1.1066549E-01
   7118.00  1.1408385E-01
   7118.33  1.1890986E-01
   7118.67  1.2407428E-01
   7119.00  1.2872304E-01
   7119.33  1.3198137E-01
   7119.67  1.3484670E-01
   7120.00  1.3919707E-01
   7120.33  1.4681633E-01
   7120.67  1.5764217E-01
   7121.00  1.7115618E-01
   7121.33  1.8582320E-01
   7121.67  2.0109381E-01
   7122.00  2.1907682E-01
   7122.33  2.4269483E-01
   7122.67  2.7269258E-01
   7123.00  3.1071647E-01
   7123.33  3.5892971E-01
   7123.67  4.1313287E-01
   7124.00  4.6620438E-01
   7124.33  5.0844508E-01
   7124.67  5.3929116E-01
   7125.00  5.6122943E-01
   7125.33  5.7557539E-01
   7125.67  5.8533522E-01
   7126.00  5.9403552E-01
   7126.33  6.0584237E-01
   7126.67  6.1984324E-01
   7127.00  6.3171089E-01
   7127.33  6.3608509E-01
   7127.67  6.3432472E-01
   7128.00  6.3053888E-01
   7128.33  6.2970304E-01
   7128.67  6.3257151E-01
   7129.00  6.3769930E-01
   7129.33  6.4341392E-01
   7129.67  6.4978007E-01
   7130.00  6.5774815E-01
   7130.33  6.6670465E-01
   7130.67  6.7349244E-01
   7131.00  6.7605271E-01
   7131.33  6.7473567E-01
   7131.67  6.7352239E-01
   7132.00  6.7545163E-01
   7132.33  6.8219936E-01
   7132.67  6.9100348E-01
   7133.00  6.9782033E-01
   7133.33  6.9736432E-01
   7133.67  6.8988672E-01
   7134.00  6.7858759E-01
   7134.33  6.6778328E-01
   7134.67  6.5866708E-01
   7135.00  6.5022220E-01
   7135.33  6.4160373E-01
   7135.67  6.3344187E-01
   7136.00  6.2653829E-01
   7136.33  6.2152924E-01
   7136.67  6.1803300E-01
   7137.00  6.1545448E-01
   7137.33  6.1272791E-01
   7137.67  6.0886729E-01
   7138.00  6.0338821E-01
   7138.33  5.9606452E-01
   7138.67  5.8748402E-01
   7139.00  5.7811272E-01
   7139.33  5.6849513E-01
   7139.67  5.5921061E-01
   7140.00  5.5067576E-01
   7140.33  5.4334406E-01
   7140.67  5.3710249E-01
   7141.00  5.3168634E-01
   7141.33  5.2658856E-01
   7141.67  5.2119112E-01
   7142.00  5.1512407E-01
   7142.33  5.0811622E-01
   7142.67  5.0039627E-01
   7143.00  4.9224128E-01
   7143.33  4.8405592E-01
   7143.67  4.7623923E-01
   7144.00  4.6906612E-01
   7144.33  4.6285780E-01
   7144.67  4.5759807E-01
   7145.00  4.5327101E-01
   7145.33  4.4987145E-01
   7145.67  4.4712986E-01
   7146.00  4.4489435E-01
   7146.33  4.4306571E-01
   7146.67  4.4152074E-01
   7147.00  4.4024296E-01
   7147.33  4.3927450E-01
   7147.67  4.3858244E-01
   7148.00  4.3814820E-01
   7148.33  4.3796330E-01
   7148.67  4.3794413E-01
   7149.00  4.3801495E-01
   7149.33  4.3806116E-01
   7149.67  4.3797057E-01
   7150.00  4.3766064E-01
   7150.33  4.3703620E-01
   7150.67  4.3611905E-01
   7151.00  4.3493521E-01
   7151.33  4.3352707E-01
   7151.67  4.3201731E-01
   7152.00  4.3050670E-01
   7152.33  4.2913980E-01
   7152.67  4.2803029E-01
   7153.00  4.2727835E-01
   7153.33  4.2702496E-01
   7153.67  4.2724739E-01
   7154.00  4.2791976E-01
   7154.33  4.2898967E-01
   7154.67  4.3025495E-01
   7155.00  4.3154710E-01
   7155.33  4.3263266E-01
   7155.67  4.3333358E-01
   7156.00  4.3350107E-01
   7156.33  4.3291865E-01
   7156.67  4.3158712E-01
   7157.00  4.2947988E-01
   7157.33  4.2652175E-01
   7157.67  4.2287392E-01
   7158.00  4.1862284E-01
   7158.33  4.1382905E-01
   7158.67  4.0868139E-01
   7159.00  4.0328793E-01
   7159.33  3.9774971E-01
   7159.67  3.9218845E-01
   7160.00  3.8668613E-01
   7160.33  3.8134689E-01
   7160.67  3.7622919E-01
   7161.00  3.7139088E-01
   7161.33  3.6692777E-01
   7161.67  3.6283531E-01
   7162.00  3.5913351E-01
   7162.33  3.5588517E-01
   7162.67  3.5304155E-01
   7163.00  3.5060113E-01
   7163.33  3.4861917E-01
   7163.67  3.4705215E-01
   7164.00  3.4590444E-01
   7164.33  3.4522735E-01
   7164.67  3.4495931E-01
   7165.00  3.4508555E-01
   7165.33  3.4562653E-01
   7165.67  3.4650201E-01
   7166.00  3.4767894E-01
   7166.33  3.4915135E-01
   7166.67  3.5084976E-01
   7167.00  3.5274562E-01
   7167.33  3.5483105E-01
   7167.67  3.5706137E-01
   7168.00  3.5942045E-01
   7168.33  3.6190791E-01
   7168.67  3.6449816E-01
   7169.00  3.6718276E-01
   7169.33  3.6996311E-01
   7169.67  3.7281802E-01
   7170.00  3.7573566E-01
   7170.33  3.7870217E-01
   7170.67  3.8168234E-01
   7171.00  3.8463556E-01
   7171.33  3.8746703E-01
   7171.67  3.9004080E-01
   7172.00  3.9216074E-01
