    FDMNES
    energy     <xanes>
   7097.00  5.3348543E-03
   7097.33  5.4723185E-03
   7097.67  5.6165036E-03
   7098.00  5.7678929E-03
   7098.33  5.9280897E-03
   7098.67  6.0968153E-03
   7099.00  6.2747380E-03
   7099.33  6.4639883E-03
   7099.67  6.6642939E-03
   7100.00  6.8766056E-03
   7100.33  7.1038343E-03
   7100.67  7.3457566E-03
   7101.00  7.6037707E-03
   7101.33  7.8819870E-03
   7101.67  8.1803246E-03
   7102.00  8.5009220E-03
   7102.33  8.8498186E-03
   7102.67  9.2272836E-03
   7103.00  9.6367463E-03
   7103.33  1.0087522E-02
   7103.67  1.0580708E-02
   7104.00  1.1122132E-02
   7104.33  1.1727066E-02
   7104.67  1.2398592E-02
   7105.00  1.3147381E-02
   7105.33  1.4000491E-02
   7105.67  1.4966085E-02
   7106.00  1.6065662E-02
   7106.33  1.7352423E-02
   7106.67  1.8848893E-02
   7107.00  2.0604494E-02
   7107.33  2.2740161E-02
   7107.67  2.5326115E-02
   7108.00  2.8499876E-02
   7108.33  3.2602798E-02
   7108.67  3.7909009E-02
   7109.00  4.4933921E-02
   7109.33  5.5043604E-02
   7109.67  6.9815103E-02
   7110.00  9.2347392E-02
   7110.33  1.3161789E-01
   7110.67  1.9733134E-01
   7111.00  2.9101666E-01
   7111.33  3.7309431E-01
   7111.67  4.1006283E-01
   7112.00  4.1997030E-01
   7112.33  4.3395072E-01
   7112.67  4.5357956E-01
   7113.00  4.6516501E-01
   7113.33  4.5577597E-01
   7113.67  4.2121131E-01
   7114.00  3.6192480E-01
   7114.33  2.9460343E-01
   7114.67  2.3695032E-01
   7115.00  1.9293540E-01
   7115.33  1.6230326E-01
   7115.67  1.4031961E-01
   7116.00  1.2456043E-01
   7116.33  1.1373928E-01
   7116.67  1.0658660E-01
   7117.00  1.0293633E-01
   7117.33  1.0292614E-01
   7117.67  1.0576681E-01
   7118.00  1.1108098E-01
   7118.33  1.1829655E-01
   7118.67  1.2568057E-01
   7119.00  1.3159091E-01
   7119.33  1.3488260E-01
   7119.67  1.3774805E-01
   7120.00  1.4280868E-01
   7120.33  1.5196612E-01
   7120.67  1.6441695E-01
   7121.00  1.7950046E-01
   7121.33  1.9785865E-01
   7121.67  2.2057298E-01
   7122.00  2.4830644E-01
   7122.33  2.8002377E-01
   7122.67  3.1268282E-01
   7123.00  3.4558628E-01
   7123.33  3.7915633E-01
   7123.67  4.1174681E-01
   7124.00  4.4035917E-01
   7124.33  4.6182579E-01
   7124.67  4.7818044E-01
   7125.00  4.9256738E-01
   7125.33  5.0858527E-01
   7125.67  5.2814792E-01
   7126.00  5.5235287E-01
   7126.33  5.8275664E-01
   7126.67  6.1772156E-01
   7127.00  6.5258746E-01
   7127.33  6.7582687E-01
   7127.67  6.8120683E-01
   7128.00  6.7158588E-01
   7128.33  6.5737127E-01
   7128.67  6.4864651E-01
   7129.00  6.4950227E-01
   7129.33  6.6206825E-01
   7129.67  6.8289472E-01
   7130.00  7.0817316E-01
   7130.33  7.3183734E-01
   7130.67  7.4880583E-01
   7131.00  7.5619296E-01
   7131.33  7.5173391E-01
   7131.67  7.3942056E-01
   7132.00  7.2372785E-01
   7132.33  7.0924985E-01
   7132.67  6.9728378E-01
   7133.00  6.8676355E-01
   7133.33  6.7511988E-01
   7133.67  6.6052665E-01
   7134.00  6.4265949E-01
   7134.33  6.2260619E-01
   7134.67  6.0305178E-01
   7135.00  5.8597535E-01
   7135.33  5.7306399E-01
   7135.67  5.6392639E-01
   7136.00  5.5818016E-01
   7136.33  5.5564845E-01
   7136.67  5.5532196E-01
   7137.00  5.5637724E-01
   7137.33  5.5756029E-01
   7137.67  5.5770739E-01
   7138.00  5.5639081E-01
   7138.33  5.5373661E-01
   7138.67  5.5057390E-01
   7139.00  5.4743247E-01
   7139.33  5.4473891E-01
   7139.67  5.4257465E-01
   7140.00  5.4088785E-01
   7140.33  5.3948607E-01
   7140.67  5.3797766E-01
   7141.00  5.3599306E-01
   7141.33  5.3299004E-01
   7141.67  5.2874778E-01
   7142.00  5.2314082E-01
   7142.33  5.1613309E-01
   7142.67  5.0829072E-01
   7143.00  5.0012741E-01
   7143.33  4.9230964E-01
   7143.67  4.8529319E-01
   7144.00  4.7931393E-01
   7144.33  4.7455076E-01
   7144.67  4.7071793E-01
   7145.00  4.6760356E-01
   7145.33  4.6501205E-01
   7145.67  4.6269539E-01
   7146.00  4.6057558E-01
   7146.33  4.5868850E-01
   7146.67  4.5709261E-01
   7147.00  4.5587713E-01
   7147.33  4.5517437E-01
   7147.67  4.5494249E-01
   7148.00  4.5514041E-01
   7148.33  4.5569581E-01
   7148.67  4.5639733E-01
   7149.00  4.5708176E-01
   7149.33  4.5753479E-01
   7149.67  4.5760188E-01
   7150.00  4.5715890E-01
   7150.33  4.5606276E-01
   7150.67  4.5442046E-01
   7151.00  4.5234559E-01
   7151.33  4.5001478E-01
   7151.67  4.4769811E-01
   7152.00  4.4559836E-01
   7152.33  4.4396641E-01
   7152.67  4.4288683E-01
   7153.00  4.4241598E-01
   7153.33  4.4261637E-01
   7153.67  4.4331591E-01
   7154.00  4.4436510E-01
   7154.33  4.4553624E-01
   7154.67  4.4652249E-01
   7155.00  4.4705399E-01
   7155.33  4.4673591E-01
   7155.67  4.4541891E-01
   7156.00  4.4297021E-01
   7156.33  4.3920412E-01
   7156.67  4.3435883E-01
   7157.00  4.2860560E-01
   7157.33  4.2213953E-01
   7157.67  4.1534847E-01
   7158.00  4.0848800E-01
   7158.33  4.0183510E-01
   7158.67  3.9555666E-01
   7159.00  3.8976270E-01
   7159.33  3.8459481E-01
   7159.67  3.8000376E-01
   7160.00  3.7597403E-01
   7160.33  3.7252459E-01
   7160.67  3.6952680E-01
   7161.00  3.6691856E-01
   7161.33  3.6466354E-01
   7161.67  3.6264807E-01
   7162.00  3.6081479E-01
   7162.33  3.5911897E-01
   7162.67  3.5749308E-01
   7163.00  3.5590987E-01
   7163.33  3.5436550E-01
   7163.67  3.5286952E-01
   7164.00  3.5145045E-01
   7164.33  3.5017282E-01
   7164.67  3.4908012E-01
   7165.00  3.4822561E-01
   7165.33  3.4770372E-01
   7165.67  3.4752359E-01
   7166.00  3.4771293E-01
   7166.33  3.4833735E-01
   7166.67  3.4935040E-01
   7167.00  3.5074388E-01
   7167.33  3.5254550E-01
   7167.67  3.5468693E-01
   7168.00  3.5714629E-01
   7168.33  3.5993406E-01
   7168.67  3.6298788E-01
   7169.00  3.6628549E-01
   7169.33  3.6982777E-01
   7169.67  3.7355904E-01
   7170.00  3.7745097E-01
   7170.33  3.8147790E-01
   7170.67  3.8556933E-01
   7171.00  3.8965651E-01
   7171.33  3.9359575E-01
   7171.67  3.9718259E-01
   7172.00  4.0013600E-01
