    FDMNES
    energy     <xanes>
   7097.00  5.4248786E-03
   7097.33  5.5634531E-03
   7097.67  5.7087234E-03
   7098.00  5.8611662E-03
   7098.33  6.0223717E-03
   7098.67  6.1920563E-03
   7099.00  6.3708787E-03
   7099.33  6.5609478E-03
   7099.67  6.7619857E-03
   7100.00  6.9749288E-03
   7100.33  7.2026542E-03
   7100.67  7.4449315E-03
   7101.00  7.7031381E-03
   7101.33  7.9813323E-03
   7101.67  8.2794254E-03
   7102.00  8.5995253E-03
   7102.33  8.9475946E-03
   7102.67  9.3238943E-03
   7103.00  9.7318115E-03
   7103.33  1.0180554E-02
   7103.67  1.0671216E-02
   7104.00  1.1209576E-02
   7104.33  1.1810772E-02
   7104.67  1.2477918E-02
   7105.00  1.3221654E-02
   7105.33  1.4068962E-02
   7105.67  1.5028159E-02
   7106.00  1.6120899E-02
   7106.33  1.7400745E-02
   7106.67  1.8890951E-02
   7107.00  2.0642029E-02
   7107.33  2.2777670E-02
   7107.67  2.5371729E-02
   7108.00  2.8567962E-02
   7108.33  3.2724476E-02
   7108.67  3.8137946E-02
   7109.00  4.5366427E-02
   7109.33  5.5902753E-02
   7109.67  7.1527900E-02
   7110.00  9.5757912E-02
   7110.33  1.3870779E-01
   7110.67  2.0969514E-01
   7111.00  3.0290572E-01
   7111.33  3.7036002E-01
   7111.67  3.9410173E-01
   7112.00  3.9730697E-01
   7112.33  4.0854971E-01
   7112.67  4.2020026E-01
   7113.00  4.1571795E-01
   7113.33  3.8181769E-01
   7113.67  3.3379309E-01
   7114.00  2.8315981E-01
   7114.33  2.3940602E-01
   7114.67  2.0634889E-01
   7115.00  1.8363797E-01
   7115.33  1.6916948E-01
   7115.67  1.5859031E-01
   7116.00  1.4961126E-01
   7116.33  1.4160756E-01
   7116.67  1.3561450E-01
   7117.00  1.3278094E-01
   7117.33  1.3418491E-01
   7117.67  1.3932186E-01
   7118.00  1.4772158E-01
   7118.33  1.5826850E-01
   7118.67  1.6861284E-01
   7119.00  1.7774806E-01
   7119.33  1.8589615E-01
   7119.67  1.9260379E-01
   7120.00  1.9756331E-01
   7120.33  2.0264575E-01
   7120.67  2.1074965E-01
   7121.00  2.2308316E-01
   7121.33  2.4052739E-01
   7121.67  2.6302117E-01
   7122.00  2.9132500E-01
   7122.33  3.2690020E-01
   7122.67  3.6876702E-01
   7123.00  4.1614556E-01
   7123.33  4.6743161E-01
   7123.67  5.1740319E-01
   7124.00  5.5974256E-01
   7124.33  5.8727522E-01
   7124.67  6.0331219E-01
   7125.00  6.1388327E-01
   7125.33  6.2487727E-01
   7125.67  6.3698417E-01
   7126.00  6.4759228E-01
   7126.33  6.5289199E-01
   7126.67  6.5320242E-01
   7127.00  6.5103573E-01
   7127.33  6.5071745E-01
   7127.67  6.5496109E-01
   7128.00  6.6441297E-01
   7128.33  6.7849269E-01
   7128.67  6.9465365E-01
   7129.00  7.1108685E-01
   7129.33  7.2569050E-01
   7129.67  7.3696913E-01
   7130.00  7.4335819E-01
   7130.33  7.4201546E-01
   7130.67  7.3285354E-01
   7131.00  7.1693639E-01
   7131.33  6.9653154E-01
   7131.67  6.7462660E-01
   7132.00  6.5241380E-01
   7132.33  6.3092172E-01
   7132.67  6.1158964E-01
   7133.00  5.9639291E-01
   7133.33  5.8829727E-01
   7133.67  5.8698878E-01
   7134.00  5.9077679E-01
   7134.33  5.9654914E-01
   7134.67  6.0157969E-01
   7135.00  6.0518185E-01
   7135.33  6.0739429E-01
   7135.67  6.0857500E-01
   7136.00  6.0851143E-01
   7136.33  6.0659860E-01
   7136.67  6.0308465E-01
   7137.00  5.9834585E-01
   7137.33  5.9258783E-01
   7137.67  5.8588964E-01
   7138.00  5.7813182E-01
   7138.33  5.6927462E-01
   7138.67  5.5984281E-01
   7139.00  5.5034966E-01
   7139.33  5.4150368E-01
   7139.67  5.3374659E-01
   7140.00  5.2729067E-01
   7140.33  5.2214075E-01
   7140.67  5.1757128E-01
   7141.00  5.1282184E-01
   7141.33  5.0680685E-01
   7141.67  4.9899368E-01
   7142.00  4.8923671E-01
   7142.33  4.7772851E-01
   7142.67  4.6549234E-01
   7143.00  4.5336943E-01
   7143.33  4.4235260E-01
   7143.67  4.3292312E-01
   7144.00  4.2536067E-01
   7144.33  4.1998953E-01
   7144.67  4.1644265E-01
   7145.00  4.1449908E-01
   7145.33  4.1397837E-01
   7145.67  4.1435137E-01
   7146.00  4.1531645E-01
   7146.33  4.1662216E-01
   7146.67  4.1803655E-01
   7147.00  4.1947505E-01
   7147.33  4.2091912E-01
   7147.67  4.2239915E-01
   7148.00  4.2394865E-01
   7148.33  4.2559014E-01
   7148.67  4.2727581E-01
   7149.00  4.2893225E-01
   7149.33  4.3043207E-01
   7149.67  4.3169438E-01
   7150.00  4.3266459E-01
   7150.33  4.3327753E-01
   7150.67  4.3358880E-01
   7151.00  4.3363893E-01
   7151.33  4.3346769E-01
   7151.67  4.3316873E-01
   7152.00  4.3279780E-01
   7152.33  4.3240793E-01
   7152.67  4.3203865E-01
   7153.00  4.3170063E-01
   7153.33  4.3137342E-01
   7153.67  4.3099205E-01
   7154.00  4.3046884E-01
   7154.33  4.2963662E-01
   7154.67  4.2837884E-01
   7155.00  4.2656673E-01
   7155.33  4.2398518E-01
   7155.67  4.2063108E-01
   7156.00  4.1647065E-01
   7156.33  4.1141839E-01
   7156.67  4.0564366E-01
   7157.00  3.9924736E-01
   7157.33  3.9232492E-01
   7157.67  3.8511421E-01
   7158.00  3.7777814E-01
   7158.33  3.7051099E-01
   7158.67  3.6347718E-01
   7159.00  3.5680625E-01
   7159.33  3.5068310E-01
   7159.67  3.4514068E-01
   7160.00  3.4023587E-01
   7160.33  3.3609347E-01
   7160.67  3.3264442E-01
   7161.00  3.2988552E-01
   7161.33  3.2788086E-01
   7161.67  3.2651429E-01
   7162.00  3.2575145E-01
   7162.33  3.2561740E-01
   7162.67  3.2599536E-01
   7163.00  3.2684501E-01
   7163.33  3.2817412E-01
   7163.67  3.2988471E-01
   7164.00  3.3193740E-01
   7164.33  3.3433072E-01
   7164.67  3.3699411E-01
   7165.00  3.3990136E-01
   7165.33  3.4305025E-01
   7165.67  3.4638624E-01
   7166.00  3.4988679E-01
   7166.33  3.5354523E-01
   7166.67  3.5732224E-01
   7167.00  3.6120096E-01
   7167.33  3.6517479E-01
   7167.67  3.6921879E-01
   7168.00  3.7332289E-01
   7168.33  3.7748424E-01
   7168.67  3.8168869E-01
   7169.00  3.8593028E-01
   7169.33  3.9020666E-01
   7169.67  3.9450652E-01
   7170.00  3.9882035E-01
   7170.33  4.0313014E-01
   7170.67  4.0740538E-01
   7171.00  4.1159973E-01
   7171.33  4.1559140E-01
   7171.67  4.1921006E-01
   7172.00  4.2219542E-01
