    FDMNES
    energy     <xanes>
   7097.00  5.3079132E-03
   7097.33  5.4446213E-03
   7097.67  5.5879202E-03
   7098.00  5.7382733E-03
   7098.33  5.8972342E-03
   7098.67  6.0645136E-03
   7099.00  6.2407466E-03
   7099.33  6.4279814E-03
   7099.67  6.6259262E-03
   7100.00  6.8354749E-03
   7100.33  7.0593983E-03
   7100.67  7.2974358E-03
   7101.00  7.5508849E-03
   7101.33  7.8236100E-03
   7101.67  8.1154560E-03
   7102.00  8.4283755E-03
   7102.33  8.7679582E-03
   7102.67  9.1343178E-03
   7103.00  9.5305230E-03
   7103.33  9.9650255E-03
   7103.67  1.0438575E-02
   7104.00  1.0956258E-02
   7104.33  1.1531574E-02
   7104.67  1.2166780E-02
   7105.00  1.2870884E-02
   7105.33  1.3667006E-02
   7105.67  1.4561140E-02
   7106.00  1.5570670E-02
   7106.33  1.6738995E-02
   7106.67  1.8082202E-02
   7107.00  1.9637974E-02
   7107.33  2.1498776E-02
   7107.67  2.3712015E-02
   7108.00  2.6374193E-02
   7108.33  2.9722914E-02
   7108.67  3.3926991E-02
   7109.00  3.9307016E-02
   7109.33  4.6690517E-02
   7109.67  5.6925342E-02
   7110.00  7.1649628E-02
   7110.33  9.5468081E-02
   7110.67  1.3337499E-01
   7111.00  1.8922884E-01
   7111.33  2.6385167E-01
   7111.67  3.5447250E-01
   7112.00  4.4630321E-01
   7112.33  4.9024729E-01
   7112.67  4.9865079E-01
   7113.00  5.0531735E-01
   7113.33  5.3046468E-01
   7113.67  5.4432501E-01
   7114.00  5.1448993E-01
   7114.33  4.4094952E-01
   7114.67  3.5264034E-01
   7115.00  2.7159441E-01
   7115.33  2.1308221E-01
   7115.67  1.7279655E-01
   7116.00  1.4583373E-01
   7116.33  1.2870938E-01
   7116.67  1.1733444E-01
   7117.00  1.0992274E-01
   7117.33  1.0547856E-01
   7117.67  1.0321347E-01
   7118.00  1.0318936E-01
   7118.33  1.0594493E-01
   7118.67  1.1129588E-01
   7119.00  1.1893612E-01
   7119.33  1.2725765E-01
   7119.67  1.3346069E-01
   7120.00  1.3663813E-01
   7120.33  1.3858426E-01
   7120.67  1.4244009E-01
   7121.00  1.4924756E-01
   7121.33  1.5849964E-01
   7121.67  1.6935022E-01
   7122.00  1.8241934E-01
   7122.33  1.9967624E-01
   7122.67  2.2268269E-01
   7123.00  2.5270901E-01
   7123.33  2.9017359E-01
   7123.67  3.3162711E-01
   7124.00  3.7403517E-01
   7124.33  4.1467526E-01
   7124.67  4.5181150E-01
   7125.00  4.8279204E-01
   7125.33  5.0529172E-01
   7125.67  5.2446399E-01
   7126.00  5.4562340E-01
   7126.33  5.7237453E-01
   7126.67  6.0381106E-01
   7127.00  6.3869380E-01
   7127.33  6.7331000E-01
   7127.67  7.0023582E-01
   7128.00  7.1399430E-01
   7128.33  7.1415155E-01
   7128.67  7.0861941E-01
   7129.00  7.0237591E-01
   7129.33  6.9900182E-01
   7129.67  6.9913035E-01
   7130.00  7.0223795E-01
   7130.33  7.0699283E-01
   7130.67  7.1135155E-01
   7131.00  7.1373473E-01
   7131.33  7.1219823E-01
   7131.67  7.0640248E-01
   7132.00  6.9644747E-01
   7132.33  6.8302266E-01
   7132.67  6.6871219E-01
   7133.00  6.5613436E-01
   7133.33  6.4875570E-01
   7133.67  6.4730235E-01
   7134.00  6.5103083E-01
   7134.33  6.5772603E-01
   7134.67  6.6413695E-01
   7135.00  6.6843869E-01
   7135.33  6.6898316E-01
   7135.67  6.6577366E-01
   7136.00  6.5928452E-01
   7136.33  6.5048785E-01
   7136.67  6.4080138E-01
   7137.00  6.3086227E-01
   7137.33  6.2115488E-01
   7137.67  6.1204168E-01
   7138.00  6.0381110E-01
   7138.33  5.9679025E-01
   7138.67  5.9087128E-01
   7139.00  5.8597566E-01
   7139.33  5.8203299E-01
   7139.67  5.7868317E-01
   7140.00  5.7564895E-01
   7140.33  5.7254409E-01
   7140.67  5.6901320E-01
   7141.00  5.6484010E-01
   7141.33  5.5977446E-01
   7141.67  5.5371703E-01
   7142.00  5.4639948E-01
   7142.33  5.3737060E-01
   7142.67  5.2686959E-01
   7143.00  5.1527040E-01
   7143.33  5.0322787E-01
   7143.67  4.9153978E-01
   7144.00  4.8071041E-01
   7144.33  4.7122165E-01
   7144.67  4.6300386E-01
   7145.00  4.5598338E-01
   7145.33  4.5011687E-01
   7145.67  4.4507636E-01
   7146.00  4.4070573E-01
   7146.33  4.3694265E-01
   7146.67  4.3364756E-01
   7147.00  4.3078960E-01
   7147.33  4.2840699E-01
   7147.67  4.2644094E-01
   7148.00  4.2488178E-01
   7148.33  4.2374782E-01
   7148.67  4.2293663E-01
   7149.00  4.2239023E-01
   7149.33  4.2206802E-01
   7149.67  4.2188493E-01
   7150.00  4.2179500E-01
   7150.33  4.2176550E-01
   7150.67  4.2177177E-01
   7151.00  4.2181594E-01
   7151.33  4.2192488E-01
   7151.67  4.2212254E-01
   7152.00  4.2243626E-01
   7152.33  4.2290309E-01
   7152.67  4.2350180E-01
   7153.00  4.2420492E-01
   7153.33  4.2496246E-01
   7153.67  4.2569912E-01
   7154.00  4.2636164E-01
   7154.33  4.2690558E-01
   7154.67  4.2735676E-01
   7155.00  4.2775515E-01
   7155.33  4.2815783E-01
   7155.67  4.2859817E-01
   7156.00  4.2906313E-01
   7156.33  4.2946779E-01
   7156.67  4.2967949E-01
   7157.00  4.2954830E-01
   7157.33  4.2883007E-01
   7157.67  4.2743926E-01
   7158.00  4.2528892E-01
   7158.33  4.2223850E-01
   7158.67  4.1841170E-01
   7159.00  4.1387303E-01
   7159.33  4.0866227E-01
   7159.67  4.0299682E-01
   7160.00  3.9701049E-01
   7160.33  3.9084100E-01
   7160.67  3.8465954E-01
   7161.00  3.7858343E-01
   7161.33  3.7276147E-01
   7161.67  3.6726849E-01
   7162.00  3.6217851E-01
   7162.33  3.5761768E-01
   7162.67  3.5357191E-01
   7163.00  3.5006057E-01
   7163.33  3.4715019E-01
   7163.67  3.4475106E-01
   7164.00  3.4282651E-01
   7164.33  3.4137530E-01
   7164.67  3.4029199E-01
   7165.00  3.3953325E-01
   7165.33  3.3908772E-01
   7165.67  3.3888306E-01
   7166.00  3.3889587E-01
   7166.33  3.3913550E-01
   7166.67  3.3957251E-01
   7167.00  3.4021040E-01
   7167.33  3.4108409E-01
   7167.67  3.4217723E-01
   7168.00  3.4349707E-01
   7168.33  3.4507775E-01
   7168.67  3.4689053E-01
   7169.00  3.4893112E-01
   7169.33  3.5121647E-01
   7169.67  3.5370352E-01
   7170.00  3.5637369E-01
   7170.33  3.5921701E-01
   7170.67  3.6217212E-01
   7171.00  3.6518487E-01
   7171.33  3.6814673E-01
   7171.67  3.7088052E-01
   7172.00  3.7314865E-01
