    FDMNES
    energy     <xanes>
   7097.00  4.8765346E-03
   7097.33  4.9922886E-03
   7097.67  5.1133934E-03
   7098.00  5.2402234E-03
   7098.33  5.3740388E-03
   7098.67  5.5146049E-03
   7099.00  5.6624382E-03
   7099.33  5.8192050E-03
   7099.67  5.9846739E-03
   7100.00  6.1595782E-03
   7100.33  6.3461843E-03
   7100.67  6.5442968E-03
   7101.00  6.7549924E-03
   7101.33  6.9814594E-03
   7101.67  7.2236102E-03
   7102.00  7.4830897E-03
   7102.33  7.7645688E-03
   7102.67  8.0682281E-03
   7103.00  8.3967045E-03
   7103.33  8.7571885E-03
   7103.67  9.1504982E-03
   7104.00  9.5811194E-03
   7104.33  1.0060830E-02
   7104.67  1.0591989E-02
   7105.00  1.1182824E-02
   7105.33  1.1854226E-02
   7105.67  1.2612514E-02
   7106.00  1.3474333E-02
   7106.33  1.4480903E-02
   7106.67  1.5649835E-02
   7107.00  1.7019673E-02
   7107.33  1.8684830E-02
   7107.67  2.0700910E-02
   7108.00  2.3176593E-02
   7108.33  2.6382416E-02
   7108.67  3.0540019E-02
   7109.00  3.6066845E-02
   7109.33  4.4077748E-02
   7109.67  5.5893041E-02
   7110.00  7.4119044E-02
   7110.33  1.0625423E-01
   7110.67  1.5925093E-01
   7111.00  2.2868718E-01
   7111.33  2.7654459E-01
   7111.67  2.9592283E-01
   7112.00  3.1212026E-01
   7112.33  3.3577807E-01
   7112.67  3.4344751E-01
   7113.00  3.3657733E-01
   7113.33  3.3297984E-01
   7113.67  3.2342366E-01
   7114.00  2.9580485E-01
   7114.33  2.4887416E-01
   7114.67  2.0076445E-01
   7115.00  1.6139549E-01
   7115.33  1.3386744E-01
   7115.67  1.1455758E-01
   7116.00  1.0122531E-01
   7116.33  9.2445884E-02
   7116.67  8.6548901E-02
   7117.00  8.2921934E-02
   7117.33  8.1289891E-02
   7117.67  8.1086737E-02
   7118.00  8.2140862E-02
   7118.33  8.4515697E-02
   7118.67  8.7975757E-02
   7119.00  9.2326483E-02
   7119.33  9.7134298E-02
   7119.67  1.0166422E-01
   7120.00  1.0572964E-01
   7120.33  1.1010130E-01
   7120.67  1.1564925E-01
   7121.00  1.2269085E-01
   7121.33  1.3187136E-01
   7121.67  1.4366200E-01
   7122.00  1.5841605E-01
   7122.33  1.7633013E-01
   7122.67  1.9680368E-01
   7123.00  2.1975100E-01
   7123.33  2.4475546E-01
   7123.67  2.7009566E-01
   7124.00  2.9414951E-01
   7124.33  3.1465321E-01
   7124.67  3.3113174E-01
   7125.00  3.4437219E-01
   7125.33  3.5634838E-01
   7125.67  3.6906107E-01
   7126.00  3.8328371E-01
   7126.33  3.9982370E-01
   7126.67  4.1934132E-01
   7127.00  4.4249166E-01
   7127.33  4.6898357E-01
   7127.67  4.9634129E-01
   7128.00  5.2269606E-01
   7128.33  5.4660629E-01
   7128.67  5.6873260E-01
   7129.00  5.9032572E-01
   7129.33  6.1329772E-01
   7129.67  6.3936726E-01
   7130.00  6.6989484E-01
   7130.33  7.0540948E-01
   7130.67  7.4235789E-01
   7131.00  7.7595487E-01
   7131.33  7.9949520E-01
   7131.67  8.1200050E-01
   7132.00  8.1531992E-01
   7132.33  8.1338178E-01
   7132.67  8.1117785E-01
   7133.00  8.1085127E-01
   7133.33  8.1279289E-01
   7133.67  8.1529032E-01
   7134.00  8.1664470E-01
   7134.33  8.1475221E-01
   7134.67  8.0940572E-01
   7135.00  8.0124758E-01
   7135.33  7.9167167E-01
   7135.67  7.8267030E-01
   7136.00  7.7555795E-01
   7136.33  7.7152148E-01
   7136.67  7.7030614E-01
   7137.00  7.7149525E-01
   7137.33  7.7435295E-01
   7137.67  7.7741960E-01
   7138.00  7.7942188E-01
   7138.33  7.7854187E-01
   7138.67  7.7390597E-01
   7139.00  7.6500385E-01
   7139.33  7.5147707E-01
   7139.67  7.3462869E-01
   7140.00  7.1533538E-01
   7140.33  6.9437850E-01
   7140.67  6.7276729E-01
   7141.00  6.5110589E-01
   7141.33  6.3009422E-01
   7141.67  6.1024494E-01
   7142.00  5.9203373E-01
   7142.33  5.7622241E-01
   7142.67  5.6291462E-01
   7143.00  5.5226753E-01
   7143.33  5.4453612E-01
   7143.67  5.3903418E-01
   7144.00  5.3524814E-01
   7144.33  5.3256452E-01
   7144.67  5.3012160E-01
   7145.00  5.2739958E-01
   7145.33  5.2394789E-01
   7145.67  5.1976774E-01
   7146.00  5.1499050E-01
   7146.33  5.0986941E-01
   7146.67  5.0477343E-01
   7147.00  4.9994377E-01
   7147.33  4.9561469E-01
   7147.67  4.9181540E-01
   7148.00  4.8857353E-01
   7148.33  4.8596620E-01
   7148.67  4.8391484E-01
   7149.00  4.8241088E-01
   7149.33  4.8151746E-01
   7149.67  4.8116481E-01
   7150.00  4.8134770E-01
   7150.33  4.8211249E-01
   7150.67  4.8335612E-01
   7151.00  4.8502648E-01
   7151.33  4.8708342E-01
   7151.67  4.8938094E-01
   7152.00  4.9182070E-01
   7152.33  4.9428884E-01
   7152.67  4.9667362E-01
   7153.00  4.9889671E-01
   7153.33  5.0086207E-01
   7153.67  5.0255850E-01
   7154.00  5.0397203E-01
   7154.33  5.0506815E-01
   7154.67  5.0589017E-01
   7155.00  5.0644082E-01
   7155.33  5.0667446E-01
   7155.67  5.0659859E-01
   7156.00  5.0617587E-01
   7156.33  5.0529982E-01
   7156.67  5.0395685E-01
   7157.00  5.0209044E-01
   7157.33  4.9956404E-01
   7157.67  4.9639480E-01
   7158.00  4.9254361E-01
   7158.33  4.8789151E-01
   7158.67  4.8252173E-01
   7159.00  4.7645549E-01
   7159.33  4.6967527E-01
   7159.67  4.6236309E-01
   7160.00  4.5463651E-01
   7160.33  4.4662826E-01
   7160.67  4.3854980E-01
   7161.00  4.3055743E-01
   7161.33  4.2285532E-01
   7161.67  4.1556119E-01
   7162.00  4.0878036E-01
   7162.33  4.0267895E-01
   7162.67  3.9723398E-01
   7163.00  3.9246779E-01
   7163.33  3.8847591E-01
   7163.67  3.8515917E-01
   7164.00  3.8248624E-01
   7164.33  3.8047353E-01
   7164.67  3.7897511E-01
   7165.00  3.7792054E-01
   7165.33  3.7726765E-01
   7165.67  3.7688675E-01
   7166.00  3.7671143E-01
   7166.33  3.7669236E-01
   7166.67  3.7675862E-01
   7167.00  3.7687968E-01
   7167.33  3.7704529E-01
   7167.67  3.7725271E-01
   7168.00  3.7751437E-01
   7168.33  3.7786202E-01
   7168.67  3.7831152E-01
   7169.00  3.7888421E-01
   7169.33  3.7961897E-01
   7169.67  3.8051141E-01
   7170.00  3.8156617E-01
   7170.33  3.8279894E-01
   7170.67  3.8417271E-01
   7171.00  3.8565759E-01
   7171.33  3.8719476E-01
   7171.67  3.8865813E-01
   7172.00  3.8988967E-01
