    FDMNES
    energy     <xanes>
   7097.00  5.4743630E-03
   7097.33  5.6165028E-03
   7097.67  5.7655684E-03
   7098.00  5.9220511E-03
   7098.33  6.0875916E-03
   7098.67  6.2618921E-03
   7099.00  6.4456278E-03
   7099.33  6.6409670E-03
   7099.67  6.8476118E-03
   7100.00  7.0665154E-03
   7100.33  7.3006195E-03
   7100.67  7.5496636E-03
   7101.00  7.8150360E-03
   7101.33  8.1008534E-03
   7101.67  8.4069753E-03
   7102.00  8.7354991E-03
   7102.33  9.0924041E-03
   7102.67  9.4778514E-03
   7103.00  9.8951533E-03
   7103.33  1.0353396E-02
   7103.67  1.0853453E-02
   7104.00  1.1400848E-02
   7104.33  1.2010184E-02
   7104.67  1.2684032E-02
   7105.00  1.3432247E-02
   7105.33  1.4280048E-02
   7105.67  1.5234237E-02
   7106.00  1.6314033E-02
   7106.33  1.7567304E-02
   7106.67  1.9012414E-02
   7107.00  2.0691628E-02
   7107.33  2.2708555E-02
   7107.67  2.5118056E-02
   7108.00  2.8030605E-02
   7108.33  3.1718646E-02
   7108.67  3.6381955E-02
   7109.00  4.2398445E-02
   7109.33  5.0749095E-02
   7109.67  6.2468929E-02
   7110.00  7.9565799E-02
   7110.33  1.0778136E-01
   7110.67  1.5395024E-01
   7111.00  2.2439758E-01
   7111.33  3.1341168E-01
   7111.67  3.9643754E-01
   7112.00  4.4638154E-01
   7112.33  4.6229168E-01
   7112.67  4.9345886E-01
   7113.00  5.4363019E-01
   7113.33  5.8757470E-01
   7113.67  5.8319980E-01
   7114.00  5.0864514E-01
   7114.33  4.0693812E-01
   7114.67  3.1937606E-01
   7115.00  2.5281931E-01
   7115.33  2.0704962E-01
   7115.67  1.7455095E-01
   7116.00  1.5162185E-01
   7116.33  1.3642038E-01
   7116.67  1.2632509E-01
   7117.00  1.2016145E-01
   7117.33  1.1765092E-01
   7117.67  1.1832227E-01
   7118.00  1.2229357E-01
   7118.33  1.3011628E-01
   7118.67  1.4096914E-01
   7119.00  1.5337335E-01
   7119.33  1.6418519E-01
   7119.67  1.7115698E-01
   7120.00  1.7412671E-01
   7120.33  1.7545928E-01
   7120.67  1.7851878E-01
   7121.00  1.8471437E-01
   7121.33  1.9451935E-01
   7121.67  2.0667648E-01
   7122.00  2.2015755E-01
   7122.33  2.3420109E-01
   7122.67  2.4922528E-01
   7123.00  2.6687359E-01
   7123.33  2.9019818E-01
   7123.67  3.1941065E-01
   7124.00  3.5368782E-01
   7124.33  3.9236303E-01
   7124.67  4.3341414E-01
   7125.00  4.7406229E-01
   7125.33  5.0919217E-01
   7125.67  5.3657978E-01
   7126.00  5.5678285E-01
   7126.33  5.7210264E-01
   7126.67  5.8586482E-01
   7127.00  5.9935927E-01
   7127.33  6.1262018E-01
   7127.67  6.2465957E-01
   7128.00  6.3446066E-01
   7128.33  6.4130877E-01
   7128.67  6.4657572E-01
   7129.00  6.5219358E-01
   7129.33  6.6048442E-01
   7129.67  6.7139533E-01
   7130.00  6.8353820E-01
   7130.33  6.9443112E-01
   7130.67  7.0255301E-01
   7131.00  7.0759614E-01
   7131.33  7.0962881E-01
   7131.67  7.0917825E-01
   7132.00  7.0621643E-01
   7132.33  7.0109995E-01
   7132.67  6.9529200E-01
   7133.00  6.8957596E-01
   7133.33  6.8411203E-01
   7133.67  6.7858092E-01
   7134.00  6.7295442E-01
   7134.33  6.6786886E-01
   7134.67  6.6400352E-01
   7135.00  6.6117318E-01
   7135.33  6.5746313E-01
   7135.67  6.5074719E-01
   7136.00  6.4055687E-01
   7136.33  6.2818147E-01
   7136.67  6.1606854E-01
   7137.00  6.0552420E-01
   7137.33  5.9732673E-01
   7137.67  5.9093820E-01
   7138.00  5.8592595E-01
   7138.33  5.8212330E-01
   7138.67  5.7939400E-01
   7139.00  5.7786878E-01
   7139.33  5.7783743E-01
   7139.67  5.7911765E-01
   7140.00  5.8155892E-01
   7140.33  5.8494719E-01
   7140.67  5.8874409E-01
   7141.00  5.9252833E-01
   7141.33  5.9572770E-01
   7141.67  5.9790377E-01
   7142.00  5.9863955E-01
   7142.33  5.9726583E-01
   7142.67  5.9369729E-01
   7143.00  5.8780143E-01
   7143.33  5.7934407E-01
   7143.67  5.6888634E-01
   7144.00  5.5682189E-01
   7144.33  5.4360256E-01
   7144.67  5.2998342E-01
   7145.00  5.1646656E-01
   7145.33  5.0359063E-01
   7145.67  4.9158254E-01
   7146.00  4.8055966E-01
   7146.33  4.7065245E-01
   7146.67  4.6165944E-01
   7147.00  4.5349385E-01
   7147.33  4.4616290E-01
   7147.67  4.3951815E-01
   7148.00  4.3352996E-01
   7148.33  4.2824486E-01
   7148.67  4.2354014E-01
   7149.00  4.1937450E-01
   7149.33  4.1577048E-01
   7149.67  4.1263669E-01
   7150.00  4.0995496E-01
   7150.33  4.0775974E-01
   7150.67  4.0597784E-01
   7151.00  4.0458894E-01
   7151.33  4.0360126E-01
   7151.67  4.0291508E-01
   7152.00  4.0246785E-01
   7152.33  4.0219144E-01
   7152.67  4.0197118E-01
   7153.00  4.0172732E-01
   7153.33  4.0137223E-01
   7153.67  4.0087349E-01
   7154.00  4.0022171E-01
   7154.33  3.9942225E-01
   7154.67  3.9853982E-01
   7155.00  3.9762572E-01
   7155.33  3.9673858E-01
   7155.67  3.9591262E-01
   7156.00  3.9515746E-01
   7156.33  3.9446245E-01
   7156.67  3.9377727E-01
   7157.00  3.9305071E-01
   7157.33  3.9220540E-01
   7157.67  3.9119806E-01
   7158.00  3.8999440E-01
   7158.33  3.8854861E-01
   7158.67  3.8689101E-01
   7159.00  3.8503849E-01
   7159.33  3.8299915E-01
   7159.67  3.8082669E-01
   7160.00  3.7854953E-01
   7160.33  3.7619001E-01
   7160.67  3.7378794E-01
   7161.00  3.7136996E-01
   7161.33  3.6897137E-01
   7161.67  3.6662710E-01
   7162.00  3.6437248E-01
   7162.33  3.6226915E-01
   7162.67  3.6034517E-01
   7163.00  3.5863798E-01
   7163.33  3.5722263E-01
   7163.67  3.5610005E-01
   7164.00  3.5528597E-01
   7164.33  3.5482544E-01
   7164.67  3.5467688E-01
   7165.00  3.5483062E-01
   7165.33  3.5530224E-01
   7165.67  3.5603133E-01
   7166.00  3.5699521E-01
   7166.33  3.5819554E-01
   7166.67  3.5958638E-01
   7167.00  3.6115655E-01
   7167.33  3.6292135E-01
   7167.67  3.6485819E-01
   7168.00  3.6696818E-01
   7168.33  3.6927439E-01
   7168.67  3.7175408E-01
   7169.00  3.7440297E-01
   7169.33  3.7723002E-01
   7169.67  3.8019665E-01
   7170.00  3.8327998E-01
   7170.33  3.8645461E-01
   7170.67  3.8966187E-01
   7171.00  3.9284420E-01
   7171.33  3.9588570E-01
   7171.67  3.9863651E-01
   7172.00  4.0089163E-01
