    FDMNES
    energy     <xanes>
   7097.00  5.2890749E-03
   7097.33  5.4239305E-03
   7097.67  5.5653126E-03
   7098.00  5.7136862E-03
   7098.33  5.8706011E-03
   7098.67  6.0357809E-03
   7099.00  6.2098671E-03
   7099.33  6.3949144E-03
   7099.67  6.5906499E-03
   7100.00  6.7979844E-03
   7100.33  7.0197169E-03
   7100.67  7.2556184E-03
   7101.00  7.5070241E-03
   7101.33  7.7778742E-03
   7101.67  8.0680701E-03
   7102.00  8.3796476E-03
   7102.33  8.7183757E-03
   7102.67  9.0844794E-03
   7103.00  9.4812111E-03
   7103.33  9.9174347E-03
   7103.67  1.0394141E-02
   7104.00  1.0916836E-02
   7104.33  1.1499984E-02
   7104.67  1.2146418E-02
   7105.00  1.2866165E-02
   7105.33  1.3684725E-02
   7105.67  1.4609622E-02
   7106.00  1.5660957E-02
   7106.33  1.6888551E-02
   7106.67  1.8313153E-02
   7107.00  1.9980676E-02
   7107.33  2.2003533E-02
   7107.67  2.4446160E-02
   7108.00  2.7435296E-02
   7108.33  3.1285366E-02
   7108.67  3.6246201E-02
   7109.00  4.2788020E-02
   7109.33  5.2154559E-02
   7109.67  6.5768728E-02
   7110.00  8.6423331E-02
   7110.33  1.2219892E-01
   7110.67  1.8194098E-01
   7111.00  2.6818137E-01
   7111.33  3.5003029E-01
   7111.67  3.8893130E-01
   7112.00  3.8920755E-01
   7112.33  3.9386974E-01
   7112.67  4.2286104E-01
   7113.00  4.5696220E-01
   7113.33  4.6542163E-01
   7113.67  4.4132574E-01
   7114.00  3.8420867E-01
   7114.33  3.1265835E-01
   7114.67  2.5177166E-01
   7115.00  2.0628897E-01
   7115.33  1.7448319E-01
   7115.67  1.5108329E-01
   7116.00  1.3378573E-01
   7116.33  1.2125730E-01
   7116.67  1.1202303E-01
   7117.00  1.0593378E-01
   7117.33  1.0339322E-01
   7117.67  1.0392187E-01
   7118.00  1.0742904E-01
   7118.33  1.1389844E-01
   7118.67  1.2188215E-01
   7119.00  1.2973548E-01
   7119.33  1.3506725E-01
   7119.67  1.3797750E-01
   7120.00  1.4084860E-01
   7120.33  1.4599124E-01
   7120.67  1.5251189E-01
   7121.00  1.5997058E-01
   7121.33  1.7081680E-01
   7121.67  1.8736167E-01
   7122.00  2.1059945E-01
   7122.33  2.4133568E-01
   7122.67  2.7844448E-01
   7123.00  3.2136190E-01
   7123.33  3.6761272E-01
   7123.67  4.1224010E-01
   7124.00  4.5306131E-01
   7124.33  4.8796428E-01
   7124.67  5.1564038E-01
   7125.00  5.3743457E-01
   7125.33  5.5764421E-01
   7125.67  5.7848416E-01
   7126.00  5.9842334E-01
   7126.33  6.1385018E-01
   7126.67  6.2435556E-01
   7127.00  6.3185262E-01
   7127.33  6.3941989E-01
   7127.67  6.4844015E-01
   7128.00  6.5880615E-01
   7128.33  6.7069660E-01
   7128.67  6.8498292E-01
   7129.00  7.0277779E-01
   7129.33  7.2388875E-01
   7129.67  7.4418275E-01
   7130.00  7.5915111E-01
   7130.33  7.6394172E-01
   7130.67  7.5926146E-01
   7131.00  7.4698613E-01
   7131.33  7.3001775E-01
   7131.67  7.1211972E-01
   7132.00  6.9461782E-01
   7132.33  6.7729235E-01
   7132.67  6.5959718E-01
   7133.00  6.4182860E-01
   7133.33  6.2536859E-01
   7133.67  6.1169860E-01
   7134.00  6.0176878E-01
   7134.33  5.9538169E-01
   7134.67  5.8971267E-01
   7135.00  5.8290618E-01
   7135.33  5.7482405E-01
   7135.67  5.6705171E-01
   7136.00  5.6064296E-01
   7136.33  5.5645990E-01
   7136.67  5.5442262E-01
   7137.00  5.5432257E-01
   7137.33  5.5568036E-01
   7137.67  5.5754216E-01
   7138.00  5.5935640E-01
   7138.33  5.6067516E-01
   7138.67  5.6136269E-01
   7139.00  5.6133539E-01
   7139.33  5.6041860E-01
   7139.67  5.5861869E-01
   7140.00  5.5583175E-01
   7140.33  5.5179178E-01
   7140.67  5.4656941E-01
   7141.00  5.4019818E-01
   7141.33  5.3269780E-01
   7141.67  5.2441218E-01
   7142.00  5.1556142E-01
   7142.33  5.0640909E-01
   7142.67  4.9735301E-01
   7143.00  4.8876112E-01
   7143.33  4.8119351E-01
   7143.67  4.7491664E-01
   7144.00  4.7013829E-01
   7144.33  4.6710932E-01
   7144.67  4.6548562E-01
   7145.00  4.6499497E-01
   7145.33  4.6529027E-01
   7145.67  4.6579786E-01
   7146.00  4.6612919E-01
   7146.33  4.6588225E-01
   7146.67  4.6496207E-01
   7147.00  4.6338470E-01
   7147.33  4.6125441E-01
   7147.67  4.5889607E-01
   7148.00  4.5655643E-01
   7148.33  4.5451393E-01
   7148.67  4.5287765E-01
   7149.00  4.5167695E-01
   7149.33  4.5089469E-01
   7149.67  4.5033629E-01
   7150.00  4.4983292E-01
   7150.33  4.4915724E-01
   7150.67  4.4814785E-01
   7151.00  4.4670018E-01
   7151.33  4.4471312E-01
   7151.67  4.4229851E-01
   7152.00  4.3956757E-01
   7152.33  4.3668820E-01
   7152.67  4.3388864E-01
   7153.00  4.3134695E-01
   7153.33  4.2929505E-01
   7153.67  4.2780392E-01
   7154.00  4.2692902E-01
   7154.33  4.2674367E-01
   7154.67  4.2709238E-01
   7155.00  4.2784815E-01
   7155.33  4.2882351E-01
   7155.67  4.2972651E-01
   7156.00  4.3030043E-01
   7156.33  4.3016647E-01
   7156.67  4.2914079E-01
   7157.00  4.2705968E-01
   7157.33  4.2369304E-01
   7157.67  4.1922006E-01
   7158.00  4.1376162E-01
   7158.33  4.0743835E-01
   7158.67  4.0060708E-01
   7159.00  3.9349796E-01
   7159.33  3.8635728E-01
   7159.67  3.7940518E-01
   7160.00  3.7279384E-01
   7160.33  3.6671948E-01
   7160.67  3.6122118E-01
   7161.00  3.5635678E-01
   7161.33  3.5224700E-01
   7161.67  3.4880959E-01
   7162.00  3.4601712E-01
   7162.33  3.4388343E-01
   7162.67  3.4224953E-01
   7163.00  3.4102816E-01
   7163.33  3.4016697E-01
   7163.67  3.3955421E-01
   7164.00  3.3914947E-01
   7164.33  3.3896036E-01
   7164.67  3.3898002E-01
   7165.00  3.3924453E-01
   7165.33  3.3984682E-01
   7165.67  3.4080475E-01
   7166.00  3.4215615E-01
   7166.33  3.4398023E-01
   7166.67  3.4623059E-01
   7167.00  3.4889701E-01
   7167.33  3.5200227E-01
   7167.67  3.5546078E-01
   7168.00  3.5923471E-01
   7168.33  3.6330800E-01
   7168.67  3.6759346E-01
   7169.00  3.7204184E-01
   7169.33  3.7660654E-01
   7169.67  3.8121291E-01
   7170.00  3.8580650E-01
   7170.33  3.9031290E-01
   7170.67  3.9467391E-01
   7171.00  3.9882475E-01
   7171.33  4.0263018E-01
   7171.67  4.0597627E-01
   7172.00  4.0867436E-01
