    FDMNES
    energy     <xanes>
   7097.00  5.2388651E-03
   7097.33  5.3658487E-03
   7097.67  5.4986981E-03
   7098.00  5.6378163E-03
   7098.33  5.7845715E-03
   7098.67  5.9386951E-03
   7099.00  6.1007392E-03
   7099.33  6.2725017E-03
   7099.67  6.4537121E-03
   7100.00  6.6451481E-03
   7100.33  6.8492378E-03
   7100.67  7.0657402E-03
   7101.00  7.2957880E-03
   7101.33  7.5427685E-03
   7101.67  7.8065411E-03
   7102.00  8.0888209E-03
   7102.33  8.3945245E-03
   7102.67  8.7237691E-03
   7103.00  9.0792780E-03
   7103.33  9.4685434E-03
   7103.67  9.8923024E-03
   7104.00  1.0355142E-02
   7104.33  1.0869195E-02
   7104.67  1.1436702E-02
   7105.00  1.2065980E-02
   7105.33  1.2778281E-02
   7105.67  1.3579685E-02
   7106.00  1.4486799E-02
   7106.33  1.5540904E-02
   7106.67  1.6758897E-02
   7107.00  1.8178537E-02
   7107.33  1.9892374E-02
   7107.67  2.1952763E-02
   7108.00  2.4463064E-02
   7108.33  2.7679261E-02
   7108.67  3.1801368E-02
   7109.00  3.7205211E-02
   7109.33  4.4877536E-02
   7109.67  5.5918225E-02
   7110.00  7.2471351E-02
   7110.33  1.0073316E-01
   7110.67  1.4807095E-01
   7111.00  2.2026828E-01
   7111.33  3.0558636E-01
   7111.67  3.6843105E-01
   7112.00  3.8680935E-01
   7112.33  3.7278641E-01
   7112.67  3.5598606E-01
   7113.00  3.2075961E-01
   7113.33  2.5966652E-01
   7113.67  2.0557643E-01
   7114.00  1.6784097E-01
   7114.33  1.4629329E-01
   7114.67  1.3532179E-01
   7115.00  1.3249921E-01
   7115.33  1.3742531E-01
   7115.67  1.4717944E-01
   7116.00  1.5796440E-01
   7116.33  1.6827940E-01
   7116.67  1.8392691E-01
   7117.00  2.1099284E-01
   7117.33  2.5185397E-01
   7117.67  2.9247267E-01
   7118.00  3.1470219E-01
   7118.33  3.0895594E-01
   7118.67  2.9230106E-01
   7119.00  2.7681660E-01
   7119.33  2.6890688E-01
   7119.67  2.6722046E-01
   7120.00  2.6988836E-01
   7120.33  2.7731336E-01
   7120.67  2.9123165E-01
   7121.00  3.1307865E-01
   7121.33  3.4208495E-01
   7121.67  3.7233171E-01
   7122.00  3.9837441E-01
   7122.33  4.1440809E-01
   7122.67  4.2184138E-01
   7123.00  4.2411494E-01
   7123.33  4.2413469E-01
   7123.67  4.2317067E-01
   7124.00  4.2099677E-01
   7124.33  4.1705113E-01
   7124.67  4.1201024E-01
   7125.00  4.0689636E-01
   7125.33  4.0291590E-01
   7125.67  4.0041642E-01
   7126.00  3.9994100E-01
   7126.33  4.0363325E-01
   7126.67  4.1281748E-01
   7127.00  4.2782084E-01
   7127.33  4.4774189E-01
   7127.67  4.6961954E-01
   7128.00  4.9183712E-01
   7128.33  5.1307184E-01
   7128.67  5.3224382E-01
   7129.00  5.4883339E-01
   7129.33  5.6395221E-01
   7129.67  5.8076762E-01
   7130.00  6.0153909E-01
   7130.33  6.2680200E-01
   7130.67  6.5308423E-01
   7131.00  6.7697896E-01
   7131.33  6.9480104E-01
   7131.67  7.0576075E-01
   7132.00  7.0963210E-01
   7132.33  7.0638726E-01
   7132.67  6.9848160E-01
   7133.00  6.8765412E-01
   7133.33  6.7555894E-01
   7133.67  6.6356784E-01
   7134.00  6.5229248E-01
   7134.33  6.4221639E-01
   7134.67  6.3331414E-01
   7135.00  6.2555458E-01
   7135.33  6.1891003E-01
   7135.67  6.1299068E-01
   7136.00  6.0749930E-01
   7136.33  6.0209557E-01
   7136.67  5.9654447E-01
   7137.00  5.9084398E-01
   7137.33  5.8523449E-01
   7137.67  5.8006317E-01
   7138.00  5.7560466E-01
   7138.33  5.7214083E-01
   7138.67  5.6954684E-01
   7139.00  5.6769630E-01
   7139.33  5.6645517E-01
   7139.67  5.6559286E-01
   7140.00  5.6503425E-01
   7140.33  5.6479565E-01
   7140.67  5.6487625E-01
   7141.00  5.6532741E-01
   7141.33  5.6626149E-01
   7141.67  5.6766223E-01
   7142.00  5.6953653E-01
   7142.33  5.7192008E-01
   7142.67  5.7470912E-01
   7143.00  5.7784448E-01
   7143.33  5.8126073E-01
   7143.67  5.8478669E-01
   7144.00  5.8826975E-01
   7144.33  5.9146951E-01
   7144.67  5.9415966E-01
   7145.00  5.9609068E-01
   7145.33  5.9685564E-01
   7145.67  5.9637278E-01
   7146.00  5.9454028E-01
   7146.33  5.9116582E-01
   7146.67  5.8648967E-01
   7147.00  5.8062680E-01
   7147.33  5.7363444E-01
   7147.67  5.6586047E-01
   7148.00  5.5751666E-01
   7148.33  5.4881466E-01
   7148.67  5.4002529E-01
   7149.00  5.3131110E-01
   7149.33  5.2282975E-01
   7149.67  5.1462294E-01
   7150.00  5.0670510E-01
   7150.33  4.9909032E-01
   7150.67  4.9170262E-01
   7151.00  4.8450482E-01
   7151.33  4.7748650E-01
   7151.67  4.7060224E-01
   7152.00  4.6383330E-01
   7152.33  4.5718024E-01
   7152.67  4.5062994E-01
   7153.00  4.4419223E-01
   7153.33  4.3790503E-01
   7153.67  4.3178000E-01
   7154.00  4.2584416E-01
   7154.33  4.2015641E-01
   7154.67  4.1471764E-01
   7155.00  4.0954753E-01
   7155.33  4.0469575E-01
   7155.67  4.0013061E-01
   7156.00  3.9584655E-01
   7156.33  3.9186125E-01
   7156.67  3.8811900E-01
   7157.00  3.8459783E-01
   7157.33  3.8129717E-01
   7157.67  3.7817056E-01
   7158.00  3.7520397E-01
   7158.33  3.7240708E-01
   7158.67  3.6975922E-01
   7159.00  3.6726321E-01
   7159.33  3.6494558E-01
   7159.67  3.6279702E-01
   7160.00  3.6083038E-01
   7160.33  3.5909314E-01
   7160.67  3.5758605E-01
   7161.00  3.5632624E-01
   7161.33  3.5536264E-01
   7161.67  3.5468720E-01
   7162.00  3.5432646E-01
   7162.33  3.5435276E-01
   7162.67  3.5474720E-01
   7163.00  3.5552532E-01
   7163.33  3.5674687E-01
   7163.67  3.5836416E-01
   7164.00  3.6037255E-01
   7164.33  3.6280682E-01
   7164.67  3.6560015E-01
   7165.00  3.6873157E-01
   7165.33  3.7221182E-01
   7165.67  3.7597072E-01
   7166.00  3.7997863E-01
   7166.33  3.8422471E-01
   7166.67  3.8864226E-01
   7167.00  3.9319419E-01
   7167.33  3.9784540E-01
   7167.67  4.0253524E-01
   7168.00  4.0721909E-01
   7168.33  4.1183772E-01
   7168.67  4.1634844E-01
   7169.00  4.2071152E-01
   7169.33  4.2486286E-01
   7169.67  4.2879323E-01
   7170.00  4.3248150E-01
   7170.33  4.3587852E-01
   7170.67  4.3900563E-01
   7171.00  4.4185380E-01
   7171.33  4.4436470E-01
   7171.67  4.4652349E-01
   7172.00  4.4825170E-01
