    FDMNES
    energy     <xanes>
   7097.00  4.3371856E-03
   7097.33  4.4302780E-03
   7097.67  4.5274651E-03
   7098.00  4.6290289E-03
   7098.33  4.7359263E-03
   7098.67  4.8479725E-03
   7099.00  4.9655564E-03
   7099.33  5.0899409E-03
   7099.67  5.2209438E-03
   7100.00  5.3591175E-03
   7100.33  5.5061777E-03
   7100.67  5.6619702E-03
   7101.00  5.8273074E-03
   7101.33  6.0046026E-03
   7101.67  6.1937856E-03
   7102.00  6.3961016E-03
   7102.33  6.6150904E-03
   7102.67  6.8508923E-03
   7103.00  7.1055127E-03
   7103.33  7.3844200E-03
   7103.67  7.6882582E-03
   7104.00  8.0204642E-03
   7104.33  8.3900525E-03
   7104.67  8.7988996E-03
   7105.00  9.2533796E-03
   7105.33  9.7696574E-03
   7105.67  1.0352828E-02
   7106.00  1.1016012E-02
   7106.33  1.1791667E-02
   7106.67  1.2694301E-02
   7107.00  1.3755100E-02
   7107.33  1.5050563E-02
   7107.67  1.6628027E-02
   7108.00  1.8579097E-02
   7108.33  2.1133395E-02
   7108.67  2.4489693E-02
   7109.00  2.9023073E-02
   7109.33  3.5752340E-02
   7109.67  4.5953703E-02
   7110.00  6.2168388E-02
   7110.33  9.1642544E-02
   7110.67  1.3930020E-01
   7111.00  1.9220352E-01
   7111.33  2.0771819E-01
   7111.67  1.9816182E-01
   7112.00  1.8370786E-01
   7112.33  1.8427647E-01
   7112.67  2.0870098E-01
   7113.00  2.5556067E-01
   7113.33  2.9057622E-01
   7113.67  2.7339610E-01
   7114.00  2.1933313E-01
   7114.33  1.6447024E-01
   7114.67  1.2559532E-01
   7115.00  1.0229604E-01
   7115.33  9.0544693E-02
   7115.67  8.3822256E-02
   7116.00  7.9093761E-02
   7116.33  7.6033386E-02
   7116.67  7.4758828E-02
   7117.00  7.5128795E-02
   7117.33  7.7046754E-02
   7117.67  8.0204098E-02
   7118.00  8.4550978E-02
   7118.33  9.0135589E-02
   7118.67  9.6619248E-02
   7119.00  1.0368111E-01
   7119.33  1.1075249E-01
   7119.67  1.1711581E-01
   7120.00  1.2228132E-01
   7120.33  1.2628015E-01
   7120.67  1.3016491E-01
   7121.00  1.3465390E-01
   7121.33  1.4010184E-01
   7121.67  1.4628489E-01
   7122.00  1.5313546E-01
   7122.33  1.6090197E-01
   7122.67  1.6987257E-01
   7123.00  1.8043699E-01
   7123.33  1.9309128E-01
   7123.67  2.0755784E-01
   7124.00  2.2353240E-01
   7124.33  2.4043852E-01
   7124.67  2.5727070E-01
   7125.00  2.7323431E-01
   7125.33  2.8719579E-01
   7125.67  2.9844133E-01
   7126.00  3.0633753E-01
   7126.33  3.1057958E-01
   7126.67  3.1288903E-01
   7127.00  3.1479818E-01
   7127.33  3.1770512E-01
   7127.67  3.2204390E-01
   7128.00  3.2794403E-01
   7128.33  3.3563830E-01
   7128.67  3.4497479E-01
   7129.00  3.5600833E-01
   7129.33  3.6884738E-01
   7129.67  3.8276175E-01
   7130.00  3.9681759E-01
   7130.33  4.0943055E-01
   7130.67  4.1967008E-01
   7131.00  4.2740705E-01
   7131.33  4.3321974E-01
   7131.67  4.3848224E-01
   7132.00  4.4397193E-01
   7132.33  4.5021316E-01
   7132.67  4.5717513E-01
   7133.00  4.6474584E-01
   7133.33  4.7282040E-01
   7133.67  4.8127428E-01
   7134.00  4.9017720E-01
   7134.33  4.9976048E-01
   7134.67  5.1004325E-01
   7135.00  5.2101706E-01
   7135.33  5.3266119E-01
   7135.67  5.4473217E-01
   7136.00  5.5705089E-01
   7136.33  5.6941509E-01
   7136.67  5.8165122E-01
   7137.00  5.9366785E-01
   7137.33  6.0538294E-01
   7137.67  6.1679631E-01
   7138.00  6.2783843E-01
   7138.33  6.3827018E-01
   7138.67  6.4789105E-01
   7139.00  6.5642976E-01
   7139.33  6.6342980E-01
   7139.67  6.6889506E-01
   7140.00  6.7282354E-01
   7140.33  6.7521493E-01
   7140.67  6.7655681E-01
   7141.00  6.7718491E-01
   7141.33  6.7745537E-01
   7141.67  6.7774831E-01
   7142.00  6.7828043E-01
   7142.33  6.7925222E-01
   7142.67  6.8066599E-01
   7143.00  6.8250571E-01
   7143.33  6.8476686E-01
   7143.67  6.8735553E-01
   7144.00  6.9025059E-01
   7144.33  6.9348586E-01
   7144.67  6.9705669E-01
   7145.00  7.0102664E-01
   7145.33  7.0554866E-01
   7145.67  7.1063665E-01
   7146.00  7.1631642E-01
   7146.33  7.2261882E-01
   7146.67  7.2934911E-01
   7147.00  7.3632955E-01
   7147.33  7.4328321E-01
   7147.67  7.4989565E-01
   7148.00  7.5588807E-01
   7148.33  7.6084816E-01
   7148.67  7.6465123E-01
   7149.00  7.6715221E-01
   7149.33  7.6808227E-01
   7149.67  7.6759510E-01
   7150.00  7.6571955E-01
   7150.33  7.6236211E-01
   7150.67  7.5778661E-01
   7151.00  7.5209160E-01
   7151.33  7.4526815E-01
   7151.67  7.3756291E-01
   7152.00  7.2908119E-01
   7152.33  7.1985868E-01
   7152.67  7.1008988E-01
   7153.00  6.9986618E-01
   7153.33  6.8924753E-01
   7153.67  6.7837764E-01
   7154.00  6.6733671E-01
   7154.33  6.5619845E-01
   7154.67  6.4504804E-01
   7155.00  6.3394117E-01
   7155.33  6.2294506E-01
   7155.67  6.1209291E-01
   7156.00  6.0141750E-01
   7156.33  5.9097717E-01
   7156.67  5.8077449E-01
   7157.00  5.7083285E-01
   7157.33  5.6121371E-01
   7157.67  5.5190619E-01
   7158.00  5.4293277E-01
   7158.33  5.3436623E-01
   7158.67  5.2619135E-01
   7159.00  5.1843703E-01
   7159.33  5.1120000E-01
   7159.67  5.0446639E-01
   7160.00  4.9827311E-01
   7160.33  4.9272944E-01
   7160.67  4.8779149E-01
   7161.00  4.8347519E-01
   7161.33  4.7986287E-01
   7161.67  4.7686117E-01
   7162.00  4.7444150E-01
   7162.33  4.7261977E-01
   7162.67  4.7125896E-01
   7163.00  4.7028538E-01
   7163.33  4.6965806E-01
   7163.67  4.6927016E-01
   7164.00  4.6906664E-01
   7164.33  4.6900668E-01
   7164.67  4.6902816E-01
   7165.00  4.6909974E-01
   7165.33  4.6919580E-01
   7165.67  4.6929267E-01
   7166.00  4.6937715E-01
   7166.33  4.6943579E-01
   7166.67  4.6946575E-01
   7167.00  4.6946612E-01
   7167.33  4.6943716E-01
   7167.67  4.6939023E-01
   7168.00  4.6933575E-01
   7168.33  4.6929059E-01
   7168.67  4.6927274E-01
   7169.00  4.6929995E-01
   7169.33  4.6940148E-01
   7169.67  4.6958901E-01
   7170.00  4.6987734E-01
   7170.33  4.7029303E-01
   7170.67  4.7082583E-01
   7171.00  4.7146811E-01
   7171.33  4.7219858E-01
   7171.67  4.7293568E-01
   7172.00  4.7357669E-01
