    FDMNES
    energy     <xanes>
   7097.00  5.2390054E-03
   7097.33  5.3614101E-03
   7097.67  5.4892705E-03
   7098.00  5.6229464E-03
   7098.33  5.7636840E-03
   7098.67  5.9112112E-03
   7099.00  6.0660134E-03
   7099.33  6.2297058E-03
   7099.67  6.4020032E-03
   7100.00  6.5835765E-03
   7100.33  6.7765696E-03
   7100.67  6.9807034E-03
   7101.00  7.1969318E-03
   7101.33  7.4281815E-03
   7101.67  7.6742223E-03
   7102.00  7.9364574E-03
   7102.33  8.2190177E-03
   7102.67  8.5218176E-03
   7103.00  8.8470056E-03
   7103.33  9.2006545E-03
   7103.67  9.5830376E-03
   7104.00  9.9976104E-03
   7104.33  1.0453762E-02
   7104.67  1.0952625E-02
   7105.00  1.1500110E-02
   7105.33  1.2111698E-02
   7105.67  1.2790629E-02
   7106.00  1.3547860E-02
   7106.33  1.4411170E-02
   7106.67  1.5389369E-02
   7107.00  1.6505100E-02
   7107.33  1.7814445E-02
   7107.67  1.9342930E-02
   7108.00  2.1145318E-02
   7108.33  2.3356665E-02
   7108.67  2.6064477E-02
   7109.00  2.9438713E-02
   7109.33  3.3914544E-02
   7109.67  3.9908438E-02
   7110.00  4.8226992E-02
   7110.33  6.1132031E-02
   7110.67  8.1205026E-02
   7111.00  1.1102800E-01
   7111.33  1.5031784E-01
   7111.67  1.9410947E-01
   7112.00  2.3955911E-01
   7112.33  2.9161224E-01
   7112.67  3.4188624E-01
   7113.00  3.7870449E-01
   7113.33  4.0519986E-01
   7113.67  4.3602141E-01
   7114.00  4.6687060E-01
   7114.33  4.6500129E-01
   7114.67  4.2930375E-01
   7115.00  3.7822476E-01
   7115.33  3.2939271E-01
   7115.67  2.9070393E-01
   7116.00  2.6463432E-01
   7116.33  2.5163928E-01
   7116.67  2.4487616E-01
   7117.00  2.3664079E-01
   7117.33  2.2047393E-01
   7117.67  2.0162069E-01
   7118.00  1.8582794E-01
   7118.33  1.7591787E-01
   7118.67  1.7020545E-01
   7119.00  1.6701972E-01
   7119.33  1.6456528E-01
   7119.67  1.6158590E-01
   7120.00  1.5795394E-01
   7120.33  1.5450560E-01
   7120.67  1.5201114E-01
   7121.00  1.5054633E-01
   7121.33  1.5024534E-01
   7121.67  1.5163384E-01
   7122.00  1.5551440E-01
   7122.33  1.6253627E-01
   7122.67  1.7182049E-01
   7123.00  1.8269611E-01
   7123.33  1.9472024E-01
   7123.67  2.0751796E-01
   7124.00  2.2107935E-01
   7124.33  2.3567890E-01
   7124.67  2.5151405E-01
   7125.00  2.6896078E-01
   7125.33  2.8881123E-01
   7125.67  3.1130964E-01
   7126.00  3.3672876E-01
   7126.33  3.6530763E-01
   7126.67  3.9590985E-01
   7127.00  4.2729858E-01
   7127.33  4.5769883E-01
   7127.67  4.8622424E-01
   7128.00  5.1308054E-01
   7128.33  5.3941140E-01
   7128.67  5.6631273E-01
   7129.00  5.9366750E-01
   7129.33  6.2016131E-01
   7129.67  6.4444126E-01
   7130.00  6.6594846E-01
   7130.33  6.8492685E-01
   7130.67  7.0298076E-01
   7131.00  7.2121722E-01
   7131.33  7.4037604E-01
   7131.67  7.6020008E-01
   7132.00  7.8010376E-01
   7132.33  7.9898085E-01
   7132.67  8.1568159E-01
   7133.00  8.2898407E-01
   7133.33  8.3704398E-01
   7133.67  8.3981005E-01
   7134.00  8.3745932E-01
   7134.33  8.3037848E-01
   7134.67  8.2027384E-01
   7135.00  8.0796371E-01
   7135.33  7.9367950E-01
   7135.67  7.7752392E-01
   7136.00  7.5910499E-01
   7136.33  7.3765283E-01
   7136.67  7.1350814E-01
   7137.00  6.8723800E-01
   7137.33  6.6003204E-01
   7137.67  6.3365681E-01
   7138.00  6.0949165E-01
   7138.33  5.8917661E-01
   7138.67  5.7292006E-01
   7139.00  5.6083252E-01
   7139.33  5.5317122E-01
   7139.67  5.4899612E-01
   7140.00  5.4785795E-01
   7140.33  5.4952994E-01
   7140.67  5.5318349E-01
   7141.00  5.5839515E-01
   7141.33  5.6478375E-01
   7141.67  5.7164752E-01
   7142.00  5.7844344E-01
   7142.33  5.8442708E-01
   7142.67  5.8909828E-01
   7143.00  5.9208116E-01
   7143.33  5.9292032E-01
   7143.67  5.9188161E-01
   7144.00  5.8914316E-01
   7144.33  5.8483527E-01
   7144.67  5.7945833E-01
   7145.00  5.7326207E-01
   7145.33  5.6640462E-01
   7145.67  5.5912989E-01
   7146.00  5.5155107E-01
   7146.33  5.4376547E-01
   7146.67  5.3592782E-01
   7147.00  5.2817033E-01
   7147.33  5.2070291E-01
   7147.67  5.1368786E-01
   7148.00  5.0729243E-01
   7148.33  5.0179186E-01
   7148.67  4.9722554E-01
   7149.00  4.9367471E-01
   7149.33  4.9132003E-01
   7149.67  4.9003002E-01
   7150.00  4.8977539E-01
   7150.33  4.9061740E-01
   7150.67  4.9235445E-01
   7151.00  4.9490759E-01
   7151.33  4.9825941E-01
   7151.67  5.0220359E-01
   7152.00  5.0663991E-01
   7152.33  5.1149685E-01
   7152.67  5.1660418E-01
   7153.00  5.2184940E-01
   7153.33  5.2709377E-01
   7153.67  5.3219900E-01
   7154.00  5.3705356E-01
   7154.33  5.4149631E-01
   7154.67  5.4547798E-01
   7155.00  5.4893655E-01
   7155.33  5.5175445E-01
   7155.67  5.5398457E-01
   7156.00  5.5563275E-01
   7156.33  5.5665978E-01
   7156.67  5.5718509E-01
   7157.00  5.5726430E-01
   7157.33  5.5692468E-01
   7157.67  5.5629032E-01
   7158.00  5.5542659E-01
   7158.33  5.5438456E-01
   7158.67  5.5324615E-01
   7159.00  5.5205588E-01
   7159.33  5.5085264E-01
   7159.67  5.4966551E-01
   7160.00  5.4850891E-01
   7160.33  5.4739513E-01
   7160.67  5.4632164E-01
   7161.00  5.4528863E-01
   7161.33  5.4429339E-01
   7161.67  5.4331972E-01
   7162.00  5.4235649E-01
   7162.33  5.4139078E-01
   7162.67  5.4041041E-01
   7163.00  5.3940428E-01
   7163.33  5.3835414E-01
   7163.67  5.3725000E-01
   7164.00  5.3607614E-01
   7164.33  5.3479991E-01
   7164.67  5.3341145E-01
   7165.00  5.3189251E-01
   7165.33  5.3020252E-01
   7165.67  5.2834102E-01
   7166.00  5.2629422E-01
   7166.33  5.2402453E-01
   7166.67  5.2154892E-01
   7167.00  5.1886659E-01
   7167.33  5.1595842E-01
   7167.67  5.1286152E-01
   7168.00  5.0959031E-01
   7168.33  5.0614734E-01
   7168.67  5.0257812E-01
   7169.00  4.9890846E-01
   7169.33  4.9516327E-01
   7169.67  4.9138308E-01
   7170.00  4.8759477E-01
   7170.33  4.8383979E-01
   7170.67  4.8016197E-01
   7171.00  4.7661458E-01
   7171.33  4.7331484E-01
   7171.67  4.7038191E-01
   7172.00  4.6799651E-01
