    FDMNES
    energy     <xanes>
   7097.00  4.7244843E-03
   7097.33  4.8333900E-03
   7097.67  4.9470402E-03
   7098.00  5.0657458E-03
   7098.33  5.1905885E-03
   7098.67  5.3213313E-03
   7099.00  5.4583962E-03
   7099.33  5.6031890E-03
   7099.67  5.7554657E-03
   7100.00  5.9158151E-03
   7100.33  6.0861138E-03
   7100.67  6.2661322E-03
   7101.00  6.4567192E-03
   7101.33  6.6604614E-03
   7101.67  6.8771929E-03
   7102.00  7.1081860E-03
   7102.33  7.3571489E-03
   7102.67  7.6240895E-03
   7103.00  7.9110092E-03
   7103.33  8.2234892E-03
   7103.67  8.5619674E-03
   7104.00  8.9297855E-03
   7104.33  9.3358792E-03
   7104.67  9.7817469E-03
   7105.00  1.0273410E-02
   7105.33  1.0826376E-02
   7105.67  1.1444895E-02
   7106.00  1.2140969E-02
   7106.33  1.2944604E-02
   7106.67  1.3867958E-02
   7107.00  1.4938536E-02
   7107.33  1.6224089E-02
   7107.67  1.7763620E-02
   7108.00  1.9634431E-02
   7108.33  2.2029681E-02
   7108.67  2.5107322E-02
   7109.00  2.9166642E-02
   7109.33  3.5010775E-02
   7109.67  4.3600543E-02
   7110.00  5.6840196E-02
   7110.33  8.0210685E-02
   7110.67  1.1857796E-01
   7111.00  1.6760210E-01
   7111.33  1.9846701E-01
   7111.67  2.0430476E-01
   7112.00  1.9568515E-01
   7112.33  1.9061741E-01
   7112.67  1.9848935E-01
   7113.00  2.2058268E-01
   7113.33  2.5583773E-01
   7113.67  2.9120642E-01
   7114.00  3.0702218E-01
   7114.33  2.8331053E-01
   7114.67  2.3862049E-01
   7115.00  1.9375920E-01
   7115.33  1.6100829E-01
   7115.67  1.3908668E-01
   7116.00  1.2562631E-01
   7116.33  1.1885481E-01
   7116.67  1.1631686E-01
   7117.00  1.1712603E-01
   7117.33  1.2115308E-01
   7117.67  1.2799188E-01
   7118.00  1.3774383E-01
   7118.33  1.5052843E-01
   7118.67  1.6471573E-01
   7119.00  1.7842033E-01
   7119.33  1.8987136E-01
   7119.67  1.9861309E-01
   7120.00  2.0417283E-01
   7120.33  2.0787721E-01
   7120.67  2.1354528E-01
   7121.00  2.2353960E-01
   7121.33  2.3912119E-01
   7121.67  2.5926999E-01
   7122.00  2.8393200E-01
   7122.33  3.1372257E-01
   7122.67  3.4671655E-01
   7123.00  3.7989263E-01
   7123.33  4.0965964E-01
   7123.67  4.3694371E-01
   7124.00  4.6400090E-01
   7124.33  4.9192914E-01
   7124.67  5.1960720E-01
   7125.00  5.4588219E-01
   7125.33  5.6947621E-01
   7125.67  5.8949617E-01
   7126.00  6.0458864E-01
   7126.33  6.1346244E-01
   7126.67  6.1810437E-01
   7127.00  6.1986581E-01
   7127.33  6.1822423E-01
   7127.67  6.1188282E-01
   7128.00  5.9992625E-01
   7128.33  5.8338044E-01
   7128.67  5.6679639E-01
   7129.00  5.5368061E-01
   7129.33  5.4644225E-01
   7129.67  5.4329794E-01
   7130.00  5.4221148E-01
   7130.33  5.4142040E-01
   7130.67  5.4022514E-01
   7131.00  5.3865751E-01
   7131.33  5.3708760E-01
   7131.67  5.3593437E-01
   7132.00  5.3556498E-01
   7132.33  5.3682122E-01
   7132.67  5.4029004E-01
   7133.00  5.4622405E-01
   7133.33  5.5426809E-01
   7133.67  5.6290641E-01
   7134.00  5.7088926E-01
   7134.33  5.7660726E-01
   7134.67  5.7940008E-01
   7135.00  5.7928993E-01
   7135.33  5.7712107E-01
   7135.67  5.7456717E-01
   7136.00  5.7247355E-01
   7136.33  5.7124655E-01
   7136.67  5.7068561E-01
   7137.00  5.7065050E-01
   7137.33  5.7110566E-01
   7137.67  5.7195726E-01
   7138.00  5.7317068E-01
   7138.33  5.7474700E-01
   7138.67  5.7665877E-01
   7139.00  5.7899315E-01
   7139.33  5.8199938E-01
   7139.67  5.8577631E-01
   7140.00  5.9039282E-01
   7140.33  5.9585323E-01
   7140.67  6.0175186E-01
   7141.00  6.0764962E-01
   7141.33  6.1281423E-01
   7141.67  6.1664317E-01
   7142.00  6.1865556E-01
   7142.33  6.1830659E-01
   7142.67  6.1594547E-01
   7143.00  6.1190310E-01
   7143.33  6.0659441E-01
   7143.67  6.0075512E-01
   7144.00  5.9483862E-01
   7144.33  5.8929168E-01
   7144.67  5.8433562E-01
   7145.00  5.8009413E-01
   7145.33  5.7671925E-01
   7145.67  5.7411081E-01
   7146.00  5.7224431E-01
   7146.33  5.7117884E-01
   7146.67  5.7080519E-01
   7147.00  5.7111307E-01
   7147.33  5.7217201E-01
   7147.67  5.7386335E-01
   7148.00  5.7612910E-01
   7148.33  5.7892565E-01
   7148.67  5.8205651E-01
   7149.00  5.8538821E-01
   7149.33  5.8879251E-01
   7149.67  5.9216204E-01
   7150.00  5.9542913E-01
   7150.33  5.9850800E-01
   7150.67  6.0136541E-01
   7151.00  6.0395681E-01
   7151.33  6.0618351E-01
   7151.67  6.0801500E-01
   7152.00  6.0937874E-01
   7152.33  6.1010911E-01
   7152.67  6.1017688E-01
   7153.00  6.0949994E-01
   7153.33  6.0788811E-01
   7153.67  6.0537524E-01
   7154.00  6.0191927E-01
   7154.33  5.9737551E-01
   7154.67  5.9187090E-01
   7155.00  5.8543501E-01
   7155.33  5.7801991E-01
   7155.67  5.6982097E-01
   7156.00  5.6093001E-01
   7156.33  5.5139639E-01
   7156.67  5.4141852E-01
   7157.00  5.3110461E-01
   7157.33  5.2054998E-01
   7157.67  5.0989457E-01
   7158.00  4.9922243E-01
   7158.33  4.8862484E-01
   7158.67  4.7816157E-01
   7159.00  4.6788192E-01
   7159.33  4.5786426E-01
   7159.67  4.4812206E-01
   7160.00  4.3868834E-01
   7160.33  4.2963813E-01
   7160.67  4.2095281E-01
   7161.00  4.1264536E-01
   7161.33  4.0476545E-01
   7161.67  3.9725373E-01
   7162.00  3.9009171E-01
   7162.33  3.8329230E-01
   7162.67  3.7678656E-01
   7163.00  3.7055281E-01
   7163.33  3.6460715E-01
   7163.67  3.5891721E-01
   7164.00  3.5349543E-01
   7164.33  3.4840662E-01
   7164.67  3.4365352E-01
   7165.00  3.3927666E-01
   7165.33  3.3537763E-01
   7165.67  3.3194676E-01
   7166.00  3.2901306E-01
   7166.33  3.2666303E-01
   7166.67  3.2484050E-01
   7167.00  3.2354352E-01
   7167.33  3.2282418E-01
   7167.67  3.2259719E-01
   7168.00  3.2283902E-01
   7168.33  3.2357280E-01
   7168.67  3.2470924E-01
   7169.00  3.2621669E-01
   7169.33  3.2809761E-01
   7169.67  3.3026856E-01
   7170.00  3.3269026E-01
   7170.33  3.3533661E-01
   7170.67  3.3812173E-01
   7171.00  3.4097843E-01
   7171.33  3.4378832E-01
   7171.67  3.4637128E-01
   7172.00  3.4849535E-01
