    FDMNES
    energy     <xanes>
   7097.00  5.1707560E-03
   7097.33  5.2954950E-03
   7097.67  5.4260056E-03
   7098.00  5.5626838E-03
   7098.33  5.7068739E-03
   7098.67  5.8583095E-03
   7099.00  6.0175307E-03
   7099.33  6.1862999E-03
   7099.67  6.3643451E-03
   7100.00  6.5524231E-03
   7100.33  6.7529039E-03
   7100.67  6.9655375E-03
   7101.00  7.1914170E-03
   7101.33  7.4338285E-03
   7101.67  7.6926041E-03
   7102.00  7.9693817E-03
   7102.33  8.2688873E-03
   7102.67  8.5911692E-03
   7103.00  8.9387918E-03
   7103.33  9.3188634E-03
   7103.67  9.7319530E-03
   7104.00  1.0182299E-02
   7104.33  1.0681209E-02
   7104.67  1.1230501E-02
   7105.00  1.1837680E-02
   7105.33  1.2522073E-02
   7105.67  1.3288637E-02
   7106.00  1.4151907E-02
   7106.33  1.5148249E-02
   7106.67  1.6291246E-02
   7107.00  1.7612724E-02
   7107.33  1.9190956E-02
   7107.67  2.1066974E-02
   7108.00  2.3324039E-02
   7108.33  2.6168020E-02
   7108.67  2.9750256E-02
   7109.00  3.4357982E-02
   7109.33  4.0739273E-02
   7109.67  4.9691124E-02
   7110.00  6.2765753E-02
   7110.33  8.4457839E-02
   7110.67  1.2054821E-01
   7111.00  1.7765716E-01
   7111.33  2.4686101E-01
   7111.67  2.8834652E-01
   7112.00  3.0196506E-01
   7112.33  3.1371244E-01
   7112.67  3.2345124E-01
   7113.00  3.3646186E-01
   7113.33  3.7754070E-01
   7113.67  4.3247584E-01
   7114.00  4.4961316E-01
   7114.33  3.9738133E-01
   7114.67  3.3408438E-01
   7115.00  2.9214016E-01
   7115.33  2.8128772E-01
   7115.67  2.8680639E-01
   7116.00  2.9155501E-01
   7116.33  2.8052345E-01
   7116.67  2.5830902E-01
   7117.00  2.3334305E-01
   7117.33  2.1267288E-01
   7117.67  1.9732502E-01
   7118.00  1.8653305E-01
   7118.33  1.7942938E-01
   7118.67  1.7470914E-01
   7119.00  1.7157000E-01
   7119.33  1.6829700E-01
   7119.67  1.6295011E-01
   7120.00  1.5525018E-01
   7120.33  1.4731370E-01
   7120.67  1.4156588E-01
   7121.00  1.3856741E-01
   7121.33  1.3820899E-01
   7121.67  1.3974749E-01
   7122.00  1.4281114E-01
   7122.33  1.4685890E-01
   7122.67  1.5113099E-01
   7123.00  1.5542491E-01
   7123.33  1.5993364E-01
   7123.67  1.6483009E-01
   7124.00  1.7034906E-01
   7124.33  1.7761830E-01
   7124.67  1.8779991E-01
   7125.00  2.0168057E-01
   7125.33  2.2014251E-01
   7125.67  2.4263395E-01
   7126.00  2.6861385E-01
   7126.33  2.9679049E-01
   7126.67  3.2449557E-01
   7127.00  3.4975689E-01
   7127.33  3.7135514E-01
   7127.67  3.9074363E-01
   7128.00  4.0986671E-01
   7128.33  4.3095624E-01
   7128.67  4.5451314E-01
   7129.00  4.8083101E-01
   7129.33  5.1104174E-01
   7129.67  5.4589898E-01
   7130.00  5.8628863E-01
   7130.33  6.3236728E-01
   7130.67  6.8225785E-01
   7131.00  7.3557470E-01
   7131.33  7.9276731E-01
   7131.67  8.5314227E-01
   7132.00  9.1595455E-01
   7132.33  9.7972359E-01
   7132.67  1.0417951E+00
   7133.00  1.0985744E+00
   7133.33  1.1409468E+00
   7133.67  1.1592302E+00
   7134.00  1.1447249E+00
   7134.33  1.0922755E+00
   7134.67  1.0165303E+00
   7135.00  9.2995886E-01
   7135.33  8.4428399E-01
   7135.67  7.6577436E-01
   7136.00  6.9645518E-01
   7136.33  6.3754113E-01
   7136.67  5.8693833E-01
   7137.00  5.4376830E-01
   7137.33  5.0808407E-01
   7137.67  4.7858531E-01
   7138.00  4.5504849E-01
   7138.33  4.3798713E-01
   7138.67  4.2637337E-01
   7139.00  4.1977031E-01
   7139.33  4.1797163E-01
   7139.67  4.1950641E-01
   7140.00  4.2350349E-01
   7140.33  4.2919346E-01
   7140.67  4.3561300E-01
   7141.00  4.4229578E-01
   7141.33  4.4892533E-01
   7141.67  4.5539890E-01
   7142.00  4.6172726E-01
   7142.33  4.6796212E-01
   7142.67  4.7416463E-01
   7143.00  4.8033098E-01
   7143.33  4.8636197E-01
   7143.67  4.9209894E-01
   7144.00  4.9733582E-01
   7144.33  5.0171131E-01
   7144.67  5.0509085E-01
   7145.00  5.0736025E-01
   7145.33  5.0839548E-01
   7145.67  5.0852501E-01
   7146.00  5.0804109E-01
   7146.33  5.0731158E-01
   7146.67  5.0674816E-01
   7147.00  5.0663407E-01
   7147.33  5.0729713E-01
   7147.67  5.0879101E-01
   7148.00  5.1116875E-01
   7148.33  5.1455703E-01
   7148.67  5.1884670E-01
   7149.00  5.2406383E-01
   7149.33  5.3037879E-01
   7149.67  5.3770145E-01
   7150.00  5.4602830E-01
   7150.33  5.5540341E-01
   7150.67  5.6553408E-01
   7151.00  5.7617645E-01
   7151.33  5.8698619E-01
   7151.67  5.9756613E-01
   7152.00  6.0763279E-01
   7152.33  6.1684998E-01
   7152.67  6.2517554E-01
   7153.00  6.3256468E-01
   7153.33  6.3891025E-01
   7153.67  6.4437897E-01
   7154.00  6.4903086E-01
   7154.33  6.5284795E-01
   7154.67  6.5599351E-01
   7155.00  6.5852022E-01
   7155.33  6.6040741E-01
   7155.67  6.6176379E-01
   7156.00  6.6261180E-01
   7156.33  6.6290668E-01
   7156.67  6.6271919E-01
   7157.00  6.6205355E-01
   7157.33  6.6085316E-01
   7157.67  6.5918036E-01
   7158.00  6.5703841E-01
   7158.33  6.5437379E-01
   7158.67  6.5125028E-01
   7159.00  6.4767464E-01
   7159.33  6.4360189E-01
   7159.67  6.3910022E-01
   7160.00  6.3418633E-01
   7160.33  6.2884028E-01
   7160.67  6.2314695E-01
   7161.00  6.1714568E-01
   7161.33  6.1085946E-01
   7161.67  6.0438102E-01
   7162.00  5.9776429E-01
   7162.33  5.9105908E-01
   7162.67  5.8432676E-01
   7163.00  5.7760361E-01
   7163.33  5.7092642E-01
   7163.67  5.6430890E-01
   7164.00  5.5775683E-01
   7164.33  5.5127348E-01
   7164.67  5.4483708E-01
   7165.00  5.3843074E-01
   7165.33  5.3203357E-01
   7165.67  5.2562174E-01
   7166.00  5.1917998E-01
   7166.33  5.1269426E-01
   7166.67  5.0616760E-01
   7167.00  4.9960368E-01
   7167.33  4.9300947E-01
   7167.67  4.8640512E-01
   7168.00  4.7980956E-01
   7168.33  4.7325403E-01
   7168.67  4.6676703E-01
   7169.00  4.6038380E-01
   7169.33  4.5416701E-01
   7169.67  4.4813919E-01
   7170.00  4.4233563E-01
   7170.33  4.3683524E-01
   7170.67  4.3165544E-01
   7171.00  4.2684718E-01
   7171.33  4.2254661E-01
   7171.67  4.1882460E-01
   7172.00  4.1583540E-01
