    FDMNES
    energy     <xanes>
   7097.00  4.4021493E-03
   7097.33  4.4911912E-03
   7097.67  4.5836474E-03
   7098.00  4.6797204E-03
   7098.33  4.7801534E-03
   7098.67  4.8847484E-03
   7099.00  4.9937755E-03
   7099.33  5.1081808E-03
   7099.67  5.2277561E-03
   7100.00  5.3528724E-03
   7100.33  5.4847664E-03
   7100.67  5.6232317E-03
   7101.00  5.7687956E-03
   7101.33  5.9231286E-03
   7101.67  6.0860548E-03
   7102.00  6.2583554E-03
   7102.33  6.4423806E-03
   7102.67  6.6380509E-03
   7103.00  6.8465846E-03
   7103.33  7.0714633E-03
   7103.67  7.3128595E-03
   7104.00  7.5727986E-03
   7104.33  7.8567907E-03
   7104.67  8.1656493E-03
   7105.00  8.5030276E-03
   7105.33  8.8784354E-03
   7105.67  9.2943854E-03
   7106.00  9.7582110E-03
   7106.33  1.0288353E-02
   7106.67  1.0892296E-02
   7107.00  1.1587072E-02
   7107.33  1.2414765E-02
   7107.67  1.3400026E-02
   7108.00  1.4591621E-02
   7108.33  1.6111728E-02
   7108.67  1.8062175E-02
   7109.00  2.0635623E-02
   7109.33  2.4350529E-02
   7109.67  2.9834685E-02
   7110.00  3.8334473E-02
   7110.33  5.3484479E-02
   7110.67  7.8900140E-02
   7111.00  1.1263606E-01
   7111.33  1.3054010E-01
   7111.67  1.2634101E-01
   7112.00  1.1547755E-01
   7112.33  1.1277644E-01
   7112.67  1.2302294E-01
   7113.00  1.4260954E-01
   7113.33  1.4845710E-01
   7113.67  1.2765311E-01
   7114.00  9.8461156E-02
   7114.33  7.7913683E-02
   7114.67  6.5171715E-02
   7115.00  5.7983230E-02
   7115.33  5.4965731E-02
   7115.67  5.4571276E-02
   7116.00  5.6308880E-02
   7116.33  6.0252160E-02
   7116.67  6.6326130E-02
   7117.00  7.4820436E-02
   7117.33  8.6018713E-02
   7117.67  9.8288359E-02
   7118.00  1.0971715E-01
   7118.33  1.1955957E-01
   7118.67  1.2968581E-01
   7119.00  1.4177979E-01
   7119.33  1.5758628E-01
   7119.67  1.7749982E-01
   7120.00  2.0175801E-01
   7120.33  2.3047941E-01
   7120.67  2.6231702E-01
   7121.00  2.9648979E-01
   7121.33  3.3219892E-01
   7121.67  3.6749320E-01
   7122.00  3.9950139E-01
   7122.33  4.2258973E-01
   7122.67  4.3400788E-01
   7123.00  4.3388004E-01
   7123.33  4.2702754E-01
   7123.67  4.2301492E-01
   7124.00  4.2690658E-01
   7124.33  4.3461142E-01
   7124.67  4.3442837E-01
   7125.00  4.2741408E-01
   7125.33  4.2477787E-01
   7125.67  4.3203848E-01
   7126.00  4.4955189E-01
   7126.33  4.7530726E-01
   7126.67  5.0440046E-01
   7127.00  5.3489903E-01
   7127.33  5.6625520E-01
   7127.67  5.9742238E-01
   7128.00  6.2730966E-01
   7128.33  6.5474795E-01
   7128.67  6.7782058E-01
   7129.00  6.9400059E-01
   7129.33  7.0301513E-01
   7129.67  7.0903352E-01
   7130.00  7.1379733E-01
   7130.33  7.1687789E-01
   7130.67  7.1755579E-01
   7131.00  7.1572925E-01
   7131.33  7.1217565E-01
   7131.67  7.0868056E-01
   7132.00  7.0657300E-01
   7132.33  7.0765235E-01
   7132.67  7.1315296E-01
   7133.00  7.2435560E-01
   7133.33  7.4264449E-01
   7133.67  7.6581205E-01
   7134.00  7.9035320E-01
   7134.33  8.0947458E-01
   7134.67  8.1834553E-01
   7135.00  8.1565208E-01
   7135.33  8.0248670E-01
   7135.67  7.8310914E-01
   7136.00  7.5945516E-01
   7136.33  7.3341007E-01
   7136.67  7.0765835E-01
   7137.00  6.8403517E-01
   7137.33  6.6430639E-01
   7137.67  6.4837740E-01
   7138.00  6.3581977E-01
   7138.33  6.2579608E-01
   7138.67  6.1660776E-01
   7139.00  6.0714261E-01
   7139.33  5.9641566E-01
   7139.67  5.8433857E-01
   7140.00  5.7113661E-01
   7140.33  5.5725850E-01
   7140.67  5.4334100E-01
   7141.00  5.2976667E-01
   7141.33  5.1688898E-01
   7141.67  5.0474777E-01
   7142.00  4.9336419E-01
   7142.33  4.8282465E-01
   7142.67  4.7303915E-01
   7143.00  4.6403546E-01
   7143.33  4.5597028E-01
   7143.67  4.4878879E-01
   7144.00  4.4251153E-01
   7144.33  4.3723602E-01
   7144.67  4.3279917E-01
   7145.00  4.2913619E-01
   7145.33  4.2624956E-01
   7145.67  4.2397789E-01
   7146.00  4.2228475E-01
   7146.33  4.2124684E-01
   7146.67  4.2082208E-01
   7147.00  4.2104095E-01
   7147.33  4.2201473E-01
   7147.67  4.2366632E-01
   7148.00  4.2597716E-01
   7148.33  4.2896780E-01
   7148.67  4.3247389E-01
   7149.00  4.3639916E-01
   7149.33  4.4065470E-01
   7149.67  4.4507223E-01
   7150.00  4.4953743E-01
   7150.33  4.5391156E-01
   7150.67  4.5808280E-01
   7151.00  4.6195071E-01
   7151.33  4.6534405E-01
   7151.67  4.6817628E-01
   7152.00  4.7029642E-01
   7152.33  4.7136732E-01
   7152.67  4.7125317E-01
   7153.00  4.6973848E-01
   7153.33  4.6643323E-01
   7153.67  4.6148731E-01
   7154.00  4.5499576E-01
   7154.33  4.4704826E-01
   7154.67  4.3816357E-01
   7155.00  4.2867515E-01
   7155.33  4.1891162E-01
   7155.67  4.0919452E-01
   7156.00  3.9970867E-01
   7156.33  3.9064742E-01
   7156.67  3.8205357E-01
   7157.00  3.7397606E-01
   7157.33  3.6652382E-01
   7157.67  3.5966004E-01
   7158.00  3.5341204E-01
   7158.33  3.4789235E-01
   7158.67  3.4305109E-01
   7159.00  3.3891220E-01
   7159.33  3.3558680E-01
   7159.67  3.3299472E-01
   7160.00  3.3113394E-01
   7160.33  3.3007634E-01
   7160.67  3.2969905E-01
   7161.00  3.2996143E-01
   7161.33  3.3087716E-01
   7161.67  3.3230603E-01
   7162.00  3.3418710E-01
   7162.33  3.3649989E-01
   7162.67  3.3913685E-01
   7163.00  3.4205858E-01
   7163.33  3.4526374E-01
   7163.67  3.4869669E-01
   7164.00  3.5234353E-01
   7164.33  3.5622085E-01
   7164.67  3.6029848E-01
   7165.00  3.6457340E-01
   7165.33  3.6906578E-01
   7165.67  3.7374510E-01
   7166.00  3.7860286E-01
   7166.33  3.8364604E-01
   7166.67  3.8883593E-01
   7167.00  3.9415296E-01
   7167.33  3.9958434E-01
   7167.67  4.0509065E-01
   7168.00  4.1064790E-01
   7168.33  4.1623055E-01
   7168.67  4.2180709E-01
   7169.00  4.2735278E-01
   7169.33  4.3283206E-01
   7169.67  4.3822394E-01
   7170.00  4.4350263E-01
   7170.33  4.4861598E-01
   7170.67  4.5353810E-01
   7171.00  4.5821508E-01
   7171.33  4.6250727E-01
   7171.67  4.6629116E-01
   7172.00  4.6935773E-01
