    FDMNES
    energy     <xanes>
   7097.00  4.3637716E-03
   7097.33  4.4556396E-03
   7097.67  4.5512713E-03
   7098.00  4.6509072E-03
   7098.33  4.7553962E-03
   7098.67  4.8645436E-03
   7099.00  4.9786763E-03
   7099.33  5.0988946E-03
   7099.67  5.2249993E-03
   7100.00  5.3574473E-03
   7100.33  5.4977059E-03
   7100.67  5.6455889E-03
   7101.00  5.8017574E-03
   7101.33  5.9682348E-03
   7101.67  6.1448883E-03
   7102.00  6.3327142E-03
   7102.33  6.5346192E-03
   7102.67  6.7506147E-03
   7103.00  6.9822768E-03
   7103.33  7.2339977E-03
   7103.67  7.5061416E-03
   7104.00  7.8013569E-03
   7104.33  8.1267113E-03
   7104.67  8.4834318E-03
   7105.00  8.8763165E-03
   7105.33  9.3176889E-03
   7105.67  9.8109899E-03
   7106.00  1.0365798E-02
   7106.33  1.1005989E-02
   7106.67  1.1741244E-02
   7107.00  1.2593342E-02
   7107.33  1.3615727E-02
   7107.67  1.4838511E-02
   7108.00  1.6321260E-02
   7108.33  1.8211495E-02
   7108.67  2.0624106E-02
   7109.00  2.3774958E-02
   7109.33  2.8230134E-02
   7109.67  3.4617730E-02
   7110.00  4.4160916E-02
   7110.33  6.0395448E-02
   7110.67  8.7588463E-02
   7111.00  1.2935707E-01
   7111.33  1.7924331E-01
   7111.67  2.1657339E-01
   7112.00  2.3109368E-01
   7112.33  2.2876084E-01
   7112.67  2.1448688E-01
   7113.00  1.8520474E-01
   7113.33  1.5245877E-01
   7113.67  1.2705535E-01
   7114.00  1.0889538E-01
   7114.33  9.3794782E-02
   7114.67  8.1079614E-02
   7115.00  7.2206266E-02
   7115.33  6.6804122E-02
   7115.67  6.3122653E-02
   7116.00  6.0818139E-02
   7116.33  6.0125098E-02
   7116.67  6.0756539E-02
   7117.00  6.2550427E-02
   7117.33  6.5435266E-02
   7117.67  6.9060904E-02
   7118.00  7.3290500E-02
   7118.33  7.8322987E-02
   7118.67  8.4425296E-02
   7119.00  9.1938413E-02
   7119.33  1.0140628E-01
   7119.67  1.1283900E-01
   7120.00  1.2637305E-01
   7120.33  1.4239504E-01
   7120.67  1.6067822E-01
   7121.00  1.8123889E-01
   7121.33  2.0441856E-01
   7121.67  2.2991059E-01
   7122.00  2.5739692E-01
   7122.33  2.8608173E-01
   7122.67  3.1451864E-01
   7123.00  3.4172124E-01
   7123.33  3.6694278E-01
   7123.67  3.9032863E-01
   7124.00  4.1153920E-01
   7124.33  4.2951052E-01
   7124.67  4.4419203E-01
   7125.00  4.5483580E-01
   7125.33  4.6062159E-01
   7125.67  4.6437036E-01
   7126.00  4.6798682E-01
   7126.33  4.7157200E-01
   7126.67  4.7429822E-01
   7127.00  4.7628818E-01
   7127.33  4.7916700E-01
   7127.67  4.8450946E-01
   7128.00  4.9261101E-01
   7128.33  5.0244780E-01
   7128.67  5.1218858E-01
   7129.00  5.2122413E-01
   7129.33  5.2985240E-01
   7129.67  5.3863266E-01
   7130.00  5.4759708E-01
   7130.33  5.5655721E-01
   7130.67  5.6563899E-01
   7131.00  5.7525887E-01
   7131.33  5.8608002E-01
   7131.67  5.9845292E-01
   7132.00  6.1283742E-01
   7132.33  6.2990692E-01
   7132.67  6.4910010E-01
   7133.00  6.6966319E-01
   7133.33  6.9048736E-01
   7133.67  7.1030611E-01
   7134.00  7.2817028E-01
   7134.33  7.4310273E-01
   7134.67  7.5505750E-01
   7135.00  7.6350647E-01
   7135.33  7.6713180E-01
   7135.67  7.6623166E-01
   7136.00  7.6129146E-01
   7136.33  7.5296827E-01
   7136.67  7.4275229E-01
   7137.00  7.3147231E-01
   7137.33  7.1982969E-01
   7137.67  7.0837358E-01
   7138.00  6.9738403E-01
   7138.33  6.8711122E-01
   7138.67  6.7750933E-01
   7139.00  6.6854018E-01
   7139.33  6.6018802E-01
   7139.67  6.5228496E-01
   7140.00  6.4475453E-01
   7140.33  6.3757772E-01
   7140.67  6.3070541E-01
   7141.00  6.2417186E-01
   7141.33  6.1811021E-01
   7141.67  6.1257253E-01
   7142.00  6.0764796E-01
   7142.33  6.0350500E-01
   7142.67  6.0010160E-01
   7143.00  5.9744450E-01
   7143.33  5.9560034E-01
   7143.67  5.9443205E-01
   7144.00  5.9388991E-01
   7144.33  5.9398298E-01
   7144.67  5.9457934E-01
   7145.00  5.9562754E-01
   7145.33  5.9711897E-01
   7145.67  5.9894685E-01
   7146.00  6.0105759E-01
   7146.33  6.0340408E-01
   7146.67  6.0586827E-01
   7147.00  6.0835349E-01
   7147.33  6.1071932E-01
   7147.67  6.1284476E-01
   7148.00  6.1461693E-01
   7148.33  6.1585448E-01
   7148.67  6.1651707E-01
   7149.00  6.1654881E-01
   7149.33  6.1583702E-01
   7149.67  6.1446736E-01
   7150.00  6.1246374E-01
   7150.33  6.0979208E-01
   7150.67  6.0657285E-01
   7151.00  6.0284697E-01
   7151.33  5.9859462E-01
   7151.67  5.9389660E-01
   7152.00  5.8875900E-01
   7152.33  5.8312077E-01
   7152.67  5.7702462E-01
   7153.00  5.7045651E-01
   7153.33  5.6333912E-01
   7153.67  5.5572734E-01
   7154.00  5.4763112E-01
   7154.33  5.3901654E-01
   7154.67  5.2997838E-01
   7155.00  5.2056326E-01
   7155.33  5.1080443E-01
   7155.67  5.0082708E-01
   7156.00  4.9071470E-01
   7156.33  4.8056578E-01
   7156.67  4.7048907E-01
   7157.00  4.6057345E-01
   7157.33  4.5094893E-01
   7157.67  4.4167098E-01
   7158.00  4.3280469E-01
   7158.33  4.2446862E-01
   7158.67  4.1664382E-01
   7159.00  4.0934765E-01
   7159.33  4.0264554E-01
   7159.67  3.9645236E-01
   7160.00  3.9074223E-01
   7160.33  3.8553753E-01
   7160.67  3.8075398E-01
   7161.00  3.7637983E-01
   7161.33  3.7247308E-01
   7161.67  3.6900867E-01
   7162.00  3.6602197E-01
   7162.33  3.6362192E-01
   7162.67  3.6177582E-01
   7163.00  3.6049953E-01
   7163.33  3.5986213E-01
   7163.67  3.5976239E-01
   7164.00  3.6015422E-01
   7164.33  3.6101731E-01
   7164.67  3.6221223E-01
   7165.00  3.6365944E-01
   7165.33  3.6529021E-01
   7165.67  3.6700712E-01
   7166.00  3.6875867E-01
   7166.33  3.7050531E-01
   7166.67  3.7223222E-01
   7167.00  3.7394312E-01
   7167.33  3.7565714E-01
   7167.67  3.7740135E-01
   7168.00  3.7920121E-01
   7168.33  3.8109389E-01
   7168.67  3.8308847E-01
   7169.00  3.8519312E-01
   7169.33  3.8741974E-01
   7169.67  3.8974093E-01
   7170.00  3.9213603E-01
   7170.33  3.9457708E-01
   7170.67  3.9701553E-01
   7171.00  3.9940327E-01
   7171.33  4.0164776E-01
   7171.67  4.0364879E-01
   7172.00  4.0526980E-01
