    FDMNES
    energy     <xanes>
   7097.00  4.3948365E-03
   7097.33  4.4881245E-03
   7097.67  4.5852688E-03
   7098.00  4.6865178E-03
   7098.33  4.7927441E-03
   7098.67  4.9037504E-03
   7099.00  5.0198748E-03
   7099.33  5.1422502E-03
   7099.67  5.2706752E-03
   7100.00  5.4056228E-03
   7100.33  5.5486062E-03
   7100.67  5.6994386E-03
   7101.00  5.8588051E-03
   7101.33  6.0287961E-03
   7101.67  6.2092813E-03
   7102.00  6.4012942E-03
   7102.33  6.6078435E-03
   7102.67  6.8289500E-03
   7103.00  7.0662514E-03
   7103.33  7.3243012E-03
   7103.67  7.6034901E-03
   7104.00  7.9065730E-03
   7104.33  8.2408903E-03
   7104.67  8.6077352E-03
   7105.00  9.0121049E-03
   7105.33  9.4668202E-03
   7105.67  9.9754900E-03
   7106.00  1.0548102E-02
   7106.33  1.1209540E-02
   7106.67  1.1969940E-02
   7107.00  1.2852046E-02
   7107.33  1.3911648E-02
   7107.67  1.5180283E-02
   7108.00  1.6720257E-02
   7108.33  1.8685880E-02
   7108.67  2.1197633E-02
   7109.00  2.4481833E-02
   7109.33  2.9132313E-02
   7109.67  3.5809596E-02
   7110.00  4.5800119E-02
   7110.33  6.2814900E-02
   7110.67  9.1237390E-02
   7111.00  1.3451367E-01
   7111.33  1.8650791E-01
   7111.67  2.2717808E-01
   7112.00  2.4228539E-01
   7112.33  2.3672043E-01
   7112.67  2.2074031E-01
   7113.00  1.8974030E-01
   7113.33  1.5505296E-01
   7113.67  1.2960451E-01
   7114.00  1.1227134E-01
   7114.33  9.7023970E-02
   7114.67  8.3665250E-02
   7115.00  7.4069093E-02
   7115.33  6.8136822E-02
   7115.67  6.4281111E-02
   7116.00  6.2024525E-02
   7116.33  6.1395000E-02
   7116.67  6.2140772E-02
   7117.00  6.4212647E-02
   7117.33  6.7677617E-02
   7117.67  7.2106113E-02
   7118.00  7.7106575E-02
   7118.33  8.2654155E-02
   7118.67  8.9211483E-02
   7119.00  9.7251120E-02
   7119.33  1.0728755E-01
   7119.67  1.1921103E-01
   7120.00  1.3306048E-01
   7120.33  1.4910966E-01
   7120.67  1.6715078E-01
   7121.00  1.8722625E-01
   7121.33  2.0962830E-01
   7121.67  2.3399724E-01
   7122.00  2.5998251E-01
   7122.33  2.8686390E-01
   7122.67  3.1348903E-01
   7123.00  3.3913459E-01
   7123.33  3.6308145E-01
   7123.67  3.8496574E-01
   7124.00  4.0440342E-01
   7124.33  4.2146225E-01
   7124.67  4.3724446E-01
   7125.00  4.5134605E-01
   7125.33  4.6114085E-01
   7125.67  4.6711491E-01
   7126.00  4.7132408E-01
   7126.33  4.7516806E-01
   7126.67  4.7881684E-01
   7127.00  4.8237562E-01
   7127.33  4.8677668E-01
   7127.67  4.9293162E-01
   7128.00  5.0094500E-01
   7128.33  5.1003346E-01
   7128.67  5.1888496E-01
   7129.00  5.2696167E-01
   7129.33  5.3445229E-01
   7129.67  5.4209433E-01
   7130.00  5.5012276E-01
   7130.33  5.5825890E-01
   7130.67  5.6625438E-01
   7131.00  5.7447524E-01
   7131.33  5.8407909E-01
   7131.67  5.9592683E-01
   7132.00  6.1053679E-01
   7132.33  6.2823996E-01
   7132.67  6.4787023E-01
   7133.00  6.6818914E-01
   7133.33  6.8746397E-01
   7133.67  7.0450825E-01
   7134.00  7.1874698E-01
   7134.33  7.2972464E-01
   7134.67  7.3782076E-01
   7135.00  7.4281231E-01
   7135.33  7.4399301E-01
   7135.67  7.4204235E-01
   7136.00  7.3767349E-01
   7136.33  7.3170825E-01
   7136.67  7.2513238E-01
   7137.00  7.1837783E-01
   7137.33  7.1168552E-01
   7137.67  7.0508758E-01
   7138.00  6.9853249E-01
   7138.33  6.9190535E-01
   7138.67  6.8509286E-01
   7139.00  6.7801078E-01
   7139.33  6.7056863E-01
   7139.67  6.6282006E-01
   7140.00  6.5483260E-01
   7140.33  6.4673351E-01
   7140.67  6.3872590E-01
   7141.00  6.3099464E-01
   7141.33  6.2380804E-01
   7141.67  6.1727153E-01
   7142.00  6.1147424E-01
   7142.33  6.0654735E-01
   7142.67  6.0236717E-01
   7143.00  5.9888228E-01
   7143.33  5.9610544E-01
   7143.67  5.9390647E-01
   7144.00  5.9225996E-01
   7144.33  5.9122270E-01
   7144.67  5.9072587E-01
   7145.00  5.9076573E-01
   7145.33  5.9139350E-01
   7145.67  5.9252467E-01
   7146.00  5.9414054E-01
   7146.33  5.9626747E-01
   7146.67  5.9880353E-01
   7147.00  6.0169663E-01
   7147.33  6.0489574E-01
   7147.67  6.0824959E-01
   7148.00  6.1162708E-01
   7148.33  6.1481509E-01
   7148.67  6.1760450E-01
   7149.00  6.1977958E-01
   7149.33  6.2098987E-01
   7149.67  6.2113579E-01
   7150.00  6.2008870E-01
   7150.33  6.1762208E-01
   7150.67  6.1391769E-01
   7151.00  6.0906231E-01
   7151.33  6.0308455E-01
   7151.67  5.9628846E-01
   7152.00  5.8882542E-01
   7152.33  5.8078659E-01
   7152.67  5.7236430E-01
   7153.00  5.6364488E-01
   7153.33  5.5467208E-01
   7153.67  5.4552193E-01
   7154.00  5.3622369E-01
   7154.33  5.2679046E-01
   7154.67  5.1726507E-01
   7155.00  5.0767253E-01
   7155.33  4.9804115E-01
   7155.67  4.8841626E-01
   7156.00  4.7884040E-01
   7156.33  4.6938283E-01
   7156.67  4.6009210E-01
   7157.00  4.5102391E-01
   7157.33  4.4227754E-01
   7157.67  4.3387554E-01
   7158.00  4.2586152E-01
   7158.33  4.1832947E-01
   7158.67  4.1125560E-01
   7159.00  4.0465896E-01
   7159.33  3.9861853E-01
   7159.67  3.9308845E-01
   7160.00  3.8808376E-01
   7160.33  3.8369005E-01
   7160.67  3.7985407E-01
   7161.00  3.7658502E-01
   7161.33  3.7396107E-01
   7161.67  3.7191341E-01
   7162.00  3.7044255E-01
   7162.33  3.6961357E-01
   7162.67  3.6933817E-01
   7163.00  3.6959174E-01
   7163.33  3.7038872E-01
   7163.67  3.7160556E-01
   7164.00  3.7317217E-01
   7164.33  3.7502082E-01
   7164.67  3.7700992E-01
   7165.00  3.7904473E-01
   7165.33  3.8102054E-01
   7165.67  3.8286936E-01
   7166.00  3.8455116E-01
   7166.33  3.8602617E-01
   7166.67  3.8733010E-01
   7167.00  3.8849215E-01
   7167.33  3.8954679E-01
   7167.67  3.9055617E-01
   7168.00  3.9156046E-01
   7168.33  3.9260223E-01
   7168.67  3.9370329E-01
   7169.00  3.9487490E-01
   7169.33  3.9612709E-01
   7169.67  3.9744083E-01
   7170.00  3.9880068E-01
   7170.33  4.0018627E-01
   7170.67  4.0156687E-01
   7171.00  4.0291388E-01
   7171.33  4.0417471E-01
   7171.67  4.0529535E-01
   7172.00  4.0620093E-01
