    FDMNES
    energy     <xanes>
   7097.00  4.3138320E-03
   7097.33  4.4037218E-03
   7097.67  4.4971933E-03
   7098.00  4.5944678E-03
   7098.33  4.6963396E-03
   7098.67  4.8026121E-03
   7099.00  4.9135830E-03
   7099.33  5.0302720E-03
   7099.67  5.1524744E-03
   7100.00  5.2806016E-03
   7100.33  5.4159985E-03
   7100.67  5.5584658E-03
   7101.00  5.7085914E-03
   7101.33  5.8682067E-03
   7101.67  6.0371498E-03
   7102.00  6.2162948E-03
   7102.33  6.4082357E-03
   7102.67  6.6129197E-03
   7103.00  6.8317099E-03
   7103.33  7.0684636E-03
   7103.67  7.3234038E-03
   7104.00  7.5987852E-03
   7104.33  7.9007060E-03
   7104.67  8.2300699E-03
   7105.00  8.5908950E-03
   7105.33  8.9936123E-03
   7105.67  9.4408765E-03
   7106.00  9.9405746E-03
   7106.33  1.0512520E-02
   7106.67  1.1164296E-02
   7107.00  1.1913556E-02
   7107.33  1.2803827E-02
   7107.67  1.3858850E-02
   7108.00  1.5126367E-02
   7108.33  1.6725003E-02
   7108.67  1.8746234E-02
   7109.00  2.1363437E-02
   7109.33  2.5034121E-02
   7109.67  3.0272609E-02
   7110.00  3.8087746E-02
   7110.33  5.1375294E-02
   7110.67  7.3136320E-02
   7111.00  1.0370615E-01
   7111.33  1.3306871E-01
   7111.67  1.5395645E-01
   7112.00  1.6754709E-01
   7112.33  1.7984803E-01
   7112.67  2.0223927E-01
   7113.00  2.2145827E-01
   7113.33  2.0320519E-01
   7113.67  1.6588324E-01
   7114.00  1.3043696E-01
   7114.33  1.0367162E-01
   7114.67  8.5450568E-02
   7115.00  7.4423383E-02
   7115.33  6.8419037E-02
   7115.67  6.4827772E-02
   7116.00  6.3030889E-02
   7116.33  6.3355616E-02
   7116.67  6.5652766E-02
   7117.00  6.9955187E-02
   7117.33  7.6598878E-02
   7117.67  8.5261657E-02
   7118.00  9.5688733E-02
   7118.33  1.0788176E-01
   7118.67  1.2174411E-01
   7119.00  1.3722435E-01
   7119.33  1.5372797E-01
   7119.67  1.6975487E-01
   7120.00  1.8400233E-01
   7120.33  1.9511363E-01
   7120.67  2.0336104E-01
   7121.00  2.0943134E-01
   7121.33  2.1462260E-01
   7121.67  2.2063599E-01
   7122.00  2.2866613E-01
   7122.33  2.4004683E-01
   7122.67  2.5490489E-01
   7123.00  2.7325634E-01
   7123.33  2.9476546E-01
   7123.67  3.1802046E-01
   7124.00  3.4313017E-01
   7124.33  3.7216783E-01
   7124.67  4.0565173E-01
   7125.00  4.4198533E-01
   7125.33  4.7654127E-01
   7125.67  5.0681238E-01
   7126.00  5.3224645E-01
   7126.33  5.4980758E-01
   7126.67  5.5783835E-01
   7127.00  5.5669502E-01
   7127.33  5.4901319E-01
   7127.67  5.3908667E-01
   7128.00  5.2859268E-01
   7128.33  5.1825957E-01
   7128.67  5.0860026E-01
   7129.00  5.0046438E-01
   7129.33  4.9549891E-01
   7129.67  4.9429268E-01
   7130.00  4.9696993E-01
   7130.33  5.0351302E-01
   7130.67  5.1301571E-01
   7131.00  5.2529477E-01
   7131.33  5.4058273E-01
   7131.67  5.5846831E-01
   7132.00  5.7905943E-01
   7132.33  6.0307431E-01
   7132.67  6.3027914E-01
   7133.00  6.6052035E-01
   7133.33  6.9388844E-01
   7133.67  7.2968765E-01
   7134.00  7.6733414E-01
   7134.33  8.0548138E-01
   7134.67  8.4147380E-01
   7135.00  8.7213401E-01
   7135.33  8.9257991E-01
   7135.67  9.0176030E-01
   7136.00  8.9951271E-01
   7136.33  8.8587347E-01
   7136.67  8.6436301E-01
   7137.00  8.3726339E-01
   7137.33  8.0682555E-01
   7137.67  7.7563483E-01
   7138.00  7.4514730E-01
   7138.33  7.1677548E-01
   7138.67  6.9096433E-01
   7139.00  6.6798349E-01
   7139.33  6.4825260E-01
   7139.67  6.3129802E-01
   7140.00  6.1695148E-01
   7140.33  6.0528053E-01
   7140.67  5.9575427E-01
   7141.00  5.8818161E-01
   7141.33  5.8256839E-01
   7141.67  5.7849021E-01
   7142.00  5.7576683E-01
   7142.33  5.7431897E-01
   7142.67  5.7377160E-01
   7143.00  5.7392011E-01
   7143.33  5.7459136E-01
   7143.67  5.7551985E-01
   7144.00  5.7655779E-01
   7144.33  5.7757320E-01
   7144.67  5.7848684E-01
   7145.00  5.7926419E-01
   7145.33  5.7988158E-01
   7145.67  5.8037708E-01
   7146.00  5.8077980E-01
   7146.33  5.8111774E-01
   7146.67  5.8141877E-01
   7147.00  5.8168181E-01
   7147.33  5.8187240E-01
   7147.67  5.8194872E-01
   7148.00  5.8185867E-01
   7148.33  5.8151154E-01
   7148.67  5.8088003E-01
   7149.00  5.7992883E-01
   7149.33  5.7860183E-01
   7149.67  5.7695126E-01
   7150.00  5.7500061E-01
   7150.33  5.7275363E-01
   7150.67  5.7027827E-01
   7151.00  5.6759752E-01
   7151.33  5.6469986E-01
   7151.67  5.6160235E-01
   7152.00  5.5827989E-01
   7152.33  5.5464538E-01
   7152.67  5.5066322E-01
   7153.00  5.4626704E-01
   7153.33  5.4132224E-01
   7153.67  5.3583374E-01
   7154.00  5.2977452E-01
   7154.33  5.2306135E-01
   7154.67  5.1578285E-01
   7155.00  5.0797441E-01
   7155.33  4.9963976E-01
   7155.67  4.9092046E-01
   7156.00  4.8190215E-01
   7156.33  4.7267355E-01
   7156.67  4.6337910E-01
   7157.00  4.5412534E-01
   7157.33  4.4505274E-01
   7157.67  4.3625084E-01
   7158.00  4.2779949E-01
   7158.33  4.1982160E-01
   7158.67  4.1230752E-01
   7159.00  4.0527243E-01
   7159.33  3.9877420E-01
   7159.67  3.9274217E-01
   7160.00  3.8716897E-01
   7160.33  3.8211411E-01
   7160.67  3.7753697E-01
   7161.00  3.7346384E-01
   7161.33  3.7000229E-01
   7161.67  3.6712195E-01
   7162.00  3.6484494E-01
   7162.33  3.6325217E-01
   7162.67  3.6224094E-01
   7163.00  3.6176684E-01
   7163.33  3.6181839E-01
   7163.67  3.6225055E-01
   7164.00  3.6298079E-01
   7164.33  3.6393487E-01
   7164.67  3.6499228E-01
   7165.00  3.6607836E-01
   7165.33  3.6711281E-01
   7165.67  3.6804386E-01
   7166.00  3.6883851E-01
   7166.33  3.6946001E-01
   7166.67  3.6993206E-01
   7167.00  3.7027453E-01
   7167.33  3.7051497E-01
   7167.67  3.7071574E-01
   7168.00  3.7092573E-01
   7168.33  3.7121008E-01
   7168.67  3.7161144E-01
   7169.00  3.7216528E-01
   7169.33  3.7292322E-01
   7169.67  3.7387643E-01
   7170.00  3.7502411E-01
   7170.33  3.7637264E-01
   7170.67  3.7786711E-01
   7171.00  3.7946398E-01
   7171.33  3.8108903E-01
   7171.67  3.8261405E-01
   7172.00  3.8388590E-01
