    FDMNES
    energy     <xanes>
   7097.00  4.4243701E-03
   7097.33  4.5178259E-03
   7097.67  4.6150690E-03
   7098.00  4.7163368E-03
   7098.33  4.8224751E-03
   7098.67  4.9332808E-03
   7099.00  5.0490742E-03
   7099.33  5.1709455E-03
   7099.67  5.2986841E-03
   7100.00  5.4327349E-03
   7100.33  5.5745414E-03
   7100.67  5.7239018E-03
   7101.00  5.8814548E-03
   7101.33  6.0491758E-03
   7101.67  6.2269081E-03
   7102.00  6.4156067E-03
   7102.33  6.6180860E-03
   7102.67  6.8343170E-03
   7103.00  7.0657988E-03
   7103.33  7.3167466E-03
   7103.67  7.5874509E-03
   7104.00  7.8804120E-03
   7104.33  8.2023526E-03
   7104.67  8.5543535E-03
   7105.00  8.9409157E-03
   7105.33  9.3736681E-03
   7105.67  9.8557358E-03
   7106.00  1.0396070E-02
   7106.33  1.1017077E-02
   7106.67  1.1727705E-02
   7107.00  1.2548326E-02
   7107.33  1.3529097E-02
   7107.67  1.4698355E-02
   7108.00  1.6112414E-02
   7108.33  1.7911407E-02
   7108.67  2.0206690E-02
   7109.00  2.3208629E-02
   7109.33  2.7475329E-02
   7109.67  3.3649709E-02
   7110.00  4.2995715E-02
   7110.33  5.9151519E-02
   7110.67  8.5801028E-02
   7111.00  1.2264495E-01
   7111.33  1.5544211E-01
   7111.67  1.7660455E-01
   7112.00  1.8943317E-01
   7112.33  1.9668444E-01
   7112.67  1.9947138E-01
   7113.00  1.9455723E-01
   7113.33  1.7368351E-01
   7113.67  1.4565408E-01
   7114.00  1.2060338E-01
   7114.33  1.0340495E-01
   7114.67  9.1330087E-02
   7115.00  8.2921882E-02
   7115.33  7.7993349E-02
   7115.67  7.5383282E-02
   7116.00  7.4451696E-02
   7116.33  7.5254419E-02
   7116.67  7.7865142E-02
   7117.00  8.2472458E-02
   7117.33  8.9193108E-02
   7117.67  9.7075240E-02
   7118.00  1.0545295E-01
   7118.33  1.1453528E-01
   7118.67  1.2464544E-01
   7119.00  1.3569432E-01
   7119.33  1.4764463E-01
   7119.67  1.6063946E-01
   7120.00  1.7505505E-01
   7120.33  1.9153259E-01
   7120.67  2.1019027E-01
   7121.00  2.3117742E-01
   7121.33  2.5445010E-01
   7121.67  2.7879174E-01
   7122.00  3.0307141E-01
   7122.33  3.2597814E-01
   7122.67  3.4687301E-01
   7123.00  3.6507996E-01
   7123.33  3.7948495E-01
   7123.67  3.9118496E-01
   7124.00  4.0230695E-01
   7124.33  4.1568399E-01
   7124.67  4.3163156E-01
   7125.00  4.4883975E-01
   7125.33  4.6516313E-01
   7125.67  4.7948292E-01
   7126.00  4.9152176E-01
   7126.33  5.0140031E-01
   7126.67  5.0999263E-01
   7127.00  5.1710381E-01
   7127.33  5.2137838E-01
   7127.67  5.2318246E-01
   7128.00  5.2399082E-01
   7128.33  5.2573644E-01
   7128.67  5.2907831E-01
   7129.00  5.3406706E-01
   7129.33  5.4086538E-01
   7129.67  5.4930242E-01
   7130.00  5.5949251E-01
   7130.33  5.7204096E-01
   7130.67  5.8740175E-01
   7131.00  6.0647325E-01
   7131.33  6.3070955E-01
   7131.67  6.5928032E-01
   7132.00  6.9048242E-01
   7132.33  7.2082297E-01
   7132.67  7.4678346E-01
   7133.00  7.6608295E-01
   7133.33  7.7640828E-01
   7133.67  7.7855175E-01
   7134.00  7.7278334E-01
   7134.33  7.5905984E-01
   7134.67  7.4021261E-01
   7135.00  7.1862483E-01
   7135.33  6.9691472E-01
   7135.67  6.7697161E-01
   7136.00  6.5977702E-01
   7136.33  6.4632990E-01
   7136.67  6.3634451E-01
   7137.00  6.2965699E-01
   7137.33  6.2617958E-01
   7137.67  6.2488546E-01
   7138.00  6.2504278E-01
   7138.33  6.2569939E-01
   7138.67  6.2569866E-01
   7139.00  6.2413919E-01
   7139.33  6.1996668E-01
   7139.67  6.1327964E-01
   7140.00  6.0446305E-01
   7140.33  5.9429287E-01
   7140.67  5.8399458E-01
   7141.00  5.7434270E-01
   7141.33  5.6608087E-01
   7141.67  5.5933475E-01
   7142.00  5.5417627E-01
   7142.33  5.5078090E-01
   7142.67  5.4888305E-01
   7143.00  5.4841146E-01
   7143.33  5.4945178E-01
   7143.67  5.5175851E-01
   7144.00  5.5526606E-01
   7144.33  5.6002609E-01
   7144.67  5.6577920E-01
   7145.00  5.7238112E-01
   7145.33  5.7970276E-01
   7145.67  5.8742124E-01
   7146.00  5.9529071E-01
   7146.33  6.0296774E-01
   7146.67  6.1014712E-01
   7147.00  6.1657778E-01
   7147.33  6.2191590E-01
   7147.67  6.2615750E-01
   7148.00  6.2927210E-01
   7148.33  6.3115718E-01
   7148.67  6.3204019E-01
   7149.00  6.3202526E-01
   7149.33  6.3113041E-01
   7149.67  6.2953371E-01
   7150.00  6.2726371E-01
   7150.33  6.2421524E-01
   7150.67  6.2040853E-01
   7151.00  6.1576292E-01
   7151.33  6.1006538E-01
   7151.67  6.0336620E-01
   7152.00  5.9565110E-01
   7152.33  5.8684632E-01
   7152.67  5.7719199E-01
   7153.00  5.6683758E-01
   7153.33  5.5592530E-01
   7153.67  5.4472417E-01
   7154.00  5.3339597E-01
   7154.33  5.2210077E-01
   7154.67  5.1095264E-01
   7155.00  5.0002384E-01
   7155.33  4.8940163E-01
   7155.67  4.7907788E-01
   7156.00  4.6906038E-01
   7156.33  4.5938518E-01
   7156.67  4.5000670E-01
   7157.00  4.4091866E-01
   7157.33  4.3215371E-01
   7157.67  4.2368043E-01
   7158.00  4.1550976E-01
   7158.33  4.0770141E-01
   7158.67  4.0024055E-01
   7159.00  3.9315259E-01
   7159.33  3.8651938E-01
   7159.67  3.8032144E-01
   7160.00  3.7458422E-01
   7160.33  3.6939300E-01
   7160.67  3.6470666E-01
   7161.00  3.6053816E-01
   7161.33  3.5696089E-01
   7161.67  3.5391062E-01
   7162.00  3.5138371E-01
   7162.33  3.4943157E-01
   7162.67  3.4797336E-01
   7163.00  3.4699199E-01
   7163.33  3.4652275E-01
   7163.67  3.4648209E-01
   7164.00  3.4684097E-01
   7164.33  3.4760398E-01
   7164.67  3.4868101E-01
   7165.00  3.5003174E-01
   7165.33  3.5164000E-01
   7165.67  3.5343815E-01
   7166.00  3.5539883E-01
   7166.33  3.5751648E-01
   7166.67  3.5975882E-01
   7167.00  3.6211781E-01
   7167.33  3.6460122E-01
   7167.67  3.6719026E-01
   7168.00  3.6987980E-01
   7168.33  3.7267393E-01
   7168.67  3.7555173E-01
   7169.00  3.7850368E-01
   7169.33  3.8152474E-01
   7169.67  3.8459185E-01
   7170.00  3.8768813E-01
   7170.33  3.9078817E-01
   7170.67  3.9385643E-01
   7171.00  3.9685031E-01
   7171.33  3.9967268E-01
   7171.67  4.0220601E-01
   7172.00  4.0427468E-01
