    FDMNES
    energy     <xanes>
   7097.00  4.5776578E-03
   7097.33  4.6751082E-03
   7097.67  4.7765904E-03
   7098.00  4.8823602E-03
   7098.33  4.9933226E-03
   7098.67  5.1092649E-03
   7099.00  5.2305320E-03
   7099.33  5.3582912E-03
   7099.67  5.4923208E-03
   7100.00  5.6330985E-03
   7100.33  5.7821695E-03
   7100.67  5.9393191E-03
   7101.00  6.1052300E-03
   7101.33  6.2820124E-03
   7101.67  6.4694942E-03
   7102.00  6.6686894E-03
   7102.33  6.8825905E-03
   7102.67  7.1111489E-03
   7103.00  7.3559405E-03
   7103.33  7.6214126E-03
   7103.67  7.9078244E-03
   7104.00  8.2177690E-03
   7104.33  8.5582528E-03
   7104.67  8.9302895E-03
   7105.00  9.3384615E-03
   7105.33  9.7946701E-03
   7105.67  1.0301848E-02
   7106.00  1.0868882E-02
   7106.33  1.1518118E-02
   7106.67  1.2257817E-02
   7107.00  1.3107537E-02
   7107.33  1.4115511E-02
   7107.67  1.5307169E-02
   7108.00  1.6734207E-02
   7108.33  1.8524839E-02
   7108.67  2.0774903E-02
   7109.00  2.3666770E-02
   7109.33  2.7679337E-02
   7109.67  3.3338132E-02
   7110.00  4.1671532E-02
   7110.33  5.5596055E-02
   7110.67  7.7899418E-02
   7111.00  1.0822273E-01
   7111.33  1.3846357E-01
   7111.67  1.6828952E-01
   7112.00  2.0189675E-01
   7112.33  2.3638455E-01
   7112.67  2.6188939E-01
   7113.00  2.6743850E-01
   7113.33  2.4620418E-01
   7113.67  2.1361644E-01
   7114.00  1.7464592E-01
   7114.33  1.3807256E-01
   7114.67  1.1109847E-01
   7115.00  9.2983063E-02
   7115.33  8.2640486E-02
   7115.67  7.7589853E-02
   7116.00  7.6712128E-02
   7116.33  7.9807283E-02
   7116.67  8.6239220E-02
   7117.00  9.5899627E-02
   7117.33  1.0886374E-01
   7117.67  1.2428434E-01
   7118.00  1.4214068E-01
   7118.33  1.6297497E-01
   7118.67  1.8599062E-01
   7119.00  2.1032016E-01
   7119.33  2.3386246E-01
   7119.67  2.5308063E-01
   7120.00  2.6543744E-01
   7120.33  2.7030384E-01
   7120.67  2.7125252E-01
   7121.00  2.7092195E-01
   7121.33  2.7187672E-01
   7121.67  2.7562283E-01
   7122.00  2.8298086E-01
   7122.33  2.9434667E-01
   7122.67  3.0726783E-01
   7123.00  3.1882132E-01
   7123.33  3.2761252E-01
   7123.67  3.3665319E-01
   7124.00  3.4806001E-01
   7124.33  3.6168620E-01
   7124.67  3.7548233E-01
   7125.00  3.8888840E-01
   7125.33  4.0236186E-01
   7125.67  4.1591784E-01
   7126.00  4.2884654E-01
   7126.33  4.3951927E-01
   7126.67  4.4684087E-01
   7127.00  4.5053807E-01
   7127.33  4.5142785E-01
   7127.67  4.5154064E-01
   7128.00  4.5193004E-01
   7128.33  4.5336264E-01
   7128.67  4.5637254E-01
   7129.00  4.6177372E-01
   7129.33  4.7088695E-01
   7129.67  4.8363383E-01
   7130.00  4.9964336E-01
   7130.33  5.1803968E-01
   7130.67  5.3690914E-01
   7131.00  5.5484001E-01
   7131.33  5.7058808E-01
   7131.67  5.8435647E-01
   7132.00  5.9654429E-01
   7132.33  6.0716581E-01
   7132.67  6.1578893E-01
   7133.00  6.2141520E-01
   7133.33  6.2275837E-01
   7133.67  6.2078020E-01
   7134.00  6.1683756E-01
   7134.33  6.1237095E-01
   7134.67  6.0791582E-01
   7135.00  6.0321326E-01
   7135.33  5.9791081E-01
   7135.67  5.9227466E-01
   7136.00  5.8687695E-01
   7136.33  5.8282947E-01
   7136.67  5.8099824E-01
   7137.00  5.8205864E-01
   7137.33  5.8676349E-01
   7137.67  5.9454153E-01
   7138.00  6.0491830E-01
   7138.33  6.1734866E-01
   7138.67  6.3077747E-01
   7139.00  6.4457651E-01
   7139.33  6.5816222E-01
   7139.67  6.7115688E-01
   7140.00  6.8326100E-01
   7140.33  6.9391589E-01
   7140.67  7.0280101E-01
   7141.00  7.0947582E-01
   7141.33  7.1315902E-01
   7141.67  7.1390214E-01
   7142.00  7.1165386E-01
   7142.33  7.0625114E-01
   7142.67  6.9847855E-01
   7143.00  6.8884852E-01
   7143.33  6.7784261E-01
   7143.67  6.6618687E-01
   7144.00  6.5430338E-01
   7144.33  6.4261123E-01
   7144.67  6.3137623E-01
   7145.00  6.2075930E-01
   7145.33  6.1095141E-01
   7145.67  6.0189394E-01
   7146.00  5.9358112E-01
   7146.33  5.8608393E-01
   7146.67  5.7929436E-01
   7147.00  5.7319561E-01
   7147.33  5.6783882E-01
   7147.67  5.6309190E-01
   7148.00  5.5888667E-01
   7148.33  5.5515964E-01
   7148.67  5.5170934E-01
   7149.00  5.4839400E-01
   7149.33  5.4504179E-01
   7149.67  5.4149936E-01
   7150.00  5.3764603E-01
   7150.33  5.3330522E-01
   7150.67  5.2843221E-01
   7151.00  5.2297050E-01
   7151.33  5.1682162E-01
   7151.67  5.1009233E-01
   7152.00  5.0285610E-01
   7152.33  4.9521172E-01
   7152.67  4.8739547E-01
   7153.00  4.7958456E-01
   7153.33  4.7200321E-01
   7153.67  4.6479498E-01
   7154.00  4.5807139E-01
   7154.33  4.5199368E-01
   7154.67  4.4654176E-01
   7155.00  4.4173640E-01
   7155.33  4.3766384E-01
   7155.67  4.3423489E-01
   7156.00  4.3143842E-01
   7156.33  4.2933791E-01
   7156.67  4.2784381E-01
   7157.00  4.2694786E-01
   7157.33  4.2671574E-01
   7157.67  4.2706434E-01
   7158.00  4.2798137E-01
   7158.33  4.2951067E-01
   7158.67  4.3154337E-01
   7159.00  4.3403086E-01
   7159.33  4.3695919E-01
   7159.67  4.4021246E-01
   7160.00  4.4373081E-01
   7160.33  4.4746574E-01
   7160.67  4.5131090E-01
   7161.00  4.5518525E-01
   7161.33  4.5898587E-01
   7161.67  4.6263659E-01
   7162.00  4.6607358E-01
   7162.33  4.6919959E-01
   7162.67  4.7200235E-01
   7163.00  4.7445699E-01
   7163.33  4.7650836E-01
   7163.67  4.7820524E-01
   7164.00  4.7955771E-01
   7164.33  4.8054768E-01
   7164.67  4.8124396E-01
   7165.00  4.8167107E-01
   7165.33  4.8182484E-01
   7165.67  4.8175914E-01
   7166.00  4.8149350E-01
   7166.33  4.8103058E-01
   7166.67  4.8042130E-01
   7167.00  4.7969514E-01
   7167.33  4.7888219E-01
   7167.67  4.7803705E-01
   7168.00  4.7720114E-01
   7168.33  4.7643025E-01
   7168.67  4.7576238E-01
   7169.00  4.7523065E-01
   7169.33  4.7488467E-01
   7169.67  4.7472083E-01
   7170.00  4.7474361E-01
   7170.33  4.7496798E-01
   7170.67  4.7534929E-01
   7171.00  4.7585587E-01
   7171.33  4.7644334E-01
   7171.67  4.7702721E-01
   7172.00  4.7752640E-01
