    FDMNES
    energy     <xanes>
   7097.00  4.6462295E-03
   7097.33  4.7422061E-03
   7097.67  4.8419146E-03
   7098.00  4.9455743E-03
   7098.33  5.0539935E-03
   7098.67  5.1669515E-03
   7099.00  5.2847382E-03
   7099.33  5.4083763E-03
   7099.67  5.5376298E-03
   7100.00  5.6728922E-03
   7100.33  5.8154883E-03
   7100.67  5.9651770E-03
   7101.00  6.1225083E-03
   7101.33  6.2892500E-03
   7101.67  6.4651791E-03
   7102.00  6.6510952E-03
   7102.33  6.8494437E-03
   7102.67  7.0600757E-03
   7103.00  7.2842086E-03
   7103.33  7.5253857E-03
   7103.67  7.7836630E-03
   7104.00  8.0610071E-03
   7104.33  8.3628679E-03
   7104.67  8.6898303E-03
   7105.00  9.0453220E-03
   7105.33  9.4384173E-03
   7105.67  9.8710946E-03
   7106.00  1.0349964E-02
   7106.33  1.0891861E-02
   7106.67  1.1502762E-02
   7107.00  1.2197311E-02
   7107.33  1.3011932E-02
   7107.67  1.3965952E-02
   7108.00  1.5099022E-02
   7108.33  1.6510263E-02
   7108.67  1.8276309E-02
   7109.00  2.0543555E-02
   7109.33  2.3701051E-02
   7109.67  2.8193881E-02
   7110.00  3.4899228E-02
   7110.33  4.6330911E-02
   7110.67  6.4896091E-02
   7111.00  8.9863258E-02
   7111.33  1.1224298E-01
   7111.67  1.3098092E-01
   7112.00  1.4509682E-01
   7112.33  1.4420983E-01
   7112.67  1.3364483E-01
   7113.00  1.2223119E-01
   7113.33  1.1210411E-01
   7113.67  1.0153769E-01
   7114.00  9.0724654E-02
   7114.33  8.2440712E-02
   7114.67  7.8350774E-02
   7115.00  7.8732534E-02
   7115.33  8.4058561E-02
   7115.67  9.4299328E-02
   7116.00  1.1071539E-01
   7116.33  1.3705004E-01
   7116.67  1.7558793E-01
   7117.00  2.2709023E-01
   7117.33  2.8208552E-01
   7117.67  3.2117702E-01
   7118.00  3.4111677E-01
   7118.33  3.5085838E-01
   7118.67  3.5340157E-01
   7119.00  3.4686652E-01
   7119.33  3.3290306E-01
   7119.67  3.1845068E-01
   7120.00  3.0807092E-01
   7120.33  3.0452176E-01
   7120.67  3.0635614E-01
   7121.00  3.1272749E-01
   7121.33  3.2377295E-01
   7121.67  3.3777462E-01
   7122.00  3.5263087E-01
   7122.33  3.6591368E-01
   7122.67  3.7654477E-01
   7123.00  3.8454634E-01
   7123.33  3.9104208E-01
   7123.67  3.9781621E-01
   7124.00  4.0590251E-01
   7124.33  4.1641747E-01
   7124.67  4.2984802E-01
   7125.00  4.4705295E-01
   7125.33  4.6946296E-01
   7125.67  4.9505610E-01
   7126.00  5.1952257E-01
   7126.33  5.3602740E-01
   7126.67  5.4325995E-01
   7127.00  5.4315733E-01
   7127.33  5.3903623E-01
   7127.67  5.3421679E-01
   7128.00  5.3006803E-01
   7128.33  5.2754151E-01
   7128.67  5.2678852E-01
   7129.00  5.2823242E-01
   7129.33  5.3312481E-01
   7129.67  5.4142070E-01
   7130.00  5.5219917E-01
   7130.33  5.6335655E-01
   7130.67  5.7276990E-01
   7131.00  5.7933732E-01
   7131.33  5.8226286E-01
   7131.67  5.8251649E-01
   7132.00  5.8130301E-01
   7132.33  5.8046527E-01
   7132.67  5.8145946E-01
   7133.00  5.8491747E-01
   7133.33  5.9104935E-01
   7133.67  5.9875973E-01
   7134.00  6.0691504E-01
   7134.33  6.1367167E-01
   7134.67  6.1757914E-01
   7135.00  6.1791980E-01
   7135.33  6.1455721E-01
   7135.67  6.0889730E-01
   7136.00  6.0177563E-01
   7136.33  5.9367896E-01
   7136.67  5.8495529E-01
   7137.00  5.7570059E-01
   7137.33  5.6608014E-01
   7137.67  5.5658344E-01
   7138.00  5.4778523E-01
   7138.33  5.4058880E-01
   7138.67  5.3536264E-01
   7139.00  5.3228916E-01
   7139.33  5.3144730E-01
   7139.67  5.3207654E-01
   7140.00  5.3356761E-01
   7140.33  5.3518581E-01
   7140.67  5.3629336E-01
   7141.00  5.3655521E-01
   7141.33  5.3572868E-01
   7141.67  5.3405781E-01
   7142.00  5.3178787E-01
   7142.33  5.2927892E-01
   7142.67  5.2699175E-01
   7143.00  5.2528745E-01
   7143.33  5.2463233E-01
   7143.67  5.2513180E-01
   7144.00  5.2684905E-01
   7144.33  5.2985462E-01
   7144.67  5.3380438E-01
   7145.00  5.3845780E-01
   7145.33  5.4354146E-01
   7145.67  5.4867132E-01
   7146.00  5.5356482E-01
   7146.33  5.5785033E-01
   7146.67  5.6134091E-01
   7147.00  5.6387274E-01
   7147.33  5.6519557E-01
   7147.67  5.6542084E-01
   7148.00  5.6459460E-01
   7148.33  5.6270188E-01
   7148.67  5.5999097E-01
   7149.00  5.5656873E-01
   7149.33  5.5247108E-01
   7149.67  5.4787610E-01
   7150.00  5.4286939E-01
   7150.33  5.3750955E-01
   7150.67  5.3193407E-01
   7151.00  5.2623383E-01
   7151.33  5.2051476E-01
   7151.67  5.1488241E-01
   7152.00  5.0941814E-01
   7152.33  5.0423551E-01
   7152.67  4.9937003E-01
   7153.00  4.9486586E-01
   7153.33  4.9080788E-01
   7153.67  4.8716474E-01
   7154.00  4.8393973E-01
   7154.33  4.8117837E-01
   7154.67  4.7881873E-01
   7155.00  4.7685175E-01
   7155.33  4.7531590E-01
   7155.67  4.7415278E-01
   7156.00  4.7334960E-01
   7156.33  4.7292344E-01
   7156.67  4.7279127E-01
   7157.00  4.7290196E-01
   7157.33  4.7319581E-01
   7157.67  4.7355467E-01
   7158.00  4.7388963E-01
   7158.33  4.7408879E-01
   7158.67  4.7408784E-01
   7159.00  4.7383778E-01
   7159.33  4.7328193E-01
   7159.67  4.7247663E-01
   7160.00  4.7146942E-01
   7160.33  4.7031903E-01
   7160.67  4.6912870E-01
   7161.00  4.6797501E-01
   7161.33  4.6695471E-01
   7161.67  4.6611930E-01
   7162.00  4.6551053E-01
   7162.33  4.6519258E-01
   7162.67  4.6514795E-01
   7163.00  4.6537700E-01
   7163.33  4.6589938E-01
   7163.67  4.6665655E-01
   7164.00  4.6761856E-01
   7164.33  4.6876725E-01
   7164.67  4.7004261E-01
   7165.00  4.7141347E-01
   7165.33  4.7285746E-01
   7165.67  4.7434434E-01
   7166.00  4.7586217E-01
   7166.33  4.7740494E-01
   7166.67  4.7896248E-01
   7167.00  4.8052819E-01
   7167.33  4.8209115E-01
   7167.67  4.8363578E-01
   7168.00  4.8514457E-01
   7168.33  4.8658635E-01
   7168.67  4.8794247E-01
   7169.00  4.8919032E-01
   7169.33  4.9028902E-01
   7169.67  4.9123453E-01
   7170.00  4.9201302E-01
   7170.33  4.9259292E-01
   7170.67  4.9299593E-01
   7171.00  4.9323044E-01
   7171.33  4.9330151E-01
   7171.67  4.9327256E-01
   7172.00  4.9320470E-01
