    FDMNES
    energy     <xanes>
   7097.00  4.6936322E-03
   7097.33  4.7945469E-03
   7097.67  4.8995169E-03
   7098.00  5.0087860E-03
   7098.33  5.1232416E-03
   7098.67  5.2426507E-03
   7099.00  5.3673366E-03
   7099.33  5.4984264E-03
   7099.67  5.6356713E-03
   7100.00  5.7795109E-03
   7100.33  5.9314112E-03
   7100.67  6.0911183E-03
   7101.00  6.2592479E-03
   7101.33  6.4377622E-03
   7101.67  6.6264280E-03
   7102.00  6.8261402E-03
   7102.33  7.0396190E-03
   7102.67  7.2667127E-03
   7103.00  7.5087814E-03
   7103.33  7.7697678E-03
   7103.67  8.0497430E-03
   7104.00  8.3508948E-03
   7104.33  8.6792752E-03
   7104.67  9.0355240E-03
   7105.00  9.4234276E-03
   7105.33  9.8530090E-03
   7105.67  1.0326393E-02
   7106.00  1.0850805E-02
   7106.33  1.1444669E-02
   7106.67  1.2114332E-02
   7107.00  1.2875590E-02
   7107.33  1.3767773E-02
   7107.67  1.4811227E-02
   7108.00  1.6048111E-02
   7108.33  1.7583843E-02
   7108.67  1.9498596E-02
   7109.00  2.1946243E-02
   7109.33  2.5335682E-02
   7109.67  3.0132105E-02
   7110.00  3.7255303E-02
   7110.33  4.9365313E-02
   7110.67  6.9214590E-02
   7111.00  9.6689137E-02
   7111.33  1.1927864E-01
   7111.67  1.2778841E-01
   7112.00  1.2780629E-01
   7112.33  1.3043436E-01
   7112.67  1.3895987E-01
   7113.00  1.5309255E-01
   7113.33  1.7219921E-01
   7113.67  1.9341492E-01
   7114.00  2.1174407E-01
   7114.33  2.0770415E-01
   7114.67  1.7700019E-01
   7115.00  1.4153913E-01
   7115.33  1.1999810E-01
   7115.67  1.1100506E-01
   7116.00  1.1247263E-01
   7116.33  1.2512923E-01
   7116.67  1.4938918E-01
   7117.00  1.8726820E-01
   7117.33  2.3812520E-01
   7117.67  2.8671450E-01
   7118.00  3.1861163E-01
   7118.33  3.3178904E-01
   7118.67  3.4259246E-01
   7119.00  3.6299887E-01
   7119.33  3.9205856E-01
   7119.67  4.1054953E-01
   7120.00  4.1196571E-01
   7120.33  4.0256543E-01
   7120.67  3.9012720E-01
   7121.00  3.7740705E-01
   7121.33  3.6633689E-01
   7121.67  3.5676618E-01
   7122.00  3.4782510E-01
   7122.33  3.3914338E-01
   7122.67  3.3133604E-01
   7123.00  3.2487051E-01
   7123.33  3.2001405E-01
   7123.67  3.1661145E-01
   7124.00  3.1483358E-01
   7124.33  3.1527963E-01
   7124.67  3.1823406E-01
   7125.00  3.2433825E-01
   7125.33  3.3490047E-01
   7125.67  3.5007973E-01
   7126.00  3.7006745E-01
   7126.33  3.9478775E-01
   7126.67  4.2236005E-01
   7127.00  4.5164184E-01
   7127.33  4.8178120E-01
   7127.67  5.1110733E-01
   7128.00  5.3717039E-01
   7128.33  5.5653306E-01
   7128.67  5.6969916E-01
   7129.00  5.7868675E-01
   7129.33  5.8667701E-01
   7129.67  5.9654675E-01
   7130.00  6.0980783E-01
   7130.33  6.2782668E-01
   7130.67  6.4997037E-01
   7131.00  6.7517389E-01
   7131.33  7.0094229E-01
   7131.67  7.2393709E-01
   7132.00  7.4173270E-01
   7132.33  7.5187446E-01
   7132.67  7.5514562E-01
   7133.00  7.5251235E-01
   7133.33  7.4515571E-01
   7133.67  7.3540421E-01
   7134.00  7.2468093E-01
   7134.33  7.1427034E-01
   7134.67  7.0451627E-01
   7135.00  6.9496460E-01
   7135.33  6.8466792E-01
   7135.67  6.7317799E-01
   7136.00  6.6048449E-01
   7136.33  6.4679768E-01
   7136.67  6.3265522E-01
   7137.00  6.1839667E-01
   7137.33  6.0438011E-01
   7137.67  5.9083303E-01
   7138.00  5.7789896E-01
   7138.33  5.6573048E-01
   7138.67  5.5421335E-01
   7139.00  5.4326700E-01
   7139.33  5.3281880E-01
   7139.67  5.2268009E-01
   7140.00  5.1274667E-01
   7140.33  5.0293293E-01
   7140.67  4.9316759E-01
   7141.00  4.8344250E-01
   7141.33  4.7380283E-01
   7141.67  4.6433054E-01
   7142.00  4.5514634E-01
   7142.33  4.4646030E-01
   7142.67  4.3835644E-01
   7143.00  4.3093797E-01
   7143.33  4.2441730E-01
   7143.67  4.1881054E-01
   7144.00  4.1422089E-01
   7144.33  4.1090585E-01
   7144.67  4.0881951E-01
   7145.00  4.0801276E-01
   7145.33  4.0865085E-01
   7145.67  4.1051121E-01
   7146.00  4.1349827E-01
   7146.33  4.1760710E-01
   7146.67  4.2260934E-01
   7147.00  4.2846991E-01
   7147.33  4.3532953E-01
   7147.67  4.4314798E-01
   7148.00  4.5195708E-01
   7148.33  4.6180299E-01
   7148.67  4.7237691E-01
   7149.00  4.8345364E-01
   7149.33  4.9474145E-01
   7149.67  5.0585431E-01
   7150.00  5.1648466E-01
   7150.33  5.2623298E-01
   7150.67  5.3498011E-01
   7151.00  5.4260052E-01
   7151.33  5.4885994E-01
   7151.67  5.5388657E-01
   7152.00  5.5769094E-01
   7152.33  5.6015497E-01
   7152.67  5.6147956E-01
   7153.00  5.6173491E-01
   7153.33  5.6089553E-01
   7153.67  5.5917719E-01
   7154.00  5.5664879E-01
   7154.33  5.5327552E-01
   7154.67  5.4918637E-01
   7155.00  5.4439859E-01
   7155.33  5.3884770E-01
   7155.67  5.3265822E-01
   7156.00  5.2589310E-01
   7156.33  5.1860768E-01
   7156.67  5.1100940E-01
   7157.00  5.0324706E-01
   7157.33  4.9550503E-01
   7157.67  4.8795041E-01
   7158.00  4.8070537E-01
   7158.33  4.7393182E-01
   7158.67  4.6765231E-01
   7159.00  4.6190503E-01
   7159.33  4.5677343E-01
   7159.67  4.5217929E-01
   7160.00  4.4809915E-01
   7160.33  4.4454275E-01
   7160.67  4.4138932E-01
   7161.00  4.3858134E-01
   7161.33  4.3608919E-01
   7161.67  4.3382123E-01
   7162.00  4.3173860E-01
   7162.33  4.2983077E-01
   7162.67  4.2806409E-01
   7163.00  4.2643713E-01
   7163.33  4.2497797E-01
   7163.67  4.2368741E-01
   7164.00  4.2258822E-01
   7164.33  4.2173907E-01
   7164.67  4.2114485E-01
   7165.00  4.2083241E-01
   7165.33  4.2086774E-01
   7165.67  4.2123228E-01
   7166.00  4.2193392E-01
   7166.33  4.2300847E-01
   7166.67  4.2439239E-01
   7167.00  4.2605414E-01
   7167.33  4.2797204E-01
   7167.67  4.3005569E-01
   7168.00  4.3224536E-01
   7168.33  4.3447184E-01
   7168.67  4.3665837E-01
   7169.00  4.3874744E-01
   7169.33  4.4066394E-01
   7169.67  4.4238727E-01
   7170.00  4.4389772E-01
   7170.33  4.4516102E-01
   7170.67  4.4621274E-01
   7171.00  4.4706833E-01
   7171.33  4.4772938E-01
   7171.67  4.4824143E-01
   7172.00  4.4862298E-01
