    FDMNES
    energy     <xanes>
   7097.00  4.8534638E-03
   7097.33  4.9683112E-03
   7097.67  5.0885428E-03
   7098.00  5.2145414E-03
   7098.33  5.3475850E-03
   7098.67  5.4874454E-03
   7099.00  5.6346528E-03
   7099.33  5.7909039E-03
   7099.67  5.9559767E-03
   7100.00  6.1306268E-03
   7100.33  6.3171727E-03
   7100.67  6.5154342E-03
   7101.00  6.7265255E-03
   7101.33  6.9537251E-03
   7101.67  7.1969721E-03
   7102.00  7.4579784E-03
   7102.33  7.7415748E-03
   7102.67  8.0479944E-03
   7103.00  8.3799984E-03
   7103.33  8.7450765E-03
   7103.67  9.1441580E-03
   7104.00  9.5819773E-03
   7104.33  1.0070907E-02
   7104.67  1.0613568E-02
   7105.00  1.1218728E-02
   7105.33  1.1908571E-02
   7105.67  1.2690098E-02
   7106.00  1.3581271E-02
   7106.33  1.4626470E-02
   7106.67  1.5845332E-02
   7107.00  1.7280135E-02
   7107.33  1.9034358E-02
   7107.67  2.1170790E-02
   7108.00  2.3811060E-02
   7108.33  2.7258394E-02
   7108.67  3.1767198E-02
   7109.00  3.7815240E-02
   7109.33  4.6682551E-02
   7109.67  5.9907783E-02
   7110.00  8.0532128E-02
   7110.33  1.1739057E-01
   7110.67  1.7938345E-01
   7111.00  2.6379061E-01
   7111.33  3.2318952E-01
   7111.67  3.3137025E-01
   7112.00  3.0623315E-01
   7112.33  2.8202414E-01
   7112.67  2.7638121E-01
   7113.00  2.8559988E-01
   7113.33  2.8924967E-01
   7113.67  2.6607857E-01
   7114.00  2.2729677E-01
   7114.33  2.0173894E-01
   7114.67  1.9061001E-01
   7115.00  1.8496607E-01
   7115.33  1.8020066E-01
   7115.67  1.7368086E-01
   7116.00  1.6524005E-01
   7116.33  1.6073674E-01
   7116.67  1.6343141E-01
   7117.00  1.7107557E-01
   7117.33  1.7474502E-01
   7117.67  1.6862821E-01
   7118.00  1.5549205E-01
   7118.33  1.4129673E-01
   7118.67  1.2950175E-01
   7119.00  1.2097953E-01
   7119.33  1.1602335E-01
   7119.67  1.1367297E-01
   7120.00  1.1338641E-01
   7120.33  1.1474461E-01
   7120.67  1.1695754E-01
   7121.00  1.1955070E-01
   7121.33  1.2225132E-01
   7121.67  1.2515176E-01
   7122.00  1.2857101E-01
   7122.33  1.3317203E-01
   7122.67  1.3946170E-01
   7123.00  1.4788447E-01
   7123.33  1.5859311E-01
   7123.67  1.7042950E-01
   7124.00  1.8290490E-01
   7124.33  1.9697466E-01
   7124.67  2.1347913E-01
   7125.00  2.3236899E-01
   7125.33  2.5278529E-01
   7125.67  2.7337810E-01
   7126.00  2.9337206E-01
   7126.33  3.1207320E-01
   7126.67  3.3010716E-01
   7127.00  3.4887465E-01
   7127.33  3.7040484E-01
   7127.67  3.9485658E-01
   7128.00  4.2129524E-01
   7128.33  4.4812511E-01
   7128.67  4.7464921E-01
   7129.00  5.0150695E-01
   7129.33  5.3010118E-01
   7129.67  5.6091074E-01
   7130.00  5.9368157E-01
   7130.33  6.2718005E-01
   7130.67  6.5938580E-01
   7131.00  6.8890543E-01
   7131.33  7.1488995E-01
   7131.67  7.3862269E-01
   7132.00  7.6141383E-01
   7132.33  7.8448900E-01
   7132.67  8.0783636E-01
   7133.00  8.3027381E-01
   7133.33  8.4896655E-01
   7133.67  8.6172033E-01
   7134.00  8.6685700E-01
   7134.33  8.6236199E-01
   7134.67  8.4951443E-01
   7135.00  8.2928364E-01
   7135.33  8.0231735E-01
   7135.67  7.7053584E-01
   7136.00  7.3492217E-01
   7136.33  6.9671196E-01
   7136.67  6.5815747E-01
   7137.00  6.2103119E-01
   7137.33  5.8748621E-01
   7137.67  5.5828790E-01
   7138.00  5.3392648E-01
   7138.33  5.1510435E-01
   7138.67  5.0093849E-01
   7139.00  4.9103643E-01
   7139.33  4.8531465E-01
   7139.67  4.8272824E-01
   7140.00  4.8278804E-01
   7140.33  4.8523302E-01
   7140.67  4.8935894E-01
   7141.00  4.9488919E-01
   7141.33  5.0179139E-01
   7141.67  5.0986096E-01
   7142.00  5.1911624E-01
   7142.33  5.2972611E-01
   7142.67  5.4147957E-01
   7143.00  5.5423015E-01
   7143.33  5.6779223E-01
   7143.67  5.8171715E-01
   7144.00  5.9567268E-01
   7144.33  6.0925724E-01
   7144.67  6.2221798E-01
   7145.00  6.3436547E-01
   7145.33  6.4542272E-01
   7145.67  6.5540347E-01
   7146.00  6.6423644E-01
   7146.33  6.7169531E-01
   7146.67  6.7786058E-01
   7147.00  6.8266614E-01
   7147.33  6.8584768E-01
   7147.67  6.8751369E-01
   7148.00  6.8762376E-01
   7148.33  6.8596658E-01
   7148.67  6.8276404E-01
   7149.00  6.7807679E-01
   7149.33  6.7185478E-01
   7149.67  6.6444487E-01
   7150.00  6.5603779E-01
   7150.33  6.4679460E-01
   7150.67  6.3707134E-01
   7151.00  6.2706430E-01
   7151.33  6.1692152E-01
   7151.67  6.0678231E-01
   7152.00  5.9672428E-01
   7152.33  5.8680258E-01
   7152.67  5.7700703E-01
   7153.00  5.6732809E-01
   7153.33  5.5776254E-01
   7153.67  5.4829038E-01
   7154.00  5.3892048E-01
   7154.33  5.2970270E-01
   7154.67  5.2067979E-01
   7155.00  5.1192250E-01
   7155.33  5.0357401E-01
   7155.67  4.9569530E-01
   7156.00  4.8837923E-01
   7156.33  4.8181213E-01
   7156.67  4.7600310E-01
   7157.00  4.7101979E-01
   7157.33  4.6703624E-01
   7157.67  4.6398545E-01
   7158.00  4.6188817E-01
   7158.33  4.6086416E-01
   7158.67  4.6076504E-01
   7159.00  4.6153727E-01
   7159.33  4.6317975E-01
   7159.67  4.6546918E-01
   7160.00  4.6827930E-01
   7160.33  4.7149279E-01
   7160.67  4.7489933E-01
   7161.00  4.7836316E-01
   7161.33  4.8173923E-01
   7161.67  4.8494055E-01
   7162.00  4.8791366E-01
   7162.33  4.9059444E-01
   7162.67  4.9301065E-01
   7163.00  4.9517300E-01
   7163.33  4.9707288E-01
   7163.67  4.9875982E-01
   7164.00  5.0024556E-01
   7164.33  5.0150811E-01
   7164.67  5.0256146E-01
   7165.00  5.0338485E-01
   7165.33  5.0390871E-01
   7165.67  5.0412032E-01
   7166.00  5.0397615E-01
   7166.33  5.0337954E-01
   7166.67  5.0234287E-01
   7167.00  5.0083553E-01
   7167.33  4.9876311E-01
   7167.67  4.9617106E-01
   7168.00  4.9306163E-01
   7168.33  4.8939721E-01
   7168.67  4.8528578E-01
   7169.00  4.8078380E-01
   7169.33  4.7593571E-01
   7169.67  4.7087722E-01
   7170.00  4.6569932E-01
   7170.33  4.6051017E-01
   7170.67  4.5542301E-01
   7171.00  4.5054024E-01
   7171.33  4.4604731E-01
   7171.67  4.4210028E-01
   7172.00  4.3892597E-01
