    FDMNES
    energy     <xanes>
   7097.00  4.5941477E-03
   7097.33  4.6969199E-03
   7097.67  4.8040614E-03
   7098.00  4.9158524E-03
   7098.33  5.0332781E-03
   7098.67  5.1561113E-03
   7099.00  5.2847292E-03
   7099.33  5.4204040E-03
   7099.67  5.5628980E-03
   7100.00  5.7127330E-03
   7100.33  5.8715931E-03
   7100.67  6.0392465E-03
   7101.00  6.2164373E-03
   7101.33  6.4054627E-03
   7101.67  6.6061336E-03
   7102.00  6.8195504E-03
   7102.33  7.0489625E-03
   7102.67  7.2943060E-03
   7103.00  7.5572813E-03
   7103.33  7.8426936E-03
   7103.67  8.1507928E-03
   7104.00  8.4843521E-03
   7104.33  8.8508854E-03
   7104.67  9.2514059E-03
   7105.00  9.6907562E-03
   7105.33  1.0181558E-02
   7105.67  1.0726746E-02
   7106.00  1.1335563E-02
   7106.33  1.2031330E-02
   7106.67  1.2822236E-02
   7107.00  1.3728202E-02
   7107.33  1.4798431E-02
   7107.67  1.6057676E-02
   7108.00  1.7557090E-02
   7108.33  1.9423261E-02
   7108.67  2.1746632E-02
   7109.00  2.4700075E-02
   7109.33  2.8732977E-02
   7109.67  3.4315887E-02
   7110.00  4.2364820E-02
   7110.33  5.5495290E-02
   7110.67  7.6751389E-02
   7111.00  1.0891349E-01
   7111.33  1.5027898E-01
   7111.67  1.8354707E-01
   7112.00  1.9334065E-01
   7112.33  2.0176261E-01
   7112.67  2.2944069E-01
   7113.00  2.6467353E-01
   7113.33  2.9531802E-01
   7113.67  3.2480078E-01
   7114.00  3.3892981E-01
   7114.33  3.0886406E-01
   7114.67  2.4623028E-01
   7115.00  1.8301803E-01
   7115.33  1.4126935E-01
   7115.67  1.1579257E-01
   7116.00  1.0125539E-01
   7116.33  9.4413241E-02
   7116.67  9.2068951E-02
   7117.00  9.2526971E-02
   7117.33  9.4281468E-02
   7117.67  9.7434673E-02
   7118.00  1.0265011E-01
   7118.33  1.1001879E-01
   7118.67  1.1946195E-01
   7119.00  1.3176219E-01
   7119.33  1.4802309E-01
   7119.67  1.6765218E-01
   7120.00  1.9000643E-01
   7120.33  2.1437406E-01
   7120.67  2.3953674E-01
   7121.00  2.6439462E-01
   7121.33  2.8701787E-01
   7121.67  3.0580442E-01
   7122.00  3.1944493E-01
   7122.33  3.2676327E-01
   7122.67  3.2982701E-01
   7123.00  3.3130868E-01
   7123.33  3.3536199E-01
   7123.67  3.4451855E-01
   7124.00  3.5893802E-01
   7124.33  3.7769101E-01
   7124.67  3.9939696E-01
   7125.00  4.2302047E-01
   7125.33  4.4712314E-01
   7125.67  4.7032310E-01
   7126.00  4.9144132E-01
   7126.33  5.0888277E-01
   7126.67  5.2236011E-01
   7127.00  5.3157858E-01
   7127.33  5.3581175E-01
   7127.67  5.3588176E-01
   7128.00  5.3256021E-01
   7128.33  5.2681733E-01
   7128.67  5.2017342E-01
   7129.00  5.1357534E-01
   7129.33  5.0787811E-01
   7129.67  5.0322414E-01
   7130.00  4.9951935E-01
   7130.33  4.9671361E-01
   7130.67  4.9475476E-01
   7131.00  4.9389161E-01
   7131.33  4.9482393E-01
   7131.67  4.9802729E-01
   7132.00  5.0412452E-01
   7132.33  5.1404296E-01
   7132.67  5.2728459E-01
   7133.00  5.4331225E-01
   7133.33  5.6164091E-01
   7133.67  5.8148904E-01
   7134.00  6.0246860E-01
   7134.33  6.2395830E-01
   7134.67  6.4497875E-01
   7135.00  6.6476483E-01
   7135.33  6.8239539E-01
   7135.67  6.9761103E-01
   7136.00  7.1008263E-01
   7136.33  7.1918566E-01
   7136.67  7.2521072E-01
   7137.00  7.2821502E-01
   7137.33  7.2804137E-01
   7137.67  7.2533010E-01
   7138.00  7.2036035E-01
   7138.33  7.1322737E-01
   7138.67  7.0451386E-01
   7139.00  6.9452599E-01
   7139.33  6.8353266E-01
   7139.67  6.7205082E-01
   7140.00  6.6043535E-01
   7140.33  6.4911276E-01
   7140.67  6.3839132E-01
   7141.00  6.2849985E-01
   7141.33  6.1974293E-01
   7141.67  6.1207943E-01
   7142.00  6.0551736E-01
   7142.33  6.0013806E-01
   7142.67  5.9571182E-01
   7143.00  5.9213227E-01
   7143.33  5.8936578E-01
   7143.67  5.8721102E-01
   7144.00  5.8558508E-01
   7144.33  5.8446241E-01
   7144.67  5.8372222E-01
   7145.00  5.8331720E-01
   7145.33  5.8323084E-01
   7145.67  5.8337526E-01
   7146.00  5.8370087E-01
   7146.33  5.8415480E-01
   7146.67  5.8464492E-01
   7147.00  5.8509838E-01
   7147.33  5.8541371E-01
   7147.67  5.8552596E-01
   7148.00  5.8537652E-01
   7148.33  5.8487602E-01
   7148.67  5.8403461E-01
   7149.00  5.8284132E-01
   7149.33  5.8126171E-01
   7149.67  5.7937658E-01
   7150.00  5.7723375E-01
   7150.33  5.7487241E-01
   7150.67  5.7238298E-01
   7151.00  5.6982340E-01
   7151.33  5.6725131E-01
   7151.67  5.6470649E-01
   7152.00  5.6220604E-01
   7152.33  5.5975672E-01
   7152.67  5.5733179E-01
   7153.00  5.5489626E-01
   7153.33  5.5238748E-01
   7153.67  5.4974724E-01
   7154.00  5.4690986E-01
   7154.33  5.4376075E-01
   7154.67  5.4025892E-01
   7155.00  5.3634406E-01
   7155.33  5.3189272E-01
   7155.67  5.2691105E-01
   7156.00  5.2136590E-01
   7156.33  5.1516381E-01
   7156.67  5.0836815E-01
   7157.00  5.0097761E-01
   7157.33  4.9293322E-01
   7157.67  4.8434317E-01
   7158.00  4.7525750E-01
   7158.33  4.6570390E-01
   7158.67  4.5583521E-01
   7159.00  4.4575304E-01
   7159.33  4.3558027E-01
   7159.67  4.2547106E-01
   7160.00  4.1555261E-01
   7160.33  4.0601082E-01
   7160.67  3.9693253E-01
   7161.00  3.8841035E-01
   7161.33  3.8060767E-01
   7161.67  3.7350058E-01
   7162.00  3.6711577E-01
   7162.33  3.6155193E-01
   7162.67  3.5670519E-01
   7163.00  3.5255294E-01
   7163.33  3.4914102E-01
   7163.67  3.4634478E-01
   7164.00  3.4412705E-01
   7164.33  3.4251145E-01
   7164.67  3.4138869E-01
   7165.00  3.4072364E-01
   7165.33  3.4053025E-01
   7165.67  3.4072078E-01
   7166.00  3.4126710E-01
   7166.33  3.4217827E-01
   7166.67  3.4338310E-01
   7167.00  3.4485594E-01
   7167.33  3.4659731E-01
   7167.67  3.4854810E-01
   7168.00  3.5068269E-01
   7168.33  3.5298981E-01
   7168.67  3.5541947E-01
   7169.00  3.5794481E-01
   7169.33  3.6054209E-01
   7169.67  3.6317055E-01
   7170.00  3.6580071E-01
   7170.33  3.6839178E-01
   7170.67  3.7090811E-01
   7171.00  3.7330948E-01
   7171.33  3.7551183E-01
   7171.67  3.7744232E-01
   7172.00  3.7898733E-01
