    FDMNES
    energy     <xanes>
   7097.00  4.0692008E-03
   7097.33  4.1474639E-03
   7097.67  4.2286873E-03
   7098.00  4.3130538E-03
   7098.33  4.4012209E-03
   7098.67  4.4930281E-03
   7099.00  4.5887246E-03
   7099.33  4.6891605E-03
   7099.67  4.7941741E-03
   7100.00  4.9041159E-03
   7100.33  5.0201209E-03
   7100.67  5.1420422E-03
   7101.00  5.2703932E-03
   7101.33  5.4067479E-03
   7101.67  5.5510118E-03
   7102.00  5.7039721E-03
   7102.33  5.8679171E-03
   7102.67  6.0428907E-03
   7103.00  6.2301688E-03
   7103.33  6.4332786E-03
   7103.67  6.6526053E-03
   7104.00  6.8903646E-03
   7104.33  7.1524068E-03
   7104.67  7.4399728E-03
   7105.00  7.7572569E-03
   7105.33  8.1149155E-03
   7105.67  8.5164782E-03
   7106.00  8.9708218E-03
   7106.33  9.4999027E-03
   7106.67  1.0114105E-02
   7107.00  1.0835266E-02
   7107.33  1.1716961E-02
   7107.67  1.2794074E-02
   7108.00  1.4133188E-02
   7108.33  1.5901615E-02
   7108.67  1.8249512E-02
   7109.00  2.1458748E-02
   7109.33  2.6297387E-02
   7109.67  3.3743647E-02
   7110.00  4.5745960E-02
   7110.33  6.7933878E-02
   7110.67  1.0483931E-01
   7111.00  1.4875610E-01
   7111.33  1.6273626E-01
   7111.67  1.4927117E-01
   7112.00  1.2805285E-01
   7112.33  1.0763118E-01
   7112.67  8.8702678E-02
   7113.00  7.2648169E-02
   7113.33  6.1361664E-02
   7113.67  5.4303588E-02
   7114.00  5.0524271E-02
   7114.33  4.7559434E-02
   7114.67  4.3626692E-02
   7115.00  4.0018684E-02
   7115.33  3.8024660E-02
   7115.67  3.7285859E-02
   7116.00  3.7497404E-02
   7116.33  3.8523683E-02
   7116.67  4.0159373E-02
   7117.00  4.2353963E-02
   7117.33  4.5138563E-02
   7117.67  4.8422718E-02
   7118.00  5.2175771E-02
   7118.33  5.6338538E-02
   7118.67  6.0595883E-02
   7119.00  6.4585511E-02
   7119.33  6.7873355E-02
   7119.67  7.0512397E-02
   7120.00  7.2747201E-02
   7120.33  7.4954425E-02
   7120.67  7.7450986E-02
   7121.00  8.0433554E-02
   7121.33  8.4187445E-02
   7121.67  8.8850250E-02
   7122.00  9.4660161E-02
   7122.33  1.0215296E-01
   7122.67  1.1155940E-01
   7123.00  1.2326637E-01
   7123.33  1.3805101E-01
   7123.67  1.5591969E-01
   7124.00  1.7705634E-01
   7124.33  2.0193282E-01
   7124.67  2.3003039E-01
   7125.00  2.6116418E-01
   7125.33  2.9533364E-01
   7125.67  3.3153578E-01
   7126.00  3.6879166E-01
   7126.33  4.0566462E-01
   7126.67  4.4120014E-01
   7127.00  4.7542477E-01
   7127.33  5.0923216E-01
   7127.67  5.4327943E-01
   7128.00  5.7712119E-01
   7128.33  6.1015075E-01
   7128.67  6.4349183E-01
   7129.00  6.7920641E-01
   7129.33  7.2006379E-01
   7129.67  7.6578132E-01
   7130.00  8.1461601E-01
   7130.33  8.6299486E-01
   7130.67  9.0724928E-01
   7131.00  9.4481490E-01
   7131.33  9.7283121E-01
   7131.67  9.9208469E-01
   7132.00  1.0034914E+00
   7132.33  1.0081555E+00
   7132.67  1.0086806E+00
   7133.00  1.0061018E+00
   7133.33  1.0003638E+00
   7133.67  9.9130433E-01
   7134.00  9.7823091E-01
   7134.33  9.6013893E-01
   7134.67  9.3803835E-01
   7135.00  9.1305182E-01
   7135.33  8.8668057E-01
   7135.67  8.6047693E-01
   7136.00  8.3517353E-01
   7136.33  8.1126936E-01
   7136.67  7.8861091E-01
   7137.00  7.6709026E-01
   7137.33  7.4670137E-01
   7137.67  7.2724250E-01
   7138.00  7.0870872E-01
   7138.33  6.9127132E-01
   7138.67  6.7488690E-01
   7139.00  6.5961905E-01
   7139.33  6.4565630E-01
   7139.67  6.3285444E-01
   7140.00  6.2118364E-01
   7140.33  6.1071873E-01
   7140.67  6.0125549E-01
   7141.00  5.9273417E-01
   7141.33  5.8519800E-01
   7141.67  5.7847173E-01
   7142.00  5.7249472E-01
   7142.33  5.6728062E-01
   7142.67  5.6266898E-01
   7143.00  5.5857649E-01
   7143.33  5.5494560E-01
   7143.67  5.5161825E-01
   7144.00  5.4851419E-01
   7144.33  5.4558456E-01
   7144.67  5.4277902E-01
   7145.00  5.4010415E-01
   7145.33  5.3762335E-01
   7145.67  5.3538232E-01
   7146.00  5.3344798E-01
   7146.33  5.3194477E-01
   7146.67  5.3089062E-01
   7147.00  5.3032851E-01
   7147.33  5.3035399E-01
   7147.67  5.3090660E-01
   7148.00  5.3196618E-01
   7148.33  5.3353053E-01
   7148.67  5.3544092E-01
   7149.00  5.3757126E-01
   7149.33  5.3973890E-01
   7149.67  5.4173741E-01
   7150.00  5.4340835E-01
   7150.33  5.4451931E-01
   7150.67  5.4497367E-01
   7151.00  5.4465343E-01
   7151.33  5.4334333E-01
   7151.67  5.4108875E-01
   7152.00  5.3786508E-01
   7152.33  5.3355133E-01
   7152.67  5.2829346E-01
   7153.00  5.2212738E-01
   7153.33  5.1499888E-01
   7153.67  5.0707592E-01
   7154.00  4.9841571E-01
   7154.33  4.8900431E-01
   7154.67  4.7899656E-01
   7155.00  4.6845572E-01
   7155.33  4.5740298E-01
   7155.67  4.4597725E-01
   7156.00  4.3424846E-01
   7156.33  4.2227086E-01
   7156.67  4.1015694E-01
   7157.00  3.9798195E-01
   7157.33  3.8583712E-01
   7157.67  3.7380568E-01
   7158.00  3.6196097E-01
   7158.33  3.5042273E-01
   7158.67  3.3924396E-01
   7159.00  3.2849526E-01
   7159.33  3.1830995E-01
   7159.67  3.0868356E-01
   7160.00  2.9965795E-01
   7160.33  2.9135496E-01
   7160.67  2.8373186E-01
   7161.00  2.7681993E-01
   7161.33  2.7074711E-01
   7161.67  2.6545057E-01
   7162.00  2.6095429E-01
   7162.33  2.5739328E-01
   7162.67  2.5468589E-01
   7163.00  2.5283891E-01
   7163.33  2.5196727E-01
   7163.67  2.5196811E-01
   7164.00  2.5284186E-01
   7164.33  2.5469141E-01
   7164.67  2.5739657E-01
   7165.00  2.6094295E-01
   7165.33  2.6541239E-01
   7165.67  2.7067565E-01
   7166.00  2.7670442E-01
   7166.33  2.8355746E-01
   7166.67  2.9110883E-01
   7167.00  2.9932443E-01
   7167.33  3.0823447E-01
   7167.67  3.1770175E-01
   7168.00  3.2765782E-01
   7168.33  3.3805137E-01
   7168.67  3.4871525E-01
   7169.00  3.5953447E-01
   7169.33  3.7036436E-01
   7169.67  3.8105024E-01
   7170.00  3.9145957E-01
   7170.33  4.0139069E-01
   7170.67  4.1075618E-01
   7171.00  4.1943564E-01
   7171.33  4.2715945E-01
   7171.67  4.3379707E-01
   7172.00  4.3907212E-01
