    FDMNES
    energy     <xanes>
   7097.00  4.1796829E-03
   7097.33  4.2606255E-03
   7097.67  4.3446127E-03
   7098.00  4.4318283E-03
   7098.33  4.5229419E-03
   7098.67  4.6177828E-03
   7099.00  4.7166000E-03
   7099.33  4.8202536E-03
   7099.67  4.9285689E-03
   7100.00  5.0418934E-03
   7100.33  5.1613662E-03
   7100.67  5.2868231E-03
   7101.00  5.4187683E-03
   7101.33  5.5587670E-03
   7101.67  5.7066999E-03
   7102.00  5.8633320E-03
   7102.33  6.0309148E-03
   7102.67  6.2094520E-03
   7103.00  6.4001708E-03
   7103.33  6.6065000E-03
   7103.67  6.8287519E-03
   7104.00  7.0690333E-03
   7104.33  7.3329574E-03
   7104.67  7.6216128E-03
   7105.00  7.9389413E-03
   7105.33  8.2950238E-03
   7105.67  8.6930238E-03
   7106.00  9.1411798E-03
   7106.33  9.6599550E-03
   7106.67  1.0258693E-02
   7107.00  1.0957392E-02
   7107.33  1.1805192E-02
   7107.67  1.2833330E-02
   7108.00  1.4101868E-02
   7108.33  1.5761558E-02
   7108.67  1.7945282E-02
   7109.00  2.0902692E-02
   7109.33  2.5311278E-02
   7109.67  3.2021650E-02
   7110.00  4.2724949E-02
   7110.33  6.2319806E-02
   7110.67  9.5072690E-02
   7111.00  1.3600313E-01
   7111.33  1.5474097E-01
   7111.67  1.4537993E-01
   7112.00  1.2427371E-01
   7112.33  1.0714691E-01
   7112.67  9.4050002E-02
   7113.00  8.1527564E-02
   7113.33  6.9874129E-02
   7113.67  6.1387326E-02
   7114.00  5.5735702E-02
   7114.33  5.1179980E-02
   7114.67  4.6796801E-02
   7115.00  4.3302093E-02
   7115.33  4.1643690E-02
   7115.67  4.1495087E-02
   7116.00  4.2629809E-02
   7116.33  4.5003769E-02
   7116.67  4.8267624E-02
   7117.00  5.2062880E-02
   7117.33  5.5723763E-02
   7117.67  5.8853257E-02
   7118.00  6.1735245E-02
   7118.33  6.5164850E-02
   7118.67  6.9539811E-02
   7119.00  7.4820174E-02
   7119.33  8.0605645E-02
   7119.67  8.6290874E-02
   7120.00  9.1730962E-02
   7120.33  9.7381316E-02
   7120.67  1.0401072E-01
   7121.00  1.1226844E-01
   7121.33  1.2296531E-01
   7121.67  1.3611181E-01
   7122.00  1.5177720E-01
   7122.33  1.7021982E-01
   7122.67  1.9095724E-01
   7123.00  2.1369642E-01
   7123.33  2.3809327E-01
   7123.67  2.6337433E-01
   7124.00  2.8921712E-01
   7124.33  3.1575830E-01
   7124.67  3.4325637E-01
   7125.00  3.7192686E-01
   7125.33  4.0189137E-01
   7125.67  4.3262144E-01
   7126.00  4.6361093E-01
   7126.33  4.9419341E-01
   7126.67  5.2377908E-01
   7127.00  5.5190753E-01
   7127.33  5.7821515E-01
   7127.67  6.0317955E-01
   7128.00  6.2723507E-01
   7128.33  6.5101602E-01
   7128.67  6.7560773E-01
   7129.00  7.0225263E-01
   7129.33  7.3244630E-01
   7129.67  7.6528831E-01
   7130.00  7.9866725E-01
   7130.33  8.2894254E-01
   7130.67  8.5417469E-01
   7131.00  8.7399628E-01
   7131.33  8.8877678E-01
   7131.67  9.0048517E-01
   7132.00  9.1024880E-01
   7132.33  9.1898476E-01
   7132.67  9.2731484E-01
   7133.00  9.3506768E-01
   7133.33  9.4120671E-01
   7133.67  9.4475446E-01
   7134.00  9.4487245E-01
   7134.33  9.4055773E-01
   7134.67  9.3228546E-01
   7135.00  9.2025598E-01
   7135.33  9.0424810E-01
   7135.67  8.8477591E-01
   7136.00  8.6183810E-01
   7136.33  8.3516447E-01
   7136.67  8.0567935E-01
   7137.00  7.7414896E-01
   7137.33  7.4160094E-01
   7137.67  7.0933153E-01
   7138.00  6.7823194E-01
   7138.33  6.4933061E-01
   7138.67  6.2286857E-01
   7139.00  5.9904499E-01
   7139.33  5.7822180E-01
   7139.67  5.5993880E-01
   7140.00  5.4401265E-01
   7140.33  5.3045560E-01
   7140.67  5.1875564E-01
   7141.00  5.0872530E-01
   7141.33  5.0037446E-01
   7141.67  4.9337584E-01
   7142.00  4.8763034E-01
   7142.33  4.8318477E-01
   7142.67  4.7981168E-01
   7143.00  4.7744841E-01
   7143.33  4.7614474E-01
   7143.67  4.7571825E-01
   7144.00  4.7611571E-01
   7144.33  4.7737214E-01
   7144.67  4.7932948E-01
   7145.00  4.8192553E-01
   7145.33  4.8513303E-01
   7145.67  4.8874882E-01
   7146.00  4.9261590E-01
   7146.33  4.9651017E-01
   7146.67  5.0018171E-01
   7147.00  5.0344320E-01
   7147.33  5.0608962E-01
   7147.67  5.0816784E-01
   7148.00  5.0973942E-01
   7148.33  5.1087173E-01
   7148.67  5.1172062E-01
   7149.00  5.1233911E-01
   7149.33  5.1270193E-01
   7149.67  5.1278392E-01
   7150.00  5.1251240E-01
   7150.33  5.1173484E-01
   7150.67  5.1039506E-01
   7151.00  5.0838360E-01
   7151.33  5.0546815E-01
   7151.67  5.0162939E-01
   7152.00  4.9678110E-01
   7152.33  4.9071721E-01
   7152.67  4.8355784E-01
   7153.00  4.7534292E-01
   7153.33  4.6604842E-01
   7153.67  4.5593288E-01
   7154.00  4.4515148E-01
   7154.33  4.3386680E-01
   7154.67  4.2236660E-01
   7155.00  4.1084250E-01
   7155.33  3.9952667E-01
   7155.67  3.8858481E-01
   7156.00  3.7815875E-01
   7156.33  3.6846719E-01
   7156.67  3.5953253E-01
   7157.00  3.5141610E-01
   7157.33  3.4426089E-01
   7157.67  3.3795684E-01
   7158.00  3.3247000E-01
   7158.33  3.2782122E-01
   7158.67  3.2381891E-01
   7159.00  3.2036962E-01
   7159.33  3.1743259E-01
   7159.67  3.1488619E-01
   7160.00  3.1270322E-01
   7160.33  3.1092283E-01
   7160.67  3.0951601E-01
   7161.00  3.0850368E-01
   7161.33  3.0795951E-01
   7161.67  3.0784374E-01
   7162.00  3.0815514E-01
   7162.33  3.0892888E-01
   7162.67  3.1008284E-01
   7163.00  3.1158180E-01
   7163.33  3.1342490E-01
   7163.67  3.1554047E-01
   7164.00  3.1790486E-01
   7164.33  3.2052728E-01
   7164.67  3.2337004E-01
   7165.00  3.2643476E-01
   7165.33  3.2976455E-01
   7165.67  3.3335544E-01
   7166.00  3.3723686E-01
   7166.33  3.4149166E-01
   7166.67  3.4612512E-01
   7167.00  3.5117881E-01
   7167.33  3.5675737E-01
   7167.67  3.6284076E-01
   7168.00  3.6944956E-01
   7168.33  3.7665126E-01
   7168.67  3.8435132E-01
   7169.00  3.9249813E-01
   7169.33  4.0104318E-01
   7169.67  4.0981582E-01
   7170.00  4.1868500E-01
   7170.33  4.2747065E-01
   7170.67  4.3599794E-01
   7171.00  4.4409752E-01
   7171.33  4.5146037E-01
   7171.67  4.5786651E-01
   7172.00  4.6298663E-01
