    FDMNES
    energy     <xanes>
   7097.00  5.3496474E-03
   7097.33  5.4884266E-03
   7097.67  5.6340339E-03
   7098.00  5.7869650E-03
   7098.33  5.9488574E-03
   7098.67  6.1194354E-03
   7099.00  6.2993876E-03
   7099.33  6.4908979E-03
   7099.67  6.6937016E-03
   7100.00  6.9087835E-03
   7100.33  7.1391413E-03
   7100.67  7.3845691E-03
   7101.00  7.6465240E-03
   7101.33  7.9292646E-03
   7101.67  8.2327480E-03
   7102.00  8.5592205E-03
   7102.33  8.9149867E-03
   7102.67  9.3004003E-03
   7103.00  9.7190985E-03
   7103.33  1.0180901E-02
   7103.67  1.0687099E-02
   7104.00  1.1243952E-02
   7104.33  1.1867759E-02
   7104.67  1.2562083E-02
   7105.00  1.3338560E-02
   7105.33  1.4226560E-02
   7105.67  1.5235530E-02
   7106.00  1.6389412E-02
   7106.33  1.7747258E-02
   7106.67  1.9335544E-02
   7107.00  2.1210897E-02
   7107.33  2.3511869E-02
   7107.67  2.6323445E-02
   7108.00  2.9809834E-02
   7108.33  3.4381072E-02
   7108.67  4.0385721E-02
   7109.00  4.8479517E-02
   7109.33  6.0429933E-02
   7109.67  7.8401753E-02
   7110.00  1.0668806E-01
   7110.33  1.5760043E-01
   7110.67  2.4100858E-01
   7111.00  3.4121892E-01
   7111.33  3.8462847E-01
   7111.67  3.8932783E-01
   7112.00  4.0731883E-01
   7112.33  4.5080633E-01
   7112.67  4.9224399E-01
   7113.00  4.9841613E-01
   7113.33  4.2963766E-01
   7113.67  3.3382925E-01
   7114.00  2.5328261E-01
   7114.33  2.0028207E-01
   7114.67  1.6536139E-01
   7115.00  1.4265584E-01
   7115.33  1.2700163E-01
   7115.67  1.1366239E-01
   7116.00  1.0249168E-01
   7116.33  9.5004622E-02
   7116.67  9.0922637E-02
   7117.00  8.9970598E-02
   7117.33  9.2306329E-02
   7117.67  9.7262354E-02
   7118.00  1.0406610E-01
   7118.33  1.1165770E-01
   7118.67  1.1999635E-01
   7119.00  1.3011106E-01
   7119.33  1.4299730E-01
   7119.67  1.5694366E-01
   7120.00  1.6924698E-01
   7120.33  1.7830571E-01
   7120.67  1.8748111E-01
   7121.00  2.0024472E-01
   7121.33  2.1959722E-01
   7121.67  2.4490580E-01
   7122.00  2.7467674E-01
   7122.33  3.0636415E-01
   7122.67  3.3813555E-01
   7123.00  3.7039980E-01
   7123.33  4.0429265E-01
   7123.67  4.3986643E-01
   7124.00  4.7717244E-01
   7124.33  5.1684320E-01
   7124.67  5.5864847E-01
   7125.00  6.0152712E-01
   7125.33  6.4257410E-01
   7125.67  6.7847559E-01
   7126.00  7.0627177E-01
   7126.33  7.2203242E-01
   7126.67  7.2646277E-01
   7127.00  7.2090625E-01
   7127.33  7.0743039E-01
   7127.67  6.9024008E-01
   7128.00  6.7197451E-01
   7128.33  6.5535650E-01
   7128.67  6.4187352E-01
   7129.00  6.3221309E-01
   7129.33  6.2693378E-01
   7129.67  6.2495350E-01
   7130.00  6.2527588E-01
   7130.33  6.2651726E-01
   7130.67  6.2729842E-01
   7131.00  6.2712564E-01
   7131.33  6.2619768E-01
   7131.67  6.2550931E-01
   7132.00  6.2591832E-01
   7132.33  6.2827397E-01
   7132.67  6.3240681E-01
   7133.00  6.3793865E-01
   7133.33  6.4422610E-01
   7133.67  6.5035822E-01
   7134.00  6.5565231E-01
   7134.33  6.5921791E-01
   7134.67  6.6074117E-01
   7135.00  6.6005499E-01
   7135.33  6.5714998E-01
   7135.67  6.5292271E-01
   7136.00  6.4802820E-01
   7136.33  6.4294640E-01
   7136.67  6.3777290E-01
   7137.00  6.3237217E-01
   7137.33  6.2656764E-01
   7137.67  6.2051550E-01
   7138.00  6.1454993E-01
   7138.33  6.0912953E-01
   7138.67  6.0439546E-01
   7139.00  6.0033651E-01
   7139.33  5.9683632E-01
   7139.67  5.9353806E-01
   7140.00  5.9013760E-01
   7140.33  5.8621445E-01
   7140.67  5.8152079E-01
   7141.00  5.7588870E-01
   7141.33  5.6914131E-01
   7141.67  5.6149528E-01
   7142.00  5.5311187E-01
   7142.33  5.4414754E-01
   7142.67  5.3487986E-01
   7143.00  5.2547911E-01
   7143.33  5.1613203E-01
   7143.67  5.0699615E-01
   7144.00  4.9820555E-01
   7144.33  4.8997655E-01
   7144.67  4.8239028E-01
   7145.00  4.7554527E-01
   7145.33  4.6960517E-01
   7145.67  4.6446452E-01
   7146.00  4.6006616E-01
   7146.33  4.5637686E-01
   7146.67  4.5318895E-01
   7147.00  4.5039791E-01
   7147.33  4.4792274E-01
   7147.67  4.4562804E-01
   7148.00  4.4344722E-01
   7148.33  4.4133112E-01
   7148.67  4.3923471E-01
   7149.00  4.3713561E-01
   7149.33  4.3500971E-01
   7149.67  4.3284120E-01
   7150.00  4.3061723E-01
   7150.33  4.2832155E-01
   7150.67  4.2596628E-01
   7151.00  4.2357014E-01
   7151.33  4.2117689E-01
   7151.67  4.1885298E-01
   7152.00  4.1667112E-01
   7152.33  4.1475484E-01
   7152.67  4.1316632E-01
   7153.00  4.1197229E-01
   7153.33  4.1128202E-01
   7153.67  4.1105790E-01
   7154.00  4.1128324E-01
   7154.33  4.1194773E-01
   7154.67  4.1290295E-01
   7155.00  4.1403483E-01
   7155.33  4.1518686E-01
   7155.67  4.1618141E-01
   7156.00  4.1686584E-01
   7156.33  4.1701569E-01
   7156.67  4.1655491E-01
   7157.00  4.1540231E-01
   7157.33  4.1342331E-01
   7157.67  4.1072628E-01
   7158.00  4.0736866E-01
   7158.33  4.0338670E-01
   7158.67  3.9897990E-01
   7159.00  3.9426481E-01
   7159.33  3.8934649E-01
   7159.67  3.8435753E-01
   7160.00  3.7937553E-01
   7160.33  3.7448104E-01
   7160.67  3.6971422E-01
   7161.00  3.6510297E-01
   7161.33  3.6068875E-01
   7161.67  3.5646212E-01
   7162.00  3.5243226E-01
   7162.33  3.4863642E-01
   7162.67  3.4506335E-01
   7163.00  3.4172942E-01
   7163.33  3.3868768E-01
   7163.67  3.3592817E-01
   7164.00  3.3347455E-01
   7164.33  3.3139796E-01
   7164.67  3.2968397E-01
   7165.00  3.2835339E-01
   7165.33  3.2747639E-01
   7165.67  3.2701623E-01
   7166.00  3.2697940E-01
   7166.33  3.2742084E-01
   7166.67  3.2828301E-01
   7167.00  3.2955692E-01
   7167.33  3.3127538E-01
   7167.67  3.3336677E-01
   7168.00  3.3580817E-01
   7168.33  3.3860912E-01
   7168.67  3.4169568E-01
   7169.00  3.4503608E-01
   7169.33  3.4861768E-01
   7169.67  3.5237168E-01
   7170.00  3.5625931E-01
   7170.33  3.6024104E-01
   7170.67  3.6424599E-01
   7171.00  3.6820593E-01
   7171.33  3.7198182E-01
   7171.67  3.7539412E-01
   7172.00  3.7818951E-01
