    FDMNES
    energy     <xanes>
   7097.00  4.4430570E-03
   7097.33  4.5421239E-03
   7097.67  4.6456097E-03
   7098.00  4.7538177E-03
   7098.33  4.8677787E-03
   7098.67  4.9872913E-03
   7099.00  5.1127724E-03
   7099.33  5.2455791E-03
   7099.67  5.3855105E-03
   7100.00  5.5331563E-03
   7100.33  5.6903539E-03
   7100.67  5.8569282E-03
   7101.00  6.0337415E-03
   7101.33  6.2233659E-03
   7101.67  6.4257073E-03
   7102.00  6.6420774E-03
   7102.33  6.8762236E-03
   7102.67  7.1282566E-03
   7103.00  7.4002680E-03
   7103.33  7.6979912E-03
   7103.67  8.0220243E-03
   7104.00  8.3759017E-03
   7104.33  8.7689452E-03
   7104.67  9.2029251E-03
   7105.00  9.6842661E-03
   7105.33  1.0229342E-02
   7105.67  1.0842901E-02
   7106.00  1.1537775E-02
   7106.33  1.2345810E-02
   7106.67  1.3280076E-02
   7107.00  1.4369686E-02
   7107.33  1.5685894E-02
   7107.67  1.7268847E-02
   7108.00  1.9197755E-02
   7108.33  2.1668493E-02
   7108.67  2.4832900E-02
   7109.00  2.8976210E-02
   7109.33  3.4845796E-02
   7109.67  4.3268201E-02
   7110.00  5.5851761E-02
   7110.33  7.7202110E-02
   7110.67  1.1244181E-01
   7111.00  1.6457143E-01
   7111.33  2.2715272E-01
   7111.67  2.8672588E-01
   7112.00  3.2407290E-01
   7112.33  3.2048235E-01
   7112.67  2.9562142E-01
   7113.00  2.6114569E-01
   7113.33  2.2275400E-01
   7113.67  1.8740905E-01
   7114.00  1.5915025E-01
   7114.33  1.3958842E-01
   7114.67  1.2544710E-01
   7115.00  1.1470693E-01
   7115.33  1.0647542E-01
   7115.67  1.0014228E-01
   7116.00  9.5600430E-02
   7116.33  9.2808723E-02
   7116.67  9.1185038E-02
   7117.00  9.0348716E-02
   7117.33  9.0099949E-02
   7117.67  9.0502055E-02
   7118.00  9.1856849E-02
   7118.33  9.4676401E-02
   7118.67  9.9007809E-02
   7119.00  1.0478484E-01
   7119.33  1.1168103E-01
   7119.67  1.1898615E-01
   7120.00  1.2652548E-01
   7120.33  1.3461641E-01
   7120.67  1.4348369E-01
   7121.00  1.5317604E-01
   7121.33  1.6373283E-01
   7121.67  1.7517671E-01
   7122.00  1.8792473E-01
   7122.33  2.0289727E-01
   7122.67  2.2013609E-01
   7123.00  2.3903741E-01
   7123.33  2.5728744E-01
   7123.67  2.7167218E-01
   7124.00  2.8091273E-01
   7124.33  2.8746138E-01
   7124.67  2.9620704E-01
   7125.00  3.0933704E-01
   7125.33  3.2748798E-01
   7125.67  3.4915506E-01
   7126.00  3.7372690E-01
   7126.33  4.0115369E-01
   7126.67  4.3035507E-01
   7127.00  4.5970067E-01
   7127.33  4.8567802E-01
   7127.67  5.0528203E-01
   7128.00  5.1688885E-01
   7128.33  5.2029825E-01
   7128.67  5.1925285E-01
   7129.00  5.1654455E-01
   7129.33  5.1471528E-01
   7129.67  5.1483079E-01
   7130.00  5.1689241E-01
   7130.33  5.2002712E-01
   7130.67  5.2244923E-01
   7131.00  5.2282375E-01
   7131.33  5.2023684E-01
   7131.67  5.1562153E-01
   7132.00  5.0991173E-01
   7132.33  5.0392656E-01
   7132.67  4.9804286E-01
   7133.00  4.9224837E-01
   7133.33  4.8638456E-01
   7133.67  4.8034147E-01
   7134.00  4.7412170E-01
   7134.33  4.6788094E-01
   7134.67  4.6190171E-01
   7135.00  4.5646515E-01
   7135.33  4.5199671E-01
   7135.67  4.4865798E-01
   7136.00  4.4662715E-01
   7136.33  4.4623132E-01
   7136.67  4.4737331E-01
   7137.00  4.5008360E-01
   7137.33  4.5455580E-01
   7137.67  4.6056249E-01
   7138.00  4.6804790E-01
   7138.33  4.7708225E-01
   7138.67  4.8736861E-01
   7139.00  4.9878752E-01
   7139.33  5.1129982E-01
   7139.67  5.2459719E-01
   7140.00  5.3850259E-01
   7140.33  5.5284112E-01
   7140.67  5.6732545E-01
   7141.00  5.8174107E-01
   7141.33  5.9579802E-01
   7141.67  6.0929911E-01
   7142.00  6.2205560E-01
   7142.33  6.3372365E-01
   7142.67  6.4421291E-01
   7143.00  6.5339861E-01
   7143.33  6.6101327E-01
   7143.67  6.6717777E-01
   7144.00  6.7186620E-01
   7144.33  6.7487497E-01
   7144.67  6.7640375E-01
   7145.00  6.7649797E-01
   7145.33  6.7508604E-01
   7145.67  6.7247612E-01
   7146.00  6.6882170E-01
   7146.33  6.6422766E-01
   7146.67  6.5902834E-01
   7147.00  6.5342620E-01
   7147.33  6.4762686E-01
   7147.67  6.4185768E-01
   7148.00  6.3626983E-01
   7148.33  6.3104645E-01
   7148.67  6.2625395E-01
   7149.00  6.2195799E-01
   7149.33  6.1827739E-01
   7149.67  6.1517248E-01
   7150.00  6.1265561E-01
   7150.33  6.1080521E-01
   7150.67  6.0954381E-01
   7151.00  6.0886403E-01
   7151.33  6.0882407E-01
   7151.67  6.0933560E-01
   7152.00  6.1037996E-01
   7152.33  6.1199166E-01
   7152.67  6.1406565E-01
   7153.00  6.1655210E-01
   7153.33  6.1942214E-01
   7153.67  6.2254695E-01
   7154.00  6.2583912E-01
   7154.33  6.2918758E-01
   7154.67  6.3245617E-01
   7155.00  6.3552943E-01
   7155.33  6.3823758E-01
   7155.67  6.4050823E-01
   7156.00  6.4226467E-01
   7156.33  6.4337511E-01
   7156.67  6.4388356E-01
   7157.00  6.4378943E-01
   7157.33  6.4304040E-01
   7157.67  6.4174466E-01
   7158.00  6.3993849E-01
   7158.33  6.3760599E-01
   7158.67  6.3484476E-01
   7159.00  6.3168419E-01
   7159.33  6.2810680E-01
   7159.67  6.2418279E-01
   7160.00  6.1992969E-01
   7160.33  6.1532727E-01
   7160.67  6.1043389E-01
   7161.00  6.0526911E-01
   7161.33  5.9982927E-01
   7161.67  5.9417653E-01
   7162.00  5.8834149E-01
   7162.33  5.8234894E-01
   7162.67  5.7626707E-01
   7163.00  5.7014061E-01
   7163.33  5.6401732E-01
   7163.67  5.5793679E-01
   7164.00  5.5192603E-01
   7164.33  5.4601761E-01
   7164.67  5.4021066E-01
   7165.00  5.3450647E-01
   7165.33  5.2891013E-01
   7165.67  5.2339564E-01
   7166.00  5.1794721E-01
   7166.33  5.1254952E-01
   7166.67  5.0717574E-01
   7167.00  5.0180969E-01
   7167.33  4.9643608E-01
   7167.67  4.9104837E-01
   7168.00  4.8564741E-01
   7168.33  4.8024272E-01
   7168.67  4.7485483E-01
   7169.00  4.6950880E-01
   7169.33  4.6425099E-01
   7169.67  4.5911518E-01
   7170.00  4.5414398E-01
   7170.33  4.4941879E-01
   7170.67  4.4497084E-01
   7171.00  4.4085570E-01
   7171.33  4.3720245E-01
   7171.67  4.3406730E-01
   7172.00  4.3156771E-01
