    FDMNES
    energy     <xanes>
   7097.00  4.5571595E-03
   7097.33  4.6444675E-03
   7097.67  4.7348924E-03
   7098.00  4.8286063E-03
   7098.33  4.9262668E-03
   7098.67  5.0276763E-03
   7099.00  5.1330616E-03
   7099.33  5.2432473E-03
   7099.67  5.3580239E-03
   7100.00  5.4776993E-03
   7100.33  5.6033357E-03
   7100.67  5.7347214E-03
   7101.00  5.8722902E-03
   7101.33  6.0174574E-03
   7101.67  6.1700329E-03
   7102.00  6.3306560E-03
   7102.33  6.5012968E-03
   7102.67  6.6818431E-03
   7103.00  6.8732930E-03
   7103.33  7.0785471E-03
   7103.67  7.2977091E-03
   7104.00  7.5324530E-03
   7104.33  7.7873785E-03
   7104.67  8.0631591E-03
   7105.00  8.3628734E-03
   7105.33  8.6945689E-03
   7105.67  9.0604887E-03
   7106.00  9.4670176E-03
   7106.33  9.9302312E-03
   7106.67  1.0457174E-02
   7107.00  1.1063413E-02
   7107.33  1.1787525E-02
   7107.67  1.2654076E-02
   7108.00  1.3710787E-02
   7108.33  1.5078411E-02
   7108.67  1.6866144E-02
   7109.00  1.9280632E-02
   7109.33  2.2889992E-02
   7109.67  2.8432528E-02
   7110.00  3.7386594E-02
   7110.33  5.3993137E-02
   7110.67  8.1027333E-02
   7111.00  1.0963386E-01
   7111.33  1.0975493E-01
   7111.67  9.2993753E-02
   7112.00  7.7192197E-02
   7112.33  6.8738244E-02
   7112.67  6.4762186E-02
   7113.00  6.1558703E-02
   7113.33  5.7423859E-02
   7113.67  5.2541595E-02
   7114.00  4.7864011E-02
   7114.33  4.4031536E-02
   7114.67  4.0298285E-02
   7115.00  3.7433373E-02
   7115.33  3.6082197E-02
   7115.67  3.5825643E-02
   7116.00  3.6423400E-02
   7116.33  3.7807662E-02
   7116.67  3.9845121E-02
   7117.00  4.2559910E-02
   7117.33  4.6135618E-02
   7117.67  5.0627002E-02
   7118.00  5.6223426E-02
   7118.33  6.3431247E-02
   7118.67  7.2573583E-02
   7119.00  8.4279925E-02
   7119.33  1.0004418E-01
   7119.67  1.2081024E-01
   7120.00  1.4785893E-01
   7120.33  1.8269447E-01
   7120.67  2.2280614E-01
   7121.00  2.6558642E-01
   7121.33  3.0987526E-01
   7121.67  3.5556332E-01
   7122.00  4.0179246E-01
   7122.33  4.4688595E-01
   7122.67  4.9065634E-01
   7123.00  5.3410814E-01
   7123.33  5.7881669E-01
   7123.67  6.2512863E-01
   7124.00  6.7243132E-01
   7124.33  7.1966007E-01
   7124.67  7.6619804E-01
   7125.00  8.1117993E-01
   7125.33  8.5188823E-01
   7125.67  8.8651484E-01
   7126.00  9.1424597E-01
   7126.33  9.3429829E-01
   7126.67  9.4724065E-01
   7127.00  9.5144911E-01
   7127.33  9.4337188E-01
   7127.67  9.2520663E-01
   7128.00  8.9992121E-01
   7128.33  8.6941669E-01
   7128.67  8.3444571E-01
   7129.00  7.9523542E-01
   7129.33  7.5404496E-01
   7129.67  7.1473250E-01
   7130.00  6.7954467E-01
   7130.33  6.5024530E-01
   7130.67  6.2637950E-01
   7131.00  6.0792259E-01
   7131.33  5.9548914E-01
   7131.67  5.8812630E-01
   7132.00  5.8515686E-01
   7132.33  5.8562285E-01
   7132.67  5.8746369E-01
   7133.00  5.8925970E-01
   7133.33  5.8983414E-01
   7133.67  5.8966411E-01
   7134.00  5.9010910E-01
   7134.33  5.9315630E-01
   7134.67  5.9947877E-01
   7135.00  6.0942022E-01
   7135.33  6.2361437E-01
   7135.67  6.4131323E-01
   7136.00  6.6156071E-01
   7136.33  6.8219425E-01
   7136.67  7.0015274E-01
   7137.00  7.1295627E-01
   7137.33  7.1801019E-01
   7137.67  7.1609404E-01
   7138.00  7.0816089E-01
   7138.33  6.9524216E-01
   7138.67  6.7937599E-01
   7139.00  6.6152026E-01
   7139.33  6.4227388E-01
   7139.67  6.2229996E-01
   7140.00  6.0195806E-01
   7140.33  5.8164921E-01
   7140.67  5.6172413E-01
   7141.00  5.4240395E-01
   7141.33  5.2390021E-01
   7141.67  5.0611436E-01
   7142.00  4.8898291E-01
   7142.33  4.7249493E-01
   7142.67  4.5652774E-01
   7143.00  4.4107452E-01
   7143.33  4.2623198E-01
   7143.67  4.1198163E-01
   7144.00  3.9837507E-01
   7144.33  3.8558322E-01
   7144.67  3.7361459E-01
   7145.00  3.6255579E-01
   7145.33  3.5261257E-01
   7145.67  3.4370440E-01
   7146.00  3.3582900E-01
   7146.33  3.2905860E-01
   7146.67  3.2317694E-01
   7147.00  3.1808110E-01
   7147.33  3.1372476E-01
   7147.67  3.0990401E-01
   7148.00  3.0652665E-01
   7148.33  3.0354801E-01
   7148.67  3.0085625E-01
   7149.00  2.9840979E-01
   7149.33  2.9620342E-01
   7149.67  2.9419388E-01
   7150.00  2.9237680E-01
   7150.33  2.9078016E-01
   7150.67  2.8938880E-01
   7151.00  2.8821314E-01
   7151.33  2.8729586E-01
   7151.67  2.8662283E-01
   7152.00  2.8620557E-01
   7152.33  2.8608816E-01
   7152.67  2.8624416E-01
   7153.00  2.8667602E-01
   7153.33  2.8741716E-01
   7153.67  2.8842820E-01
   7154.00  2.8970115E-01
   7154.33  2.9125588E-01
   7154.67  2.9304838E-01
   7155.00  2.9506854E-01
   7155.33  2.9734127E-01
   7155.67  2.9984343E-01
   7156.00  3.0258882E-01
   7156.33  3.0563799E-01
   7156.67  3.0898941E-01
   7157.00  3.1267206E-01
   7157.33  3.1676339E-01
   7157.67  3.2124363E-01
   7158.00  3.2612669E-01
   7158.33  3.3146549E-01
   7158.67  3.3719364E-01
   7159.00  3.4328603E-01
   7159.33  3.4974610E-01
   7159.67  3.5649126E-01
   7160.00  3.6348591E-01
   7160.33  3.7072076E-01
   7160.67  3.7814270E-01
   7161.00  3.8573809E-01
   7161.33  3.9352240E-01
   7161.67  4.0147882E-01
   7162.00  4.0960794E-01
   7162.33  4.1791831E-01
   7162.67  4.2638528E-01
   7163.00  4.3500487E-01
   7163.33  4.4377836E-01
   7163.67  4.5266038E-01
   7164.00  4.6161596E-01
   7164.33  4.7059664E-01
   7164.67  4.7953865E-01
   7165.00  4.8838385E-01
   7165.33  4.9704076E-01
   7165.67  5.0545908E-01
   7166.00  5.1357851E-01
   7166.33  5.2128587E-01
   7166.67  5.2856325E-01
   7167.00  5.3535977E-01
   7167.33  5.4155695E-01
   7167.67  5.4717876E-01
   7168.00  5.5219670E-01
   7168.33  5.5651112E-01
   7168.67  5.6019294E-01
   7169.00  5.6324766E-01
   7169.33  5.6562033E-01
   7169.67  5.6742287E-01
   7170.00  5.6869763E-01
   7170.33  5.6944807E-01
   7170.67  5.6980630E-01
   7171.00  5.6984550E-01
   7171.33  5.6963824E-01
   7171.67  5.6933655E-01
   7172.00  5.6906961E-01
