    FDMNES
    energy     <xanes>
   7097.00  4.6410823E-03
   7097.33  4.7459438E-03
   7097.67  4.8554037E-03
   7098.00  4.9697704E-03
   7098.33  5.0901038E-03
   7098.67  5.2161841E-03
   7099.00  5.3484324E-03
   7099.33  5.4882357E-03
   7099.67  5.6353708E-03
   7100.00  5.7904298E-03
   7100.33  5.9552770E-03
   7100.67  6.1297098E-03
   7101.00  6.3145871E-03
   7101.33  6.5124983E-03
   7101.67  6.7233124E-03
   7102.00  6.9483251E-03
   7102.33  7.1912755E-03
   7102.67  7.4522184E-03
   7103.00  7.7332010E-03
   7103.33  8.0398853E-03
   7103.67  8.3727729E-03
   7104.00  8.7352862E-03
   7104.33  9.1365207E-03
   7104.67  9.5780527E-03
   7105.00  1.0066024E-02
   7105.33  1.0616189E-02
   7105.67  1.1232837E-02
   7106.00  1.1928054E-02
   7106.33  1.2731974E-02
   7106.67  1.3656402E-02
   7107.00  1.4728297E-02
   7107.33  1.6013811E-02
   7107.67  1.7548964E-02
   7108.00  1.9405813E-02
   7108.33  2.1762687E-02
   7108.67  2.4755024E-02
   7109.00  2.8639025E-02
   7109.33  3.4087104E-02
   7109.67  4.1841155E-02
   7110.00  5.3351447E-02
   7110.33  7.2750489E-02
   7110.67  1.0418914E-01
   7111.00  1.4778479E-01
   7111.33  1.9074387E-01
   7111.67  2.2982935E-01
   7112.00  2.6999021E-01
   7112.33  3.1629667E-01
   7112.67  3.5862055E-01
   7113.00  3.8348030E-01
   7113.33  3.5283660E-01
   7113.67  2.7680993E-01
   7114.00  2.0361188E-01
   7114.33  1.5640080E-01
   7114.67  1.2995572E-01
   7115.00  1.1670791E-01
   7115.33  1.0673133E-01
   7115.67  9.6150686E-02
   7116.00  8.4767372E-02
   7116.33  7.4994790E-02
   7116.67  6.8111353E-02
   7117.00  6.4088042E-02
   7117.33  6.2762420E-02
   7117.67  6.3474087E-02
   7118.00  6.6066379E-02
   7118.33  7.0618947E-02
   7118.67  7.6894947E-02
   7119.00  8.5414582E-02
   7119.33  9.6757647E-02
   7119.67  1.0727256E-01
   7120.00  1.1208352E-01
   7120.33  1.1037899E-01
   7120.67  1.0826047E-01
   7121.00  1.0935987E-01
   7121.33  1.1579014E-01
   7121.67  1.2714792E-01
   7122.00  1.4331792E-01
   7122.33  1.6435396E-01
   7122.67  1.8870067E-01
   7123.00  2.1527018E-01
   7123.33  2.4297864E-01
   7123.67  2.7078846E-01
   7124.00  2.9835280E-01
   7124.33  3.2522220E-01
   7124.67  3.5017791E-01
   7125.00  3.7191400E-01
   7125.33  3.9056276E-01
   7125.67  4.0884809E-01
   7126.00  4.2815138E-01
   7126.33  4.4863311E-01
   7126.67  4.6980685E-01
   7127.00  4.9165005E-01
   7127.33  5.1360765E-01
   7127.67  5.3321290E-01
   7128.00  5.4754564E-01
   7128.33  5.5479655E-01
   7128.67  5.5910201E-01
   7129.00  5.6522713E-01
   7129.33  5.7866167E-01
   7129.67  6.0103610E-01
   7130.00  6.3309751E-01
   7130.33  6.7590440E-01
   7130.67  7.2623527E-01
   7131.00  7.8011360E-01
   7131.33  8.3079579E-01
   7131.67  8.7305238E-01
   7132.00  9.0483499E-01
   7132.33  9.2605566E-01
   7132.67  9.4022633E-01
   7133.00  9.4807848E-01
   7133.33  9.4782500E-01
   7133.67  9.3989265E-01
   7134.00  9.2559706E-01
   7134.33  9.0744478E-01
   7134.67  8.8891849E-01
   7135.00  8.7219113E-01
   7135.33  8.5932672E-01
   7135.67  8.5015690E-01
   7136.00  8.4390992E-01
   7136.33  8.3913693E-01
   7136.67  8.3371282E-01
   7137.00  8.2609100E-01
   7137.33  8.1450482E-01
   7137.67  7.9856571E-01
   7138.00  7.7805633E-01
   7138.33  7.5318756E-01
   7138.67  7.2621551E-01
   7139.00  6.9908512E-01
   7139.33  6.7402343E-01
   7139.67  6.5202379E-01
   7140.00  6.3345883E-01
   7140.33  6.1859008E-01
   7140.67  6.0650396E-01
   7141.00  5.9664240E-01
   7141.33  5.8850991E-01
   7141.67  5.8126557E-01
   7142.00  5.7443194E-01
   7142.33  5.6758237E-01
   7142.67  5.6045413E-01
   7143.00  5.5294403E-01
   7143.33  5.4499387E-01
   7143.67  5.3669721E-01
   7144.00  5.2809800E-01
   7144.33  5.1920953E-01
   7144.67  5.1011935E-01
   7145.00  5.0091498E-01
   7145.33  4.9179476E-01
   7145.67  4.8304427E-01
   7146.00  4.7497462E-01
   7146.33  4.6807165E-01
   7146.67  4.6247435E-01
   7147.00  4.5831409E-01
   7147.33  4.5578903E-01
   7147.67  4.5455238E-01
   7148.00  4.5434205E-01
   7148.33  4.5486703E-01
   7148.67  4.5566638E-01
   7149.00  4.5645653E-01
   7149.33  4.5696674E-01
   7149.67  4.5710716E-01
   7150.00  4.5686938E-01
   7150.33  4.5629359E-01
   7150.67  4.5554844E-01
   7151.00  4.5475547E-01
   7151.33  4.5404273E-01
   7151.67  4.5346622E-01
   7152.00  4.5302778E-01
   7152.33  4.5267980E-01
   7152.67  4.5230016E-01
   7153.00  4.5176354E-01
   7153.33  4.5087678E-01
   7153.67  4.4954579E-01
   7154.00  4.4769256E-01
   7154.33  4.4520844E-01
   7154.67  4.4217911E-01
   7155.00  4.3864932E-01
   7155.33  4.3463521E-01
   7155.67  4.3026596E-01
   7156.00  4.2560401E-01
   7156.33  4.2068778E-01
   7156.67  4.1560578E-01
   7157.00  4.1040596E-01
   7157.33  4.0513384E-01
   7157.67  3.9985058E-01
   7158.00  3.9460264E-01
   7158.33  3.8945652E-01
   7158.67  3.8445826E-01
   7159.00  3.7965966E-01
   7159.33  3.7515650E-01
   7159.67  3.7098094E-01
   7160.00  3.6718905E-01
   7160.33  3.6389994E-01
   7160.67  3.6111544E-01
   7161.00  3.5888067E-01
   7161.33  3.5730952E-01
   7161.67  3.5634548E-01
   7162.00  3.5598683E-01
   7162.33  3.5628815E-01
   7162.67  3.5713904E-01
   7163.00  3.5848519E-01
   7163.33  3.6029021E-01
   7163.67  3.6240275E-01
   7164.00  3.6472513E-01
   7164.33  3.6715815E-01
   7164.67  3.6958617E-01
   7165.00  3.7192950E-01
   7165.33  3.7409375E-01
   7165.67  3.7605053E-01
   7166.00  3.7778217E-01
   7166.33  3.7926808E-01
   7166.67  3.8056620E-01
   7167.00  3.8171559E-01
   7167.33  3.8275697E-01
   7167.67  3.8375524E-01
   7168.00  3.8475084E-01
   7168.33  3.8578547E-01
   7168.67  3.8688028E-01
   7169.00  3.8804829E-01
   7169.33  3.8930631E-01
   7169.67  3.9064403E-01
   7170.00  3.9205652E-01
   7170.33  3.9354141E-01
   7170.67  3.9507415E-01
   7171.00  3.9663216E-01
   7171.33  3.9816614E-01
   7171.67  3.9958887E-01
   7172.00  4.0077757E-01
