    FDMNES
    energy     <xanes>
   7097.00  4.4656979E-03
   7097.33  4.5637169E-03
   7097.67  4.6658752E-03
   7098.00  4.7724418E-03
   7098.33  4.8843570E-03
   7098.67  5.0014117E-03
   7099.00  5.1239717E-03
   7099.33  5.2532592E-03
   7099.67  5.3890603E-03
   7100.00  5.5318869E-03
   7100.33  5.6833722E-03
   7100.67  5.8433176E-03
   7101.00  6.0124638E-03
   7101.33  6.1930672E-03
   7101.67  6.3849891E-03
   7102.00  6.5893456E-03
   7102.33  6.8093824E-03
   7102.67  7.0451216E-03
   7103.00  7.2983280E-03
   7103.33  7.5739092E-03
   7103.67  7.8722803E-03
   7104.00  8.1964039E-03
   7104.33  8.5541771E-03
   7104.67  8.9469755E-03
   7105.00  9.3801597E-03
   7105.33  9.8674931E-03
   7105.67  1.0412816E-02
   7106.00  1.1026819E-02
   7106.33  1.1736155E-02
   7106.67  1.2551624E-02
   7107.00  1.3497540E-02
   7107.33  1.4633599E-02
   7107.67  1.5993520E-02
   7108.00  1.7644057E-02
   7108.33  1.9750816E-02
   7108.67  2.2443948E-02
   7109.00  2.5968628E-02
   7109.33  3.0971561E-02
   7109.67  3.8184225E-02
   7110.00  4.9038520E-02
   7110.33  6.7654196E-02
   7110.67  9.8445697E-02
   7111.00  1.4249779E-01
   7111.33  1.8511813E-01
   7111.67  2.1545731E-01
   7112.00  2.4754992E-01
   7112.33  2.8103872E-01
   7112.67  2.7642910E-01
   7113.00  2.2792034E-01
   7113.33  1.7330963E-01
   7113.67  1.3372288E-01
   7114.00  1.0948312E-01
   7114.33  9.7365099E-02
   7114.67  9.0331131E-02
   7115.00  8.3330116E-02
   7115.33  7.6339525E-02
   7115.67  7.2202618E-02
   7116.00  7.1017814E-02
   7116.33  7.2021777E-02
   7116.67  7.4270215E-02
   7117.00  7.7921301E-02
   7117.33  8.4109973E-02
   7117.67  9.3622634E-02
   7118.00  1.0742329E-01
   7118.33  1.2658337E-01
   7118.67  1.4745192E-01
   7119.00  1.6297272E-01
   7119.33  1.6544247E-01
   7119.67  1.6204894E-01
   7120.00  1.6170312E-01
   7120.33  1.6958005E-01
   7120.67  1.8422164E-01
   7121.00  2.0417264E-01
   7121.33  2.2852122E-01
   7121.67  2.5606909E-01
   7122.00  2.8621425E-01
   7122.33  3.1778826E-01
   7122.67  3.4877379E-01
   7123.00  3.7759954E-01
   7123.33  4.0249973E-01
   7123.67  4.2319864E-01
   7124.00  4.3952616E-01
   7124.33  4.5140001E-01
   7124.67  4.6043486E-01
   7125.00  4.6776656E-01
   7125.33  4.7404598E-01
   7125.67  4.7953269E-01
   7126.00  4.8418951E-01
   7126.33  4.8793048E-01
   7126.67  4.9123315E-01
   7127.00  4.9463062E-01
   7127.33  4.9847192E-01
   7127.67  5.0269392E-01
   7128.00  5.0753961E-01
   7128.33  5.1394791E-01
   7128.67  5.2252246E-01
   7129.00  5.3332696E-01
   7129.33  5.4554382E-01
   7129.67  5.5727679E-01
   7130.00  5.6705477E-01
   7130.33  5.7356882E-01
   7130.67  5.7730663E-01
   7131.00  5.7896912E-01
   7131.33  5.7939715E-01
   7131.67  5.7955094E-01
   7132.00  5.7998210E-01
   7132.33  5.8135821E-01
   7132.67  5.8407347E-01
   7133.00  5.8840713E-01
   7133.33  5.9454355E-01
   7133.67  6.0190907E-01
   7134.00  6.1012999E-01
   7134.33  6.1907551E-01
   7134.67  6.2852109E-01
   7135.00  6.3814942E-01
   7135.33  6.4743526E-01
   7135.67  6.5606307E-01
   7136.00  6.6390286E-01
   7136.33  6.7085375E-01
   7136.67  6.7709558E-01
   7137.00  6.8270952E-01
   7137.33  6.8768617E-01
   7137.67  6.9211381E-01
   7138.00  6.9597609E-01
   7138.33  6.9915050E-01
   7138.67  7.0165824E-01
   7139.00  7.0346150E-01
   7139.33  7.0444505E-01
   7139.67  7.0468403E-01
   7140.00  7.0415022E-01
   7140.33  7.0266925E-01
   7140.67  7.0024845E-01
   7141.00  6.9681745E-01
   7141.33  6.9225032E-01
   7141.67  6.8681818E-01
   7142.00  6.8077014E-01
   7142.33  6.7446584E-01
   7142.67  6.6833500E-01
   7143.00  6.6265990E-01
   7143.33  6.5772631E-01
   7143.67  6.5350167E-01
   7144.00  6.4992733E-01
   7144.33  6.4691548E-01
   7144.67  6.4421530E-01
   7145.00  6.4166717E-01
   7145.33  6.3907833E-01
   7145.67  6.3629995E-01
   7146.00  6.3325645E-01
   7146.33  6.2989337E-01
   7146.67  6.2629063E-01
   7147.00  6.2252073E-01
   7147.33  6.1867418E-01
   7147.67  6.1484850E-01
   7148.00  6.1109504E-01
   7148.33  6.0744158E-01
   7148.67  6.0384285E-01
   7149.00  6.0023284E-01
   7149.33  5.9648935E-01
   7149.67  5.9250576E-01
   7150.00  5.8818195E-01
   7150.33  5.8336752E-01
   7150.67  5.7805678E-01
   7151.00  5.7222882E-01
   7151.33  5.6583110E-01
   7151.67  5.5896807E-01
   7152.00  5.5168797E-01
   7152.33  5.4401254E-01
   7152.67  5.3605591E-01
   7153.00  5.2787733E-01
   7153.33  5.1952141E-01
   7153.67  5.1106583E-01
   7154.00  5.0255446E-01
   7154.33  4.9402915E-01
   7154.67  4.8552815E-01
   7155.00  4.7707906E-01
   7155.33  4.6871950E-01
   7155.67  4.6046267E-01
   7156.00  4.5232511E-01
   7156.33  4.4433768E-01
   7156.67  4.3649213E-01
   7157.00  4.2879087E-01
   7157.33  4.2124786E-01
   7157.67  4.1383671E-01
   7158.00  4.0654715E-01
   7158.33  3.9937926E-01
   7158.67  3.9231066E-01
   7159.00  3.8534206E-01
   7159.33  3.7850246E-01
   7159.67  3.7181163E-01
   7160.00  3.6531536E-01
   7160.33  3.5911702E-01
   7160.67  3.5327047E-01
   7161.00  3.4785960E-01
   7161.33  3.4305000E-01
   7161.67  3.3886642E-01
   7162.00  3.3537443E-01
   7162.33  3.3272002E-01
   7162.67  3.3083107E-01
   7163.00  3.2969103E-01
   7163.33  3.2932598E-01
   7163.67  3.2956651E-01
   7164.00  3.3032723E-01
   7164.33  3.3155264E-01
   7164.67  3.3308549E-01
   7165.00  3.3484224E-01
   7165.33  3.3675740E-01
   7165.67  3.3874886E-01
   7166.00  3.4077675E-01
   7166.33  3.4281098E-01
   7166.67  3.4483272E-01
   7167.00  3.4683346E-01
   7167.33  3.4880545E-01
   7167.67  3.5075041E-01
   7168.00  3.5266800E-01
   7168.33  3.5455480E-01
   7168.67  3.5641439E-01
   7169.00  3.5824732E-01
   7169.33  3.6005224E-01
   7169.67  3.6183489E-01
   7170.00  3.6359741E-01
   7170.33  3.6533819E-01
   7170.67  3.6705529E-01
   7171.00  3.6873642E-01
   7171.33  3.7033793E-01
   7171.67  3.7179207E-01
   7172.00  3.7299009E-01
