    FDMNES
    energy     <xanes>
   7097.00  3.9531473E-03
   7097.33  4.0306043E-03
   7097.67  4.1110681E-03
   7098.00  4.1947224E-03
   7098.33  4.2822300E-03
   7098.67  4.3734226E-03
   7099.00  4.4685456E-03
   7099.33  4.5684465E-03
   7099.67  4.6729478E-03
   7100.00  4.7823866E-03
   7100.33  4.8978735E-03
   7100.67  5.0192316E-03
   7101.00  5.1469377E-03
   7101.33  5.2824913E-03
   7101.67  5.4257381E-03
   7102.00  5.5773774E-03
   7102.33  5.7395080E-03
   7102.67  5.9120471E-03
   7103.00  6.0960662E-03
   7103.33  6.2946349E-03
   7103.67  6.5078546E-03
   7104.00  6.7374568E-03
   7104.33  6.9881847E-03
   7104.67  7.2605911E-03
   7105.00  7.5576679E-03
   7105.33  7.8872797E-03
   7105.67  8.2511132E-03
   7106.00  8.6548086E-03
   7106.33  9.1126796E-03
   7106.67  9.6294884E-03
   7107.00  1.0217198E-02
   7107.33  1.0905454E-02
   7107.67  1.1708552E-02
   7108.00  1.2656546E-02
   7108.33  1.3823746E-02
   7108.67  1.5261237E-02
   7109.00  1.7067166E-02
   7109.33  1.9494702E-02
   7109.67  2.2798467E-02
   7110.00  2.7471734E-02
   7110.33  3.4916555E-02
   7110.67  4.6837463E-02
   7111.00  6.5126164E-02
   7111.33  8.9648943E-02
   7111.67  1.1632113E-01
   7112.00  1.3847644E-01
   7112.33  1.4756363E-01
   7112.67  1.5271105E-01
   7113.00  1.5557023E-01
   7113.33  1.5543582E-01
   7113.67  1.5952433E-01
   7114.00  1.6772158E-01
   7114.33  1.7451350E-01
   7114.67  1.7387196E-01
   7115.00  1.6372248E-01
   7115.33  1.5107868E-01
   7115.67  1.4368775E-01
   7116.00  1.4243077E-01
   7116.33  1.4294730E-01
   7116.67  1.3848677E-01
   7117.00  1.2811269E-01
   7117.33  1.1581067E-01
   7117.67  1.0509969E-01
   7118.00  9.6841672E-02
   7118.33  9.1288020E-02
   7118.67  8.7785880E-02
   7119.00  8.6002774E-02
   7119.33  8.5773585E-02
   7119.67  8.6714899E-02
   7120.00  8.8729373E-02
   7120.33  9.1817968E-02
   7120.67  9.5690601E-02
   7121.00  1.0027168E-01
   7121.33  1.0576411E-01
   7121.67  1.1224300E-01
   7122.00  1.1970416E-01
   7122.33  1.2796435E-01
   7122.67  1.3652090E-01
   7123.00  1.4498772E-01
   7123.33  1.5269233E-01
   7123.67  1.5903066E-01
   7124.00  1.6384328E-01
   7124.33  1.6803869E-01
   7124.67  1.7352948E-01
   7125.00  1.8180618E-01
   7125.33  1.9439341E-01
   7125.67  2.1107356E-01
   7126.00  2.3158003E-01
   7126.33  2.5561580E-01
   7126.67  2.8190762E-01
   7127.00  3.0971132E-01
   7127.33  3.3833894E-01
   7127.67  3.6687488E-01
   7128.00  3.9442190E-01
   7128.33  4.1949885E-01
   7128.67  4.4138650E-01
   7129.00  4.5968345E-01
   7129.33  4.7397852E-01
   7129.67  4.8500143E-01
   7130.00  4.9302928E-01
   7130.33  4.9810134E-01
   7130.67  5.0106539E-01
   7131.00  5.0252893E-01
   7131.33  5.0324520E-01
   7131.67  5.0413040E-01
   7132.00  5.0578032E-01
   7132.33  5.0880609E-01
   7132.67  5.1321515E-01
   7133.00  5.1890848E-01
   7133.33  5.2565231E-01
   7133.67  5.3280433E-01
   7134.00  5.3986037E-01
   7134.33  5.4621881E-01
   7134.67  5.5161686E-01
   7135.00  5.5596068E-01
   7135.33  5.5924551E-01
   7135.67  5.6188148E-01
   7136.00  5.6417916E-01
   7136.33  5.6643906E-01
   7136.67  5.6886632E-01
   7137.00  5.7155935E-01
   7137.33  5.7462841E-01
   7137.67  5.7811860E-01
   7138.00  5.8215304E-01
   7138.33  5.8699018E-01
   7138.67  5.9268808E-01
   7139.00  5.9932555E-01
   7139.33  6.0703270E-01
   7139.67  6.1558465E-01
   7140.00  6.2480427E-01
   7140.33  6.3450573E-01
   7140.67  6.4442796E-01
   7141.00  6.5444574E-01
   7141.33  6.6447873E-01
   7141.67  6.7448870E-01
   7142.00  6.8446098E-01
   7142.33  6.9436340E-01
   7142.67  7.0414982E-01
   7143.00  7.1373894E-01
   7143.33  7.2295205E-01
   7143.67  7.3165784E-01
   7144.00  7.3969011E-01
   7144.33  7.4674083E-01
   7144.67  7.5272817E-01
   7145.00  7.5750280E-01
   7145.33  7.6074495E-01
   7145.67  7.6251006E-01
   7146.00  7.6273491E-01
   7146.33  7.6120151E-01
   7146.67  7.5814694E-01
   7147.00  7.5366273E-01
   7147.33  7.4775955E-01
   7147.67  7.4081731E-01
   7148.00  7.3305494E-01
   7148.33  7.2467210E-01
   7148.67  7.1600178E-01
   7149.00  7.0724194E-01
   7149.33  6.9855281E-01
   7149.67  6.9000863E-01
   7150.00  6.8165532E-01
   7150.33  6.7355289E-01
   7150.67  6.6568332E-01
   7151.00  6.5804021E-01
   7151.33  6.5062928E-01
   7151.67  6.4339735E-01
   7152.00  6.3631940E-01
   7152.33  6.2938334E-01
   7152.67  6.2255042E-01
   7153.00  6.1580647E-01
   7153.33  6.0915118E-01
   7153.67  6.0257148E-01
   7154.00  5.9606972E-01
   7154.33  5.8966361E-01
   7154.67  5.8335347E-01
   7155.00  5.7715098E-01
   7155.33  5.7108605E-01
   7155.67  5.6515794E-01
   7156.00  5.5937806E-01
   7156.33  5.5377753E-01
   7156.67  5.4834547E-01
   7157.00  5.4308790E-01
   7157.33  5.3803413E-01
   7157.67  5.3316807E-01
   7158.00  5.2849262E-01
   7158.33  5.2402924E-01
   7158.67  5.1974579E-01
   7159.00  5.1562967E-01
   7159.33  5.1167774E-01
   7159.67  5.0784278E-01
   7160.00  5.0409467E-01
   7160.33  5.0039930E-01
   7160.67  4.9670505E-01
   7161.00  4.9297032E-01
   7161.33  4.8913828E-01
   7161.67  4.8518099E-01
   7162.00  4.8107440E-01
   7162.33  4.7678427E-01
   7162.67  4.7233532E-01
   7163.00  4.6774640E-01
   7163.33  4.6304261E-01
   7163.67  4.5828864E-01
   7164.00  4.5353702E-01
   7164.33  4.4886257E-01
   7164.67  4.4432504E-01
   7165.00  4.3998234E-01
   7165.33  4.3593016E-01
   7165.67  4.3219314E-01
   7166.00  4.2881375E-01
   7166.33  4.2588307E-01
   7166.67  4.2338324E-01
   7167.00  4.2133408E-01
   7167.33  4.1980780E-01
   7167.67  4.1875132E-01
   7168.00  4.1816217E-01
   7168.33  4.1808728E-01
   7168.67  4.1845205E-01
   7169.00  4.1923635E-01
   7169.33  4.2045997E-01
   7169.67  4.2203860E-01
   7170.00  4.2393596E-01
   7170.33  4.2613511E-01
   7170.67  4.2853929E-01
   7171.00  4.3107751E-01
   7171.33  4.3363281E-01
   7171.67  4.3601313E-01
   7172.00  4.3798508E-01
