    FDMNES
    energy     <xanes>
   7097.00  4.5137642E-03
   7097.33  4.6212375E-03
   7097.67  4.7339152E-03
   7098.00  4.8521887E-03
   7098.33  4.9773310E-03
   7098.67  5.1091540E-03
   7099.00  5.2482112E-03
   7099.33  5.3962258E-03
   7099.67  5.5530332E-03
   7100.00  5.7194417E-03
   7100.33  5.8978610E-03
   7100.67  6.0882001E-03
   7101.00  6.2916842E-03
   7101.33  6.5118159E-03
   7101.67  6.7486869E-03
   7102.00  7.0042393E-03
   7102.33  7.2838053E-03
   7102.67  7.5879046E-03
   7103.00  7.9197861E-03
   7103.33  8.2880379E-03
   7103.67  8.6941871E-03
   7104.00  9.1440401E-03
   7104.33  9.6524351E-03
   7104.67  1.0223375E-02
   7105.00  1.0868140E-02
   7105.33  1.1614775E-02
   7105.67  1.2473867E-02
   7106.00  1.3469856E-02
   7106.33  1.4662442E-02
   7106.67  1.6081996E-02
   7107.00  1.7789939E-02
   7107.33  1.9936186E-02
   7107.67  2.2622432E-02
   7108.00  2.6039846E-02
   7108.33  3.0668830E-02
   7108.67  3.6950894E-02
   7109.00  4.5712162E-02
   7109.33  5.9211270E-02
   7109.67  8.0366574E-02
   7110.00  1.1500457E-01
   7110.33  1.8009014E-01
   7110.67  2.8989315E-01
   7111.00  4.2018696E-01
   7111.33  4.3496132E-01
   7111.67  3.5825582E-01
   7112.00  2.8946236E-01
   7112.33  2.4516815E-01
   7112.67  2.0262679E-01
   7113.00  1.6115059E-01
   7113.33  1.2639472E-01
   7113.67  1.0109950E-01
   7114.00  8.4431853E-02
   7114.33  7.5123690E-02
   7114.67  7.0292726E-02
   7115.00  6.6453304E-02
   7115.33  6.0467653E-02
   7115.67  5.5319590E-02
   7116.00  5.1823777E-02
   7116.33  4.8243991E-02
   7116.67  4.4516846E-02
   7117.00  4.1640452E-02
   7117.33  4.0226408E-02
   7117.67  3.9973259E-02
   7118.00  4.0680615E-02
   7118.33  4.2267075E-02
   7118.67  4.4550027E-02
   7119.00  4.7557021E-02
   7119.33  5.1587257E-02
   7119.67  5.6883288E-02
   7120.00  6.3841987E-02
   7120.33  7.3256810E-02
   7120.67  8.5536807E-02
   7121.00  1.0117909E-01
   7121.33  1.1814813E-01
   7121.67  1.2787916E-01
   7122.00  1.2480615E-01
   7122.33  1.1505701E-01
   7122.67  1.0844367E-01
   7123.00  1.0752726E-01
   7123.33  1.1324286E-01
   7123.67  1.2452682E-01
   7124.00  1.4138313E-01
   7124.33  1.6501487E-01
   7124.67  1.9533468E-01
   7125.00  2.3251599E-01
   7125.33  2.7535880E-01
   7125.67  3.1741829E-01
   7126.00  3.5201122E-01
   7126.33  3.7429457E-01
   7126.67  3.8706994E-01
   7127.00  3.9059803E-01
   7127.33  3.8329074E-01
   7127.67  3.7092483E-01
   7128.00  3.6019607E-01
   7128.33  3.5746365E-01
   7128.67  3.6351583E-01
   7129.00  3.7807839E-01
   7129.33  4.0162811E-01
   7129.67  4.3255002E-01
   7130.00  4.7021563E-01
   7130.33  5.1491915E-01
   7130.67  5.6605855E-01
   7131.00  6.2453063E-01
   7131.33  6.9287228E-01
   7131.67  7.6835463E-01
   7132.00  8.4025052E-01
   7132.33  8.7858410E-01
   7132.67  8.7554587E-01
   7133.00  8.5211590E-01
   7133.33  8.3796229E-01
   7133.67  8.4230500E-01
   7134.00  8.6546665E-01
   7134.33  9.0985038E-01
   7134.67  9.7531426E-01
   7135.00  1.0636417E+00
   7135.33  1.1702853E+00
   7135.67  1.2624520E+00
   7136.00  1.2949705E+00
   7136.33  1.2304127E+00
   7136.67  1.1148377E+00
   7137.00  9.9264723E-01
   7137.33  8.9252908E-01
   7137.67  8.1539423E-01
   7138.00  7.5750327E-01
   7138.33  7.1557683E-01
   7138.67  6.8393994E-01
   7139.00  6.6028503E-01
   7139.33  6.4359294E-01
   7139.67  6.3195002E-01
   7140.00  6.2471752E-01
   7140.33  6.2188842E-01
   7140.67  6.2264649E-01
   7141.00  6.2679169E-01
   7141.33  6.3453133E-01
   7141.67  6.4526482E-01
   7142.00  6.5876434E-01
   7142.33  6.7490796E-01
   7142.67  6.9271545E-01
   7143.00  7.1131399E-01
   7143.33  7.2928652E-01
   7143.67  7.4511421E-01
   7144.00  7.5737951E-01
   7144.33  7.6402993E-01
   7144.67  7.6485719E-01
   7145.00  7.5981454E-01
   7145.33  7.4897298E-01
   7145.67  7.3427396E-01
   7146.00  7.1701484E-01
   7146.33  6.9847493E-01
   7146.67  6.7993158E-01
   7147.00  6.6208098E-01
   7147.33  6.4556184E-01
   7147.67  6.3042024E-01
   7148.00  6.1666198E-01
   7148.33  6.0432827E-01
   7148.67  5.9305761E-01
   7149.00  5.8264968E-01
   7149.33  5.7293180E-01
   7149.67  5.6356893E-01
   7150.00  5.5435118E-01
   7150.33  5.4504988E-01
   7150.67  5.3548901E-01
   7151.00  5.2553998E-01
   7151.33  5.1502312E-01
   7151.67  5.0392471E-01
   7152.00  4.9221341E-01
   7152.33  4.7978789E-01
   7152.67  4.6671425E-01
   7153.00  4.5299564E-01
   7153.33  4.3857778E-01
   7153.67  4.2360449E-01
   7154.00  4.0818819E-01
   7154.33  3.9246419E-01
   7154.67  3.7667274E-01
   7155.00  3.6103137E-01
   7155.33  3.4588351E-01
   7155.67  3.3147478E-01
   7156.00  3.1804730E-01
   7156.33  3.0598591E-01
   7156.67  2.9529962E-01
   7157.00  2.8606369E-01
   7157.33  2.7848013E-01
   7157.67  2.7232263E-01
   7158.00  2.6751965E-01
   7158.33  2.6411821E-01
   7158.67  2.6184014E-01
   7159.00  2.6057728E-01
   7159.33  2.6031719E-01
   7159.67  2.6083169E-01
   7160.00  2.6202909E-01
   7160.33  2.6388626E-01
   7160.67  2.6624337E-01
   7161.00  2.6903570E-01
   7161.33  2.7224817E-01
   7161.67  2.7579157E-01
   7162.00  2.7964631E-01
   7162.33  2.8384001E-01
   7162.67  2.8832828E-01
   7163.00  2.9309786E-01
   7163.33  2.9814089E-01
   7163.67  3.0334953E-01
   7164.00  3.0861900E-01
   7164.33  3.1377429E-01
   7164.67  3.1864315E-01
   7165.00  3.2307471E-01
   7165.33  3.2686427E-01
   7165.67  3.3001783E-01
   7166.00  3.3253970E-01
   7166.33  3.3442809E-01
   7166.67  3.3587141E-01
   7167.00  3.3699237E-01
   7167.33  3.3791875E-01
   7167.67  3.3881463E-01
   7168.00  3.3978934E-01
   7168.33  3.4097471E-01
   7168.67  3.4243302E-01
   7169.00  3.4421833E-01
   7169.33  3.4641673E-01
   7169.67  3.4899759E-01
   7170.00  3.5195322E-01
   7170.33  3.5529012E-01
   7170.67  3.5889740E-01
   7171.00  3.6268452E-01
   7171.33  3.6649094E-01
   7171.67  3.7004616E-01
   7172.00  3.7301758E-01
