    FDMNES
    energy     <xanes>
   7097.00  4.6243403E-03
   7097.33  4.7370335E-03
   7097.67  4.8552546E-03
   7098.00  4.9794189E-03
   7098.33  5.1108766E-03
   7098.67  5.2494259E-03
   7099.00  5.3956516E-03
   7099.33  5.5513769E-03
   7099.67  5.7164211E-03
   7100.00  5.8916335E-03
   7100.33  6.0795540E-03
   7100.67  6.2800714E-03
   7101.00  6.4944647E-03
   7101.33  6.7264038E-03
   7101.67  6.9759538E-03
   7102.00  7.2451236E-03
   7102.33  7.5394548E-03
   7102.67  7.8594243E-03
   7103.00  8.2083540E-03
   7103.33  8.5950698E-03
   7103.67  9.0210109E-03
   7104.00  9.4920243E-03
   7104.33  1.0023130E-02
   7104.67  1.0618096E-02
   7105.00  1.1288061E-02
   7105.33  1.2060831E-02
   7105.67  1.2946245E-02
   7106.00  1.3967801E-02
   7106.33  1.5183037E-02
   7106.67  1.6619486E-02
   7107.00  1.8334116E-02
   7107.33  2.0465753E-02
   7107.67  2.3103079E-02
   7108.00  2.6414620E-02
   7108.33  3.0820298E-02
   7108.67  3.6683033E-02
   7109.00  4.4679693E-02
   7109.33  5.6625729E-02
   7109.67  7.4728852E-02
   7110.00  1.0334126E-01
   7110.33  1.5507187E-01
   7110.67  2.4251116E-01
   7111.00  3.6343627E-01
   7111.33  4.6861062E-01
   7111.67  4.9394265E-01
   7112.00  4.2171105E-01
   7112.33  3.3490824E-01
   7112.67  2.7489218E-01
   7113.00  2.2687696E-01
   7113.33  1.8183754E-01
   7113.67  1.4294079E-01
   7114.00  1.1288084E-01
   7114.33  9.3428536E-02
   7114.67  8.1566118E-02
   7115.00  7.5141420E-02
   7115.33  6.9886653E-02
   7115.67  6.2936067E-02
   7116.00  5.6615065E-02
   7116.33  5.2656439E-02
   7116.67  4.9337382E-02
   7117.00  4.5798693E-02
   7117.33  4.2809910E-02
   7117.67  4.0954301E-02
   7118.00  4.0252495E-02
   7118.33  4.0665141E-02
   7118.67  4.1916411E-02
   7119.00  4.3926949E-02
   7119.33  4.6787137E-02
   7119.67  5.0537884E-02
   7120.00  5.5439631E-02
   7120.33  6.2174414E-02
   7120.67  7.1192076E-02
   7121.00  8.3225658E-02
   7121.33  9.9643747E-02
   7121.67  1.1894083E-01
   7122.00  1.3561130E-01
   7122.33  1.3936971E-01
   7122.67  1.3285218E-01
   7123.00  1.2396466E-01
   7123.33  1.1936628E-01
   7123.67  1.2001697E-01
   7124.00  1.2592834E-01
   7124.33  1.3781591E-01
   7124.67  1.5533531E-01
   7125.00  1.7905238E-01
   7125.33  2.1073087E-01
   7125.67  2.4981589E-01
   7126.00  2.9453974E-01
   7126.33  3.3768608E-01
   7126.67  3.6967836E-01
   7127.00  3.8741835E-01
   7127.33  3.9290115E-01
   7127.67  3.9032503E-01
   7128.00  3.8247160E-01
   7128.33  3.7586902E-01
   7128.67  3.7558012E-01
   7129.00  3.8331387E-01
   7129.33  4.0053202E-01
   7129.67  4.2546892E-01
   7130.00  4.5678551E-01
   7130.33  4.9357610E-01
   7130.67  5.3452218E-01
   7131.00  5.7984432E-01
   7131.33  6.3121746E-01
   7131.67  6.8908318E-01
   7132.00  7.5301546E-01
   7132.33  8.1611585E-01
   7132.67  8.6079709E-01
   7133.00  8.7344438E-01
   7133.33  8.6104135E-01
   7133.67  8.5089280E-01
   7134.00  8.5477173E-01
   7134.33  8.7806407E-01
   7134.67  9.1973583E-01
   7135.00  9.8231605E-01
   7135.33  1.0723825E+00
   7135.67  1.1830710E+00
   7136.00  1.2923568E+00
   7136.33  1.3392353E+00
   7136.67  1.2923666E+00
   7137.00  1.1753291E+00
   7137.33  1.0436418E+00
   7137.67  9.3158260E-01
   7138.00  8.4455481E-01
   7138.33  7.8134476E-01
   7138.67  7.3372571E-01
   7139.00  6.9785657E-01
   7139.33  6.7167984E-01
   7139.67  6.5209558E-01
   7140.00  6.3797925E-01
   7140.33  6.2906087E-01
   7140.67  6.2424787E-01
   7141.00  6.2327313E-01
   7141.33  6.2640144E-01
   7141.67  6.3303536E-01
   7142.00  6.4302463E-01
   7142.33  6.5646783E-01
   7142.67  6.7249412E-01
   7143.00  6.9041138E-01
   7143.33  7.0906286E-01
   7143.67  7.2667645E-01
   7144.00  7.4157417E-01
   7144.33  7.5129631E-01
   7144.67  7.5505472E-01
   7145.00  7.5239045E-01
   7145.33  7.4295112E-01
   7145.67  7.2870042E-01
   7146.00  7.1102527E-01
   7146.33  6.9134929E-01
   7146.67  6.7129881E-01
   7147.00  6.5177726E-01
   7147.33  6.3362402E-01
   7147.67  6.1703946E-01
   7148.00  6.0212953E-01
   7148.33  5.8905855E-01
   7148.67  5.7746163E-01
   7149.00  5.6715657E-01
   7149.33  5.5803687E-01
   7149.67  5.4971609E-01
   7150.00  5.4198091E-01
   7150.33  5.3463905E-01
   7150.67  5.2742656E-01
   7151.00  5.2016830E-01
   7151.33  5.1264515E-01
   7151.67  5.0471332E-01
   7152.00  4.9624123E-01
   7152.33  4.8701728E-01
   7152.67  4.7703478E-01
   7153.00  4.6624969E-01
   7153.33  4.5453540E-01
   7153.67  4.4200658E-01
   7154.00  4.2871269E-01
   7154.33  4.1467917E-01
   7154.67  4.0016325E-01
   7155.00  3.8537312E-01
   7155.33  3.7057053E-01
   7155.67  3.5602833E-01
   7156.00  3.4198192E-01
   7156.33  3.2878125E-01
   7156.67  3.1655009E-01
   7157.00  3.0543430E-01
   7157.33  2.9569763E-01
   7157.67  2.8723495E-01
   7158.00  2.8004481E-01
   7158.33  2.7424010E-01
   7158.67  2.6959607E-01
   7159.00  2.6603669E-01
   7159.33  2.6358700E-01
   7159.67  2.6202461E-01
   7160.00  2.6126890E-01
   7160.33  2.6132490E-01
   7160.67  2.6203066E-01
   7161.00  2.6333708E-01
   7161.33  2.6527273E-01
   7161.67  2.6774326E-01
   7162.00  2.7073847E-01
   7162.33  2.7431900E-01
   7162.67  2.7841996E-01
   7163.00  2.8303528E-01
   7163.33  2.8819229E-01
   7163.67  2.9374971E-01
   7164.00  2.9958784E-01
   7164.33  3.0552034E-01
   7164.67  3.1129982E-01
   7165.00  3.1672193E-01
   7165.33  3.2152120E-01
   7165.67  3.2564827E-01
   7166.00  3.2907447E-01
   7166.33  3.3176306E-01
   7166.67  3.3390323E-01
   7167.00  3.3561466E-01
   7167.33  3.3701124E-01
   7167.67  3.3826975E-01
   7168.00  3.3949697E-01
   7168.33  3.4080545E-01
   7168.67  3.4226742E-01
   7169.00  3.4393515E-01
   7169.33  3.4588153E-01
   7169.67  3.4809780E-01
   7170.00  3.5058684E-01
   7170.33  3.5336361E-01
   7170.67  3.5635319E-01
   7171.00  3.5949107E-01
   7171.33  3.6265347E-01
   7171.67  3.6561729E-01
   7172.00  3.6810267E-01
