    FDMNES
    energy     <xanes>
   7097.00  4.5438422E-03
   7097.33  4.6441811E-03
   7097.67  4.7490171E-03
   7098.00  4.8586569E-03
   7098.33  4.9741454E-03
   7098.67  5.0952733E-03
   7099.00  5.2224600E-03
   7099.33  5.3570752E-03
   7099.67  5.4989067E-03
   7100.00  5.6485431E-03
   7100.33  5.8078286E-03
   7100.67  5.9765702E-03
   7101.00  6.1556209E-03
   7101.33  6.3475429E-03
   7101.67  6.5522119E-03
   7102.00  6.7709112E-03
   7102.33  7.0073382E-03
   7102.67  7.2615469E-03
   7103.00  7.5355582E-03
   7103.33  7.8349593E-03
   7103.67  8.1602337E-03
   7104.00  8.5147452E-03
   7104.33  8.9074396E-03
   7104.67  9.3398324E-03
   7105.00  9.8179299E-03
   7105.33  1.0357156E-02
   7105.67  1.0961626E-02
   7106.00  1.1643094E-02
   7106.33  1.2430892E-02
   7106.67  1.3336325E-02
   7107.00  1.4385433E-02
   7107.33  1.5642152E-02
   7107.67  1.7140827E-02
   7108.00  1.8950475E-02
   7108.33  2.1241758E-02
   7108.67  2.4142503E-02
   7109.00  2.7894546E-02
   7109.33  3.3129643E-02
   7109.67  4.0531857E-02
   7110.00  5.1433726E-02
   7110.33  6.9652458E-02
   7110.67  9.9516950E-02
   7111.00  1.4388308E-01
   7111.33  1.9522069E-01
   7111.67  2.3812133E-01
   7112.00  2.6972117E-01
   7112.33  2.9249190E-01
   7112.67  3.0368923E-01
   7113.00  3.0106196E-01
   7113.33  2.8658127E-01
   7113.67  2.6705229E-01
   7114.00  2.4846339E-01
   7114.33  2.2869514E-01
   7114.67  2.0138807E-01
   7115.00  1.7092633E-01
   7115.33  1.4612350E-01
   7115.67  1.2840452E-01
   7116.00  1.1668289E-01
   7116.33  1.1000380E-01
   7116.67  1.0682403E-01
   7117.00  1.0662900E-01
   7117.33  1.0908835E-01
   7117.67  1.1341133E-01
   7118.00  1.1967678E-01
   7118.33  1.2848569E-01
   7118.67  1.3962851E-01
   7119.00  1.5294718E-01
   7119.33  1.6819669E-01
   7119.67  1.8438106E-01
   7120.00  2.0046218E-01
   7120.33  2.1434835E-01
   7120.67  2.2456119E-01
   7121.00  2.3087038E-01
   7121.33  2.3414458E-01
   7121.67  2.3604213E-01
   7122.00  2.3752171E-01
   7122.33  2.4091036E-01
   7122.67  2.4850039E-01
   7123.00  2.6140579E-01
   7123.33  2.7999583E-01
   7123.67  3.0188069E-01
   7124.00  3.2457780E-01
   7124.33  3.4436696E-01
   7124.67  3.5869466E-01
   7125.00  3.6649174E-01
   7125.33  3.6792551E-01
   7125.67  3.6594717E-01
   7126.00  3.6242133E-01
   7126.33  3.5864126E-01
   7126.67  3.5522483E-01
   7127.00  3.5258629E-01
   7127.33  3.5147267E-01
   7127.67  3.5205579E-01
   7128.00  3.5427813E-01
   7128.33  3.5796452E-01
   7128.67  3.6248437E-01
   7129.00  3.6738672E-01
   7129.33  3.7219054E-01
   7129.67  3.7672083E-01
   7130.00  3.8105856E-01
   7130.33  3.8510656E-01
   7130.67  3.8835732E-01
   7131.00  3.9027036E-01
   7131.33  3.9054682E-01
   7131.67  3.8992861E-01
   7132.00  3.8909483E-01
   7132.33  3.8853116E-01
   7132.67  3.8816899E-01
   7133.00  3.8779154E-01
   7133.33  3.8706873E-01
   7133.67  3.8579444E-01
   7134.00  3.8391653E-01
   7134.33  3.8155403E-01
   7134.67  3.7905102E-01
   7135.00  3.7664553E-01
   7135.33  3.7462331E-01
   7135.67  3.7317121E-01
   7136.00  3.7247465E-01
   7136.33  3.7282480E-01
   7136.67  3.7419290E-01
   7137.00  3.7655259E-01
   7137.33  3.7985434E-01
   7137.67  3.8372384E-01
   7138.00  3.8786248E-01
   7138.33  3.9187751E-01
   7138.67  3.9542059E-01
   7139.00  3.9824220E-01
   7139.33  4.0007744E-01
   7139.67  4.0106869E-01
   7140.00  4.0138663E-01
   7140.33  4.0128268E-01
   7140.67  4.0111828E-01
   7141.00  4.0112392E-01
   7141.33  4.0155031E-01
   7141.67  4.0249316E-01
   7142.00  4.0403368E-01
   7142.33  4.0632103E-01
   7142.67  4.0931735E-01
   7143.00  4.1302551E-01
   7143.33  4.1747077E-01
   7143.67  4.2244066E-01
   7144.00  4.2776426E-01
   7144.33  4.3320556E-01
   7144.67  4.3849087E-01
   7145.00  4.4343324E-01
   7145.33  4.4785198E-01
   7145.67  4.5181228E-01
   7146.00  4.5542488E-01
   7146.33  4.5890990E-01
   7146.67  4.6259533E-01
   7147.00  4.6677923E-01
   7147.33  4.7191673E-01
   7147.67  4.7823492E-01
   7148.00  4.8599684E-01
   7148.33  4.9568884E-01
   7148.67  5.0731944E-01
   7149.00  5.2102722E-01
   7149.33  5.3715654E-01
   7149.67  5.5538265E-01
   7150.00  5.7551915E-01
   7150.33  5.9734309E-01
   7150.67  6.2003766E-01
   7151.00  6.4290919E-01
   7151.33  6.6495297E-01
   7151.67  6.8535191E-01
   7152.00  7.0343052E-01
   7152.33  7.1826347E-01
   7152.67  7.2993766E-01
   7153.00  7.3845092E-01
   7153.33  7.4366442E-01
   7153.67  7.4634601E-01
   7154.00  7.4690156E-01
   7154.33  7.4558306E-01
   7154.67  7.4301896E-01
   7155.00  7.3952996E-01
   7155.33  7.3535739E-01
   7155.67  7.3083128E-01
   7156.00  7.2612286E-01
   7156.33  7.2138135E-01
   7156.67  7.1672155E-01
   7157.00  7.1221083E-01
   7157.33  7.0792413E-01
   7157.67  7.0385912E-01
   7158.00  7.0001545E-01
   7158.33  6.9639779E-01
   7158.67  6.9294406E-01
   7159.00  6.8961403E-01
   7159.33  6.8636573E-01
   7159.67  6.8314131E-01
   7160.00  6.7990507E-01
   7160.33  6.7661914E-01
   7160.67  6.7326690E-01
   7161.00  6.6983626E-01
   7161.33  6.6630702E-01
   7161.67  6.6268333E-01
   7162.00  6.5895968E-01
   7162.33  6.5511533E-01
   7162.67  6.5115526E-01
   7163.00  6.4707146E-01
   7163.33  6.4283846E-01
   7163.67  6.3847198E-01
   7164.00  6.3398117E-01
   7164.33  6.2936864E-01
   7164.67  6.2466704E-01
   7165.00  6.1989580E-01
   7165.33  6.1507624E-01
   7165.67  6.1024515E-01
   7166.00  6.0543530E-01
   7166.33  6.0069960E-01
   7166.67  5.9607910E-01
   7167.00  5.9161829E-01
   7167.33  5.8739617E-01
   7167.67  5.8343799E-01
   7168.00  5.7978628E-01
   7168.33  5.7653002E-01
   7168.67  5.7366372E-01
   7169.00  5.7121381E-01
   7169.33  5.6925577E-01
   7169.67  5.6774343E-01
   7170.00  5.6667361E-01
   7170.33  5.6608188E-01
   7170.67  5.6588024E-01
   7171.00  5.6602162E-01
   7171.33  5.6645466E-01
   7171.67  5.6701489E-01
   7172.00  5.6754313E-01
