    FDMNES
    energy     <xanes>
   7097.00  3.8930535E-03
   7097.33  3.9665195E-03
   7097.67  4.0428055E-03
   7098.00  4.1220845E-03
   7098.33  4.2049793E-03
   7098.67  4.2913333E-03
   7099.00  4.3813780E-03
   7099.33  4.4759110E-03
   7099.67  4.5747675E-03
   7100.00  4.6782658E-03
   7100.33  4.7874525E-03
   7100.67  4.9021635E-03
   7101.00  5.0228494E-03
   7101.33  5.1509243E-03
   7101.67  5.2862450E-03
   7102.00  5.4294716E-03
   7102.33  5.5825822E-03
   7102.67  5.7454983E-03
   7103.00  5.9192271E-03
   7103.33  6.1066532E-03
   7103.67  6.3078609E-03
   7104.00  6.5244631E-03
   7104.33  6.7608841E-03
   7104.67  7.0175957E-03
   7105.00  7.2973384E-03
   7105.33  7.6073348E-03
   7105.67  7.9489901E-03
   7106.00  8.3273173E-03
   7106.33  8.7550754E-03
   7106.67  9.2360465E-03
   7107.00  9.7803155E-03
   7107.33  1.0412878E-02
   7107.67  1.1144190E-02
   7108.00  1.1997331E-02
   7108.33  1.3028770E-02
   7108.67  1.4270913E-02
   7109.00  1.5787420E-02
   7109.33  1.7736226E-02
   7109.67  2.0243109E-02
   7110.00  2.3545378E-02
   7110.33  2.8271668E-02
   7110.67  3.5120612E-02
   7111.00  4.5323176E-02
   7111.33  6.1486931E-02
   7111.67  8.4724554E-02
   7112.00  1.1862083E-01
   7112.33  1.7171284E-01
   7112.67  2.4418074E-01
   7113.00  3.0825737E-01
   7113.33  3.0501330E-01
   7113.67  2.4625675E-01
   7114.00  1.7378834E-01
   7114.33  1.2453254E-01
   7114.67  9.4954281E-02
   7115.00  7.8775861E-02
   7115.33  7.2445375E-02
   7115.67  7.1018250E-02
   7116.00  6.9757565E-02
   7116.33  6.4637732E-02
   7116.67  5.7557362E-02
   7117.00  5.0817938E-02
   7117.33  4.6134558E-02
   7117.67  4.2886703E-02
   7118.00  4.0478488E-02
   7118.33  3.8872147E-02
   7118.67  3.7967600E-02
   7119.00  3.7686635E-02
   7119.33  3.8012953E-02
   7119.67  3.8841908E-02
   7120.00  4.0183545E-02
   7120.33  4.2164473E-02
   7120.67  4.4822393E-02
   7121.00  4.8283117E-02
   7121.33  5.2871618E-02
   7121.67  5.8729876E-02
   7122.00  6.6083707E-02
   7122.33  7.5264115E-02
   7122.67  8.5940942E-02
   7123.00  9.7880451E-02
   7123.33  1.1102729E-01
   7123.67  1.2511993E-01
   7124.00  1.3998855E-01
   7124.33  1.5566466E-01
   7124.67  1.7216053E-01
   7125.00  1.8956342E-01
   7125.33  2.0831036E-01
   7125.67  2.2896267E-01
   7126.00  2.5245276E-01
   7126.33  2.8041425E-01
   7126.67  3.1315436E-01
   7127.00  3.5101428E-01
   7127.33  3.9481041E-01
   7127.67  4.4391581E-01
   7128.00  4.9802537E-01
   7128.33  5.5554138E-01
   7128.67  6.1067845E-01
   7129.00  6.5652211E-01
   7129.33  6.8438343E-01
   7129.67  6.9413237E-01
   7130.00  6.8841699E-01
   7130.33  6.7294714E-01
   7130.67  6.5388703E-01
   7131.00  6.3163480E-01
   7131.33  6.0434206E-01
   7131.67  5.7363845E-01
   7132.00  5.4297069E-01
   7132.33  5.1716386E-01
   7132.67  4.9774286E-01
   7133.00  4.8452533E-01
   7133.33  4.7675534E-01
   7133.67  4.7225606E-01
   7134.00  4.6994350E-01
   7134.33  4.6911804E-01
   7134.67  4.6906516E-01
   7135.00  4.6945848E-01
   7135.33  4.6999305E-01
   7135.67  4.7040189E-01
   7136.00  4.7059831E-01
   7136.33  4.7058013E-01
   7136.67  4.7048309E-01
   7137.00  4.7044857E-01
   7137.33  4.7068114E-01
   7137.67  4.7129198E-01
   7138.00  4.7235054E-01
   7138.33  4.7393420E-01
   7138.67  4.7596413E-01
   7139.00  4.7842201E-01
   7139.33  4.8138155E-01
   7139.67  4.8489830E-01
   7140.00  4.8910952E-01
   7140.33  4.9421747E-01
   7140.67  5.0013993E-01
   7141.00  5.0682353E-01
   7141.33  5.1418897E-01
   7141.67  5.2190602E-01
   7142.00  5.2969556E-01
   7142.33  5.3713224E-01
   7142.67  5.4385204E-01
   7143.00  5.4956972E-01
   7143.33  5.5386278E-01
   7143.67  5.5669643E-01
   7144.00  5.5798002E-01
   7144.33  5.5752869E-01
   7144.67  5.5567816E-01
   7145.00  5.5264101E-01
   7145.33  5.4861231E-01
   7145.67  5.4406024E-01
   7146.00  5.3929804E-01
   7146.33  5.3464892E-01
   7146.67  5.3032703E-01
   7147.00  5.2645788E-01
   7147.33  5.2318665E-01
   7147.67  5.2047611E-01
   7148.00  5.1833205E-01
   7148.33  5.1683145E-01
   7148.67  5.1592293E-01
   7149.00  5.1564200E-01
   7149.33  5.1612641E-01
   7149.67  5.1733352E-01
   7150.00  5.1929515E-01
   7150.33  5.2215594E-01
   7150.67  5.2586289E-01
   7151.00  5.3044990E-01
   7151.33  5.3605628E-01
   7151.67  5.4257711E-01
   7152.00  5.5000561E-01
   7152.33  5.5842692E-01
   7152.67  5.6768207E-01
   7153.00  5.7773150E-01
   7153.33  5.8864792E-01
   7153.67  6.0032507E-01
   7154.00  6.1275905E-01
   7154.33  6.2603574E-01
   7154.67  6.4003183E-01
   7155.00  6.5468457E-01
   7155.33  6.6991599E-01
   7155.67  6.8541738E-01
   7156.00  7.0088128E-01
   7156.33  7.1577224E-01
   7156.67  7.2958894E-01
   7157.00  7.4182007E-01
   7157.33  7.5165901E-01
   7157.67  7.5898593E-01
   7158.00  7.6365418E-01
   7158.33  7.6540777E-01
   7158.67  7.6485929E-01
   7159.00  7.6237277E-01
   7159.33  7.5824042E-01
   7159.67  7.5310082E-01
   7160.00  7.4729130E-01
   7160.33  7.4107949E-01
   7160.67  7.3473574E-01
   7161.00  7.2839112E-01
   7161.33  7.2214718E-01
   7161.67  7.1603011E-01
   7162.00  7.1004176E-01
   7162.33  7.0417266E-01
   7162.67  6.9837078E-01
   7163.00  6.9259810E-01
   7163.33  6.8681079E-01
   7163.67  6.8097613E-01
   7164.00  6.7507239E-01
   7164.33  6.6907029E-01
   7164.67  6.6296702E-01
   7165.00  6.5675246E-01
   7165.33  6.5040048E-01
   7165.67  6.4391728E-01
   7166.00  6.3729754E-01
   7166.33  6.3052203E-01
   7166.67  6.2361327E-01
   7167.00  6.1658062E-01
   7167.33  6.0942441E-01
   7167.67  6.0217603E-01
   7168.00  5.9485384E-01
   7168.33  5.8747641E-01
   7168.67  5.8007915E-01
   7169.00  5.7269139E-01
   7169.33  5.6535783E-01
   7169.67  5.5811673E-01
   7170.00  5.5101170E-01
   7170.33  5.4412552E-01
   7170.67  5.3750494E-01
   7171.00  5.3122857E-01
   7171.33  5.2548865E-01
   7171.67  5.2044393E-01
   7172.00  5.1636344E-01
