    FDMNES
    energy     <xanes>
   7097.00  4.1090922E-03
   7097.33  4.1948413E-03
   7097.67  4.2842771E-03
   7098.00  4.3776491E-03
   7098.33  4.4758117E-03
   7098.67  4.5785917E-03
   7099.00  4.6863313E-03
   7099.33  4.8001514E-03
   7099.67  4.9198779E-03
   7100.00  5.0459930E-03
   7100.33  5.1800081E-03
   7100.67  5.3217674E-03
   7101.00  5.4719724E-03
   7101.33  5.6327276E-03
   7101.67  5.8039373E-03
   7102.00  5.9866607E-03
   7102.33  6.1839424E-03
   7102.67  6.3958380E-03
   7103.00  6.6240191E-03
   7103.33  6.8730961E-03
   7103.67  7.1434812E-03
   7104.00  7.4379557E-03
   7104.33  7.7639013E-03
   7104.67  8.1225684E-03
   7105.00  8.5188965E-03
   7105.33  8.9655503E-03
   7105.67  9.4658320E-03
   7106.00  1.0029264E-02
   7106.33  1.0679580E-02
   7106.67  1.1425500E-02
   7107.00  1.2287455E-02
   7107.33  1.3315414E-02
   7107.67  1.4534219E-02
   7108.00  1.5994557E-02
   7108.33  1.7820120E-02
   7108.67  2.0093107E-02
   7109.00  2.2968736E-02
   7109.33  2.6836367E-02
   7109.67  3.2048171E-02
   7110.00  3.9263682E-02
   7110.33  5.0271648E-02
   7110.67  6.7237515E-02
   7111.00  9.4026469E-02
   7111.33  1.4105539E-01
   7111.67  2.2069131E-01
   7112.00  3.3740550E-01
   7112.33  4.2047499E-01
   7112.67  3.9705922E-01
   7113.00  2.9679466E-01
   7113.33  2.0479863E-01
   7113.67  1.4585651E-01
   7114.00  1.1104020E-01
   7114.33  9.1847829E-02
   7114.67  8.1202463E-02
   7115.00  7.6890465E-02
   7115.33  7.6262535E-02
   7115.67  7.3803791E-02
   7116.00  6.8083666E-02
   7116.33  6.1511466E-02
   7116.67  5.6491330E-02
   7117.00  5.3632071E-02
   7117.33  5.2445500E-02
   7117.67  5.1328077E-02
   7118.00  4.9884536E-02
   7118.33  4.8518082E-02
   7118.67  4.7481405E-02
   7119.00  4.6817483E-02
   7119.33  4.6589930E-02
   7119.67  4.6776035E-02
   7120.00  4.7395590E-02
   7120.33  4.8549127E-02
   7120.67  5.0256794E-02
   7121.00  5.2625874E-02
   7121.33  5.5896151E-02
   7121.67  6.0075878E-02
   7122.00  6.5199450E-02
   7122.33  7.1323336E-02
   7122.67  7.8237285E-02
   7123.00  8.5929712E-02
   7123.33  9.4761548E-02
   7123.67  1.0509087E-01
   7124.00  1.1739153E-01
   7124.33  1.3242426E-01
   7124.67  1.5010861E-01
   7125.00  1.7043254E-01
   7125.33  1.9356386E-01
   7125.67  2.1906116E-01
   7126.00  2.4689808E-01
   7126.33  2.7739663E-01
   7126.67  3.1032241E-01
   7127.00  3.4584746E-01
   7127.33  3.8499281E-01
   7127.67  4.2875806E-01
   7128.00  4.7900027E-01
   7128.33  5.3904463E-01
   7128.67  6.0809084E-01
   7129.00  6.8151192E-01
   7129.33  7.4260721E-01
   7129.67  7.7390883E-01
   7130.00  7.7161409E-01
   7130.33  7.4560536E-01
   7130.67  7.1249180E-01
   7131.00  6.7835626E-01
   7131.33  6.4574304E-01
   7131.67  6.1499176E-01
   7132.00  5.8618748E-01
   7132.33  5.5956089E-01
   7132.67  5.3484105E-01
   7133.00  5.1205855E-01
   7133.33  4.9155015E-01
   7133.67  4.7315023E-01
   7134.00  4.5691983E-01
   7134.33  4.4319215E-01
   7134.67  4.3169030E-01
   7135.00  4.2234978E-01
   7135.33  4.1537065E-01
   7135.67  4.1042773E-01
   7136.00  4.0743492E-01
   7136.33  4.0648237E-01
   7136.67  4.0717806E-01
   7137.00  4.0936467E-01
   7137.33  4.1301191E-01
   7137.67  4.1776537E-01
   7138.00  4.2346859E-01
   7138.33  4.3005369E-01
   7138.67  4.3727528E-01
   7139.00  4.4501614E-01
   7139.33  4.5318660E-01
   7139.67  4.6160703E-01
   7140.00  4.7017922E-01
   7140.33  4.7880269E-01
   7140.67  4.8736794E-01
   7141.00  4.9579242E-01
   7141.33  5.0396724E-01
   7141.67  5.1185379E-01
   7142.00  5.1940322E-01
   7142.33  5.2650526E-01
   7142.67  5.3315366E-01
   7143.00  5.3932909E-01
   7143.33  5.4497950E-01
   7143.67  5.5019375E-01
   7144.00  5.5501032E-01
   7144.33  5.5943747E-01
   7144.67  5.6360417E-01
   7145.00  5.6759092E-01
   7145.33  5.7143491E-01
   7145.67  5.7522213E-01
   7146.00  5.7903232E-01
   7146.33  5.8295415E-01
   7146.67  5.8702764E-01
   7147.00  5.9128235E-01
   7147.33  5.9576565E-01
   7147.67  6.0045663E-01
   7148.00  6.0533990E-01
   7148.33  6.1040955E-01
   7148.67  6.1562138E-01
   7149.00  6.2095907E-01
   7149.33  6.2642156E-01
   7149.67  6.3198407E-01
   7150.00  6.3764078E-01
   7150.33  6.4340261E-01
   7150.67  6.4926408E-01
   7151.00  6.5523565E-01
   7151.33  6.6135259E-01
   7151.67  6.6763280E-01
   7152.00  6.7411867E-01
   7152.33  6.8088037E-01
   7152.67  6.8790465E-01
   7153.00  6.9519650E-01
   7153.33  7.0279271E-01
   7153.67  7.1064318E-01
   7154.00  7.1870861E-01
   7154.33  7.2692715E-01
   7154.67  7.3516557E-01
   7155.00  7.4329552E-01
   7155.33  7.5110466E-01
   7155.67  7.5843325E-01
   7156.00  7.6510979E-01
   7156.33  7.7083979E-01
   7156.67  7.7556484E-01
   7157.00  7.7917408E-01
   7157.33  7.8142791E-01
   7157.67  7.8243173E-01
   7158.00  7.8217930E-01
   7158.33  7.8054186E-01
   7158.67  7.7772635E-01
   7159.00  7.7379612E-01
   7159.33  7.6871369E-01
   7159.67  7.6271245E-01
   7160.00  7.5589349E-01
   7160.33  7.4829937E-01
   7160.67  7.4015026E-01
   7161.00  7.3156043E-01
   7161.33  7.2261648E-01
   7161.67  7.1347077E-01
   7162.00  7.0420707E-01
   7162.33  6.9489948E-01
   7162.67  6.8561088E-01
   7163.00  6.7637449E-01
   7163.33  6.6722060E-01
   7163.67  6.5814663E-01
   7164.00  6.4915078E-01
   7164.33  6.4023436E-01
   7164.67  6.3137627E-01
   7165.00  6.2256312E-01
   7165.33  6.1378185E-01
   7165.67  6.0501476E-01
   7166.00  5.9625337E-01
   7166.33  5.8749273E-01
   7166.67  5.7873400E-01
   7167.00  5.6998334E-01
   7167.33  5.6125564E-01
   7167.67  5.5256699E-01
   7168.00  5.4393857E-01
   7168.33  5.3541069E-01
   7168.67  5.2700537E-01
   7169.00  5.1875363E-01
   7169.33  5.1071637E-01
   7169.67  5.0290768E-01
   7170.00  4.9536211E-01
   7170.33  4.8816223E-01
   7170.67  4.8132303E-01
   7171.00  4.7490586E-01
   7171.33  4.6908791E-01
   7171.67  4.6399625E-01
   7172.00  4.5987656E-01
