    FDMNES
    energy     <xanes>
   7097.00  4.9068723E-03
   7097.33  5.0176578E-03
   7097.67  5.1331425E-03
   7098.00  5.2536218E-03
   7098.33  5.3801450E-03
   7098.67  5.5124586E-03
   7099.00  5.6509569E-03
   7099.33  5.7969852E-03
   7099.67  5.9502740E-03
   7100.00  6.1113633E-03
   7100.33  6.2820183E-03
   7100.67  6.4619675E-03
   7101.00  6.6519717E-03
   7101.33  6.8544129E-03
   7101.67  7.0690500E-03
   7102.00  7.2969930E-03
   7102.33  7.5415674E-03
   7102.67  7.8026363E-03
   7103.00  8.0818887E-03
   7103.33  8.3841678E-03
   7103.67  8.7096099E-03
   7104.00  9.0609239E-03
   7104.33  9.4455516E-03
   7104.67  9.8643069E-03
   7105.00  1.0321839E-02
   7105.33  1.0830409E-02
   7105.67  1.1392557E-02
   7106.00  1.2017008E-02
   7106.33  1.2725982E-02
   7106.67  1.3526779E-02
   7107.00  1.4437957E-02
   7107.33  1.5505677E-02
   7107.67  1.6752477E-02
   7108.00  1.8225911E-02
   7108.33  2.0044458E-02
   7108.67  2.2293327E-02
   7109.00  2.5137414E-02
   7109.33  2.9011795E-02
   7109.67  3.4392672E-02
   7110.00  4.2218707E-02
   7110.33  5.5120493E-02
   7110.67  7.5100920E-02
   7111.00  9.9574511E-02
   7111.33  1.2027354E-01
   7111.67  1.4541409E-01
   7112.00  1.8254688E-01
   7112.33  2.2382012E-01
   7112.67  2.3614968E-01
   7113.00  2.1784332E-01
   7113.33  2.0973602E-01
   7113.67  2.2877941E-01
   7114.00  2.6814517E-01
   7114.33  2.9604990E-01
   7114.67  2.9960653E-01
   7115.00  3.0096898E-01
   7115.33  3.1383440E-01
   7115.67  3.1550053E-01
   7116.00  2.8874403E-01
   7116.33  2.4611511E-01
   7116.67  2.1167651E-01
   7117.00  1.9173301E-01
   7117.33  1.8671990E-01
   7117.67  1.9204956E-01
   7118.00  2.0679091E-01
   7118.33  2.3255406E-01
   7118.67  2.6610541E-01
   7119.00  3.0094635E-01
   7119.33  3.2618914E-01
   7119.67  3.4020212E-01
   7120.00  3.4637376E-01
   7120.33  3.4766805E-01
   7120.67  3.4578164E-01
   7121.00  3.4080734E-01
   7121.33  3.3252994E-01
   7121.67  3.2225542E-01
   7122.00  3.1149819E-01
   7122.33  3.0228550E-01
   7122.67  2.9570260E-01
   7123.00  2.9242535E-01
   7123.33  2.9352992E-01
   7123.67  2.9885188E-01
   7124.00  3.0852704E-01
   7124.33  3.2313910E-01
   7124.67  3.4103566E-01
   7125.00  3.5941629E-01
   7125.33  3.7455766E-01
   7125.67  3.8741954E-01
   7126.00  4.0089292E-01
   7126.33  4.1661341E-01
   7126.67  4.3263946E-01
   7127.00  4.4716706E-01
   7127.33  4.5938224E-01
   7127.67  4.7061119E-01
   7128.00  4.8258942E-01
   7128.33  4.9752611E-01
   7128.67  5.1525253E-01
   7129.00  5.3406162E-01
   7129.33  5.5063981E-01
   7129.67  5.6280459E-01
   7130.00  5.6993807E-01
   7130.33  5.7284532E-01
   7130.67  5.7482173E-01
   7131.00  5.7832688E-01
   7131.33  5.8526703E-01
   7131.67  5.9514828E-01
   7132.00  6.0713675E-01
   7132.33  6.2030182E-01
   7132.67  6.3370435E-01
   7133.00  6.4678676E-01
   7133.33  6.5865366E-01
   7133.67  6.6848925E-01
   7134.00  6.7554037E-01
   7134.33  6.7890563E-01
   7134.67  6.7885970E-01
   7135.00  6.7538138E-01
   7135.33  6.6829084E-01
   7135.67  6.5884638E-01
   7136.00  6.4827122E-01
   7136.33  6.3813604E-01
   7136.67  6.2953422E-01
   7137.00  6.2297425E-01
   7137.33  6.1881466E-01
   7137.67  6.1649967E-01
   7138.00  6.1560136E-01
   7138.33  6.1561994E-01
   7138.67  6.1580959E-01
   7139.00  6.1562275E-01
   7139.33  6.1436034E-01
   7139.67  6.1170264E-01
   7140.00  6.0744747E-01
   7140.33  6.0139723E-01
   7140.67  5.9397031E-01
   7141.00  5.8545196E-01
   7141.33  5.7609521E-01
   7141.67  5.6629631E-01
   7142.00  5.5627267E-01
   7142.33  5.4623968E-01
   7142.67  5.3640929E-01
   7143.00  5.2698331E-01
   7143.33  5.1829827E-01
   7143.67  5.1051863E-01
   7144.00  5.0382444E-01
   7144.33  4.9851801E-01
   7144.67  4.9451600E-01
   7145.00  4.9181936E-01
   7145.33  4.9052668E-01
   7145.67  4.9037735E-01
   7146.00  4.9125465E-01
   7146.33  4.9310321E-01
   7146.67  4.9562899E-01
   7147.00  4.9866872E-01
   7147.33  5.0206982E-01
   7147.67  5.0559056E-01
   7148.00  5.0906078E-01
   7148.33  5.1227757E-01
   7148.67  5.1513479E-01
   7149.00  5.1755931E-01
   7149.33  5.1946316E-01
   7149.67  5.2093171E-01
   7150.00  5.2202625E-01
   7150.33  5.2279888E-01
   7150.67  5.2334384E-01
   7151.00  5.2367111E-01
   7151.33  5.2371482E-01
   7151.67  5.2343758E-01
   7152.00  5.2276783E-01
   7152.33  5.2156491E-01
   7152.67  5.1982513E-01
   7153.00  5.1751854E-01
   7153.33  5.1457231E-01
   7153.67  5.1109067E-01
   7154.00  5.0712501E-01
   7154.33  5.0270152E-01
   7154.67  4.9795653E-01
   7155.00  4.9296319E-01
   7155.33  4.8777967E-01
   7155.67  4.8249942E-01
   7156.00  4.7718035E-01
   7156.33  4.7189300E-01
   7156.67  4.6670441E-01
   7157.00  4.6167906E-01
   7157.33  4.5692625E-01
   7157.67  4.5249455E-01
   7158.00  4.4844492E-01
   7158.33  4.4488966E-01
   7158.67  4.4180900E-01
   7159.00  4.3920910E-01
   7159.33  4.3712421E-01
   7159.67  4.3544391E-01
   7160.00  4.3410391E-01
   7160.33  4.3304853E-01
   7160.67  4.3215750E-01
   7161.00  4.3135817E-01
   7161.33  4.3058156E-01
   7161.67  4.2977884E-01
   7162.00  4.2893106E-01
   7162.33  4.2803112E-01
   7162.67  4.2710293E-01
   7163.00  4.2617360E-01
   7163.33  4.2528624E-01
   7163.67  4.2447621E-01
   7164.00  4.2377636E-01
   7164.33  4.2323897E-01
   7164.67  4.2287453E-01
   7165.00  4.2270273E-01
   7165.33  4.2276703E-01
   7165.67  4.2305197E-01
   7166.00  4.2356150E-01
   7166.33  4.2432220E-01
   7166.67  4.2529834E-01
   7167.00  4.2647778E-01
   7167.33  4.2786332E-01
   7167.67  4.2940540E-01
   7168.00  4.3107513E-01
   7168.33  4.3284392E-01
   7168.67  4.3465819E-01
   7169.00  4.3648091E-01
   7169.33  4.3826613E-01
   7169.67  4.3997970E-01
   7170.00  4.4159246E-01
   7170.33  4.4305945E-01
   7170.67  4.4437492E-01
   7171.00  4.4552603E-01
   7171.33  4.4648170E-01
   7171.67  4.4725697E-01
   7172.00  4.4784744E-01
