    FDMNES
    energy     <xanes>
   7097.00  5.4159618E-03
   7097.33  5.5606372E-03
   7097.67  5.7126563E-03
   7098.00  5.8725646E-03
   7098.33  6.0421439E-03
   7098.67  6.2211135E-03
   7099.00  6.4102337E-03
   7099.33  6.6118920E-03
   7099.67  6.8258226E-03
   7100.00  7.0531153E-03
   7100.33  7.2970604E-03
   7100.67  7.5574594E-03
   7101.00  7.8359270E-03
   7101.33  8.1371506E-03
   7101.67  8.4611125E-03
   7102.00  8.8102995E-03
   7102.33  9.1916603E-03
   7102.67  9.6056072E-03
   7103.00  1.0056153E-02
   7103.33  1.0554106E-02
   7103.67  1.1100877E-02
   7104.00  1.1703323E-02
   7104.33  1.2379281E-02
   7104.67  1.3132538E-02
   7105.00  1.3975670E-02
   7105.33  1.4940432E-02
   7105.67  1.6036588E-02
   7106.00  1.7289438E-02
   7106.33  1.8761386E-02
   7106.67  2.0478801E-02
   7107.00  2.2499295E-02
   7107.33  2.4963354E-02
   7107.67  2.7950920E-02
   7108.00  3.1618488E-02
   7108.33  3.6351909E-02
   7108.67  4.2449132E-02
   7109.00  5.0467589E-02
   7109.33  6.1860704E-02
   7109.67  7.8213099E-02
   7110.00  1.0259449E-01
   7110.33  1.4379145E-01
   7110.67  2.1207991E-01
   7111.00  3.1623790E-01
   7111.33  4.5022906E-01
   7111.67  5.8004639E-01
   7112.00  6.6826509E-01
   7112.33  6.8073357E-01
   7112.67  6.3050081E-01
   7113.00  5.3696236E-01
   7113.33  4.3104104E-01
   7113.67  3.3805520E-01
   7114.00  2.6262907E-01
   7114.33  2.0536380E-01
   7114.67  1.6166066E-01
   7115.00  1.3002999E-01
   7115.33  1.0916145E-01
   7115.67  9.4839182E-02
   7116.00  8.4598215E-02
   7116.33  7.7220615E-02
   7116.67  7.2238502E-02
   7117.00  6.9485962E-02
   7117.33  6.8844907E-02
   7117.67  6.9865425E-02
   7118.00  7.2526950E-02
   7118.33  7.7238633E-02
   7118.67  8.4186348E-02
   7119.00  9.3713071E-02
   7119.33  1.0578385E-01
   7119.67  1.1806387E-01
   7120.00  1.2769371E-01
   7120.33  1.3287644E-01
   7120.67  1.3645122E-01
   7121.00  1.4137776E-01
   7121.33  1.5083339E-01
   7121.67  1.6543064E-01
   7122.00  1.8507152E-01
   7122.33  2.1052040E-01
   7122.67  2.4218767E-01
   7123.00  2.8084175E-01
   7123.33  3.2687893E-01
   7123.67  3.7703403E-01
   7124.00  4.2761032E-01
   7124.33  4.7285643E-01
   7124.67  5.0970517E-01
   7125.00  5.3831008E-01
   7125.33  5.6060899E-01
   7125.67  5.7765863E-01
   7126.00  5.8763659E-01
   7126.33  5.8888927E-01
   7126.67  5.8418068E-01
   7127.00  5.7571422E-01
   7127.33  5.6570304E-01
   7127.67  5.5630789E-01
   7128.00  5.4865685E-01
   7128.33  5.4356380E-01
   7128.67  5.4082745E-01
   7129.00  5.4022332E-01
   7129.33  5.4087242E-01
   7129.67  5.4089549E-01
   7130.00  5.3920211E-01
   7130.33  5.3607017E-01
   7130.67  5.3366469E-01
   7131.00  5.3388698E-01
   7131.33  5.3861991E-01
   7131.67  5.4746507E-01
   7132.00  5.5948035E-01
   7132.33  5.7273039E-01
   7132.67  5.8455711E-01
   7133.00  5.9318694E-01
   7133.33  5.9725868E-01
   7133.67  5.9772630E-01
   7134.00  5.9554324E-01
   7134.33  5.9192077E-01
   7134.67  5.8867205E-01
   7135.00  5.8730528E-01
   7135.33  5.8952009E-01
   7135.67  5.9528086E-01
   7136.00  6.0420208E-01
   7136.33  6.1580190E-01
   7136.67  6.2905756E-01
   7137.00  6.4340033E-01
   7137.33  6.5800334E-01
   7137.67  6.7164704E-01
   7138.00  6.8319636E-01
   7138.33  6.9123035E-01
   7138.67  6.9583518E-01
   7139.00  6.9745432E-01
   7139.33  6.9700640E-01
   7139.67  6.9612962E-01
   7140.00  6.9590442E-01
   7140.33  6.9737778E-01
   7140.67  7.0071894E-01
   7141.00  7.0588255E-01
   7141.33  7.1271093E-01
   7141.67  7.2049582E-01
   7142.00  7.2872039E-01
   7142.33  7.3669716E-01
   7142.67  7.4368000E-01
   7143.00  7.4886002E-01
   7143.33  7.5079363E-01
   7143.67  7.4885524E-01
   7144.00  7.4261320E-01
   7144.33  7.3187443E-01
   7144.67  7.1814429E-01
   7145.00  7.0255679E-01
   7145.33  6.8633886E-01
   7145.67  6.7054635E-01
   7146.00  6.5568536E-01
   7146.33  6.4213608E-01
   7146.67  6.2972394E-01
   7147.00  6.1831988E-01
   7147.33  6.0786347E-01
   7147.67  5.9813777E-01
   7148.00  5.8911014E-01
   7148.33  5.8088874E-01
   7148.67  5.7342807E-01
   7149.00  5.6676084E-01
   7149.33  5.6100322E-01
   7149.67  5.5604148E-01
   7150.00  5.5184552E-01
   7150.33  5.4845160E-01
   7150.67  5.4570591E-01
   7151.00  5.4354383E-01
   7151.33  5.4194073E-01
   7151.67  5.4073852E-01
   7152.00  5.3984801E-01
   7152.33  5.3918069E-01
   7152.67  5.3858728E-01
   7153.00  5.3795291E-01
   7153.33  5.3711483E-01
   7153.67  5.3595421E-01
   7154.00  5.3435375E-01
   7154.33  5.3211821E-01
   7154.67  5.2921487E-01
   7155.00  5.2557787E-01
   7155.33  5.2106398E-01
   7155.67  5.1576171E-01
   7156.00  5.0969440E-01
   7156.33  5.0283492E-01
   7156.67  4.9536199E-01
   7157.00  4.8736886E-01
   7157.33  4.7891843E-01
   7157.67  4.7016986E-01
   7158.00  4.6120487E-01
   7158.33  4.5208053E-01
   7158.67  4.4286574E-01
   7159.00  4.3358788E-01
   7159.33  4.2425921E-01
   7159.67  4.1489623E-01
   7160.00  4.0551036E-01
   7160.33  3.9612734E-01
   7160.67  3.8678444E-01
   7161.00  3.7752211E-01
   7161.33  3.6841462E-01
   7161.67  3.5951033E-01
   7162.00  3.5086794E-01
   7162.33  3.4259903E-01
   7162.67  3.3473203E-01
   7163.00  3.2732213E-01
   7163.33  3.2048736E-01
   7163.67  3.1420915E-01
   7164.00  3.0852000E-01
   7164.33  3.0352178E-01
   7164.67  2.9915148E-01
   7165.00  2.9541957E-01
   7165.33  2.9241338E-01
   7165.67  2.9004953E-01
   7166.00  2.8831843E-01
   7166.33  2.8727827E-01
   7166.67  2.8682764E-01
   7167.00  2.8694140E-01
   7167.33  2.8765302E-01
   7167.67  2.8886097E-01
   7168.00  2.9053445E-01
   7168.33  2.9269094E-01
   7168.67  2.9523991E-01
   7169.00  2.9814875E-01
   7169.33  3.0141787E-01
   7169.67  3.0496415E-01
   7170.00  3.0874594E-01
   7170.33  3.1272856E-01
   7170.67  3.1681730E-01
   7171.00  3.2092884E-01
   7171.33  3.2490414E-01
   7171.67  3.2852095E-01
   7172.00  3.3148396E-01
