    FDMNES
    energy     <xanes>
   7097.00  5.5232687E-03
   7097.33  5.6747641E-03
   7097.67  5.8341063E-03
   7098.00  6.0018867E-03
   7098.33  6.1800242E-03
   7098.67  6.3682313E-03
   7099.00  6.5673357E-03
   7099.33  6.7799187E-03
   7099.67  7.0057136E-03
   7100.00  7.2459116E-03
   7100.33  7.5040864E-03
   7100.67  7.7800516E-03
   7101.00  8.0755800E-03
   7101.33  8.3957885E-03
   7101.67  8.7407010E-03
   7102.00  9.1130617E-03
   7102.33  9.5204978E-03
   7102.67  9.9635290E-03
   7103.00  1.0446609E-02
   7103.33  1.0981677E-02
   7103.67  1.1570400E-02
   7104.00  1.2220438E-02
   7104.33  1.2951639E-02
   7104.67  1.3768408E-02
   7105.00  1.4684904E-02
   7105.33  1.5736761E-02
   7105.67  1.6935307E-02
   7106.00  1.8309290E-02
   7106.33  1.9929465E-02
   7106.67  2.1826536E-02
   7107.00  2.4066720E-02
   7107.33  2.6811353E-02
   7107.67  3.0154329E-02
   7108.00  3.4278142E-02
   7108.33  3.9633221E-02
   7108.67  4.6574266E-02
   7109.00  5.5763489E-02
   7109.33  6.8933588E-02
   7109.67  8.8005488E-02
   7110.00  1.1670853E-01
   7110.33  1.6578682E-01
   7110.67  2.4809944E-01
   7111.00  3.7469638E-01
   7111.33  5.3086878E-01
   7111.67  6.6327363E-01
   7112.00  7.3491122E-01
   7112.33  7.3248613E-01
   7112.67  6.6109130E-01
   7113.00  5.3077192E-01
   7113.33  3.9966589E-01
   7113.67  3.0041070E-01
   7114.00  2.2959947E-01
   7114.33  1.8019179E-01
   7114.67  1.4458583E-01
   7115.00  1.1957789E-01
   7115.33  1.0310358E-01
   7115.67  9.1909855E-02
   7116.00  8.4247634E-02
   7116.33  7.8737874E-02
   7116.67  7.4521975E-02
   7117.00  7.1722770E-02
   7117.33  7.0714065E-02
   7117.67  7.1409269E-02
   7118.00  7.3959811E-02
   7118.33  7.8906746E-02
   7118.67  8.6146713E-02
   7119.00  9.5384011E-02
   7119.33  1.0590912E-01
   7119.67  1.1648188E-01
   7120.00  1.2591592E-01
   7120.33  1.3344125E-01
   7120.67  1.4093758E-01
   7121.00  1.5067247E-01
   7121.33  1.6451792E-01
   7121.67  1.8219105E-01
   7122.00  2.0386919E-01
   7122.33  2.3051833E-01
   7122.67  2.6220995E-01
   7123.00  2.9946827E-01
   7123.33  3.4311643E-01
   7123.67  3.9163009E-01
   7124.00  4.4307160E-01
   7124.33  4.9302084E-01
   7124.67  5.3583316E-01
   7125.00  5.6706610E-01
   7125.33  5.8301593E-01
   7125.67  5.8722600E-01
   7126.00  5.8284701E-01
   7126.33  5.7275604E-01
   7126.67  5.6025155E-01
   7127.00  5.4703967E-01
   7127.33  5.3481767E-01
   7127.67  5.2477766E-01
   7128.00  5.1784173E-01
   7128.33  5.1541222E-01
   7128.67  5.1751325E-01
   7129.00  5.2415146E-01
   7129.33  5.3524094E-01
   7129.67  5.4902021E-01
   7130.00  5.6394790E-01
   7130.33  5.7815797E-01
   7130.67  5.9066240E-01
   7131.00  6.0119691E-01
   7131.33  6.0930370E-01
   7131.67  6.1468128E-01
   7132.00  6.1666770E-01
   7132.33  6.1439561E-01
   7132.67  6.0873105E-01
   7133.00  6.0058508E-01
   7133.33  5.9122161E-01
   7133.67  5.8220742E-01
   7134.00  5.7460158E-01
   7134.33  5.6959664E-01
   7134.67  5.6743309E-01
   7135.00  5.6831317E-01
   7135.33  5.7263727E-01
   7135.67  5.7986984E-01
   7136.00  5.8977333E-01
   7136.33  6.0221559E-01
   7136.67  6.1628735E-01
   7137.00  6.3123196E-01
   7137.33  6.4591233E-01
   7137.67  6.5915343E-01
   7138.00  6.7000539E-01
   7138.33  6.7725777E-01
   7138.67  6.8099930E-01
   7139.00  6.8144765E-01
   7139.33  6.7906677E-01
   7139.67  6.7529674E-01
   7140.00  6.7113907E-01
   7140.33  6.6761589E-01
   7140.67  6.6522686E-01
   7141.00  6.6413168E-01
   7141.33  6.6434351E-01
   7141.67  6.6536533E-01
   7142.00  6.6682489E-01
   7142.33  6.6831025E-01
   7142.67  6.6947806E-01
   7143.00  6.7010849E-01
   7143.33  6.6999218E-01
   7143.67  6.6924915E-01
   7144.00  6.6799992E-01
   7144.33  6.6638960E-01
   7144.67  6.6466201E-01
   7145.00  6.6291174E-01
   7145.33  6.6110205E-01
   7145.67  6.5912549E-01
   7146.00  6.5684544E-01
   7146.33  6.5402972E-01
   7146.67  6.5060196E-01
   7147.00  6.4651789E-01
   7147.33  6.4176583E-01
   7147.67  6.3659582E-01
   7148.00  6.3121387E-01
   7148.33  6.2587149E-01
   7148.67  6.2077069E-01
   7149.00  6.1603546E-01
   7149.33  6.1180026E-01
   7149.67  6.0802645E-01
   7150.00  6.0468699E-01
   7150.33  6.0175799E-01
   7150.67  5.9909668E-01
   7151.00  5.9660614E-01
   7151.33  5.9417072E-01
   7151.67  5.9166081E-01
   7152.00  5.8897584E-01
   7152.33  5.8597651E-01
   7152.67  5.8261297E-01
   7153.00  5.7883218E-01
   7153.33  5.7454098E-01
   7153.67  5.6978636E-01
   7154.00  5.6457847E-01
   7154.33  5.5889267E-01
   7154.67  5.5282267E-01
   7155.00  5.4640747E-01
   7155.33  5.3965270E-01
   7155.67  5.3263289E-01
   7156.00  5.2537266E-01
   7156.33  5.1786372E-01
   7156.67  5.1014406E-01
   7157.00  5.0221701E-01
   7157.33  4.9405624E-01
   7157.67  4.8568751E-01
   7158.00  4.7711283E-01
   7158.33  4.6831169E-01
   7158.67  4.5931935E-01
   7159.00  4.5014971E-01
   7159.33  4.4080412E-01
   7159.67  4.3132773E-01
   7160.00  4.2174902E-01
   7160.33  4.1209764E-01
   7160.67  4.0242301E-01
   7161.00  3.9276569E-01
   7161.33  3.8318675E-01
   7161.67  3.7373612E-01
   7162.00  3.6446876E-01
   7162.33  3.5548363E-01
   7162.67  3.4682037E-01
   7163.00  3.3854111E-01
   7163.33  3.3077334E-01
   7163.67  3.2352840E-01
   7164.00  3.1685921E-01
   7164.33  3.1089067E-01
   7164.67  3.0558059E-01
   7165.00  3.0094946E-01
   7165.33  2.9708642E-01
   7165.67  2.9388481E-01
   7166.00  2.9130729E-01
   7166.33  2.8936412E-01
   7166.67  2.8791483E-01
   7167.00  2.8689787E-01
   7167.33  2.8629228E-01
   7167.67  2.8599774E-01
   7168.00  2.8597991E-01
   7168.33  2.8624507E-01
   7168.67  2.8675038E-01
   7169.00  2.8749447E-01
   7169.33  2.8851251E-01
   7169.67  2.8978113E-01
   7170.00  2.9130407E-01
   7170.33  2.9310862E-01
   7170.67  2.9514224E-01
   7171.00  2.9736318E-01
   7171.33  2.9968610E-01
   7171.67  3.0191215E-01
   7172.00  3.0378913E-01
