    FDMNES
    energy     <xanes>
   7097.00  4.5643770E-03
   7097.33  4.6610486E-03
   7097.67  4.7617484E-03
   7098.00  4.8667396E-03
   7098.33  4.9769405E-03
   7098.67  5.0921508E-03
   7099.00  5.2127309E-03
   7099.33  5.3398789E-03
   7099.67  5.4733937E-03
   7100.00  5.6137831E-03
   7100.33  5.7626584E-03
   7100.67  5.9198394E-03
   7101.00  6.0860689E-03
   7101.33  6.2635913E-03
   7101.67  6.4522988E-03
   7102.00  6.6533244E-03
   7102.33  6.8699335E-03
   7102.67  7.1022046E-03
   7103.00  7.3519581E-03
   7103.33  7.6242056E-03
   7103.67  7.9194790E-03
   7104.00  8.2408939E-03
   7104.33  8.5966750E-03
   7104.67  8.9884688E-03
   7105.00  9.4220519E-03
   7105.33  9.9121259E-03
   7105.67  1.0463247E-02
   7106.00  1.1087291E-02
   7106.33  1.1813673E-02
   7106.67  1.2655382E-02
   7107.00  1.3640476E-02
   7107.33  1.4837697E-02
   7107.67  1.6288821E-02
   7108.00  1.8074742E-02
   7108.33  2.0397014E-02
   7108.67  2.3424411E-02
   7109.00  2.7473226E-02
   7109.33  3.3388195E-02
   7109.67  4.2176167E-02
   7110.00  5.5822585E-02
   7110.33  8.0131569E-02
   7110.67  1.2150447E-01
   7111.00  1.8024497E-01
   7111.33  2.2459582E-01
   7111.67  2.3733358E-01
   7112.00  2.3212162E-01
   7112.33  2.1792184E-01
   7112.67  1.9414145E-01
   7113.00  1.6458792E-01
   7113.33  1.3687566E-01
   7113.67  1.1362784E-01
   7114.00  9.4111755E-02
   7114.33  7.9779442E-02
   7114.67  6.9993114E-02
   7115.00  6.3562625E-02
   7115.33  5.9800362E-02
   7115.67  5.7616949E-02
   7116.00  5.5691883E-02
   7116.33  5.3714669E-02
   7116.67  5.2730110E-02
   7117.00  5.3125062E-02
   7117.33  5.4709454E-02
   7117.67  5.6714930E-02
   7118.00  5.8776098E-02
   7118.33  6.1080006E-02
   7118.67  6.4173739E-02
   7119.00  6.8525572E-02
   7119.33  7.4712389E-02
   7119.67  8.2694836E-02
   7120.00  9.2469664E-02
   7120.33  1.0458137E-01
   7120.67  1.1952025E-01
   7121.00  1.3802991E-01
   7121.33  1.6177847E-01
   7121.67  1.9170333E-01
   7122.00  2.2920058E-01
   7122.33  2.7563914E-01
   7122.67  3.2697320E-01
   7123.00  3.7838811E-01
   7123.33  4.2590943E-01
   7123.67  4.6788990E-01
   7124.00  5.0091769E-01
   7124.33  5.2204061E-01
   7124.67  5.3511624E-01
   7125.00  5.4586239E-01
   7125.33  5.6346991E-01
   7125.67  5.8729038E-01
   7126.00  6.1157356E-01
   7126.33  6.3112994E-01
   7126.67  6.4602741E-01
   7127.00  6.5809957E-01
   7127.33  6.7074223E-01
   7127.67  6.8304795E-01
   7128.00  6.8903054E-01
   7128.33  6.8329280E-01
   7128.67  6.7098919E-01
   7129.00  6.5813906E-01
   7129.33  6.5115749E-01
   7129.67  6.5149252E-01
   7130.00  6.5699779E-01
   7130.33  6.6217993E-01
   7130.67  6.6419481E-01
   7131.00  6.6567834E-01
   7131.33  6.7159376E-01
   7131.67  6.8065975E-01
   7132.00  6.8804006E-01
   7132.33  6.8758826E-01
   7132.67  6.7854965E-01
   7133.00  6.6233343E-01
   7133.33  6.4198518E-01
   7133.67  6.2208443E-01
   7134.00  6.0551992E-01
   7134.33  5.9441373E-01
   7134.67  5.8771831E-01
   7135.00  5.8423593E-01
   7135.33  5.8271146E-01
   7135.67  5.8183894E-01
   7136.00  5.8114851E-01
   7136.33  5.8068546E-01
   7136.67  5.8096330E-01
   7137.00  5.8272247E-01
   7137.33  5.8725539E-01
   7137.67  5.9516233E-01
   7138.00  6.0701788E-01
   7138.33  6.2362250E-01
   7138.67  6.4412399E-01
   7139.00  6.6764503E-01
   7139.33  6.9258663E-01
   7139.67  7.1646308E-01
   7140.00  7.3722662E-01
   7140.33  7.5245764E-01
   7140.67  7.6205829E-01
   7141.00  7.6631755E-01
   7141.33  7.6569817E-01
   7141.67  7.6192690E-01
   7142.00  7.5582169E-01
   7142.33  7.4770074E-01
   7142.67  7.3792618E-01
   7143.00  7.2640055E-01
   7143.33  7.1268328E-01
   7143.67  6.9691645E-01
   7144.00  6.7921255E-01
   7144.33  6.5981341E-01
   7144.67  6.3961442E-01
   7145.00  6.1933251E-01
   7145.33  5.9984377E-01
   7145.67  5.8164887E-01
   7146.00  5.6503480E-01
   7146.33  5.5029781E-01
   7146.67  5.3711731E-01
   7147.00  5.2530749E-01
   7147.33  5.1475313E-01
   7147.67  5.0506225E-01
   7148.00  4.9604202E-01
   7148.33  4.8755970E-01
   7148.67  4.7939524E-01
   7149.00  4.7143939E-01
   7149.33  4.6361222E-01
   7149.67  4.5583581E-01
   7150.00  4.4807579E-01
   7150.33  4.4031072E-01
   7150.67  4.3253821E-01
   7151.00  4.2476569E-01
   7151.33  4.1701489E-01
   7151.67  4.0931764E-01
   7152.00  4.0171725E-01
   7152.33  3.9430055E-01
   7152.67  3.8712640E-01
   7153.00  3.8026762E-01
   7153.33  3.7385854E-01
   7153.67  3.6792315E-01
   7154.00  3.6251185E-01
   7154.33  3.5773672E-01
   7154.67  3.5354800E-01
   7155.00  3.4994659E-01
   7155.33  3.4698714E-01
   7155.67  3.4456734E-01
   7156.00  3.4265288E-01
   7156.33  3.4125781E-01
   7156.67  3.4028501E-01
   7157.00  3.3970738E-01
   7157.33  3.3954376E-01
   7157.67  3.3974012E-01
   7158.00  3.4030374E-01
   7158.33  3.4129227E-01
   7158.67  3.4266146E-01
   7159.00  3.4440057E-01
   7159.33  3.4651772E-01
   7159.67  3.4891185E-01
   7160.00  3.5151341E-01
   7160.33  3.5423951E-01
   7160.67  3.5697377E-01
   7161.00  3.5963451E-01
   7161.33  3.6213013E-01
   7161.67  3.6444238E-01
   7162.00  3.6657501E-01
   7162.33  3.6855575E-01
   7162.67  3.7048089E-01
   7163.00  3.7243648E-01
   7163.33  3.7454835E-01
   7163.67  3.7690394E-01
   7164.00  3.7958159E-01
   7164.33  3.8270074E-01
   7164.67  3.8625612E-01
   7165.00  3.9026296E-01
   7165.33  3.9476959E-01
   7165.67  3.9968776E-01
   7166.00  4.0496940E-01
   7166.33  4.1057332E-01
   7166.67  4.1637554E-01
   7167.00  4.2229548E-01
   7167.33  4.2823499E-01
   7167.67  4.3409095E-01
   7168.00  4.3978304E-01
   7168.33  4.4519986E-01
   7168.67  4.5030771E-01
   7169.00  4.5506587E-01
   7169.33  4.5939803E-01
   7169.67  4.6334707E-01
   7170.00  4.6692868E-01
   7170.33  4.7012534E-01
   7170.67  4.7300684E-01
   7171.00  4.7559412E-01
   7171.33  4.7786054E-01
   7171.67  4.7981374E-01
   7172.00  4.8139167E-01
