    FDMNES
    energy     <xanes>
   7097.00  5.1180828E-03
   7097.33  5.2371296E-03
   7097.67  5.3614536E-03
   7098.00  5.4914005E-03
   7098.33  5.6281718E-03
   7098.67  5.7715009E-03
   7099.00  5.9218532E-03
   7099.33  6.0807827E-03
   7099.67  6.2480090E-03
   7100.00  6.4241734E-03
   7100.33  6.6113338E-03
   7100.67  6.8092128E-03
   7101.00  7.0187198E-03
   7101.33  7.2426555E-03
   7101.67  7.4807852E-03
   7102.00  7.7344415E-03
   7102.33  8.0075638E-03
   7102.67  8.3000471E-03
   7103.00  8.6139237E-03
   7103.33  8.9549599E-03
   7103.67  9.3233771E-03
   7104.00  9.7224279E-03
   7104.33  1.0160983E-02
   7104.67  1.0640047E-02
   7105.00  1.1165153E-02
   7105.33  1.1750840E-02
   7105.67  1.2400038E-02
   7106.00  1.3122940E-02
   7106.33  1.3945461E-02
   7106.67  1.4875613E-02
   7107.00  1.5934325E-02
   7107.33  1.7173554E-02
   7107.67  1.8616557E-02
   7108.00  2.0313689E-02
   7108.33  2.2389318E-02
   7108.67  2.4923423E-02
   7109.00  2.8072058E-02
   7109.33  3.2235584E-02
   7109.67  3.7798090E-02
   7110.00  4.5505219E-02
   7110.33  5.7438209E-02
   7110.67  7.5823798E-02
   7111.00  1.0248096E-01
   7111.33  1.3770129E-01
   7111.67  1.7925321E-01
   7112.00  2.2211212E-01
   7112.33  2.6256842E-01
   7112.67  3.0070154E-01
   7113.00  3.2561963E-01
   7113.33  3.4055231E-01
   7113.67  3.7392896E-01
   7114.00  4.3682217E-01
   7114.33  5.0482480E-01
   7114.67  5.2164525E-01
   7115.00  4.7582881E-01
   7115.33  4.0607748E-01
   7115.67  3.4578073E-01
   7116.00  3.0144515E-01
   7116.33  2.7395819E-01
   7116.67  2.5682691E-01
   7117.00  2.4336863E-01
   7117.33  2.2460494E-01
   7117.67  2.0001776E-01
   7118.00  1.7547329E-01
   7118.33  1.5746033E-01
   7118.67  1.4635560E-01
   7119.00  1.4115827E-01
   7119.33  1.4085984E-01
   7119.67  1.4339150E-01
   7120.00  1.4698129E-01
   7120.33  1.4896262E-01
   7120.67  1.4830797E-01
   7121.00  1.4578297E-01
   7121.33  1.4278258E-01
   7121.67  1.4037679E-01
   7122.00  1.3943748E-01
   7122.33  1.4144391E-01
   7122.67  1.4679924E-01
   7123.00  1.5563830E-01
   7123.33  1.6827145E-01
   7123.67  1.8378265E-01
   7124.00  2.0100581E-01
   7124.33  2.1768746E-01
   7124.67  2.3227409E-01
   7125.00  2.4513367E-01
   7125.33  2.5870210E-01
   7125.67  2.7546804E-01
   7126.00  2.9650306E-01
   7126.33  3.2249972E-01
   7126.67  3.5292450E-01
   7127.00  3.8768942E-01
   7127.33  4.2573678E-01
   7127.67  4.6333343E-01
   7128.00  4.9750565E-01
   7128.33  5.2649001E-01
   7128.67  5.5201643E-01
   7129.00  5.7586373E-01
   7129.33  6.0012200E-01
   7129.67  6.2597665E-01
   7130.00  6.5338894E-01
   7130.33  6.8106088E-01
   7130.67  7.0717010E-01
   7131.00  7.3081800E-01
   7131.33  7.5144985E-01
   7131.67  7.6883695E-01
   7132.00  7.8144984E-01
   7132.33  7.8593285E-01
   7132.67  7.8180411E-01
   7133.00  7.6991860E-01
   7133.33  7.5301042E-01
   7133.67  7.3595704E-01
   7134.00  7.2204547E-01
   7134.33  7.1453164E-01
   7134.67  7.1366434E-01
   7135.00  7.1901909E-01
   7135.33  7.2935837E-01
   7135.67  7.4132691E-01
   7136.00  7.5212675E-01
   7136.33  7.5792499E-01
   7136.67  7.5641535E-01
   7137.00  7.4594748E-01
   7137.33  7.2507799E-01
   7137.67  6.9678851E-01
   7138.00  6.6399911E-01
   7138.33  6.3055025E-01
   7138.67  5.9987715E-01
   7139.00  5.7393990E-01
   7139.33  5.5464366E-01
   7139.67  5.4149832E-01
   7140.00  5.3425642E-01
   7140.33  5.3296111E-01
   7140.67  5.3606853E-01
   7141.00  5.4263723E-01
   7141.33  5.5167778E-01
   7141.67  5.6160868E-01
   7142.00  5.7145757E-01
   7142.33  5.8039871E-01
   7142.67  5.8834001E-01
   7143.00  5.9542836E-01
   7143.33  6.0180815E-01
   7143.67  6.0753365E-01
   7144.00  6.1228165E-01
   7144.33  6.1520485E-01
   7144.67  6.1579297E-01
   7145.00  6.1356908E-01
   7145.33  6.0792276E-01
   7145.67  5.9941646E-01
   7146.00  5.8847476E-01
   7146.33  5.7551474E-01
   7146.67  5.6145632E-01
   7147.00  5.4688524E-01
   7147.33  5.3241255E-01
   7147.67  5.1850227E-01
   7148.00  5.0546032E-01
   7148.33  4.9368157E-01
   7148.67  4.8319380E-01
   7149.00  4.7408877E-01
   7149.33  4.6660638E-01
   7149.67  4.6058583E-01
   7150.00  4.5601837E-01
   7150.33  4.5304762E-01
   7150.67  4.5144343E-01
   7151.00  4.5114430E-01
   7151.33  4.5221367E-01
   7151.67  4.5439914E-01
   7152.00  4.5760512E-01
   7152.33  4.6182329E-01
   7152.67  4.6681711E-01
   7153.00  4.7248571E-01
   7153.33  4.7879028E-01
   7153.67  4.8555446E-01
   7154.00  4.9268912E-01
   7154.33  5.0012949E-01
   7154.67  5.0774672E-01
   7155.00  5.1545962E-01
   7155.33  5.2317192E-01
   7155.67  5.3078590E-01
   7156.00  5.3821878E-01
   7156.33  5.4534725E-01
   7156.67  5.5212889E-01
   7157.00  5.5851300E-01
   7157.33  5.6440610E-01
   7157.67  5.6984454E-01
   7158.00  5.7482619E-01
   7158.33  5.7930298E-01
   7158.67  5.8334309E-01
   7159.00  5.8695466E-01
   7159.33  5.9008674E-01
   7159.67  5.9278381E-01
   7160.00  5.9502786E-01
   7160.33  5.9672513E-01
   7160.67  5.9789210E-01
   7161.00  5.9848432E-01
   7161.33  5.9836722E-01
   7161.67  5.9756486E-01
   7162.00  5.9603706E-01
   7162.33  5.9365709E-01
   7162.67  5.9051005E-01
   7163.00  5.8660949E-01
   7163.33  5.8190710E-01
   7163.67  5.7655370E-01
   7164.00  5.7061938E-01
   7164.33  5.6414864E-01
   7164.67  5.5732137E-01
   7165.00  5.5024312E-01
   7165.33  5.4301225E-01
   7165.67  5.3575307E-01
   7166.00  5.2855023E-01
   7166.33  5.2150933E-01
   7166.67  5.1468826E-01
   7167.00  5.0814216E-01
   7167.33  5.0196170E-01
   7167.67  4.9614194E-01
   7168.00  4.9070410E-01
   7168.33  4.8571196E-01
   7168.67  4.8111950E-01
   7169.00  4.7692243E-01
   7169.33  4.7315756E-01
   7169.67  4.6975782E-01
   7170.00  4.6669974E-01
   7170.33  4.6399146E-01
   7170.67  4.6156349E-01
   7171.00  4.5939334E-01
   7171.33  4.5749822E-01
   7171.67  4.5586407E-01
   7172.00  4.5453717E-01
