    FDMNES
    energy     <xanes>
   7097.00  5.4787179E-03
   7097.33  5.6181474E-03
   7097.67  5.7643561E-03
   7098.00  5.9178299E-03
   7098.33  6.0801842E-03
   7098.67  6.2511362E-03
   7099.00  6.4313582E-03
   7099.33  6.6229958E-03
   7099.67  6.8257728E-03
   7100.00  7.0406461E-03
   7100.33  7.2705471E-03
   7100.67  7.5152503E-03
   7101.00  7.7761648E-03
   7101.33  8.0574334E-03
   7101.67  8.3589790E-03
   7102.00  8.6829631E-03
   7102.33  9.0354871E-03
   7102.67  9.4168426E-03
   7103.00  9.8305155E-03
   7103.33  1.0285965E-02
   7103.67  1.0784366E-02
   7104.00  1.1331707E-02
   7104.33  1.1943641E-02
   7104.67  1.2623524E-02
   7105.00  1.3382506E-02
   7105.33  1.4248818E-02
   7105.67  1.5231571E-02
   7106.00  1.6353918E-02
   7106.33  1.7673108E-02
   7106.67  1.9215390E-02
   7107.00  2.1036689E-02
   7107.33  2.3274387E-02
   7107.67  2.6016178E-02
   7108.00  2.9430992E-02
   7108.33  3.3944684E-02
   7108.67  3.9939677E-02
   7109.00  4.8139636E-02
   7109.33  6.0534248E-02
   7109.67  7.9708904E-02
   7110.00  1.1084593E-01
   7110.33  1.6868268E-01
   7110.67  2.6113864E-01
   7111.00  3.4970899E-01
   7111.33  3.2661592E-01
   7111.67  2.6802753E-01
   7112.00  2.4597438E-01
   7112.33  2.5229732E-01
   7112.67  2.7649224E-01
   7113.00  3.4552517E-01
   7113.33  4.5153602E-01
   7113.67  4.8118031E-01
   7114.00  3.9549123E-01
   7114.33  2.9809673E-01
   7114.67  2.3966734E-01
   7115.00  2.1578558E-01
   7115.33  2.2292773E-01
   7115.67  2.5831828E-01
   7116.00  3.2614764E-01
   7116.33  4.2143031E-01
   7116.67  4.9085009E-01
   7117.00  4.8563487E-01
   7117.33  4.1265279E-01
   7117.67  3.3270870E-01
   7118.00  2.6947749E-01
   7118.33  2.2772760E-01
   7118.67  2.0067206E-01
   7119.00  1.8505075E-01
   7119.33  1.7891150E-01
   7119.67  1.7807286E-01
   7120.00  1.7920504E-01
   7120.33  1.7842275E-01
   7120.67  1.7470504E-01
   7121.00  1.6937259E-01
   7121.33  1.6531670E-01
   7121.67  1.6451283E-01
   7122.00  1.6755140E-01
   7122.33  1.7402897E-01
   7122.67  1.8234827E-01
   7123.00  1.9222741E-01
   7123.33  2.0405317E-01
   7123.67  2.1765224E-01
   7124.00  2.3278103E-01
   7124.33  2.4884940E-01
   7124.67  2.6469476E-01
   7125.00  2.7936795E-01
   7125.33  2.9192849E-01
   7125.67  3.0263621E-01
   7126.00  3.1204620E-01
   7126.33  3.2104481E-01
   7126.67  3.3049187E-01
   7127.00  3.4071327E-01
   7127.33  3.5165367E-01
   7127.67  3.6277596E-01
   7128.00  3.7371748E-01
   7128.33  3.8424372E-01
   7128.67  3.9444042E-01
   7129.00  4.0444902E-01
   7129.33  4.1456108E-01
   7129.67  4.2517331E-01
   7130.00  4.3666498E-01
   7130.33  4.4955671E-01
   7130.67  4.6388268E-01
   7131.00  4.7971061E-01
   7131.33  4.9747410E-01
   7131.67  5.1757291E-01
   7132.00  5.4105954E-01
   7132.33  5.7009409E-01
   7132.67  6.0544697E-01
   7133.00  6.4797832E-01
   7133.33  6.9892342E-01
   7133.67  7.5641621E-01
   7134.00  8.1833260E-01
   7134.33  8.8044359E-01
   7134.67  9.3687174E-01
   7135.00  9.8222670E-01
   7135.33  1.0094800E+00
   7135.67  1.0184005E+00
   7136.00  1.0095007E+00
   7136.33  9.8333034E-01
   7136.67  9.4526893E-01
   7137.00  8.9863058E-01
   7137.33  8.4665089E-01
   7137.67  7.9336953E-01
   7138.00  7.4127340E-01
   7138.33  6.9306114E-01
   7138.67  6.4987250E-01
   7139.00  6.1251846E-01
   7139.33  5.8215747E-01
   7139.67  5.5790581E-01
   7140.00  5.3940083E-01
   7140.33  5.2668850E-01
   7140.67  5.1846360E-01
   7141.00  5.1417620E-01
   7141.33  5.1366226E-01
   7141.67  5.1598715E-01
   7142.00  5.2075347E-01
   7142.33  5.2778264E-01
   7142.67  5.3641162E-01
   7143.00  5.4629305E-01
   7143.33  5.5713198E-01
   7143.67  5.6842567E-01
   7144.00  5.7984186E-01
   7144.33  5.9098109E-01
   7144.67  6.0153799E-01
   7145.00  6.1126095E-01
   7145.33  6.1977860E-01
   7145.67  6.2705637E-01
   7146.00  6.3300795E-01
   7146.33  6.3742975E-01
   7146.67  6.4052280E-01
   7147.00  6.4235692E-01
   7147.33  6.4291003E-01
   7147.67  6.4247341E-01
   7148.00  6.4118756E-01
   7148.33  6.3913521E-01
   7148.67  6.3656482E-01
   7149.00  6.3360705E-01
   7149.33  6.3036740E-01
   7149.67  6.2699463E-01
   7150.00  6.2357342E-01
   7150.33  6.2018803E-01
   7150.67  6.1689683E-01
   7151.00  6.1374042E-01
   7151.33  6.1077418E-01
   7151.67  6.0799979E-01
   7152.00  6.0543004E-01
   7152.33  6.0310123E-01
   7152.67  6.0099241E-01
   7153.00  5.9910884E-01
   7153.33  5.9748981E-01
   7153.67  5.9611567E-01
   7154.00  5.9499170E-01
   7154.33  5.9415101E-01
   7154.67  5.9356861E-01
   7155.00  5.9325368E-01
   7155.33  5.9324743E-01
   7155.67  5.9351422E-01
   7156.00  5.9404337E-01
   7156.33  5.9483709E-01
   7156.67  5.9581962E-01
   7157.00  5.9693472E-01
   7157.33  5.9810457E-01
   7157.67  5.9922337E-01
   7158.00  6.0019806E-01
   7158.33  6.0088785E-01
   7158.67  6.0122342E-01
   7159.00  6.0113228E-01
   7159.33  6.0049193E-01
   7159.67  5.9932772E-01
   7160.00  5.9762808E-01
   7160.33  5.9533184E-01
   7160.67  5.9252554E-01
   7161.00  5.8923481E-01
   7161.33  5.8543889E-01
   7161.67  5.8123210E-01
   7162.00  5.7664762E-01
   7162.33  5.7168112E-01
   7162.67  5.6641244E-01
   7163.00  5.6087252E-01
   7163.33  5.5506529E-01
   7163.67  5.4905147E-01
   7164.00  5.4285451E-01
   7164.33  5.3647719E-01
   7164.67  5.2995983E-01
   7165.00  5.2331808E-01
   7165.33  5.1655440E-01
   7165.67  5.0969737E-01
   7166.00  5.0275897E-01
   7166.33  4.9574268E-01
   7166.67  4.8866849E-01
   7167.00  4.8154631E-01
   7167.33  4.7438298E-01
   7167.67  4.6719623E-01
   7168.00  4.6000057E-01
   7168.33  4.5281840E-01
   7168.67  4.4567353E-01
   7169.00  4.3859220E-01
   7169.33  4.3162360E-01
   7169.67  4.2479993E-01
   7170.00  4.1816689E-01
   7170.33  4.1181702E-01
   7170.67  4.0579104E-01
   7171.00  4.0016460E-01
   7171.33  3.9511749E-01
   7171.67  3.9075364E-01
   7172.00  3.8726089E-01
