    FDMNES
    energy     <xanes>
   7097.00  4.8098744E-03
   7097.33  4.9098032E-03
   7097.67  5.0137664E-03
   7098.00  5.1220187E-03
   7098.33  5.2354641E-03
   7098.67  5.3538896E-03
   7099.00  5.4776405E-03
   7099.33  5.6078867E-03
   7099.67  5.7444103E-03
   7100.00  5.8876945E-03
   7100.33  6.0392974E-03
   7100.67  6.1990166E-03
   7101.00  6.3675528E-03
   7101.33  6.5470561E-03
   7101.67  6.7373845E-03
   7102.00  6.9395992E-03
   7102.33  7.1567982E-03
   7102.67  7.3890034E-03
   7103.00  7.6379074E-03
   7103.33  7.9082200E-03
   7103.67  8.2003684E-03
   7104.00  8.5172312E-03
   7104.33  8.8664683E-03
   7104.67  9.2495117E-03
   7105.00  9.6716675E-03
   7105.33  1.0146517E-02
   7105.67  1.0678121E-02
   7106.00  1.1277335E-02
   7106.33  1.1971140E-02
   7106.67  1.2771227E-02
   7107.00  1.3703139E-02
   7107.33  1.4829569E-02
   7107.67  1.6188283E-02
   7108.00  1.7852759E-02
   7108.33  2.0006315E-02
   7108.67  2.2802341E-02
   7109.00  2.6529215E-02
   7109.33  3.1959769E-02
   7109.67  4.0022126E-02
   7110.00  5.2544239E-02
   7110.33  7.4689065E-02
   7110.67  1.1027266E-01
   7111.00  1.5341599E-01
   7111.33  1.9283539E-01
   7111.67  2.3641662E-01
   7112.00  2.4314638E-01
   7112.33  2.1543548E-01
   7112.67  1.9736801E-01
   7113.00  1.6490767E-01
   7113.33  1.1942025E-01
   7113.67  8.9042833E-02
   7114.00  7.1441101E-02
   7114.33  5.9984157E-02
   7114.67  5.2091014E-02
   7115.00  4.7167851E-02
   7115.33  4.4485786E-02
   7115.67  4.3065494E-02
   7116.00  4.2450074E-02
   7116.33  4.2371657E-02
   7116.67  4.2748397E-02
   7117.00  4.3661421E-02
   7117.33  4.5246460E-02
   7117.67  4.7467147E-02
   7118.00  5.0361223E-02
   7118.33  5.4095850E-02
   7118.67  5.8688106E-02
   7119.00  6.4251436E-02
   7119.33  7.1049026E-02
   7119.67  7.9042393E-02
   7120.00  8.8329387E-02
   7120.33  9.9341365E-02
   7120.67  1.1231376E-01
   7121.00  1.2772611E-01
   7121.33  1.4659844E-01
   7121.67  1.6922946E-01
   7122.00  1.9620920E-01
   7122.33  2.2885927E-01
   7122.67  2.6751321E-01
   7123.00  3.1354860E-01
   7123.33  3.7017737E-01
   7123.67  4.3806678E-01
   7124.00  5.1845148E-01
   7124.33  6.1400242E-01
   7124.67  7.2314706E-01
   7125.00  8.4455478E-01
   7125.33  9.7413584E-01
   7125.67  1.0995342E+00
   7126.00  1.2046298E+00
   7126.33  1.2634398E+00
   7126.67  1.2713471E+00
   7127.00  1.2356296E+00
   7127.33  1.1731714E+00
   7127.67  1.1064251E+00
   7128.00  1.0463419E+00
   7128.33  9.9868319E-01
   7128.67  9.5805197E-01
   7129.00  9.1826945E-01
   7129.33  8.7539429E-01
   7129.67  8.3074973E-01
   7130.00  7.8617572E-01
   7130.33  7.4335825E-01
   7130.67  7.0304112E-01
   7131.00  6.6599944E-01
   7131.33  6.3354033E-01
   7131.67  6.0561228E-01
   7132.00  5.8228186E-01
   7132.33  5.6378435E-01
   7132.67  5.4899571E-01
   7133.00  5.3739008E-01
   7133.33  5.2884484E-01
   7133.67  5.2272558E-01
   7134.00  5.1880556E-01
   7134.33  5.1679357E-01
   7134.67  5.1542479E-01
   7135.00  5.1343990E-01
   7135.33  5.0959897E-01
   7135.67  5.0431781E-01
   7136.00  4.9850075E-01
   7136.33  4.9323253E-01
   7136.67  4.8904745E-01
   7137.00  4.8616425E-01
   7137.33  4.8483859E-01
   7137.67  4.8490234E-01
   7138.00  4.8633062E-01
   7138.33  4.8922395E-01
   7138.67  4.9334276E-01
   7139.00  4.9865745E-01
   7139.33  5.0529536E-01
   7139.67  5.1302803E-01
   7140.00  5.2170967E-01
   7140.33  5.3115205E-01
   7140.67  5.4087091E-01
   7141.00  5.5041585E-01
   7141.33  5.5905002E-01
   7141.67  5.6616737E-01
   7142.00  5.7116621E-01
   7142.33  5.7310857E-01
   7142.67  5.7194583E-01
   7143.00  5.6756902E-01
   7143.33  5.5974423E-01
   7143.67  5.4925645E-01
   7144.00  5.3658533E-01
   7144.33  5.2215791E-01
   7144.67  5.0677321E-01
   7145.00  4.9088481E-01
   7145.33  4.7490720E-01
   7145.67  4.5915982E-01
   7146.00  4.4382618E-01
   7146.33  4.2911148E-01
   7146.67  4.1502204E-01
   7147.00  4.0158904E-01
   7147.33  3.8890854E-01
   7147.67  3.7689796E-01
   7148.00  3.6555762E-01
   7148.33  3.5497735E-01
   7148.67  3.4508908E-01
   7149.00  3.3591838E-01
   7149.33  3.2760261E-01
   7149.67  3.2010080E-01
   7150.00  3.1346620E-01
   7150.33  3.0787678E-01
   7150.67  3.0326343E-01
   7151.00  2.9964526E-01
   7151.33  2.9714012E-01
   7151.67  2.9558771E-01
   7152.00  2.9493251E-01
   7152.33  2.9518536E-01
   7152.67  2.9613417E-01
   7153.00  2.9767285E-01
   7153.33  2.9973158E-01
   7153.67  3.0212683E-01
   7154.00  3.0475465E-01
   7154.33  3.0751778E-01
   7154.67  3.1030118E-01
   7155.00  3.1303042E-01
   7155.33  3.1561920E-01
   7155.67  3.1803288E-01
   7156.00  3.2024782E-01
   7156.33  3.2223944E-01
   7156.67  3.2406629E-01
   7157.00  3.2578498E-01
   7157.33  3.2748918E-01
   7157.67  3.2929750E-01
   7158.00  3.3131450E-01
   7158.33  3.3368858E-01
   7158.67  3.3646491E-01
   7159.00  3.3969065E-01
   7159.33  3.4343302E-01
   7159.67  3.4760464E-01
   7160.00  3.5216222E-01
   7160.33  3.5708961E-01
   7160.67  3.6229172E-01
   7161.00  3.6773056E-01
   7161.33  3.7340094E-01
   7161.67  3.7925978E-01
   7162.00  3.8530125E-01
   7162.33  3.9155037E-01
   7162.67  3.9799225E-01
   7163.00  4.0463630E-01
   7163.33  4.1151994E-01
   7163.67  4.1862247E-01
   7164.00  4.2594352E-01
   7164.33  4.3350370E-01
   7164.67  4.4126289E-01
   7165.00  4.4920220E-01
   7165.33  4.5731092E-01
   7165.67  4.6552936E-01
   7166.00  4.7380487E-01
   7166.33  4.8206399E-01
   7166.67  4.9024245E-01
   7167.00  4.9828324E-01
   7167.33  5.0609220E-01
   7167.67  5.1362781E-01
   7168.00  5.2083653E-01
   7168.33  5.2761684E-01
   7168.67  5.3397315E-01
   7169.00  5.3987786E-01
   7169.33  5.4525261E-01
   7169.67  5.5015033E-01
   7170.00  5.5457590E-01
   7170.33  5.5848769E-01
   7170.67  5.6196366E-01
   7171.00  5.6502113E-01
   7171.33  5.6762186E-01
   7171.67  5.6980847E-01
   7172.00  5.7155313E-01
