    FDMNES
    energy     <xanes>
   7097.00  4.2163692E-03
   7097.33  4.3031692E-03
   7097.67  4.3933408E-03
   7098.00  4.4870843E-03
   7098.33  4.5851343E-03
   7098.67  4.6872945E-03
   7099.00  4.7938312E-03
   7099.33  4.9056762E-03
   7099.67  5.0226209E-03
   7100.00  5.1450271E-03
   7100.33  5.2741062E-03
   7100.67  5.4096452E-03
   7101.00  5.5521515E-03
   7101.33  5.7032446E-03
   7101.67  5.8627287E-03
   7102.00  6.0313400E-03
   7102.33  6.2113208E-03
   7102.67  6.4025393E-03
   7103.00  6.6061111E-03
   7103.33  6.8252756E-03
   7103.67  7.0600747E-03
   7104.00  7.3122897E-03
   7104.33  7.5868597E-03
   7104.67  7.8842601E-03
   7105.00  8.2075321E-03
   7105.33  8.5647504E-03
   7105.67  8.9574908E-03
   7106.00  9.3914231E-03
   7106.33  9.8810488E-03
   7106.67  1.0430960E-02
   7107.00  1.1053103E-02
   7107.33  1.1777263E-02
   7107.67  1.2617603E-02
   7108.00  1.3604370E-02
   7108.33  1.4812979E-02
   7108.67  1.6296773E-02
   7109.00  1.8159611E-02
   7109.33  2.0675937E-02
   7109.67  2.4145731E-02
   7110.00  2.9163049E-02
   7110.33  3.7393050E-02
   7110.67  5.0020035E-02
   7111.00  6.4820198E-02
   7111.33  7.4141698E-02
   7111.67  8.2508173E-02
   7112.00  9.6027669E-02
   7112.33  1.2197299E-01
   7112.67  1.6530168E-01
   7113.00  2.2581866E-01
   7113.33  2.8419663E-01
   7113.67  3.0612142E-01
   7114.00  2.6176638E-01
   7114.33  1.8392411E-01
   7114.67  1.2878205E-01
   7115.00  9.7016389E-02
   7115.33  8.0711634E-02
   7115.67  7.2161913E-02
   7116.00  6.8737213E-02
   7116.33  6.9214571E-02
   7116.67  7.2474146E-02
   7117.00  7.8621500E-02
   7117.33  8.9042083E-02
   7117.67  1.0487434E-01
   7118.00  1.2766367E-01
   7118.33  1.5856430E-01
   7118.67  1.9113368E-01
   7119.00  2.1496877E-01
   7119.33  2.2039386E-01
   7119.67  2.1509070E-01
   7120.00  2.0718523E-01
   7120.33  2.0207804E-01
   7120.67  2.0026093E-01
   7121.00  2.0075693E-01
   7121.33  2.0224076E-01
   7121.67  2.0357852E-01
   7122.00  2.0412296E-01
   7122.33  2.0341395E-01
   7122.67  2.0220000E-01
   7123.00  2.0161166E-01
   7123.33  2.0320210E-01
   7123.67  2.0751744E-01
   7124.00  2.1470710E-01
   7124.33  2.2473929E-01
   7124.67  2.3664332E-01
   7125.00  2.4987736E-01
   7125.33  2.6409567E-01
   7125.67  2.7883183E-01
   7126.00  2.9380435E-01
   7126.33  3.0881927E-01
   7126.67  3.2382091E-01
   7127.00  3.3865488E-01
   7127.33  3.5308675E-01
   7127.67  3.6804147E-01
   7128.00  3.8561201E-01
   7128.33  4.0951157E-01
   7128.67  4.4127120E-01
   7129.00  4.8170090E-01
   7129.33  5.3148820E-01
   7129.67  5.8800498E-01
   7130.00  6.4900839E-01
   7130.33  7.1093548E-01
   7130.67  7.6909113E-01
   7131.00  8.1952273E-01
   7131.33  8.5748608E-01
   7131.67  8.8301402E-01
   7132.00  8.9635914E-01
   7132.33  8.9760153E-01
   7132.67  8.9040124E-01
   7133.00  8.7714717E-01
   7133.33  8.6012275E-01
   7133.67  8.4198552E-01
   7134.00  8.2427238E-01
   7134.33  8.0849424E-01
   7134.67  7.9502693E-01
   7135.00  7.8391586E-01
   7135.33  7.7533332E-01
   7135.67  7.6885812E-01
   7136.00  7.6423931E-01
   7136.33  7.6105186E-01
   7136.67  7.5825512E-01
   7137.00  7.5497386E-01
   7137.33  7.5005693E-01
   7137.67  7.4292634E-01
   7138.00  7.3317538E-01
   7138.33  7.2031226E-01
   7138.67  7.0489557E-01
   7139.00  6.8737848E-01
   7139.33  6.6838562E-01
   7139.67  6.4904010E-01
   7140.00  6.3017944E-01
   7140.33  6.1281353E-01
   7140.67  5.9737496E-01
   7141.00  5.8415146E-01
   7141.33  5.7352143E-01
   7141.67  5.6507939E-01
   7142.00  5.5861628E-01
   7142.33  5.5404044E-01
   7142.67  5.5083897E-01
   7143.00  5.4878171E-01
   7143.33  5.4776164E-01
   7143.67  5.4748486E-01
   7144.00  5.4783207E-01
   7144.33  5.4876471E-01
   7144.67  5.5013185E-01
   7145.00  5.5186524E-01
   7145.33  5.5391645E-01
   7145.67  5.5617134E-01
   7146.00  5.5857737E-01
   7146.33  5.6111196E-01
   7146.67  5.6375121E-01
   7147.00  5.6650462E-01
   7147.33  5.6940799E-01
   7147.67  5.7245194E-01
   7148.00  5.7561496E-01
   7148.33  5.7882956E-01
   7148.67  5.8196234E-01
   7149.00  5.8488116E-01
   7149.33  5.8742505E-01
   7149.67  5.8959138E-01
   7150.00  5.9140941E-01
   7150.33  5.9295787E-01
   7150.67  5.9443045E-01
   7151.00  5.9597282E-01
   7151.33  5.9773655E-01
   7151.67  5.9973389E-01
   7152.00  6.0189673E-01
   7152.33  6.0400560E-01
   7152.67  6.0571439E-01
   7153.00  6.0663508E-01
   7153.33  6.0610984E-01
   7153.67  6.0383053E-01
   7154.00  5.9947941E-01
   7154.33  5.9255081E-01
   7154.67  5.8329928E-01
   7155.00  5.7184466E-01
   7155.33  5.5822893E-01
   7155.67  5.4308290E-01
   7156.00  5.2679034E-01
   7156.33  5.0972718E-01
   7156.67  4.9242134E-01
   7157.00  4.7521588E-01
   7157.33  4.5850471E-01
   7157.67  4.4249971E-01
   7158.00  4.2737424E-01
   7158.33  4.1340066E-01
   7158.67  4.0054678E-01
   7159.00  3.8886798E-01
   7159.33  3.7856157E-01
   7159.67  3.6951063E-01
   7160.00  3.6174399E-01
   7160.33  3.5545823E-01
   7160.67  3.5051658E-01
   7161.00  3.4693411E-01
   7161.33  3.4487680E-01
   7161.67  3.4413876E-01
   7162.00  3.4465728E-01
   7162.33  3.4645727E-01
   7162.67  3.4922085E-01
   7163.00  3.5276398E-01
   7163.33  3.5691478E-01
   7163.67  3.6137102E-01
   7164.00  3.6594991E-01
   7164.33  3.7045157E-01
   7164.67  3.7472389E-01
   7165.00  3.7865798E-01
   7165.33  3.8210817E-01
   7165.67  3.8506999E-01
   7166.00  3.8751495E-01
   7166.33  3.8936279E-01
   7166.67  3.9068102E-01
   7167.00  3.9147893E-01
   7167.33  3.9171152E-01
   7167.67  3.9146611E-01
   7168.00  3.9076986E-01
   7168.33  3.8961157E-01
   7168.67  3.8809218E-01
   7169.00  3.8626106E-01
   7169.33  3.8415146E-01
   7169.67  3.8186407E-01
   7170.00  3.7946138E-01
   7170.33  3.7701218E-01
   7170.67  3.7459573E-01
   7171.00  3.7227663E-01
   7171.33  3.7015866E-01
   7171.67  3.6831795E-01
   7172.00  3.6685267E-01
