    FDMNES
    energy     <xanes>
   7097.00  5.2352368E-03
   7097.33  5.3587127E-03
   7097.67  5.4877744E-03
   7098.00  5.6227960E-03
   7098.33  5.7650629E-03
   7098.67  5.9143046E-03
   7099.00  6.0710276E-03
   7099.33  6.2369051E-03
   7099.67  6.4116559E-03
   7100.00  6.5959834E-03
   7100.33  6.7921194E-03
   7100.67  6.9997934E-03
   7101.00  7.2200118E-03
   7101.33  7.4558375E-03
   7101.67  7.7070603E-03
   7102.00  7.9751697E-03
   7102.33  8.2645177E-03
   7102.67  8.5750623E-03
   7103.00  8.9091018E-03
   7103.33  9.2730855E-03
   7103.67  9.6673840E-03
   7104.00  1.0095729E-02
   7104.33  1.0568192E-02
   7104.67  1.1086134E-02
   7105.00  1.1656016E-02
   7105.33  1.2294661E-02
   7105.67  1.3005882E-02
   7106.00  1.3801858E-02
   7106.33  1.4713321E-02
   7106.67  1.5750683E-02
   7107.00  1.6939713E-02
   7107.33  1.8344090E-02
   7107.67  1.9994641E-02
   7108.00  2.1955959E-02
   7108.33  2.4387713E-02
   7108.67  2.7400139E-02
   7109.00  3.1205411E-02
   7109.33  3.6353355E-02
   7109.67  4.3406612E-02
   7110.00  5.3461548E-02
   7110.33  6.9624470E-02
   7110.67  9.5284047E-02
   7111.00  1.3254909E-01
   7111.33  1.7673179E-01
   7111.67  2.2030257E-01
   7112.00  2.6113490E-01
   7112.33  3.0178298E-01
   7112.67  3.3140891E-01
   7113.00  3.4636937E-01
   7113.33  3.7138170E-01
   7113.67  4.2045670E-01
   7114.00  4.7992482E-01
   7114.33  5.0514498E-01
   7114.67  4.7769025E-01
   7115.00  4.1556385E-01
   7115.33  3.5174946E-01
   7115.67  3.0280558E-01
   7116.00  2.7041424E-01
   7116.33  2.5242543E-01
   7116.67  2.4049804E-01
   7117.00  2.2761335E-01
   7117.33  2.0852673E-01
   7117.67  1.8682131E-01
   7118.00  1.6736222E-01
   7118.33  1.5378640E-01
   7118.67  1.4529333E-01
   7119.00  1.4072780E-01
   7119.33  1.3915936E-01
   7119.67  1.3944900E-01
   7120.00  1.4103021E-01
   7120.33  1.4336714E-01
   7120.67  1.4610231E-01
   7121.00  1.4909668E-01
   7121.33  1.5204967E-01
   7121.67  1.5494525E-01
   7122.00  1.5802048E-01
   7122.33  1.6172657E-01
   7122.67  1.6685172E-01
   7123.00  1.7427879E-01
   7123.33  1.8470677E-01
   7123.67  1.9736387E-01
   7124.00  2.1150771E-01
   7124.33  2.2620064E-01
   7124.67  2.4061977E-01
   7125.00  2.5470420E-01
   7125.33  2.6918205E-01
   7125.67  2.8490921E-01
   7126.00  3.0243841E-01
   7126.33  3.2247752E-01
   7126.67  3.4516700E-01
   7127.00  3.7085087E-01
   7127.33  4.0002224E-01
   7127.67  4.3174381E-01
   7128.00  4.6502023E-01
   7128.33  4.9805272E-01
   7128.67  5.2860331E-01
   7129.00  5.5514866E-01
   7129.33  5.7702463E-01
   7129.67  5.9646839E-01
   7130.00  6.1565746E-01
   7130.33  6.3703008E-01
   7130.67  6.6157894E-01
   7131.00  6.8942139E-01
   7131.33  7.1993152E-01
   7131.67  7.5101658E-01
   7132.00  7.8085887E-01
   7132.33  8.0719355E-01
   7132.67  8.2906177E-01
   7133.00  8.4562984E-01
   7133.33  8.5533230E-01
   7133.67  8.5841489E-01
   7134.00  8.5500421E-01
   7134.33  8.4549790E-01
   7134.67  8.3224298E-01
   7135.00  8.1658997E-01
   7135.33  7.9968311E-01
   7135.67  7.8285029E-01
   7136.00  7.6685465E-01
   7136.33  7.5175101E-01
   7136.67  7.3625973E-01
   7137.00  7.1895666E-01
   7137.33  6.9828568E-01
   7137.67  6.7467300E-01
   7138.00  6.4919271E-01
   7138.33  6.2374472E-01
   7138.67  6.0020066E-01
   7139.00  5.7973365E-01
   7139.33  5.6351157E-01
   7139.67  5.5114970E-01
   7140.00  5.4240560E-01
   7140.33  5.3720870E-01
   7140.67  5.3463625E-01
   7141.00  5.3424506E-01
   7141.33  5.3577638E-01
   7141.67  5.3859955E-01
   7142.00  5.4239509E-01
   7142.33  5.4690131E-01
   7142.67  5.5172474E-01
   7143.00  5.5661726E-01
   7143.33  5.6129845E-01
   7143.67  5.6557541E-01
   7144.00  5.6929446E-01
   7144.33  5.7220728E-01
   7144.67  5.7425329E-01
   7145.00  5.7533569E-01
   7145.33  5.7527405E-01
   7145.67  5.7419570E-01
   7146.00  5.7212830E-01
   7146.33  5.6900606E-01
   7146.67  5.6501841E-01
   7147.00  5.6025215E-01
   7147.33  5.5476839E-01
   7147.67  5.4883166E-01
   7148.00  5.4262596E-01
   7148.33  5.3636758E-01
   7148.67  5.3026916E-01
   7149.00  5.2448333E-01
   7149.33  5.1921064E-01
   7149.67  5.1449811E-01
   7150.00  5.1040921E-01
   7150.33  5.0708558E-01
   7150.67  5.0448682E-01
   7151.00  5.0264150E-01
   7151.33  5.0167019E-01
   7151.67  5.0148995E-01
   7152.00  5.0210145E-01
   7152.33  5.0358572E-01
   7152.67  5.0580967E-01
   7153.00  5.0872478E-01
   7153.33  5.1232944E-01
   7153.67  5.1644369E-01
   7154.00  5.2095812E-01
   7154.33  5.2575520E-01
   7154.67  5.3063724E-01
   7155.00  5.3545438E-01
   7155.33  5.4000555E-01
   7155.67  5.4416599E-01
   7156.00  5.4782749E-01
   7156.33  5.5082808E-01
   7156.67  5.5319651E-01
   7157.00  5.5492722E-01
   7157.33  5.5596808E-01
   7157.67  5.5644230E-01
   7158.00  5.5639742E-01
   7158.33  5.5582935E-01
   7158.67  5.5484189E-01
   7159.00  5.5346525E-01
   7159.33  5.5168016E-01
   7159.67  5.4955259E-01
   7160.00  5.4709976E-01
   7160.33  5.4430862E-01
   7160.67  5.4125127E-01
   7161.00  5.3796776E-01
   7161.33  5.3449580E-01
   7161.67  5.3092582E-01
   7162.00  5.2732305E-01
   7162.33  5.2377078E-01
   7162.67  5.2033848E-01
   7163.00  5.1708395E-01
   7163.33  5.1409087E-01
   7163.67  5.1136968E-01
   7164.00  5.0894192E-01
   7164.33  5.0686493E-01
   7164.67  5.0510732E-01
   7165.00  5.0366349E-01
   7165.33  5.0255034E-01
   7165.67  5.0169729E-01
   7166.00  5.0106431E-01
   7166.33  5.0061402E-01
   7166.67  5.0025932E-01
   7167.00  4.9993745E-01
   7167.33  4.9956715E-01
   7167.67  4.9908075E-01
   7168.00  4.9842179E-01
   7168.33  4.9750738E-01
   7168.67  4.9632821E-01
   7169.00  4.9486976E-01
   7169.33  4.9309881E-01
   7169.67  4.9106616E-01
   7170.00  4.8880007E-01
   7170.33  4.8632634E-01
   7170.67  4.8373336E-01
   7171.00  4.8109290E-01
   7171.33  4.7852475E-01
   7171.67  4.7618451E-01
   7172.00  4.7425966E-01
