    FDMNES
    energy     <xanes>
   7097.00  5.1744370E-03
   7097.33  5.2947012E-03
   7097.67  5.4202907E-03
   7098.00  5.5515538E-03
   7098.33  5.6897023E-03
   7098.67  5.8344668E-03
   7099.00  5.9863160E-03
   7099.33  6.1468169E-03
   7099.67  6.3156857E-03
   7100.00  6.4935684E-03
   7100.33  6.6825392E-03
   7100.67  6.8823171E-03
   7101.00  7.0938180E-03
   7101.33  7.3198636E-03
   7101.67  7.5602156E-03
   7102.00  7.8162157E-03
   7102.33  8.0918312E-03
   7102.67  8.3869541E-03
   7103.00  8.7036294E-03
   7103.33  9.0476628E-03
   7103.67  9.4192734E-03
   7104.00  9.8217334E-03
   7104.33  1.0263971E-02
   7104.67  1.0746992E-02
   7105.00  1.1276362E-02
   7105.33  1.1866709E-02
   7105.67  1.2520975E-02
   7106.00  1.3249413E-02
   7106.33  1.4078092E-02
   7106.67  1.5015071E-02
   7107.00  1.6081405E-02
   7107.33  1.7329379E-02
   7107.67  1.8782414E-02
   7108.00  2.0491222E-02
   7108.33  2.2581077E-02
   7108.67  2.5132680E-02
   7109.00  2.8303469E-02
   7109.33  3.2497456E-02
   7109.67  3.8102913E-02
   7110.00  4.5874588E-02
   7110.33  5.7940608E-02
   7110.67  7.6768040E-02
   7111.00  1.0472144E-01
   7111.33  1.3974273E-01
   7111.67  1.7765004E-01
   7112.00  2.1698446E-01
   7112.33  2.5726359E-01
   7112.67  2.9835267E-01
   7113.00  3.2752561E-01
   7113.33  3.4743162E-01
   7113.67  3.8432498E-01
   7114.00  4.4959833E-01
   7114.33  5.1730390E-01
   7114.67  5.2903935E-01
   7115.00  4.7643593E-01
   7115.33  4.0193008E-01
   7115.67  3.4020581E-01
   7116.00  2.9745918E-01
   7116.33  2.7338096E-01
   7116.67  2.5983539E-01
   7117.00  2.4920526E-01
   7117.33  2.3209433E-01
   7117.67  2.0862874E-01
   7118.00  1.8491812E-01
   7118.33  1.6685128E-01
   7118.67  1.5431623E-01
   7119.00  1.4618262E-01
   7119.33  1.4124042E-01
   7119.67  1.3798515E-01
   7120.00  1.3609471E-01
   7120.33  1.3589810E-01
   7120.67  1.3746901E-01
   7121.00  1.4070885E-01
   7121.33  1.4474383E-01
   7121.67  1.4826164E-01
   7122.00  1.5132557E-01
   7122.33  1.5562453E-01
   7122.67  1.6258737E-01
   7123.00  1.7255099E-01
   7123.33  1.8509974E-01
   7123.67  1.9881130E-01
   7124.00  2.1278263E-01
   7124.33  2.2655931E-01
   7124.67  2.4059654E-01
   7125.00  2.5563030E-01
   7125.33  2.7289858E-01
   7125.67  2.9320247E-01
   7126.00  3.1725470E-01
   7126.33  3.4567998E-01
   7126.67  3.7698380E-01
   7127.00  4.0942261E-01
   7127.33  4.4057921E-01
   7127.67  4.6906434E-01
   7128.00  4.9458229E-01
   7128.33  5.1761098E-01
   7128.67  5.3971399E-01
   7129.00  5.6175478E-01
   7129.33  5.8426531E-01
   7129.67  6.0738019E-01
   7130.00  6.3127539E-01
   7130.33  6.5613917E-01
   7130.67  6.8117320E-01
   7131.00  7.0505513E-01
   7131.33  7.2569702E-01
   7131.67  7.4247863E-01
   7132.00  7.5550211E-01
   7132.33  7.6534638E-01
   7132.67  7.7352525E-01
   7133.00  7.8073004E-01
   7133.33  7.8703037E-01
   7133.67  7.9216121E-01
   7134.00  7.9570804E-01
   7134.33  7.9714789E-01
   7134.67  7.9656262E-01
   7135.00  7.9365880E-01
   7135.33  7.8745622E-01
   7135.67  7.7782798E-01
   7136.00  7.6475764E-01
   7136.33  7.4829804E-01
   7136.67  7.2948124E-01
   7137.00  7.0888519E-01
   7137.33  6.8705009E-01
   7137.67  6.6488032E-01
   7138.00  6.4313489E-01
   7138.33  6.2293294E-01
   7138.67  6.0498644E-01
   7139.00  5.8988014E-01
   7139.33  5.7838322E-01
   7139.67  5.7009573E-01
   7140.00  5.6477099E-01
   7140.33  5.6226406E-01
   7140.67  5.6176052E-01
   7141.00  5.6288680E-01
   7141.33  5.6549410E-01
   7141.67  5.6923136E-01
   7142.00  5.7399241E-01
   7142.33  5.7972524E-01
   7142.67  5.8600677E-01
   7143.00  5.9237470E-01
   7143.33  5.9802268E-01
   7143.67  6.0226995E-01
   7144.00  6.0458683E-01
   7144.33  6.0434570E-01
   7144.67  6.0181768E-01
   7145.00  5.9721190E-01
   7145.33  5.9071418E-01
   7145.67  5.8298639E-01
   7146.00  5.7439785E-01
   7146.33  5.6525784E-01
   7146.67  5.5592327E-01
   7147.00  5.4659244E-01
   7147.33  5.3746804E-01
   7147.67  5.2866824E-01
   7148.00  5.2029524E-01
   7148.33  5.1252226E-01
   7148.67  5.0538118E-01
   7149.00  4.9895071E-01
   7149.33  4.9341180E-01
   7149.67  4.8873586E-01
   7150.00  4.8497098E-01
   7150.33  4.8226945E-01
   7150.67  4.8052153E-01
   7151.00  4.7971638E-01
   7151.33  4.7993542E-01
   7151.67  4.8100788E-01
   7152.00  4.8286832E-01
   7152.33  4.8551845E-01
   7152.67  4.8877514E-01
   7153.00  4.9255001E-01
   7153.33  4.9678759E-01
   7153.67  5.0132889E-01
   7154.00  5.0608414E-01
   7154.33  5.1097066E-01
   7154.67  5.1588698E-01
   7155.00  5.2076730E-01
   7155.33  5.2553223E-01
   7155.67  5.3013763E-01
   7156.00  5.3454087E-01
   7156.33  5.3866834E-01
   7156.67  5.4251402E-01
   7157.00  5.4605003E-01
   7157.33  5.4920630E-01
   7157.67  5.5200604E-01
   7158.00  5.5444217E-01
   7158.33  5.5647299E-01
   7158.67  5.5815893E-01
   7159.00  5.5952175E-01
   7159.33  5.6055851E-01
   7159.67  5.6134364E-01
   7160.00  5.6191044E-01
   7160.33  5.6227199E-01
   7160.67  5.6248089E-01
   7161.00  5.6255597E-01
   7161.33  5.6249500E-01
   7161.67  5.6231610E-01
   7162.00  5.6201451E-01
   7162.33  5.6156019E-01
   7162.67  5.6095098E-01
   7163.00  5.6016769E-01
   7163.33  5.5915937E-01
   7163.67  5.5792050E-01
   7164.00  5.5642295E-01
   7164.33  5.5459675E-01
   7164.67  5.5245148E-01
   7165.00  5.4997162E-01
   7165.33  5.4710313E-01
   7165.67  5.4388692E-01
   7166.00  5.4032951E-01
   7166.33  5.3640944E-01
   7166.67  5.3219725E-01
   7167.00  5.2772620E-01
   7167.33  5.2301613E-01
   7167.67  5.1814753E-01
   7168.00  5.1317073E-01
   7168.33  5.0813927E-01
   7168.67  5.0311772E-01
   7169.00  4.9815491E-01
   7169.33  4.9331988E-01
   7169.67  4.8864959E-01
   7170.00  4.8417949E-01
   7170.33  4.7997388E-01
   7170.67  4.7603865E-01
   7171.00  4.7240809E-01
   7171.33  4.6918159E-01
   7171.67  4.6640402E-01
   7172.00  4.6418610E-01
