    FDMNES
    energy     <xanes>
   7097.00  4.6307676E-03
   7097.33  4.7367339E-03
   7097.67  4.8476224E-03
   7098.00  4.9637840E-03
   7098.33  5.0863888E-03
   7098.67  5.2152299E-03
   7099.00  5.3507941E-03
   7099.33  5.4946367E-03
   7099.67  5.6465578E-03
   7100.00  5.8072523E-03
   7100.33  5.9788491E-03
   7100.67  6.1611880E-03
   7101.00  6.3552961E-03
   7101.33  6.5641889E-03
   7101.67  6.7878194E-03
   7102.00  7.0277682E-03
   7102.33  7.2884884E-03
   7102.67  7.5702086E-03
   7103.00  7.8754845E-03
   7103.33  8.2112353E-03
   7103.67  8.5783424E-03
   7104.00  8.9811975E-03
   7104.33  9.4312596E-03
   7104.67  9.9309946E-03
   7105.00  1.0488555E-02
   7105.33  1.1124543E-02
   7105.67  1.1845532E-02
   7106.00  1.2668273E-02
   7106.33  1.3634117E-02
   7106.67  1.4761520E-02
   7107.00  1.6090064E-02
   7107.33  1.7716639E-02
   7107.67  1.9700559E-02
   7108.00  2.2156561E-02
   7108.33  2.5371253E-02
   7108.67  2.9588260E-02
   7109.00  3.5266198E-02
   7109.33  4.3642010E-02
   7109.67  5.6232643E-02
   7110.00  7.6045574E-02
   7110.33  1.1165567E-01
   7110.67  1.6941205E-01
   7111.00  2.3665573E-01
   7111.33  2.6726084E-01
   7111.67  2.8319539E-01
   7112.00  3.0713313E-01
   7112.33  3.2362150E-01
   7112.67  3.1769536E-01
   7113.00  2.9979402E-01
   7113.33  2.7044078E-01
   7113.67  2.2498842E-01
   7114.00  1.8172126E-01
   7114.33  1.5501003E-01
   7114.67  1.4232310E-01
   7115.00  1.4014115E-01
   7115.33  1.4095909E-01
   7115.67  1.3619220E-01
   7116.00  1.2676945E-01
   7116.33  1.1814116E-01
   7116.67  1.1217979E-01
   7117.00  1.0846272E-01
   7117.33  1.0617429E-01
   7117.67  1.0447768E-01
   7118.00  1.0327257E-01
   7118.33  1.0302227E-01
   7118.67  1.0420968E-01
   7119.00  1.0743796E-01
   7119.33  1.1330992E-01
   7119.67  1.1974802E-01
   7120.00  1.2370159E-01
   7120.33  1.2467097E-01
   7120.67  1.2591415E-01
   7121.00  1.2883139E-01
   7121.33  1.3399727E-01
   7121.67  1.4122322E-01
   7122.00  1.5062203E-01
   7122.33  1.6243800E-01
   7122.67  1.7592910E-01
   7123.00  1.9040099E-01
   7123.33  2.0525471E-01
   7123.67  2.2030617E-01
   7124.00  2.3559597E-01
   7124.33  2.5090203E-01
   7124.67  2.6565064E-01
   7125.00  2.7930140E-01
   7125.33  2.9151010E-01
   7125.67  3.0319331E-01
   7126.00  3.1564496E-01
   7126.33  3.3061968E-01
   7126.67  3.4816007E-01
   7127.00  3.6688938E-01
   7127.33  3.8333409E-01
   7127.67  3.9502805E-01
   7128.00  4.0171555E-01
   7128.33  4.0451736E-01
   7128.67  4.0551974E-01
   7129.00  4.0548397E-01
   7129.33  4.0466877E-01
   7129.67  4.0343809E-01
   7130.00  4.0220881E-01
   7130.33  4.0167521E-01
   7130.67  4.0227537E-01
   7131.00  4.0425581E-01
   7131.33  4.0786902E-01
   7131.67  4.1284734E-01
   7132.00  4.1905794E-01
   7132.33  4.2649520E-01
   7132.67  4.3496266E-01
   7133.00  4.4449027E-01
   7133.33  4.5529661E-01
   7133.67  4.6724486E-01
   7134.00  4.8018482E-01
   7134.33  4.9376396E-01
   7134.67  5.0723628E-01
   7135.00  5.1989934E-01
   7135.33  5.3075877E-01
   7135.67  5.3943643E-01
   7136.00  5.4571170E-01
   7136.33  5.4938724E-01
   7136.67  5.5116390E-01
   7137.00  5.5157093E-01
   7137.33  5.5123020E-01
   7137.67  5.5091431E-01
   7138.00  5.5113983E-01
   7138.33  5.5251258E-01
   7138.67  5.5524294E-01
   7139.00  5.5951542E-01
   7139.33  5.6564435E-01
   7139.67  5.7343191E-01
   7140.00  5.8281598E-01
   7140.33  5.9383573E-01
   7140.67  6.0609990E-01
   7141.00  6.1938347E-01
   7141.33  6.3347828E-01
   7141.67  6.4797989E-01
   7142.00  6.6262404E-01
   7142.33  6.7710830E-01
   7142.67  6.9121239E-01
   7143.00  7.0478467E-01
   7143.33  7.1763211E-01
   7143.67  7.2977954E-01
   7144.00  7.4120540E-01
   7144.33  7.5178337E-01
   7144.67  7.6154627E-01
   7145.00  7.7042427E-01
   7145.33  7.7818400E-01
   7145.67  7.8481612E-01
   7146.00  7.9020508E-01
   7146.33  7.9407367E-01
   7146.67  7.9653398E-01
   7147.00  7.9758802E-01
   7147.33  7.9712703E-01
   7147.67  7.9542655E-01
   7148.00  7.9260117E-01
   7148.33  7.8867030E-01
   7148.67  7.8389623E-01
   7149.00  7.7839285E-01
   7149.33  7.7221278E-01
   7149.67  7.6555089E-01
   7150.00  7.5850073E-01
   7150.33  7.5112496E-01
   7150.67  7.4354947E-01
   7151.00  7.3584485E-01
   7151.33  7.2807889E-01
   7151.67  7.2032492E-01
   7152.00  7.1263374E-01
   7152.33  7.0507146E-01
   7152.67  6.9766883E-01
   7153.00  6.9046037E-01
   7153.33  6.8351040E-01
   7153.67  6.7682143E-01
   7154.00  6.7041725E-01
   7154.33  6.6436113E-01
   7154.67  6.5863566E-01
   7155.00  6.5325516E-01
   7155.33  6.4827276E-01
   7155.67  6.4364227E-01
   7156.00  6.3935144E-01
   7156.33  6.3540908E-01
   7156.67  6.3172802E-01
   7157.00  6.2825153E-01
   7157.33  6.2491148E-01
   7157.67  6.2159646E-01
   7158.00  6.1822129E-01
   7158.33  6.1467564E-01
   7158.67  6.1090754E-01
   7159.00  6.0688030E-01
   7159.33  6.0255009E-01
   7159.67  5.9796946E-01
   7160.00  5.9316778E-01
   7160.33  5.8817723E-01
   7160.67  5.8308552E-01
   7161.00  5.7794867E-01
   7161.33  5.7282573E-01
   7161.67  5.6776259E-01
   7162.00  5.6279212E-01
   7162.33  5.5795912E-01
   7162.67  5.5326658E-01
   7163.00  5.4872083E-01
   7163.33  5.4433698E-01
   7163.67  5.4008465E-01
   7164.00  5.3594691E-01
   7164.33  5.3190922E-01
   7164.67  5.2793131E-01
   7165.00  5.2398820E-01
   7165.33  5.2005455E-01
   7165.67  5.1610818E-01
   7166.00  5.1213741E-01
   7166.33  5.0813594E-01
   7166.67  5.0411198E-01
   7167.00  5.0007164E-01
   7167.33  4.9602697E-01
   7167.67  4.9199628E-01
   7168.00  4.8799845E-01
   7168.33  4.8406597E-01
   7168.67  4.8022058E-01
   7169.00  4.7649021E-01
   7169.33  4.7292828E-01
   7169.67  4.6955138E-01
   7170.00  4.6638872E-01
   7170.33  4.6350123E-01
   7170.67  4.6088346E-01
   7171.00  4.5855292E-01
   7171.33  4.5656594E-01
   7171.67  4.5490679E-01
   7172.00  4.5359936E-01
