    FDMNES
    energy     <xanes>
   7097.00  5.2678486E-03
   7097.33  5.3947865E-03
   7097.67  5.5276779E-03
   7098.00  5.6669413E-03
   7098.33  5.8139810E-03
   7098.67  5.9685374E-03
   7099.00  6.1311868E-03
   7099.33  6.3037858E-03
   7099.67  6.4860771E-03
   7100.00  6.6788774E-03
   7100.33  6.8847096E-03
   7100.67  7.1033537E-03
   7101.00  7.3360056E-03
   7101.33  7.5862081E-03
   7101.67  7.8538556E-03
   7102.00  8.1407679E-03
   7102.33  8.4521200E-03
   7102.67  8.7880909E-03
   7103.00  9.1515829E-03
   7103.33  9.5505267E-03
   7103.67  9.9857755E-03
   7104.00  1.0462231E-02
   7104.33  1.0992795E-02
   7104.67  1.1579938E-02
   7105.00  1.2232557E-02
   7105.33  1.2973301E-02
   7105.67  1.3808736E-02
   7106.00  1.4756589E-02
   7106.33  1.5860834E-02
   7106.67  1.7139449E-02
   7107.00  1.8632520E-02
   7107.33  2.0438150E-02
   7107.67  2.2611334E-02
   7108.00  2.5260734E-02
   7108.33  2.8654995E-02
   7108.67  3.3001521E-02
   7109.00  3.8690260E-02
   7109.33  4.6742864E-02
   7109.67  5.8287611E-02
   7110.00  7.5522440E-02
   7110.33  1.0475839E-01
   7110.67  1.5310814E-01
   7111.00  2.2450624E-01
   7111.33  3.0327986E-01
   7111.67  3.7218878E-01
   7112.00  4.3796549E-01
   7112.33  4.7658395E-01
   7112.67  4.5420983E-01
   7113.00  3.8445009E-01
   7113.33  3.0636441E-01
   7113.67  2.4623981E-01
   7114.00  2.0834211E-01
   7114.33  1.9001045E-01
   7114.67  1.8186654E-01
   7115.00  1.8027497E-01
   7115.33  1.8425791E-01
   7115.67  1.8714302E-01
   7116.00  1.8183536E-01
   7116.33  1.6781505E-01
   7116.67  1.5332538E-01
   7117.00  1.4247741E-01
   7117.33  1.3671903E-01
   7117.67  1.3430184E-01
   7118.00  1.3361876E-01
   7118.33  1.3272779E-01
   7118.67  1.3066712E-01
   7119.00  1.2807523E-01
   7119.33  1.2665071E-01
   7119.67  1.2722404E-01
   7120.00  1.3000923E-01
   7120.33  1.3529315E-01
   7120.67  1.4280715E-01
   7121.00  1.5258759E-01
   7121.33  1.6493947E-01
   7121.67  1.7949814E-01
   7122.00  1.9607684E-01
   7122.33  2.1452403E-01
   7122.67  2.3415745E-01
   7123.00  2.5452857E-01
   7123.33  2.7517049E-01
   7123.67  2.9557732E-01
   7124.00  3.1526441E-01
   7124.33  3.3334127E-01
   7124.67  3.4943161E-01
   7125.00  3.6373918E-01
   7125.33  3.7783097E-01
   7125.67  3.9445421E-01
   7126.00  4.1602276E-01
   7126.33  4.4533905E-01
   7126.67  4.8196330E-01
   7127.00  5.2496218E-01
   7127.33  5.7252494E-01
   7127.67  6.2111805E-01
   7128.00  6.6819544E-01
   7128.33  7.1118518E-01
   7128.67  7.4960663E-01
   7129.00  7.8305267E-01
   7129.33  8.0964333E-01
   7129.67  8.2801747E-01
   7130.00  8.3644835E-01
   7130.33  8.3351824E-01
   7130.67  8.2294461E-01
   7131.00  8.0803181E-01
   7131.33  7.9219653E-01
   7131.67  7.7766672E-01
   7132.00  7.6508347E-01
   7132.33  7.5448130E-01
   7132.67  7.4497221E-01
   7133.00  7.3590693E-01
   7133.33  7.2662134E-01
   7133.67  7.1671439E-01
   7134.00  7.0600637E-01
   7134.33  6.9436856E-01
   7134.67  6.8201536E-01
   7135.00  6.6910594E-01
   7135.33  6.5581869E-01
   7135.67  6.4243028E-01
   7136.00  6.2914681E-01
   7136.33  6.1626146E-01
   7136.67  6.0400053E-01
   7137.00  5.9262347E-01
   7137.33  5.8261860E-01
   7137.67  5.7418480E-01
   7138.00  5.6759308E-01
   7138.33  5.6328562E-01
   7138.67  5.6093998E-01
   7139.00  5.6021370E-01
   7139.33  5.6048888E-01
   7139.67  5.6073022E-01
   7140.00  5.6021056E-01
   7140.33  5.5826261E-01
   7140.67  5.5500952E-01
   7141.00  5.5072671E-01
   7141.33  5.4583967E-01
   7141.67  5.4091260E-01
   7142.00  5.3627163E-01
   7142.33  5.3218954E-01
   7142.67  5.2864272E-01
   7143.00  5.2556243E-01
   7143.33  5.2284558E-01
   7143.67  5.2029278E-01
   7144.00  5.1778675E-01
   7144.33  5.1522830E-01
   7144.67  5.1258342E-01
   7145.00  5.0985821E-01
   7145.33  5.0709266E-01
   7145.67  5.0436388E-01
   7146.00  5.0174713E-01
   7146.33  4.9935947E-01
   7146.67  4.9725820E-01
   7147.00  4.9550098E-01
   7147.33  4.9419399E-01
   7147.67  4.9332717E-01
   7148.00  4.9291675E-01
   7148.33  4.9301309E-01
   7148.67  4.9352640E-01
   7149.00  4.9441205E-01
   7149.33  4.9564497E-01
   7149.67  4.9711310E-01
   7150.00  4.9874812E-01
   7150.33  5.0047886E-01
   7150.67  5.0221474E-01
   7151.00  5.0389188E-01
   7151.33  5.0542858E-01
   7151.67  5.0678475E-01
   7152.00  5.0792165E-01
   7152.33  5.0877338E-01
   7152.67  5.0934916E-01
   7153.00  5.0963894E-01
   7153.33  5.0960567E-01
   7153.67  5.0929496E-01
   7154.00  5.0872310E-01
   7154.33  5.0788772E-01
   7154.67  5.0685163E-01
   7155.00  5.0564738E-01
   7155.33  5.0430009E-01
   7155.67  5.0286873E-01
   7156.00  5.0139089E-01
   7156.33  4.9990909E-01
   7156.67  4.9846429E-01
   7157.00  4.9708764E-01
   7157.33  4.9582184E-01
   7157.67  4.9467820E-01
   7158.00  4.9367112E-01
   7158.33  4.9282780E-01
   7158.67  4.9213081E-01
   7159.00  4.9157504E-01
   7159.33  4.9116283E-01
   7159.67  4.9084834E-01
   7160.00  4.9059673E-01
   7160.33  4.9037743E-01
   7160.67  4.9015640E-01
   7161.00  4.8990837E-01
   7161.33  4.8960112E-01
   7161.67  4.8922128E-01
   7162.00  4.8875749E-01
   7162.33  4.8819318E-01
   7162.67  4.8754176E-01
   7163.00  4.8681003E-01
   7163.33  4.8600262E-01
   7163.67  4.8514547E-01
   7164.00  4.8425543E-01
   7164.33  4.8334952E-01
   7164.67  4.8244657E-01
   7165.00  4.8155846E-01
   7165.33  4.8070080E-01
   7165.67  4.7988325E-01
   7166.00  4.7911449E-01
   7166.33  4.7840783E-01
   7166.67  4.7776041E-01
   7167.00  4.7717658E-01
   7167.33  4.7666896E-01
   7167.67  4.7622796E-01
   7168.00  4.7584963E-01
   7168.33  4.7553632E-01
   7168.67  4.7527722E-01
   7169.00  4.7506953E-01
   7169.33  4.7491551E-01
   7169.67  4.7480573E-01
   7170.00  4.7473811E-01
   7170.33  4.7471613E-01
   7170.67  4.7473326E-01
   7171.00  4.7478737E-01
   7171.33  4.7487601E-01
   7171.67  4.7498005E-01
   7172.00  4.7507633E-01
