    FDMNES
    energy     <xanes>
   7097.00  5.3483680E-03
   7097.33  5.4810067E-03
   7097.67  5.6199422E-03
   7098.00  5.7656135E-03
   7098.33  5.9194990E-03
   7098.67  6.0813167E-03
   7099.00  6.2516666E-03
   7099.33  6.4324919E-03
   7099.67  6.6235056E-03
   7100.00  6.8255487E-03
   7100.33  7.0412405E-03
   7100.67  7.2703178E-03
   7101.00  7.5139952E-03
   7101.33  7.7759079E-03
   7101.67  8.0558812E-03
   7102.00  8.3557304E-03
   7102.33  8.6806800E-03
   7102.67  9.0307842E-03
   7103.00  9.4088700E-03
   7103.33  9.8227684E-03
   7103.67  1.0273075E-02
   7104.00  1.0764420E-02
   7104.33  1.1309160E-02
   7104.67  1.1909164E-02
   7105.00  1.2572495E-02
   7105.33  1.3319970E-02
   7105.67  1.4156547E-02
   7106.00  1.5097438E-02
   7106.33  1.6180797E-02
   7106.67  1.7419703E-02
   7107.00  1.8846072E-02
   7107.33  2.0538385E-02
   7107.67  2.2533877E-02
   7108.00  2.4910438E-02
   7108.33  2.7859129E-02
   7108.67  3.1505132E-02
   7109.00  3.6088728E-02
   7109.33  4.2220771E-02
   7109.67  5.0476217E-02
   7110.00  6.1957252E-02
   7110.33  7.9705336E-02
   7110.67  1.0700824E-01
   7111.00  1.4704648E-01
   7111.33  2.0271539E-01
   7111.67  2.8111784E-01
   7112.00  3.8629006E-01
   7112.33  4.9770787E-01
   7112.67  5.7694242E-01
   7113.00  5.8890041E-01
   7113.33  5.9206316E-01
   7113.67  6.0801262E-01
   7114.00  5.5067400E-01
   7114.33  4.1426805E-01
   7114.67  2.9925692E-01
   7115.00  2.2990468E-01
   7115.33  2.0316285E-01
   7115.67  2.0350490E-01
   7116.00  2.1653722E-01
   7116.33  2.1110375E-01
   7116.67  1.8598194E-01
   7117.00  1.6330742E-01
   7117.33  1.5469296E-01
   7117.67  1.4508021E-01
   7118.00  1.2573711E-01
   7118.33  1.0767500E-01
   7118.67  9.6801500E-02
   7119.00  9.2113045E-02
   7119.33  9.2001858E-02
   7119.67  9.3875011E-02
   7120.00  9.6929718E-02
   7120.33  1.0114193E-01
   7120.67  1.0579471E-01
   7121.00  1.1111005E-01
   7121.33  1.1817473E-01
   7121.67  1.2664130E-01
   7122.00  1.3601122E-01
   7122.33  1.4524308E-01
   7122.67  1.5298930E-01
   7123.00  1.5937413E-01
   7123.33  1.6642991E-01
   7123.67  1.7641114E-01
   7124.00  1.9075091E-01
   7124.33  2.1080658E-01
   7124.67  2.3576716E-01
   7125.00  2.6537452E-01
   7125.33  3.0134722E-01
   7125.67  3.4550243E-01
   7126.00  3.9956412E-01
   7126.33  4.6315122E-01
   7126.67  5.2815191E-01
   7127.00  5.8578237E-01
   7127.33  6.2696057E-01
   7127.67  6.5330636E-01
   7128.00  6.6808509E-01
   7128.33  6.7322894E-01
   7128.67  6.7015276E-01
   7129.00  6.5826574E-01
   7129.33  6.3795840E-01
   7129.67  6.1473362E-01
   7130.00  5.9330854E-01
   7130.33  5.7790174E-01
   7130.67  5.6832198E-01
   7131.00  5.6352375E-01
   7131.33  5.6294350E-01
   7131.67  5.6623429E-01
   7132.00  5.7419893E-01
   7132.33  5.8836251E-01
   7132.67  6.0812030E-01
   7133.00  6.3285639E-01
   7133.33  6.6165578E-01
   7133.67  6.9198487E-01
   7134.00  7.2115096E-01
   7134.33  7.4371240E-01
   7134.67  7.5497932E-01
   7135.00  7.5234944E-01
   7135.33  7.3608335E-01
   7135.67  7.1280002E-01
   7136.00  6.8675345E-01
   7136.33  6.6125120E-01
   7136.67  6.3792624E-01
   7137.00  6.1743802E-01
   7137.33  6.0011032E-01
   7137.67  5.8491103E-01
   7138.00  5.7117184E-01
   7138.33  5.5870126E-01
   7138.67  5.4768480E-01
   7139.00  5.3876130E-01
   7139.33  5.3310435E-01
   7139.67  5.3097385E-01
   7140.00  5.3266896E-01
   7140.33  5.3874018E-01
   7140.67  5.4846850E-01
   7141.00  5.6142389E-01
   7141.33  5.7717630E-01
   7141.67  5.9449498E-01
   7142.00  6.1254612E-01
   7142.33  6.3041632E-01
   7142.67  6.4740576E-01
   7143.00  6.6304961E-01
   7143.33  6.7671602E-01
   7143.67  6.8828940E-01
   7144.00  6.9752889E-01
   7144.33  7.0388775E-01
   7144.67  7.0751329E-01
   7145.00  7.0829875E-01
   7145.33  7.0580523E-01
   7145.67  7.0038756E-01
   7146.00  6.9211186E-01
   7146.33  6.8085449E-01
   7146.67  6.6734465E-01
   7147.00  6.5209872E-01
   7147.33  6.3578360E-01
   7147.67  6.1942275E-01
   7148.00  6.0379500E-01
   7148.33  5.8988734E-01
   7148.67  5.7809902E-01
   7149.00  5.6874021E-01
   7149.33  5.6226513E-01
   7149.67  5.5827368E-01
   7150.00  5.5656406E-01
   7150.33  5.5704269E-01
   7150.67  5.5908410E-01
   7151.00  5.6235199E-01
   7151.33  5.6658096E-01
   7151.67  5.7135055E-01
   7152.00  5.7644793E-01
   7152.33  5.8169976E-01
   7152.67  5.8693966E-01
   7153.00  5.9205056E-01
   7153.33  5.9684516E-01
   7153.67  6.0116652E-01
   7154.00  6.0481220E-01
   7154.33  6.0739966E-01
   7154.67  6.0878578E-01
   7155.00  6.0878597E-01
   7155.33  6.0708535E-01
   7155.67  6.0387146E-01
   7156.00  5.9923370E-01
   7156.33  5.9320124E-01
   7156.67  5.8616703E-01
   7157.00  5.7835138E-01
   7157.33  5.6993794E-01
   7157.67  5.6122308E-01
   7158.00  5.5238373E-01
   7158.33  5.4360455E-01
   7158.67  5.3502586E-01
   7159.00  5.2675082E-01
   7159.33  5.1892462E-01
   7159.67  5.1156798E-01
   7160.00  5.0472283E-01
   7160.33  4.9848210E-01
   7160.67  4.9277646E-01
   7161.00  4.8758481E-01
   7161.33  4.8292173E-01
   7161.67  4.7866230E-01
   7162.00  4.7473459E-01
   7162.33  4.7107608E-01
   7162.67  4.6756314E-01
   7163.00  4.6411598E-01
   7163.33  4.6064931E-01
   7163.67  4.5710289E-01
   7164.00  4.5344296E-01
   7164.33  4.4963659E-01
   7164.67  4.4570887E-01
   7165.00  4.4168689E-01
   7165.33  4.3761557E-01
   7165.67  4.3356879E-01
   7166.00  4.2961818E-01
   7166.33  4.2588046E-01
   7166.67  4.2242806E-01
   7167.00  4.1934091E-01
   7167.33  4.1675959E-01
   7167.67  4.1469606E-01
   7168.00  4.1319104E-01
   7168.33  4.1233789E-01
   7168.67  4.1204827E-01
   7169.00  4.1228355E-01
   7169.33  4.1303555E-01
   7169.67  4.1416202E-01
   7170.00  4.1557959E-01
   7170.33  4.1720969E-01
   7170.67  4.1892706E-01
   7171.00  4.2064717E-01
   7171.33  4.2226013E-01
   7171.67  4.2367044E-01
   7172.00  4.2477679E-01
