    FDMNES
    energy     <xanes>
   7097.00  5.2070461E-03
   7097.33  5.3324294E-03
   7097.67  5.4635663E-03
   7098.00  5.6008463E-03
   7098.33  5.7456005E-03
   7098.67  5.8975557E-03
   7099.00  6.0572407E-03
   7099.33  6.2263924E-03
   7099.67  6.4047283E-03
   7100.00  6.5929842E-03
   7100.33  6.7934830E-03
   7100.67  7.0059559E-03
   7101.00  7.2314576E-03
   7101.33  7.4731851E-03
   7101.67  7.7309354E-03
   7102.00  8.0062730E-03
   7102.33  8.3037521E-03
   7102.67  8.6233500E-03
   7103.00  8.9674846E-03
   7103.33  9.3429198E-03
   7103.67  9.7500703E-03
   7104.00  1.0192865E-02
   7104.33  1.0681882E-02
   7104.67  1.1218576E-02
   7105.00  1.1809745E-02
   7105.33  1.2473055E-02
   7105.67  1.3212513E-02
   7106.00  1.4040882E-02
   7106.33  1.4990331E-02
   7106.67  1.6071635E-02
   7107.00  1.7311553E-02
   7107.33  1.8776114E-02
   7107.67  2.0496543E-02
   7108.00  2.2538595E-02
   7108.33  2.5064167E-02
   7108.67  2.8180878E-02
   7109.00  3.2095946E-02
   7109.33  3.7339921E-02
   7109.67  4.4426935E-02
   7110.00  5.4349434E-02
   7110.33  6.9894579E-02
   7110.67  9.4331994E-02
   7111.00  1.3139700E-01
   7111.33  1.8234025E-01
   7111.67  2.3948818E-01
   7112.00  2.9655036E-01
   7112.33  3.4522542E-01
   7112.67  3.8908144E-01
   7113.00  4.2663876E-01
   7113.33  4.5929809E-01
   7113.67  4.8609118E-01
   7114.00  4.8875828E-01
   7114.33  4.5670791E-01
   7114.67  4.0495869E-01
   7115.00  3.5032316E-01
   7115.33  3.0837211E-01
   7115.67  2.8039957E-01
   7116.00  2.6417711E-01
   7116.33  2.5572161E-01
   7116.67  2.4743592E-01
   7117.00  2.3412837E-01
   7117.33  2.1389871E-01
   7117.67  1.9187524E-01
   7118.00  1.7225083E-01
   7118.33  1.5745546E-01
   7118.67  1.4648454E-01
   7119.00  1.3835923E-01
   7119.33  1.3221771E-01
   7119.67  1.2706538E-01
   7120.00  1.2259441E-01
   7120.33  1.1903028E-01
   7120.67  1.1685351E-01
   7121.00  1.1665307E-01
   7121.33  1.1881096E-01
   7121.67  1.2233492E-01
   7122.00  1.2644970E-01
   7122.33  1.3064693E-01
   7122.67  1.3485343E-01
   7123.00  1.3931595E-01
   7123.33  1.4462709E-01
   7123.67  1.5128062E-01
   7124.00  1.5982402E-01
   7124.33  1.7130796E-01
   7124.67  1.8626097E-01
   7125.00  2.0550612E-01
   7125.33  2.3058490E-01
   7125.67  2.6122566E-01
   7126.00  2.9685739E-01
   7126.33  3.3588718E-01
   7126.67  3.7494407E-01
   7127.00  4.1107253E-01
   7127.33  4.4037150E-01
   7127.67  4.6237290E-01
   7128.00  4.7851214E-01
   7128.33  4.9192286E-01
   7128.67  5.0619583E-01
   7129.00  5.2330846E-01
   7129.33  5.4515475E-01
   7129.67  5.7173124E-01
   7130.00  6.0285849E-01
   7130.33  6.3821492E-01
   7130.67  6.7597899E-01
   7131.00  7.1459263E-01
   7131.33  7.5189088E-01
   7131.67  7.8619700E-01
   7132.00  8.1641892E-01
   7132.33  8.4151838E-01
   7132.67  8.6260743E-01
   7133.00  8.8102532E-01
   7133.33  8.9925888E-01
   7133.67  9.2051823E-01
   7134.00  9.4757370E-01
   7134.33  9.8344461E-01
   7134.67  1.0254141E+00
   7135.00  1.0662044E+00
   7135.33  1.0873879E+00
   7135.67  1.0745749E+00
   7136.00  1.0246231E+00
   7136.33  9.4718081E-01
   7136.67  8.6342468E-01
   7137.00  7.8410783E-01
   7137.33  7.1569847E-01
   7137.67  6.5752331E-01
   7138.00  6.0861575E-01
   7138.33  5.6856445E-01
   7138.67  5.3518444E-01
   7139.00  5.0767858E-01
   7139.33  4.8597175E-01
   7139.67  4.6883917E-01
   7140.00  4.5583960E-01
   7140.33  4.4694414E-01
   7140.67  4.4123800E-01
   7141.00  4.3835702E-01
   7141.33  4.3823016E-01
   7141.67  4.4023646E-01
   7142.00  4.4415957E-01
   7142.33  4.5002379E-01
   7142.67  4.5747628E-01
   7143.00  4.6642453E-01
   7143.33  4.7692792E-01
   7143.67  4.8864750E-01
   7144.00  5.0135265E-01
   7144.33  5.1468162E-01
   7144.67  5.2792472E-01
   7145.00  5.4038035E-01
   7145.33  5.5093583E-01
   7145.67  5.5897719E-01
   7146.00  5.6400642E-01
   7146.33  5.6541511E-01
   7146.67  5.6382313E-01
   7147.00  5.5968697E-01
   7147.33  5.5347664E-01
   7147.67  5.4615312E-01
   7148.00  5.3827977E-01
   7148.33  5.3038617E-01
   7148.67  5.2286442E-01
   7149.00  5.1594845E-01
   7149.33  5.0991775E-01
   7149.67  5.0478731E-01
   7150.00  5.0061884E-01
   7150.33  4.9757617E-01
   7150.67  4.9555097E-01
   7151.00  4.9454682E-01
   7151.33  4.9468200E-01
   7151.67  4.9580601E-01
   7152.00  4.9788324E-01
   7152.33  5.0096314E-01
   7152.67  5.0484830E-01
   7153.00  5.0944522E-01
   7153.33  5.1469669E-01
   7153.67  5.2038190E-01
   7154.00  5.2636532E-01
   7154.33  5.3250644E-01
   7154.67  5.3863846E-01
   7155.00  5.4464625E-01
   7155.33  5.5038698E-01
   7155.67  5.5580238E-01
   7156.00  5.6083716E-01
   7156.33  5.6539617E-01
   7156.67  5.6951046E-01
   7157.00  5.7317420E-01
   7157.33  5.7633637E-01
   7157.67  5.7906558E-01
   7158.00  5.8137595E-01
   7158.33  5.8323338E-01
   7158.67  5.8470279E-01
   7159.00  5.8579550E-01
   7159.33  5.8647725E-01
   7159.67  5.8680244E-01
   7160.00  5.8677596E-01
   7160.33  5.8635680E-01
   7160.67  5.8558843E-01
   7161.00  5.8446887E-01
   7161.33  5.8294960E-01
   7161.67  5.8106991E-01
   7162.00  5.7882521E-01
   7162.33  5.7616432E-01
   7162.67  5.7313053E-01
   7163.00  5.6972336E-01
   7163.33  5.6589563E-01
   7163.67  5.6169325E-01
   7164.00  5.5712238E-01
   7164.33  5.5215258E-01
   7164.67  5.4684540E-01
   7165.00  5.4121893E-01
   7165.33  5.3526227E-01
   7165.67  5.2904408E-01
   7166.00  5.2259591E-01
   7166.33  5.1593460E-01
   7166.67  5.0912894E-01
   7167.00  5.0222037E-01
   7167.33  4.9525126E-01
   7167.67  4.8827880E-01
   7168.00  4.8134791E-01
   7168.33  4.7452312E-01
   7168.67  4.6784402E-01
   7169.00  4.6135306E-01
   7169.33  4.5512683E-01
   7169.67  4.4918048E-01
   7170.00  4.4355053E-01
   7170.33  4.3832196E-01
   7170.67  4.3348823E-01
   7171.00  4.2908272E-01
   7171.33  4.2521927E-01
   7171.67  4.2192478E-01
   7172.00  4.1930263E-01
