    FDMNES
    energy     <xanes>
   7097.00  4.3366058E-03
   7097.33  4.4269537E-03
   7097.67  4.5209644E-03
   7098.00  4.6188706E-03
   7098.33  4.7214964E-03
   7098.67  4.8286504E-03
   7099.00  4.9406491E-03
   7099.33  5.0585597E-03
   7099.67  5.1821868E-03
   7100.00  5.3119729E-03
   7100.33  5.4493406E-03
   7100.67  5.5941078E-03
   7101.00  5.7469155E-03
   7101.33  5.9097263E-03
   7101.67  6.0824117E-03
   7102.00  6.2659394E-03
   7102.33  6.4631330E-03
   7102.67  6.6740082E-03
   7103.00  6.9001016E-03
   7103.33  7.1456922E-03
   7103.67  7.4111507E-03
   7104.00  7.6990741E-03
   7104.33  8.0163837E-03
   7104.67  8.3643271E-03
   7105.00  8.7476524E-03
   7105.33  9.1785358E-03
   7105.67  9.6605100E-03
   7106.00  1.0203193E-02
   7106.33  1.0830538E-02
   7106.67  1.1552677E-02
   7107.00  1.2392014E-02
   7107.33  1.3403606E-02
   7107.67  1.4620068E-02
   7108.00  1.6105277E-02
   7108.33  1.8018685E-02
   7108.67  2.0492564E-02
   7109.00  2.3776292E-02
   7109.33  2.8538417E-02
   7109.67  3.5580679E-02
   7110.00  4.6488455E-02
   7110.33  6.5824806E-02
   7110.67  9.7708624E-02
   7111.00  1.3882656E-01
   7111.33  1.6584827E-01
   7111.67  1.7610952E-01
   7112.00  1.7974762E-01
   7112.33  1.7988106E-01
   7112.67  1.7852589E-01
   7113.00  1.7919781E-01
   7113.33  1.7512582E-01
   7113.67  1.5706541E-01
   7114.00  1.3334371E-01
   7114.33  1.1575075E-01
   7114.67  9.9880273E-02
   7115.00  8.4003980E-02
   7115.33  7.1939664E-02
   7115.67  6.4149944E-02
   7116.00  5.9803811E-02
   7116.33  5.8265494E-02
   7116.67  5.8621427E-02
   7117.00  6.0554236E-02
   7117.33  6.3925890E-02
   7117.67  6.8241295E-02
   7118.00  7.3151404E-02
   7118.33  7.8281263E-02
   7118.67  8.3450888E-02
   7119.00  8.8876156E-02
   7119.33  9.5143695E-02
   7119.67  1.0253229E-01
   7120.00  1.1112892E-01
   7120.33  1.2098555E-01
   7120.67  1.3178956E-01
   7121.00  1.4339623E-01
   7121.33  1.5586228E-01
   7121.67  1.6938196E-01
   7122.00  1.8450660E-01
   7122.33  2.0225373E-01
   7122.67  2.2274697E-01
   7123.00  2.4584621E-01
   7123.33  2.7072350E-01
   7123.67  2.9517800E-01
   7124.00  3.1727820E-01
   7124.33  3.3556097E-01
   7124.67  3.5167505E-01
   7125.00  3.6793929E-01
   7125.33  3.8712730E-01
   7125.67  4.1019704E-01
   7126.00  4.3759228E-01
   7126.33  4.6928354E-01
   7126.67  5.0211807E-01
   7127.00  5.3304170E-01
   7127.33  5.6074713E-01
   7127.67  5.8780342E-01
   7128.00  6.1639269E-01
   7128.33  6.4729728E-01
   7128.67  6.7798797E-01
   7129.00  7.0546908E-01
   7129.33  7.2616491E-01
   7129.67  7.3909608E-01
   7130.00  7.4395845E-01
   7130.33  7.4160241E-01
   7130.67  7.3548356E-01
   7131.00  7.2733296E-01
   7131.33  7.1817001E-01
   7131.67  7.0884373E-01
   7132.00  6.9986085E-01
   7132.33  6.9158930E-01
   7132.67  6.8393384E-01
   7133.00  6.7699317E-01
   7133.33  6.7174401E-01
   7133.67  6.6963676E-01
   7134.00  6.7238722E-01
   7134.33  6.8207460E-01
   7134.67  6.9745098E-01
   7135.00  7.1662442E-01
   7135.33  7.3658287E-01
   7135.67  7.5431080E-01
   7136.00  7.6815362E-01
   7136.33  7.7685470E-01
   7136.67  7.8128190E-01
   7137.00  7.8205022E-01
   7137.33  7.7956584E-01
   7137.67  7.7485095E-01
   7138.00  7.6836341E-01
   7138.33  7.6036549E-01
   7138.67  7.5137052E-01
   7139.00  7.4162367E-01
   7139.33  7.3130593E-01
   7139.67  7.2070278E-01
   7140.00  7.1000185E-01
   7140.33  6.9943951E-01
   7140.67  6.8921518E-01
   7141.00  6.7949253E-01
   7141.33  6.7050511E-01
   7141.67  6.6227462E-01
   7142.00  6.5484307E-01
   7142.33  6.4831804E-01
   7142.67  6.4257423E-01
   7143.00  6.3757188E-01
   7143.33  6.3333211E-01
   7143.67  6.2969025E-01
   7144.00  6.2656391E-01
   7144.33  6.2388615E-01
   7144.67  6.2146299E-01
   7145.00  6.1914652E-01
   7145.33  6.1672676E-01
   7145.67  6.1399998E-01
   7146.00  6.1078436E-01
   7146.33  6.0681099E-01
   7146.67  6.0202877E-01
   7147.00  5.9637243E-01
   7147.33  5.8971675E-01
   7147.67  5.8222050E-01
   7148.00  5.7396483E-01
   7148.33  5.6499504E-01
   7148.67  5.5552202E-01
   7149.00  5.4564241E-01
   7149.33  5.3541029E-01
   7149.67  5.2494616E-01
   7150.00  5.1431168E-01
   7150.33  5.0355490E-01
   7150.67  4.9274192E-01
   7151.00  4.8191291E-01
   7151.33  4.7111322E-01
   7151.67  4.6037931E-01
   7152.00  4.4974559E-01
   7152.33  4.3927179E-01
   7152.67  4.2898721E-01
   7153.00  4.1893907E-01
   7153.33  4.0922934E-01
   7153.67  3.9989673E-01
   7154.00  3.9101547E-01
   7154.33  3.8274303E-01
   7154.67  3.7509784E-01
   7155.00  3.6814055E-01
   7155.33  3.6200677E-01
   7155.67  3.5661241E-01
   7156.00  3.5192724E-01
   7156.33  3.4794907E-01
   7156.67  3.4447700E-01
   7157.00  3.4138414E-01
   7157.33  3.3854338E-01
   7157.67  3.3578893E-01
   7158.00  3.3303412E-01
   7158.33  3.3021767E-01
   7158.67  3.2734252E-01
   7159.00  3.2444052E-01
   7159.33  3.2158447E-01
   7159.67  3.1885681E-01
   7160.00  3.1633701E-01
   7160.33  3.1414942E-01
   7160.67  3.1233551E-01
   7161.00  3.1095618E-01
   7161.33  3.1013815E-01
   7161.67  3.0986302E-01
   7162.00  3.1014870E-01
   7162.33  3.1107760E-01
   7162.67  3.1258652E-01
   7163.00  3.1467489E-01
   7163.33  3.1740095E-01
   7163.67  3.2066705E-01
   7164.00  3.2443819E-01
   7164.33  3.2871620E-01
   7164.67  3.3337609E-01
   7165.00  3.3834904E-01
   7165.33  3.4357602E-01
   7165.67  3.4893948E-01
   7166.00  3.5436515E-01
   7166.33  3.5976964E-01
   7166.67  3.6508335E-01
   7167.00  3.7025655E-01
   7167.33  3.7522560E-01
   7167.67  3.7998924E-01
   7168.00  3.8453855E-01
   7168.33  3.8884783E-01
   7168.67  3.9295369E-01
   7169.00  3.9686867E-01
   7169.33  4.0058723E-01
   7169.67  4.0414589E-01
   7170.00  4.0755339E-01
   7170.33  4.1079473E-01
   7170.67  4.1388118E-01
   7171.00  4.1679350E-01
   7171.33  4.1945623E-01
   7171.67  4.2180285E-01
   7172.00  4.2370876E-01
