    FDMNES
    energy     <xanes>
   7097.00  4.1045145E-03
   7097.33  4.1847406E-03
   7097.67  4.2679592E-03
   7098.00  4.3543473E-03
   7098.33  4.4445559E-03
   7098.67  4.5384112E-03
   7099.00  4.6361504E-03
   7099.33  4.7386034E-03
   7099.67  4.8455893E-03
   7100.00  4.9574354E-03
   7100.33  5.0752300E-03
   7100.67  5.1987966E-03
   7101.00  5.3286035E-03
   7101.33  5.4661274E-03
   7101.67  5.6112235E-03
   7102.00  5.7645905E-03
   7102.33  5.9283195E-03
   7102.67  6.1023591E-03
   7103.00  6.2878084E-03
   7103.33  6.4877881E-03
   7103.67  6.7024876E-03
   7104.00  6.9337491E-03
   7104.33  7.1865544E-03
   7104.67  7.4616980E-03
   7105.00  7.7625296E-03
   7105.33  8.0977236E-03
   7105.67  8.4696691E-03
   7106.00  8.8851345E-03
   7106.33  9.3610746E-03
   7106.67  9.9045214E-03
   7107.00  1.0531254E-02
   7107.33  1.1280166E-02
   7107.67  1.2174216E-02
   7108.00  1.3258555E-02
   7108.33  1.4646071E-02
   7108.67  1.6430599E-02
   7109.00  1.8789137E-02
   7109.33  2.2196264E-02
   7109.67  2.7221334E-02
   7110.00  3.4991368E-02
   7110.33  4.8795382E-02
   7110.67  7.2080226E-02
   7111.00  1.0425808E-01
   7111.33  1.2594065E-01
   7111.67  1.2478688E-01
   7112.00  1.1307876E-01
   7112.33  1.0695435E-01
   7112.67  1.0865466E-01
   7113.00  1.1518645E-01
   7113.33  1.1949891E-01
   7113.67  1.1709885E-01
   7114.00  1.0970311E-01
   7114.33  9.8545515E-02
   7114.67  8.3402399E-02
   7115.00  6.7657247E-02
   7115.33  5.6147534E-02
   7115.67  4.8636353E-02
   7116.00  4.4105709E-02
   7116.33  4.1798418E-02
   7116.67  4.0837120E-02
   7117.00  4.0878789E-02
   7117.33  4.1719790E-02
   7117.67  4.3026316E-02
   7118.00  4.4680480E-02
   7118.33  4.6852723E-02
   7118.67  4.9760289E-02
   7119.00  5.3641536E-02
   7119.33  5.8979269E-02
   7119.67  6.6070590E-02
   7120.00  7.5481215E-02
   7120.33  8.8549444E-02
   7120.67  1.0616489E-01
   7121.00  1.2976287E-01
   7121.33  1.6203681E-01
   7121.67  2.0196573E-01
   7122.00  2.4501538E-01
   7122.33  2.7998680E-01
   7122.67  3.0148836E-01
   7123.00  3.1050291E-01
   7123.33  3.0949893E-01
   7123.67  3.0471998E-01
   7124.00  3.0162190E-01
   7124.33  3.0468908E-01
   7124.67  3.1346746E-01
   7125.00  3.2727297E-01
   7125.33  3.4540831E-01
   7125.67  3.6557199E-01
   7126.00  3.8626199E-01
   7126.33  4.0727925E-01
   7126.67  4.3062474E-01
   7127.00  4.5899273E-01
   7127.33  4.9598797E-01
   7127.67  5.4162232E-01
   7128.00  5.9433115E-01
   7128.33  6.4888302E-01
   7128.67  6.9780696E-01
   7129.00  7.3721332E-01
   7129.33  7.6670394E-01
   7129.67  7.9028110E-01
   7130.00  8.0881718E-01
   7130.33  8.2155945E-01
   7130.67  8.3018867E-01
   7131.00  8.3625416E-01
   7131.33  8.4077507E-01
   7131.67  8.4402333E-01
   7132.00  8.4557107E-01
   7132.33  8.4476645E-01
   7132.67  8.4175118E-01
   7133.00  8.3624939E-01
   7133.33  8.2712042E-01
   7133.67  8.1416930E-01
   7134.00  7.9754359E-01
   7134.33  7.7830652E-01
   7134.67  7.5894048E-01
   7135.00  7.4090252E-01
   7135.33  7.2512821E-01
   7135.67  7.1146543E-01
   7136.00  6.9983961E-01
   7136.33  6.9025036E-01
   7136.67  6.8208928E-01
   7137.00  6.7493702E-01
   7137.33  6.6833101E-01
   7137.67  6.6174432E-01
   7138.00  6.5489866E-01
   7138.33  6.4763002E-01
   7138.67  6.4010329E-01
   7139.00  6.3256562E-01
   7139.33  6.2542136E-01
   7139.67  6.1896027E-01
   7140.00  6.1338751E-01
   7140.33  6.0895215E-01
   7140.67  6.0555043E-01
   7141.00  6.0316761E-01
   7141.33  6.0193809E-01
   7141.67  6.0179165E-01
   7142.00  6.0280167E-01
   7142.33  6.0516891E-01
   7142.67  6.0869072E-01
   7143.00  6.1321405E-01
   7143.33  6.1850119E-01
   7143.67  6.2399365E-01
   7144.00  6.2919609E-01
   7144.33  6.3339874E-01
   7144.67  6.3621445E-01
   7145.00  6.3740161E-01
   7145.33  6.3674940E-01
   7145.67  6.3472181E-01
   7146.00  6.3169154E-01
   7146.33  6.2806875E-01
   7146.67  6.2428399E-01
   7147.00  6.2050877E-01
   7147.33  6.1681754E-01
   7147.67  6.1314023E-01
   7148.00  6.0935759E-01
   7148.33  6.0526000E-01
   7148.67  6.0071879E-01
   7149.00  5.9564016E-01
   7149.33  5.8991890E-01
   7149.67  5.8365606E-01
   7150.00  5.7690712E-01
   7150.33  5.6970511E-01
   7150.67  5.6218875E-01
   7151.00  5.5442496E-01
   7151.33  5.4644723E-01
   7151.67  5.3831329E-01
   7152.00  5.3003581E-01
   7152.33  5.2159648E-01
   7152.67  5.1300457E-01
   7153.00  5.0425320E-01
   7153.33  4.9532084E-01
   7153.67  4.8623839E-01
   7154.00  4.7702749E-01
   7154.33  4.6771466E-01
   7154.67  4.5835837E-01
   7155.00  4.4900229E-01
   7155.33  4.3970238E-01
   7155.67  4.3049848E-01
   7156.00  4.2142747E-01
   7156.33  4.1255350E-01
   7156.67  4.0389936E-01
   7157.00  3.9550672E-01
   7157.33  3.8746659E-01
   7157.67  3.7979286E-01
   7158.00  3.7253055E-01
   7158.33  3.6578734E-01
   7158.67  3.5954373E-01
   7159.00  3.5382000E-01
   7159.33  3.4869252E-01
   7159.67  3.4409280E-01
   7160.00  3.4001130E-01
   7160.33  3.3649353E-01
   7160.67  3.3345579E-01
   7161.00  3.3087577E-01
   7161.33  3.2878041E-01
   7161.67  3.2710002E-01
   7162.00  3.2582960E-01
   7162.33  3.2501989E-01
   7162.67  3.2462637E-01
   7163.00  3.2465812E-01
   7163.33  3.2517855E-01
   7163.67  3.2613751E-01
   7164.00  3.2753265E-01
   7164.33  3.2940562E-01
   7164.67  3.3168155E-01
   7165.00  3.3433268E-01
   7165.33  3.3735695E-01
   7165.67  3.4066042E-01
   7166.00  3.4419391E-01
   7166.33  3.4791918E-01
   7166.67  3.5175506E-01
   7167.00  3.5565195E-01
   7167.33  3.5955692E-01
   7167.67  3.6341991E-01
   7168.00  3.6720382E-01
   7168.33  3.7085866E-01
   7168.67  3.7437088E-01
   7169.00  3.7772249E-01
   7169.33  3.8087740E-01
   7169.67  3.8384923E-01
   7170.00  3.8663468E-01
   7170.33  3.8920989E-01
   7170.67  3.9159842E-01
   7171.00  3.9379681E-01
   7171.33  3.9576142E-01
   7171.67  3.9746869E-01
   7172.00  3.9884310E-01
