    FDMNES
    energy     <xanes>
   7097.00  4.4471064E-03
   7097.33  4.5421338E-03
   7097.67  4.6410322E-03
   7098.00  4.7440437E-03
   7098.33  4.8520315E-03
   7098.67  4.9647871E-03
   7099.00  5.0826370E-03
   7099.33  5.2066927E-03
   7099.67  5.3367385E-03
   7100.00  5.4732271E-03
   7100.33  5.6176308E-03
   7100.67  5.7697426E-03
   7101.00  5.9302141E-03
   7101.33  6.1010612E-03
   7101.67  6.2821257E-03
   7102.00  6.4743849E-03
   7102.33  6.6807187E-03
   7102.67  6.9011074E-03
   7103.00  7.1370963E-03
   7103.33  7.3930236E-03
   7103.67  7.6692224E-03
   7104.00  7.9683021E-03
   7104.33  8.2972587E-03
   7104.67  8.6573176E-03
   7105.00  9.0532716E-03
   7105.33  9.4974590E-03
   7105.67  9.9934884E-03
   7106.00  1.0551193E-02
   7106.33  1.1195125E-02
   7106.67  1.1935979E-02
   7107.00  1.2797227E-02
   7107.33  1.3836723E-02
   7107.67  1.5090267E-02
   7108.00  1.6627510E-02
   7108.33  1.8623614E-02
   7108.67  2.1231582E-02
   7109.00  2.4740537E-02
   7109.33  2.9937912E-02
   7109.67  3.7817483E-02
   7110.00  5.0358218E-02
   7110.33  7.3185420E-02
   7110.67  1.0989492E-01
   7111.00  1.4962187E-01
   7111.33  1.6216510E-01
   7111.67  1.6548052E-01
   7112.00  1.6592592E-01
   7112.33  1.5152894E-01
   7112.67  1.3261533E-01
   7113.00  1.1548552E-01
   7113.33  9.8412690E-02
   7113.67  8.2748162E-02
   7114.00  7.0184156E-02
   7114.33  6.2433711E-02
   7114.67  5.8872377E-02
   7115.00  5.8851314E-02
   7115.33  6.2158534E-02
   7115.67  6.8139642E-02
   7116.00  7.6715266E-02
   7116.33  8.8242135E-02
   7116.67  1.0251464E-01
   7117.00  1.1972097E-01
   7117.33  1.4064872E-01
   7117.67  1.6550229E-01
   7118.00  1.9503893E-01
   7118.33  2.3098524E-01
   7118.67  2.7318344E-01
   7119.00  3.2074118E-01
   7119.33  3.6965466E-01
   7119.67  4.1234662E-01
   7120.00  4.4257258E-01
   7120.33  4.5591037E-01
   7120.67  4.5742412E-01
   7121.00  4.5177669E-01
   7121.33  4.4323176E-01
   7121.67  4.3484624E-01
   7122.00  4.2760182E-01
   7122.33  4.2152185E-01
   7122.67  4.1543945E-01
   7123.00  4.0855750E-01
   7123.33  4.0130917E-01
   7123.67  3.9524375E-01
   7124.00  3.9107931E-01
   7124.33  3.8840313E-01
   7124.67  3.8568425E-01
   7125.00  3.8219732E-01
   7125.33  3.7837126E-01
   7125.67  3.7558054E-01
   7126.00  3.7479991E-01
   7126.33  3.7676218E-01
   7126.67  3.8098878E-01
   7127.00  3.8709653E-01
   7127.33  3.9465077E-01
   7127.67  4.0279284E-01
   7128.00  4.1094462E-01
   7128.33  4.1853458E-01
   7128.67  4.2538344E-01
   7129.00  4.3152915E-01
   7129.33  4.3721902E-01
   7129.67  4.4297370E-01
   7130.00  4.4923564E-01
   7130.33  4.5658623E-01
   7130.67  4.6523062E-01
   7131.00  4.7529745E-01
   7131.33  4.8688373E-01
   7131.67  4.9946648E-01
   7132.00  5.1249954E-01
   7132.33  5.2505151E-01
   7132.67  5.3617891E-01
   7133.00  5.4510634E-01
   7133.33  5.5089615E-01
   7133.67  5.5378491E-01
   7134.00  5.5405565E-01
   7134.33  5.5209409E-01
   7134.67  5.4891585E-01
   7135.00  5.4515960E-01
   7135.33  5.4146581E-01
   7135.67  5.3830826E-01
   7136.00  5.3597766E-01
   7136.33  5.3481935E-01
   7136.67  5.3480863E-01
   7137.00  5.3596664E-01
   7137.33  5.3839760E-01
   7137.67  5.4187436E-01
   7138.00  5.4629823E-01
   7138.33  5.5164291E-01
   7138.67  5.5767651E-01
   7139.00  5.6429536E-01
   7139.33  5.7145192E-01
   7139.67  5.7899125E-01
   7140.00  5.8683435E-01
   7140.33  5.9490624E-01
   7140.67  6.0306203E-01
   7141.00  6.1117910E-01
   7141.33  6.1906691E-01
   7141.67  6.2657185E-01
   7142.00  6.3354284E-01
   7142.33  6.3974110E-01
   7142.67  6.4514191E-01
   7143.00  6.4969338E-01
   7143.33  6.5328133E-01
   7143.67  6.5605581E-01
   7144.00  6.5808123E-01
   7144.33  6.5936072E-01
   7144.67  6.6006895E-01
   7145.00  6.6028340E-01
   7145.33  6.6001819E-01
   7145.67  6.5937571E-01
   7146.00  6.5838771E-01
   7146.33  6.5704086E-01
   7146.67  6.5539585E-01
   7147.00  6.5346898E-01
   7147.33  6.5124351E-01
   7147.67  6.4876687E-01
   7148.00  6.4605242E-01
   7148.33  6.4308919E-01
   7148.67  6.3992007E-01
   7149.00  6.3655506E-01
   7149.33  6.3297717E-01
   7149.67  6.2921088E-01
   7150.00  6.2525256E-01
   7150.33  6.2106916E-01
   7150.67  6.1667529E-01
   7151.00  6.1206160E-01
   7151.33  6.0718985E-01
   7151.67  6.0208277E-01
   7152.00  5.9673926E-01
   7152.33  5.9113410E-01
   7152.67  5.8530679E-01
   7153.00  5.7927194E-01
   7153.33  5.7302855E-01
   7153.67  5.6662700E-01
   7154.00  5.6009447E-01
   7154.33  5.5345361E-01
   7154.67  5.4675323E-01
   7155.00  5.4002593E-01
   7155.33  5.3331233E-01
   7155.67  5.2665071E-01
   7156.00  5.2007412E-01
   7156.33  5.1363271E-01
   7156.67  5.0734214E-01
   7157.00  5.0122533E-01
   7157.33  4.9532948E-01
   7157.67  4.8964796E-01
   7158.00  4.8419173E-01
   7158.33  4.7899708E-01
   7158.67  4.7403691E-01
   7159.00  4.6931000E-01
   7159.33  4.6484110E-01
   7159.67  4.6059634E-01
   7160.00  4.5657083E-01
   7160.33  4.5277924E-01
   7160.67  4.4917993E-01
   7161.00  4.4576409E-01
   7161.33  4.4254563E-01
   7161.67  4.3949471E-01
   7162.00  4.3660543E-01
   7162.33  4.3389067E-01
   7162.67  4.3132425E-01
   7163.00  4.2890056E-01
   7163.33  4.2663054E-01
   7163.67  4.2449097E-01
   7164.00  4.2247554E-01
   7164.33  4.2059008E-01
   7164.67  4.1881139E-01
   7165.00  4.1713219E-01
   7165.33  4.1555490E-01
   7165.67  4.1405872E-01
   7166.00  4.1263602E-01
   7166.33  4.1128753E-01
   7166.67  4.0999944E-01
   7167.00  4.0876858E-01
   7167.33  4.0759979E-01
   7167.67  4.0648659E-01
   7168.00  4.0543189E-01
   7168.33  4.0445018E-01
   7168.67  4.0354273E-01
   7169.00  4.0271950E-01
   7169.33  4.0200552E-01
   7169.67  4.0140232E-01
   7170.00  4.0092156E-01
   7170.33  4.0059169E-01
   7170.67  4.0040302E-01
   7171.00  4.0035469E-01
   7171.33  4.0044549E-01
   7171.67  4.0061397E-01
   7172.00  4.0079037E-01
