    FDMNES
    energy     <xanes>
   7097.00  5.0388849E-03
   7097.33  5.1573943E-03
   7097.67  5.2812253E-03
   7098.00  5.4107345E-03
   7098.33  5.5471478E-03
   7098.67  5.6902089E-03
   7099.00  5.8404033E-03
   7099.33  5.9993311E-03
   7099.67  6.1667302E-03
   7100.00  6.3432797E-03
   7100.33  6.5311243E-03
   7100.67  6.7300212E-03
   7101.00  6.9409511E-03
   7101.33  7.1668817E-03
   7101.67  7.4076453E-03
   7102.00  7.6647144E-03
   7102.33  7.9423552E-03
   7102.67  8.2406014E-03
   7103.00  8.5617677E-03
   7103.33  8.9122831E-03
   7103.67  9.2926713E-03
   7104.00  9.7067842E-03
   7104.33  1.0164899E-02
   7104.67  1.0668725E-02
   7105.00  1.1225150E-02
   7105.33  1.1851891E-02
   7105.67  1.2553666E-02
   7106.00  1.3343986E-02
   7106.33  1.4256604E-02
   7106.67  1.5304582E-02
   7107.00  1.6517971E-02
   7107.33  1.7970578E-02
   7107.67  1.9702246E-02
   7108.00  2.1792895E-02
   7108.33  2.4440075E-02
   7108.67  2.7791974E-02
   7109.00  3.2128375E-02
   7109.33  3.8178632E-02
   7109.67  4.6727867E-02
   7110.00  5.9299550E-02
   7110.33  8.0232220E-02
   7110.67  1.1439207E-01
   7111.00  1.6546165E-01
   7111.33  2.3201144E-01
   7111.67  3.0012166E-01
   7112.00  3.4878805E-01
   7112.33  3.5653161E-01
   7112.67  3.2788661E-01
   7113.00  2.8662017E-01
   7113.33  2.6247478E-01
   7113.67  2.5379768E-01
   7114.00  2.3366390E-01
   7114.33  1.8920022E-01
   7114.67  1.5283150E-01
   7115.00  1.3371351E-01
   7115.33  1.2652480E-01
   7115.67  1.2269720E-01
   7116.00  1.2111974E-01
   7116.33  1.2427269E-01
   7116.67  1.3403206E-01
   7117.00  1.5176879E-01
   7117.33  1.7751717E-01
   7117.67  2.0462324E-01
   7118.00  2.2574528E-01
   7118.33  2.3582877E-01
   7118.67  2.3952880E-01
   7119.00  2.4172277E-01
   7119.33  2.4422504E-01
   7119.67  2.4449290E-01
   7120.00  2.4154101E-01
   7120.33  2.3924249E-01
   7120.67  2.4234409E-01
   7121.00  2.5214568E-01
   7121.33  2.6945964E-01
   7121.67  2.9490023E-01
   7122.00  3.3054407E-01
   7122.33  3.7663357E-01
   7122.67  4.2494096E-01
   7123.00  4.6767998E-01
   7123.33  4.9813559E-01
   7123.67  5.1864918E-01
   7124.00  5.3608323E-01
   7124.33  5.5467797E-01
   7124.67  5.6604159E-01
   7125.00  5.6292311E-01
   7125.33  5.4724645E-01
   7125.67  5.2990370E-01
   7126.00  5.1653171E-01
   7126.33  5.1094176E-01
   7126.67  5.1358123E-01
   7127.00  5.2510922E-01
   7127.33  5.4649208E-01
   7127.67  5.7435853E-01
   7128.00  6.0427136E-01
   7128.33  6.2866499E-01
   7128.67  6.4303399E-01
   7129.00  6.4702468E-01
   7129.33  6.4344859E-01
   7129.67  6.3790191E-01
   7130.00  6.3282588E-01
   7130.33  6.2827072E-01
   7130.67  6.2295782E-01
   7131.00  6.1724081E-01
   7131.33  6.1386787E-01
   7131.67  6.1428918E-01
   7132.00  6.1752613E-01
   7132.33  6.2017666E-01
   7132.67  6.1839751E-01
   7133.00  6.1008184E-01
   7133.33  5.9531240E-01
   7133.67  5.7855481E-01
   7134.00  5.6351559E-01
   7134.33  5.5398890E-01
   7134.67  5.5085754E-01
   7135.00  5.5413333E-01
   7135.33  5.6312343E-01
   7135.67  5.7472700E-01
   7136.00  5.8648365E-01
   7136.33  5.9565792E-01
   7136.67  6.0105681E-01
   7137.00  6.0221675E-01
   7137.33  5.9876352E-01
   7137.67  5.9182444E-01
   7138.00  5.8216728E-01
   7138.33  5.7058488E-01
   7138.67  5.5822048E-01
   7139.00  5.4568047E-01
   7139.33  5.3342928E-01
   7139.67  5.2162967E-01
   7140.00  5.1034791E-01
   7140.33  4.9971736E-01
   7140.67  4.8976392E-01
   7141.00  4.8059939E-01
   7141.33  4.7245335E-01
   7141.67  4.6525706E-01
   7142.00  4.5895682E-01
   7142.33  4.5345688E-01
   7142.67  4.4837284E-01
   7143.00  4.4340713E-01
   7143.33  4.3822132E-01
   7143.67  4.3265834E-01
   7144.00  4.2672457E-01
   7144.33  4.2060095E-01
   7144.67  4.1463714E-01
   7145.00  4.0912048E-01
   7145.33  4.0439466E-01
   7145.67  4.0050659E-01
   7146.00  3.9748124E-01
   7146.33  3.9537747E-01
   7146.67  3.9400893E-01
   7147.00  3.9329250E-01
   7147.33  3.9320087E-01
   7147.67  3.9358025E-01
   7148.00  3.9437995E-01
   7148.33  3.9561985E-01
   7148.67  3.9725814E-01
   7149.00  3.9933010E-01
   7149.33  4.0195437E-01
   7149.67  4.0511679E-01
   7150.00  4.0882320E-01
   7150.33  4.1305774E-01
   7150.67  4.1758204E-01
   7151.00  4.2216808E-01
   7151.33  4.2647110E-01
   7151.67  4.3022452E-01
   7152.00  4.3323887E-01
   7152.33  4.3529718E-01
   7152.67  4.3650512E-01
   7153.00  4.3692388E-01
   7153.33  4.3657464E-01
   7153.67  4.3565949E-01
   7154.00  4.3427479E-01
   7154.33  4.3247745E-01
   7154.67  4.3040434E-01
   7155.00  4.2812387E-01
   7155.33  4.2568749E-01
   7155.67  4.2317007E-01
   7156.00  4.2061194E-01
   7156.33  4.1804879E-01
   7156.67  4.1550904E-01
   7157.00  4.1301404E-01
   7157.33  4.1059642E-01
   7157.67  4.0827207E-01
   7158.00  4.0606441E-01
   7158.33  4.0402345E-01
   7158.67  4.0216775E-01
   7159.00  4.0053346E-01
   7159.33  3.9920082E-01
   7159.67  3.9818679E-01
   7160.00  3.9753622E-01
   7160.33  3.9735148E-01
   7160.67  3.9762460E-01
   7161.00  3.9838388E-01
   7161.33  3.9970640E-01
   7161.67  4.0152298E-01
   7162.00  4.0381691E-01
   7162.33  4.0660708E-01
   7162.67  4.0978291E-01
   7163.00  4.1328529E-01
   7163.33  4.1706475E-01
   7163.67  4.2100166E-01
   7164.00  4.2502128E-01
   7164.33  4.2904009E-01
   7164.67  4.3297944E-01
   7165.00  4.3677830E-01
   7165.33  4.4035146E-01
   7165.67  4.4367816E-01
   7166.00  4.4673197E-01
   7166.33  4.4946347E-01
   7166.67  4.5191416E-01
   7167.00  4.5410366E-01
   7167.33  4.5604177E-01
   7167.67  4.5780505E-01
   7168.00  4.5943890E-01
   7168.33  4.6098591E-01
   7168.67  4.6250310E-01
   7169.00  4.6402522E-01
   7169.33  4.6559023E-01
   7169.67  4.6721866E-01
   7170.00  4.6892605E-01
   7170.33  4.7073120E-01
   7170.67  4.7261491E-01
   7171.00  4.7455206E-01
   7171.33  4.7647979E-01
   7171.67  4.7827989E-01
   7172.00  4.7979497E-01
