    FDMNES
    energy     <xanes>
   7097.00  4.6394264E-03
   7097.33  4.7418185E-03
   7097.67  4.8485506E-03
   7098.00  4.9599030E-03
   7098.33  5.0768584E-03
   7098.67  5.1991942E-03
   7099.00  5.3272900E-03
   7099.33  5.4624187E-03
   7099.67  5.6043504E-03
   7100.00  5.7536129E-03
   7100.33  5.9118996E-03
   7100.67  6.0789917E-03
   7101.00  6.2556477E-03
   7101.33  6.4441930E-03
   7101.67  6.6444622E-03
   7102.00  6.8575884E-03
   7102.33  7.0868911E-03
   7102.67  7.3323529E-03
   7103.00  7.5957481E-03
   7103.33  7.8820476E-03
   7103.67  8.1916012E-03
   7104.00  8.5273538E-03
   7104.33  8.8972110E-03
   7104.67  9.3024242E-03
   7105.00  9.7482546E-03
   7105.33  1.0248296E-02
   7105.67  1.0806113E-02
   7106.00  1.1432061E-02
   7106.33  1.2152086E-02
   7106.67  1.2976282E-02
   7107.00  1.3927924E-02
   7107.33  1.5064343E-02
   7107.67  1.6417206E-02
   7108.00  1.8049951E-02
   7108.33  2.0120389E-02
   7108.67  2.2751954E-02
   7109.00  2.6178658E-02
   7109.33  3.1020880E-02
   7109.67  3.7988332E-02
   7110.00  4.8479025E-02
   7110.33  6.6532922E-02
   7110.67  9.6364557E-02
   7111.00  1.3788638E-01
   7111.33  1.7103025E-01
   7111.67  1.8367708E-01
   7112.00  1.9419207E-01
   7112.33  2.2075752E-01
   7112.67  2.4770911E-01
   7113.00  2.5888066E-01
   7113.33  2.6171147E-01
   7113.67  2.5663813E-01
   7114.00  2.2785899E-01
   7114.33  1.8296965E-01
   7114.67  1.4505229E-01
   7115.00  1.1913372E-01
   7115.33  1.0429068E-01
   7115.67  9.6376542E-02
   7116.00  9.3712756E-02
   7116.33  9.5646388E-02
   7116.67  1.0101027E-01
   7117.00  1.0935913E-01
   7117.33  1.2027319E-01
   7117.67  1.3234408E-01
   7118.00  1.4436608E-01
   7118.33  1.5507709E-01
   7118.67  1.6429354E-01
   7119.00  1.7219948E-01
   7119.33  1.7902303E-01
   7119.67  1.8555542E-01
   7120.00  1.9283489E-01
   7120.33  2.0229605E-01
   7120.67  2.1419700E-01
   7121.00  2.2848633E-01
   7121.33  2.4531807E-01
   7121.67  2.6451535E-01
   7122.00  2.8634578E-01
   7122.33  3.1141672E-01
   7122.67  3.3914082E-01
   7123.00  3.6871838E-01
   7123.33  3.9872740E-01
   7123.67  4.2762759E-01
   7124.00  4.5445420E-01
   7124.33  4.7812385E-01
   7124.67  4.9857209E-01
   7125.00  5.1562012E-01
   7125.33  5.2877181E-01
   7125.67  5.3852427E-01
   7126.00  5.4503726E-01
   7126.33  5.4822626E-01
   7126.67  5.4881868E-01
   7127.00  5.4721774E-01
   7127.33  5.4381114E-01
   7127.67  5.3940471E-01
   7128.00  5.3443194E-01
   7128.33  5.2919600E-01
   7128.67  5.2384697E-01
   7129.00  5.1836086E-01
   7129.33  5.1264381E-01
   7129.67  5.0671403E-01
   7130.00  5.0065274E-01
   7130.33  4.9464891E-01
   7130.67  4.8893068E-01
   7131.00  4.8371291E-01
   7131.33  4.7933409E-01
   7131.67  4.7591721E-01
   7132.00  4.7360667E-01
   7132.33  4.7265677E-01
   7132.67  4.7293948E-01
   7133.00  4.7441164E-01
   7133.33  4.7710011E-01
   7133.67  4.8073006E-01
   7134.00  4.8518903E-01
   7134.33  4.9048834E-01
   7134.67  4.9653230E-01
   7135.00  5.0338129E-01
   7135.33  5.1125343E-01
   7135.67  5.2010442E-01
   7136.00  5.2990364E-01
   7136.33  5.4055852E-01
   7136.67  5.5163062E-01
   7137.00  5.6275144E-01
   7137.33  5.7345006E-01
   7137.67  5.8343596E-01
   7138.00  5.9252095E-01
   7138.33  6.0047508E-01
   7138.67  6.0741553E-01
   7139.00  6.1338594E-01
   7139.33  6.1836313E-01
   7139.67  6.2257051E-01
   7140.00  6.2612270E-01
   7140.33  6.2911299E-01
   7140.67  6.3176090E-01
   7141.00  6.3416141E-01
   7141.33  6.3636772E-01
   7141.67  6.3847979E-01
   7142.00  6.4057153E-01
   7142.33  6.4273457E-01
   7142.67  6.4503344E-01
   7143.00  6.4751746E-01
   7143.33  6.5025515E-01
   7143.67  6.5323864E-01
   7144.00  6.5646884E-01
   7144.33  6.5995641E-01
   7144.67  6.6363535E-01
   7145.00  6.6745904E-01
   7145.33  6.7136754E-01
   7145.67  6.7526821E-01
   7146.00  6.7908150E-01
   7146.33  6.8268861E-01
   7146.67  6.8601986E-01
   7147.00  6.8900425E-01
   7147.33  6.9152455E-01
   7147.67  6.9359032E-01
   7148.00  6.9518552E-01
   7148.33  6.9625435E-01
   7148.67  6.9687612E-01
   7149.00  6.9707822E-01
   7149.33  6.9684867E-01
   7149.67  6.9626860E-01
   7150.00  6.9536037E-01
   7150.33  6.9410181E-01
   7150.67  6.9253735E-01
   7151.00  6.9066272E-01
   7151.33  6.8842351E-01
   7151.67  6.8583910E-01
   7152.00  6.8288720E-01
   7152.33  6.7948942E-01
   7152.67  6.7566714E-01
   7153.00  6.7140030E-01
   7153.33  6.6661322E-01
   7153.67  6.6135086E-01
   7154.00  6.5560740E-01
   7154.33  6.4932325E-01
   7154.67  6.4256935E-01
   7155.00  6.3536362E-01
   7155.33  6.2767965E-01
   7155.67  6.1960162E-01
   7156.00  6.1115964E-01
   7156.33  6.0235088E-01
   7156.67  5.9325687E-01
   7157.00  5.8391437E-01
   7157.33  5.7434079E-01
   7157.67  5.6460562E-01
   7158.00  5.5474819E-01
   7158.33  5.4480638E-01
   7158.67  5.3483867E-01
   7159.00  5.2488861E-01
   7159.33  5.1501786E-01
   7159.67  5.0527688E-01
   7160.00  4.9571427E-01
   7160.33  4.8640497E-01
   7160.67  4.7736388E-01
   7161.00  4.6862677E-01
   7161.33  4.6027364E-01
   7161.67  4.5229270E-01
   7162.00  4.4470600E-01
   7162.33  4.3758608E-01
   7162.67  4.3089608E-01
   7163.00  4.2464393E-01
   7163.33  4.1888901E-01
   7163.67  4.1357646E-01
   7164.00  4.0870407E-01
   7164.33  4.0431896E-01
   7164.67  4.0035516E-01
   7165.00  3.9680035E-01
   7165.33  3.9368774E-01
   7165.67  3.9095126E-01
   7166.00  3.8857572E-01
   7166.33  3.8658474E-01
   7166.67  3.8491588E-01
   7167.00  3.8355262E-01
   7167.33  3.8251232E-01
   7167.67  3.8174169E-01
   7168.00  3.8122673E-01
   7168.33  3.8098164E-01
   7168.67  3.8096109E-01
   7169.00  3.8115229E-01
   7169.33  3.8156496E-01
   7169.67  3.8215892E-01
   7170.00  3.8291932E-01
   7170.33  3.8384376E-01
   7170.67  3.8488689E-01
   7171.00  3.8601632E-01
   7171.33  3.8717813E-01
   7171.67  3.8827229E-01
   7172.00  3.8917687E-01
