    FDMNES
    energy     <xanes>
   7097.00  4.5370722E-03
   7097.33  4.6325941E-03
   7097.67  4.7319568E-03
   7098.00  4.8353991E-03
   7098.33  4.9437758E-03
   7098.67  5.0568785E-03
   7099.00  5.1750294E-03
   7099.33  5.2993284E-03
   7099.67  5.4295599E-03
   7100.00  5.5661711E-03
   7100.33  5.7106176E-03
   7100.67  5.8626928E-03
   7101.00  6.0230394E-03
   7101.33  6.1936495E-03
   7101.67  6.3743635E-03
   7102.00  6.5661445E-03
   7102.33  6.7718340E-03
   7102.67  6.9914057E-03
   7103.00  7.2263781E-03
   7103.33  7.4810191E-03
   7103.67  7.7556384E-03
   7104.00  8.0527847E-03
   7104.33  8.3793023E-03
   7104.67  8.7363383E-03
   7105.00  9.1285252E-03
   7105.33  9.5678080E-03
   7105.67  1.0057526E-02
   7106.00  1.0607014E-02
   7106.33  1.1239605E-02
   7106.67  1.1964969E-02
   7107.00  1.2804746E-02
   7107.33  1.3812189E-02
   7107.67  1.5018431E-02
   7108.00  1.6484712E-02
   7108.33  1.8363700E-02
   7108.67  2.0780258E-02
   7109.00  2.3969435E-02
   7109.33  2.8557316E-02
   7109.67  3.5279148E-02
   7110.00  4.5583193E-02
   7110.33  6.3694424E-02
   7110.67  9.4346155E-02
   7111.00  1.3873913E-01
   7111.33  1.7784855E-01
   7111.67  1.9069764E-01
   7112.00  1.7726296E-01
   7112.33  1.5868700E-01
   7112.67  1.5039928E-01
   7113.00  1.4748098E-01
   7113.33  1.4420590E-01
   7113.67  1.3536824E-01
   7114.00  1.1986382E-01
   7114.33  1.0098361E-01
   7114.67  8.3137010E-02
   7115.00  7.0071987E-02
   7115.33  6.3394022E-02
   7115.67  6.1161676E-02
   7116.00  6.2517241E-02
   7116.33  6.7427990E-02
   7116.67  7.5334788E-02
   7117.00  8.5952433E-02
   7117.33  9.8951471E-02
   7117.67  1.1344491E-01
   7118.00  1.2843964E-01
   7118.33  1.4182503E-01
   7118.67  1.5286147E-01
   7119.00  1.6262871E-01
   7119.33  1.7311719E-01
   7119.67  1.8491286E-01
   7120.00  1.9740776E-01
   7120.33  2.0952373E-01
   7120.67  2.2117235E-01
   7121.00  2.3332683E-01
   7121.33  2.4776097E-01
   7121.67  2.6477231E-01
   7122.00  2.8375165E-01
   7122.33  3.0410677E-01
   7122.67  3.2600353E-01
   7123.00  3.5013244E-01
   7123.33  3.7711694E-01
   7123.67  4.0610412E-01
   7124.00  4.3601065E-01
   7124.33  4.6517911E-01
   7124.67  4.9280857E-01
   7125.00  5.1928527E-01
   7125.33  5.4549403E-01
   7125.67  5.7186542E-01
   7126.00  5.9836763E-01
   7126.33  6.2448824E-01
   7126.67  6.4947170E-01
   7127.00  6.7283334E-01
   7127.33  6.9434400E-01
   7127.67  7.1429027E-01
   7128.00  7.3223471E-01
   7128.33  7.4637722E-01
   7128.67  7.5534152E-01
   7129.00  7.5790326E-01
   7129.33  7.5241154E-01
   7129.67  7.3981209E-01
   7130.00  7.2114044E-01
   7130.33  6.9825210E-01
   7130.67  6.7414174E-01
   7131.00  6.5046409E-01
   7131.33  6.2871723E-01
   7131.67  6.0954140E-01
   7132.00  5.9346016E-01
   7132.33  5.8142207E-01
   7132.67  5.7362936E-01
   7133.00  5.7088512E-01
   7133.33  5.7470487E-01
   7133.67  5.8384232E-01
   7134.00  5.9605515E-01
   7134.33  6.0743141E-01
   7134.67  6.1547997E-01
   7135.00  6.1999571E-01
   7135.33  6.2181507E-01
   7135.67  6.2251887E-01
   7136.00  6.2285968E-01
   7136.33  6.2333069E-01
   7136.67  6.2411967E-01
   7137.00  6.2527733E-01
   7137.33  6.2683002E-01
   7137.67  6.2866907E-01
   7138.00  6.3071641E-01
   7138.33  6.3288022E-01
   7138.67  6.3504018E-01
   7139.00  6.3711040E-01
   7139.33  6.3898303E-01
   7139.67  6.4061350E-01
   7140.00  6.4196183E-01
   7140.33  6.4296483E-01
   7140.67  6.4366710E-01
   7141.00  6.4409975E-01
   7141.33  6.4428014E-01
   7141.67  6.4428742E-01
   7142.00  6.4416850E-01
   7142.33  6.4396144E-01
   7142.67  6.4370424E-01
   7143.00  6.4339640E-01
   7143.33  6.4299044E-01
   7143.67  6.4243103E-01
   7144.00  6.4165686E-01
   7144.33  6.4055076E-01
   7144.67  6.3904687E-01
   7145.00  6.3704188E-01
   7145.33  6.3432813E-01
   7145.67  6.3085528E-01
   7146.00  6.2651955E-01
   7146.33  6.2109600E-01
   7146.67  6.1462982E-01
   7147.00  6.0708614E-01
   7147.33  5.9833038E-01
   7147.67  5.8854321E-01
   7148.00  5.7779866E-01
   7148.33  5.6611046E-01
   7148.67  5.5372529E-01
   7149.00  5.4077367E-01
   7149.33  5.2735908E-01
   7149.67  5.1369583E-01
   7150.00  4.9991936E-01
   7150.33  4.8616009E-01
   7150.67  4.7252451E-01
   7151.00  4.5910094E-01
   7151.33  4.4602618E-01
   7151.67  4.3335132E-01
   7152.00  4.2114590E-01
   7152.33  4.0954780E-01
   7152.67  3.9854875E-01
   7153.00  3.8819141E-01
   7153.33  3.7860118E-01
   7153.67  3.6972504E-01
   7154.00  3.6158787E-01
   7154.33  3.5430743E-01
   7154.67  3.4779600E-01
   7155.00  3.4205165E-01
   7155.33  3.3715732E-01
   7155.67  3.3299383E-01
   7156.00  3.2952621E-01
   7156.33  3.2677455E-01
   7156.67  3.2459314E-01
   7157.00  3.2292657E-01
   7157.33  3.2176870E-01
   7157.67  3.2100537E-01
   7158.00  3.2059381E-01
   7158.33  3.2053217E-01
   7158.67  3.2074950E-01
   7159.00  3.2122420E-01
   7159.33  3.2197018E-01
   7159.67  3.2295110E-01
   7160.00  3.2416850E-01
   7160.33  3.2566434E-01
   7160.67  3.2742774E-01
   7161.00  3.2947905E-01
   7161.33  3.3188450E-01
   7161.67  3.3463488E-01
   7162.00  3.3775192E-01
   7162.33  3.4129502E-01
   7162.67  3.4521315E-01
   7163.00  3.4949261E-01
   7163.33  3.5414473E-01
   7163.67  3.5908453E-01
   7164.00  3.6426686E-01
   7164.33  3.6965680E-01
   7164.67  3.7517015E-01
   7165.00  3.8075321E-01
   7165.33  3.8634388E-01
   7165.67  3.9187828E-01
   7166.00  3.9730268E-01
   7166.33  4.0253548E-01
   7166.67  4.0754163E-01
   7167.00  4.1227678E-01
   7167.33  4.1665647E-01
   7167.67  4.2068535E-01
   7168.00  4.2434289E-01
   7168.33  4.2756968E-01
   7168.67  4.3041535E-01
   7169.00  4.3289111E-01
   7169.33  4.3497626E-01
   7169.67  4.3674494E-01
   7170.00  4.3822759E-01
   7170.33  4.3943098E-01
   7170.67  4.4042427E-01
   7171.00  4.4123854E-01
   7171.33  4.4188776E-01
   7171.67  4.4241595E-01
   7172.00  4.4283842E-01
