    FDMNES
    energy     <xanes>
   7097.00  5.0886405E-03
   7097.33  5.2112966E-03
   7097.67  5.3396706E-03
   7098.00  5.4741604E-03
   7098.33  5.6161078E-03
   7098.67  5.7652574E-03
   7099.00  5.9221552E-03
   7099.33  6.0885686E-03
   7099.67  6.2642411E-03
   7100.00  6.4499422E-03
   7100.33  6.6480634E-03
   7100.67  6.8583773E-03
   7101.00  7.0820042E-03
   7101.33  7.3222831E-03
   7101.67  7.5790837E-03
   7102.00  7.8540988E-03
   7102.33  8.1521722E-03
   7102.67  8.4734196E-03
   7103.00  8.8205183E-03
   7103.33  9.2008297E-03
   7103.67  9.6150566E-03
   7104.00  1.0067678E-02
   7104.33  1.0570552E-02
   7104.67  1.1125792E-02
   7105.00  1.1741443E-02
   7105.33  1.2438094E-02
   7105.67  1.3221433E-02
   7106.00  1.4107329E-02
   7106.33  1.5135303E-02
   7106.67  1.6321033E-02
   7107.00  1.7700126E-02
   7107.33  1.9360005E-02
   7107.67  2.1349077E-02
   7108.00  2.3763894E-02
   7108.33  2.6844202E-02
   7108.67  3.0776698E-02
   7109.00  3.5915051E-02
   7109.33  4.3195688E-02
   7109.67  5.3685576E-02
   7110.00  6.9485528E-02
   7110.33  9.6645235E-02
   7110.67  1.4128273E-01
   7111.00  2.0257736E-01
   7111.33  2.5218959E-01
   7111.67  2.7526017E-01
   7112.00  2.8959775E-01
   7112.33  3.1857085E-01
   7112.67  3.6419496E-01
   7113.00  4.2123935E-01
   7113.33  4.7145060E-01
   7113.67  4.8060036E-01
   7114.00  4.3512696E-01
   7114.33  3.5954277E-01
   7114.67  2.9000036E-01
   7115.00  2.3682344E-01
   7115.33  2.0131008E-01
   7115.67  1.7697772E-01
   7116.00  1.5982642E-01
   7116.33  1.4625756E-01
   7116.67  1.3374985E-01
   7117.00  1.2278227E-01
   7117.33  1.1511163E-01
   7117.67  1.1067000E-01
   7118.00  1.0895712E-01
   7118.33  1.0942219E-01
   7118.67  1.1075869E-01
   7119.00  1.1169810E-01
   7119.33  1.1133134E-01
   7119.67  1.1070350E-01
   7120.00  1.1106874E-01
   7120.33  1.1371751E-01
   7120.67  1.1876087E-01
   7121.00  1.2599434E-01
   7121.33  1.3526644E-01
   7121.67  1.4624090E-01
   7122.00  1.5890051E-01
   7122.33  1.7345418E-01
   7122.67  1.9013808E-01
   7123.00  2.0944763E-01
   7123.33  2.3158331E-01
   7123.67  2.5561100E-01
   7124.00  2.8078266E-01
   7124.33  3.0515448E-01
   7124.67  3.2572885E-01
   7125.00  3.4043673E-01
   7125.33  3.4904229E-01
   7125.67  3.5503917E-01
   7126.00  3.6105086E-01
   7126.33  3.6952687E-01
   7126.67  3.8119412E-01
   7127.00  3.9595738E-01
   7127.33  4.1301977E-01
   7127.67  4.3086763E-01
   7128.00  4.4889713E-01
   7128.33  4.6734144E-01
   7128.67  4.8744278E-01
   7129.00  5.1077270E-01
   7129.33  5.3894041E-01
   7129.67  5.7073247E-01
   7130.00  6.0449889E-01
   7130.33  6.3843427E-01
   7130.67  6.7142729E-01
   7131.00  7.0240838E-01
   7131.33  7.2849375E-01
   7131.67  7.4780148E-01
   7132.00  7.5993686E-01
   7132.33  7.6637910E-01
   7132.67  7.7132624E-01
   7133.00  7.7764083E-01
   7133.33  7.8739035E-01
   7133.67  7.9922241E-01
   7134.00  8.1030607E-01
   7134.33  8.1596142E-01
   7134.67  8.1436326E-01
   7135.00  8.0567479E-01
   7135.33  7.9091317E-01
   7135.67  7.7290672E-01
   7136.00  7.5357535E-01
   7136.33  7.3499108E-01
   7136.67  7.1843575E-01
   7137.00  7.0450339E-01
   7137.33  6.9366188E-01
   7137.67  6.8523340E-01
   7138.00  6.7868248E-01
   7138.33  6.7338881E-01
   7138.67  6.6849190E-01
   7139.00  6.6354545E-01
   7139.33  6.5830041E-01
   7139.67  6.5290244E-01
   7140.00  6.4763883E-01
   7140.33  6.4298771E-01
   7140.67  6.3922148E-01
   7141.00  6.3651562E-01
   7141.33  6.3504654E-01
   7141.67  6.3451277E-01
   7142.00  6.3460476E-01
   7142.33  6.3480353E-01
   7142.67  6.3446574E-01
   7143.00  6.3307264E-01
   7143.33  6.2999872E-01
   7143.67  6.2526912E-01
   7144.00  6.1897683E-01
   7144.33  6.1126580E-01
   7144.67  6.0268366E-01
   7145.00  5.9355563E-01
   7145.33  5.8417846E-01
   7145.67  5.7485142E-01
   7146.00  5.6578584E-01
   7146.33  5.5727898E-01
   7146.67  5.4948156E-01
   7147.00  5.4253714E-01
   7147.33  5.3666204E-01
   7147.67  5.3175435E-01
   7148.00  5.2778017E-01
   7148.33  5.2478006E-01
   7148.67  5.2256581E-01
   7149.00  5.2106969E-01
   7149.33  5.2029723E-01
   7149.67  5.2009520E-01
   7150.00  5.2039936E-01
   7150.33  5.2118224E-01
   7150.67  5.2230234E-01
   7151.00  5.2367701E-01
   7151.33  5.2522174E-01
   7151.67  5.2680902E-01
   7152.00  5.2834479E-01
   7152.33  5.2970504E-01
   7152.67  5.3081788E-01
   7153.00  5.3162180E-01
   7153.33  5.3202794E-01
   7153.67  5.3206891E-01
   7154.00  5.3176092E-01
   7154.33  5.3111142E-01
   7154.67  5.3022373E-01
   7155.00  5.2916055E-01
   7155.33  5.2797780E-01
   7155.67  5.2674451E-01
   7156.00  5.2549307E-01
   7156.33  5.2424009E-01
   7156.67  5.2297916E-01
   7157.00  5.2168706E-01
   7157.33  5.2030920E-01
   7157.67  5.1879365E-01
   7158.00  5.1707681E-01
   7158.33  5.1503894E-01
   7158.67  5.1262590E-01
   7159.00  5.0976215E-01
   7159.33  5.0630405E-01
   7159.67  5.0226005E-01
   7160.00  4.9760308E-01
   7160.33  4.9225903E-01
   7160.67  4.8634799E-01
   7161.00  4.7994028E-01
   7161.33  4.7310520E-01
   7161.67  4.6603739E-01
   7162.00  4.5887223E-01
   7162.33  4.5176671E-01
   7162.67  4.4485244E-01
   7163.00  4.3824632E-01
   7163.33  4.3212892E-01
   7163.67  4.2654901E-01
   7164.00  4.2157349E-01
   7164.33  4.1733810E-01
   7164.67  4.1378908E-01
   7165.00  4.1093232E-01
   7165.33  4.0884048E-01
   7165.67  4.0739814E-01
   7166.00  4.0656653E-01
   7166.33  4.0635752E-01
   7166.67  4.0663440E-01
   7167.00  4.0733206E-01
   7167.33  4.0840969E-01
   7167.67  4.0973751E-01
   7168.00  4.1123990E-01
   7168.33  4.1283468E-01
   7168.67  4.1441497E-01
   7169.00  4.1590467E-01
   7169.33  4.1720576E-01
   7169.67  4.1827796E-01
   7170.00  4.1908565E-01
   7170.33  4.1957641E-01
   7170.67  4.1979747E-01
   7171.00  4.1978301E-01
   7171.33  4.1957733E-01
   7171.67  4.1929089E-01
   7172.00  4.1901035E-01
