    FDMNES
    energy     <xanes>
   7097.00  3.9903482E-03
   7097.33  4.0639091E-03
   7097.67  4.1400848E-03
   7098.00  4.2190269E-03
   7098.33  4.3012993E-03
   7098.67  4.3867472E-03
   7099.00  4.4755741E-03
   7099.33  4.5684986E-03
   7099.67  4.6653608E-03
   7100.00  4.7664432E-03
   7100.33  4.8726895E-03
   7100.67  4.9839463E-03
   7101.00  5.1006213E-03
   7101.33  5.2240004E-03
   7101.67  5.3539639E-03
   7102.00  5.4911273E-03
   7102.33  5.6373264E-03
   7102.67  5.7925365E-03
   7103.00  5.9577414E-03
   7103.33  6.1357171E-03
   7103.67  6.3266816E-03
   7104.00  6.5323190E-03
   7104.33  6.7571465E-03
   7104.67  7.0019976E-03
   7105.00  7.2700169E-03
   7105.33  7.5692823E-03
   7105.67  7.9022790E-03
   7106.00  8.2755784E-03
   7106.33  8.7055438E-03
   7106.67  9.1996072E-03
   7107.00  9.7737556E-03
   7107.33  1.0467345E-02
   7107.67  1.1305477E-02
   7108.00  1.2336508E-02
   7108.33  1.3682127E-02
   7108.67  1.5450748E-02
   7109.00  1.7846651E-02
   7109.33  2.1427493E-02
   7109.67  2.6904791E-02
   7110.00  3.5697683E-02
   7110.33  5.1877958E-02
   7110.67  7.8347674E-02
   7111.00  1.0800163E-01
   7111.33  1.1442892E-01
   7111.67  1.0458076E-01
   7112.00  9.3326332E-02
   7112.33  8.7611186E-02
   7112.67  8.5382606E-02
   7113.00  8.3066220E-02
   7113.33  7.6428364E-02
   7113.67  6.6595120E-02
   7114.00  5.7176522E-02
   7114.33  4.9577088E-02
   7114.67  4.2122392E-02
   7115.00  3.6004556E-02
   7115.33  3.2527386E-02
   7115.67  3.0796746E-02
   7116.00  3.0237835E-02
   7116.33  3.0492525E-02
   7116.67  3.1187113E-02
   7117.00  3.2210266E-02
   7117.33  3.3613138E-02
   7117.67  3.5419626E-02
   7118.00  3.7700483E-02
   7118.33  4.0669057E-02
   7118.67  4.4409111E-02
   7119.00  4.8935017E-02
   7119.33  5.4030643E-02
   7119.67  5.9162824E-02
   7120.00  6.4054175E-02
   7120.33  6.8679103E-02
   7120.67  7.3232468E-02
   7121.00  7.7723526E-02
   7121.33  8.1889973E-02
   7121.67  8.5595929E-02
   7122.00  8.9040189E-02
   7122.33  9.2899060E-02
   7122.67  9.7815887E-02
   7123.00  1.0425243E-01
   7123.33  1.1291639E-01
   7123.67  1.2406360E-01
   7124.00  1.3823450E-01
   7124.33  1.5680028E-01
   7124.67  1.8056694E-01
   7125.00  2.1108431E-01
   7125.33  2.5187424E-01
   7125.67  3.0441165E-01
   7126.00  3.6986175E-01
   7126.33  4.4560297E-01
   7126.67  5.1741827E-01
   7127.00  5.7028010E-01
   7127.33  5.9308027E-01
   7127.67  5.9724410E-01
   7128.00  5.9467952E-01
   7128.33  5.9665861E-01
   7128.67  6.0921208E-01
   7129.00  6.3648502E-01
   7129.33  6.8588270E-01
   7129.67  7.6036396E-01
   7130.00  8.6396898E-01
   7130.33  1.0005126E+00
   7130.67  1.1538509E+00
   7131.00  1.2978590E+00
   7131.33  1.3874311E+00
   7131.67  1.4060861E+00
   7132.00  1.3565645E+00
   7132.33  1.2518906E+00
   7132.67  1.1248445E+00
   7133.00  9.9760931E-01
   7133.33  8.9022688E-01
   7133.67  8.0771484E-01
   7134.00  7.4943369E-01
   7134.33  7.1238608E-01
   7134.67  6.8749360E-01
   7135.00  6.6999864E-01
   7135.33  6.5680871E-01
   7135.67  6.4563198E-01
   7136.00  6.3579677E-01
   7136.33  6.2718359E-01
   7136.67  6.1966013E-01
   7137.00  6.1329895E-01
   7137.33  6.0834197E-01
   7137.67  6.0468830E-01
   7138.00  6.0235272E-01
   7138.33  6.0147760E-01
   7138.67  6.0184666E-01
   7139.00  6.0339250E-01
   7139.33  6.0615480E-01
   7139.67  6.0989399E-01
   7140.00  6.1452832E-01
   7140.33  6.2008436E-01
   7140.67  6.2637865E-01
   7141.00  6.3331294E-01
   7141.33  6.4077800E-01
   7141.67  6.4847727E-01
   7142.00  6.5615354E-01
   7142.33  6.6341879E-01
   7142.67  6.6996377E-01
   7143.00  6.7550352E-01
   7143.33  6.7958555E-01
   7143.67  6.8213161E-01
   7144.00  6.8301546E-01
   7144.33  6.8198075E-01
   7144.67  6.7926724E-01
   7145.00  6.7493157E-01
   7145.33  6.6887059E-01
   7145.67  6.6137743E-01
   7146.00  6.5254548E-01
   7146.33  6.4234032E-01
   7146.67  6.3105136E-01
   7147.00  6.1881347E-01
   7147.33  6.0568540E-01
   7147.67  5.9192229E-01
   7148.00  5.7767802E-01
   7148.33  5.6312886E-01
   7148.67  5.4853729E-01
   7149.00  5.3410072E-01
   7149.33  5.2008883E-01
   7149.67  5.0665752E-01
   7150.00  4.9395546E-01
   7150.33  4.8222227E-01
   7150.67  4.7143166E-01
   7151.00  4.6161137E-01
   7151.33  4.5286493E-01
   7151.67  4.4501165E-01
   7152.00  4.3796991E-01
   7152.33  4.3171190E-01
   7152.67  4.2601838E-01
   7153.00  4.2075718E-01
   7153.33  4.1579815E-01
   7153.67  4.1094429E-01
   7154.00  4.0605911E-01
   7154.33  4.0096755E-01
   7154.67  3.9555321E-01
   7155.00  3.8971235E-01
   7155.33  3.8328490E-01
   7155.67  3.7627897E-01
   7156.00  3.6868319E-01
   7156.33  3.6046510E-01
   7156.67  3.5178726E-01
   7157.00  3.4277356E-01
   7157.33  3.3359217E-01
   7157.67  3.2448154E-01
   7158.00  3.1564425E-01
   7158.33  3.0737868E-01
   7158.67  2.9983814E-01
   7159.00  2.9318317E-01
   7159.33  2.8769062E-01
   7159.67  2.8333288E-01
   7160.00  2.8016041E-01
   7160.33  2.7834244E-01
   7160.67  2.7770970E-01
   7161.00  2.7822136E-01
   7161.33  2.7994026E-01
   7161.67  2.8263431E-01
   7162.00  2.8620302E-01
   7162.33  2.9062187E-01
   7162.67  2.9564765E-01
   7163.00  3.0115557E-01
   7163.33  3.0708392E-01
   7163.67  3.1329335E-01
   7164.00  3.1970918E-01
   7164.33  3.2626595E-01
   7164.67  3.3287771E-01
   7165.00  3.3949445E-01
   7165.33  3.4606648E-01
   7165.67  3.5256960E-01
   7166.00  3.5898752E-01
   7166.33  3.6529735E-01
   7166.67  3.7150834E-01
   7167.00  3.7762220E-01
   7167.33  3.8363188E-01
   7167.67  3.8955358E-01
   7168.00  3.9538955E-01
   7168.33  4.0112872E-01
   7168.67  4.0677705E-01
   7169.00  4.1232577E-01
   7169.33  4.1774452E-01
   7169.67  4.2302537E-01
   7170.00  4.2814373E-01
   7170.33  4.3303980E-01
   7170.67  4.3769390E-01
   7171.00  4.4205622E-01
   7171.33  4.4599654E-01
   7171.67  4.4942740E-01
   7172.00  4.5218677E-01
