    FDMNES
    energy     <xanes>
   7097.00  4.8853744E-03
   7097.33  5.0010113E-03
   7097.67  5.1220296E-03
   7098.00  5.2488112E-03
   7098.33  5.3826327E-03
   7098.67  5.5232661E-03
   7099.00  5.6712413E-03
   7099.33  5.8282548E-03
   7099.67  5.9940868E-03
   7100.00  6.1694948E-03
   7100.33  6.3568015E-03
   7100.67  6.5558323E-03
   7101.00  6.7677093E-03
   7101.33  6.9957265E-03
   7101.67  7.2398373E-03
   7102.00  7.5017739E-03
   7102.33  7.7864124E-03
   7102.67  8.0940180E-03
   7103.00  8.4274040E-03
   7103.33  8.7941755E-03
   7103.67  9.1953389E-03
   7104.00  9.6357564E-03
   7104.33  1.0128093E-02
   7104.67  1.0675158E-02
   7105.00  1.1286046E-02
   7105.33  1.1983691E-02
   7105.67  1.2775598E-02
   7106.00  1.3680606E-02
   7106.33  1.4745140E-02
   7106.67  1.5990322E-02
   7107.00  1.7461008E-02
   7107.33  1.9266840E-02
   7107.67  2.1475627E-02
   7108.00  2.4217765E-02
   7108.33  2.7818144E-02
   7108.67  3.2551922E-02
   7109.00  3.8933994E-02
   7109.33  4.8342081E-02
   7109.67  6.2431327E-02
   7110.00  8.4462158E-02
   7110.33  1.2385842E-01
   7110.67  1.8996623E-01
   7111.00  2.8078208E-01
   7111.33  3.6102090E-01
   7111.67  4.0378227E-01
   7112.00  3.8245544E-01
   7112.33  3.0224180E-01
   7112.67  2.2283783E-01
   7113.00  1.6457842E-01
   7113.33  1.3083194E-01
   7113.67  1.1312112E-01
   7114.00  1.0739657E-01
   7114.33  1.1331491E-01
   7114.67  1.3130779E-01
   7115.00  1.6509412E-01
   7115.33  2.1880334E-01
   7115.67  2.7156089E-01
   7116.00  2.8679074E-01
   7116.33  2.5090231E-01
   7116.67  2.0488221E-01
   7117.00  1.6721806E-01
   7117.33  1.4208134E-01
   7117.67  1.2513995E-01
   7118.00  1.1390435E-01
   7118.33  1.0663895E-01
   7118.67  1.0127410E-01
   7119.00  9.6847215E-02
   7119.33  9.3187548E-02
   7119.67  9.0930714E-02
   7120.00  9.0956215E-02
   7120.33  9.4214939E-02
   7120.67  9.9975549E-02
   7121.00  1.0701757E-01
   7121.33  1.1355090E-01
   7121.67  1.1889203E-01
   7122.00  1.2356064E-01
   7122.33  1.2900095E-01
   7122.67  1.3673833E-01
   7123.00  1.4810464E-01
   7123.33  1.6409538E-01
   7123.67  1.8117935E-01
   7124.00  1.9444066E-01
   7124.33  2.0152648E-01
   7124.67  2.0731019E-01
   7125.00  2.1625414E-01
   7125.33  2.3299898E-01
   7125.67  2.5926323E-01
   7126.00  2.9648499E-01
   7126.33  3.4367980E-01
   7126.67  3.8736120E-01
   7127.00  4.1230439E-01
   7127.33  4.1572441E-01
   7127.67  4.1923543E-01
   7128.00  4.3679688E-01
   7128.33  4.7730081E-01
   7128.67  5.3887419E-01
   7129.00  6.1996198E-01
   7129.33  7.1770461E-01
   7129.67  8.2131922E-01
   7130.00  9.2011892E-01
   7130.33  9.9926305E-01
   7130.67  1.0531356E+00
   7131.00  1.0812152E+00
   7131.33  1.0859720E+00
   7131.67  1.0774841E+00
   7132.00  1.0616882E+00
   7132.33  1.0431956E+00
   7132.67  1.0249199E+00
   7133.00  1.0076487E+00
   7133.33  9.9115285E-01
   7133.67  9.7402739E-01
   7134.00  9.5458998E-01
   7134.33  9.3018176E-01
   7134.67  8.9985505E-01
   7135.00  8.6339279E-01
   7135.33  8.2142324E-01
   7135.67  7.7694644E-01
   7136.00  7.3222699E-01
   7136.33  6.8963966E-01
   7136.67  6.5024279E-01
   7137.00  6.1455536E-01
   7137.33  5.8326334E-01
   7137.67  5.5590926E-01
   7138.00  5.3251659E-01
   7138.33  5.1365177E-01
   7138.67  4.9887500E-01
   7139.00  4.8817523E-01
   7139.33  4.8186242E-01
   7139.67  4.7904753E-01
   7140.00  4.7923116E-01
   7140.33  4.8203453E-01
   7140.67  4.8652638E-01
   7141.00  4.9227852E-01
   7141.33  4.9913171E-01
   7141.67  5.0693270E-01
   7142.00  5.1582803E-01
   7142.33  5.2629528E-01
   7142.67  5.3850242E-01
   7143.00  5.5267257E-01
   7143.33  5.6907467E-01
   7143.67  5.8701266E-01
   7144.00  6.0554514E-01
   7144.33  6.2280285E-01
   7144.67  6.3685876E-01
   7145.00  6.4606542E-01
   7145.33  6.4850771E-01
   7145.67  6.4497489E-01
   7146.00  6.3639611E-01
   7146.33  6.2401453E-01
   7146.67  6.0998957E-01
   7147.00  5.9554334E-01
   7147.33  5.8171257E-01
   7147.67  5.6898093E-01
   7148.00  5.5758407E-01
   7148.33  5.4778565E-01
   7148.67  5.3936405E-01
   7149.00  5.3222121E-01
   7149.33  5.2634770E-01
   7149.67  5.2143683E-01
   7150.00  5.1734658E-01
   7150.33  5.1400230E-01
   7150.67  5.1117687E-01
   7151.00  5.0875978E-01
   7151.33  5.0667533E-01
   7151.67  5.0479150E-01
   7152.00  5.0304108E-01
   7152.33  5.0137106E-01
   7152.67  4.9972730E-01
   7153.00  4.9808429E-01
   7153.33  4.9642510E-01
   7153.67  4.9474340E-01
   7154.00  4.9303268E-01
   7154.33  4.9128887E-01
   7154.67  4.8951811E-01
   7155.00  4.8771785E-01
   7155.33  4.8586999E-01
   7155.67  4.8395444E-01
   7156.00  4.8193900E-01
   7156.33  4.7975584E-01
   7156.67  4.7736464E-01
   7157.00  4.7471032E-01
   7157.33  4.7168763E-01
   7157.67  4.6827976E-01
   7158.00  4.6444723E-01
   7158.33  4.6010269E-01
   7158.67  4.5529162E-01
   7159.00  4.5001963E-01
   7159.33  4.4425519E-01
   7159.67  4.3809211E-01
   7160.00  4.3157421E-01
   7160.33  4.2472509E-01
   7160.67  4.1765021E-01
   7161.00  4.1041308E-01
   7161.33  4.0307894E-01
   7161.67  3.9573508E-01
   7162.00  3.8844582E-01
   7162.33  3.8129739E-01
   7162.67  3.7433985E-01
   7163.00  3.6762533E-01
   7163.33  3.6124494E-01
   7163.67  3.5520897E-01
   7164.00  3.4955538E-01
   7164.33  3.4438008E-01
   7164.67  3.3967327E-01
   7165.00  3.3547457E-01
   7165.33  3.3190277E-01
   7165.67  3.2893909E-01
   7166.00  3.2662728E-01
   7166.33  3.2510881E-01
   7166.67  3.2434996E-01
   7167.00  3.2439445E-01
   7167.33  3.2539144E-01
   7167.67  3.2726545E-01
   7168.00  3.3002813E-01
   7168.33  3.3378155E-01
   7168.67  3.3837634E-01
   7169.00  3.4375120E-01
   7169.33  3.4989820E-01
   7169.67  3.5661449E-01
   7170.00  3.6377978E-01
   7170.33  3.7126864E-01
   7170.67  3.7885911E-01
   7171.00  3.8636436E-01
   7171.33  3.9346356E-01
   7171.67  3.9980728E-01
   7172.00  4.0494551E-01
