    FDMNES
    energy     <xanes>
   7097.00  4.7412150E-03
   7097.33  4.8522387E-03
   7097.67  4.9684421E-03
   7098.00  5.0901908E-03
   7098.33  5.2187096E-03
   7098.67  5.3537746E-03
   7099.00  5.4958901E-03
   7099.33  5.6466766E-03
   7099.67  5.8059129E-03
   7100.00  5.9743138E-03
   7100.33  6.1540832E-03
   7100.67  6.3450326E-03
   7101.00  6.5482084E-03
   7101.33  6.7667064E-03
   7101.67  7.0004370E-03
   7102.00  7.2509912E-03
   7102.33  7.5228890E-03
   7102.67  7.8162855E-03
   7103.00  8.1337121E-03
   7103.33  8.4820848E-03
   7103.67  8.8621348E-03
   7104.00  9.2781206E-03
   7104.33  9.7412561E-03
   7104.67  1.0253644E-02
   7105.00  1.0822965E-02
   7105.33  1.1468795E-02
   7105.67  1.2196674E-02
   7106.00  1.3021772E-02
   7106.33  1.3981743E-02
   7106.67  1.5091600E-02
   7107.00  1.6385196E-02
   7107.33  1.7945383E-02
   7107.67  1.9817424E-02
   7108.00  2.2091430E-02
   7108.33  2.4989799E-02
   7108.67  2.8680024E-02
   7109.00  3.3477837E-02
   7109.33  4.0206857E-02
   7109.67  4.9757952E-02
   7110.00  6.3863392E-02
   7110.33  8.7468876E-02
   7110.67  1.2605798E-01
   7111.00  1.8272133E-01
   7111.33  2.4725160E-01
   7111.67  3.0718072E-01
   7112.00  3.6600477E-01
   7112.33  4.1656115E-01
   7112.67  4.3562609E-01
   7113.00  4.1908272E-01
   7113.33  3.7949071E-01
   7113.67  3.2978779E-01
   7114.00  2.7376873E-01
   7114.33  2.2102975E-01
   7114.67  1.7825778E-01
   7115.00  1.4606207E-01
   7115.33  1.2298934E-01
   7115.67  1.0520962E-01
   7116.00  9.1406860E-02
   7116.33  8.1320610E-02
   7116.67  7.4179465E-02
   7117.00  6.9806391E-02
   7117.33  6.8223945E-02
   7117.67  6.8744552E-02
   7118.00  7.1007449E-02
   7118.33  7.4713927E-02
   7118.67  7.9349448E-02
   7119.00  8.4761414E-02
   7119.33  9.0958188E-02
   7119.67  9.8186565E-02
   7120.00  1.0612165E-01
   7120.33  1.1145794E-01
   7120.67  1.1311524E-01
   7121.00  1.1384251E-01
   7121.33  1.1680333E-01
   7121.67  1.2276965E-01
   7122.00  1.3218774E-01
   7122.33  1.4632803E-01
   7122.67  1.6577804E-01
   7123.00  1.9150982E-01
   7123.33  2.2462397E-01
   7123.67  2.6270454E-01
   7124.00  3.0231531E-01
   7124.33  3.3752360E-01
   7124.67  3.6597590E-01
   7125.00  3.8857742E-01
   7125.33  4.0699002E-01
   7125.67  4.2274464E-01
   7126.00  4.3556298E-01
   7126.33  4.4385355E-01
   7126.67  4.4733841E-01
   7127.00  4.4625168E-01
   7127.33  4.4143891E-01
   7127.67  4.3499359E-01
   7128.00  4.2833139E-01
   7128.33  4.2312041E-01
   7128.67  4.2039860E-01
   7129.00  4.2079016E-01
   7129.33  4.2495485E-01
   7129.67  4.3231480E-01
   7130.00  4.4247908E-01
   7130.33  4.5496296E-01
   7130.67  4.6839818E-01
   7131.00  4.8136694E-01
   7131.33  4.9114104E-01
   7131.67  4.9544556E-01
   7132.00  4.9293687E-01
   7132.33  4.8365344E-01
   7132.67  4.7139117E-01
   7133.00  4.5917549E-01
   7133.33  4.4978629E-01
   7133.67  4.4385013E-01
   7134.00  4.4137018E-01
   7134.33  4.4265985E-01
   7134.67  4.4759626E-01
   7135.00  4.5657049E-01
   7135.33  4.6990709E-01
   7135.67  4.8583802E-01
   7136.00  5.0260394E-01
   7136.33  5.1795029E-01
   7136.67  5.3048210E-01
   7137.00  5.3950644E-01
   7137.33  5.4458745E-01
   7137.67  5.4706167E-01
   7138.00  5.4826608E-01
   7138.33  5.4994760E-01
   7138.67  5.5330409E-01
   7139.00  5.5883680E-01
   7139.33  5.6686444E-01
   7139.67  5.7688913E-01
   7140.00  5.8872526E-01
   7140.33  6.0244866E-01
   7140.67  6.1774317E-01
   7141.00  6.3445958E-01
   7141.33  6.5242006E-01
   7141.67  6.7098053E-01
   7142.00  6.8957885E-01
   7142.33  7.0739136E-01
   7142.67  7.2377314E-01
   7143.00  7.3819373E-01
   7143.33  7.4995083E-01
   7143.67  7.5920038E-01
   7144.00  7.6601443E-01
   7144.33  7.7035719E-01
   7144.67  7.7282176E-01
   7145.00  7.7368747E-01
   7145.33  7.7308885E-01
   7145.67  7.7145361E-01
   7146.00  7.6898652E-01
   7146.33  7.6578900E-01
   7146.67  7.6205671E-01
   7147.00  7.5786161E-01
   7147.33  7.5323093E-01
   7147.67  7.4827647E-01
   7148.00  7.4303609E-01
   7148.33  7.3750564E-01
   7148.67  7.3173605E-01
   7149.00  7.2574472E-01
   7149.33  7.1953661E-01
   7149.67  7.1317618E-01
   7150.00  7.0670516E-01
   7150.33  7.0016783E-01
   7150.67  6.9362232E-01
   7151.00  6.8711028E-01
   7151.33  6.8068832E-01
   7151.67  6.7439363E-01
   7152.00  6.6826970E-01
   7152.33  6.6240061E-01
   7152.67  6.5681922E-01
   7153.00  6.5158026E-01
   7153.33  6.4679478E-01
   7153.67  6.4246259E-01
   7154.00  6.3861427E-01
   7154.33  6.3532843E-01
   7154.67  6.3252993E-01
   7155.00  6.3018193E-01
   7155.33  6.2825852E-01
   7155.67  6.2661023E-01
   7156.00  6.2512968E-01
   7156.33  6.2367694E-01
   7156.67  6.2209361E-01
   7157.00  6.2024324E-01
   7157.33  6.1792030E-01
   7157.67  6.1504146E-01
   7158.00  6.1151086E-01
   7158.33  6.0715387E-01
   7158.67  6.0201299E-01
   7159.00  5.9607309E-01
   7159.33  5.8924721E-01
   7159.67  5.8167232E-01
   7160.00  5.7340311E-01
   7160.33  5.6445310E-01
   7160.67  5.5501290E-01
   7161.00  5.4519167E-01
   7161.33  5.3508718E-01
   7161.67  5.2486622E-01
   7162.00  5.1464586E-01
   7162.33  5.0456820E-01
   7162.67  4.9473105E-01
   7163.00  4.8522218E-01
   7163.33  4.7618197E-01
   7163.67  4.6763436E-01
   7164.00  4.5963795E-01
   7164.33  4.5233094E-01
   7164.67  4.4569105E-01
   7165.00  4.3975751E-01
   7165.33  4.3465569E-01
   7165.67  4.3030881E-01
   7166.00  4.2671412E-01
   7166.33  4.2393955E-01
   7166.67  4.2185155E-01
   7167.00  4.2040061E-01
   7167.33  4.1958774E-01
   7167.67  4.1926372E-01
   7168.00  4.1935878E-01
   7168.33  4.1983529E-01
   7168.67  4.2057570E-01
   7169.00  4.2152121E-01
   7169.33  4.2262948E-01
   7169.67  4.2383106E-01
   7170.00  4.2508877E-01
   7170.33  4.2636835E-01
   7170.67  4.2763596E-01
   7171.00  4.2886615E-01
   7171.33  4.3001393E-01
   7171.67  4.3103042E-01
   7172.00  4.3183953E-01
