    FDMNES
    energy     <xanes>
   7097.00  5.0216720E-03
   7097.33  5.1436020E-03
   7097.67  5.2712764E-03
   7098.00  5.4050987E-03
   7098.33  5.5464230E-03
   7098.67  5.6949977E-03
   7099.00  5.8513776E-03
   7099.33  6.0173503E-03
   7099.67  6.1926648E-03
   7100.00  6.3781045E-03
   7100.33  6.5760942E-03
   7100.67  6.7864147E-03
   7101.00  7.0102091E-03
   7101.33  7.2508718E-03
   7101.67  7.5082863E-03
   7102.00  7.7841837E-03
   7102.33  8.0835020E-03
   7102.67  8.4063820E-03
   7103.00  8.7555688E-03
   7103.33  9.1385886E-03
   7103.67  9.5561943E-03
   7104.00  1.0012990E-02
   7104.33  1.0521136E-02
   7104.67  1.1082852E-02
   7105.00  1.1706428E-02
   7105.33  1.2413041E-02
   7105.67  1.3208618E-02
   7106.00  1.4109538E-02
   7106.33  1.5156539E-02
   7106.67  1.6365870E-02
   7107.00  1.7774271E-02
   7107.33  1.9471816E-02
   7107.67  2.1508258E-02
   7108.00  2.3982631E-02
   7108.33  2.7140164E-02
   7108.67  3.1169406E-02
   7109.00  3.6426378E-02
   7109.33  4.3846885E-02
   7109.67  5.4471746E-02
   7110.00  7.0334849E-02
   7110.33  9.7242782E-02
   7110.67  1.4116032E-01
   7111.00  2.0322755E-01
   7111.33  2.7043857E-01
   7111.67  3.3392694E-01
   7112.00  3.8181822E-01
   7112.33  3.8901426E-01
   7112.67  3.6564811E-01
   7113.00  3.4213317E-01
   7113.33  3.4327971E-01
   7113.67  3.4530220E-01
   7114.00  3.2742879E-01
   7114.33  2.9397750E-01
   7114.67  2.6561989E-01
   7115.00  2.5038868E-01
   7115.33  2.4885560E-01
   7115.67  2.5075356E-01
   7116.00  2.4695308E-01
   7116.33  2.3305789E-01
   7116.67  2.1477669E-01
   7117.00  1.9653620E-01
   7117.33  1.8111079E-01
   7117.67  1.6842907E-01
   7118.00  1.5791731E-01
   7118.33  1.4900214E-01
   7118.67  1.4113030E-01
   7119.00  1.3429950E-01
   7119.33  1.2875916E-01
   7119.67  1.2438509E-01
   7120.00  1.2105124E-01
   7120.33  1.1865032E-01
   7120.67  1.1707182E-01
   7121.00  1.1654936E-01
   7121.33  1.1751874E-01
   7121.67  1.1982136E-01
   7122.00  1.2333852E-01
   7122.33  1.2815315E-01
   7122.67  1.3422100E-01
   7123.00  1.4175020E-01
   7123.33  1.5131401E-01
   7123.67  1.6312024E-01
   7124.00  1.7759982E-01
   7124.33  1.9565896E-01
   7124.67  2.1711420E-01
   7125.00  2.4144472E-01
   7125.33  2.6703539E-01
   7125.67  2.9131671E-01
   7126.00  3.1258597E-01
   7126.33  3.2983708E-01
   7126.67  3.4455330E-01
   7127.00  3.5804659E-01
   7127.33  3.7123821E-01
   7127.67  3.8450982E-01
   7128.00  3.9823355E-01
   7128.33  4.1384263E-01
   7128.67  4.3325112E-01
   7129.00  4.5840257E-01
   7129.33  4.9162876E-01
   7129.67  5.3185263E-01
   7130.00  5.7748961E-01
   7130.33  6.2572771E-01
   7130.67  6.7264615E-01
   7131.00  7.1539669E-01
   7131.33  7.5080094E-01
   7131.67  7.7869531E-01
   7132.00  7.9934683E-01
   7132.33  8.1324905E-01
   7132.67  8.2277130E-01
   7133.00  8.2908495E-01
   7133.33  8.3257847E-01
   7133.67  8.3351310E-01
   7134.00  8.3138112E-01
   7134.33  8.2448545E-01
   7134.67  8.1163593E-01
   7135.00  7.9170445E-01
   7135.33  7.6392592E-01
   7135.67  7.3065452E-01
   7136.00  6.9370354E-01
   7136.33  6.5513863E-01
   7136.67  6.1727364E-01
   7137.00  5.8174073E-01
   7137.33  5.5059254E-01
   7137.67  5.2444667E-01
   7138.00  5.0382753E-01
   7138.33  4.8955124E-01
   7138.67  4.8056457E-01
   7139.00  4.7630949E-01
   7139.33  4.7647317E-01
   7139.67  4.7973281E-01
   7140.00  4.8543082E-01
   7140.33  4.9313724E-01
   7140.67  5.0210962E-01
   7141.00  5.1199941E-01
   7141.33  5.2256128E-01
   7141.67  5.3346169E-01
   7142.00  5.4450731E-01
   7142.33  5.5548724E-01
   7142.67  5.6622866E-01
   7143.00  5.7660334E-01
   7143.33  5.8644618E-01
   7143.67  5.9576291E-01
   7144.00  6.0454746E-01
   7144.33  6.1276647E-01
   7144.67  6.2053545E-01
   7145.00  6.2790528E-01
   7145.33  6.3488756E-01
   7145.67  6.4156552E-01
   7146.00  6.4795653E-01
   7146.33  6.5402150E-01
   7146.67  6.5976719E-01
   7147.00  6.6514700E-01
   7147.33  6.7002828E-01
   7147.67  6.7436778E-01
   7148.00  6.7806793E-01
   7148.33  6.8091291E-01
   7148.67  6.8287855E-01
   7149.00  6.8387250E-01
   7149.33  6.8367571E-01
   7149.67  6.8236080E-01
   7150.00  6.7990242E-01
   7150.33  6.7616456E-01
   7150.67  6.7133836E-01
   7151.00  6.6549967E-01
   7151.33  6.5866266E-01
   7151.67  6.5109431E-01
   7152.00  6.4293936E-01
   7152.33  6.3431631E-01
   7152.67  6.2544159E-01
   7153.00  6.1644491E-01
   7153.33  6.0745957E-01
   7153.67  5.9859453E-01
   7154.00  5.8992718E-01
   7154.33  5.8156280E-01
   7154.67  5.7352445E-01
   7155.00  5.6585313E-01
   7155.33  5.5864230E-01
   7155.67  5.5188181E-01
   7156.00  5.4560901E-01
   7156.33  5.3993803E-01
   7156.67  5.3485414E-01
   7157.00  5.3040563E-01
   7157.33  5.2673512E-01
   7157.67  5.2380637E-01
   7158.00  5.2165320E-01
   7158.33  5.2039767E-01
   7158.67  5.1993794E-01
   7159.00  5.2024891E-01
   7159.33  5.2135972E-01
   7159.67  5.2308781E-01
   7160.00  5.2532686E-01
   7160.33  5.2797229E-01
   7160.67  5.3080891E-01
   7161.00  5.3368191E-01
   7161.33  5.3639099E-01
   7161.67  5.3877382E-01
   7162.00  5.4067907E-01
   7162.33  5.4187000E-01
   7162.67  5.4230127E-01
   7163.00  5.4190055E-01
   7163.33  5.4050996E-01
   7163.67  5.3822902E-01
   7164.00  5.3507963E-01
   7164.33  5.3101950E-01
   7164.67  5.2623927E-01
   7165.00  5.2083425E-01
   7165.33  5.1486465E-01
   7165.67  5.0852043E-01
   7166.00  5.0190845E-01
   7166.33  4.9512325E-01
   7166.67  4.8828083E-01
   7167.00  4.8145051E-01
   7167.33  4.7471126E-01
   7167.67  4.6810426E-01
   7168.00  4.6165718E-01
   7168.33  4.5541258E-01
   7168.67  4.4936051E-01
   7169.00  4.4350758E-01
   7169.33  4.3788461E-01
   7169.67  4.3247174E-01
   7170.00  4.2727656E-01
   7170.33  4.2234252E-01
   7170.67  4.1766527E-01
   7171.00  4.1328076E-01
   7171.33  4.0930779E-01
   7171.67  4.0583304E-01
   7172.00  4.0302381E-01
