    FDMNES
    energy     <xanes>
   7097.00  4.7559528E-03
   7097.33  4.8616877E-03
   7097.67  4.9719737E-03
   7098.00  5.0871086E-03
   7098.33  5.2081294E-03
   7098.67  5.3348081E-03
   7099.00  5.4675489E-03
   7099.33  5.6076992E-03
   7099.67  5.7550243E-03
   7100.00  5.9100879E-03
   7100.33  6.0746880E-03
   7100.67  6.2486033E-03
   7101.00  6.4326459E-03
   7101.33  6.6292923E-03
   7101.67  6.8383808E-03
   7102.00  7.0611271E-03
   7102.33  7.3010771E-03
   7102.67  7.5582316E-03
   7103.00  7.8344983E-03
   7103.33  8.1352023E-03
   7103.67  8.4607456E-03
   7104.00  8.8143011E-03
   7104.33  9.2043645E-03
   7104.67  9.6323205E-03
   7105.00  1.0103854E-02
   7105.33  1.0633626E-02
   7105.67  1.1225554E-02
   7106.00  1.1890876E-02
   7106.33  1.2657723E-02
   7106.67  1.3537224E-02
   7107.00  1.4554843E-02
   7107.33  1.5773334E-02
   7107.67  1.7228045E-02
   7108.00  1.8989504E-02
   7108.33  2.1233731E-02
   7108.67  2.4102023E-02
   7109.00  2.7862595E-02
   7109.33  3.3232811E-02
   7109.67  4.1059385E-02
   7110.00  5.3022392E-02
   7110.33  7.4025355E-02
   7110.67  1.0913134E-01
   7111.00  1.5637713E-01
   7111.33  1.8100341E-01
   7111.67  1.7502873E-01
   7112.00  1.6490671E-01
   7112.33  1.7348196E-01
   7112.67  2.0951453E-01
   7113.00  2.7445585E-01
   7113.33  3.4842806E-01
   7113.67  3.7338294E-01
   7114.00  3.3120044E-01
   7114.33  2.6550588E-01
   7114.67  2.1088612E-01
   7115.00  1.7061400E-01
   7115.33  1.4295971E-01
   7115.67  1.2352833E-01
   7116.00  1.1080310E-01
   7116.33  1.0407117E-01
   7116.67  1.0130865E-01
   7117.00  1.0153777E-01
   7117.33  1.0425441E-01
   7117.67  1.0878639E-01
   7118.00  1.1491592E-01
   7118.33  1.2239761E-01
   7118.67  1.3073941E-01
   7119.00  1.3981997E-01
   7119.33  1.4960816E-01
   7119.67  1.5999828E-01
   7120.00  1.7114026E-01
   7120.33  1.8352707E-01
   7120.67  1.9743901E-01
   7121.00  2.1317802E-01
   7121.33  2.3097059E-01
   7121.67  2.4946938E-01
   7122.00  2.6630306E-01
   7122.33  2.7774957E-01
   7122.67  2.8402473E-01
   7123.00  2.8760203E-01
   7123.33  2.9206548E-01
   7123.67  2.9939834E-01
   7124.00  3.1019687E-01
   7124.33  3.2453642E-01
   7124.67  3.4069506E-01
   7125.00  3.5685485E-01
   7125.33  3.7000490E-01
   7125.67  3.7882971E-01
   7126.00  3.8524128E-01
   7126.33  3.9467384E-01
   7126.67  4.1026325E-01
   7127.00  4.3218650E-01
   7127.33  4.5909196E-01
   7127.67  4.8802281E-01
   7128.00  5.1743007E-01
   7128.33  5.4605745E-01
   7128.67  5.7321029E-01
   7129.00  5.9854653E-01
   7129.33  6.2181266E-01
   7129.67  6.4297593E-01
   7130.00  6.6101673E-01
   7130.33  6.7360680E-01
   7130.67  6.8064258E-01
   7131.00  6.8312430E-01
   7131.33  6.8320349E-01
   7131.67  6.8388911E-01
   7132.00  6.8718716E-01
   7132.33  6.9476491E-01
   7132.67  7.0575530E-01
   7133.00  7.1888802E-01
   7133.33  7.3243994E-01
   7133.67  7.4489193E-01
   7134.00  7.5536724E-01
   7134.33  7.6286206E-01
   7134.67  7.6739583E-01
   7135.00  7.6916494E-01
   7135.33  7.6886418E-01
   7135.67  7.6810598E-01
   7136.00  7.6793650E-01
   7136.33  7.6898189E-01
   7136.67  7.7063796E-01
   7137.00  7.7194694E-01
   7137.33  7.7148221E-01
   7137.67  7.6859553E-01
   7138.00  7.6305568E-01
   7138.33  7.5478905E-01
   7138.67  7.4462549E-01
   7139.00  7.3306217E-01
   7139.33  7.2048856E-01
   7139.67  7.0740697E-01
   7140.00  6.9406666E-01
   7140.33  6.8066625E-01
   7140.67  6.6734637E-01
   7141.00  6.5417993E-01
   7141.33  6.4124300E-01
   7141.67  6.2853855E-01
   7142.00  6.1608255E-01
   7142.33  6.0392368E-01
   7142.67  5.9204811E-01
   7143.00  5.8047924E-01
   7143.33  5.6929640E-01
   7143.67  5.5850226E-01
   7144.00  5.4814001E-01
   7144.33  5.3831911E-01
   7144.67  5.2902268E-01
   7145.00  5.2027823E-01
   7145.33  5.1217012E-01
   7145.67  5.0461660E-01
   7146.00  4.9759115E-01
   7146.33  4.9111330E-01
   7146.67  4.8507669E-01
   7147.00  4.7944225E-01
   7147.33  4.7421352E-01
   7147.67  4.6931340E-01
   7148.00  4.6472411E-01
   7148.33  4.6047182E-01
   7148.67  4.5652585E-01
   7149.00  4.5291051E-01
   7149.33  4.4971180E-01
   7149.67  4.4692386E-01
   7150.00  4.4457211E-01
   7150.33  4.4272045E-01
   7150.67  4.4129235E-01
   7151.00  4.4024446E-01
   7151.33  4.3953683E-01
   7151.67  4.3903115E-01
   7152.00  4.3862957E-01
   7152.33  4.3821034E-01
   7152.67  4.3765721E-01
   7153.00  4.3687476E-01
   7153.33  4.3572381E-01
   7153.67  4.3416940E-01
   7154.00  4.3216461E-01
   7154.33  4.2961635E-01
   7154.67  4.2657818E-01
   7155.00  4.2306293E-01
   7155.33  4.1904720E-01
   7155.67  4.1463506E-01
   7156.00  4.0987935E-01
   7156.33  4.0481783E-01
   7156.67  3.9956436E-01
   7157.00  3.9419230E-01
   7157.33  3.8879102E-01
   7157.67  3.8345951E-01
   7158.00  3.7827353E-01
   7158.33  3.7334416E-01
   7158.67  3.6872049E-01
   7159.00  3.6446417E-01
   7159.33  3.6069440E-01
   7159.67  3.5741337E-01
   7160.00  3.5466109E-01
   7160.33  3.5254509E-01
   7160.67  3.5102145E-01
   7161.00  3.5010577E-01
   7161.33  3.4988104E-01
   7161.67  3.5026093E-01
   7162.00  3.5122784E-01
   7162.33  3.5282308E-01
   7162.67  3.5493978E-01
   7163.00  3.5754116E-01
   7163.33  3.6063750E-01
   7163.67  3.6412839E-01
   7164.00  3.6797468E-01
   7164.33  3.7216937E-01
   7164.67  3.7662777E-01
   7165.00  3.8131049E-01
   7165.33  3.8619467E-01
   7165.67  3.9121276E-01
   7166.00  3.9632579E-01
   7166.33  4.0149544E-01
   7166.67  4.0667231E-01
   7167.00  4.1182094E-01
   7167.33  4.1689452E-01
   7167.67  4.2186644E-01
   7168.00  4.2670985E-01
   7168.33  4.3137808E-01
   7168.67  4.3586798E-01
   7169.00  4.4016377E-01
   7169.33  4.4422534E-01
   7169.67  4.4806825E-01
   7170.00  4.5168505E-01
   7170.33  4.5503715E-01
   7170.67  4.5814159E-01
   7171.00  4.6098258E-01
   7171.33  4.6349120E-01
   7171.67  4.6564397E-01
   7172.00  4.6736374E-01
