    FDMNES
    energy     <xanes>
   7097.00  4.9106947E-03
   7097.33  5.0224358E-03
   7097.67  5.1390968E-03
   7098.00  5.2610025E-03
   7098.33  5.3892783E-03
   7098.67  5.5236803E-03
   7099.00  5.6646482E-03
   7099.33  5.8136433E-03
   7099.67  5.9704118E-03
   7100.00  6.1355642E-03
   7100.33  6.3110453E-03
   7100.67  6.4966107E-03
   7101.00  6.6931328E-03
   7101.33  6.9032770E-03
   7101.67  7.1268508E-03
   7102.00  7.3651453E-03
   7102.33  7.6219439E-03
   7102.67  7.8972005E-03
   7103.00  8.1929082E-03
   7103.33  8.5146705E-03
   7103.67  8.8628016E-03
   7104.00  9.2405410E-03
   7104.33  9.6566406E-03
   7104.67  1.0112279E-02
   7105.00  1.0613075E-02
   7105.33  1.1173657E-02
   7105.67  1.1797350E-02
   7106.00  1.2494758E-02
   7106.33  1.3292636E-02
   7106.67  1.4200077E-02
   7107.00  1.5239537E-02
   7107.33  1.6466486E-02
   7107.67  1.7907772E-02
   7108.00  1.9619568E-02
   7108.33  2.1740521E-02
   7108.67  2.4365608E-02
   7109.00  2.7677191E-02
   7109.33  3.2145246E-02
   7109.67  3.8240735E-02
   7110.00  4.6875150E-02
   7110.33  6.0614353E-02
   7110.67  8.2355688E-02
   7111.00  1.1495754E-01
   7111.33  1.6091498E-01
   7111.67  2.1521943E-01
   7112.00  2.5879846E-01
   7112.33  2.6625950E-01
   7112.67  2.6157091E-01
   7113.00  2.6849286E-01
   7113.33  2.9569270E-01
   7113.67  3.3565585E-01
   7114.00  3.8143991E-01
   7114.33  4.1685078E-01
   7114.67  4.2025385E-01
   7115.00  3.8318951E-01
   7115.33  3.2532780E-01
   7115.67  2.7582413E-01
   7116.00  2.4129024E-01
   7116.33  2.1812854E-01
   7116.67  1.9878204E-01
   7117.00  1.8125040E-01
   7117.33  1.6456634E-01
   7117.67  1.4842453E-01
   7118.00  1.3416217E-01
   7118.33  1.2384448E-01
   7118.67  1.1738164E-01
   7119.00  1.1428419E-01
   7119.33  1.1411808E-01
   7119.67  1.1582666E-01
   7120.00  1.1860736E-01
   7120.33  1.2172181E-01
   7120.67  1.2460482E-01
   7121.00  1.2701979E-01
   7121.33  1.2953219E-01
   7121.67  1.3254891E-01
   7122.00  1.3613607E-01
   7122.33  1.4101684E-01
   7122.67  1.4779683E-01
   7123.00  1.5638343E-01
   7123.33  1.6565018E-01
   7123.67  1.7522179E-01
   7124.00  1.8647948E-01
   7124.33  2.0165530E-01
   7124.67  2.2080346E-01
   7125.00  2.4274649E-01
   7125.33  2.6435847E-01
   7125.67  2.8253095E-01
   7126.00  2.9620654E-01
   7126.33  3.0601019E-01
   7126.67  3.1484708E-01
   7127.00  3.2492804E-01
   7127.33  3.3846397E-01
   7127.67  3.5585869E-01
   7128.00  3.7720279E-01
   7128.33  4.0278844E-01
   7128.67  4.3162109E-01
   7129.00  4.6274155E-01
   7129.33  4.9474019E-01
   7129.67  5.2661429E-01
   7130.00  5.5878898E-01
   7130.33  5.9263144E-01
   7130.67  6.2774526E-01
   7131.00  6.6208450E-01
   7131.33  6.9210156E-01
   7131.67  7.1678351E-01
   7132.00  7.3678531E-01
   7132.33  7.5374261E-01
   7132.67  7.6991966E-01
   7133.00  7.8660249E-01
   7133.33  8.0523956E-01
   7133.67  8.2626582E-01
   7134.00  8.4919705E-01
   7134.33  8.7202670E-01
   7134.67  8.9206312E-01
   7135.00  9.0700638E-01
   7135.33  9.1298751E-01
   7135.67  9.0865108E-01
   7136.00  8.9400836E-01
   7136.33  8.7086714E-01
   7136.67  8.4394645E-01
   7137.00  8.1586819E-01
   7137.33  7.8862208E-01
   7137.67  7.6309234E-01
   7138.00  7.3971411E-01
   7138.33  7.1908079E-01
   7138.67  7.0103418E-01
   7139.00  6.8562785E-01
   7139.33  6.7323975E-01
   7139.67  6.6357604E-01
   7140.00  6.5665863E-01
   7140.33  6.5280819E-01
   7140.67  6.5157883E-01
   7141.00  6.5278196E-01
   7141.33  6.5630806E-01
   7141.67  6.6135098E-01
   7142.00  6.6729343E-01
   7142.33  6.7327169E-01
   7142.67  6.7831998E-01
   7143.00  6.8162405E-01
   7143.33  6.8206653E-01
   7143.67  6.7946865E-01
   7144.00  6.7372229E-01
   7144.33  6.6471769E-01
   7144.67  6.5339451E-01
   7145.00  6.4038813E-01
   7145.33  6.2628252E-01
   7145.67  6.1175362E-01
   7146.00  5.9716484E-01
   7146.33  5.8285707E-01
   7146.67  5.6900105E-01
   7147.00  5.5571261E-01
   7147.33  5.4316078E-01
   7147.67  5.3131262E-01
   7148.00  5.2020564E-01
   7148.33  5.0999320E-01
   7148.67  5.0064187E-01
   7149.00  4.9221269E-01
   7149.33  4.8489495E-01
   7149.67  4.7861400E-01
   7150.00  4.7338982E-01
   7150.33  4.6934762E-01
   7150.67  4.6631984E-01
   7151.00  4.6425537E-01
   7151.33  4.6318855E-01
   7151.67  4.6292156E-01
   7152.00  4.6337603E-01
   7152.33  4.6454160E-01
   7152.67  4.6625617E-01
   7153.00  4.6845224E-01
   7153.33  4.7110551E-01
   7153.67  4.7409089E-01
   7154.00  4.7734128E-01
   7154.33  4.8079333E-01
   7154.67  4.8432993E-01
   7155.00  4.8786428E-01
   7155.33  4.9128018E-01
   7155.67  4.9449193E-01
   7156.00  4.9742343E-01
   7156.33  4.9995699E-01
   7156.67  5.0208170E-01
   7157.00  5.0376421E-01
   7157.33  5.0492085E-01
   7157.67  5.0559600E-01
   7158.00  5.0578450E-01
   7158.33  5.0542646E-01
   7158.67  5.0459133E-01
   7159.00  5.0329484E-01
   7159.33  5.0151453E-01
   7159.67  4.9935241E-01
   7160.00  4.9686370E-01
   7160.33  4.9409285E-01
   7160.67  4.9115305E-01
   7161.00  4.8811580E-01
   7161.33  4.8505745E-01
   7161.67  4.8204851E-01
   7162.00  4.7913689E-01
   7162.33  4.7638323E-01
   7162.67  4.7380201E-01
   7163.00  4.7141451E-01
   7163.33  4.6926498E-01
   7163.67  4.6733738E-01
   7164.00  4.6564031E-01
   7164.33  4.6421808E-01
   7164.67  4.6305184E-01
   7165.00  4.6214601E-01
   7165.33  4.6152922E-01
   7165.67  4.6115571E-01
   7166.00  4.6100465E-01
   7166.33  4.6106396E-01
   7166.67  4.6126453E-01
   7167.00  4.6156086E-01
   7167.33  4.6189933E-01
   7167.67  4.6221515E-01
   7168.00  4.6246165E-01
   7168.33  4.6258271E-01
   7168.67  4.6255572E-01
   7169.00  4.6235644E-01
   7169.33  4.6194951E-01
   7169.67  4.6136192E-01
   7170.00  4.6060862E-01
   7170.33  4.5970146E-01
   7170.67  4.5869675E-01
   7171.00  4.5763619E-01
   7171.33  4.5658099E-01
   7171.67  4.5561101E-01
   7172.00  4.5481139E-01
