    FDMNES
    energy     <xanes>
   7097.00  5.2064810E-03
   7097.33  5.3270879E-03
   7097.67  5.4530141E-03
   7098.00  5.5846064E-03
   7098.33  5.7230732E-03
   7098.67  5.8681436E-03
   7099.00  6.0202841E-03
   7099.33  6.1810557E-03
   7099.67  6.3501729E-03
   7100.00  6.5282777E-03
   7100.33  6.7174345E-03
   7100.67  6.9173596E-03
   7101.00  7.1289620E-03
   7101.33  7.3550471E-03
   7101.67  7.5953716E-03
   7102.00  7.8512655E-03
   7102.33  8.1266673E-03
   7102.67  8.4214601E-03
   7103.00  8.7376673E-03
   7103.33  9.0810419E-03
   7103.67  9.4517851E-03
   7104.00  9.8531269E-03
   7104.33  1.0293894E-02
   7104.67  1.0775051E-02
   7105.00  1.1302075E-02
   7105.33  1.1889383E-02
   7105.67  1.2539812E-02
   7106.00  1.3263408E-02
   7106.33  1.4085749E-02
   7106.67  1.5014594E-02
   7107.00  1.6070447E-02
   7107.33  1.7304248E-02
   7107.67  1.8738420E-02
   7108.00  2.0421858E-02
   7108.33  2.2475284E-02
   7108.67  2.4975050E-02
   7109.00  2.8070581E-02
   7109.33  3.2144122E-02
   7109.67  3.7555926E-02
   7110.00  4.5005124E-02
   7110.33  5.6453163E-02
   7110.67  7.4171265E-02
   7111.00  1.0061486E-01
   7111.33  1.3550410E-01
   7111.67  1.7297189E-01
   7112.00  2.0872154E-01
   7112.33  2.4964809E-01
   7112.67  3.0002315E-01
   7113.00  3.4538253E-01
   7113.33  3.7449371E-01
   7113.67  4.0266249E-01
   7114.00  4.4378002E-01
   7114.33  4.9527726E-01
   7114.67  5.1644444E-01
   7115.00  4.8318727E-01
   7115.33  4.1366165E-01
   7115.67  3.4683883E-01
   7116.00  2.9749795E-01
   7116.33  2.6932767E-01
   7116.67  2.5399446E-01
   7117.00  2.4273683E-01
   7117.33  2.2431295E-01
   7117.67  1.9926692E-01
   7118.00  1.7521533E-01
   7118.33  1.5913948E-01
   7118.67  1.5025614E-01
   7119.00  1.4651472E-01
   7119.33  1.4535460E-01
   7119.67  1.4438182E-01
   7120.00  1.4293131E-01
   7120.33  1.4106263E-01
   7120.67  1.3917176E-01
   7121.00  1.3769196E-01
   7121.33  1.3761249E-01
   7121.67  1.3976616E-01
   7122.00  1.4471394E-01
   7122.33  1.5269187E-01
   7122.67  1.6258334E-01
   7123.00  1.7375591E-01
   7123.33  1.8645346E-01
   7123.67  2.0114239E-01
   7124.00  2.1774499E-01
   7124.33  2.3491842E-01
   7124.67  2.5082648E-01
   7125.00  2.6491403E-01
   7125.33  2.7809224E-01
   7125.67  2.9253518E-01
   7126.00  3.1008667E-01
   7126.33  3.3297819E-01
   7126.67  3.6133894E-01
   7127.00  3.9471722E-01
   7127.33  4.3125907E-01
   7127.67  4.6669966E-01
   7128.00  4.9735518E-01
   7128.33  5.1999593E-01
   7128.67  5.3685563E-01
   7129.00  5.5137177E-01
   7129.33  5.6800276E-01
   7129.67  5.8930422E-01
   7130.00  6.1614572E-01
   7130.33  6.4865441E-01
   7130.67  6.8462218E-01
   7131.00  7.2220281E-01
   7131.33  7.5901109E-01
   7131.67  7.9306659E-01
   7132.00  8.2293051E-01
   7132.33  8.4654655E-01
   7132.67  8.6355304E-01
   7133.00  8.7341722E-01
   7133.33  8.7526090E-01
   7133.67  8.7069296E-01
   7134.00  8.6075236E-01
   7134.33  8.4640657E-01
   7134.67  8.2965759E-01
   7135.00  8.1168629E-01
   7135.33  7.9348321E-01
   7135.67  7.7551492E-01
   7136.00  7.5767158E-01
   7136.33  7.3940551E-01
   7136.67  7.2024494E-01
   7137.00  7.0003340E-01
   7137.33  6.7902437E-01
   7137.67  6.5815049E-01
   7138.00  6.3833675E-01
   7138.33  6.2084543E-01
   7138.67  6.0610977E-01
   7139.00  5.9440355E-01
   7139.33  5.8607909E-01
   7139.67  5.8047568E-01
   7140.00  5.7728341E-01
   7140.33  5.7643618E-01
   7140.67  5.7739554E-01
   7141.00  5.7993341E-01
   7141.33  5.8389729E-01
   7141.67  5.8871310E-01
   7142.00  5.9391866E-01
   7142.33  5.9885061E-01
   7142.67  6.0290198E-01
   7143.00  6.0562925E-01
   7143.33  6.0654449E-01
   7143.67  6.0584058E-01
   7144.00  6.0368486E-01
   7144.33  6.0022058E-01
   7144.67  5.9587700E-01
   7145.00  5.9084420E-01
   7145.33  5.8520327E-01
   7145.67  5.7911151E-01
   7146.00  5.7261985E-01
   7146.33  5.6573815E-01
   7146.67  5.5857512E-01
   7147.00  5.5120459E-01
   7147.33  5.4372176E-01
   7147.67  5.3626628E-01
   7148.00  5.2895742E-01
   7148.33  5.2197328E-01
   7148.67  5.1541499E-01
   7149.00  5.0939066E-01
   7149.33  5.0409018E-01
   7149.67  4.9952181E-01
   7150.00  4.9574395E-01
   7150.33  4.9290874E-01
   7150.67  4.9093866E-01
   7151.00  4.8984270E-01
   7151.33  4.8972481E-01
   7151.67  4.9045547E-01
   7152.00  4.9199949E-01
   7152.33  4.9438456E-01
   7152.67  4.9743729E-01
   7153.00  5.0108114E-01
   7153.33  5.0527442E-01
   7153.67  5.0984008E-01
   7154.00  5.1467172E-01
   7154.33  5.1966036E-01
   7154.67  5.2466476E-01
   7155.00  5.2958520E-01
   7155.33  5.3429441E-01
   7155.67  5.3872799E-01
   7156.00  5.4282492E-01
   7156.33  5.4648396E-01
   7156.67  5.4972038E-01
   7157.00  5.5251903E-01
   7157.33  5.5482024E-01
   7157.67  5.5668561E-01
   7158.00  5.5812644E-01
   7158.33  5.5910936E-01
   7158.67  5.5970512E-01
   7159.00  5.5993115E-01
   7159.33  5.5976337E-01
   7159.67  5.5926372E-01
   7160.00  5.5844639E-01
   7160.33  5.5728863E-01
   7160.67  5.5584229E-01
   7161.00  5.5412047E-01
   7161.33  5.5211012E-01
   7161.67  5.4986152E-01
   7162.00  5.4738929E-01
   7162.33  5.4468680E-01
   7162.67  5.4180176E-01
   7163.00  5.3875536E-01
   7163.33  5.3555704E-01
   7163.67  5.3225211E-01
   7164.00  5.2886553E-01
   7164.33  5.2541853E-01
   7164.67  5.2194454E-01
   7165.00  5.1846551E-01
   7165.33  5.1500991E-01
   7165.67  5.1160011E-01
   7166.00  5.0825582E-01
   7166.33  5.0500690E-01
   7166.67  5.0185682E-01
   7167.00  4.9881418E-01
   7167.33  4.9589979E-01
   7167.67  4.9310187E-01
   7168.00  4.9041879E-01
   7168.33  4.8785826E-01
   7168.67  4.8539810E-01
   7169.00  4.8302966E-01
   7169.33  4.8075213E-01
   7169.67  4.7854481E-01
   7170.00  4.7639882E-01
   7170.33  4.7430891E-01
   7170.67  4.7226677E-01
   7171.00  4.7028534E-01
   7171.33  4.6841556E-01
   7171.67  4.6672621E-01
   7172.00  4.6532877E-01
