    FDMNES
    energy     <xanes>
   7097.00  5.6110860E-03
   7097.33  5.7613439E-03
   7097.67  5.9191894E-03
   7098.00  6.0851737E-03
   7098.33  6.2611154E-03
   7098.67  6.4467047E-03
   7099.00  6.6427013E-03
   7099.33  6.8515188E-03
   7099.67  7.0728491E-03
   7100.00  7.3077659E-03
   7100.33  7.5595550E-03
   7100.67  7.8279509E-03
   7101.00  8.1145168E-03
   7101.33  8.4238605E-03
   7101.67  8.7558480E-03
   7102.00  9.1128358E-03
   7102.33  9.5015160E-03
   7102.67  9.9220797E-03
   7103.00  1.0378228E-02
   7103.33  1.0880100E-02
   7103.67  1.1428641E-02
   7104.00  1.2029962E-02
   7104.33  1.2700236E-02
   7104.67  1.3442162E-02
   7105.00  1.4266474E-02
   7105.33  1.5200692E-02
   7105.67  1.6251752E-02
   7106.00  1.7440051E-02
   7106.33  1.8816480E-02
   7106.67  2.0399026E-02
   7107.00  2.2230661E-02
   7107.33  2.4416634E-02
   7107.67  2.7007383E-02
   7108.00  3.0107395E-02
   7108.33  3.3971833E-02
   7108.67  3.8765774E-02
   7109.00  4.4804019E-02
   7109.33  5.2878049E-02
   7109.67  6.3700458E-02
   7110.00  7.8618748E-02
   7110.33  1.0130059E-01
   7110.67  1.3594624E-01
   7111.00  1.8866808E-01
   7111.33  2.7145415E-01
   7111.67  3.9592025E-01
   7112.00  5.7254300E-01
   7112.33  7.8207792E-01
   7112.67  9.3488664E-01
   7113.00  9.2168726E-01
   7113.33  7.3806575E-01
   7113.67  5.4533700E-01
   7114.00  4.0171821E-01
   7114.33  3.1182189E-01
   7114.67  2.5220093E-01
   7115.00  2.1319413E-01
   7115.33  1.9091963E-01
   7115.67  1.7942560E-01
   7116.00  1.7432920E-01
   7116.33  1.7179122E-01
   7116.67  1.7196955E-01
   7117.00  1.7509509E-01
   7117.33  1.7995218E-01
   7117.67  1.8495577E-01
   7118.00  1.8847283E-01
   7118.33  1.9081698E-01
   7118.67  1.9399795E-01
   7119.00  1.9855846E-01
   7119.33  2.0446842E-01
   7119.67  2.0996804E-01
   7120.00  2.1188039E-01
   7120.33  2.0715109E-01
   7120.67  1.9899061E-01
   7121.00  1.9060435E-01
   7121.33  1.8408092E-01
   7121.67  1.7966411E-01
   7122.00  1.7706600E-01
   7122.33  1.7548812E-01
   7122.67  1.7410142E-01
   7123.00  1.7327309E-01
   7123.33  1.7440070E-01
   7123.67  1.7814961E-01
   7124.00  1.8483625E-01
   7124.33  1.9497736E-01
   7124.67  2.0829376E-01
   7125.00  2.2475736E-01
   7125.33  2.4393795E-01
   7125.67  2.6341787E-01
   7126.00  2.8056841E-01
   7126.33  2.9294806E-01
   7126.67  3.0196292E-01
   7127.00  3.0969879E-01
   7127.33  3.1834416E-01
   7127.67  3.2897958E-01
   7128.00  3.4212556E-01
   7128.33  3.5828037E-01
   7128.67  3.7679904E-01
   7129.00  3.9720989E-01
   7129.33  4.1932559E-01
   7129.67  4.4257414E-01
   7130.00  4.6618197E-01
   7130.33  4.8882853E-01
   7130.67  5.0990598E-01
   7131.00  5.2959730E-01
   7131.33  5.4868745E-01
   7131.67  5.6814375E-01
   7132.00  5.8840114E-01
   7132.33  6.0950509E-01
   7132.67  6.3079645E-01
   7133.00  6.5159220E-01
   7133.33  6.7099558E-01
   7133.67  6.8831450E-01
   7134.00  7.0234100E-01
   7134.33  7.1057879E-01
   7134.67  7.1195294E-01
   7135.00  7.0549930E-01
   7135.33  6.9019534E-01
   7135.67  6.6850660E-01
   7136.00  6.4270169E-01
   7136.33  6.1553096E-01
   7136.67  5.8945670E-01
   7137.00  5.6572605E-01
   7137.33  5.4545122E-01
   7137.67  5.2845000E-01
   7138.00  5.1463953E-01
   7138.33  5.0414245E-01
   7138.67  4.9631616E-01
   7139.00  4.9097357E-01
   7139.33  4.8826337E-01
   7139.67  4.8778637E-01
   7140.00  4.8942164E-01
   7140.33  4.9315875E-01
   7140.67  4.9839146E-01
   7141.00  5.0474266E-01
   7141.33  5.1190328E-01
   7141.67  5.1954011E-01
   7142.00  5.2761593E-01
   7142.33  5.3632979E-01
   7142.67  5.4581338E-01
   7143.00  5.5620055E-01
   7143.33  5.6763225E-01
   7143.67  5.7984333E-01
   7144.00  5.9258213E-01
   7144.33  6.0549120E-01
   7144.67  6.1817135E-01
   7145.00  6.3035966E-01
   7145.33  6.4178957E-01
   7145.67  6.5249663E-01
   7146.00  6.6251519E-01
   7146.33  6.7184854E-01
   7146.67  6.8065369E-01
   7147.00  6.8898257E-01
   7147.33  6.9682421E-01
   7147.67  7.0426912E-01
   7148.00  7.1134924E-01
   7148.33  7.1806394E-01
   7148.67  7.2449147E-01
   7149.00  7.3065975E-01
   7149.33  7.3656427E-01
   7149.67  7.4225165E-01
   7150.00  7.4772434E-01
   7150.33  7.5293555E-01
   7150.67  7.5787561E-01
   7151.00  7.6249372E-01
   7151.33  7.6665806E-01
   7151.67  7.7031292E-01
   7152.00  7.7334962E-01
   7152.33  7.7553295E-01
   7152.67  7.7681420E-01
   7153.00  7.7707895E-01
   7153.33  7.7607738E-01
   7153.67  7.7387916E-01
   7154.00  7.7046035E-01
   7154.33  7.6568691E-01
   7154.67  7.5976860E-01
   7155.00  7.5278349E-01
   7155.33  7.4472345E-01
   7155.67  7.3583215E-01
   7156.00  7.2622127E-01
   7156.33  7.1594375E-01
   7156.67  7.0519030E-01
   7157.00  6.9404970E-01
   7157.33  6.8257327E-01
   7157.67  6.7087145E-01
   7158.00  6.5899580E-01
   7158.33  6.4698161E-01
   7158.67  6.3489519E-01
   7159.00  6.2278743E-01
   7159.33  6.1073422E-01
   7159.67  5.9881051E-01
   7160.00  5.8708928E-01
   7160.33  5.7568264E-01
   7160.67  5.6461565E-01
   7161.00  5.5392328E-01
   7161.33  5.4367442E-01
   7161.67  5.3381893E-01
   7162.00  5.2434420E-01
   7162.33  5.1527259E-01
   7162.67  5.0653257E-01
   7163.00  4.9809918E-01
   7163.33  4.8997619E-01
   7163.67  4.8209929E-01
   7164.00  4.7444678E-01
   7164.33  4.6702591E-01
   7164.67  4.5980195E-01
   7165.00  4.5277471E-01
   7165.33  4.4597540E-01
   7165.67  4.3938890E-01
   7166.00  4.3302634E-01
   7166.33  4.2693119E-01
   7166.67  4.2108689E-01
   7167.00  4.1550496E-01
   7167.33  4.1023132E-01
   7167.67  4.0523142E-01
   7168.00  4.0049879E-01
   7168.33  3.9606995E-01
   7168.67  3.9191987E-01
   7169.00  3.8805585E-01
   7169.33  3.8452127E-01
   7169.67  3.8128321E-01
   7170.00  3.7834211E-01
   7170.33  3.7573204E-01
   7170.67  3.7341007E-01
   7171.00  3.7136877E-01
   7171.33  3.6963534E-01
   7171.67  3.6817780E-01
   7172.00  3.6700739E-01
