    FDMNES
    energy     <xanes>
   7097.00  4.4499564E-03
   7097.33  4.5456882E-03
   7097.67  4.6453322E-03
   7098.00  4.7491329E-03
   7098.33  4.8579627E-03
   7098.67  4.9716104E-03
   7099.00  5.0904052E-03
   7099.33  5.2154689E-03
   7099.67  5.3465813E-03
   7100.00  5.4841972E-03
   7100.33  5.6297979E-03
   7100.67  5.7831688E-03
   7101.00  5.9449595E-03
   7101.33  6.1171882E-03
   7101.67  6.2996804E-03
   7102.00  6.4934005E-03
   7102.33  6.7012064E-03
   7102.67  6.9230414E-03
   7103.00  7.1604063E-03
   7103.33  7.4175457E-03
   7103.67  7.6947008E-03
   7104.00  7.9943468E-03
   7104.33  8.3231798E-03
   7104.67  8.6821763E-03
   7105.00  9.0757312E-03
   7105.33  9.5152638E-03
   7105.67  1.0003640E-02
   7106.00  1.0549455E-02
   7106.33  1.1174318E-02
   7106.67  1.1886420E-02
   7107.00  1.2704938E-02
   7107.33  1.3677195E-02
   7107.67  1.4828883E-02
   7108.00  1.6211831E-02
   7108.33  1.7954986E-02
   7108.67  2.0157962E-02
   7109.00  2.3009998E-02
   7109.33  2.7011883E-02
   7109.67  3.2731579E-02
   7110.00  4.1289821E-02
   7110.33  5.5970432E-02
   7110.67  8.0617493E-02
   7111.00  1.1601507E-01
   7111.33  1.3925426E-01
   7111.67  1.4224151E-01
   7112.00  1.4916625E-01
   7112.33  1.7963783E-01
   7112.67  2.3708115E-01
   7113.00  3.0057533E-01
   7113.33  2.8662294E-01
   7113.67  2.1392694E-01
   7114.00  1.4874611E-01
   7114.33  1.1138410E-01
   7114.67  8.9689760E-02
   7115.00  7.7425812E-02
   7115.33  7.1345459E-02
   7115.67  6.8838577E-02
   7116.00  6.9023872E-02
   7116.33  7.1433428E-02
   7116.67  7.5259957E-02
   7117.00  8.0441022E-02
   7117.33  8.7713441E-02
   7117.67  9.7298697E-02
   7118.00  1.0928142E-01
   7118.33  1.2379874E-01
   7118.67  1.4024129E-01
   7119.00  1.5819225E-01
   7119.33  1.7717523E-01
   7119.67  1.9650693E-01
   7120.00  2.1583184E-01
   7120.33  2.3488480E-01
   7120.67  2.5350177E-01
   7121.00  2.7136831E-01
   7121.33  2.8768360E-01
   7121.67  3.0191656E-01
   7122.00  3.1374288E-01
   7122.33  3.2320311E-01
   7122.67  3.3165650E-01
   7123.00  3.4050783E-01
   7123.33  3.5188225E-01
   7123.67  3.6723393E-01
   7124.00  3.8774822E-01
   7124.33  4.1499476E-01
   7124.67  4.4809503E-01
   7125.00  4.8574384E-01
   7125.33  5.2476709E-01
   7125.67  5.6005813E-01
   7126.00  5.8727274E-01
   7126.33  6.0117691E-01
   7126.67  6.0180286E-01
   7127.00  5.9042401E-01
   7127.33  5.7015259E-01
   7127.67  5.4704232E-01
   7128.00  5.2483358E-01
   7128.33  5.0704502E-01
   7128.67  4.9469259E-01
   7129.00  4.8798700E-01
   7129.33  4.8718707E-01
   7129.67  4.9115366E-01
   7130.00  4.9953104E-01
   7130.33  5.1231264E-01
   7130.67  5.2823861E-01
   7131.00  5.4634621E-01
   7131.33  5.6530241E-01
   7131.67  5.8347951E-01
   7132.00  5.9974870E-01
   7132.33  6.1301550E-01
   7132.67  6.2362781E-01
   7133.00  6.3212868E-01
   7133.33  6.3923675E-01
   7133.67  6.4581309E-01
   7134.00  6.5213817E-01
   7134.33  6.5808379E-01
   7134.67  6.6323359E-01
   7135.00  6.6703975E-01
   7135.33  6.6872111E-01
   7135.67  6.6830219E-01
   7136.00  6.6592186E-01
   7136.33  6.6184061E-01
   7136.67  6.5685048E-01
   7137.00  6.5147414E-01
   7137.33  6.4624993E-01
   7137.67  6.4154488E-01
   7138.00  6.3757393E-01
   7138.33  6.3457907E-01
   7138.67  6.3248568E-01
   7139.00  6.3126425E-01
   7139.33  6.3093259E-01
   7139.67  6.3127904E-01
   7140.00  6.3219310E-01
   7140.33  6.3359337E-01
   7140.67  6.3528735E-01
   7141.00  6.3715896E-01
   7141.33  6.3909245E-01
   7141.67  6.4097620E-01
   7142.00  6.4273513E-01
   7142.33  6.4427378E-01
   7142.67  6.4556135E-01
   7143.00  6.4656038E-01
   7143.33  6.4719395E-01
   7143.67  6.4746971E-01
   7144.00  6.4735952E-01
   7144.33  6.4678114E-01
   7144.67  6.4576719E-01
   7145.00  6.4430391E-01
   7145.33  6.4231677E-01
   7145.67  6.3985793E-01
   7146.00  6.3693417E-01
   7146.33  6.3351175E-01
   7146.67  6.2968058E-01
   7147.00  6.2547955E-01
   7147.33  6.2092406E-01
   7147.67  6.1611558E-01
   7148.00  6.1111014E-01
   7148.33  6.0595561E-01
   7148.67  6.0072861E-01
   7149.00  5.9547501E-01
   7149.33  5.9024130E-01
   7149.67  5.8505890E-01
   7150.00  5.7994794E-01
   7150.33  5.7493148E-01
   7150.67  5.7000047E-01
   7151.00  5.6514769E-01
   7151.33  5.6036436E-01
   7151.67  5.5562269E-01
   7152.00  5.5089882E-01
   7152.33  5.4614952E-01
   7152.67  5.4132989E-01
   7153.00  5.3640031E-01
   7153.33  5.3129136E-01
   7153.67  5.2596195E-01
   7154.00  5.2035540E-01
   7154.33  5.1435978E-01
   7154.67  5.0795038E-01
   7155.00  5.0107273E-01
   7155.33  4.9360585E-01
   7155.67  4.8557411E-01
   7156.00  4.7695843E-01
   7156.33  4.6768748E-01
   7156.67  4.5786649E-01
   7157.00  4.4755171E-01
   7157.33  4.3679399E-01
   7157.67  4.2577864E-01
   7158.00  4.1464736E-01
   7158.33  4.0359459E-01
   7158.67  3.9280895E-01
   7159.00  3.8245890E-01
   7159.33  3.7280243E-01
   7159.67  3.6391719E-01
   7160.00  3.5591015E-01
   7160.33  3.4899342E-01
   7160.67  3.4310021E-01
   7161.00  3.3824930E-01
   7161.33  3.3456164E-01
   7161.67  3.3187114E-01
   7162.00  3.3012726E-01
   7162.33  3.2936179E-01
   7162.67  3.2937440E-01
   7163.00  3.3007799E-01
   7163.33  3.3143739E-01
   7163.67  3.3326427E-01
   7164.00  3.3544611E-01
   7164.33  3.3788115E-01
   7164.67  3.4043649E-01
   7165.00  3.4303614E-01
   7165.33  3.4560230E-01
   7165.67  3.4808334E-01
   7166.00  3.5044796E-01
   7166.33  3.5266104E-01
   7166.67  3.5473830E-01
   7167.00  3.5668947E-01
   7167.33  3.5852074E-01
   7167.67  3.6026880E-01
   7168.00  3.6195350E-01
   7168.33  3.6359072E-01
   7168.67  3.6520355E-01
   7169.00  3.6680395E-01
   7169.33  3.6840091E-01
   7169.67  3.6999941E-01
   7170.00  3.7160006E-01
   7170.33  3.7319964E-01
   7170.67  3.7478907E-01
   7171.00  3.7635207E-01
   7171.33  3.7784338E-01
   7171.67  3.7919662E-01
   7172.00  3.8031029E-01
