    FDMNES
    energy     <xanes>
   7097.00  5.4435254E-03
   7097.33  5.5843106E-03
   7097.67  5.7320063E-03
   7098.00  5.8871116E-03
   7098.33  6.0512791E-03
   7098.67  6.2242255E-03
   7099.00  6.4066421E-03
   7099.33  6.6007284E-03
   7099.67  6.8062093E-03
   7100.00  7.0240705E-03
   7100.33  7.2573227E-03
   7100.67  7.5057447E-03
   7101.00  7.7707899E-03
   7101.33  8.0567196E-03
   7101.67  8.3634668E-03
   7102.00  8.6932613E-03
   7102.33  9.0523836E-03
   7102.67  9.4411436E-03
   7103.00  9.8631312E-03
   7103.33  1.0328073E-02
   7103.67  1.0837170E-02
   7104.00  1.1396556E-02
   7104.33  1.2022260E-02
   7104.67  1.2717633E-02
   7105.00  1.3493978E-02
   7105.33  1.4379906E-02
   7105.67  1.5384297E-02
   7106.00  1.6530141E-02
   7106.33  1.7874252E-02
   7106.67  1.9441314E-02
   7107.00  2.1284862E-02
   7107.33  2.3535877E-02
   7107.67  2.6272321E-02
   7108.00  2.9645885E-02
   7108.33  3.4033940E-02
   7108.67  3.9747004E-02
   7109.00  4.7368413E-02
   7109.33  5.8453415E-02
   7109.67  7.4838518E-02
   7110.00  1.0014461E-01
   7110.33  1.4488806E-01
   7110.67  2.2012690E-01
   7111.00  3.2552454E-01
   7111.33  4.0837458E-01
   7111.67  4.2558927E-01
   7112.00  4.0551671E-01
   7112.33  3.9991720E-01
   7112.67  4.1545701E-01
   7113.00  4.3591520E-01
   7113.33  4.4509778E-01
   7113.67  4.3021139E-01
   7114.00  3.8218882E-01
   7114.33  3.1262141E-01
   7114.67  2.4914387E-01
   7115.00  2.0087703E-01
   7115.33  1.6828966E-01
   7115.67  1.4558085E-01
   7116.00  1.3008368E-01
   7116.33  1.2019342E-01
   7116.67  1.1372671E-01
   7117.00  1.1005803E-01
   7117.33  1.0938804E-01
   7117.67  1.1124796E-01
   7118.00  1.1513006E-01
   7118.33  1.1998935E-01
   7118.67  1.2422827E-01
   7119.00  1.2706931E-01
   7119.33  1.2961484E-01
   7119.67  1.3391969E-01
   7120.00  1.4071843E-01
   7120.33  1.5057839E-01
   7120.67  1.6377653E-01
   7121.00  1.8109483E-01
   7121.33  2.0346411E-01
   7121.67  2.2936861E-01
   7122.00  2.5749242E-01
   7122.33  2.8734095E-01
   7122.67  3.1929428E-01
   7123.00  3.5370893E-01
   7123.33  3.9010596E-01
   7123.67  4.2668852E-01
   7124.00  4.6140992E-01
   7124.33  4.9138027E-01
   7124.67  5.1594643E-01
   7125.00  5.3469873E-01
   7125.33  5.4666117E-01
   7125.67  5.5402669E-01
   7126.00  5.6007809E-01
   7126.33  5.6979154E-01
   7126.67  5.8579466E-01
   7127.00  6.0884568E-01
   7127.33  6.3920461E-01
   7127.67  6.7505692E-01
   7128.00  7.1504266E-01
   7128.33  7.5508871E-01
   7128.67  7.8816302E-01
   7129.00  8.0834169E-01
   7129.33  8.1100739E-01
   7129.67  8.0044361E-01
   7130.00  7.7995278E-01
   7130.33  7.5179340E-01
   7130.67  7.1996444E-01
   7131.00  6.8786283E-01
   7131.33  6.5995062E-01
   7131.67  6.3860636E-01
   7132.00  6.2479675E-01
   7132.33  6.1873857E-01
   7132.67  6.1754552E-01
   7133.00  6.1898225E-01
   7133.33  6.2051819E-01
   7133.67  6.2034563E-01
   7134.00  6.1789703E-01
   7134.33  6.1320238E-01
   7134.67  6.0745555E-01
   7135.00  6.0171957E-01
   7135.33  5.9696284E-01
   7135.67  5.9319658E-01
   7136.00  5.9018890E-01
   7136.33  5.8779438E-01
   7136.67  5.8597144E-01
   7137.00  5.8488159E-01
   7137.33  5.8485796E-01
   7137.67  5.8595402E-01
   7138.00  5.8825227E-01
   7138.33  5.9181524E-01
   7138.67  5.9614554E-01
   7139.00  6.0069297E-01
   7139.33  6.0452351E-01
   7139.67  6.0690669E-01
   7140.00  6.0751240E-01
   7140.33  6.0639473E-01
   7140.67  6.0447390E-01
   7141.00  6.0238203E-01
   7141.33  6.0049986E-01
   7141.67  5.9867670E-01
   7142.00  5.9654028E-01
   7142.33  5.9345776E-01
   7142.67  5.8906959E-01
   7143.00  5.8309883E-01
   7143.33  5.7517760E-01
   7143.67  5.6556064E-01
   7144.00  5.5442495E-01
   7144.33  5.4197250E-01
   7144.67  5.2880288E-01
   7145.00  5.1534292E-01
   7145.33  5.0209791E-01
   7145.67  4.8944871E-01
   7146.00  4.7764436E-01
   7146.33  4.6696832E-01
   7146.67  4.5732425E-01
   7147.00  4.4865776E-01
   7147.33  4.4095513E-01
   7147.67  4.3396153E-01
   7148.00  4.2754959E-01
   7148.33  4.2163854E-01
   7148.67  4.1605615E-01
   7149.00  4.1072262E-01
   7149.33  4.0559613E-01
   7149.67  4.0061900E-01
   7150.00  3.9578547E-01
   7150.33  3.9114372E-01
   7150.67  3.8673486E-01
   7151.00  3.8263359E-01
   7151.33  3.7898615E-01
   7151.67  3.7582758E-01
   7152.00  3.7321002E-01
   7152.33  3.7123142E-01
   7152.67  3.6980980E-01
   7153.00  3.6890895E-01
   7153.33  3.6851991E-01
   7153.67  3.6850309E-01
   7154.00  3.6878007E-01
   7154.33  3.6928242E-01
   7154.67  3.6989627E-01
   7155.00  3.7055446E-01
   7155.33  3.7119213E-01
   7155.67  3.7176891E-01
   7156.00  3.7226460E-01
   7156.33  3.7266131E-01
   7156.67  3.7297537E-01
   7157.00  3.7321561E-01
   7157.33  3.7338361E-01
   7157.67  3.7349318E-01
   7158.00  3.7354598E-01
   7158.33  3.7353436E-01
   7158.67  3.7346545E-01
   7159.00  3.7334214E-01
   7159.33  3.7316588E-01
   7159.67  3.7295519E-01
   7160.00  3.7272797E-01
   7160.33  3.7251457E-01
   7160.67  3.7234421E-01
   7161.00  3.7224327E-01
   7161.33  3.7225363E-01
   7161.67  3.7238909E-01
   7162.00  3.7266830E-01
   7162.33  3.7312677E-01
   7162.67  3.7375310E-01
   7163.00  3.7454894E-01
   7163.33  3.7552739E-01
   7163.67  3.7665106E-01
   7164.00  3.7789801E-01
   7164.33  3.7925411E-01
   7164.67  3.8068050E-01
   7165.00  3.8215306E-01
   7165.33  3.8364585E-01
   7165.67  3.8513010E-01
   7166.00  3.8658672E-01
   7166.33  3.8799503E-01
   7166.67  3.8935369E-01
   7167.00  3.9066398E-01
   7167.33  3.9192996E-01
   7167.67  3.9317197E-01
   7168.00  3.9440670E-01
   7168.33  3.9565759E-01
   7168.67  3.9694454E-01
   7169.00  3.9828447E-01
   7169.33  3.9970232E-01
   7169.67  4.0120041E-01
   7170.00  4.0278263E-01
   7170.33  4.0445552E-01
   7170.67  4.0619362E-01
   7171.00  4.0796990E-01
   7171.33  4.0972380E-01
   7171.67  4.1135015E-01
   7172.00  4.1270829E-01
