    FDMNES
    energy     <xanes>
   7097.00  4.5991847E-03
   7097.33  4.7091165E-03
   7097.67  4.8242052E-03
   7098.00  4.9448203E-03
   7098.33  5.0721905E-03
   7098.67  5.2061021E-03
   7099.00  5.3470686E-03
   7099.33  5.4967275E-03
   7099.67  5.6548743E-03
   7100.00  5.8222450E-03
   7100.33  6.0010872E-03
   7100.67  6.1912428E-03
   7101.00  6.3938040E-03
   7101.33  6.6119667E-03
   7101.67  6.8457000E-03
   7102.00  7.0966932E-03
   7102.33  7.3696873E-03
   7102.67  7.6649586E-03
   7103.00  7.9852529E-03
   7103.33  8.3379762E-03
   7103.67  8.7241277E-03
   7104.00  9.1484509E-03
   7104.33  9.6232810E-03
   7104.67  1.0151363E-02
   7105.00  1.0741543E-02
   7105.33  1.1416114E-02
   7105.67  1.2182317E-02
   7106.00  1.3058370E-02
   7106.33  1.4089135E-02
   7106.67  1.5294734E-02
   7107.00  1.6718070E-02
   7107.33  1.8463881E-02
   7107.67  2.0595680E-02
   7108.00  2.3235978E-02
   7108.33  2.6689029E-02
   7108.67  3.1206628E-02
   7109.00  3.7259632E-02
   7109.33  4.6099620E-02
   7109.67  5.9196113E-02
   7110.00  7.9433092E-02
   7110.33  1.1513110E-01
   7110.67  1.7488043E-01
   7111.00  2.5901572E-01
   7111.33  3.3877634E-01
   7111.67  3.8618656E-01
   7112.00  3.9728634E-01
   7112.33  3.8346220E-01
   7112.67  3.3946149E-01
   7113.00  2.6990569E-01
   7113.33  2.0330601E-01
   7113.67  1.5301638E-01
   7114.00  1.1888676E-01
   7114.33  9.8785929E-02
   7114.67  8.7989054E-02
   7115.00  8.4501879E-02
   7115.33  8.5095319E-02
   7115.67  8.3486894E-02
   7116.00  7.7798190E-02
   7116.33  7.1122462E-02
   7116.67  6.6314398E-02
   7117.00  6.3795749E-02
   7117.33  6.3437284E-02
   7117.67  6.4649972E-02
   7118.00  6.7371638E-02
   7118.33  7.1718133E-02
   7118.67  7.6832696E-02
   7119.00  8.1256836E-02
   7119.33  8.3141513E-02
   7119.67  8.3969010E-02
   7120.00  8.5529066E-02
   7120.33  8.8063623E-02
   7120.67  9.0766080E-02
   7121.00  9.3827742E-02
   7121.33  9.8741346E-02
   7121.67  1.0672922E-01
   7122.00  1.1866624E-01
   7122.33  1.3548965E-01
   7122.67  1.5652666E-01
   7123.00  1.8199886E-01
   7123.33  2.1288026E-01
   7123.67  2.4746006E-01
   7124.00  2.8374873E-01
   7124.33  3.2023420E-01
   7124.67  3.5632888E-01
   7125.00  3.9013295E-01
   7125.33  4.1580945E-01
   7125.67  4.3187672E-01
   7126.00  4.4268658E-01
   7126.33  4.5637240E-01
   7126.67  4.7736450E-01
   7127.00  5.0695454E-01
   7127.33  5.4446603E-01
   7127.67  5.8283490E-01
   7128.00  6.1439783E-01
   7128.33  6.3156744E-01
   7128.67  6.3806799E-01
   7129.00  6.4200396E-01
   7129.33  6.5289838E-01
   7129.67  6.7132532E-01
   7130.00  6.9296314E-01
   7130.33  7.1109520E-01
   7130.67  7.2355579E-01
   7131.00  7.3138070E-01
   7131.33  7.3508710E-01
   7131.67  7.3368570E-01
   7132.00  7.2580910E-01
   7132.33  7.1206790E-01
   7132.67  6.9721556E-01
   7133.00  6.8557445E-01
   7133.33  6.8231151E-01
   7133.67  6.8853922E-01
   7134.00  7.0364284E-01
   7134.33  7.2431734E-01
   7134.67  7.4323034E-01
   7135.00  7.5515360E-01
   7135.33  7.5782445E-01
   7135.67  7.5571643E-01
   7136.00  7.5216370E-01
   7136.33  7.4911602E-01
   7136.67  7.4659168E-01
   7137.00  7.4409978E-01
   7137.33  7.4114076E-01
   7137.67  7.3764650E-01
   7138.00  7.3360714E-01
   7138.33  7.2877026E-01
   7138.67  7.2283271E-01
   7139.00  7.1535828E-01
   7139.33  7.0562290E-01
   7139.67  6.9354017E-01
   7140.00  6.7894224E-01
   7140.33  6.6155269E-01
   7140.67  6.4208923E-01
   7141.00  6.2124209E-01
   7141.33  6.0020807E-01
   7141.67  5.8031333E-01
   7142.00  5.6240318E-01
   7142.33  5.4732486E-01
   7142.67  5.3492612E-01
   7143.00  5.2517629E-01
   7143.33  5.1825034E-01
   7143.67  5.1364363E-01
   7144.00  5.1118557E-01
   7144.33  5.1093523E-01
   7144.67  5.1247223E-01
   7145.00  5.1563247E-01
   7145.33  5.2033019E-01
   7145.67  5.2602045E-01
   7146.00  5.3227845E-01
   7146.33  5.3853760E-01
   7146.67  5.4426741E-01
   7147.00  5.4914911E-01
   7147.33  5.5294529E-01
   7147.67  5.5595447E-01
   7148.00  5.5850110E-01
   7148.33  5.6102987E-01
   7148.67  5.6394159E-01
   7149.00  5.6746428E-01
   7149.33  5.7175778E-01
   7149.67  5.7657290E-01
   7150.00  5.8157745E-01
   7150.33  5.8614914E-01
   7150.67  5.8964564E-01
   7151.00  5.9148198E-01
   7151.33  5.9086024E-01
   7151.67  5.8780351E-01
   7152.00  5.8231547E-01
   7152.33  5.7432763E-01
   7152.67  5.6450035E-01
   7153.00  5.5323355E-01
   7153.33  5.4087775E-01
   7153.67  5.2798990E-01
   7154.00  5.1489250E-01
   7154.33  5.0189586E-01
   7154.67  4.8920156E-01
   7155.00  4.7692711E-01
   7155.33  4.6520576E-01
   7155.67  4.5399769E-01
   7156.00  4.4329763E-01
   7156.33  4.3314690E-01
   7156.67  4.2346162E-01
   7157.00  4.1422552E-01
   7157.33  4.0548025E-01
   7157.67  3.9716527E-01
   7158.00  3.8927905E-01
   7158.33  3.8187134E-01
   7158.67  3.7487801E-01
   7159.00  3.6827887E-01
   7159.33  3.6207582E-01
   7159.67  3.5616122E-01
   7160.00  3.5046605E-01
   7160.33  3.4491801E-01
   7160.67  3.3942322E-01
   7161.00  3.3394774E-01
   7161.33  3.2851201E-01
   7161.67  3.2318487E-01
   7162.00  3.1807427E-01
   7162.33  3.1339062E-01
   7162.67  3.0925054E-01
   7163.00  3.0576152E-01
   7163.33  3.0307496E-01
   7163.67  3.0109494E-01
   7164.00  2.9977235E-01
   7164.33  2.9909070E-01
   7164.67  2.9887710E-01
   7165.00  2.9904575E-01
   7165.33  2.9954576E-01
   7165.67  3.0027253E-01
   7166.00  3.0118668E-01
   7166.33  3.0228455E-01
   7166.67  3.0354124E-01
   7167.00  3.0496401E-01
   7167.33  3.0659182E-01
   7167.67  3.0842116E-01
   7168.00  3.1046742E-01
   7168.33  3.1277264E-01
   7168.67  3.1531389E-01
   7169.00  3.1808910E-01
   7169.33  3.2111473E-01
   7169.67  3.2434100E-01
   7170.00  3.2773928E-01
   7170.33  3.3127801E-01
   7170.67  3.3487706E-01
   7171.00  3.3846276E-01
   7171.33  3.4189574E-01
   7171.67  3.4499846E-01
   7172.00  3.4753401E-01
