    FDMNES
    energy     <xanes>
   7097.00  5.0367542E-03
   7097.33  5.1513785E-03
   7097.67  5.2709065E-03
   7098.00  5.3956462E-03
   7098.33  5.5266917E-03
   7098.67  5.6637768E-03
   7099.00  5.8073109E-03
   7099.33  5.9586923E-03
   7099.67  6.1176347E-03
   7100.00  6.2846941E-03
   7100.33  6.4616955E-03
   7100.67  6.6483429E-03
   7101.00  6.8454106E-03
   7101.33  7.0553399E-03
   7101.67  7.2778500E-03
   7102.00  7.5140512E-03
   7102.33  7.7673058E-03
   7102.67  8.0374039E-03
   7103.00  8.3259941E-03
   7103.33  8.6378715E-03
   7103.67  8.9730206E-03
   7104.00  9.3339946E-03
   7104.33  9.7279294E-03
   7104.67  1.0155284E-02
   7105.00  1.0620222E-02
   7105.33  1.1133948E-02
   7105.67  1.1698058E-02
   7106.00  1.2319813E-02
   7106.33  1.3018058E-02
   7106.67  1.3797244E-02
   7107.00  1.4671199E-02
   7107.33  1.5674745E-02
   7107.67  1.6820189E-02
   7108.00  1.8137370E-02
   7108.33  1.9700097E-02
   7108.67  2.1546149E-02
   7109.00  2.3753710E-02
   7109.33  2.6518122E-02
   7109.67  2.9987381E-02
   7110.00  3.4448502E-02
   7110.33  4.0671801E-02
   7110.67  4.9517884E-02
   7111.00  6.2474263E-02
   7111.33  8.2324747E-02
   7111.67  1.0811070E-01
   7112.00  1.3889882E-01
   7112.33  1.8103460E-01
   7112.67  2.2128621E-01
   7113.00  2.5163479E-01
   7113.33  2.9921050E-01
   7113.67  3.6643888E-01
   7114.00  4.3178064E-01
   7114.33  4.9584446E-01
   7114.67  5.5996523E-01
   7115.00  6.2212417E-01
   7115.33  6.2285344E-01
   7115.67  5.2611242E-01
   7116.00  4.0474109E-01
   7116.33  3.1867071E-01
   7116.67  2.6453485E-01
   7117.00  2.3322834E-01
   7117.33  2.1727513E-01
   7117.67  2.0634757E-01
   7118.00  1.9276054E-01
   7118.33  1.7128287E-01
   7118.67  1.4878106E-01
   7119.00  1.3190036E-01
   7119.33  1.2367034E-01
   7119.67  1.2163173E-01
   7120.00  1.2363715E-01
   7120.33  1.2730891E-01
   7120.67  1.3031908E-01
   7121.00  1.3322415E-01
   7121.33  1.3787014E-01
   7121.67  1.4396081E-01
   7122.00  1.5118297E-01
   7122.33  1.5972253E-01
   7122.67  1.6838337E-01
   7123.00  1.7760657E-01
   7123.33  1.9143678E-01
   7123.67  2.1247911E-01
   7124.00  2.4099368E-01
   7124.33  2.6960667E-01
   7124.67  2.8647221E-01
   7125.00  2.9078186E-01
   7125.33  2.8743299E-01
   7125.67  2.8106605E-01
   7126.00  2.7531209E-01
   7126.33  2.7223634E-01
   7126.67  2.7276484E-01
   7127.00  2.7899442E-01
   7127.33  2.9427069E-01
   7127.67  3.1832493E-01
   7128.00  3.4989073E-01
   7128.33  3.8621874E-01
   7128.67  4.2353446E-01
   7129.00  4.6105577E-01
   7129.33  4.9939892E-01
   7129.67  5.3721562E-01
   7130.00  5.7155660E-01
   7130.33  5.9858551E-01
   7130.67  6.1894458E-01
   7131.00  6.3481614E-01
   7131.33  6.4969923E-01
   7131.67  6.6710971E-01
   7132.00  6.8944293E-01
   7132.33  7.1969974E-01
   7132.67  7.5798571E-01
   7133.00  8.0366849E-01
   7133.33  8.5406165E-01
   7133.67  9.0253788E-01
   7134.00  9.4257477E-01
   7134.33  9.6649492E-01
   7134.67  9.7509921E-01
   7135.00  9.7138281E-01
   7135.33  9.5940828E-01
   7135.67  9.4381498E-01
   7136.00  9.2601866E-01
   7136.33  9.0595393E-01
   7136.67  8.8349776E-01
   7137.00  8.5837805E-01
   7137.33  8.3003726E-01
   7137.67  7.9866217E-01
   7138.00  7.6426718E-01
   7138.33  7.2713928E-01
   7138.67  6.8899815E-01
   7139.00  6.5155874E-01
   7139.33  6.1722221E-01
   7139.67  5.8723946E-01
   7140.00  5.6240556E-01
   7140.33  5.4368918E-01
   7140.67  5.3019201E-01
   7141.00  5.2147631E-01
   7141.33  5.1741008E-01
   7141.67  5.1679957E-01
   7142.00  5.1910690E-01
   7142.33  5.2408805E-01
   7142.67  5.3099131E-01
   7143.00  5.3946420E-01
   7143.33  5.4922643E-01
   7143.67  5.5964548E-01
   7144.00  5.7022316E-01
   7144.33  5.8023048E-01
   7144.67  5.8903433E-01
   7145.00  5.9609218E-01
   7145.33  6.0066631E-01
   7145.67  6.0282824E-01
   7146.00  6.0261724E-01
   7146.33  6.0001205E-01
   7146.67  5.9565084E-01
   7147.00  5.8988738E-01
   7147.33  5.8299180E-01
   7147.67  5.7543821E-01
   7148.00  5.6747916E-01
   7148.33  5.5933557E-01
   7148.67  5.5121861E-01
   7149.00  5.4325616E-01
   7149.33  5.3559311E-01
   7149.67  5.2827316E-01
   7150.00  5.2134601E-01
   7150.33  5.1492374E-01
   7150.67  5.0900809E-01
   7151.00  5.0364378E-01
   7151.33  4.9895097E-01
   7151.67  4.9489799E-01
   7152.00  4.9151492E-01
   7152.33  4.8891228E-01
   7152.67  4.8701813E-01
   7153.00  4.8583768E-01
   7153.33  4.8545410E-01
   7153.67  4.8575690E-01
   7154.00  4.8670932E-01
   7154.33  4.8831535E-01
   7154.67  4.9040484E-01
   7155.00  4.9287351E-01
   7155.33  4.9561426E-01
   7155.67  4.9845620E-01
   7156.00  5.0128860E-01
   7156.33  5.0399487E-01
   7156.67  5.0652535E-01
   7157.00  5.0885797E-01
   7157.33  5.1097606E-01
   7157.67  5.1293513E-01
   7158.00  5.1477229E-01
   7158.33  5.1651924E-01
   7158.67  5.1821297E-01
   7159.00  5.1985723E-01
   7159.33  5.2142144E-01
   7159.67  5.2286692E-01
   7160.00  5.2413728E-01
   7160.33  5.2512877E-01
   7160.67  5.2580745E-01
   7161.00  5.2613301E-01
   7161.33  5.2603705E-01
   7161.67  5.2557424E-01
   7162.00  5.2477139E-01
   7162.33  5.2363707E-01
   7162.67  5.2225694E-01
   7163.00  5.2066698E-01
   7163.33  5.1887402E-01
   7163.67  5.1691572E-01
   7164.00  5.1479569E-01
   7164.33  5.1249252E-01
   7164.67  5.1002540E-01
   7165.00  5.0739555E-01
   7165.33  5.0458357E-01
   7165.67  5.0161393E-01
   7166.00  4.9850182E-01
   7166.33  4.9525618E-01
   7166.67  4.9191599E-01
   7167.00  4.8850001E-01
   7167.33  4.8501814E-01
   7167.67  4.8149056E-01
   7168.00  4.7792609E-01
   7168.33  4.7432955E-01
   7168.67  4.7071216E-01
   7169.00  4.6708221E-01
   7169.33  4.6345473E-01
   7169.67  4.5985227E-01
   7170.00  4.5630195E-01
   7170.33  4.5285581E-01
   7170.67  4.4955332E-01
   7171.00  4.4644825E-01
   7171.33  4.4365324E-01
   7171.67  4.4123841E-01
   7172.00  4.3931290E-01
