    FDMNES
    energy     <xanes>
   7097.00  5.3673184E-03
   7097.33  5.5043569E-03
   7097.67  5.6481687E-03
   7098.00  5.7992478E-03
   7098.33  5.9592218E-03
   7098.67  6.1278189E-03
   7099.00  6.3057241E-03
   7099.33  6.4951069E-03
   7099.67  6.6957040E-03
   7100.00  6.9084918E-03
   7100.33  7.1364429E-03
   7100.67  7.3793462E-03
   7101.00  7.6386394E-03
   7101.33  7.9185294E-03
   7101.67  8.2189529E-03
   7102.00  8.5421088E-03
   7102.33  8.8941869E-03
   7102.67  9.2754811E-03
   7103.00  9.6895130E-03
   7103.33  1.0145829E-02
   7103.67  1.0645557E-02
   7104.00  1.1194662E-02
   7104.33  1.1808754E-02
   7104.67  1.2490945E-02
   7105.00  1.3252074E-02
   7105.33  1.4119636E-02
   7105.67  1.5101726E-02
   7106.00  1.6219927E-02
   7106.33  1.7527644E-02
   7106.67  1.9046758E-02
   7107.00  2.0825870E-02
   7107.33  2.2983706E-02
   7107.67  2.5586352E-02
   7108.00  2.8764310E-02
   7108.33  3.2839407E-02
   7108.67  3.8056465E-02
   7109.00  4.4875078E-02
   7109.33  5.4492315E-02
   7109.67  6.8201856E-02
   7110.00  8.8509265E-02
   7110.33  1.2254637E-01
   7110.67  1.7834748E-01
   7111.00  2.6232441E-01
   7111.33  3.7510069E-01
   7111.67  4.9010613E-01
   7112.00  5.5217195E-01
   7112.33  5.6532516E-01
   7112.67  5.6014626E-01
   7113.00  5.1321662E-01
   7113.33  4.1138131E-01
   7113.67  3.1126746E-01
   7114.00  2.4114876E-01
   7114.33  2.0368765E-01
   7114.67  1.8849385E-01
   7115.00  1.9316292E-01
   7115.33  2.1762289E-01
   7115.67  2.4453017E-01
   7116.00  2.4888178E-01
   7116.33  2.2436154E-01
   7116.67  1.9550412E-01
   7117.00  1.7212188E-01
   7117.33  1.5661945E-01
   7117.67  1.4654828E-01
   7118.00  1.4042315E-01
   7118.33  1.3735092E-01
   7118.67  1.3627119E-01
   7119.00  1.3645365E-01
   7119.33  1.3638650E-01
   7119.67  1.3502136E-01
   7120.00  1.3274561E-01
   7120.33  1.3077252E-01
   7120.67  1.2995298E-01
   7121.00  1.3064027E-01
   7121.33  1.3293535E-01
   7121.67  1.3578422E-01
   7122.00  1.3785398E-01
   7122.33  1.3817537E-01
   7122.67  1.3825277E-01
   7123.00  1.3975005E-01
   7123.33  1.4371277E-01
   7123.67  1.4927239E-01
   7124.00  1.5580603E-01
   7124.33  1.6415763E-01
   7124.67  1.7560650E-01
   7125.00  1.9088879E-01
   7125.33  2.1046268E-01
   7125.67  2.3303607E-01
   7126.00  2.5702285E-01
   7126.33  2.7933809E-01
   7126.67  2.9829547E-01
   7127.00  3.1515904E-01
   7127.33  3.3340191E-01
   7127.67  3.5528789E-01
   7128.00  3.8208542E-01
   7128.33  4.1590703E-01
   7128.67  4.5659922E-01
   7129.00  5.0349422E-01
   7129.33  5.5461390E-01
   7129.67  6.0557449E-01
   7130.00  6.5344348E-01
   7130.33  6.9653049E-01
   7130.67  7.3593275E-01
   7131.00  7.7212583E-01
   7131.33  8.0419246E-01
   7131.67  8.3114947E-01
   7132.00  8.5157627E-01
   7132.33  8.6353132E-01
   7132.67  8.6827562E-01
   7133.00  8.6706587E-01
   7133.33  8.6097132E-01
   7133.67  8.5124366E-01
   7134.00  8.3777413E-01
   7134.33  8.2004752E-01
   7134.67  7.9911909E-01
   7135.00  7.7580885E-01
   7135.33  7.5104885E-01
   7135.67  7.2625285E-01
   7136.00  7.0254869E-01
   7136.33  6.8139983E-01
   7136.67  6.6343949E-01
   7137.00  6.4922082E-01
   7137.33  6.3961640E-01
   7137.67  6.3413891E-01
   7138.00  6.3251916E-01
   7138.33  6.3450500E-01
   7138.67  6.3874074E-01
   7139.00  6.4426334E-01
   7139.33  6.4996171E-01
   7139.67  6.5485105E-01
   7140.00  6.5835356E-01
   7140.33  6.5995174E-01
   7140.67  6.5991741E-01
   7141.00  6.5851407E-01
   7141.33  6.5605631E-01
   7141.67  6.5309787E-01
   7142.00  6.4994310E-01
   7142.33  6.4683745E-01
   7142.67  6.4390245E-01
   7143.00  6.4118014E-01
   7143.33  6.3869759E-01
   7143.67  6.3639990E-01
   7144.00  6.3425135E-01
   7144.33  6.3221638E-01
   7144.67  6.3023444E-01
   7145.00  6.2826836E-01
   7145.33  6.2627824E-01
   7145.67  6.2423647E-01
   7146.00  6.2212171E-01
   7146.33  6.1990020E-01
   7146.67  6.1756305E-01
   7147.00  6.1509268E-01
   7147.33  6.1245229E-01
   7147.67  6.0965149E-01
   7148.00  6.0668697E-01
   7148.33  6.0354048E-01
   7148.67  6.0024485E-01
   7149.00  5.9682090E-01
   7149.33  5.9329257E-01
   7149.67  5.8971478E-01
   7150.00  5.8612837E-01
   7150.33  5.8258495E-01
   7150.67  5.7912048E-01
   7151.00  5.7576241E-01
   7151.33  5.7254766E-01
   7151.67  5.6946962E-01
   7152.00  5.6652867E-01
   7152.33  5.6373501E-01
   7152.67  5.6106290E-01
   7153.00  5.5850431E-01
   7153.33  5.5606513E-01
   7153.67  5.5372871E-01
   7154.00  5.5149570E-01
   7154.33  5.4938339E-01
   7154.67  5.4738487E-01
   7155.00  5.4550672E-01
   7155.33  5.4377110E-01
   7155.67  5.4216478E-01
   7156.00  5.4068552E-01
   7156.33  5.3933742E-01
   7156.67  5.3808510E-01
   7157.00  5.3690102E-01
   7157.33  5.3574569E-01
   7157.67  5.3456432E-01
   7158.00  5.3330367E-01
   7158.33  5.3187500E-01
   7158.67  5.3022367E-01
   7159.00  5.2828849E-01
   7159.33  5.2596181E-01
   7159.67  5.2323602E-01
   7160.00  5.2008055E-01
   7160.33  5.1642137E-01
   7160.67  5.1231820E-01
   7161.00  5.0779189E-01
   7161.33  5.0283285E-01
   7161.67  4.9753971E-01
   7162.00  4.9196242E-01
   7162.33  4.8613629E-01
   7162.67  4.8015675E-01
   7163.00  4.7408327E-01
   7163.33  4.6798085E-01
   7163.67  4.6191852E-01
   7164.00  4.5594887E-01
   7164.33  4.5014451E-01
   7164.67  4.4453627E-01
   7165.00  4.3916352E-01
   7165.33  4.3410244E-01
   7165.67  4.2935415E-01
   7166.00  4.2494472E-01
   7166.33  4.2094398E-01
   7166.67  4.1732351E-01
   7167.00  4.1409261E-01
   7167.33  4.1130783E-01
   7167.67  4.0892226E-01
   7168.00  4.0693074E-01
   7168.33  4.0536648E-01
   7168.67  4.0416415E-01
   7169.00  4.0330503E-01
   7169.33  4.0280182E-01
   7169.67  4.0258321E-01
   7170.00  4.0261883E-01
   7170.33  4.0289647E-01
   7170.67  4.0334485E-01
   7171.00  4.0391999E-01
   7171.33  4.0456736E-01
   7171.67  4.0519478E-01
   7172.00  4.0570979E-01
