    FDMNES
    energy     <xanes>
   7097.00  5.3852062E-03
   7097.33  5.5252222E-03
   7097.67  5.6722358E-03
   7098.00  5.8267584E-03
   7098.33  5.9904731E-03
   7098.67  6.1630999E-03
   7099.00  6.3453471E-03
   7099.33  6.5394568E-03
   7099.67  6.7451561E-03
   7100.00  6.9634525E-03
   7100.33  7.1974143E-03
   7100.67  7.4468188E-03
   7101.00  7.7131452E-03
   7101.33  8.0007267E-03
   7101.67  8.3094854E-03
   7102.00  8.6416749E-03
   7102.33  9.0036500E-03
   7102.67  9.3956843E-03
   7103.00  9.8213680E-03
   7103.33  1.0290457E-02
   7103.67  1.0804045E-02
   7104.00  1.1368172E-02
   7104.33  1.1998691E-02
   7104.67  1.2698635E-02
   7105.00  1.3478894E-02
   7105.33  1.4367157E-02
   7105.67  1.5371309E-02
   7106.00  1.6512816E-02
   7106.33  1.7844916E-02
   7106.67  1.9388829E-02
   7107.00  2.1192372E-02
   7107.33  2.3372550E-02
   7107.67  2.5993235E-02
   7108.00  2.9181679E-02
   7108.33  3.3252238E-02
   7108.67  3.8442597E-02
   7109.00  4.5201912E-02
   7109.33  5.4707106E-02
   7109.67  6.8249564E-02
   7110.00  8.8349321E-02
   7110.33  1.2211746E-01
   7110.67  1.7609349E-01
   7111.00  2.4853379E-01
   7111.33  3.2274226E-01
   7111.67  4.0609211E-01
   7112.00  4.9798333E-01
   7112.33  5.9693421E-01
   7112.67  6.8059601E-01
   7113.00  6.7899680E-01
   7113.33  6.0113497E-01
   7113.67  4.8884586E-01
   7114.00  3.6405612E-01
   7114.33  2.7121630E-01
   7114.67  2.1211422E-01
   7115.00  1.7839024E-01
   7115.33  1.6532458E-01
   7115.67  1.6823587E-01
   7116.00  1.8587533E-01
   7116.33  2.0910750E-01
   7116.67  2.1841107E-01
   7117.00  2.0906659E-01
   7117.33  1.8850867E-01
   7117.67  1.6699618E-01
   7118.00  1.4903263E-01
   7118.33  1.3657881E-01
   7118.67  1.2845885E-01
   7119.00  1.2364213E-01
   7119.33  1.2107134E-01
   7119.67  1.1980049E-01
   7120.00  1.1946063E-01
   7120.33  1.1983341E-01
   7120.67  1.2066939E-01
   7121.00  1.2126747E-01
   7121.33  1.2043725E-01
   7121.67  1.1853273E-01
   7122.00  1.1657084E-01
   7122.33  1.1539274E-01
   7122.67  1.1513154E-01
   7123.00  1.1610538E-01
   7123.33  1.1912265E-01
   7123.67  1.2423898E-01
   7124.00  1.3134438E-01
   7124.33  1.4047014E-01
   7124.67  1.5122607E-01
   7125.00  1.6334052E-01
   7125.33  1.7682492E-01
   7125.67  1.9201418E-01
   7126.00  2.0961351E-01
   7126.33  2.3071600E-01
   7126.67  2.5505926E-01
   7127.00  2.8199649E-01
   7127.33  3.1017125E-01
   7127.67  3.3792967E-01
   7128.00  3.6467596E-01
   7128.33  3.9050773E-01
   7128.67  4.1603404E-01
   7129.00  4.4166233E-01
   7129.33  4.6806921E-01
   7129.67  4.9650536E-01
   7130.00  5.2899393E-01
   7130.33  5.6785098E-01
   7130.67  6.1197976E-01
   7131.00  6.5976741E-01
   7131.33  7.0819408E-01
   7131.67  7.5339513E-01
   7132.00  7.9266643E-01
   7132.33  8.2372352E-01
   7132.67  8.4784980E-01
   7133.00  8.6596223E-01
   7133.33  8.7848613E-01
   7133.67  8.8687058E-01
   7134.00  8.9157828E-01
   7134.33  8.9226804E-01
   7134.67  8.8908515E-01
   7135.00  8.8161004E-01
   7135.33  8.6843403E-01
   7135.67  8.4894952E-01
   7136.00  8.2224223E-01
   7136.33  7.8788553E-01
   7136.67  7.4923249E-01
   7137.00  7.0935092E-01
   7137.33  6.7183622E-01
   7137.67  6.3878510E-01
   7138.00  6.1137966E-01
   7138.33  5.9097045E-01
   7138.67  5.7664560E-01
   7139.00  5.6779603E-01
   7139.33  5.6379632E-01
   7139.67  5.6272955E-01
   7140.00  5.6353137E-01
   7140.33  5.6549473E-01
   7140.67  5.6813956E-01
   7141.00  5.7144820E-01
   7141.33  5.7564321E-01
   7141.67  5.8075273E-01
   7142.00  5.8681288E-01
   7142.33  5.9386580E-01
   7142.67  6.0163490E-01
   7143.00  6.0992213E-01
   7143.33  6.1849236E-01
   7143.67  6.2703331E-01
   7144.00  6.3530460E-01
   7144.33  6.4296494E-01
   7144.67  6.4981709E-01
   7145.00  6.5564431E-01
   7145.33  6.6006522E-01
   7145.67  6.6306211E-01
   7146.00  6.6454190E-01
   7146.33  6.6427630E-01
   7146.67  6.6249966E-01
   7147.00  6.5929577E-01
   7147.33  6.5464486E-01
   7147.67  6.4887969E-01
   7148.00  6.4215933E-01
   7148.33  6.3457984E-01
   7148.67  6.2643269E-01
   7149.00  6.1789281E-01
   7149.33  6.0913494E-01
   7149.67  6.0034417E-01
   7150.00  5.9162342E-01
   7150.33  5.8309858E-01
   7150.67  5.7484802E-01
   7151.00  5.6695038E-01
   7151.33  5.5953430E-01
   7151.67  5.5260593E-01
   7152.00  5.4620580E-01
   7152.33  5.4043800E-01
   7152.67  5.3525185E-01
   7153.00  5.3065347E-01
   7153.33  5.2671102E-01
   7153.67  5.2333720E-01
   7154.00  5.2051435E-01
   7154.33  5.1828500E-01
   7154.67  5.1656189E-01
   7155.00  5.1533180E-01
   7155.33  5.1464900E-01
   7155.67  5.1445808E-01
   7156.00  5.1477316E-01
   7156.33  5.1568510E-01
   7156.67  5.1715611E-01
   7157.00  5.1920951E-01
   7157.33  5.2193999E-01
   7157.67  5.2527424E-01
   7158.00  5.2919110E-01
   7158.33  5.3369969E-01
   7158.67  5.3864210E-01
   7159.00  5.4391013E-01
   7159.33  5.4936748E-01
   7159.67  5.5480775E-01
   7160.00  5.6005620E-01
   7160.33  5.6484891E-01
   7160.67  5.6902605E-01
   7161.00  5.7241782E-01
   7161.33  5.7472184E-01
   7161.67  5.7590708E-01
   7162.00  5.7587845E-01
   7162.33  5.7441100E-01
   7162.67  5.7164844E-01
   7163.00  5.6761644E-01
   7163.33  5.6224050E-01
   7163.67  5.5578891E-01
   7164.00  5.4839286E-01
   7164.33  5.4013247E-01
   7164.67  5.3129303E-01
   7165.00  5.2203741E-01
   7165.33  5.1251473E-01
   7165.67  5.0291465E-01
   7166.00  4.9335602E-01
   7166.33  4.8397402E-01
   7166.67  4.7484211E-01
   7167.00  4.6602218E-01
   7167.33  4.5761250E-01
   7167.67  4.4960679E-01
   7168.00  4.4203302E-01
   7168.33  4.3497191E-01
   7168.67  4.2837866E-01
   7169.00  4.2225696E-01
   7169.33  4.1666444E-01
   7169.67  4.1153960E-01
   7170.00  4.0688030E-01
   7170.33  4.0273927E-01
   7170.67  3.9905231E-01
   7171.00  3.9581487E-01
   7171.33  3.9308298E-01
   7171.67  3.9081284E-01
   7172.00  3.8902437E-01
