    FDMNES
    energy     <xanes>
   7097.00  4.9007887E-03
   7097.33  5.0135049E-03
   7097.67  5.1312455E-03
   7098.00  5.2543488E-03
   7098.33  5.3839756E-03
   7098.67  5.5198869E-03
   7099.00  5.6625443E-03
   7099.33  5.8134659E-03
   7099.67  5.9724083E-03
   7100.00  6.1400191E-03
   7100.33  6.3183371E-03
   7100.67  6.5071394E-03
   7101.00  6.7073634E-03
   7101.33  6.9218368E-03
   7101.67  7.1504117E-03
   7102.00  7.3944985E-03
   7102.33  7.6581730E-03
   7102.67  7.9414846E-03
   7103.00  8.2466568E-03
   7103.33  8.5798490E-03
   7103.67  8.9415905E-03
   7104.00  9.3355934E-03
   7104.33  9.7717390E-03
   7104.67  1.0251723E-02
   7105.00  1.0782213E-02
   7105.33  1.1380336E-02
   7105.67  1.2050772E-02
   7106.00  1.2806718E-02
   7106.33  1.3681109E-02
   7106.67  1.4687074E-02
   7107.00  1.5854458E-02
   7107.33  1.7256671E-02
   7107.67  1.8934976E-02
   7108.00  2.0971554E-02
   7108.33  2.3571148E-02
   7108.67  2.6896872E-02
   7109.00  3.1258150E-02
   7109.33  3.7480736E-02
   7109.67  4.6531532E-02
   7110.00  6.0320563E-02
   7110.33  8.4282133E-02
   7110.67  1.2284310E-01
   7111.00  1.7071643E-01
   7111.33  2.0442540E-01
   7111.67  2.2698088E-01
   7112.00  2.4664231E-01
   7112.33  2.7056204E-01
   7112.67  2.9899029E-01
   7113.00  3.2974145E-01
   7113.33  3.2727816E-01
   7113.67  2.8378785E-01
   7114.00  2.3654128E-01
   7114.33  2.1608114E-01
   7114.67  2.2045714E-01
   7115.00  2.4041777E-01
   7115.33  2.5466924E-01
   7115.67  2.5094879E-01
   7116.00  2.3560783E-01
   7116.33  2.1629208E-01
   7116.67  1.9559458E-01
   7117.00  1.7640825E-01
   7117.33  1.6222067E-01
   7117.67  1.5288652E-01
   7118.00  1.4746586E-01
   7118.33  1.4481968E-01
   7118.67  1.4369514E-01
   7119.00  1.4392716E-01
   7119.33  1.4576233E-01
   7119.67  1.4862130E-01
   7120.00  1.5152455E-01
   7120.33  1.5275522E-01
   7120.67  1.5161426E-01
   7121.00  1.4867927E-01
   7121.33  1.4571392E-01
   7121.67  1.4433790E-01
   7122.00  1.4534517E-01
   7122.33  1.4942620E-01
   7122.67  1.5620722E-01
   7123.00  1.6553734E-01
   7123.33  1.7753741E-01
   7123.67  1.9179161E-01
   7124.00  2.0824110E-01
   7124.33  2.2710578E-01
   7124.67  2.4803252E-01
   7125.00  2.7083836E-01
   7125.33  2.9516486E-01
   7125.67  3.1965849E-01
   7126.00  3.4263585E-01
   7126.33  3.6143148E-01
   7126.67  3.7569547E-01
   7127.00  3.8717517E-01
   7127.33  4.0040726E-01
   7127.67  4.1922130E-01
   7128.00  4.4504732E-01
   7128.33  4.7773811E-01
   7128.67  5.1387919E-01
   7129.00  5.5093230E-01
   7129.33  5.8681271E-01
   7129.67  6.2159703E-01
   7130.00  6.5638419E-01
   7130.33  6.9258725E-01
   7130.67  7.3045888E-01
   7131.00  7.6973589E-01
   7131.33  8.0956687E-01
   7131.67  8.4805694E-01
   7132.00  8.8286243E-01
   7132.33  9.1024563E-01
   7132.67  9.2903722E-01
   7133.00  9.3871089E-01
   7133.33  9.3856599E-01
   7133.67  9.3045792E-01
   7134.00  9.1506010E-01
   7134.33  8.9238986E-01
   7134.67  8.6416700E-01
   7135.00  8.3129966E-01
   7135.33  7.9480228E-01
   7135.67  7.5696227E-01
   7136.00  7.1951020E-01
   7136.33  6.8437604E-01
   7136.67  6.5240410E-01
   7137.00  6.2416957E-01
   7137.33  6.0062467E-01
   7137.67  5.8153584E-01
   7138.00  5.6703172E-01
   7138.33  5.5759118E-01
   7138.67  5.5221167E-01
   7139.00  5.5021941E-01
   7139.33  5.5090760E-01
   7139.67  5.5296866E-01
   7140.00  5.5570898E-01
   7140.33  5.5864800E-01
   7140.67  5.6156365E-01
   7141.00  5.6444515E-01
   7141.33  5.6736185E-01
   7141.67  5.7037686E-01
   7142.00  5.7351355E-01
   7142.33  5.7676165E-01
   7142.67  5.8004111E-01
   7143.00  5.8327151E-01
   7143.33  5.8633274E-01
   7143.67  5.8914999E-01
   7144.00  5.9165809E-01
   7144.33  5.9376039E-01
   7144.67  5.9547925E-01
   7145.00  5.9681740E-01
   7145.33  5.9775149E-01
   7145.67  5.9835101E-01
   7146.00  5.9863612E-01
   7146.33  5.9860089E-01
   7146.67  5.9831582E-01
   7147.00  5.9781133E-01
   7147.33  5.9709695E-01
   7147.67  5.9622439E-01
   7148.00  5.9521385E-01
   7148.33  5.9406885E-01
   7148.67  5.9281745E-01
   7149.00  5.9146704E-01
   7149.33  5.9000963E-01
   7149.67  5.8845465E-01
   7150.00  5.8679878E-01
   7150.33  5.8502679E-01
   7150.67  5.8314812E-01
   7151.00  5.8115721E-01
   7151.33  5.7902797E-01
   7151.67  5.7676049E-01
   7152.00  5.7433802E-01
   7152.33  5.7171455E-01
   7152.67  5.6888641E-01
   7153.00  5.6583201E-01
   7153.33  5.6250308E-01
   7153.67  5.5892712E-01
   7154.00  5.5511572E-01
   7154.33  5.5107488E-01
   7154.67  5.4688029E-01
   7155.00  5.4258703E-01
   7155.33  5.3826174E-01
   7155.67  5.3397385E-01
   7156.00  5.2976809E-01
   7156.33  5.2568983E-01
   7156.67  5.2173186E-01
   7157.00  5.1788488E-01
   7157.33  5.1413874E-01
   7157.67  5.1045842E-01
   7158.00  5.0682792E-01
   7158.33  5.0323827E-01
   7158.67  4.9967847E-01
   7159.00  4.9614869E-01
   7159.33  4.9265692E-01
   7159.67  4.8920405E-01
   7160.00  4.8579526E-01
   7160.33  4.8244376E-01
   7160.67  4.7914844E-01
   7161.00  4.7591298E-01
   7161.33  4.7275122E-01
   7161.67  4.6965984E-01
   7162.00  4.6663880E-01
   7162.33  4.6369917E-01
   7162.67  4.6083997E-01
   7163.00  4.5806958E-01
   7163.33  4.5540916E-01
   7163.67  4.5285439E-01
   7164.00  4.5041119E-01
   7164.33  4.4809937E-01
   7164.67  4.4590838E-01
   7165.00  4.4384078E-01
   7165.33  4.4191303E-01
   7165.67  4.4010840E-01
   7166.00  4.3842419E-01
   7166.33  4.3686812E-01
   7166.67  4.3541500E-01
   7167.00  4.3405541E-01
   7167.33  4.3279107E-01
   7167.67  4.3160468E-01
   7168.00  4.3049345E-01
   7168.33  4.2946345E-01
   7168.67  4.2850200E-01
   7169.00  4.2760559E-01
   7169.33  4.2677909E-01
   7169.67  4.2601362E-01
   7170.00  4.2530982E-01
   7170.33  4.2467808E-01
   7170.67  4.2411373E-01
   7171.00  4.2361975E-01
   7171.33  4.2320789E-01
   7171.67  4.2286964E-01
   7172.00  4.2260217E-01
