    FDMNES
    energy     <xanes>
   7097.00  5.6411887E-03
   7097.33  5.7909872E-03
   7097.67  5.9482772E-03
   7098.00  6.1135974E-03
   7098.33  6.2887340E-03
   7098.67  6.4733733E-03
   7099.00  6.6682553E-03
   7099.33  6.8757432E-03
   7099.67  7.0955211E-03
   7100.00  7.3286311E-03
   7100.33  7.5782783E-03
   7100.67  7.8441821E-03
   7101.00  8.1278527E-03
   7101.33  8.4337644E-03
   7101.67  8.7617530E-03
   7102.00  9.1140825E-03
   7102.33  9.4972154E-03
   7102.67  9.9112800E-03
   7103.00  1.0359808E-02
   7103.33  1.0852524E-02
   7103.67  1.1390235E-02
   7104.00  1.1978726E-02
   7104.33  1.2633371E-02
   7104.67  1.3356552E-02
   7105.00  1.4158317E-02
   7105.33  1.5064531E-02
   7105.67  1.6081340E-02
   7106.00  1.7227551E-02
   7106.33  1.8550261E-02
   7106.67  2.0065249E-02
   7107.00  2.1811326E-02
   7107.33  2.3883720E-02
   7107.67  2.6325692E-02
   7108.00  2.9228678E-02
   7108.33  3.2815486E-02
   7108.67  3.7221822E-02
   7109.00  4.2708803E-02
   7109.33  4.9925074E-02
   7109.67  5.9410306E-02
   7110.00  7.2175379E-02
   7110.33  9.0904371E-02
   7110.67  1.1859868E-01
   7111.00  1.6044033E-01
   7111.33  2.2965801E-01
   7111.67  3.4249407E-01
   7112.00  5.2179892E-01
   7112.33  7.5873460E-01
   7112.67  9.2022368E-01
   7113.00  9.3419673E-01
   7113.33  8.0697039E-01
   7113.67  6.2944399E-01
   7114.00  4.7256875E-01
   7114.33  3.6619561E-01
   7114.67  2.9416684E-01
   7115.00  2.4483843E-01
   7115.33  2.1206051E-01
   7115.67  1.9052107E-01
   7116.00  1.7848737E-01
   7116.33  1.7506666E-01
   7116.67  1.7700754E-01
   7117.00  1.8179871E-01
   7117.33  1.8689244E-01
   7117.67  1.9099697E-01
   7118.00  1.9378115E-01
   7118.33  1.9443792E-01
   7118.67  1.9307432E-01
   7119.00  1.9077874E-01
   7119.33  1.8821729E-01
   7119.67  1.8494186E-01
   7120.00  1.8066764E-01
   7120.33  1.7607054E-01
   7120.67  1.7296648E-01
   7121.00  1.7256500E-01
   7121.33  1.7532031E-01
   7121.67  1.8040521E-01
   7122.00  1.8740284E-01
   7122.33  1.9548052E-01
   7122.67  2.0277344E-01
   7123.00  2.0779231E-01
   7123.33  2.0942585E-01
   7123.67  2.0847096E-01
   7124.00  2.0605770E-01
   7124.33  2.0388300E-01
   7124.67  2.0316341E-01
   7125.00  2.0431607E-01
   7125.33  2.0753230E-01
   7125.67  2.1244175E-01
   7126.00  2.1900809E-01
   7126.33  2.2747394E-01
   7126.67  2.3776267E-01
   7127.00  2.5010349E-01
   7127.33  2.6511517E-01
   7127.67  2.8277098E-01
   7128.00  3.0326814E-01
   7128.33  3.2721946E-01
   7128.67  3.5433254E-01
   7129.00  3.8438036E-01
   7129.33  4.1682443E-01
   7129.67  4.4993916E-01
   7130.00  4.8242256E-01
   7130.33  5.1328295E-01
   7130.67  5.4249540E-01
   7131.00  5.6975901E-01
   7131.33  5.9385549E-01
   7131.67  6.1434002E-01
   7132.00  6.3145477E-01
   7132.33  6.4665261E-01
   7132.67  6.6245603E-01
   7133.00  6.8050669E-01
   7133.33  7.0205691E-01
   7133.67  7.2601192E-01
   7134.00  7.5028078E-01
   7134.33  7.7047091E-01
   7134.67  7.8249242E-01
   7135.00  7.8318210E-01
   7135.33  7.6957774E-01
   7135.67  7.4487833E-01
   7136.00  7.1214413E-01
   7136.33  6.7489742E-01
   7136.67  6.3710896E-01
   7137.00  6.0105395E-01
   7137.33  5.6904283E-01
   7137.67  5.4164671E-01
   7138.00  5.1910485E-01
   7138.33  5.0175274E-01
   7138.67  4.8856478E-01
   7139.00  4.7918816E-01
   7139.33  4.7374001E-01
   7139.67  4.7153891E-01
   7140.00  4.7241322E-01
   7140.33  4.7655259E-01
   7140.67  4.8342074E-01
   7141.00  4.9283263E-01
   7141.33  5.0477342E-01
   7141.67  5.1857359E-01
   7142.00  5.3384666E-01
   7142.33  5.5024360E-01
   7142.67  5.6717006E-01
   7143.00  5.8424047E-01
   7143.33  6.0099968E-01
   7143.67  6.1710055E-01
   7144.00  6.3226057E-01
   7144.33  6.4608249E-01
   7144.67  6.5857005E-01
   7145.00  6.6967228E-01
   7145.33  6.7922719E-01
   7145.67  6.8747396E-01
   7146.00  6.9449809E-01
   7146.33  7.0027592E-01
   7146.67  7.0506694E-01
   7147.00  7.0897739E-01
   7147.33  7.1204062E-01
   7147.67  7.1448253E-01
   7148.00  7.1641899E-01
   7148.33  7.1794160E-01
   7148.67  7.1923374E-01
   7149.00  7.2040949E-01
   7149.33  7.2159358E-01
   7149.67  7.2289256E-01
   7150.00  7.2437896E-01
   7150.33  7.2614707E-01
   7150.67  7.2821423E-01
   7151.00  7.3059049E-01
   7151.33  7.3326988E-01
   7151.67  7.3613675E-01
   7152.00  7.3908890E-01
   7152.33  7.4196037E-01
   7152.67  7.4456976E-01
   7153.00  7.4673802E-01
   7153.33  7.4817344E-01
   7153.67  7.4876462E-01
   7154.00  7.4837502E-01
   7154.33  7.4675733E-01
   7154.67  7.4399455E-01
   7155.00  7.4008234E-01
   7155.33  7.3491612E-01
   7155.67  7.2869815E-01
   7156.00  7.2148909E-01
   7156.33  7.1324009E-01
   7156.67  7.0412835E-01
   7157.00  6.9420718E-01
   7157.33  6.8345422E-01
   7157.67  6.7204946E-01
   7158.00  6.6008692E-01
   7158.33  6.4764307E-01
   7158.67  6.3491654E-01
   7159.00  6.2203574E-01
   7159.33  6.0914259E-01
   7159.67  5.9636896E-01
   7160.00  5.8381497E-01
   7160.33  5.7162301E-01
   7160.67  5.5983697E-01
   7161.00  5.4851527E-01
   7161.33  5.3777792E-01
   7161.67  5.2760118E-01
   7162.00  5.1800699E-01
   7162.33  5.0908236E-01
   7162.67  5.0075609E-01
   7163.00  4.9302441E-01
   7163.33  4.8594681E-01
   7163.67  4.7942940E-01
   7164.00  4.7344853E-01
   7164.33  4.6803273E-01
   7164.67  4.6307832E-01
   7165.00  4.5854512E-01
   7165.33  4.5442610E-01
   7165.67  4.5061617E-01
   7166.00  4.4706131E-01
   7166.33  4.4371935E-01
   7166.67  4.4049894E-01
   7167.00  4.3734301E-01
   7167.33  4.3418854E-01
   7167.67  4.3097728E-01
   7168.00  4.2766355E-01
   7168.33  4.2418040E-01
   7168.67  4.2051094E-01
   7169.00  4.1663893E-01
   7169.33  4.1253622E-01
   7169.67  4.0824166E-01
   7170.00  4.0377785E-01
   7170.33  3.9916849E-01
   7170.67  3.9449016E-01
   7171.00  3.8982032E-01
   7171.33  3.8532034E-01
   7171.67  3.8121435E-01
   7172.00  3.7780866E-01
