    FDMNES
    energy     <xanes>
   7097.00  5.3414743E-03
   7097.33  5.4736885E-03
   7097.67  5.6122329E-03
   7098.00  5.7575620E-03
   7098.33  5.9111858E-03
   7098.67  6.0728427E-03
   7099.00  6.2431641E-03
   7099.33  6.4241610E-03
   7099.67  6.6155823E-03
   7100.00  6.8183315E-03
   7100.33  7.0351671E-03
   7100.67  7.2658932E-03
   7101.00  7.5118483E-03
   7101.33  7.7769513E-03
   7101.67  8.0611594E-03
   7102.00  8.3665402E-03
   7102.33  8.6989005E-03
   7102.67  9.0585695E-03
   7103.00  9.4489036E-03
   7103.33  9.8789628E-03
   7103.67  1.0349954E-02
   7104.00  1.0867670E-02
   7104.33  1.1447182E-02
   7104.67  1.2091820E-02
   7105.00  1.2812375E-02
   7105.33  1.3636054E-02
   7105.67  1.4571652E-02
   7106.00  1.5641362E-02
   7106.33  1.6899849E-02
   7106.67  1.8371520E-02
   7107.00  2.0108501E-02
   7107.33  2.2237977E-02
   7107.67  2.4836533E-02
   7108.00  2.8051918E-02
   7108.33  3.2250145E-02
   7108.67  3.7729761E-02
   7109.00  4.5047093E-02
   7109.33  5.5668316E-02
   7109.67  7.1269270E-02
   7110.00  9.5119907E-02
   7110.33  1.3681867E-01
   7110.67  2.0904209E-01
   7111.00  3.2548411E-01
   7111.33  4.5925284E-01
   7111.67  5.1661696E-01
   7112.00  4.9060374E-01
   7112.33  4.2012373E-01
   7112.67  3.3895436E-01
   7113.00  2.6478984E-01
   7113.33  2.0760363E-01
   7113.67  1.6746088E-01
   7114.00  1.4108585E-01
   7114.33  1.2411840E-01
   7114.67  1.1054332E-01
   7115.00  9.8411828E-02
   7115.33  8.9166106E-02
   7115.67  8.3213229E-02
   7116.00  8.0129826E-02
   7116.33  7.9529447E-02
   7116.67  8.0664784E-02
   7117.00  8.3298321E-02
   7117.33  8.7473405E-02
   7117.67  9.3059224E-02
   7118.00  1.0028477E-01
   7118.33  1.0994799E-01
   7118.67  1.2226333E-01
   7119.00  1.3687993E-01
   7119.33  1.5186615E-01
   7119.67  1.6532795E-01
   7120.00  1.7763523E-01
   7120.33  1.9111604E-01
   7120.67  2.0839824E-01
   7121.00  2.3164659E-01
   7121.33  2.6390057E-01
   7121.67  3.0571269E-01
   7122.00  3.5774206E-01
   7122.33  4.1961755E-01
   7122.67  4.8391227E-01
   7123.00  5.4030931E-01
   7123.33  5.7303912E-01
   7123.67  5.8084440E-01
   7124.00  5.7090561E-01
   7124.33  5.5508499E-01
   7124.67  5.4327880E-01
   7125.00  5.3980282E-01
   7125.33  5.4832243E-01
   7125.67  5.6787068E-01
   7126.00  5.9742599E-01
   7126.33  6.3528181E-01
   7126.67  6.7631846E-01
   7127.00  7.1579951E-01
   7127.33  7.4680029E-01
   7127.67  7.6517127E-01
   7128.00  7.6821761E-01
   7128.33  7.5383904E-01
   7128.67  7.2787102E-01
   7129.00  6.9624502E-01
   7129.33  6.6626649E-01
   7129.67  6.4265652E-01
   7130.00  6.2720381E-01
   7130.33  6.2072005E-01
   7130.67  6.2074305E-01
   7131.00  6.2584014E-01
   7131.33  6.3515089E-01
   7131.67  6.4730027E-01
   7132.00  6.6165002E-01
   7132.33  6.7737744E-01
   7132.67  6.9265981E-01
   7133.00  7.0534978E-01
   7133.33  7.1197244E-01
   7133.67  7.1126279E-01
   7134.00  7.0292516E-01
   7134.33  6.8733233E-01
   7134.67  6.6744140E-01
   7135.00  6.4529349E-01
   7135.33  6.2302467E-01
   7135.67  6.0232461E-01
   7136.00  5.8418888E-01
   7136.33  5.6969625E-01
   7136.67  5.5868647E-01
   7137.00  5.5111645E-01
   7137.33  5.4714306E-01
   7137.67  5.4600562E-01
   7138.00  5.4735810E-01
   7138.33  5.5104967E-01
   7138.67  5.5637022E-01
   7139.00  5.6290679E-01
   7139.33  5.7026506E-01
   7139.67  5.7787160E-01
   7140.00  5.8532372E-01
   7140.33  5.9211933E-01
   7140.67  5.9799030E-01
   7141.00  6.0272402E-01
   7141.33  6.0598609E-01
   7141.67  6.0784356E-01
   7142.00  6.0826691E-01
   7142.33  6.0709452E-01
   7142.67  6.0455860E-01
   7143.00  6.0072626E-01
   7143.33  5.9553503E-01
   7143.67  5.8922542E-01
   7144.00  5.8187459E-01
   7144.33  5.7346260E-01
   7144.67  5.6422628E-01
   7145.00  5.5429447E-01
   7145.33  5.4379140E-01
   7145.67  5.3300516E-01
   7146.00  5.2214552E-01
   7146.33  5.1147239E-01
   7146.67  5.0117276E-01
   7147.00  4.9138486E-01
   7147.33  4.8228948E-01
   7147.67  4.7385320E-01
   7148.00  4.6607367E-01
   7148.33  4.5899227E-01
   7148.67  4.5247406E-01
   7149.00  4.4646302E-01
   7149.33  4.4094784E-01
   7149.67  4.3581115E-01
   7150.00  4.3100598E-01
   7150.33  4.2651924E-01
   7150.67  4.2227312E-01
   7151.00  4.1823690E-01
   7151.33  4.1439947E-01
   7151.67  4.1070439E-01
   7152.00  4.0711905E-01
   7152.33  4.0360860E-01
   7152.67  4.0011768E-01
   7153.00  3.9660505E-01
   7153.33  3.9301485E-01
   7153.67  3.8930921E-01
   7154.00  3.8544679E-01
   7154.33  3.8134894E-01
   7154.67  3.7698236E-01
   7155.00  3.7228889E-01
   7155.33  3.6714832E-01
   7155.67  3.6155434E-01
   7156.00  3.5548731E-01
   7156.33  3.4891713E-01
   7156.67  3.4198414E-01
   7157.00  3.3480225E-01
   7157.33  3.2752462E-01
   7157.67  3.2033873E-01
   7158.00  3.1339167E-01
   7158.33  3.0688580E-01
   7158.67  3.0089906E-01
   7159.00  2.9551729E-01
   7159.33  2.9090002E-01
   7159.67  2.8701225E-01
   7160.00  2.8387974E-01
   7160.33  2.8161345E-01
   7160.67  2.8011914E-01
   7161.00  2.7938977E-01
   7161.33  2.7950039E-01
   7161.67  2.8033113E-01
   7162.00  2.8185458E-01
   7162.33  2.8411475E-01
   7162.67  2.8699111E-01
   7163.00  2.9045194E-01
   7163.33  2.9452928E-01
   7163.67  2.9911937E-01
   7164.00  3.0419428E-01
   7164.33  3.0978145E-01
   7164.67  3.1579696E-01
   7165.00  3.2221857E-01
   7165.33  3.2906761E-01
   7165.67  3.3626762E-01
   7166.00  3.4378959E-01
   7166.33  3.5162763E-01
   7166.67  3.5969384E-01
   7167.00  3.6793537E-01
   7167.33  3.7629905E-01
   7167.67  3.8469734E-01
   7168.00  3.9306220E-01
   7168.33  4.0130213E-01
   7168.67  4.0935712E-01
   7169.00  4.1716798E-01
   7169.33  4.2463461E-01
   7169.67  4.3174085E-01
   7170.00  4.3844598E-01
   7170.33  4.4465424E-01
   7170.67  4.5038393E-01
   7171.00  4.5560017E-01
   7171.33  4.6017421E-01
   7171.67  4.6407700E-01
   7172.00  4.6718103E-01
