    FDMNES
    energy     <xanes>
   7097.00  4.9481121E-03
   7097.33  5.0705997E-03
   7097.67  5.1991962E-03
   7098.00  5.3343562E-03
   7098.33  5.4775632E-03
   7098.67  5.6285855E-03
   7099.00  5.7880571E-03
   7099.33  5.9579678E-03
   7099.67  6.1380991E-03
   7100.00  6.3293614E-03
   7100.33  6.5344999E-03
   7100.67  6.7533537E-03
   7101.00  6.9872736E-03
   7101.33  7.2401755E-03
   7101.67  7.5120527E-03
   7102.00  7.8049885E-03
   7102.33  8.1247971E-03
   7102.67  8.4718371E-03
   7103.00  8.8494772E-03
   7103.33  9.2667776E-03
   7103.67  9.7249466E-03
   7104.00  1.0229753E-02
   7104.33  1.0796191E-02
   7104.67  1.1427492E-02
   7105.00  1.2134277E-02
   7105.33  1.2943332E-02
   7105.67  1.3863012E-02
   7106.00  1.4914794E-02
   7106.33  1.6151613E-02
   7106.67  1.7596180E-02
   7107.00  1.9297800E-02
   7107.33  2.1376761E-02
   7107.67  2.3902724E-02
   7108.00  2.7011567E-02
   7108.33  3.1039220E-02
   7108.67  3.6251074E-02
   7109.00  4.3144235E-02
   7109.33  5.3025537E-02
   7109.67  6.7363985E-02
   7110.00  8.9022376E-02
   7110.33  1.2616835E-01
   7110.67  1.8721680E-01
   7111.00  2.7409391E-01
   7111.33  3.7115220E-01
   7111.67  4.6835814E-01
   7112.00  5.5011122E-01
   7112.33  5.6535747E-01
   7112.67  5.1828399E-01
   7113.00  4.3494161E-01
   7113.33  3.3590406E-01
   7113.67  2.4241716E-01
   7114.00  1.7573956E-01
   7114.33  1.3786913E-01
   7114.67  1.1625833E-01
   7115.00  1.0570105E-01
   7115.33  1.0436963E-01
   7115.67  1.1078526E-01
   7116.00  1.2515161E-01
   7116.33  1.4288625E-01
   7116.67  1.5080539E-01
   7117.00  1.4542829E-01
   7117.33  1.3548801E-01
   7117.67  1.2863132E-01
   7118.00  1.2626835E-01
   7118.33  1.2753499E-01
   7118.67  1.2863400E-01
   7119.00  1.2778729E-01
   7119.33  1.2735498E-01
   7119.67  1.2991332E-01
   7120.00  1.3465315E-01
   7120.33  1.3883559E-01
   7120.67  1.4107592E-01
   7121.00  1.4262823E-01
   7121.33  1.4533591E-01
   7121.67  1.4879635E-01
   7122.00  1.5249804E-01
   7122.33  1.5690301E-01
   7122.67  1.6253865E-01
   7123.00  1.6933536E-01
   7123.33  1.7669831E-01
   7123.67  1.8394775E-01
   7124.00  1.9109232E-01
   7124.33  1.9884149E-01
   7124.67  2.0768141E-01
   7125.00  2.1738337E-01
   7125.33  2.2682942E-01
   7125.67  2.3482972E-01
   7126.00  2.4094474E-01
   7126.33  2.4546967E-01
   7126.67  2.4963781E-01
   7127.00  2.5442599E-01
   7127.33  2.6104466E-01
   7127.67  2.6988592E-01
   7128.00  2.8101790E-01
   7128.33  2.9445673E-01
   7128.67  3.0972896E-01
   7129.00  3.2685916E-01
   7129.33  3.4623135E-01
   7129.67  3.6734470E-01
   7130.00  3.8917740E-01
   7130.33  4.0916842E-01
   7130.67  4.2478499E-01
   7131.00  4.3478528E-01
   7131.33  4.3941346E-01
   7131.67  4.4163553E-01
   7132.00  4.4341081E-01
   7132.33  4.4629132E-01
   7132.67  4.5073142E-01
   7133.00  4.5676876E-01
   7133.33  4.6427720E-01
   7133.67  4.7261229E-01
   7134.00  4.8136783E-01
   7134.33  4.9022889E-01
   7134.67  4.9895156E-01
   7135.00  5.0728814E-01
   7135.33  5.1477621E-01
   7135.67  5.2118409E-01
   7136.00  5.2639199E-01
   7136.33  5.3038807E-01
   7136.67  5.3369135E-01
   7137.00  5.3673798E-01
   7137.33  5.4001795E-01
   7137.67  5.4380738E-01
   7138.00  5.4821388E-01
   7138.33  5.5329585E-01
   7138.67  5.5886079E-01
   7139.00  5.6476290E-01
   7139.33  5.7082528E-01
   7139.67  5.7682386E-01
   7140.00  5.8258343E-01
   7140.33  5.8786333E-01
   7140.67  5.9256353E-01
   7141.00  5.9659611E-01
   7141.33  5.9984821E-01
   7141.67  6.0248722E-01
   7142.00  6.0467678E-01
   7142.33  6.0667460E-01
   7142.67  6.0883133E-01
   7143.00  6.1143363E-01
   7143.33  6.1486579E-01
   7143.67  6.1926036E-01
   7144.00  6.2475716E-01
   7144.33  6.3161890E-01
   7144.67  6.3975556E-01
   7145.00  6.4918206E-01
   7145.33  6.6002799E-01
   7145.67  6.7205094E-01
   7146.00  6.8512363E-01
   7146.33  6.9913823E-01
   7146.67  7.1372040E-01
   7147.00  7.2858761E-01
   7147.33  7.4332724E-01
   7147.67  7.5749322E-01
   7148.00  7.7066649E-01
   7148.33  7.8219285E-01
   7148.67  7.9185329E-01
   7149.00  7.9939223E-01
   7149.33  8.0435358E-01
   7149.67  8.0699341E-01
   7150.00  8.0738331E-01
   7150.33  8.0543181E-01
   7150.67  8.0162435E-01
   7151.00  7.9617694E-01
   7151.33  7.8917681E-01
   7151.67  7.8103682E-01
   7152.00  7.7194021E-01
   7152.33  7.6197268E-01
   7152.67  7.5138422E-01
   7153.00  7.4028914E-01
   7153.33  7.2875524E-01
   7153.67  7.1693440E-01
   7154.00  7.0491124E-01
   7154.33  6.9277671E-01
   7154.67  6.8064891E-01
   7155.00  6.6861497E-01
   7155.33  6.5679379E-01
   7155.67  6.4525172E-01
   7156.00  6.3406261E-01
   7156.33  6.2336085E-01
   7156.67  6.1316575E-01
   7157.00  6.0353455E-01
   7157.33  5.9460309E-01
   7157.67  5.8634362E-01
   7158.00  5.7879430E-01
   7158.33  5.7208815E-01
   7158.67  5.6616600E-01
   7159.00  5.6105354E-01
   7159.33  5.5687964E-01
   7159.67  5.5355735E-01
   7160.00  5.5109236E-01
   7160.33  5.4957616E-01
   7160.67  5.4886156E-01
   7161.00  5.4889231E-01
   7161.33  5.4965471E-01
   7161.67  5.5093913E-01
   7162.00  5.5261273E-01
   7162.33  5.5452562E-01
   7162.67  5.5645517E-01
   7163.00  5.5823625E-01
   7163.33  5.5966282E-01
   7163.67  5.6063919E-01
   7164.00  5.6107850E-01
   7164.33  5.6084120E-01
   7164.67  5.5997676E-01
   7165.00  5.5849095E-01
   7165.33  5.5634401E-01
   7165.67  5.5366559E-01
   7166.00  5.5051595E-01
   7166.33  5.4692281E-01
   7166.67  5.4301341E-01
   7167.00  5.3885214E-01
   7167.33  5.3449148E-01
   7167.67  5.3002351E-01
   7168.00  5.2549334E-01
   7168.33  5.2093526E-01
   7168.67  5.1637931E-01
   7169.00  5.1184295E-01
   7169.33  5.0734648E-01
   7169.67  5.0290043E-01
   7170.00  4.9852044E-01
   7170.33  4.9424339E-01
   7170.67  4.9009715E-01
   7171.00  4.8613304E-01
   7171.33  4.8247859E-01
   7171.67  4.7925234E-01
   7172.00  4.7663778E-01
