    FDMNES
    energy     <xanes>
   7097.00  5.1580250E-03
   7097.33  5.2831749E-03
   7097.67  5.4141646E-03
   7098.00  5.5514003E-03
   7098.33  5.6962520E-03
   7098.67  5.8484586E-03
   7099.00  6.0085775E-03
   7099.33  6.1784134E-03
   7099.67  6.3577047E-03
   7100.00  6.5472375E-03
   7100.33  6.7494547E-03
   7100.67  6.9641256E-03
   7101.00  7.1923958E-03
   7101.33  7.4376797E-03
   7101.67  7.6998480E-03
   7102.00  7.9806358E-03
   7102.33  8.2850033E-03
   7102.67  8.6130800E-03
   7103.00  8.9676178E-03
   7103.33  9.3561743E-03
   7103.67  9.7794970E-03
   7104.00  1.0242209E-02
   7104.33  1.0756530E-02
   7104.67  1.1324700E-02
   7105.00  1.1955067E-02
   7105.33  1.2668965E-02
   7105.67  1.3472425E-02
   7106.00  1.4382030E-02
   7106.33  1.5439018E-02
   7106.67  1.6660061E-02
   7107.00  1.8082639E-02
   7107.33  1.9798673E-02
   7107.67  2.1859682E-02
   7108.00  2.4367805E-02
   7108.33  2.7576218E-02
   7108.67  3.1682292E-02
   7109.00  3.7058073E-02
   7109.33  4.4683371E-02
   7109.67  5.5658684E-02
   7110.00  7.2137071E-02
   7110.33  1.0032407E-01
   7110.67  1.4710049E-01
   7111.00  2.1540142E-01
   7111.33  2.8731488E-01
   7111.67  3.4059892E-01
   7112.00  3.7004032E-01
   7112.33  3.7097244E-01
   7112.67  3.4967774E-01
   7113.00  3.1602686E-01
   7113.33  2.8510930E-01
   7113.67  2.6739652E-01
   7114.00  2.6715519E-01
   7114.33  2.7789623E-01
   7114.67  2.7815845E-01
   7115.00  2.6627010E-01
   7115.33  2.6168781E-01
   7115.67  2.6851192E-01
   7116.00  2.7486484E-01
   7116.33  2.6076992E-01
   7116.67  2.3032746E-01
   7117.00  1.9796934E-01
   7117.33  1.7491015E-01
   7117.67  1.6138305E-01
   7118.00  1.5585264E-01
   7118.33  1.5594778E-01
   7118.67  1.5748082E-01
   7119.00  1.5850850E-01
   7119.33  1.5922184E-01
   7119.67  1.6103707E-01
   7120.00  1.6399780E-01
   7120.33  1.6672975E-01
   7120.67  1.6910838E-01
   7121.00  1.7221681E-01
   7121.33  1.7758188E-01
   7121.67  1.8604377E-01
   7122.00  1.9811966E-01
   7122.33  2.1317454E-01
   7122.67  2.2846601E-01
   7123.00  2.4273127E-01
   7123.33  2.5643446E-01
   7123.67  2.7087368E-01
   7124.00  2.8691479E-01
   7124.33  3.0540802E-01
   7124.67  3.2585363E-01
   7125.00  3.4695972E-01
   7125.33  3.6586702E-01
   7125.67  3.8106289E-01
   7126.00  3.9321516E-01
   7126.33  4.0459787E-01
   7126.67  4.1743816E-01
   7127.00  4.3265401E-01
   7127.33  4.5033097E-01
   7127.67  4.6879019E-01
   7128.00  4.8631704E-01
   7128.33  5.0105683E-01
   7128.67  5.1331370E-01
   7129.00  5.2449991E-01
   7129.33  5.3715523E-01
   7129.67  5.5297664E-01
   7130.00  5.7242571E-01
   7130.33  5.9484683E-01
   7130.67  6.1782707E-01
   7131.00  6.3950896E-01
   7131.33  6.5820898E-01
   7131.67  6.7430001E-01
   7132.00  6.8875939E-01
   7132.33  7.0269053E-01
   7132.67  7.1619940E-01
   7133.00  7.2821734E-01
   7133.33  7.3632859E-01
   7133.67  7.3899363E-01
   7134.00  7.3527633E-01
   7134.33  7.2523017E-01
   7134.67  7.1206011E-01
   7135.00  6.9798615E-01
   7135.33  6.8450397E-01
   7135.67  6.7173147E-01
   7136.00  6.5930972E-01
   7136.33  6.4683947E-01
   7136.67  6.3439932E-01
   7137.00  6.2251774E-01
   7137.33  6.1230855E-01
   7137.67  6.0445187E-01
   7138.00  5.9937156E-01
   7138.33  5.9737225E-01
   7138.67  5.9751706E-01
   7139.00  5.9896495E-01
   7139.33  6.0058526E-01
   7139.67  6.0130001E-01
   7140.00  6.0048722E-01
   7140.33  5.9770225E-01
   7140.67  5.9348462E-01
   7141.00  5.8843957E-01
   7141.33  5.8345876E-01
   7141.67  5.7939788E-01
   7142.00  5.7683623E-01
   7142.33  5.7636181E-01
   7142.67  5.7774121E-01
   7143.00  5.8076094E-01
   7143.33  5.8517290E-01
   7143.67  5.9034962E-01
   7144.00  5.9590330E-01
   7144.33  6.0146611E-01
   7144.67  6.0678147E-01
   7145.00  6.1171434E-01
   7145.33  6.1612374E-01
   7145.67  6.2003922E-01
   7146.00  6.2346261E-01
   7146.33  6.2635259E-01
   7146.67  6.2879103E-01
   7147.00  6.3079291E-01
   7147.33  6.3231096E-01
   7147.67  6.3339322E-01
   7148.00  6.3402998E-01
   7148.33  6.3415843E-01
   7148.67  6.3384322E-01
   7149.00  6.3310651E-01
   7149.33  6.3194654E-01
   7149.67  6.3046577E-01
   7150.00  6.2869871E-01
   7150.33  6.2663426E-01
   7150.67  6.2431815E-01
   7151.00  6.2176094E-01
   7151.33  6.1895588E-01
   7151.67  6.1596387E-01
   7152.00  6.1282147E-01
   7152.33  6.0956667E-01
   7152.67  6.0626674E-01
   7153.00  6.0296585E-01
   7153.33  5.9971507E-01
   7153.67  5.9654645E-01
   7154.00  5.9348383E-01
   7154.33  5.9055548E-01
   7154.67  5.8773678E-01
   7155.00  5.8499679E-01
   7155.33  5.8227228E-01
   7155.67  5.7946592E-01
   7156.00  5.7647588E-01
   7156.33  5.7313320E-01
   7156.67  5.6935476E-01
   7157.00  5.6506026E-01
   7157.33  5.6013286E-01
   7157.67  5.5465786E-01
   7158.00  5.4869789E-01
   7158.33  5.4232809E-01
   7158.67  5.3574892E-01
   7159.00  5.2910507E-01
   7159.33  5.2257335E-01
   7159.67  5.1628811E-01
   7160.00  5.1035426E-01
   7160.33  5.0492004E-01
   7160.67  4.9998976E-01
   7161.00  4.9558958E-01
   7161.33  4.9178946E-01
   7161.67  4.8850105E-01
   7162.00  4.8568985E-01
   7162.33  4.8335268E-01
   7162.67  4.8136498E-01
   7163.00  4.7965804E-01
   7163.33  4.7817530E-01
   7163.67  4.7681526E-01
   7164.00  4.7551959E-01
   7164.33  4.7422996E-01
   7164.67  4.7289620E-01
   7165.00  4.7148300E-01
   7165.33  4.6994262E-01
   7165.67  4.6826141E-01
   7166.00  4.6641742E-01
   7166.33  4.6436232E-01
   7166.67  4.6209695E-01
   7167.00  4.5960467E-01
   7167.33  4.5683943E-01
   7167.67  4.5382098E-01
   7168.00  4.5054665E-01
   7168.33  4.4699144E-01
   7168.67  4.4320397E-01
   7169.00  4.3921013E-01
   7169.33  4.3503297E-01
   7169.67  4.3074350E-01
   7170.00  4.2639261E-01
   7170.33  4.2205220E-01
   7170.67  4.1780362E-01
   7171.00  4.1372889E-01
   7171.33  4.0998279E-01
   7171.67  4.0669363E-01
   7172.00  4.0404349E-01
