    FDMNES
    energy     <xanes>
   7097.00  5.0745702E-03
   7097.33  5.1981645E-03
   7097.67  5.3275375E-03
   7098.00  5.4630925E-03
   7098.33  5.6061880E-03
   7098.67  5.7565679E-03
   7099.00  5.9147870E-03
   7099.33  6.0826375E-03
   7099.67  6.2598643E-03
   7100.00  6.4472519E-03
   7100.33  6.6472309E-03
   7100.67  6.8595804E-03
   7101.00  7.0854465E-03
   7101.33  7.3282360E-03
   7101.67  7.5878350E-03
   7102.00  7.8659859E-03
   7102.33  8.1676558E-03
   7102.67  8.4930015E-03
   7103.00  8.8448002E-03
   7103.33  9.2306557E-03
   7103.67  9.6513717E-03
   7104.00  1.0111643E-02
   7104.33  1.0623842E-02
   7104.67  1.1190339E-02
   7105.00  1.1819682E-02
   7105.33  1.2533653E-02
   7105.67  1.3338636E-02
   7106.00  1.4251790E-02
   7106.33  1.5315707E-02
   7106.67  1.6548148E-02
   7107.00  1.7988461E-02
   7107.33  1.9733076E-02
   7107.67  2.1837607E-02
   7108.00  2.4411364E-02
   7108.33  2.7725821E-02
   7108.67  3.1998277E-02
   7109.00  3.7637542E-02
   7109.33  4.5726233E-02
   7109.67  5.7509235E-02
   7110.00  7.5429129E-02
   7110.33  1.0654691E-01
   7110.67  1.5852781E-01
   7111.00  2.3350368E-01
   7111.33  3.0728565E-01
   7111.67  3.5161793E-01
   7112.00  3.6499573E-01
   7112.33  3.4851419E-01
   7112.67  3.1046478E-01
   7113.00  2.6756589E-01
   7113.33  2.3710772E-01
   7113.67  2.2191999E-01
   7114.00  2.2293715E-01
   7114.33  2.4263582E-01
   7114.67  2.7664790E-01
   7115.00  3.1723675E-01
   7115.33  3.4091820E-01
   7115.67  3.2310485E-01
   7116.00  2.7150173E-01
   7116.33  2.2013703E-01
   7116.67  1.8360636E-01
   7117.00  1.6070477E-01
   7117.33  1.4861241E-01
   7117.67  1.4301725E-01
   7118.00  1.4180048E-01
   7118.33  1.4290495E-01
   7118.67  1.4418555E-01
   7119.00  1.4488318E-01
   7119.33  1.4534470E-01
   7119.67  1.4672413E-01
   7120.00  1.4948076E-01
   7120.33  1.5359764E-01
   7120.67  1.5908497E-01
   7121.00  1.6619956E-01
   7121.33  1.7490934E-01
   7121.67  1.8536092E-01
   7122.00  1.9842249E-01
   7122.33  2.1483790E-01
   7122.67  2.3402704E-01
   7123.00  2.5600673E-01
   7123.33  2.8056777E-01
   7123.67  3.0576981E-01
   7124.00  3.2997753E-01
   7124.33  3.5173057E-01
   7124.67  3.7068889E-01
   7125.00  3.8631603E-01
   7125.33  3.9822539E-01
   7125.67  4.0809781E-01
   7126.00  4.1716040E-01
   7126.33  4.2639356E-01
   7126.67  4.3625175E-01
   7127.00  4.4647129E-01
   7127.33  4.5588982E-01
   7127.67  4.6393131E-01
   7128.00  4.7121812E-01
   7128.33  4.7958585E-01
   7128.67  4.9071985E-01
   7129.00  5.0582794E-01
   7129.33  5.2637190E-01
   7129.67  5.5148844E-01
   7130.00  5.7940512E-01
   7130.33  6.0607147E-01
   7130.67  6.2788881E-01
   7131.00  6.4429666E-01
   7131.33  6.5743648E-01
   7131.67  6.7065131E-01
   7132.00  6.8503514E-01
   7132.33  6.9984105E-01
   7132.67  7.1284301E-01
   7133.00  7.2206073E-01
   7133.33  7.2547370E-01
   7133.67  7.2386475E-01
   7134.00  7.1814582E-01
   7134.33  7.0891017E-01
   7134.67  6.9749135E-01
   7135.00  6.8499993E-01
   7135.33  6.7277345E-01
   7135.67  6.6161414E-01
   7136.00  6.5180631E-01
   7136.33  6.4355307E-01
   7136.67  6.3653325E-01
   7137.00  6.3047498E-01
   7137.33  6.2491029E-01
   7137.67  6.1911924E-01
   7138.00  6.1260372E-01
   7138.33  6.0506165E-01
   7138.67  5.9703439E-01
   7139.00  5.8931956E-01
   7139.33  5.8320806E-01
   7139.67  5.7944766E-01
   7140.00  5.7847364E-01
   7140.33  5.8065316E-01
   7140.67  5.8519370E-01
   7141.00  5.9145924E-01
   7141.33  5.9866713E-01
   7141.67  6.0581472E-01
   7142.00  6.1221723E-01
   7142.33  6.1708942E-01
   7142.67  6.2025247E-01
   7143.00  6.2165912E-01
   7143.33  6.2132462E-01
   7143.67  6.1983222E-01
   7144.00  6.1759076E-01
   7144.33  6.1502365E-01
   7144.67  6.1250800E-01
   7145.00  6.1020500E-01
   7145.33  6.0819294E-01
   7145.67  6.0637601E-01
   7146.00  6.0465345E-01
   7146.33  6.0289630E-01
   7146.67  6.0101568E-01
   7147.00  5.9898250E-01
   7147.33  5.9682313E-01
   7147.67  5.9466962E-01
   7148.00  5.9266934E-01
   7148.33  5.9105906E-01
   7148.67  5.8997395E-01
   7149.00  5.8952963E-01
   7149.33  5.8988721E-01
   7149.67  5.9094464E-01
   7150.00  5.9262266E-01
   7150.33  5.9482879E-01
   7150.67  5.9731382E-01
   7151.00  5.9990554E-01
   7151.33  6.0240605E-01
   7151.67  6.0466429E-01
   7152.00  6.0656698E-01
   7152.33  6.0795598E-01
   7152.67  6.0882248E-01
   7153.00  6.0913975E-01
   7153.33  6.0884678E-01
   7153.67  6.0805791E-01
   7154.00  6.0683831E-01
   7154.33  6.0523606E-01
   7154.67  6.0337646E-01
   7155.00  6.0130669E-01
   7155.33  5.9901684E-01
   7155.67  5.9650165E-01
   7156.00  5.9370899E-01
   7156.33  5.9052097E-01
   7156.67  5.8691270E-01
   7157.00  5.8284034E-01
   7157.33  5.7821320E-01
   7157.67  5.7308636E-01
   7158.00  5.6747001E-01
   7158.33  5.6133421E-01
   7158.67  5.5477799E-01
   7159.00  5.4784520E-01
   7159.33  5.4055606E-01
   7159.67  5.3302048E-01
   7160.00  5.2530784E-01
   7160.33  5.1749710E-01
   7160.67  5.0969668E-01
   7161.00  5.0199391E-01
   7161.33  4.9451468E-01
   7161.67  4.8732974E-01
   7162.00  4.8051286E-01
   7162.33  4.7419046E-01
   7162.67  4.6835797E-01
   7163.00  4.6303658E-01
   7163.33  4.5829342E-01
   7163.67  4.5404559E-01
   7164.00  4.5025720E-01
   7164.33  4.4691434E-01
   7164.67  4.4388491E-01
   7165.00  4.4108756E-01
   7165.33  4.3843955E-01
   7165.67  4.3582884E-01
   7166.00  4.3318164E-01
   7166.33  4.3041206E-01
   7166.67  4.2748059E-01
   7167.00  4.2435845E-01
   7167.33  4.2100419E-01
   7167.67  4.1744507E-01
   7168.00  4.1369566E-01
   7168.33  4.0976871E-01
   7168.67  4.0573257E-01
   7169.00  4.0164001E-01
   7169.33  3.9756000E-01
   7169.67  3.9356592E-01
   7170.00  3.8972836E-01
   7170.33  3.8615932E-01
   7170.67  3.8290490E-01
   7171.00  3.8002138E-01
   7171.33  3.7761303E-01
   7171.67  3.7566009E-01
   7172.00  3.7416773E-01
