    FDMNES
    energy     <xanes>
   7097.00  4.8677480E-03
   7097.33  4.9787209E-03
   7097.67  5.0945200E-03
   7098.00  5.2154612E-03
   7098.33  5.3426436E-03
   7098.67  5.4758243E-03
   7099.00  5.6154308E-03
   7099.33  5.7628888E-03
   7099.67  5.9179466E-03
   7100.00  6.0811979E-03
   7100.33  6.2545402E-03
   7100.67  6.4377321E-03
   7101.00  6.6316246E-03
   7101.33  6.8388207E-03
   7101.67  7.0591342E-03
   7102.00  7.2938300E-03
   7102.33  7.5466131E-03
   7102.67  7.8174516E-03
   7103.00  8.1083116E-03
   7103.33  8.4247108E-03
   7103.67  8.7669984E-03
   7104.00  9.1384035E-03
   7104.33  9.5476232E-03
   7104.67  9.9959326E-03
   7105.00  1.0489019E-02
   7105.33  1.1041630E-02
   7105.67  1.1657384E-02
   7106.00  1.2347253E-02
   7106.33  1.3138818E-02
   7106.67  1.4042167E-02
   7107.00  1.5081285E-02
   7107.33  1.6315323E-02
   7107.67  1.7775082E-02
   7108.00  1.9523415E-02
   7108.33  2.1716078E-02
   7108.67  2.4468019E-02
   7109.00  2.7998137E-02
   7109.33  3.2879293E-02
   7109.67  3.9730884E-02
   7110.00  4.9761891E-02
   7110.33  6.6404529E-02
   7110.67  9.3157067E-02
   7111.00  1.3090752E-01
   7111.33  1.7348485E-01
   7111.67  2.1985682E-01
   7112.00  2.6884744E-01
   7112.33  2.9049164E-01
   7112.67  2.6523166E-01
   7113.00  2.2036548E-01
   7113.33  1.9465753E-01
   7113.67  1.9305291E-01
   7114.00  2.1531303E-01
   7114.33  2.6506346E-01
   7114.67  3.3217361E-01
   7115.00  3.9298475E-01
   7115.33  3.9471875E-01
   7115.67  3.3435118E-01
   7116.00  2.5750160E-01
   7116.33  2.0161697E-01
   7116.67  1.6543763E-01
   7117.00  1.4335419E-01
   7117.33  1.3151488E-01
   7117.67  1.2597783E-01
   7118.00  1.2541024E-01
   7118.33  1.2871892E-01
   7118.67  1.3302265E-01
   7119.00  1.3578071E-01
   7119.33  1.3522109E-01
   7119.67  1.3330167E-01
   7120.00  1.3200808E-01
   7120.33  1.3235392E-01
   7120.67  1.3445910E-01
   7121.00  1.3893753E-01
   7121.33  1.4653926E-01
   7121.67  1.5671285E-01
   7122.00  1.6929901E-01
   7122.33  1.8494545E-01
   7122.67  2.0411155E-01
   7123.00  2.2758546E-01
   7123.33  2.5657366E-01
   7123.67  2.9009440E-01
   7124.00  3.2653601E-01
   7124.33  3.6251300E-01
   7124.67  3.9449801E-01
   7125.00  4.2061105E-01
   7125.33  4.3999213E-01
   7125.67  4.5491539E-01
   7126.00  4.6706645E-01
   7126.33  4.7760617E-01
   7126.67  4.8683631E-01
   7127.00  4.9433365E-01
   7127.33  5.0001623E-01
   7127.67  5.0522936E-01
   7128.00  5.1128507E-01
   7128.33  5.1974344E-01
   7128.67  5.3115259E-01
   7129.00  5.4580782E-01
   7129.33  5.6399188E-01
   7129.67  5.8483704E-01
   7130.00  6.0779179E-01
   7130.33  6.3218229E-01
   7130.67  6.5679856E-01
   7131.00  6.8069358E-01
   7131.33  7.0269866E-01
   7131.67  7.2233322E-01
   7132.00  7.3923561E-01
   7132.33  7.5284306E-01
   7132.67  7.6356227E-01
   7133.00  7.7166921E-01
   7133.33  7.7724644E-01
   7133.67  7.8032227E-01
   7134.00  7.8015866E-01
   7134.33  7.7551219E-01
   7134.67  7.6663259E-01
   7135.00  7.5365472E-01
   7135.33  7.3661785E-01
   7135.67  7.1683794E-01
   7136.00  6.9533711E-01
   7136.33  6.7344772E-01
   7136.67  6.5255709E-01
   7137.00  6.3361249E-01
   7137.33  6.1766213E-01
   7137.67  6.0463520E-01
   7138.00  5.9443827E-01
   7138.33  5.8704759E-01
   7138.67  5.8177859E-01
   7139.00  5.7839769E-01
   7139.33  5.7699167E-01
   7139.67  5.7731127E-01
   7140.00  5.7929974E-01
   7140.33  5.8291055E-01
   7140.67  5.8754672E-01
   7141.00  5.9275784E-01
   7141.33  5.9801235E-01
   7141.67  6.0282657E-01
   7142.00  6.0687097E-01
   7142.33  6.0977716E-01
   7142.67  6.1163546E-01
   7143.00  6.1258952E-01
   7143.33  6.1287158E-01
   7143.67  6.1288809E-01
   7144.00  6.1284601E-01
   7144.33  6.1283422E-01
   7144.67  6.1277149E-01
   7145.00  6.1250580E-01
   7145.33  6.1178823E-01
   7145.67  6.1052068E-01
   7146.00  6.0865623E-01
   7146.33  6.0617929E-01
   7146.67  6.0330661E-01
   7147.00  6.0021278E-01
   7147.33  5.9711474E-01
   7147.67  5.9421075E-01
   7148.00  5.9163705E-01
   7148.33  5.8955958E-01
   7148.67  5.8798299E-01
   7149.00  5.8692243E-01
   7149.33  5.8642374E-01
   7149.67  5.8637973E-01
   7150.00  5.8673589E-01
   7150.33  5.8745703E-01
   7150.67  5.8842093E-01
   7151.00  5.8956066E-01
   7151.33  5.9081354E-01
   7151.67  5.9208869E-01
   7152.00  5.9332227E-01
   7152.33  5.9443689E-01
   7152.67  5.9539282E-01
   7153.00  5.9615344E-01
   7153.33  5.9665844E-01
   7153.67  5.9691196E-01
   7154.00  5.9689486E-01
   7154.33  5.9655567E-01
   7154.67  5.9592327E-01
   7155.00  5.9500171E-01
   7155.33  5.9376523E-01
   7155.67  5.9225587E-01
   7156.00  5.9047503E-01
   7156.33  5.8838095E-01
   7156.67  5.8598993E-01
   7157.00  5.8327615E-01
   7157.33  5.8015348E-01
   7157.67  5.7661873E-01
   7158.00  5.7262786E-01
   7158.33  5.6806916E-01
   7158.67  5.6296714E-01
   7159.00  5.5730230E-01
   7159.33  5.5100291E-01
   7159.67  5.4416631E-01
   7160.00  5.3683974E-01
   7160.33  5.2905393E-01
   7160.67  5.2096699E-01
   7161.00  5.1268662E-01
   7161.33  5.0433701E-01
   7161.67  4.9605258E-01
   7162.00  4.8793313E-01
   7162.33  4.8011435E-01
   7162.67  4.7264570E-01
   7163.00  4.6558146E-01
   7163.33  4.5902037E-01
   7163.67  4.5292849E-01
   7164.00  4.4731314E-01
   7164.33  4.4223250E-01
   7164.67  4.3761575E-01
   7165.00  4.3344649E-01
   7165.33  4.2975158E-01
   7165.67  4.2644472E-01
   7166.00  4.2349080E-01
   7166.33  4.2088073E-01
   7166.67  4.1852366E-01
   7167.00  4.1637101E-01
   7167.33  4.1438144E-01
   7167.67  4.1247745E-01
   7168.00  4.1061127E-01
   7168.33  4.0873254E-01
   7168.67  4.0680432E-01
   7169.00  4.0480482E-01
   7169.33  4.0271382E-01
   7169.67  4.0054634E-01
   7170.00  3.9831705E-01
   7170.33  3.9605942E-01
   7170.67  3.9383334E-01
   7171.00  3.9169796E-01
   7171.33  3.8975321E-01
   7171.67  3.8806760E-01
   7172.00  3.8671989E-01
