    FDMNES
    energy     <xanes>
   7097.00  5.6914467E-03
   7097.33  5.8438747E-03
   7097.67  6.0040170E-03
   7098.00  6.1724401E-03
   7098.33  6.3510041E-03
   7098.67  6.5394042E-03
   7099.00  6.7384257E-03
   7099.33  6.9505498E-03
   7099.67  7.1754810E-03
   7100.00  7.4143386E-03
   7100.33  7.6705236E-03
   7100.67  7.9437994E-03
   7101.00  8.2358132E-03
   7101.33  8.5513790E-03
   7101.67  8.8904281E-03
   7102.00  9.2554784E-03
   7102.33  9.6536126E-03
   7102.67  1.0085170E-02
   7103.00  1.0554181E-02
   7103.33  1.1071571E-02
   7103.67  1.1638635E-02
   7104.00  1.2262204E-02
   7104.33  1.2960154E-02
   7104.67  1.3736071E-02
   7105.00  1.4602398E-02
   7105.33  1.5590698E-02
   7105.67  1.6710370E-02
   7106.00  1.7986339E-02
   7106.33  1.9480313E-02
   7106.67  2.1218057E-02
   7107.00  2.3256462E-02
   7107.33  2.5734790E-02
   7107.67  2.8732980E-02
   7108.00  3.2408261E-02
   7108.33  3.7151057E-02
   7108.67  4.3273192E-02
   7109.00  5.1362736E-02
   7109.33  6.2981656E-02
   7109.67  7.9940682E-02
   7110.00  1.0580964E-01
   7110.33  1.5090455E-01
   7110.67  2.2552065E-01
   7111.00  3.2512934E-01
   7111.33  3.8668291E-01
   7111.67  4.2072794E-01
   7112.00  4.9037173E-01
   7112.33  5.9238444E-01
   7112.67  6.6639048E-01
   7113.00  6.6460560E-01
   7113.33  5.5901610E-01
   7113.67  4.3163856E-01
   7114.00  3.3284865E-01
   7114.33  2.7312508E-01
   7114.67  2.4008056E-01
   7115.00  2.2932717E-01
   7115.33  2.4040267E-01
   7115.67  2.6786577E-01
   7116.00  3.0456149E-01
   7116.33  3.3193473E-01
   7116.67  3.3987653E-01
   7117.00  3.3327806E-01
   7117.33  3.1048829E-01
   7117.67  2.7281385E-01
   7118.00  2.3090000E-01
   7118.33  1.9600971E-01
   7118.67  1.7016381E-01
   7119.00  1.5233736E-01
   7119.33  1.4150288E-01
   7119.67  1.3533418E-01
   7120.00  1.3256453E-01
   7120.33  1.3221406E-01
   7120.67  1.3325301E-01
   7121.00  1.3523380E-01
   7121.33  1.3768210E-01
   7121.67  1.4076319E-01
   7122.00  1.4535481E-01
   7122.33  1.5251467E-01
   7122.67  1.6195764E-01
   7123.00  1.7339787E-01
   7123.33  1.8658636E-01
   7123.67  2.0065691E-01
   7124.00  2.1509911E-01
   7124.33  2.3016561E-01
   7124.67  2.4658829E-01
   7125.00  2.6388366E-01
   7125.33  2.7772213E-01
   7125.67  2.8483890E-01
   7126.00  2.8740896E-01
   7126.33  2.9151292E-01
   7126.67  2.9991544E-01
   7127.00  3.1217413E-01
   7127.33  3.2715893E-01
   7127.67  3.4361728E-01
   7128.00  3.6116228E-01
   7128.33  3.7955046E-01
   7128.67  3.9822329E-01
   7129.00  4.1656800E-01
   7129.33  4.3356520E-01
   7129.67  4.4859542E-01
   7130.00  4.6134253E-01
   7130.33  4.7192294E-01
   7130.67  4.8174425E-01
   7131.00  4.9200281E-01
   7131.33  5.0416697E-01
   7131.67  5.1929936E-01
   7132.00  5.3870740E-01
   7132.33  5.6494611E-01
   7132.67  5.9891475E-01
   7133.00  6.4144995E-01
   7133.33  6.9355216E-01
   7133.67  7.5253040E-01
   7134.00  8.1504939E-01
   7134.33  8.7417873E-01
   7134.67  9.2241552E-01
   7135.00  9.5432226E-01
   7135.33  9.6467940E-01
   7135.67  9.5684109E-01
   7136.00  9.3391450E-01
   7136.33  8.9964884E-01
   7136.67  8.6036607E-01
   7137.00  8.1963656E-01
   7137.33  7.8063713E-01
   7137.67  7.4507266E-01
   7138.00  7.1392341E-01
   7138.33  6.8835316E-01
   7138.67  6.6770826E-01
   7139.00  6.5167475E-01
   7139.33  6.4034292E-01
   7139.67  6.3277253E-01
   7140.00  6.2858806E-01
   7140.33  6.2761437E-01
   7140.67  6.2882702E-01
   7141.00  6.3158092E-01
   7141.33  6.3526673E-01
   7141.67  6.3927476E-01
   7142.00  6.4344242E-01
   7142.33  6.4796175E-01
   7142.67  6.5319472E-01
   7143.00  6.5950178E-01
   7143.33  6.6724418E-01
   7143.67  6.7607386E-01
   7144.00  6.8549883E-01
   7144.33  6.9463483E-01
   7144.67  7.0256333E-01
   7145.00  7.0857947E-01
   7145.33  7.1188474E-01
   7145.67  7.1272015E-01
   7146.00  7.1134645E-01
   7146.33  7.0806942E-01
   7146.67  7.0366059E-01
   7147.00  6.9852005E-01
   7147.33  6.9291228E-01
   7147.67  6.8706178E-01
   7148.00  6.8104390E-01
   7148.33  6.7489897E-01
   7148.67  6.6869273E-01
   7149.00  6.6247606E-01
   7149.33  6.5631722E-01
   7149.67  6.5026405E-01
   7150.00  6.4434978E-01
   7150.33  6.3861181E-01
   7150.67  6.3302811E-01
   7151.00  6.2758450E-01
   7151.33  6.2226916E-01
   7151.67  6.1703950E-01
   7152.00  6.1187236E-01
   7152.33  6.0675313E-01
   7152.67  6.0167011E-01
   7153.00  5.9663253E-01
   7153.33  5.9167356E-01
   7153.67  5.8681866E-01
   7154.00  5.8210185E-01
   7154.33  5.7758667E-01
   7154.67  5.7329086E-01
   7155.00  5.6924552E-01
   7155.33  5.6551188E-01
   7155.67  5.6207124E-01
   7156.00  5.5892943E-01
   7156.33  5.5612056E-01
   7156.67  5.5359507E-01
   7157.00  5.5133556E-01
   7157.33  5.4934450E-01
   7157.67  5.4755778E-01
   7158.00  5.4594113E-01
   7158.33  5.4446596E-01
   7158.67  5.4306886E-01
   7159.00  5.4170658E-01
   7159.33  5.4032306E-01
   7159.67  5.3886244E-01
   7160.00  5.3727093E-01
   7160.33  5.3545641E-01
   7160.67  5.3337249E-01
   7161.00  5.3095696E-01
   7161.33  5.2808855E-01
   7161.67  5.2475230E-01
   7162.00  5.2090035E-01
   7162.33  5.1642126E-01
   7162.67  5.1136681E-01
   7163.00  5.0574354E-01
   7163.33  4.9950565E-01
   7163.67  4.9275999E-01
   7164.00  4.8555413E-01
   7164.33  4.7790366E-01
   7164.67  4.6993002E-01
   7165.00  4.6170491E-01
   7165.33  4.5329945E-01
   7165.67  4.4482795E-01
   7166.00  4.3637102E-01
   7166.33  4.2803196E-01
   7166.67  4.1988291E-01
   7167.00  4.1199311E-01
   7167.33  4.0447736E-01
   7167.67  3.9735722E-01
   7168.00  3.9067819E-01
   7168.33  3.8454147E-01
   7168.67  3.7891367E-01
   7169.00  3.7380697E-01
   7169.33  3.6929011E-01
   7169.67  3.6529184E-01
   7170.00  3.6180149E-01
   7170.33  3.5886158E-01
   7170.67  3.5638678E-01
   7171.00  3.5435057E-01
   7171.33  3.5276243E-01
   7171.67  3.5152405E-01
   7172.00  3.5057971E-01
