    FDMNES
    energy     <xanes>
   7097.00  5.0006480E-03
   7097.33  5.1306047E-03
   7097.67  5.2670912E-03
   7098.00  5.4105978E-03
   7098.33  5.5627184E-03
   7098.67  5.7232132E-03
   7099.00  5.8927705E-03
   7099.33  6.0735394E-03
   7099.67  6.2653022E-03
   7100.00  6.4690561E-03
   7100.33  6.6877881E-03
   7100.67  6.9213582E-03
   7101.00  7.1712633E-03
   7101.33  7.4418082E-03
   7101.67  7.7330522E-03
   7102.00  8.0473390E-03
   7102.33  8.3911484E-03
   7102.67  8.7650094E-03
   7103.00  9.1727836E-03
   7103.33  9.6247562E-03
   7103.67  1.0122555E-02
   7104.00  1.0672955E-02
   7104.33  1.1293392E-02
   7104.67  1.1988161E-02
   7105.00  1.2770119E-02
   7105.33  1.3671422E-02
   7105.67  1.4703300E-02
   7106.00  1.5892789E-02
   7106.33  1.7306148E-02
   7106.67  1.8974794E-02
   7107.00  2.0964010E-02
   7107.33  2.3432932E-02
   7107.67  2.6482478E-02
   7108.00  3.0304804E-02
   7108.33  3.5378361E-02
   7108.67  4.2113798E-02
   7109.00  5.1276765E-02
   7109.33  6.4916000E-02
   7109.67  8.5504094E-02
   7110.00  1.1791361E-01
   7110.33  1.7638519E-01
   7110.67  2.7655744E-01
   7111.00  4.2005300E-01
   7111.33  5.3797099E-01
   7111.67  5.6895659E-01
   7112.00  5.1018628E-01
   7112.33  4.0223039E-01
   7112.67  3.1263102E-01
   7113.00  2.5192805E-01
   7113.33  2.0750109E-01
   7113.67  1.6648903E-01
   7114.00  1.3089068E-01
   7114.33  1.0589062E-01
   7114.67  8.9137605E-02
   7115.00  7.8227359E-02
   7115.33  7.1085275E-02
   7115.67  6.5589679E-02
   7116.00  6.1416822E-02
   7116.33  5.9189621E-02
   7116.67  5.8748192E-02
   7117.00  6.0023218E-02
   7117.33  6.3247652E-02
   7117.67  6.8228297E-02
   7118.00  7.4757538E-02
   7118.33  8.1948592E-02
   7118.67  8.8417034E-02
   7119.00  9.4098523E-02
   7119.33  1.0043483E-01
   7119.67  1.0864669E-01
   7120.00  1.1905294E-01
   7120.33  1.3192286E-01
   7120.67  1.4782267E-01
   7121.00  1.6779834E-01
   7121.33  1.9289193E-01
   7121.67  2.2230442E-01
   7122.00  2.5563342E-01
   7122.33  2.9325630E-01
   7122.67  3.3555360E-01
   7123.00  3.8318886E-01
   7123.33  4.3439702E-01
   7123.67  4.8203698E-01
   7124.00  5.1936094E-01
   7124.33  5.4132923E-01
   7124.67  5.5168981E-01
   7125.00  5.5331421E-01
   7125.33  5.4784807E-01
   7125.67  5.3804670E-01
   7126.00  5.2574823E-01
   7126.33  5.1295407E-01
   7126.67  5.0089350E-01
   7127.00  4.8967414E-01
   7127.33  4.7919520E-01
   7127.67  4.6981015E-01
   7128.00  4.6251533E-01
   7128.33  4.5901693E-01
   7128.67  4.5970656E-01
   7129.00  4.6470296E-01
   7129.33  4.7398896E-01
   7129.67  4.8616087E-01
   7130.00  5.0031401E-01
   7130.33  5.1550982E-01
   7130.67  5.3057180E-01
   7131.00  5.4472905E-01
   7131.33  5.5751416E-01
   7131.67  5.6948902E-01
   7132.00  5.8114314E-01
   7132.33  5.9240530E-01
   7132.67  6.0239968E-01
   7133.00  6.1007231E-01
   7133.33  6.1450912E-01
   7133.67  6.1671030E-01
   7134.00  6.1778381E-01
   7134.33  6.1876454E-01
   7134.67  6.1999962E-01
   7135.00  6.2136539E-01
   7135.33  6.2268173E-01
   7135.67  6.2401449E-01
   7136.00  6.2559346E-01
   7136.33  6.2782618E-01
   7136.67  6.3088793E-01
   7137.00  6.3477382E-01
   7137.33  6.3910312E-01
   7137.67  6.4291704E-01
   7138.00  6.4521111E-01
   7138.33  6.4459769E-01
   7138.67  6.4085572E-01
   7139.00  6.3415428E-01
   7139.33  6.2519192E-01
   7139.67  6.1570042E-01
   7140.00  6.0703425E-01
   7140.33  6.0082498E-01
   7140.67  5.9777140E-01
   7141.00  5.9835101E-01
   7141.33  6.0317261E-01
   7141.67  6.1145712E-01
   7142.00  6.2257834E-01
   7142.33  6.3559811E-01
   7142.67  6.4879806E-01
   7143.00  6.6078922E-01
   7143.33  6.6990127E-01
   7143.67  6.7578009E-01
   7144.00  6.7844369E-01
   7144.33  6.7808955E-01
   7144.67  6.7589490E-01
   7145.00  6.7262361E-01
   7145.33  6.6901084E-01
   7145.67  6.6567252E-01
   7146.00  6.6294321E-01
   7146.33  6.6115214E-01
   7146.67  6.6027156E-01
   7147.00  6.6026951E-01
   7147.33  6.6112448E-01
   7147.67  6.6258211E-01
   7148.00  6.6448239E-01
   7148.33  6.6664071E-01
   7148.67  6.6879621E-01
   7149.00  6.7074614E-01
   7149.33  6.7221290E-01
   7149.67  6.7305661E-01
   7150.00  6.7314650E-01
   7150.33  6.7227216E-01
   7150.67  6.7049131E-01
   7151.00  6.6780048E-01
   7151.33  6.6412041E-01
   7151.67  6.5961559E-01
   7152.00  6.5434272E-01
   7152.33  6.4828335E-01
   7152.67  6.4159062E-01
   7153.00  6.3431611E-01
   7153.33  6.2644798E-01
   7153.67  6.1810096E-01
   7154.00  6.0931270E-01
   7154.33  6.0007096E-01
   7154.67  5.9045950E-01
   7155.00  5.8050415E-01
   7155.33  5.7019319E-01
   7155.67  5.5959508E-01
   7156.00  5.4873768E-01
   7156.33  5.3762776E-01
   7156.67  5.2633121E-01
   7157.00  5.1488305E-01
   7157.33  5.0331155E-01
   7157.67  4.9167339E-01
   7158.00  4.8000320E-01
   7158.33  4.6834214E-01
   7158.67  4.5673620E-01
   7159.00  4.4522456E-01
   7159.33  4.3386137E-01
   7159.67  4.2266300E-01
   7160.00  4.1165580E-01
   7160.33  4.0089411E-01
   7160.67  3.9037419E-01
   7161.00  3.8011296E-01
   7161.33  3.7015882E-01
   7161.67  3.6048764E-01
   7162.00  3.5110652E-01
   7162.33  3.4205754E-01
   7162.67  3.3330820E-01
   7163.00  3.2486625E-01
   7163.33  3.1678375E-01
   7163.67  3.0903646E-01
   7164.00  3.0164308E-01
   7164.33  2.9467859E-01
   7164.67  2.8812712E-01
   7165.00  2.8202016E-01
   7165.33  2.7646003E-01
   7165.67  2.7143094E-01
   7166.00  2.6697189E-01
   7166.33  2.6320358E-01
   7166.67  2.6009001E-01
   7167.00  2.5766116E-01
   7167.33  2.5603130E-01
   7167.67  2.5512494E-01
   7168.00  2.5494311E-01
   7168.33  2.5556321E-01
   7168.67  2.5687014E-01
   7169.00  2.5883039E-01
   7169.33  2.6146822E-01
   7169.67  2.6464544E-01
   7170.00  2.6829853E-01
   7170.33  2.7238924E-01
   7170.67  2.7676208E-01
   7171.00  2.8129883E-01
   7171.33  2.8579930E-01
   7171.67  2.8995424E-01
   7172.00  2.9337909E-01
