    FDMNES
    energy     <xanes>
   7097.00  4.4263759E-03
   7097.33  4.5154144E-03
   7097.67  4.6077386E-03
   7098.00  4.7035300E-03
   7098.33  4.8034811E-03
   7098.67  4.9073820E-03
   7099.00  5.0154691E-03
   7099.33  5.1286054E-03
   7099.67  5.2465637E-03
   7100.00  5.3696594E-03
   7100.33  5.4989917E-03
   7100.67  5.6343220E-03
   7101.00  5.7760833E-03
   7101.33  5.9257148E-03
   7101.67  6.0829809E-03
   7102.00  6.2484989E-03
   7102.33  6.4242181E-03
   7102.67  6.6099432E-03
   7103.00  6.8065949E-03
   7103.33  7.0169327E-03
   7103.67  7.2408899E-03
   7104.00  7.4799229E-03
   7104.33  7.7381724E-03
   7104.67  8.0159204E-03
   7105.00  8.3156553E-03
   7105.33  8.6440988E-03
   7105.67  9.0024739E-03
   7106.00  9.3954920E-03
   7106.33  9.8353272E-03
   7106.67  1.0325931E-02
   7107.00  1.0877585E-02
   7107.33  1.1516079E-02
   7107.67  1.2254516E-02
   7108.00  1.3120413E-02
   7108.33  1.4182764E-02
   7108.67  1.5493788E-02
   7109.00  1.7153808E-02
   7109.33  1.9428718E-02
   7109.67  2.2617745E-02
   7110.00  2.7310995E-02
   7110.33  3.5238705E-02
   7110.67  4.8544103E-02
   7111.00  6.8829327E-02
   7111.33  8.8613598E-02
   7111.67  9.3700506E-02
   7112.00  8.9123163E-02
   7112.33  8.7799591E-02
   7112.67  8.9262694E-02
   7113.00  8.9160174E-02
   7113.33  8.4937780E-02
   7113.67  7.8221624E-02
   7114.00  7.1008208E-02
   7114.33  6.5534342E-02
   7114.67  6.2618661E-02
   7115.00  6.2457437E-02
   7115.33  6.5493063E-02
   7115.67  7.1792705E-02
   7116.00  8.2175281E-02
   7116.33  9.8958135E-02
   7116.67  1.2311306E-01
   7117.00  1.5372036E-01
   7117.33  1.8317784E-01
   7117.67  2.0629638E-01
   7118.00  2.2825977E-01
   7118.33  2.5885524E-01
   7118.67  3.0375401E-01
   7119.00  3.6290247E-01
   7119.33  4.2823550E-01
   7119.67  4.8402211E-01
   7120.00  5.1953786E-01
   7120.33  5.2825084E-01
   7120.67  5.1540395E-01
   7121.00  4.8814610E-01
   7121.33  4.5752460E-01
   7121.67  4.3061781E-01
   7122.00  4.0959464E-01
   7122.33  3.9589602E-01
   7122.67  3.8683352E-01
   7123.00  3.7940636E-01
   7123.33  3.7220031E-01
   7123.67  3.6656061E-01
   7124.00  3.6366367E-01
   7124.33  3.6399263E-01
   7124.67  3.6636248E-01
   7125.00  3.6981266E-01
   7125.33  3.7373736E-01
   7125.67  3.7845748E-01
   7126.00  3.8493463E-01
   7126.33  3.9455484E-01
   7126.67  4.0719335E-01
   7127.00  4.2225383E-01
   7127.33  4.3873740E-01
   7127.67  4.5571426E-01
   7128.00  4.7318518E-01
   7128.33  4.9153917E-01
   7128.67  5.1066832E-01
   7129.00  5.3030061E-01
   7129.33  5.5013751E-01
   7129.67  5.6991616E-01
   7130.00  5.8930249E-01
   7130.33  6.0722416E-01
   7130.67  6.2238911E-01
   7131.00  6.3348871E-01
   7131.33  6.3899809E-01
   7131.67  6.3974749E-01
   7132.00  6.3664612E-01
   7132.33  6.3065145E-01
   7132.67  6.2313503E-01
   7133.00  6.1475909E-01
   7133.33  6.0617393E-01
   7133.67  5.9816000E-01
   7134.00  5.9142657E-01
   7134.33  5.8689935E-01
   7134.67  5.8466887E-01
   7135.00  5.8473392E-01
   7135.33  5.8709590E-01
   7135.67  5.9106853E-01
   7136.00  5.9622508E-01
   7136.33  6.0223080E-01
   7136.67  6.0874402E-01
   7137.00  6.1568565E-01
   7137.33  6.2299719E-01
   7137.67  6.3032038E-01
   7138.00  6.3712271E-01
   7138.33  6.4239234E-01
   7138.67  6.4548449E-01
   7139.00  6.4597372E-01
   7139.33  6.4354904E-01
   7139.67  6.3905753E-01
   7140.00  6.3316883E-01
   7140.33  6.2652792E-01
   7140.67  6.1967460E-01
   7141.00  6.1276797E-01
   7141.33  6.0584807E-01
   7141.67  5.9895561E-01
   7142.00  5.9217926E-01
   7142.33  5.8567774E-01
   7142.67  5.7949064E-01
   7143.00  5.7358763E-01
   7143.33  5.6785384E-01
   7143.67  5.6209361E-01
   7144.00  5.5618707E-01
   7144.33  5.5007329E-01
   7144.67  5.4387703E-01
   7145.00  5.3778603E-01
   7145.33  5.3213070E-01
   7145.67  5.2713599E-01
   7146.00  5.2297406E-01
   7146.33  5.1986605E-01
   7146.67  5.1770224E-01
   7147.00  5.1642063E-01
   7147.33  5.1597972E-01
   7147.67  5.1610686E-01
   7148.00  5.1663074E-01
   7148.33  5.1737467E-01
   7148.67  5.1812872E-01
   7149.00  5.1875728E-01
   7149.33  5.1910806E-01
   7149.67  5.1913469E-01
   7150.00  5.1880480E-01
   7150.33  5.1806629E-01
   7150.67  5.1697901E-01
   7151.00  5.1556271E-01
   7151.33  5.1380291E-01
   7151.67  5.1175948E-01
   7152.00  5.0945130E-01
   7152.33  5.0687657E-01
   7152.67  5.0410583E-01
   7153.00  5.0118870E-01
   7153.33  4.9819248E-01
   7153.67  4.9521945E-01
   7154.00  4.9235872E-01
   7154.33  4.8974144E-01
   7154.67  4.8743297E-01
   7155.00  4.8549436E-01
   7155.33  4.8401770E-01
   7155.67  4.8295383E-01
   7156.00  4.8227082E-01
   7156.33  4.8193078E-01
   7156.67  4.8178293E-01
   7157.00  4.8170940E-01
   7157.33  4.8155432E-01
   7157.67  4.8118831E-01
   7158.00  4.8051463E-01
   7158.33  4.7941426E-01
   7158.67  4.7791297E-01
   7159.00  4.7602879E-01
   7159.33  4.7377672E-01
   7159.67  4.7128161E-01
   7160.00  4.6862523E-01
   7160.33  4.6589105E-01
   7160.67  4.6317085E-01
   7161.00  4.6052274E-01
   7161.33  4.5800714E-01
   7161.67  4.5563216E-01
   7162.00  4.5340053E-01
   7162.33  4.5131449E-01
   7162.67  4.4933001E-01
   7163.00  4.4741629E-01
   7163.33  4.4553821E-01
   7163.67  4.4365529E-01
   7164.00  4.4174322E-01
   7164.33  4.3978042E-01
   7164.67  4.3777219E-01
   7165.00  4.3573121E-01
   7165.33  4.3368465E-01
   7165.67  4.3167243E-01
   7166.00  4.2973487E-01
   7166.33  4.2793769E-01
   7166.67  4.2631435E-01
   7167.00  4.2490249E-01
   7167.33  4.2376784E-01
   7167.67  4.2290339E-01
   7168.00  4.2232021E-01
   7168.33  4.2205560E-01
   7168.67  4.2206515E-01
   7169.00  4.2233297E-01
   7169.33  4.2286074E-01
   7169.67  4.2358409E-01
   7170.00  4.2446700E-01
   7170.33  4.2547640E-01
   7170.67  4.2654690E-01
   7171.00  4.2763152E-01
   7171.33  4.2866415E-01
   7171.67  4.2957887E-01
   7172.00  4.3030565E-01
