    FDMNES
    energy     <xanes>
   7097.00  5.1842937E-03
   7097.33  5.3044856E-03
   7097.67  5.4300413E-03
   7098.00  5.5613147E-03
   7098.33  5.6995319E-03
   7098.67  5.8444257E-03
   7099.00  5.9964736E-03
   7099.33  6.1572643E-03
   7099.67  6.3265177E-03
   7100.00  6.5048936E-03
   7100.33  6.6945005E-03
   7100.67  6.8950635E-03
   7101.00  7.1075207E-03
   7101.33  7.3347496E-03
   7101.67  7.5765232E-03
   7102.00  7.8342207E-03
   7102.33  8.1119029E-03
   7102.67  8.4094848E-03
   7103.00  8.7290785E-03
   7103.33  9.0766547E-03
   7103.67  9.4524834E-03
   7104.00  9.8599652E-03
   7104.33  1.0308341E-02
   7104.67  1.0798739E-02
   7105.00  1.1336995E-02
   7105.33  1.1938391E-02
   7105.67  1.2606191E-02
   7106.00  1.3351295E-02
   7106.33  1.4201336E-02
   7106.67  1.5165346E-02
   7107.00  1.6266219E-02
   7107.33  1.7560736E-02
   7107.67  1.9075934E-02
   7108.00  2.0869139E-02
   7108.33  2.3082621E-02
   7108.67  2.5815122E-02
   7109.00  2.9258122E-02
   7109.33  3.3912583E-02
   7109.67  4.0307020E-02
   7110.00  4.9481451E-02
   7110.33  6.4381692E-02
   7110.67  8.7776444E-02
   7111.00  1.1889127E-01
   7111.33  1.4608154E-01
   7111.67  1.7068511E-01
   7112.00  2.0518505E-01
   7112.33  2.5237174E-01
   7112.67  3.0339881E-01
   7113.00  3.4744460E-01
   7113.33  3.7090314E-01
   7113.67  3.9021578E-01
   7114.00  4.1984899E-01
   7114.33  4.5030364E-01
   7114.67  4.5873350E-01
   7115.00  4.3900227E-01
   7115.33  3.9923993E-01
   7115.67  3.5644432E-01
   7116.00  3.1924097E-01
   7116.33  2.9301967E-01
   7116.67  2.7711972E-01
   7117.00  2.7070028E-01
   7117.33  2.7190328E-01
   7117.67  2.7440879E-01
   7118.00  2.7258242E-01
   7118.33  2.6229747E-01
   7118.67  2.4659341E-01
   7119.00  2.2909547E-01
   7119.33  2.1276492E-01
   7119.67  1.9819363E-01
   7120.00  1.8529790E-01
   7120.33  1.7417201E-01
   7120.67  1.6448356E-01
   7121.00  1.5598364E-01
   7121.33  1.4848659E-01
   7121.67  1.4197680E-01
   7122.00  1.3699672E-01
   7122.33  1.3447078E-01
   7122.67  1.3418096E-01
   7123.00  1.3570880E-01
   7123.33  1.3865962E-01
   7123.67  1.4265178E-01
   7124.00  1.4779340E-01
   7124.33  1.5448191E-01
   7124.67  1.6274061E-01
   7125.00  1.7279437E-01
   7125.33  1.8524753E-01
   7125.67  2.0028172E-01
   7126.00  2.1848760E-01
   7126.33  2.4116846E-01
   7126.67  2.6813430E-01
   7127.00  2.9862416E-01
   7127.33  3.3043408E-01
   7127.67  3.6069749E-01
   7128.00  3.8828684E-01
   7128.33  4.1303620E-01
   7128.67  4.3542592E-01
   7129.00  4.5513456E-01
   7129.33  4.7173135E-01
   7129.67  4.8633890E-01
   7130.00  5.0012188E-01
   7130.33  5.1453622E-01
   7130.67  5.3052657E-01
   7131.00  5.4867289E-01
   7131.33  5.6983893E-01
   7131.67  5.9399149E-01
   7132.00  6.2105043E-01
   7132.33  6.5069665E-01
   7132.67  6.8151722E-01
   7133.00  7.1226990E-01
   7133.33  7.4122715E-01
   7133.67  7.6723395E-01
   7134.00  7.8943925E-01
   7134.33  8.0678311E-01
   7134.67  8.1977579E-01
   7135.00  8.2870070E-01
   7135.33  8.3365163E-01
   7135.67  8.3560269E-01
   7136.00  8.3482284E-01
   7136.33  8.3092611E-01
   7136.67  8.2386529E-01
   7137.00  8.1316625E-01
   7137.33  7.9790357E-01
   7137.67  7.7862797E-01
   7138.00  7.5590440E-01
   7138.33  7.3069884E-01
   7138.67  7.0490680E-01
   7139.00  6.7994757E-01
   7139.33  6.5750099E-01
   7139.67  6.3824881E-01
   7140.00  6.2262507E-01
   7140.33  6.1120294E-01
   7140.67  6.0333658E-01
   7141.00  5.9875318E-01
   7141.33  5.9744072E-01
   7141.67  5.9864337E-01
   7142.00  6.0202013E-01
   7142.33  6.0736845E-01
   7142.67  6.1398400E-01
   7143.00  6.2136862E-01
   7143.33  6.2883567E-01
   7143.67  6.3557762E-01
   7144.00  6.4088436E-01
   7144.33  6.4374082E-01
   7144.67  6.4390019E-01
   7145.00  6.4117576E-01
   7145.33  6.3532899E-01
   7145.67  6.2711097E-01
   7146.00  6.1702234E-01
   7146.33  6.0556381E-01
   7146.67  5.9351040E-01
   7147.00  5.8128943E-01
   7147.33  5.6926688E-01
   7147.67  5.5765898E-01
   7148.00  5.4661389E-01
   7148.33  5.3633721E-01
   7148.67  5.2682232E-01
   7149.00  5.1811193E-01
   7149.33  5.1033901E-01
   7149.67  5.0341381E-01
   7150.00  4.9734205E-01
   7150.33  4.9223222E-01
   7150.67  4.8797466E-01
   7151.00  4.8455923E-01
   7151.33  4.8206496E-01
   7151.67  4.8036948E-01
   7152.00  4.7946448E-01
   7152.33  4.7943119E-01
   7152.67  4.8013663E-01
   7153.00  4.8153897E-01
   7153.33  4.8365883E-01
   7153.67  4.8634551E-01
   7154.00  4.8952850E-01
   7154.33  4.9316503E-01
   7154.67  4.9709885E-01
   7155.00  5.0123256E-01
   7155.33  5.0546536E-01
   7155.67  5.0968270E-01
   7156.00  5.1380573E-01
   7156.33  5.1773613E-01
   7156.67  5.2143568E-01
   7157.00  5.2486713E-01
   7157.33  5.2796575E-01
   7157.67  5.3075583E-01
   7158.00  5.3323641E-01
   7158.33  5.3537816E-01
   7158.67  5.3723466E-01
   7159.00  5.3882374E-01
   7159.33  5.4013884E-01
   7159.67  5.4123550E-01
   7160.00  5.4213519E-01
   7160.33  5.4284084E-01
   7160.67  5.4339719E-01
   7161.00  5.4382261E-01
   7161.33  5.4412239E-01
   7161.67  5.4432719E-01
   7162.00  5.4444945E-01
   7162.33  5.4449297E-01
   7162.67  5.4447713E-01
   7163.00  5.4440949E-01
   7163.33  5.4429204E-01
   7163.67  5.4413463E-01
   7164.00  5.4393085E-01
   7164.33  5.4366024E-01
   7164.67  5.4332668E-01
   7165.00  5.4292873E-01
   7165.33  5.4245116E-01
   7165.67  5.4189074E-01
   7166.00  5.4123382E-01
   7166.33  5.4044739E-01
   7166.67  5.3952495E-01
   7167.00  5.3844839E-01
   7167.33  5.3717608E-01
   7167.67  5.3571192E-01
   7168.00  5.3404429E-01
   7168.33  5.3214277E-01
   7168.67  5.3003831E-01
   7169.00  5.2773927E-01
   7169.33  5.2524461E-01
   7169.67  5.2260805E-01
   7170.00  5.1986000E-01
   7170.33  5.1703260E-01
   7170.67  5.1418525E-01
   7171.00  5.1137310E-01
   7171.33  5.0870178E-01
   7171.67  5.0629741E-01
   7172.00  5.0433168E-01
