    FDMNES
    energy     <xanes>
   7097.00  4.9307969E-03
   7097.33  5.0439970E-03
   7097.67  5.1621382E-03
   7098.00  5.2855424E-03
   7098.33  5.4153319E-03
   7098.67  5.5512559E-03
   7099.00  5.6937485E-03
   7099.33  5.8442627E-03
   7099.67  6.0025366E-03
   7100.00  6.1691712E-03
   7100.33  6.3460950E-03
   7100.67  6.5330533E-03
   7101.00  6.7309044E-03
   7101.33  6.9422845E-03
   7101.67  7.1669894E-03
   7102.00  7.4062892E-03
   7102.33  7.6639204E-03
   7102.67  7.9398251E-03
   7103.00  8.2359681E-03
   7103.33  8.5578866E-03
   7103.67  8.9058897E-03
   7104.00  9.2831881E-03
   7104.33  9.6984632E-03
   7104.67  1.0152923E-02
   7105.00  1.0652196E-02
   7105.33  1.1210929E-02
   7105.67  1.1832619E-02
   7106.00  1.2528094E-02
   7106.33  1.3324647E-02
   7106.67  1.4232155E-02
   7107.00  1.5274314E-02
   7107.33  1.6509710E-02
   7107.67  1.7968973E-02
   7108.00  1.9714813E-02
   7108.33  2.1903253E-02
   7108.67  2.4651719E-02
   7109.00  2.8184659E-02
   7109.33  3.3095117E-02
   7109.67  4.0046267E-02
   7110.00  5.0345025E-02
   7110.33  6.7756603E-02
   7110.67  9.6179618E-02
   7111.00  1.3549967E-01
   7111.33  1.6771106E-01
   7111.67  1.8537526E-01
   7112.00  2.0402416E-01
   7112.33  2.3217399E-01
   7112.67  2.5665517E-01
   7113.00  2.6761363E-01
   7113.33  2.6934211E-01
   7113.67  2.7616012E-01
   7114.00  2.9171961E-01
   7114.33  3.0066638E-01
   7114.67  2.8737556E-01
   7115.00  2.6016639E-01
   7115.33  2.3938619E-01
   7115.67  2.3262389E-01
   7116.00  2.4039695E-01
   7116.33  2.6607989E-01
   7116.67  3.0947059E-01
   7117.00  3.5909626E-01
   7117.33  3.6985503E-01
   7117.67  3.3143497E-01
   7118.00  2.7593829E-01
   7118.33  2.3113042E-01
   7118.67  1.9886185E-01
   7119.00  1.7701991E-01
   7119.33  1.6365486E-01
   7119.67  1.5468225E-01
   7120.00  1.4852381E-01
   7120.33  1.4535119E-01
   7120.67  1.4430084E-01
   7121.00  1.4503134E-01
   7121.33  1.4869232E-01
   7121.67  1.5611447E-01
   7122.00  1.6782050E-01
   7122.33  1.8384054E-01
   7122.67  2.0176177E-01
   7123.00  2.2006327E-01
   7123.33  2.3938667E-01
   7123.67  2.5975094E-01
   7124.00  2.7887855E-01
   7124.33  2.9440522E-01
   7124.67  3.0864839E-01
   7125.00  3.2458280E-01
   7125.33  3.4455415E-01
   7125.67  3.6770125E-01
   7126.00  3.9282450E-01
   7126.33  4.1978995E-01
   7126.67  4.4971826E-01
   7127.00  4.8354495E-01
   7127.33  5.2012395E-01
   7127.67  5.5422445E-01
   7128.00  5.8008807E-01
   7128.33  5.9169065E-01
   7128.67  5.9258323E-01
   7129.00  5.8903339E-01
   7129.33  5.8940748E-01
   7129.67  5.9795386E-01
   7130.00  6.1515832E-01
   7130.33  6.3892443E-01
   7130.67  6.6327402E-01
   7131.00  6.8333667E-01
   7131.33  6.9495328E-01
   7131.67  7.0005102E-01
   7132.00  7.0162526E-01
   7132.33  7.0305018E-01
   7132.67  7.0647070E-01
   7133.00  7.1279767E-01
   7133.33  7.2260917E-01
   7133.67  7.3465212E-01
   7134.00  7.4726111E-01
   7134.33  7.5686138E-01
   7134.67  7.5894443E-01
   7135.00  7.4955999E-01
   7135.33  7.2695739E-01
   7135.67  6.9751767E-01
   7136.00  6.6627841E-01
   7136.33  6.3717276E-01
   7136.67  6.1129202E-01
   7137.00  5.8869753E-01
   7137.33  5.6930273E-01
   7137.67  5.5215568E-01
   7138.00  5.3681967E-01
   7138.33  5.2324854E-01
   7138.67  5.1137472E-01
   7139.00  5.0154387E-01
   7139.33  4.9455040E-01
   7139.67  4.9043438E-01
   7140.00  4.8929392E-01
   7140.33  4.9131223E-01
   7140.67  4.9566095E-01
   7141.00  5.0169048E-01
   7141.33  5.0852151E-01
   7141.67  5.1502433E-01
   7142.00  5.2040652E-01
   7142.33  5.2380819E-01
   7142.67  5.2519868E-01
   7143.00  5.2466324E-01
   7143.33  5.2236860E-01
   7143.67  5.1903180E-01
   7144.00  5.1513333E-01
   7144.33  5.1117976E-01
   7144.67  5.0758573E-01
   7145.00  5.0460104E-01
   7145.33  5.0250183E-01
   7145.67  5.0126512E-01
   7146.00  5.0089416E-01
   7146.33  5.0144738E-01
   7146.67  5.0274565E-01
   7147.00  5.0471060E-01
   7147.33  5.0732072E-01
   7147.67  5.1041676E-01
   7148.00  5.1393226E-01
   7148.33  5.1785129E-01
   7148.67  5.2209014E-01
   7149.00  5.2662917E-01
   7149.33  5.3150149E-01
   7149.67  5.3668565E-01
   7150.00  5.4220089E-01
   7150.33  5.4811076E-01
   7150.67  5.5438083E-01
   7151.00  5.6100717E-01
   7151.33  5.6801195E-01
   7151.67  5.7531631E-01
   7152.00  5.8287488E-01
   7152.33  5.9064220E-01
   7152.67  5.9850886E-01
   7153.00  6.0638627E-01
   7153.33  6.1414100E-01
   7153.67  6.2164971E-01
   7154.00  6.2878353E-01
   7154.33  6.3531777E-01
   7154.67  6.4115712E-01
   7155.00  6.4616334E-01
   7155.33  6.5006635E-01
   7155.67  6.5286952E-01
   7156.00  6.5449992E-01
   7156.33  6.5475993E-01
   7156.67  6.5380093E-01
   7157.00  6.5165603E-01
   7157.33  6.4825902E-01
   7157.67  6.4385181E-01
   7158.00  6.3854073E-01
   7158.33  6.3236820E-01
   7158.67  6.2557694E-01
   7159.00  6.1829534E-01
   7159.33  6.1062579E-01
   7159.67  6.0274687E-01
   7160.00  5.9476331E-01
   7160.33  5.8678032E-01
   7160.67  5.7888649E-01
   7161.00  5.7114150E-01
   7161.33  5.6361681E-01
   7161.67  5.5631518E-01
   7162.00  5.4924828E-01
   7162.33  5.4245258E-01
   7162.67  5.3590202E-01
   7163.00  5.2959774E-01
   7163.33  5.2356333E-01
   7163.67  5.1775837E-01
   7164.00  5.1217203E-01
   7164.33  5.0681634E-01
   7164.67  5.0165118E-01
   7165.00  4.9666313E-01
   7165.33  4.9185432E-01
   7165.67  4.8718442E-01
   7166.00  4.8263450E-01
   7166.33  4.7819346E-01
   7166.67  4.7382548E-01
   7167.00  4.6951021E-01
   7167.33  4.6522987E-01
   7167.67  4.6096581E-01
   7168.00  4.5670803E-01
   7168.33  4.5244989E-01
   7168.67  4.4819563E-01
   7169.00  4.4395782E-01
   7169.33  4.3976676E-01
   7169.67  4.3565380E-01
   7170.00  4.3165829E-01
   7170.33  4.2785376E-01
   7170.67  4.2427533E-01
   7171.00  4.2097393E-01
   7171.33  4.1805852E-01
   7171.67  4.1556948E-01
   7172.00  4.1359136E-01
