    FDMNES
    energy     <xanes>
   7097.00  5.0243795E-03
   7097.33  5.1492082E-03
   7097.67  5.2799725E-03
   7098.00  5.4170939E-03
   7098.33  5.5619800E-03
   7098.67  5.7143782E-03
   7099.00  5.8748710E-03
   7099.33  6.0453250E-03
   7099.67  6.2254927E-03
   7100.00  6.4162026E-03
   7100.33  6.6200007E-03
   7100.67  6.8366818E-03
   7101.00  7.0674639E-03
   7101.33  7.3159375E-03
   7101.67  7.5820213E-03
   7102.00  7.8675779E-03
   7102.33  8.1778772E-03
   7102.67  8.5131424E-03
   7103.00  8.8763591E-03
   7103.33  9.2756480E-03
   7103.67  9.7119493E-03
   7104.00  1.0190333E-02
   7104.33  1.0724089E-02
   7104.67  1.1315873E-02
   7105.00  1.1974937E-02
   7105.33  1.2724760E-02
   7105.67  1.3572329E-02
   7106.00  1.4536170E-02
   7106.33  1.5662126E-02
   7106.67  1.6969216E-02
   7107.00  1.8499451E-02
   7107.33  2.0355437E-02
   7107.67  2.2594933E-02
   7108.00  2.5331530E-02
   7108.33  2.8845315E-02
   7108.67  3.3350829E-02
   7109.00  3.9249806E-02
   7109.33  4.7587723E-02
   7109.67  5.9494475E-02
   7110.00  7.7154379E-02
   7110.33  1.0679721E-01
   7110.67  1.5567314E-01
   7111.00  2.3023187E-01
   7111.33  3.3032448E-01
   7111.67  4.4259607E-01
   7112.00  5.3519489E-01
   7112.33  5.2537964E-01
   7112.67  4.2655048E-01
   7113.00  3.2445525E-01
   7113.33  2.6286836E-01
   7113.67  2.1956747E-01
   7114.00  1.8819496E-01
   7114.33  1.7056913E-01
   7114.67  1.5582186E-01
   7115.00  1.3446583E-01
   7115.33  1.0895582E-01
   7115.67  8.8982490E-02
   7116.00  7.6507617E-02
   7116.33  7.0471484E-02
   7116.67  6.8258498E-02
   7117.00  6.8923627E-02
   7117.33  7.2125759E-02
   7117.67  7.7143981E-02
   7118.00  8.3961317E-02
   7118.33  9.3625934E-02
   7118.67  1.0621354E-01
   7119.00  1.2087977E-01
   7119.33  1.3521663E-01
   7119.67  1.4766701E-01
   7120.00  1.5964796E-01
   7120.33  1.7418017E-01
   7120.67  1.9153856E-01
   7121.00  2.1037436E-01
   7121.33  2.3034265E-01
   7121.67  2.5273821E-01
   7122.00  2.7839660E-01
   7122.33  3.0794057E-01
   7122.67  3.4135290E-01
   7123.00  3.7909293E-01
   7123.33  4.2104705E-01
   7123.67  4.6442827E-01
   7124.00  5.0605812E-01
   7124.33  5.4065043E-01
   7124.67  5.6484312E-01
   7125.00  5.7701723E-01
   7125.33  5.7733241E-01
   7125.67  5.7066595E-01
   7126.00  5.6080516E-01
   7126.33  5.5239750E-01
   7126.67  5.4830092E-01
   7127.00  5.4942987E-01
   7127.33  5.5578516E-01
   7127.67  5.6475748E-01
   7128.00  5.7390119E-01
   7128.33  5.8017654E-01
   7128.67  5.8231550E-01
   7129.00  5.8027214E-01
   7129.33  5.7485995E-01
   7129.67  5.6814352E-01
   7130.00  5.6134638E-01
   7130.33  5.5536196E-01
   7130.67  5.5028974E-01
   7131.00  5.4603037E-01
   7131.33  5.4254092E-01
   7131.67  5.3973471E-01
   7132.00  5.3768469E-01
   7132.33  5.3654564E-01
   7132.67  5.3615974E-01
   7133.00  5.3635323E-01
   7133.33  5.3679378E-01
   7133.67  5.3712886E-01
   7134.00  5.3742445E-01
   7134.33  5.3838804E-01
   7134.67  5.4082977E-01
   7135.00  5.4533864E-01
   7135.33  5.5252930E-01
   7135.67  5.6208317E-01
   7136.00  5.7377101E-01
   7136.33  5.8728591E-01
   7136.67  6.0164982E-01
   7137.00  6.1603790E-01
   7137.33  6.2933979E-01
   7137.67  6.4085647E-01
   7138.00  6.5014935E-01
   7138.33  6.5679226E-01
   7138.67  6.6131730E-01
   7139.00  6.6414242E-01
   7139.33  6.6576125E-01
   7139.67  6.6698441E-01
   7140.00  6.6835247E-01
   7140.33  6.7040862E-01
   7140.67  6.7322790E-01
   7141.00  6.7660983E-01
   7141.33  6.7995476E-01
   7141.67  6.8245881E-01
   7142.00  6.8347294E-01
   7142.33  6.8229427E-01
   7142.67  6.7915365E-01
   7143.00  6.7436694E-01
   7143.33  6.6837753E-01
   7143.67  6.6190184E-01
   7144.00  6.5531494E-01
   7144.33  6.4888775E-01
   7144.67  6.4269035E-01
   7145.00  6.3670801E-01
   7145.33  6.3094624E-01
   7145.67  6.2541868E-01
   7146.00  6.2020880E-01
   7146.33  6.1550820E-01
   7146.67  6.1140176E-01
   7147.00  6.0798759E-01
   7147.33  6.0542146E-01
   7147.67  6.0360434E-01
   7148.00  6.0248377E-01
   7148.33  6.0203274E-01
   7148.67  6.0205251E-01
   7149.00  6.0243188E-01
   7149.33  6.0307689E-01
   7149.67  6.0384592E-01
   7150.00  6.0465174E-01
   7150.33  6.0539379E-01
   7150.67  6.0599135E-01
   7151.00  6.0637151E-01
   7151.33  6.0641322E-01
   7151.67  6.0606961E-01
   7152.00  6.0526634E-01
   7152.33  6.0385389E-01
   7152.67  6.0183154E-01
   7153.00  5.9915502E-01
   7153.33  5.9570557E-01
   7153.67  5.9155775E-01
   7154.00  5.8671885E-01
   7154.33  5.8113032E-01
   7154.67  5.7491174E-01
   7155.00  5.6809851E-01
   7155.33  5.6066202E-01
   7155.67  5.5270805E-01
   7156.00  5.4426372E-01
   7156.33  5.3529737E-01
   7156.67  5.2589029E-01
   7157.00  5.1606359E-01
   7157.33  5.0579770E-01
   7157.67  4.9517940E-01
   7158.00  4.8425006E-01
   7158.33  4.7303508E-01
   7158.67  4.6163128E-01
   7159.00  4.5009796E-01
   7159.33  4.3850672E-01
   7159.67  4.2696021E-01
   7160.00  4.1554668E-01
   7160.33  4.0439306E-01
   7160.67  3.9356214E-01
   7161.00  3.8312633E-01
   7161.33  3.7321671E-01
   7161.67  3.6383310E-01
   7162.00  3.5501228E-01
   7162.33  3.4685480E-01
   7162.67  3.3930026E-01
   7163.00  3.3235200E-01
   7163.33  3.2607956E-01
   7163.67  3.2039258E-01
   7164.00  3.1527739E-01
   7164.33  3.1079187E-01
   7164.67  3.0685432E-01
   7165.00  3.0345470E-01
   7165.33  3.0064814E-01
   7165.67  2.9835975E-01
   7166.00  2.9658310E-01
   7166.33  2.9537380E-01
   7166.67  2.9466114E-01
   7167.00  2.9443825E-01
   7167.33  2.9475651E-01
   7167.67  2.9554573E-01
   7168.00  2.9679546E-01
   7168.33  2.9854679E-01
   7168.67  3.0072554E-01
   7169.00  3.0331150E-01
   7169.33  3.0632212E-01
   7169.67  3.0967207E-01
   7170.00  3.1331988E-01
   7170.33  3.1723400E-01
   7170.67  3.2130447E-01
   7171.00  3.2543877E-01
   7171.33  3.2946828E-01
   7171.67  3.3315060E-01
   7172.00  3.3617298E-01
