    FDMNES
    energy     <xanes>
   7097.00  4.9123758E-03
   7097.33  5.0228618E-03
   7097.67  5.1381530E-03
   7098.00  5.2585651E-03
   7098.33  5.3851950E-03
   7098.67  5.5178032E-03
   7099.00  5.6568177E-03
   7099.33  5.8036633E-03
   7099.67  5.9580924E-03
   7100.00  6.1207007E-03
   7100.33  6.2933874E-03
   7100.67  6.4759166E-03
   7101.00  6.6691436E-03
   7101.33  6.8756784E-03
   7101.67  7.0953426E-03
   7102.00  7.3294096E-03
   7102.33  7.5816017E-03
   7102.67  7.8518986E-03
   7103.00  8.1422835E-03
   7103.33  8.4583101E-03
   7103.67  8.8003471E-03
   7104.00  9.1716571E-03
   7104.33  9.5810106E-03
   7104.67  1.0029719E-02
   7105.00  1.0523535E-02
   7105.33  1.1077360E-02
   7105.67  1.1694886E-02
   7106.00  1.2387228E-02
   7106.33  1.3182301E-02
   7106.67  1.4090377E-02
   7107.00  1.5135796E-02
   7107.33  1.6378566E-02
   7107.67  1.7850107E-02
   7108.00  1.9614449E-02
   7108.33  2.1830406E-02
   7108.67  2.4616193E-02
   7109.00  2.8197120E-02
   7109.33  3.3165081E-02
   7109.67  4.0169336E-02
   7110.00  5.0483137E-02
   7110.33  6.7753839E-02
   7110.67  9.5807177E-02
   7111.00  1.3545967E-01
   7111.33  1.7486503E-01
   7111.67  2.0306719E-01
   7112.00  2.2141671E-01
   7112.33  2.4177381E-01
   7112.67  2.7171746E-01
   7113.00  3.0629086E-01
   7113.33  3.3147655E-01
   7113.67  3.4292599E-01
   7114.00  3.3769257E-01
   7114.33  3.0956697E-01
   7114.67  2.7158206E-01
   7115.00  2.3623600E-01
   7115.33  2.1064531E-01
   7115.67  1.9206048E-01
   7116.00  1.7768261E-01
   7116.33  1.6476576E-01
   7116.67  1.5182603E-01
   7117.00  1.4000604E-01
   7117.33  1.3177035E-01
   7117.67  1.2753888E-01
   7118.00  1.2716578E-01
   7118.33  1.3019384E-01
   7118.67  1.3447756E-01
   7119.00  1.3824753E-01
   7119.33  1.4055899E-01
   7119.67  1.4235074E-01
   7120.00  1.4434262E-01
   7120.33  1.4621884E-01
   7120.67  1.4687804E-01
   7121.00  1.4647048E-01
   7121.33  1.4676099E-01
   7121.67  1.4909332E-01
   7122.00  1.5401338E-01
   7122.33  1.6227107E-01
   7122.67  1.7403720E-01
   7123.00  1.8974344E-01
   7123.33  2.0990918E-01
   7123.67  2.3361902E-01
   7124.00  2.6025305E-01
   7124.33  2.8957435E-01
   7124.67  3.2087574E-01
   7125.00  3.5267371E-01
   7125.33  3.8103743E-01
   7125.67  4.0400119E-01
   7126.00  4.2265496E-01
   7126.33  4.3976287E-01
   7126.67  4.5751323E-01
   7127.00  4.7633061E-01
   7127.33  4.9602879E-01
   7127.67  5.1632315E-01
   7128.00  5.3739811E-01
   7128.33  5.5969232E-01
   7128.67  5.8250283E-01
   7129.00  6.0464045E-01
   7129.33  6.2551855E-01
   7129.67  6.4550591E-01
   7130.00  6.6462521E-01
   7130.33  6.8355529E-01
   7130.67  7.0277644E-01
   7131.00  7.2178847E-01
   7131.33  7.4048061E-01
   7131.67  7.6030061E-01
   7132.00  7.8281887E-01
   7132.33  8.0963594E-01
   7132.67  8.4036540E-01
   7133.00  8.7405740E-01
   7133.33  9.0781219E-01
   7133.67  9.3680729E-01
   7134.00  9.5635511E-01
   7134.33  9.6051690E-01
   7134.67  9.4978941E-01
   7135.00  9.2600307E-01
   7135.33  8.9241416E-01
   7135.67  8.5484736E-01
   7136.00  8.1657845E-01
   7136.33  7.8033859E-01
   7136.67  7.4713478E-01
   7137.00  7.1727276E-01
   7137.33  6.9098535E-01
   7137.67  6.6747177E-01
   7138.00  6.4637886E-01
   7138.33  6.2766200E-01
   7138.67  6.1088878E-01
   7139.00  5.9600918E-01
   7139.33  5.8325605E-01
   7139.67  5.7237081E-01
   7140.00  5.6325326E-01
   7140.33  5.5585437E-01
   7140.67  5.4963743E-01
   7141.00  5.4425558E-01
   7141.33  5.3935353E-01
   7141.67  5.3452458E-01
   7142.00  5.2954456E-01
   7142.33  5.2422163E-01
   7142.67  5.1854824E-01
   7143.00  5.1255428E-01
   7143.33  5.0629863E-01
   7143.67  4.9992996E-01
   7144.00  4.9356022E-01
   7144.33  4.8733330E-01
   7144.67  4.8135095E-01
   7145.00  4.7570241E-01
   7145.33  4.7052772E-01
   7145.67  4.6584131E-01
   7146.00  4.6168294E-01
   7146.33  4.5814625E-01
   7146.67  4.5516248E-01
   7147.00  4.5271057E-01
   7147.33  4.5081106E-01
   7147.67  4.4936234E-01
   7148.00  4.4833677E-01
   7148.33  4.4776427E-01
   7148.67  4.4758751E-01
   7149.00  4.4780963E-01
   7149.33  4.4849731E-01
   7149.67  4.4962283E-01
   7150.00  4.5121019E-01
   7150.33  4.5334742E-01
   7150.67  4.5599291E-01
   7151.00  4.5915211E-01
   7151.33  4.6287466E-01
   7151.67  4.6705854E-01
   7152.00  4.7164537E-01
   7152.33  4.7657555E-01
   7152.67  4.8168327E-01
   7153.00  4.8683994E-01
   7153.33  4.9187015E-01
   7153.67  4.9662889E-01
   7154.00  5.0099425E-01
   7154.33  5.0479006E-01
   7154.67  5.0800591E-01
   7155.00  5.1061228E-01
   7155.33  5.1253156E-01
   7155.67  5.1386265E-01
   7156.00  5.1463473E-01
   7156.33  5.1482265E-01
   7156.67  5.1453713E-01
   7157.00  5.1382502E-01
   7157.33  5.1270862E-01
   7157.67  5.1131430E-01
   7158.00  5.0972098E-01
   7158.33  5.0801366E-01
   7158.67  5.0630084E-01
   7159.00  5.0465565E-01
   7159.33  5.0316353E-01
   7159.67  5.0185460E-01
   7160.00  5.0075107E-01
   7160.33  4.9988393E-01
   7160.67  4.9920983E-01
   7161.00  4.9869783E-01
   7161.33  4.9831036E-01
   7161.67  4.9797148E-01
   7162.00  4.9762518E-01
   7162.33  4.9720055E-01
   7162.67  4.9664747E-01
   7163.00  4.9592043E-01
   7163.33  4.9495493E-01
   7163.67  4.9375638E-01
   7164.00  4.9231760E-01
   7164.33  4.9061375E-01
   7164.67  4.8869366E-01
   7165.00  4.8658542E-01
   7165.33  4.8431545E-01
   7165.67  4.8195732E-01
   7166.00  4.7956567E-01
   7166.33  4.7721157E-01
   7166.67  4.7495439E-01
   7167.00  4.7284253E-01
   7167.33  4.7094693E-01
   7167.67  4.6927703E-01
   7168.00  4.6784940E-01
   7168.33  4.6669982E-01
   7168.67  4.6578934E-01
   7169.00  4.6510602E-01
   7169.33  4.6465601E-01
   7169.67  4.6438575E-01
   7170.00  4.6426974E-01
   7170.33  4.6429429E-01
   7170.67  4.6441538E-01
   7171.00  4.6460906E-01
   7171.33  4.6485058E-01
   7171.67  4.6509640E-01
   7172.00  4.6530403E-01
