    FDMNES
    energy     <xanes>
   7097.00  5.5710087E-03
   7097.33  5.7051599E-03
   7097.67  5.8455141E-03
   7098.00  5.9924985E-03
   7098.33  6.1475613E-03
   7098.67  6.3104194E-03
   7099.00  6.4816577E-03
   7099.33  6.6631790E-03
   7099.67  6.8546973E-03
   7100.00  7.0570352E-03
   7100.33  7.2727602E-03
   7100.67  7.5016148E-03
   7101.00  7.7447930E-03
   7101.33  8.0058694E-03
   7101.67  8.2846846E-03
   7102.00  8.5830372E-03
   7102.33  8.9060933E-03
   7102.67  9.2539449E-03
   7103.00  9.6294235E-03
   7103.33  1.0040342E-02
   7103.67  1.0487388E-02
   7104.00  1.0975266E-02
   7104.33  1.1516470E-02
   7104.67  1.2113102E-02
   7105.00  1.2773516E-02
   7105.33  1.3519152E-02
   7105.67  1.4355615E-02
   7106.00  1.5299071E-02
   7106.33  1.6389859E-02
   7106.67  1.7643022E-02
   7107.00  1.9093666E-02
   7107.33  2.0827880E-02
   7107.67  2.2889914E-02
   7108.00  2.5369679E-02
   7108.33  2.8488427E-02
   7108.67  3.2403382E-02
   7109.00  3.7413071E-02
   7109.33  4.4288573E-02
   7109.67  5.3822586E-02
   7110.00  6.7551657E-02
   7110.33  8.9820823E-02
   7110.67  1.2531869E-01
   7111.00  1.7573465E-01
   7111.33  2.2671724E-01
   7111.67  2.8748190E-01
   7112.00  3.8846839E-01
   7112.33  5.4087413E-01
   7112.67  6.8661479E-01
   7113.00  7.4467280E-01
   7113.33  5.6319657E-01
   7113.67  3.5920155E-01
   7114.00  2.3367548E-01
   7114.33  1.7087055E-01
   7114.67  1.3696014E-01
   7115.00  1.2014260E-01
   7115.33  1.0518633E-01
   7115.67  8.7217922E-02
   7116.00  7.2965123E-02
   7116.33  6.4388235E-02
   7116.67  5.9107100E-02
   7117.00  5.6024762E-02
   7117.33  5.4610741E-02
   7117.67  5.4312549E-02
   7118.00  5.4973800E-02
   7118.33  5.6626709E-02
   7118.67  5.9153171E-02
   7119.00  6.2596367E-02
   7119.33  6.7193956E-02
   7119.67  7.2996457E-02
   7120.00  8.0222351E-02
   7120.33  8.9433759E-02
   7120.67  1.0082043E-01
   7121.00  1.1469011E-01
   7121.33  1.3140701E-01
   7121.67  1.5036179E-01
   7122.00  1.7167511E-01
   7122.33  1.9706292E-01
   7122.67  2.2793749E-01
   7123.00  2.6581345E-01
   7123.33  3.1336249E-01
   7123.67  3.7096942E-01
   7124.00  4.3965982E-01
   7124.33  5.2143811E-01
   7124.67  6.1407822E-01
   7125.00  7.1531785E-01
   7125.33  8.2076174E-01
   7125.67  9.2302412E-01
   7126.00  1.0154010E+00
   7126.33  1.0886533E+00
   7126.67  1.1403235E+00
   7127.00  1.1692079E+00
   7127.33  1.1734601E+00
   7127.67  1.1583526E+00
   7128.00  1.1280978E+00
   7128.33  1.0889391E+00
   7128.67  1.0492409E+00
   7129.00  1.0124892E+00
   7129.33  9.7672629E-01
   7129.67  9.3813477E-01
   7130.00  8.9715870E-01
   7130.33  8.5669616E-01
   7130.67  8.1860122E-01
   7131.00  7.8320818E-01
   7131.33  7.5023196E-01
   7131.67  7.1891843E-01
   7132.00  6.8975912E-01
   7132.33  6.6432717E-01
   7132.67  6.4265731E-01
   7133.00  6.2425077E-01
   7133.33  6.0845252E-01
   7133.67  5.9423435E-01
   7134.00  5.8129064E-01
   7134.33  5.6987458E-01
   7134.67  5.6046058E-01
   7135.00  5.5401852E-01
   7135.33  5.5197115E-01
   7135.67  5.5317627E-01
   7136.00  5.5558050E-01
   7136.33  5.5673605E-01
   7136.67  5.5596904E-01
   7137.00  5.5353879E-01
   7137.33  5.4992184E-01
   7137.67  5.4575458E-01
   7138.00  5.4130861E-01
   7138.33  5.3675408E-01
   7138.67  5.3220811E-01
   7139.00  5.2771649E-01
   7139.33  5.2330090E-01
   7139.67  5.1894671E-01
   7140.00  5.1464476E-01
   7140.33  5.1037186E-01
   7140.67  5.0609158E-01
   7141.00  5.0178118E-01
   7141.33  4.9741823E-01
   7141.67  4.9300277E-01
   7142.00  4.8853795E-01
   7142.33  4.8402950E-01
   7142.67  4.7949633E-01
   7143.00  4.7494972E-01
   7143.33  4.7039673E-01
   7143.67  4.6583688E-01
   7144.00  4.6126047E-01
   7144.33  4.5664003E-01
   7144.67  4.5194600E-01
   7145.00  4.4714030E-01
   7145.33  4.4214945E-01
   7145.67  4.3693555E-01
   7146.00  4.3144728E-01
   7146.33  4.2558578E-01
   7146.67  4.1934330E-01
   7147.00  4.1268812E-01
   7147.33  4.0554451E-01
   7147.67  3.9796609E-01
   7148.00  3.8997132E-01
   7148.33  3.8155730E-01
   7148.67  3.7283809E-01
   7149.00  3.6389067E-01
   7149.33  3.5481224E-01
   7149.67  3.4574860E-01
   7150.00  3.3682123E-01
   7150.33  3.2820964E-01
   7150.67  3.2001967E-01
   7151.00  3.1236318E-01
   7151.33  3.0542863E-01
   7151.67  2.9921335E-01
   7152.00  2.9376035E-01
   7152.33  2.8919362E-01
   7152.67  2.8541721E-01
   7153.00  2.8241800E-01
   7153.33  2.8025969E-01
   7153.67  2.7880834E-01
   7154.00  2.7802372E-01
   7154.33  2.7793182E-01
   7154.67  2.7840285E-01
   7155.00  2.7939121E-01
   7155.33  2.8090275E-01
   7155.67  2.8282977E-01
   7156.00  2.8513291E-01
   7156.33  2.8781294E-01
   7156.67  2.9079316E-01
   7157.00  2.9404921E-01
   7157.33  2.9759086E-01
   7157.67  3.0137094E-01
   7158.00  3.0538120E-01
   7158.33  3.0964629E-01
   7158.67  3.1413993E-01
   7159.00  3.1886814E-01
   7159.33  3.2387419E-01
   7159.67  3.2914508E-01
   7160.00  3.3470034E-01
   7160.33  3.4060567E-01
   7160.67  3.4685187E-01
   7161.00  3.5346565E-01
   7161.33  3.6052811E-01
   7161.67  3.6801978E-01
   7162.00  3.7596339E-01
   7162.33  3.8443525E-01
   7162.67  3.9338124E-01
   7163.00  4.0279216E-01
   7163.33  4.1269301E-01
   7163.67  4.2297523E-01
   7164.00  4.3357081E-01
   7164.33  4.4440282E-01
   7164.67  4.5531751E-01
   7165.00  4.6618922E-01
   7165.33  4.7683520E-01
   7165.67  4.8711953E-01
   7166.00  4.9690905E-01
   7166.33  5.0598488E-01
   7166.67  5.1431104E-01
   7167.00  5.2181316E-01
   7167.33  5.2832743E-01
   7167.67  5.3394423E-01
   7168.00  5.3867280E-01
   7168.33  5.4244456E-01
   7168.67  5.4542659E-01
   7169.00  5.4768411E-01
   7169.33  5.4922257E-01
   7169.67  5.5021271E-01
   7170.00  5.5073462E-01
   7170.33  5.5083416E-01
   7170.67  5.5064782E-01
   7171.00  5.5025017E-01
   7171.33  5.4971689E-01
   7171.67  5.4917227E-01
   7172.00  5.4873092E-01
