    FDMNES
    energy     <xanes>
   7097.00  4.3076140E-03
   7097.33  4.3911407E-03
   7097.67  4.4777756E-03
   7098.00  4.5677019E-03
   7098.33  4.6615951E-03
   7098.67  4.7592745E-03
   7099.00  4.8609856E-03
   7099.33  4.9675899E-03
   7099.67  5.0788992E-03
   7100.00  5.1952529E-03
   7100.33  5.3177810E-03
   7100.67  5.4463005E-03
   7101.00  5.5812980E-03
   7101.33  5.7243082E-03
   7101.67  5.8751827E-03
   7102.00  6.0346500E-03
   7102.33  6.2048873E-03
   7102.67  6.3858480E-03
   7103.00  6.5786825E-03
   7103.33  6.7866523E-03
   7103.67  7.0099718E-03
   7104.00  7.2505816E-03
   7104.33  7.5137176E-03
   7104.67  7.8002540E-03
   7105.00  8.1137490E-03
   7105.33  8.4633958E-03
   7105.67  8.8518194E-03
   7106.00  9.2862900E-03
   7106.33  9.7849860E-03
   7106.67  1.0355680E-02
   7107.00  1.1015564E-02
   7107.33  1.1806991E-02
   7107.67  1.2755621E-02
   7108.00  1.3911543E-02
   7108.33  1.5400213E-02
   7108.67  1.7328291E-02
   7109.00  1.9896761E-02
   7109.33  2.3647357E-02
   7109.67  2.9242586E-02
   7110.00  3.7994947E-02
   7110.33  5.3685727E-02
   7110.67  7.9638424E-02
   7111.00  1.1273332E-01
   7111.33  1.3466478E-01
   7111.67  1.4077087E-01
   7112.00  1.3020911E-01
   7112.33  1.1049360E-01
   7112.67  9.6080002E-02
   7113.00  9.0186867E-02
   7113.33  9.2544126E-02
   7113.67  9.8413246E-02
   7114.00  1.0049257E-01
   7114.33  8.8290619E-02
   7114.67  7.0319775E-02
   7115.00  5.5188548E-02
   7115.33  4.6102828E-02
   7115.67  4.0858356E-02
   7116.00  3.8156615E-02
   7116.33  3.7353282E-02
   7116.67  3.7789691E-02
   7117.00  3.9119351E-02
   7117.33  4.0761765E-02
   7117.67  4.2154561E-02
   7118.00  4.3422457E-02
   7118.33  4.5228693E-02
   7118.67  4.8022437E-02
   7119.00  5.2093874E-02
   7119.33  5.7972133E-02
   7119.67  6.5885733E-02
   7120.00  7.6312757E-02
   7120.33  9.0285340E-02
   7120.67  1.0794025E-01
   7121.00  1.2936799E-01
   7121.33  1.5437061E-01
   7121.67  1.8162986E-01
   7122.00  2.1101480E-01
   7122.33  2.4380990E-01
   7122.67  2.8057364E-01
   7123.00  3.2102246E-01
   7123.33  3.6288613E-01
   7123.67  4.0264819E-01
   7124.00  4.4002860E-01
   7124.33  4.7928963E-01
   7124.67  5.2344737E-01
   7125.00  5.7246556E-01
   7125.33  6.2183720E-01
   7125.67  6.6094959E-01
   7126.00  6.8209260E-01
   7126.33  6.8491594E-01
   7126.67  6.7995570E-01
   7127.00  6.7307743E-01
   7127.33  6.6809628E-01
   7127.67  6.6663558E-01
   7128.00  6.6920498E-01
   7128.33  6.7520684E-01
   7128.67  6.8233760E-01
   7129.00  6.8909267E-01
   7129.33  6.9413261E-01
   7129.67  6.9715565E-01
   7130.00  6.9827900E-01
   7130.33  6.9809094E-01
   7130.67  6.9779282E-01
   7131.00  6.9817630E-01
   7131.33  6.9988210E-01
   7131.67  7.0275047E-01
   7132.00  7.0644742E-01
   7132.33  7.1043497E-01
   7132.67  7.1425200E-01
   7133.00  7.1797447E-01
   7133.33  7.2252443E-01
   7133.67  7.2912627E-01
   7134.00  7.3867930E-01
   7134.33  7.5165855E-01
   7134.67  7.6660162E-01
   7135.00  7.8196825E-01
   7135.33  7.9574720E-01
   7135.67  8.0667383E-01
   7136.00  8.1382138E-01
   7136.33  8.1569956E-01
   7136.67  8.1219129E-01
   7137.00  8.0302699E-01
   7137.33  7.8777579E-01
   7137.67  7.6794007E-01
   7138.00  7.4456428E-01
   7138.33  7.1879445E-01
   7138.67  6.9233241E-01
   7139.00  6.6630226E-01
   7139.33  6.4193931E-01
   7139.67  6.1976939E-01
   7140.00  6.0017725E-01
   7140.33  5.8376041E-01
   7140.67  5.7022780E-01
   7141.00  5.5951192E-01
   7141.33  5.5174747E-01
   7141.67  5.4631671E-01
   7142.00  5.4291710E-01
   7142.33  5.4136969E-01
   7142.67  5.4108101E-01
   7143.00  5.4173277E-01
   7143.33  5.4304406E-01
   7143.67  5.4459140E-01
   7144.00  5.4607310E-01
   7144.33  5.4710275E-01
   7144.67  5.4743812E-01
   7145.00  5.4689470E-01
   7145.33  5.4524309E-01
   7145.67  5.4261298E-01
   7146.00  5.3907426E-01
   7146.33  5.3464412E-01
   7146.67  5.2954026E-01
   7147.00  5.2385563E-01
   7147.33  5.1763054E-01
   7147.67  5.1101192E-01
   7148.00  5.0405687E-01
   7148.33  4.9675658E-01
   7148.67  4.8913259E-01
   7149.00  4.8114132E-01
   7149.33  4.7267514E-01
   7149.67  4.6377304E-01
   7150.00  4.5447996E-01
   7150.33  4.4488789E-01
   7150.67  4.3522712E-01
   7151.00  4.2570128E-01
   7151.33  4.1659820E-01
   7151.67  4.0808662E-01
   7152.00  4.0031305E-01
   7152.33  3.9348656E-01
   7152.67  3.8752231E-01
   7153.00  3.8237782E-01
   7153.33  3.7803667E-01
   7153.67  3.7426502E-01
   7154.00  3.7092766E-01
   7154.33  3.6790669E-01
   7154.67  3.6503543E-01
   7155.00  3.6222961E-01
   7155.33  3.5943334E-01
   7155.67  3.5663400E-01
   7156.00  3.5385301E-01
   7156.33  3.5114878E-01
   7156.67  3.4857809E-01
   7157.00  3.4620361E-01
   7157.33  3.4413808E-01
   7157.67  3.4243040E-01
   7158.00  3.4115314E-01
   7158.33  3.4044927E-01
   7158.67  3.4031835E-01
   7159.00  3.4079374E-01
   7159.33  3.4196067E-01
   7159.67  3.4371819E-01
   7160.00  3.4602525E-01
   7160.33  3.4888235E-01
   7160.67  3.5216688E-01
   7161.00  3.5583483E-01
   7161.33  3.5989551E-01
   7161.67  3.6427912E-01
   7162.00  3.6895690E-01
   7162.33  3.7394287E-01
   7162.67  3.7920028E-01
   7163.00  3.8472275E-01
   7163.33  3.9051469E-01
   7163.67  3.9650497E-01
   7164.00  4.0264676E-01
   7164.33  4.0888178E-01
   7164.67  4.1511945E-01
   7165.00  4.2128590E-01
   7165.33  4.2727625E-01
   7165.67  4.3303187E-01
   7166.00  4.3849565E-01
   7166.33  4.4357442E-01
   7166.67  4.4828003E-01
   7167.00  4.5260148E-01
   7167.33  4.5649530E-01
   7167.67  4.6002825E-01
   7168.00  4.6322617E-01
   7168.33  4.6608958E-01
   7168.67  4.6869710E-01
   7169.00  4.7108435E-01
   7169.33  4.7326862E-01
   7169.67  4.7530874E-01
   7170.00  4.7723163E-01
   7170.33  4.7905087E-01
   7170.67  4.8079371E-01
   7171.00  4.8246235E-01
   7171.33  4.8402626E-01
   7171.67  4.8544040E-01
   7172.00  4.8661927E-01
