    FDMNES
    energy     <xanes>
   7097.00  5.5574630E-03
   7097.33  5.7050169E-03
   7097.67  5.8600059E-03
   7098.00  6.0229720E-03
   7098.33  6.1957008E-03
   7098.67  6.3778920E-03
   7099.00  6.5702941E-03
   7099.33  6.7752810E-03
   7099.67  6.9925566E-03
   7100.00  7.2231817E-03
   7100.33  7.4703956E-03
   7100.67  7.7339486E-03
   7101.00  8.0153909E-03
   7101.33  8.3192790E-03
   7101.67  8.6455026E-03
   7102.00  8.9964094E-03
   7102.33  9.3786449E-03
   7102.67  9.7924413E-03
   7103.00  1.0241509E-02
   7103.33  1.0735976E-02
   7103.67  1.1276873E-02
   7104.00  1.1870379E-02
   7104.33  1.2532790E-02
   7104.67  1.3267010E-02
   7105.00  1.4084039E-02
   7105.33  1.5011962E-02
   7105.67  1.6058320E-02
   7106.00  1.7244426E-02
   7106.33  1.8623319E-02
   7106.67  2.0215055E-02
   7107.00  2.2066045E-02
   7107.33  2.4290004E-02
   7107.67  2.6946065E-02
   7108.00  3.0153974E-02
   7108.33  3.4208878E-02
   7108.67  3.9324061E-02
   7109.00  4.5904861E-02
   7109.33  5.5005153E-02
   7109.67  6.7737015E-02
   7110.00  8.6264094E-02
   7110.33  1.1664819E-01
   7110.67  1.6447009E-01
   7111.00  2.2892954E-01
   7111.33  2.9769505E-01
   7111.67  3.8086719E-01
   7112.00  4.9293264E-01
   7112.33  6.3113854E-01
   7112.67  7.4767972E-01
   7113.00  7.8800806E-01
   7113.33  7.3161150E-01
   7113.67  6.2551442E-01
   7114.00  5.0551045E-01
   7114.33  4.0541122E-01
   7114.67  3.3074432E-01
   7115.00  2.7729872E-01
   7115.33  2.4060980E-01
   7115.67  2.1414308E-01
   7116.00  1.9511356E-01
   7116.33  1.8202721E-01
   7116.67  1.7289260E-01
   7117.00  1.6682478E-01
   7117.33  1.6261359E-01
   7117.67  1.5804593E-01
   7118.00  1.5199625E-01
   7118.33  1.4480401E-01
   7118.67  1.3776665E-01
   7119.00  1.3144780E-01
   7119.33  1.2616243E-01
   7119.67  1.2192813E-01
   7120.00  1.1902247E-01
   7120.33  1.1821222E-01
   7120.67  1.1947202E-01
   7121.00  1.2216197E-01
   7121.33  1.2482661E-01
   7121.67  1.2614362E-01
   7122.00  1.2559596E-01
   7122.33  1.2352645E-01
   7122.67  1.2155482E-01
   7123.00  1.2071289E-01
   7123.33  1.2145019E-01
   7123.67  1.2333777E-01
   7124.00  1.2616858E-01
   7124.33  1.2997194E-01
   7124.67  1.3472551E-01
   7125.00  1.4061943E-01
   7125.33  1.4818396E-01
   7125.67  1.5769863E-01
   7126.00  1.6968782E-01
   7126.33  1.8540746E-01
   7126.67  2.0550488E-01
   7127.00  2.3085229E-01
   7127.33  2.6266812E-01
   7127.67  2.9960854E-01
   7128.00  3.3998666E-01
   7128.33  3.8107290E-01
   7128.67  4.2009760E-01
   7129.00  4.5576199E-01
   7129.33  4.8798731E-01
   7129.67  5.1892861E-01
   7130.00  5.5060375E-01
   7130.33  5.8572055E-01
   7130.67  6.2573148E-01
   7131.00  6.7142331E-01
   7131.33  7.2291083E-01
   7131.67  7.7711867E-01
   7132.00  8.3054181E-01
   7132.33  8.7743887E-01
   7132.67  9.1368998E-01
   7133.00  9.3622203E-01
   7133.33  9.4159525E-01
   7133.67  9.3259463E-01
   7134.00  9.1159598E-01
   7134.33  8.8143599E-01
   7134.67  8.4718303E-01
   7135.00  8.1183209E-01
   7135.33  7.7808308E-01
   7135.67  7.4711577E-01
   7136.00  7.1920926E-01
   7136.33  6.9421267E-01
   7136.67  6.7093607E-01
   7137.00  6.4877476E-01
   7137.33  6.2766633E-01
   7137.67  6.0785645E-01
   7138.00  5.8983967E-01
   7138.33  5.7434259E-01
   7138.67  5.6121462E-01
   7139.00  5.5033525E-01
   7139.33  5.4171923E-01
   7139.67  5.3497808E-01
   7140.00  5.3015649E-01
   7140.33  5.2770015E-01
   7140.67  5.2751104E-01
   7141.00  5.2959869E-01
   7141.33  5.3403597E-01
   7141.67  5.4022044E-01
   7142.00  5.4780340E-01
   7142.33  5.5649671E-01
   7142.67  5.6580020E-01
   7143.00  5.7543797E-01
   7143.33  5.8516553E-01
   7143.67  5.9479182E-01
   7144.00  6.0421567E-01
   7144.33  6.1333965E-01
   7144.67  6.2217521E-01
   7145.00  6.3072286E-01
   7145.33  6.3895459E-01
   7145.67  6.4690322E-01
   7146.00  6.5454763E-01
   7146.33  6.6178530E-01
   7146.67  6.6856145E-01
   7147.00  6.7475497E-01
   7147.33  6.8009503E-01
   7147.67  6.8447705E-01
   7148.00  6.8772801E-01
   7148.33  6.8951038E-01
   7148.67  6.8987478E-01
   7149.00  6.8878517E-01
   7149.33  6.8609695E-01
   7149.67  6.8210138E-01
   7150.00  6.7695273E-01
   7150.33  6.7076663E-01
   7150.67  6.6392230E-01
   7151.00  6.5665283E-01
   7151.33  6.4919532E-01
   7151.67  6.4179758E-01
   7152.00  6.3462084E-01
   7152.33  6.2785372E-01
   7152.67  6.2154530E-01
   7153.00  6.1574019E-01
   7153.33  6.1051721E-01
   7153.67  6.0579299E-01
   7154.00  6.0153174E-01
   7154.33  5.9772796E-01
   7154.67  5.9426734E-01
   7155.00  5.9109538E-01
   7155.33  5.8818283E-01
   7155.67  5.8545320E-01
   7156.00  5.8287522E-01
   7156.33  5.8043871E-01
   7156.67  5.7811245E-01
   7157.00  5.7588928E-01
   7157.33  5.7377531E-01
   7157.67  5.7175095E-01
   7158.00  5.6980664E-01
   7158.33  5.6793338E-01
   7158.67  5.6609906E-01
   7159.00  5.6427701E-01
   7159.33  5.6242727E-01
   7159.67  5.6051192E-01
   7160.00  5.5849450E-01
   7160.33  5.5631234E-01
   7160.67  5.5394027E-01
   7161.00  5.5134793E-01
   7161.33  5.4847601E-01
   7161.67  5.4533145E-01
   7162.00  5.4189810E-01
   7162.33  5.3812879E-01
   7162.67  5.3405793E-01
   7163.00  5.2968640E-01
   7163.33  5.2498133E-01
   7163.67  5.1998741E-01
   7164.00  5.1471374E-01
   7164.33  5.0913973E-01
   7164.67  5.0331397E-01
   7165.00  4.9725146E-01
   7165.33  4.9094605E-01
   7165.67  4.8445262E-01
   7166.00  4.7779743E-01
   7166.33  4.7099494E-01
   7166.67  4.6409625E-01
   7167.00  4.5713431E-01
   7167.33  4.5014910E-01
   7167.67  4.4319426E-01
   7168.00  4.3631369E-01
   7168.33  4.2956755E-01
   7168.67  4.2298483E-01
   7169.00  4.1660190E-01
   7169.33  4.1048768E-01
   7169.67  4.0464805E-01
   7170.00  3.9911086E-01
   7170.33  3.9394584E-01
   7170.67  3.8913975E-01
   7171.00  3.8472284E-01
   7171.33  3.8080520E-01
   7171.67  3.7742933E-01
   7172.00  3.7472016E-01
