    FDMNES
    energy     <xanes>
   7097.00  4.4161924E-03
   7097.33  4.5118187E-03
   7097.67  4.6115174E-03
   7098.00  4.7155602E-03
   7098.33  4.8248841E-03
   7098.67  4.9392933E-03
   7099.00  5.0591604E-03
   7099.33  5.1857130E-03
   7099.67  5.3187553E-03
   7100.00  5.4588136E-03
   7100.33  5.6075435E-03
   7100.67  5.7647721E-03
   7101.00  5.9312688E-03
   7101.33  6.1093452E-03
   7101.67  6.2989019E-03
   7102.00  6.5011105E-03
   7102.33  6.7193352E-03
   7102.67  6.9536629E-03
   7103.00  7.2059672E-03
   7103.33  7.4813977E-03
   7103.67  7.7804877E-03
   7104.00  8.1064166E-03
   7104.33  8.4675766E-03
   7104.67  8.8655802E-03
   7105.00  9.3062384E-03
   7105.33  9.8043595E-03
   7105.67  1.0364309E-02
   7106.00  1.0997777E-02
   7106.33  1.1733760E-02
   7106.67  1.2584366E-02
   7107.00  1.3576357E-02
   7107.33  1.4775222E-02
   7107.67  1.6218479E-02
   7108.00  1.7979793E-02
   7108.33  2.0241557E-02
   7108.67  2.3147469E-02
   7109.00  2.6967251E-02
   7109.33  3.2410514E-02
   7109.67  4.0275397E-02
   7110.00  5.2119327E-02
   7110.33  7.2407787E-02
   7110.67  1.0593328E-01
   7111.00  1.5439908E-01
   7111.33  2.0753014E-01
   7111.67  2.5338876E-01
   7112.00  2.8313901E-01
   7112.33  2.9369994E-01
   7112.67  2.8752189E-01
   7113.00  2.5666214E-01
   7113.33  2.0499084E-01
   7113.67  1.5366307E-01
   7114.00  1.1462561E-01
   7114.33  9.2098158E-02
   7114.67  8.0662456E-02
   7115.00  7.5449309E-02
   7115.33  6.9816229E-02
   7115.67  6.2164842E-02
   7116.00  5.4882986E-02
   7116.33  4.9973569E-02
   7116.67  4.7066907E-02
   7117.00  4.5683666E-02
   7117.33  4.5492271E-02
   7117.67  4.6115670E-02
   7118.00  4.7524097E-02
   7118.33  4.9906397E-02
   7118.67  5.3218629E-02
   7119.00  5.7401497E-02
   7119.33  6.2225002E-02
   7119.67  6.7085400E-02
   7120.00  7.1532435E-02
   7120.33  7.5292129E-02
   7120.67  7.8684462E-02
   7121.00  8.2133809E-02
   7121.33  8.6202219E-02
   7121.67  9.1158051E-02
   7122.00  9.7182940E-02
   7122.33  1.0466403E-01
   7122.67  1.1379760E-01
   7123.00  1.2502434E-01
   7123.33  1.3934136E-01
   7123.67  1.5719161E-01
   7124.00  1.7932867E-01
   7124.33  2.0719441E-01
   7124.67  2.4047422E-01
   7125.00  2.7860941E-01
   7125.33  3.2000950E-01
   7125.67  3.6127116E-01
   7126.00  3.9946061E-01
   7126.33  4.3058390E-01
   7126.67  4.5400607E-01
   7127.00  4.7233938E-01
   7127.33  4.9284578E-01
   7127.67  5.2177096E-01
   7128.00  5.6185311E-01
   7128.33  6.1405127E-01
   7128.67  6.7374469E-01
   7129.00  7.3719680E-01
   7129.33  8.0085571E-01
   7129.67  8.6294661E-01
   7130.00  9.2260988E-01
   7130.33  9.7692389E-01
   7130.67  1.0224287E+00
   7131.00  1.0559767E+00
   7131.33  1.0746658E+00
   7131.67  1.0811858E+00
   7132.00  1.0769629E+00
   7132.33  1.0621262E+00
   7132.67  1.0389066E+00
   7133.00  1.0085012E+00
   7133.33  9.7266038E-01
   7133.67  9.3548915E-01
   7134.00  9.0013397E-01
   7134.33  8.6924897E-01
   7134.67  8.4234484E-01
   7135.00  8.1849838E-01
   7135.33  7.9680411E-01
   7135.67  7.7618609E-01
   7136.00  7.5621998E-01
   7136.33  7.3677820E-01
   7136.67  7.1788207E-01
   7137.00  6.9973038E-01
   7137.33  6.8272150E-01
   7137.67  6.6695183E-01
   7138.00  6.5252597E-01
   7138.33  6.3961941E-01
   7138.67  6.2798707E-01
   7139.00  6.1753185E-01
   7139.33  6.0826423E-01
   7139.67  5.9994469E-01
   7140.00  5.9250303E-01
   7140.33  5.8598744E-01
   7140.67  5.8026388E-01
   7141.00  5.7531686E-01
   7141.33  5.7122587E-01
   7141.67  5.6787514E-01
   7142.00  5.6523948E-01
   7142.33  5.6336337E-01
   7142.67  5.6211432E-01
   7143.00  5.6145223E-01
   7143.33  5.6139285E-01
   7143.67  5.6180301E-01
   7144.00  5.6261935E-01
   7144.33  5.6380868E-01
   7144.67  5.6527291E-01
   7145.00  5.6698171E-01
   7145.33  5.6892321E-01
   7145.67  5.7101769E-01
   7146.00  5.7320325E-01
   7146.33  5.7538889E-01
   7146.67  5.7746424E-01
   7147.00  5.7932146E-01
   7147.33  5.8078049E-01
   7147.67  5.8174559E-01
   7148.00  5.8209833E-01
   7148.33  5.8161493E-01
   7148.67  5.8027263E-01
   7149.00  5.7798974E-01
   7149.33  5.7456852E-01
   7149.67  5.7009226E-01
   7150.00  5.6454727E-01
   7150.33  5.5781245E-01
   7150.67  5.5006156E-01
   7151.00  5.4135741E-01
   7151.33  5.3169535E-01
   7151.67  5.2131061E-01
   7152.00  5.1033249E-01
   7152.33  4.9887130E-01
   7152.67  4.8714938E-01
   7153.00  4.7530497E-01
   7153.33  4.6348178E-01
   7153.67  4.5179462E-01
   7154.00  4.4032196E-01
   7154.33  4.2915346E-01
   7154.67  4.1827580E-01
   7155.00  4.0768493E-01
   7155.33  3.9739073E-01
   7155.67  3.8732754E-01
   7156.00  3.7746897E-01
   7156.33  3.6781963E-01
   7156.67  3.5835945E-01
   7157.00  3.4911181E-01
   7157.33  3.4015788E-01
   7157.67  3.3153147E-01
   7158.00  3.2329867E-01
   7158.33  3.1559847E-01
   7158.67  3.0844808E-01
   7159.00  3.0190642E-01
   7159.33  2.9611392E-01
   7159.67  2.9103166E-01
   7160.00  2.8668746E-01
   7160.33  2.8319727E-01
   7160.67  2.8047789E-01
   7161.00  2.7853349E-01
   7161.33  2.7745708E-01
   7161.67  2.7714094E-01
   7162.00  2.7757389E-01
   7162.33  2.7883428E-01
   7162.67  2.8080765E-01
   7163.00  2.8346021E-01
   7163.33  2.8681757E-01
   7163.67  2.9073280E-01
   7164.00  2.9513789E-01
   7164.33  2.9999319E-01
   7164.67  3.0514546E-01
   7165.00  3.1050437E-01
   7165.33  3.1598424E-01
   7165.67  3.2148307E-01
   7166.00  3.2693710E-01
   7166.33  3.3227795E-01
   7166.67  3.3748327E-01
   7167.00  3.4253691E-01
   7167.33  3.4740497E-01
   7167.67  3.5210064E-01
   7168.00  3.5663111E-01
   7168.33  3.6099496E-01
   7168.67  3.6522775E-01
   7169.00  3.6934174E-01
   7169.33  3.7333491E-01
   7169.67  3.7722796E-01
   7170.00  3.8102267E-01
   7170.33  3.8470156E-01
   7170.67  3.8826171E-01
   7171.00  3.9167464E-01
   7171.33  3.9484828E-01
   7171.67  3.9767996E-01
   7172.00  3.9999582E-01
