    FDMNES
    energy     <xanes>
   7097.00  4.0689122E-03
   7097.33  4.1450524E-03
   7097.67  4.2238944E-03
   7098.00  4.3055912E-03
   7098.33  4.3907197E-03
   7098.67  4.4791146E-03
   7099.00  4.5709798E-03
   7099.33  4.6670452E-03
   7099.67  4.7671378E-03
   7100.00  4.8715380E-03
   7100.33  4.9811957E-03
   7100.67  5.0959406E-03
   7101.00  5.2161727E-03
   7101.33  5.3431729E-03
   7101.67  5.4767975E-03
   7102.00  5.6176434E-03
   7102.33  5.7675163E-03
   7102.67  5.9263544E-03
   7103.00  6.0950990E-03
   7103.33  6.2764423E-03
   7103.67  6.4705363E-03
   7104.00  6.6789699E-03
   7104.33  6.9060549E-03
   7104.67  7.1524891E-03
   7105.00  7.4211955E-03
   7105.33  7.7197491E-03
   7105.67  8.0503099E-03
   7106.00  8.4188854E-03
   7106.33  8.8405199E-03
   7106.67  9.3217094E-03
   7107.00  9.8767888E-03
   7107.33  1.0541110E-02
   7107.67  1.1336389E-02
   7108.00  1.2304905E-02
   7108.33  1.3552752E-02
   7108.67  1.5171404E-02
   7109.00  1.7333211E-02
   7109.33  2.0504355E-02
   7109.67  2.5261850E-02
   7110.00  3.2750548E-02
   7110.33  4.6264880E-02
   7110.67  6.8558586E-02
   7111.00  9.6126313E-02
   7111.33  1.1197473E-01
   7111.67  1.1657852E-01
   7112.00  1.1030949E-01
   7112.33  8.9795683E-02
   7112.67  7.0598006E-02
   7113.00  6.0308343E-02
   7113.33  5.8979963E-02
   7113.67  5.9805401E-02
   7114.00  5.9950488E-02
   7114.33  6.0084238E-02
   7114.67  5.4838270E-02
   7115.00  4.6471924E-02
   7115.33  4.0819489E-02
   7115.67  3.7866899E-02
   7116.00  3.6673137E-02
   7116.33  3.6428482E-02
   7116.67  3.6460547E-02
   7117.00  3.6650554E-02
   7117.33  3.7246830E-02
   7117.67  3.8447455E-02
   7118.00  4.0319842E-02
   7118.33  4.2845905E-02
   7118.67  4.5781808E-02
   7119.00  4.9102166E-02
   7119.33  5.3221474E-02
   7119.67  5.8593833E-02
   7120.00  6.5661738E-02
   7120.33  7.5142001E-02
   7120.67  8.7083538E-02
   7121.00  1.0146430E-01
   7121.33  1.1776085E-01
   7121.67  1.3428644E-01
   7122.00  1.4994414E-01
   7122.33  1.6462048E-01
   7122.67  1.7985309E-01
   7123.00  1.9740280E-01
   7123.33  2.1978709E-01
   7123.67  2.4807300E-01
   7124.00  2.8314072E-01
   7124.33  3.2569201E-01
   7124.67  3.7293317E-01
   7125.00  4.2202631E-01
   7125.33  4.6986427E-01
   7125.67  5.1614051E-01
   7126.00  5.6182338E-01
   7126.33  6.0359091E-01
   7126.67  6.3422313E-01
   7127.00  6.5232636E-01
   7127.33  6.6820841E-01
   7127.67  6.9279866E-01
   7128.00  7.2698907E-01
   7128.33  7.6511709E-01
   7128.67  7.9905171E-01
   7129.00  8.2482826E-01
   7129.33  8.4279273E-01
   7129.67  8.5952545E-01
   7130.00  8.7828942E-01
   7130.33  8.9674398E-01
   7130.67  9.0945641E-01
   7131.00  9.1406173E-01
   7131.33  9.1189994E-01
   7131.67  9.0845357E-01
   7132.00  9.0687964E-01
   7132.33  9.0761817E-01
   7132.67  9.0617674E-01
   7133.00  8.9695397E-01
   7133.33  8.7450671E-01
   7133.67  8.4239789E-01
   7134.00  8.0566985E-01
   7134.33  7.7032042E-01
   7134.67  7.4012345E-01
   7135.00  7.1635014E-01
   7135.33  6.9858469E-01
   7135.67  6.8354926E-01
   7136.00  6.6932973E-01
   7136.33  6.5505022E-01
   7136.67  6.4094481E-01
   7137.00  6.2746474E-01
   7137.33  6.1515530E-01
   7137.67  6.0411895E-01
   7138.00  5.9444581E-01
   7138.33  5.8633037E-01
   7138.67  5.7955677E-01
   7139.00  5.7404916E-01
   7139.33  5.6982930E-01
   7139.67  5.6661527E-01
   7140.00  5.6428909E-01
   7140.33  5.6282302E-01
   7140.67  5.6202071E-01
   7141.00  5.6181956E-01
   7141.33  5.6223104E-01
   7141.67  5.6312610E-01
   7142.00  5.6444508E-01
   7142.33  5.6615813E-01
   7142.67  5.6815849E-01
   7143.00  5.7041489E-01
   7143.33  5.7294773E-01
   7143.67  5.7569913E-01
   7144.00  5.7856567E-01
   7144.33  5.8124122E-01
   7144.67  5.8329471E-01
   7145.00  5.8428832E-01
   7145.33  5.8361929E-01
   7145.67  5.8127656E-01
   7146.00  5.7730738E-01
   7146.33  5.7181425E-01
   7146.67  5.6538628E-01
   7147.00  5.5842472E-01
   7147.33  5.5135769E-01
   7147.67  5.4455747E-01
   7148.00  5.3824807E-01
   7148.33  5.3265854E-01
   7148.67  5.2772753E-01
   7149.00  5.2337442E-01
   7149.33  5.1946943E-01
   7149.67  5.1571492E-01
   7150.00  5.1186803E-01
   7150.33  5.0760611E-01
   7150.67  5.0273976E-01
   7151.00  4.9711087E-01
   7151.33  4.9049379E-01
   7151.67  4.8296171E-01
   7152.00  4.7453772E-01
   7152.33  4.6520357E-01
   7152.67  4.5519341E-01
   7153.00  4.4464277E-01
   7153.33  4.3367830E-01
   7153.67  4.2251133E-01
   7154.00  4.1125457E-01
   7154.33  4.0002232E-01
   7154.67  3.8890730E-01
   7155.00  3.7798333E-01
   7155.33  3.6736592E-01
   7155.67  3.5709847E-01
   7156.00  3.4724453E-01
   7156.33  3.3793033E-01
   7156.67  3.2914767E-01
   7157.00  3.2092560E-01
   7157.33  3.1334840E-01
   7157.67  3.0633453E-01
   7158.00  2.9986217E-01
   7158.33  2.9396453E-01
   7158.67  2.8855608E-01
   7159.00  2.8363627E-01
   7159.33  2.7929633E-01
   7159.67  2.7552865E-01
   7160.00  2.7240206E-01
   7160.33  2.7009840E-01
   7160.67  2.6860891E-01
   7161.00  2.6798720E-01
   7161.33  2.6838047E-01
   7161.67  2.6967741E-01
   7162.00  2.7185386E-01
   7162.33  2.7495985E-01
   7162.67  2.7882265E-01
   7163.00  2.8337445E-01
   7163.33  2.8861038E-01
   7163.67  2.9436988E-01
   7164.00  3.0057373E-01
   7164.33  3.0717484E-01
   7164.67  3.1404483E-01
   7165.00  3.2111646E-01
   7165.33  3.2833740E-01
   7165.67  3.3563596E-01
   7166.00  3.4297583E-01
   7166.33  3.5032699E-01
   7166.67  3.5766885E-01
   7167.00  3.6499295E-01
   7167.33  3.7229188E-01
   7167.67  3.7956323E-01
   7168.00  3.8679764E-01
   7168.33  3.9396887E-01
   7168.67  4.0105412E-01
   7169.00  4.0801918E-01
   7169.33  4.1479554E-01
   7169.67  4.2135124E-01
   7170.00  4.2763946E-01
   7170.33  4.3356755E-01
   7170.67  4.3912483E-01
   7171.00  4.4426496E-01
   7171.33  4.4885400E-01
   7171.67  4.5282677E-01
   7172.00  4.5601707E-01
