    FDMNES
    energy     <xanes>
   7097.00  5.0498420E-03
   7097.33  5.1690869E-03
   7097.67  5.2937416E-03
   7098.00  5.4241718E-03
   7098.33  5.5616287E-03
   7098.67  5.7058555E-03
   7099.00  5.8573497E-03
   7099.33  6.0177460E-03
   7099.67  6.1867804E-03
   7100.00  6.3651478E-03
   7100.33  6.5550387E-03
   7100.67  6.7562060E-03
   7101.00  6.9696503E-03
   7101.33  7.1983965E-03
   7101.67  7.4422680E-03
   7102.00  7.7027581E-03
   7102.33  7.9841986E-03
   7102.67  8.2866011E-03
   7103.00  8.6122934E-03
   7103.33  8.9677579E-03
   7103.67  9.3534625E-03
   7104.00  9.7732336E-03
   7104.33  1.0237320E-02
   7104.67  1.0747281E-02
   7105.00  1.1309842E-02
   7105.33  1.1942383E-02
   7105.67  1.2649184E-02
   7106.00  1.3443137E-02
   7106.33  1.4356583E-02
   7106.67  1.5401173E-02
   7107.00  1.6604717E-02
   7107.33  1.8035665E-02
   7107.67  1.9728645E-02
   7108.00  2.1754750E-02
   7108.33  2.4289378E-02
   7108.67  2.7456899E-02
   7109.00  3.1494354E-02
   7109.33  3.7015163E-02
   7109.67  4.4651741E-02
   7110.00  5.5630297E-02
   7110.33  7.3423073E-02
   7110.67  1.0192484E-01
   7111.00  1.4422157E-01
   7111.33  1.9821557E-01
   7111.67  2.5371331E-01
   7112.00  3.0024718E-01
   7112.33  3.4186633E-01
   7112.67  3.8913158E-01
   7113.00  4.3449088E-01
   7113.33  4.2743362E-01
   7113.67  3.7282484E-01
   7114.00  2.9947242E-01
   7114.33  2.3283760E-01
   7114.67  1.9192013E-01
   7115.00  1.7657046E-01
   7115.33  1.8514060E-01
   7115.67  2.1185467E-01
   7116.00  2.4849361E-01
   7116.33  2.7253939E-01
   7116.67  2.7549992E-01
   7117.00  2.6548097E-01
   7117.33  2.4819420E-01
   7117.67  2.2806627E-01
   7118.00  2.0939814E-01
   7118.33  1.9622553E-01
   7118.67  1.8801522E-01
   7119.00  1.8302781E-01
   7119.33  1.8026259E-01
   7119.67  1.7892456E-01
   7120.00  1.7798992E-01
   7120.33  1.7609870E-01
   7120.67  1.7311567E-01
   7121.00  1.6970249E-01
   7121.33  1.6709586E-01
   7121.67  1.6656926E-01
   7122.00  1.6888011E-01
   7122.33  1.7432852E-01
   7122.67  1.8202879E-01
   7123.00  1.9124756E-01
   7123.33  2.0123101E-01
   7123.67  2.1172669E-01
   7124.00  2.2319802E-01
   7124.33  2.3661064E-01
   7124.67  2.5191396E-01
   7125.00  2.6841655E-01
   7125.33  2.8437820E-01
   7125.67  2.9807862E-01
   7126.00  3.0896955E-01
   7126.33  3.1806731E-01
   7126.67  3.2779993E-01
   7127.00  3.3946740E-01
   7127.33  3.5394927E-01
   7127.67  3.7141919E-01
   7128.00  3.9228694E-01
   7128.33  4.1673646E-01
   7128.67  4.4347219E-01
   7129.00  4.7193688E-01
   7129.33  5.0255255E-01
   7129.67  5.3524323E-01
   7130.00  5.6943307E-01
   7130.33  6.0428310E-01
   7130.67  6.3906882E-01
   7131.00  6.7331013E-01
   7131.33  7.0644068E-01
   7131.67  7.3833114E-01
   7132.00  7.6875003E-01
   7132.33  7.9700740E-01
   7132.67  8.2279858E-01
   7133.00  8.4564890E-01
   7133.33  8.6436810E-01
   7133.67  8.7822012E-01
   7134.00  8.8568602E-01
   7134.33  8.8354024E-01
   7134.67  8.7139087E-01
   7135.00  8.4986607E-01
   7135.33  8.2124382E-01
   7135.67  7.9002714E-01
   7136.00  7.5861165E-01
   7136.33  7.2882628E-01
   7136.67  7.0136443E-01
   7137.00  6.7668822E-01
   7137.33  6.5557703E-01
   7137.67  6.3787737E-01
   7138.00  6.2364581E-01
   7138.33  6.1311888E-01
   7138.67  6.0543591E-01
   7139.00  6.0004548E-01
   7139.33  5.9644327E-01
   7139.67  5.9381347E-01
   7140.00  5.9177115E-01
   7140.33  5.9007048E-01
   7140.67  5.8850030E-01
   7141.00  5.8695393E-01
   7141.33  5.8530984E-01
   7141.67  5.8347481E-01
   7142.00  5.8137801E-01
   7142.33  5.7893438E-01
   7142.67  5.7617575E-01
   7143.00  5.7312175E-01
   7143.33  5.6978425E-01
   7143.67  5.6625494E-01
   7144.00  5.6259553E-01
   7144.33  5.5887484E-01
   7144.67  5.5516685E-01
   7145.00  5.5151751E-01
   7145.33  5.4797575E-01
   7145.67  5.4454912E-01
   7146.00  5.4124726E-01
   7146.33  5.3810277E-01
   7146.67  5.3512861E-01
   7147.00  5.3236815E-01
   7147.33  5.2992273E-01
   7147.67  5.2782178E-01
   7148.00  5.2611130E-01
   7148.33  5.2489451E-01
   7148.67  5.2415573E-01
   7149.00  5.2391611E-01
   7149.33  5.2424364E-01
   7149.67  5.2505710E-01
   7150.00  5.2632428E-01
   7150.33  5.2804254E-01
   7150.67  5.3009853E-01
   7151.00  5.3243353E-01
   7151.33  5.3500252E-01
   7151.67  5.3770928E-01
   7152.00  5.4050254E-01
   7152.33  5.4333966E-01
   7152.67  5.4617898E-01
   7153.00  5.4899704E-01
   7153.33  5.5177052E-01
   7153.67  5.5449340E-01
   7154.00  5.5716002E-01
   7154.33  5.5975825E-01
   7154.67  5.6228990E-01
   7155.00  5.6474636E-01
   7155.33  5.6709912E-01
   7155.67  5.6933121E-01
   7156.00  5.7140815E-01
   7156.33  5.7325698E-01
   7156.67  5.7485116E-01
   7157.00  5.7614557E-01
   7157.33  5.7704692E-01
   7157.67  5.7755559E-01
   7158.00  5.7764153E-01
   7158.33  5.7722376E-01
   7158.67  5.7634404E-01
   7159.00  5.7499941E-01
   7159.33  5.7314057E-01
   7159.67  5.7084378E-01
   7160.00  5.6813370E-01
   7160.33  5.6500443E-01
   7160.67  5.6155036E-01
   7161.00  5.5780679E-01
   7161.33  5.5377912E-01
   7161.67  5.4953600E-01
   7162.00  5.4510798E-01
   7162.33  5.4051129E-01
   7162.67  5.3579255E-01
   7163.00  5.3096892E-01
   7163.33  5.2604580E-01
   7163.67  5.2104843E-01
   7164.00  5.1598745E-01
   7164.33  5.1086768E-01
   7164.67  5.0570634E-01
   7165.00  5.0051263E-01
   7165.33  4.9529535E-01
   7165.67  4.9006969E-01
   7166.00  4.8484818E-01
   7166.33  4.7965167E-01
   7166.67  4.7450016E-01
   7167.00  4.6941743E-01
   7167.33  4.6444710E-01
   7167.67  4.5960982E-01
   7168.00  4.5493586E-01
   7168.33  4.5048704E-01
   7168.67  4.4627601E-01
   7169.00  4.4233116E-01
   7169.33  4.3871113E-01
   7169.67  4.3539442E-01
   7170.00  4.3238897E-01
   7170.33  4.2973706E-01
   7170.67  4.2739706E-01
   7171.00  4.2536437E-01
   7171.33  4.2367103E-01
   7171.67  4.2227747E-01
   7172.00  4.2118482E-01
