    FDMNES
    energy     <xanes>
   7097.00  4.3828288E-03
   7097.33  4.4737730E-03
   7097.67  4.5684562E-03
   7098.00  4.6671189E-03
   7098.33  4.7706066E-03
   7098.67  4.8787274E-03
   7099.00  4.9918081E-03
   7099.33  5.1109459E-03
   7099.67  5.2359444E-03
   7100.00  5.3672607E-03
   7100.33  5.5063587E-03
   7100.67  5.6530555E-03
   7101.00  5.8080127E-03
   7101.33  5.9732508E-03
   7101.67  6.1486409E-03
   7102.00  6.3351805E-03
   7102.33  6.5357757E-03
   7102.67  6.7504438E-03
   7103.00  6.9807656E-03
   7103.33  7.2311409E-03
   7103.67  7.5019477E-03
   7104.00  7.7958522E-03
   7104.33  8.1199612E-03
   7104.67  8.4755462E-03
   7105.00  8.8674736E-03
   7105.33  9.3082310E-03
   7105.67  9.8014262E-03
   7106.00  1.0356915E-02
   7106.33  1.0999258E-02
   7106.67  1.1738849E-02
   7107.00  1.2598693E-02
   7107.33  1.3635369E-02
   7107.67  1.4882540E-02
   7108.00  1.6406128E-02
   7108.33  1.8370844E-02
   7108.67  2.0914070E-02
   7109.00  2.4294664E-02
   7109.33  2.9206704E-02
   7109.67  3.6483923E-02
   7110.00  4.7776659E-02
   7110.33  6.7912519E-02
   7110.67  1.0206790E-01
   7111.00  1.4982192E-01
   7111.33  1.8330789E-01
   7111.67  1.8304232E-01
   7112.00  1.6045743E-01
   7112.33  1.3838454E-01
   7112.67  1.2720828E-01
   7113.00  1.2695637E-01
   7113.33  1.3456349E-01
   7113.67  1.4181834E-01
   7114.00  1.4373020E-01
   7114.33  1.4311129E-01
   7114.67  1.4733021E-01
   7115.00  1.5945338E-01
   7115.33  1.7923958E-01
   7115.67  1.9549691E-01
   7116.00  1.9622124E-01
   7116.33  1.7813586E-01
   7116.67  1.5452151E-01
   7117.00  1.3335935E-01
   7117.33  1.1865715E-01
   7117.67  1.0958477E-01
   7118.00  1.0529556E-01
   7118.33  1.0519689E-01
   7118.67  1.0771011E-01
   7119.00  1.1173217E-01
   7119.33  1.1606652E-01
   7119.67  1.2007593E-01
   7120.00  1.2386056E-01
   7120.33  1.2766541E-01
   7120.67  1.3152542E-01
   7121.00  1.3558766E-01
   7121.33  1.4054326E-01
   7121.67  1.4709177E-01
   7122.00  1.5564590E-01
   7122.33  1.6636733E-01
   7122.67  1.7868847E-01
   7123.00  1.9262596E-01
   7123.33  2.0902237E-01
   7123.67  2.2806325E-01
   7124.00  2.4877450E-01
   7124.33  2.6679983E-01
   7124.67  2.7797159E-01
   7125.00  2.8223044E-01
   7125.33  2.8235743E-01
   7125.67  2.8122139E-01
   7126.00  2.8052128E-01
   7126.33  2.8374212E-01
   7126.67  2.9295917E-01
   7127.00  3.0898484E-01
   7127.33  3.3275920E-01
   7127.67  3.6310168E-01
   7128.00  3.9924820E-01
   7128.33  4.3992962E-01
   7128.67  4.8192989E-01
   7129.00  5.2218164E-01
   7129.33  5.5628544E-01
   7129.67  5.8346787E-01
   7130.00  6.0556664E-01
   7130.33  6.2595430E-01
   7130.67  6.4624884E-01
   7131.00  6.6523014E-01
   7131.33  6.8058937E-01
   7131.67  6.9291951E-01
   7132.00  7.0404760E-01
   7132.33  7.1576310E-01
   7132.67  7.2771851E-01
   7133.00  7.3855493E-01
   7133.33  7.4681349E-01
   7133.67  7.5343747E-01
   7134.00  7.6053408E-01
   7134.33  7.7100808E-01
   7134.67  7.8486271E-01
   7135.00  8.0036516E-01
   7135.33  8.1448295E-01
   7135.67  8.2532241E-01
   7136.00  8.3245861E-01
   7136.33  8.3637068E-01
   7136.67  8.3884546E-01
   7137.00  8.4084536E-01
   7137.33  8.4251512E-01
   7137.67  8.4280859E-01
   7138.00  8.3992379E-01
   7138.33  8.3069194E-01
   7138.67  8.1402576E-01
   7139.00  7.8970344E-01
   7139.33  7.5848846E-01
   7139.67  7.2395305E-01
   7140.00  6.8868643E-01
   7140.33  6.5532791E-01
   7140.67  6.2515354E-01
   7141.00  5.9875117E-01
   7141.33  5.7672948E-01
   7141.67  5.5836425E-01
   7142.00  5.4330906E-01
   7142.33  5.3145070E-01
   7142.67  5.2195422E-01
   7143.00  5.1442355E-01
   7143.33  5.0862064E-01
   7143.67  5.0396857E-01
   7144.00  5.0018073E-01
   7144.33  4.9705401E-01
   7144.67  4.9430517E-01
   7145.00  4.9180612E-01
   7145.33  4.8948182E-01
   7145.67  4.8727420E-01
   7146.00  4.8518994E-01
   7146.33  4.8329600E-01
   7146.67  4.8164867E-01
   7147.00  4.8033251E-01
   7147.33  4.7951319E-01
   7147.67  4.7924599E-01
   7148.00  4.7961498E-01
   7148.33  4.8078461E-01
   7148.67  4.8269642E-01
   7149.00  4.8531741E-01
   7149.33  4.8858969E-01
   7149.67  4.9219535E-01
   7150.00  4.9586634E-01
   7150.33  4.9925077E-01
   7150.67  5.0209351E-01
   7151.00  5.0422356E-01
   7151.33  5.0547497E-01
   7151.67  5.0601779E-01
   7152.00  5.0599422E-01
   7152.33  5.0555707E-01
   7152.67  5.0492778E-01
   7153.00  5.0420591E-01
   7153.33  5.0342660E-01
   7153.67  5.0256704E-01
   7154.00  5.0156577E-01
   7154.33  5.0030650E-01
   7154.67  4.9873933E-01
   7155.00  4.9682130E-01
   7155.33  4.9449553E-01
   7155.67  4.9183206E-01
   7156.00  4.8886433E-01
   7156.33  4.8557815E-01
   7156.67  4.8197934E-01
   7157.00  4.7798837E-01
   7157.33  4.7339131E-01
   7157.67  4.6808959E-01
   7158.00  4.6196827E-01
   7158.33  4.5486489E-01
   7158.67  4.4695320E-01
   7159.00  4.3838693E-01
   7159.33  4.2939215E-01
   7159.67  4.2035653E-01
   7160.00  4.1159261E-01
   7160.33  4.0353337E-01
   7160.67  3.9642124E-01
   7161.00  3.9049421E-01
   7161.33  3.8616057E-01
   7161.67  3.8342256E-01
   7162.00  3.8239711E-01
   7162.33  3.8341481E-01
   7162.67  3.8631948E-01
   7163.00  3.9114351E-01
   7163.33  3.9813160E-01
   7163.67  4.0700804E-01
   7164.00  4.1770489E-01
   7164.33  4.3030073E-01
   7164.67  4.4438255E-01
   7165.00  4.5971222E-01
   7165.33  4.7604116E-01
   7165.67  4.9280936E-01
   7166.00  5.0956731E-01
   7166.33  5.2566512E-01
   7166.67  5.4057713E-01
   7167.00  5.5380672E-01
   7167.33  5.6457458E-01
   7167.67  5.7276767E-01
   7168.00  5.7816536E-01
   7168.33  5.8029929E-01
   7168.67  5.7959392E-01
   7169.00  5.7622573E-01
   7169.33  5.7023057E-01
   7169.67  5.6233044E-01
   7170.00  5.5295142E-01
   7170.33  5.4251008E-01
   7170.67  5.3167586E-01
   7171.00  5.2092475E-01
   7171.33  5.1090521E-01
   7171.67  5.0215611E-01
   7172.00  4.9524464E-01
