    FDMNES
    energy     <xanes>
   7097.00  4.3911110E-03
   7097.33  4.4824370E-03
   7097.67  4.5775300E-03
   7098.00  4.6766333E-03
   7098.33  4.7805999E-03
   7098.67  4.8892377E-03
   7099.00  5.0028775E-03
   7099.33  5.1226274E-03
   7099.67  5.2482911E-03
   7100.00  5.3803317E-03
   7100.33  5.5202295E-03
   7100.67  5.6678025E-03
   7101.00  5.8237215E-03
   7101.33  5.9900323E-03
   7101.67  6.1666090E-03
   7102.00  6.3544643E-03
   7102.33  6.5565448E-03
   7102.67  6.7728751E-03
   7103.00  7.0050631E-03
   7103.33  7.2575771E-03
   7103.67  7.5308129E-03
   7104.00  7.8274873E-03
   7104.33  8.1548328E-03
   7104.67  8.5141640E-03
   7105.00  8.9104509E-03
   7105.33  9.3564339E-03
   7105.67  9.8558337E-03
   7106.00  1.0418743E-02
   7106.33  1.1070301E-02
   7106.67  1.1821230E-02
   7107.00  1.2695177E-02
   7107.33  1.3750283E-02
   7107.67  1.5021381E-02
   7108.00  1.6576555E-02
   7108.33  1.8586004E-02
   7108.67  2.1192601E-02
   7109.00  2.4665502E-02
   7109.33  2.9727597E-02
   7109.67  3.7252456E-02
   7110.00  4.8971167E-02
   7110.33  6.9950863E-02
   7110.67  1.0555513E-01
   7111.00  1.5471170E-01
   7111.33  1.8614427E-01
   7111.67  1.8340086E-01
   7112.00  1.6097865E-01
   7112.33  1.3959582E-01
   7112.67  1.2829621E-01
   7113.00  1.2733153E-01
   7113.33  1.3403341E-01
   7113.67  1.4080821E-01
   7114.00  1.4321976E-01
   7114.33  1.4351377E-01
   7114.67  1.4812698E-01
   7115.00  1.6009580E-01
   7115.33  1.7939976E-01
   7115.67  1.9519033E-01
   7116.00  1.9577568E-01
   7116.33  1.7786766E-01
   7116.67  1.5442103E-01
   7117.00  1.3334801E-01
   7117.33  1.1868619E-01
   7117.67  1.0963236E-01
   7118.00  1.0535017E-01
   7118.33  1.0525653E-01
   7118.67  1.0777326E-01
   7119.00  1.1179805E-01
   7119.33  1.1613354E-01
   7119.67  1.2012883E-01
   7120.00  1.2387721E-01
   7120.33  1.2763397E-01
   7120.67  1.3146254E-01
   7121.00  1.3552702E-01
   7121.33  1.4052414E-01
   7121.67  1.4713705E-01
   7122.00  1.5575987E-01
   7122.33  1.6652195E-01
   7122.67  1.7883870E-01
   7123.00  1.9273844E-01
   7123.33  2.0912022E-01
   7123.67  2.2821935E-01
   7124.00  2.4902101E-01
   7124.33  2.6694887E-01
   7124.67  2.7776800E-01
   7125.00  2.8162704E-01
   7125.33  2.8161468E-01
   7125.67  2.8066421E-01
   7126.00  2.8039045E-01
   7126.33  2.8405644E-01
   7126.67  2.9356622E-01
   7127.00  3.0968391E-01
   7127.33  3.3334668E-01
   7127.67  3.6347466E-01
   7128.00  3.9939799E-01
   7128.33  4.3995170E-01
   7128.67  4.8193871E-01
   7129.00  5.2225017E-01
   7129.33  5.5639979E-01
   7129.67  5.8355303E-01
   7130.00  6.0551424E-01
   7130.33  6.2564638E-01
   7130.67  6.4567393E-01
   7131.00  6.6449857E-01
   7131.33  6.7992076E-01
   7131.67  6.9248351E-01
   7132.00  7.0394561E-01
   7132.33  7.1603673E-01
   7132.67  7.2837373E-01
   7133.00  7.3957831E-01
   7133.33  7.4812544E-01
   7133.67  7.5484880E-01
   7134.00  7.6174276E-01
   7134.33  7.7164545E-01
   7134.67  7.8476496E-01
   7135.00  7.9960878E-01
   7135.33  8.1341631E-01
   7135.67  8.2429941E-01
   7136.00  8.3171207E-01
   7136.33  8.3593084E-01
   7136.67  8.3859681E-01
   7137.00  8.4063870E-01
   7137.33  8.4221707E-01
   7137.67  8.4235603E-01
   7138.00  8.3929780E-01
   7138.33  8.2991819E-01
   7138.67  8.1315957E-01
   7139.00  7.8881764E-01
   7139.33  7.5766676E-01
   7139.67  7.2325081E-01
   7140.00  6.8813373E-01
   7140.33  6.5492727E-01
   7140.67  6.2488848E-01
   7141.00  5.9859731E-01
   7141.33  5.7665679E-01
   7141.67  5.5834770E-01
   7142.00  5.4332629E-01
   7142.33  5.3148020E-01
   7142.67  5.2197986E-01
   7143.00  5.1443173E-01
   7143.33  5.0859949E-01
   7143.67  5.0391108E-01
   7144.00  5.0008324E-01
   7144.33  4.9691695E-01
   7144.67  4.9413290E-01
   7145.00  4.9160600E-01
   7145.33  4.8926450E-01
   7145.67  4.8704982E-01
   7146.00  4.8496828E-01
   7146.33  4.8308653E-01
   7146.67  4.8145767E-01
   7147.00  4.8016412E-01
   7147.33  4.7936921E-01
   7147.67  4.7912577E-01
   7148.00  4.7951631E-01
   7148.33  4.8070363E-01
   7148.67  4.8262839E-01
   7149.00  4.8525583E-01
   7149.33  4.8852758E-01
   7149.67  4.9212873E-01
   7150.00  4.9579281E-01
   7150.33  4.9917041E-01
   7150.67  5.0200936E-01
   7151.00  5.0414110E-01
   7151.33  5.0540250E-01
   7151.67  5.0596323E-01
   7152.00  5.0596502E-01
   7152.33  5.0556034E-01
   7152.67  5.0496853E-01
   7153.00  5.0428816E-01
   7153.33  5.0355386E-01
   7153.67  5.0274139E-01
   7154.00  5.0178802E-01
   7154.33  5.0057584E-01
   7154.67  4.9905346E-01
   7155.00  4.9717655E-01
   7155.33  4.9488606E-01
   7155.67  4.9225100E-01
   7156.00  4.8930311E-01
   7156.33  4.8602444E-01
   7156.67  4.8241944E-01
   7157.00  4.7840643E-01
   7157.33  4.7376789E-01
   7157.67  4.6840790E-01
   7158.00  4.6221362E-01
   7158.33  4.5502552E-01
   7158.67  4.4702401E-01
   7159.00  4.3836764E-01
   7159.33  4.2928819E-01
   7159.67  4.2017667E-01
   7160.00  4.1134772E-01
   7160.33  4.0323652E-01
   7160.67  3.9608327E-01
   7161.00  3.9012445E-01
   7161.33  3.8576691E-01
   7161.67  3.8300973E-01
   7162.00  3.8196823E-01
   7162.33  3.8297218E-01
   7162.67  3.8586561E-01
   7163.00  3.9068226E-01
   7163.33  3.9766939E-01
   7163.67  4.0655284E-01
   7164.00  4.1726668E-01
   7164.33  4.2989288E-01
   7164.67  4.4401788E-01
   7165.00  4.5940327E-01
   7165.33  4.7579986E-01
   7165.67  4.9264279E-01
   7166.00  5.0947860E-01
   7166.33  5.2565225E-01
   7166.67  5.4063416E-01
   7167.00  5.5392552E-01
   7167.33  5.6474553E-01
   7167.67  5.7298413E-01
   7168.00  5.7842358E-01
   7168.33  5.8059916E-01
   7168.67  5.7993807E-01
   7169.00  5.7661764E-01
   7169.33  5.7067302E-01
   7169.67  5.6282315E-01
   7170.00  5.5349102E-01
   7170.33  5.4308889E-01
   7170.67  5.3228464E-01
   7171.00  5.2155343E-01
   7171.33  5.1154334E-01
   7171.67  5.0279702E-01
   7172.00  4.9588507E-01
