    FDMNES
    energy     <xanes>
   7097.00  4.9084396E-03
   7097.33  5.0276384E-03
   7097.67  5.1526009E-03
   7098.00  5.2837439E-03
   7098.33  5.4224471E-03
   7098.67  5.5684748E-03
   7099.00  5.7224045E-03
   7099.33  5.8860719E-03
   7099.67  6.0592477E-03
   7100.00  6.2427542E-03
   7100.33  6.4391021E-03
   7100.67  6.6481045E-03
   7101.00  6.8709706E-03
   7101.33  7.1112473E-03
   7101.67  7.3688694E-03
   7102.00  7.6456832E-03
   7102.33  7.9468971E-03
   7102.67  8.2727411E-03
   7103.00  8.6261659E-03
   7103.33  9.0151861E-03
   7103.67  9.4407213E-03
   7104.00  9.9077570E-03
   7104.33  1.0429361E-02
   7104.67  1.1008089E-02
   7105.00  1.1652972E-02
   7105.33  1.2386945E-02
   7105.67  1.3216658E-02
   7106.00  1.4160013E-02
   7106.33  1.5261343E-02
   7106.67  1.6538567E-02
   7107.00  1.8031745E-02
   7107.33  1.9838764E-02
   7107.67  2.2013407E-02
   7108.00  2.4662298E-02
   7108.33  2.8048153E-02
   7108.67  3.2368279E-02
   7109.00  3.7993471E-02
   7109.33  4.5886922E-02
   7109.67  5.7076914E-02
   7110.00  7.3553285E-02
   7110.33  1.0099016E-01
   7110.67  1.4602426E-01
   7111.00  2.1481914E-01
   7111.33  3.0522927E-01
   7111.67  3.9013653E-01
   7112.00  4.4725447E-01
   7112.33  4.8920085E-01
   7112.67  5.2123920E-01
   7113.00  5.0594319E-01
   7113.33  4.1153658E-01
   7113.67  3.0175774E-01
   7114.00  2.1833596E-01
   7114.33  1.6932442E-01
   7114.67  1.4112114E-01
   7115.00  1.2737620E-01
   7115.33  1.2531846E-01
   7115.67  1.3078038E-01
   7116.00  1.3948434E-01
   7116.33  1.4374345E-01
   7116.67  1.4170050E-01
   7117.00  1.3542578E-01
   7117.33  1.2747758E-01
   7117.67  1.2067556E-01
   7118.00  1.1644130E-01
   7118.33  1.1549201E-01
   7118.67  1.1676259E-01
   7119.00  1.1888930E-01
   7119.33  1.2048911E-01
   7119.67  1.2201004E-01
   7120.00  1.2417801E-01
   7120.33  1.2707514E-01
   7120.67  1.3001490E-01
   7121.00  1.3281163E-01
   7121.33  1.3621132E-01
   7121.67  1.4084773E-01
   7122.00  1.4702690E-01
   7122.33  1.5540127E-01
   7122.67  1.6627273E-01
   7123.00  1.7995901E-01
   7123.33  1.9673678E-01
   7123.67  2.1559928E-01
   7124.00  2.3544664E-01
   7124.33  2.5457463E-01
   7124.67  2.7163236E-01
   7125.00  2.8584226E-01
   7125.33  2.9631492E-01
   7125.67  3.0321496E-01
   7126.00  3.0659311E-01
   7126.33  3.0693174E-01
   7126.67  3.0633427E-01
   7127.00  3.0657706E-01
   7127.33  3.0939130E-01
   7127.67  3.1498396E-01
   7128.00  3.2330952E-01
   7128.33  3.3453481E-01
   7128.67  3.4819786E-01
   7129.00  3.6406707E-01
   7129.33  3.8173409E-01
   7129.67  3.9992348E-01
   7130.00  4.1741053E-01
   7130.33  4.3252691E-01
   7130.67  4.4477823E-01
   7131.00  4.5438747E-01
   7131.33  4.6226964E-01
   7131.67  4.6999544E-01
   7132.00  4.7849393E-01
   7132.33  4.8845385E-01
   7132.67  4.9964123E-01
   7133.00  5.1163447E-01
   7133.33  5.2374057E-01
   7133.67  5.3517393E-01
   7134.00  5.4522232E-01
   7134.33  5.5261536E-01
   7134.67  5.5663465E-01
   7135.00  5.5672293E-01
   7135.33  5.5261632E-01
   7135.67  5.4601757E-01
   7136.00  5.3847929E-01
   7136.33  5.3180734E-01
   7136.67  5.2700921E-01
   7137.00  5.2443259E-01
   7137.33  5.2416958E-01
   7137.67  5.2542721E-01
   7138.00  5.2765484E-01
   7138.33  5.3037300E-01
   7138.67  5.3323903E-01
   7139.00  5.3621636E-01
   7139.33  5.3947941E-01
   7139.67  5.4324157E-01
   7140.00  5.4772167E-01
   7140.33  5.5324704E-01
   7140.67  5.5984441E-01
   7141.00  5.6758170E-01
   7141.33  5.7663295E-01
   7141.67  5.8684020E-01
   7142.00  5.9817105E-01
   7142.33  6.1070064E-01
   7142.67  6.2420880E-01
   7143.00  6.3858673E-01
   7143.33  6.5374728E-01
   7143.67  6.6938375E-01
   7144.00  6.8528699E-01
   7144.33  7.0122210E-01
   7144.67  7.1697976E-01
   7145.00  7.3242089E-01
   7145.33  7.4737216E-01
   7145.67  7.6180599E-01
   7146.00  7.7566722E-01
   7146.33  7.8880320E-01
   7146.67  8.0119170E-01
   7147.00  8.1270964E-01
   7147.33  8.2303850E-01
   7147.67  8.3208470E-01
   7148.00  8.3963661E-01
   7148.33  8.4522837E-01
   7148.67  8.4884847E-01
   7149.00  8.5033343E-01
   7149.33  8.4926690E-01
   7149.67  8.4587676E-01
   7150.00  8.4018445E-01
   7150.33  8.3202232E-01
   7150.67  8.2185461E-01
   7151.00  8.0990462E-01
   7151.33  7.9630017E-01
   7151.67  7.8157068E-01
   7152.00  7.6601601E-01
   7152.33  7.4990034E-01
   7152.67  7.3357977E-01
   7153.00  7.1727647E-01
   7153.33  7.0124990E-01
   7153.67  6.8566384E-01
   7154.00  6.7065034E-01
   7154.33  6.5640833E-01
   7154.67  6.4292888E-01
   7155.00  6.3025435E-01
   7155.33  6.1851692E-01
   7155.67  6.0762540E-01
   7156.00  5.9758291E-01
   7156.33  5.8849097E-01
   7156.67  5.8023501E-01
   7157.00  5.7280620E-01
   7157.33  5.6629524E-01
   7157.67  5.6058728E-01
   7158.00  5.5566868E-01
   7158.33  5.5161308E-01
   7158.67  5.4829261E-01
   7159.00  5.4566929E-01
   7159.33  5.4376167E-01
   7159.67  5.4240467E-01
   7160.00  5.4150033E-01
   7160.33  5.4095855E-01
   7160.67  5.4060547E-01
   7161.00  5.4032805E-01
   7161.33  5.4000060E-01
   7161.67  5.3953191E-01
   7162.00  5.3886165E-01
   7162.33  5.3791560E-01
   7162.67  5.3671434E-01
   7163.00  5.3527096E-01
   7163.33  5.3358497E-01
   7163.67  5.3171102E-01
   7164.00  5.2966746E-01
   7164.33  5.2744391E-01
   7164.67  5.2505579E-01
   7165.00  5.2248888E-01
   7165.33  5.1969213E-01
   7165.67  5.1666142E-01
   7166.00  5.1337327E-01
   7166.33  5.0977441E-01
   7166.67  5.0589611E-01
   7167.00  5.0175143E-01
   7167.33  4.9733971E-01
   7167.67  4.9273508E-01
   7168.00  4.8798785E-01
   7168.33  4.8315311E-01
   7168.67  4.7830633E-01
   7169.00  4.7350185E-01
   7169.33  4.6881031E-01
   7169.67  4.6427124E-01
   7170.00  4.5992560E-01
   7170.33  4.5584822E-01
   7170.67  4.5205415E-01
   7171.00  4.4858479E-01
   7171.33  4.4554492E-01
   7171.67  4.4296383E-01
   7172.00  4.4092209E-01
