    FDMNES
    energy     <xanes>
   7097.00  5.3714250E-03
   7097.33  5.5074993E-03
   7097.67  5.6501435E-03
   7098.00  5.7998214E-03
   7098.33  5.9580858E-03
   7098.67  6.1246507E-03
   7099.00  6.3001525E-03
   7099.33  6.4866394E-03
   7099.67  6.6838231E-03
   7100.00  6.8925993E-03
   7100.33  7.1157397E-03
   7100.67  7.3529870E-03
   7101.00  7.6056402E-03
   7101.33  7.8775646E-03
   7101.67  8.1686067E-03
   7102.00  8.4807185E-03
   7102.33  8.8194870E-03
   7102.67  9.1850213E-03
   7103.00  9.5803822E-03
   7103.33  1.0014002E-02
   7103.67  1.0486609E-02
   7104.00  1.1003258E-02
   7104.33  1.1577373E-02
   7104.67  1.2211144E-02
   7105.00  1.2913470E-02
   7105.33  1.3707219E-02
   7105.67  1.4598172E-02
   7106.00  1.5603363E-02
   7106.33  1.6765358E-02
   7106.67  1.8099527E-02
   7107.00  1.9642345E-02
   7107.33  2.1483342E-02
   7107.67  2.3667186E-02
   7108.00  2.6285639E-02
   7108.33  2.9564315E-02
   7108.67  3.3659160E-02
   7109.00  3.8867512E-02
   7109.33  4.5953634E-02
   7109.67  5.5681934E-02
   7110.00  6.9528464E-02
   7110.33  9.1625197E-02
   7110.67  1.2637277E-01
   7111.00  1.7649508E-01
   7111.33  2.3792096E-01
   7111.67  3.1625050E-01
   7112.00  4.2614104E-01
   7112.33  5.4617034E-01
   7112.67  6.0942300E-01
   7113.00  6.1559652E-01
   7113.33  5.8680413E-01
   7113.67  5.5010765E-01
   7114.00  4.7984450E-01
   7114.33  3.7350807E-01
   7114.67  2.8459888E-01
   7115.00  2.2720930E-01
   7115.33  1.9962709E-01
   7115.67  1.9110967E-01
   7116.00  1.9376145E-01
   7116.33  1.9261954E-01
   7116.67  1.8012822E-01
   7117.00  1.6315596E-01
   7117.33  1.5094303E-01
   7117.67  1.4421900E-01
   7118.00  1.4142320E-01
   7118.33  1.4124571E-01
   7118.67  1.4250647E-01
   7119.00  1.4485203E-01
   7119.33  1.4841514E-01
   7119.67  1.5164609E-01
   7120.00  1.5159990E-01
   7120.33  1.4802597E-01
   7120.67  1.4481815E-01
   7121.00  1.4359463E-01
   7121.33  1.4521678E-01
   7121.67  1.4969861E-01
   7122.00  1.5726410E-01
   7122.33  1.6851011E-01
   7122.67  1.8325465E-01
   7123.00  2.0170190E-01
   7123.33  2.2423087E-01
   7123.67  2.4971064E-01
   7124.00  2.7712670E-01
   7124.33  3.0487846E-01
   7124.67  3.3074988E-01
   7125.00  3.5271444E-01
   7125.33  3.6848361E-01
   7125.67  3.7900489E-01
   7126.00  3.8617029E-01
   7126.33  3.9329590E-01
   7126.67  4.0356484E-01
   7127.00  4.1863392E-01
   7127.33  4.3904690E-01
   7127.67  4.6240293E-01
   7128.00  4.8686600E-01
   7128.33  5.1077879E-01
   7128.67  5.3336205E-01
   7129.00  5.5450750E-01
   7129.33  5.7433265E-01
   7129.67  5.9308035E-01
   7130.00  6.1008847E-01
   7130.33  6.2320134E-01
   7130.67  6.3146232E-01
   7131.00  6.3513606E-01
   7131.33  6.3562922E-01
   7131.67  6.3516300E-01
   7132.00  6.3465363E-01
   7132.33  6.3433856E-01
   7132.67  6.3386326E-01
   7133.00  6.3282437E-01
   7133.33  6.3075902E-01
   7133.67  6.2762964E-01
   7134.00  6.2341573E-01
   7134.33  6.1806951E-01
   7134.67  6.1186762E-01
   7135.00  6.0487913E-01
   7135.33  5.9691642E-01
   7135.67  5.8793351E-01
   7136.00  5.7788663E-01
   7136.33  5.6685681E-01
   7136.67  5.5542974E-01
   7137.00  5.4418428E-01
   7137.33  5.3398359E-01
   7137.67  5.2539816E-01
   7138.00  5.1888879E-01
   7138.33  5.1510513E-01
   7138.67  5.1387016E-01
   7139.00  5.1512182E-01
   7139.33  5.1890862E-01
   7139.67  5.2460364E-01
   7140.00  5.3187260E-01
   7140.33  5.4048183E-01
   7140.67  5.4994053E-01
   7141.00  5.5999783E-01
   7141.33  5.7044983E-01
   7141.67  5.8103713E-01
   7142.00  5.9158809E-01
   7142.33  6.0188508E-01
   7142.67  6.1178595E-01
   7143.00  6.2117488E-01
   7143.33  6.2990654E-01
   7143.67  6.3807189E-01
   7144.00  6.4575537E-01
   7144.33  6.5306577E-01
   7144.67  6.6023826E-01
   7145.00  6.6745455E-01
   7145.33  6.7492144E-01
   7145.67  6.8270791E-01
   7146.00  6.9081305E-01
   7146.33  6.9916811E-01
   7146.67  7.0755956E-01
   7147.00  7.1576831E-01
   7147.33  7.2342012E-01
   7147.67  7.3021654E-01
   7148.00  7.3582596E-01
   7148.33  7.3966898E-01
   7148.67  7.4160283E-01
   7149.00  7.4140743E-01
   7149.33  7.3866898E-01
   7149.67  7.3370743E-01
   7150.00  7.2667212E-01
   7150.33  7.1760777E-01
   7150.67  7.0708426E-01
   7151.00  6.9542562E-01
   7151.33  6.8291726E-01
   7151.67  6.7002511E-01
   7152.00  6.5704617E-01
   7152.33  6.4427308E-01
   7152.67  6.3187706E-01
   7153.00  6.1998225E-01
   7153.33  6.0876649E-01
   7153.67  5.9821815E-01
   7154.00  5.8836806E-01
   7154.33  5.7931961E-01
   7154.67  5.7098057E-01
   7155.00  5.6333802E-01
   7155.33  5.5645245E-01
   7155.67  5.5021040E-01
   7156.00  5.4458340E-01
   7156.33  5.3960611E-01
   7156.67  5.3516526E-01
   7157.00  5.3122391E-01
   7157.33  5.2779389E-01
   7157.67  5.2477161E-01
   7158.00  5.2211545E-01
   7158.33  5.1981479E-01
   7158.67  5.1777890E-01
   7159.00  5.1596261E-01
   7159.33  5.1433067E-01
   7159.67  5.1280359E-01
   7160.00  5.1132862E-01
   7160.33  5.0983959E-01
   7160.67  5.0827058E-01
   7161.00  5.0656524E-01
   7161.33  5.0464051E-01
   7161.67  5.0247175E-01
   7162.00  5.0002659E-01
   7162.33  4.9724310E-01
   7162.67  4.9415063E-01
   7163.00  4.9075486E-01
   7163.33  4.8704019E-01
   7163.67  4.8307416E-01
   7164.00  4.7888993E-01
   7164.33  4.7450461E-01
   7164.67  4.6997955E-01
   7165.00  4.6534850E-01
   7165.33  4.6064224E-01
   7165.67  4.5590902E-01
   7166.00  4.5118533E-01
   7166.33  4.4652283E-01
   7166.67  4.4195960E-01
   7167.00  4.3753083E-01
   7167.33  4.3329242E-01
   7167.67  4.2925741E-01
   7168.00  4.2545134E-01
   7168.33  4.2192617E-01
   7168.67  4.1866307E-01
   7169.00  4.1566674E-01
   7169.33  4.1296851E-01
   7169.67  4.1052552E-01
   7170.00  4.0832362E-01
   7170.33  4.0636874E-01
   7170.67  4.0460969E-01
   7171.00  4.0302811E-01
   7171.33  4.0163325E-01
   7171.67  4.0041691E-01
   7172.00  3.9941670E-01
