    FDMNES
    energy     <xanes>
   7097.00  5.1533808E-03
   7097.33  5.2778105E-03
   7097.67  5.4079438E-03
   7098.00  5.5441666E-03
   7098.33  5.6877987E-03
   7098.67  5.8385701E-03
   7099.00  5.9970063E-03
   7099.33  6.1648326E-03
   7099.67  6.3417724E-03
   7100.00  6.5285608E-03
   7100.33  6.7275128E-03
   7100.67  6.9383723E-03
   7101.00  7.1622008E-03
   7101.33  7.4022031E-03
   7101.67  7.6582035E-03
   7102.00  7.9317945E-03
   7102.33  8.2275836E-03
   7102.67  8.5456107E-03
   7103.00  8.8883763E-03
   7103.33  9.2628213E-03
   7103.67  9.6695105E-03
   7104.00  1.0112600E-02
   7104.33  1.0603178E-02
   7104.67  1.1143081E-02
   7105.00  1.1739734E-02
   7105.33  1.2412240E-02
   7105.67  1.3165674E-02
   7106.00  1.4014605E-02
   7106.33  1.4995438E-02
   7106.67  1.6122295E-02
   7107.00  1.7427673E-02
   7107.33  1.8991480E-02
   7107.67  2.0857252E-02
   7108.00  2.3112316E-02
   7108.33  2.5973252E-02
   7108.67  2.9605931E-02
   7109.00  3.4324580E-02
   7109.33  4.0956802E-02
   7109.67  5.0426668E-02
   7110.00  6.4545185E-02
   7110.33  8.8492819E-02
   7110.67  1.2747981E-01
   7111.00  1.8113201E-01
   7111.33  2.3013261E-01
   7111.67  2.7413997E-01
   7112.00  3.2441182E-01
   7112.33  3.7360684E-01
   7112.67  4.0613204E-01
   7113.00  3.9944108E-01
   7113.33  3.4440901E-01
   7113.67  2.7923337E-01
   7114.00  2.1997110E-01
   7114.33  1.7661529E-01
   7114.67  1.4795510E-01
   7115.00  1.3106269E-01
   7115.33  1.2399873E-01
   7115.67  1.2431811E-01
   7116.00  1.3212079E-01
   7116.33  1.4976197E-01
   7116.67  1.7763082E-01
   7117.00  2.1436862E-01
   7117.33  2.5020485E-01
   7117.67  2.7327908E-01
   7118.00  2.8269248E-01
   7118.33  2.8661393E-01
   7118.67  2.9106322E-01
   7119.00  2.9296111E-01
   7119.33  2.9301317E-01
   7119.67  2.9987009E-01
   7120.00  3.1829719E-01
   7120.33  3.4964092E-01
   7120.67  3.8652017E-01
   7121.00  4.1813919E-01
   7121.33  4.3136244E-01
   7121.67  4.3106290E-01
   7122.00  4.2696555E-01
   7122.33  4.2701461E-01
   7122.67  4.3236890E-01
   7123.00  4.4268526E-01
   7123.33  4.5791136E-01
   7123.67  4.7636555E-01
   7124.00  4.9630006E-01
   7124.33  5.1478093E-01
   7124.67  5.2899715E-01
   7125.00  5.3694861E-01
   7125.33  5.3701358E-01
   7125.67  5.3125442E-01
   7126.00  5.2190427E-01
   7126.33  5.1250657E-01
   7126.67  5.0641795E-01
   7127.00  5.0505235E-01
   7127.33  5.0834711E-01
   7127.67  5.1385416E-01
   7128.00  5.1977116E-01
   7128.33  5.2400603E-01
   7128.67  5.2526893E-01
   7129.00  5.2298405E-01
   7129.33  5.1723901E-01
   7129.67  5.0996715E-01
   7130.00  5.0284479E-01
   7130.33  4.9761038E-01
   7130.67  4.9450686E-01
   7131.00  4.9307717E-01
   7131.33  4.9239991E-01
   7131.67  4.9145789E-01
   7132.00  4.8985307E-01
   7132.33  4.8761982E-01
   7132.67  4.8528499E-01
   7133.00  4.8315306E-01
   7133.33  4.8108425E-01
   7133.67  4.7842717E-01
   7134.00  4.7470190E-01
   7134.33  4.6981641E-01
   7134.67  4.6443026E-01
   7135.00  4.5904540E-01
   7135.33  4.5412180E-01
   7135.67  4.4981059E-01
   7136.00  4.4616280E-01
   7136.33  4.4324974E-01
   7136.67  4.4098763E-01
   7137.00  4.3942526E-01
   7137.33  4.3877712E-01
   7137.67  4.3907409E-01
   7138.00  4.4040439E-01
   7138.33  4.4289521E-01
   7138.67  4.4623789E-01
   7139.00  4.5012904E-01
   7139.33  4.5411633E-01
   7139.67  4.5772077E-01
   7140.00  4.6061807E-01
   7140.33  4.6244785E-01
   7140.67  4.6322920E-01
   7141.00  4.6297438E-01
   7141.33  4.6168324E-01
   7141.67  4.5968334E-01
   7142.00  4.5721816E-01
   7142.33  4.5458948E-01
   7142.67  4.5213240E-01
   7143.00  4.5008851E-01
   7143.33  4.4876267E-01
   7143.67  4.4823223E-01
   7144.00  4.4858103E-01
   7144.33  4.4997413E-01
   7144.67  4.5230451E-01
   7145.00  4.5555679E-01
   7145.33  4.5980443E-01
   7145.67  4.6488111E-01
   7146.00  4.7072143E-01
   7146.33  4.7730338E-01
   7146.67  4.8439870E-01
   7147.00  4.9184228E-01
   7147.33  4.9940881E-01
   7147.67  5.0680400E-01
   7148.00  5.1376755E-01
   7148.33  5.1991185E-01
   7148.67  5.2507253E-01
   7149.00  5.2908686E-01
   7149.33  5.3169391E-01
   7149.67  5.3304450E-01
   7150.00  5.3321063E-01
   7150.33  5.3222320E-01
   7150.67  5.3041615E-01
   7151.00  5.2797296E-01
   7151.33  5.2503214E-01
   7151.67  5.2180386E-01
   7152.00  5.1838470E-01
   7152.33  5.1483324E-01
   7152.67  5.1120526E-01
   7153.00  5.0752059E-01
   7153.33  5.0379151E-01
   7153.67  5.0004402E-01
   7154.00  4.9630383E-01
   7154.33  4.9261682E-01
   7154.67  4.8902477E-01
   7155.00  4.8557053E-01
   7155.33  4.8232258E-01
   7155.67  4.7929300E-01
   7156.00  4.7650127E-01
   7156.33  4.7398730E-01
   7156.67  4.7171517E-01
   7157.00  4.6967301E-01
   7157.33  4.6787052E-01
   7157.67  4.6626479E-01
   7158.00  4.6484535E-01
   7158.33  4.6362772E-01
   7158.67  4.6258661E-01
   7159.00  4.6172092E-01
   7159.33  4.6105078E-01
   7159.67  4.6055194E-01
   7160.00  4.6021808E-01
   7160.33  4.6004705E-01
   7160.67  4.5999224E-01
   7161.00  4.6003030E-01
   7161.33  4.6014335E-01
   7161.67  4.6029766E-01
   7162.00  4.6047576E-01
   7162.33  4.6066380E-01
   7162.67  4.6084814E-01
   7163.00  4.6101636E-01
   7163.33  4.6114572E-01
   7163.67  4.6122078E-01
   7164.00  4.6122591E-01
   7164.33  4.6113666E-01
   7164.67  4.6095722E-01
   7165.00  4.6069015E-01
   7165.33  4.6033833E-01
   7165.67  4.5993293E-01
   7166.00  4.5949919E-01
   7166.33  4.5907279E-01
   7166.67  4.5869083E-01
   7167.00  4.5838591E-01
   7167.33  4.5820737E-01
   7167.67  4.5817128E-01
   7168.00  4.5829817E-01
   7168.33  4.5862758E-01
   7168.67  4.5914578E-01
   7169.00  4.5985324E-01
   7169.33  4.6076565E-01
   7169.67  4.6184564E-01
   7170.00  4.6307506E-01
   7170.33  4.6444166E-01
   7170.67  4.6589520E-01
   7171.00  4.6739719E-01
   7171.33  4.6888311E-01
   7171.67  4.7025565E-01
   7172.00  4.7139359E-01
