    FDMNES
    energy     <xanes>
   7097.00  5.1492109E-03
   7097.33  5.2772694E-03
   7097.67  5.4115091E-03
   7098.00  5.5523733E-03
   7098.33  5.7013351E-03
   7098.67  5.8581367E-03
   7099.00  6.0233913E-03
   7099.33  6.1990550E-03
   7099.67  6.3848754E-03
   7100.00  6.5817240E-03
   7100.33  6.7922715E-03
   7100.67  7.0163091E-03
   7101.00  7.2551171E-03
   7101.33  7.5124623E-03
   7101.67  7.7882643E-03
   7102.00  8.0844780E-03
   7102.33  8.4066299E-03
   7102.67  8.7549544E-03
   7103.00  9.1325795E-03
   7103.33  9.5480131E-03
   7103.67  1.0002232E-02
   7104.00  1.0500540E-02
   7104.33  1.1056844E-02
   7104.67  1.1673905E-02
   7105.00  1.2361392E-02
   7105.33  1.3143862E-02
   7105.67  1.4028613E-02
   7106.00  1.5035039E-02
   7106.33  1.6211177E-02
   7106.67  1.7577092E-02
   7107.00  1.9177081E-02
   7107.33  2.1119535E-02
   7107.67  2.3466550E-02
   7108.00  2.6340134E-02
   7108.33  3.0042628E-02
   7108.67  3.4813093E-02
   7109.00  4.1100783E-02
   7109.33  5.0090241E-02
   7109.67  6.3122899E-02
   7110.00  8.2821797E-02
   7110.33  1.1673767E-01
   7110.67  1.7314361E-01
   7111.00  2.5578424E-01
   7111.33  3.4709450E-01
   7111.67  4.1036998E-01
   7112.00  4.2815022E-01
   7112.33  4.0459384E-01
   7112.67  3.7419920E-01
   7113.00  3.5665610E-01
   7113.33  3.4489009E-01
   7113.67  3.1888566E-01
   7114.00  2.8052953E-01
   7114.33  2.4858005E-01
   7114.67  2.3305956E-01
   7115.00  2.3538532E-01
   7115.33  2.5426233E-01
   7115.67  2.7688347E-01
   7116.00  2.8641838E-01
   7116.33  2.6840252E-01
   7116.67  2.3739206E-01
   7117.00  2.0693730E-01
   7117.33  1.8407799E-01
   7117.67  1.6765199E-01
   7118.00  1.5590469E-01
   7118.33  1.4724871E-01
   7118.67  1.4047728E-01
   7119.00  1.3556979E-01
   7119.33  1.3272974E-01
   7119.67  1.3137490E-01
   7120.00  1.3121238E-01
   7120.33  1.3221061E-01
   7120.67  1.3377695E-01
   7121.00  1.3482532E-01
   7121.33  1.3368400E-01
   7121.67  1.3090181E-01
   7122.00  1.2833962E-01
   7122.33  1.2813870E-01
   7122.67  1.3055529E-01
   7123.00  1.3526677E-01
   7123.33  1.4186760E-01
   7123.67  1.4994606E-01
   7124.00  1.5983941E-01
   7124.33  1.7226234E-01
   7124.67  1.8699861E-01
   7125.00  2.0399039E-01
   7125.33  2.2334499E-01
   7125.67  2.4423012E-01
   7126.00  2.6583549E-01
   7126.33  2.8725262E-01
   7126.67  3.0788326E-01
   7127.00  3.2746633E-01
   7127.33  3.4624868E-01
   7127.67  3.6548614E-01
   7128.00  3.8644003E-01
   7128.33  4.1041333E-01
   7128.67  4.3708948E-01
   7129.00  4.6620125E-01
   7129.33  4.9844062E-01
   7129.67  5.3410034E-01
   7130.00  5.7299445E-01
   7130.33  6.1376025E-01
   7130.67  6.5381516E-01
   7131.00  6.9137296E-01
   7131.33  7.2450487E-01
   7131.67  7.5236013E-01
   7132.00  7.7390398E-01
   7132.33  7.8807921E-01
   7132.67  7.9653374E-01
   7133.00  8.0028196E-01
   7133.33  7.9999757E-01
   7133.67  7.9721535E-01
   7134.00  7.9288177E-01
   7134.33  7.8784966E-01
   7134.67  7.8265188E-01
   7135.00  7.7721560E-01
   7135.33  7.7095736E-01
   7135.67  7.6326072E-01
   7136.00  7.5349610E-01
   7136.33  7.4069500E-01
   7136.67  7.2479951E-01
   7137.00  7.0577798E-01
   7137.33  6.8378135E-01
   7137.67  6.6028485E-01
   7138.00  6.3675078E-01
   7138.33  6.1538169E-01
   7138.67  5.9768205E-01
   7139.00  5.8460876E-01
   7139.33  5.7708006E-01
   7139.67  5.7397910E-01
   7140.00  5.7444628E-01
   7140.33  5.7759344E-01
   7140.67  5.8200267E-01
   7141.00  5.8690988E-01
   7141.33  5.9170009E-01
   7141.67  5.9606026E-01
   7142.00  5.9986931E-01
   7142.33  6.0302021E-01
   7142.67  6.0560815E-01
   7143.00  6.0766906E-01
   7143.33  6.0919125E-01
   7143.67  6.1028599E-01
   7144.00  6.1100045E-01
   7144.33  6.1135482E-01
   7144.67  6.1145625E-01
   7145.00  6.1136887E-01
   7145.33  6.1115583E-01
   7145.67  6.1088848E-01
   7146.00  6.1059968E-01
   7146.33  6.1033761E-01
   7146.67  6.1015688E-01
   7147.00  6.1011242E-01
   7147.33  6.1029515E-01
   7147.67  6.1074324E-01
   7148.00  6.1150670E-01
   7148.33  6.1268196E-01
   7148.67  6.1426261E-01
   7149.00  6.1627032E-01
   7149.33  6.1876847E-01
   7149.67  6.2169057E-01
   7150.00  6.2499874E-01
   7150.33  6.2864476E-01
   7150.67  6.3246249E-01
   7151.00  6.3630921E-01
   7151.33  6.3997081E-01
   7151.67  6.4326575E-01
   7152.00  6.4603163E-01
   7152.33  6.4802574E-01
   7152.67  6.4922317E-01
   7153.00  6.4956704E-01
   7153.33  6.4892245E-01
   7153.67  6.4741800E-01
   7154.00  6.4510133E-01
   7154.33  6.4195831E-01
   7154.67  6.3817377E-01
   7155.00  6.3383308E-01
   7155.33  6.2897489E-01
   7155.67  6.2374180E-01
   7156.00  6.1819443E-01
   7156.33  6.1235535E-01
   7156.67  6.0629688E-01
   7157.00  6.0004352E-01
   7157.33  5.9359456E-01
   7157.67  5.8699087E-01
   7158.00  5.8025210E-01
   7158.33  5.7339524E-01
   7158.67  5.6647333E-01
   7159.00  5.5952892E-01
   7159.33  5.5262382E-01
   7159.67  5.4581533E-01
   7160.00  5.3915480E-01
   7160.33  5.3271676E-01
   7160.67  5.2650826E-01
   7161.00  5.2053886E-01
   7161.33  5.1482572E-01
   7161.67  5.0930672E-01
   7162.00  5.0393795E-01
   7162.33  4.9866614E-01
   7162.67  4.9341278E-01
   7163.00  4.8812694E-01
   7163.33  4.8275495E-01
   7163.67  4.7728463E-01
   7164.00  4.7171856E-01
   7164.33  4.6607436E-01
   7164.67  4.6040736E-01
   7165.00  4.5476864E-01
   7165.33  4.4923556E-01
   7165.67  4.4386258E-01
   7166.00  4.3870174E-01
   7166.33  4.3383615E-01
   7166.67  4.2926964E-01
   7167.00  4.2502118E-01
   7167.33  4.2113943E-01
   7167.67  4.1757950E-01
   7168.00  4.1432995E-01
   7168.33  4.1140646E-01
   7168.67  4.0874860E-01
   7169.00  4.0633301E-01
   7169.33  4.0415677E-01
   7169.67  4.0216378E-01
   7170.00  4.0033018E-01
   7170.33  3.9864901E-01
   7170.67  3.9708595E-01
   7171.00  3.9563363E-01
   7171.33  3.9431215E-01
   7171.67  3.9313829E-01
   7172.00  3.9216330E-01
